x	y	z	ts
-2,213513	-2,667364	0,948916	2020-10-29T19:38:42:496
0,053871	-0,135381	-0,247587	2020-10-29T19:38:42:496
0,045457	0,170268	-0,325177	2020-10-29T19:38:42:497
0,042024	0,087199	-0,303465	2020-10-29T19:38:42:500
0,044598	0,065311	-0,240827	2020-10-29T19:38:42:552
0,226659	-0,002414	-0,143032	2020-10-29T19:38:42:557
0,065801	0,116682	-0,142936	2020-10-29T19:38:42:560
-0,164022	0,168857	-0,222808	2020-10-29T19:38:42:581
0,044429	0,207850	-0,450994	2020-10-29T19:38:42:601
-0,238709	0,469751	-0,847821	2020-10-29T19:38:42:621
0,186843	0,208787	-1,040912	2020-10-29T19:38:42:641
-0,837368	2,792670	-1,530844	2020-10-29T19:38:42:661
0,173431	1,014538	-0,949669	2020-10-29T19:38:42:681
-0,468220	-0,673833	-0,611131	2020-10-29T19:38:42:702
-0,441377	-0,594382	-0,862742	2020-10-29T19:38:42:721
-0,660508	-0,592348	-1,506385	2020-10-29T19:38:42:741
-0,740364	-0,729077	-1,963219	2020-10-29T19:38:42:761
-0,551486	-0,735651	-2,434521	2020-10-29T19:38:42:782
-0,715195	-1,065422	-2,759024	2020-10-29T19:38:42:801
-0,689742	-1,542214	-2,784782	2020-10-29T19:38:42:822
-0,343161	-2,177995	-2,554021	2020-10-29T19:38:42:841
-0,196259	-2,986495	-2,453708	2020-10-29T19:38:42:861
-0,364759	-3,381271	-2,486725	2020-10-29T19:38:42:881
-0,392639	-3,354827	-2,975313	2020-10-29T19:38:42:901
2,219178	-8,030411	0,643594	2020-10-29T19:38:42:922
2,031221	-9,206711	0,859332	2020-10-29T19:38:42:942
1,796857	-10,283920	1,361402	2020-10-29T19:38:42:961
1,166649	-11,745890	1,992920	2020-10-29T19:38:42:983
-0,005739	-12,930875	2,788824	2020-10-29T19:38:43:001
-1,476203	-13,979124	3,871909	2020-10-29T19:38:43:022
-1,716196	-15,643999	4,169978	2020-10-29T19:38:43:041
-1,468938	-1,636528	1,107346	2020-10-29T19:38:43:064
-1,641221	-1,155571	1,310736	2020-10-29T19:38:43:082
-2,094472	1,527295	4,880453	2020-10-29T19:38:43:104
-2,706146	2,898209	4,787577	2020-10-29T19:38:43:122
-3,412224	2,859300	3,664977	2020-10-29T19:38:43:143
-3,975054	2,822248	3,569128	2020-10-29T19:38:43:161
-4,362884	2,573274	2,925496	2020-10-29T19:38:43:184
-4,417006	2,149921	1,792275	2020-10-29T19:38:43:201
-4,922902	0,895577	1,195918	2020-10-29T19:38:43:288
-4,882936	-1,799052	1,485392	2020-10-29T19:38:43:291
-4,693213	-4,991796	1,511771	2020-10-29T19:38:43:292
-4,494023	-6,957428	3,161846	2020-10-29T19:38:43:295
-3,699436	-6,541162	3,139962	2020-10-29T19:38:43:365
-2,200081	-6,153800	2,095268	2020-10-29T19:38:43:365
-2,993152	-1,480622	0,535675	2020-10-29T19:38:43:366
-3,376003	-0,805846	0,346642	2020-10-29T19:38:43:367
-2,296654	-3,042183	0,698835	2020-10-29T19:38:43:383
-2,352290	-1,365319	0,242498	2020-10-29T19:38:43:402
-1,418782	-2,302476	0,185621	2020-10-29T19:38:43:423
-0,732510	-2,996264	0,329836	2020-10-29T19:38:43:441
-0,104750	-2,820162	0,186076	2020-10-29T19:38:43:462
0,204338	-2,886866	0,264799	2020-10-29T19:38:43:482
0,691719	-3,390187	0,349490	2020-10-29T19:38:43:504
1,078986	-3,794793	0,579354	2020-10-29T19:38:43:521
1,744393	-3,798355	0,645119	2020-10-29T19:38:43:546
1,742920	-3,706634	0,645787	2020-10-29T19:38:43:562
1,567352	-3,203563	0,524745	2020-10-29T19:38:43:584
1,484328	-2,805951	0,320466	2020-10-29T19:38:43:602
0,889535	-1,798585	0,002872	2020-10-29T19:38:43:624
0,576827	-1,510076	-0,263071	2020-10-29T19:38:43:641
0,173822	-1,174878	-0,508878	2020-10-29T19:38:43:666
0,199034	-0,917707	-0,595233	2020-10-29T19:38:43:682
-0,464479	-0,209944	0,015376	2020-10-29T19:38:43:704
-0,955009	-0,415727	0,199623	2020-10-29T19:38:43:722
-0,963354	-0,386121	0,039643	2020-10-29T19:38:43:744
-1,530453	1,386961	-0,338423	2020-10-29T19:38:43:762
-2,782295	2,668954	-2,526173	2020-10-29T19:38:43:786
-3,147804	2,369932	-2,916610	2020-10-29T19:38:43:801
-2,752108	2,491463	-2,959051	2020-10-29T19:38:43:827
-2,916009	2,133798	-2,579598	2020-10-29T19:38:43:864
-3,619166	2,568687	-2,371874	2020-10-29T19:38:43:865
-3,551642	3,157210	-2,465203	2020-10-29T19:38:43:884
-3,269681	3,119796	-2,527500	2020-10-29T19:38:43:909
-3,049737	3,153041	-2,280550	2020-10-29T19:38:43:931
-2,724200	3,258901	-1,959660	2020-10-29T19:38:43:945
-2,321435	2,977506	-1,454965	2020-10-29T19:38:43:967
-2,135749	3,215115	-1,348500	2020-10-29T19:38:43:987
-1,821992	3,716623	-1,478736	2020-10-29T19:38:44:004
-1,520540	3,800964	-1,340610	2020-10-29T19:38:44:027
-1,154219	3,943534	-1,119752	2020-10-29T19:38:44:044
-0,953313	3,918892	-0,610198	2020-10-29T19:38:44:067
-0,515685	3,901769	-0,699884	2020-10-29T19:38:44:085
-0,435698	3,834446	-0,830265	2020-10-29T19:38:44:106
-0,185917	4,134616	-0,946120	2020-10-29T19:38:44:124
0,008946	3,840067	-0,905619	2020-10-29T19:38:44:150
0,156040	3,325122	-0,808640	2020-10-29T19:38:44:165
1,565496	0,424601	-0,469898	2020-10-29T19:38:44:193
2,302485	-2,087863	2,420632	2020-10-29T19:38:52:126
1,070700	-1,540377	1,111581	2020-10-29T19:38:52:127
0,632842	-1,942643	1,458524	2020-10-29T19:38:52:138
0,185677	-3,363535	2,434878	2020-10-29T19:38:52:159
-2,047586	-1,628428	1,832422	2020-10-29T19:38:52:180
-2,119371	-1,324540	3,172402	2020-10-29T19:38:52:198
-2,292631	-0,732488	2,115422	2020-10-29T19:38:52:247
-1,805968	1,324378	1,450958	2020-10-29T19:38:52:248
-1,065413	-0,304649	1,213789	2020-10-29T19:38:52:263
-0,984057	-0,388398	1,089361	2020-10-29T19:38:52:273
-3,454015	-1,308245	-0,667800	2020-10-29T19:38:52:296
-3,224431	-1,954106	-1,612294	2020-10-29T19:38:52:314
-2,888457	-2,000905	-2,723837	2020-10-29T19:38:52:339
-2,329488	-2,171926	-3,145855	2020-10-29T19:38:52:357
-1,377708	-2,598038	-4,047815	2020-10-29T19:38:52:380
0,486611	-2,783659	-4,512698	2020-10-29T19:38:52:405
1,866113	-2,007561	-0,441231	2020-10-29T19:38:52:902
1,365706	-4,142750	-1,259734	2020-10-29T19:38:52:903
1,554638	-4,674566	-1,708717	2020-10-29T19:38:52:915
0,012680	0,026106	-0,032324	2020-10-29T19:38:52:940
-0,954020	-0,177285	0,398384	2020-10-29T19:38:52:956
-1,226442	-1,749880	0,201726	2020-10-29T19:38:52:980
-1,372583	-2,568693	-0,119625	2020-10-29T19:38:52:996
-0,581318	-1,511489	-1,150074	2020-10-29T19:38:53:019
1,180577	2,004069	-1,042478	2020-10-29T19:38:53:035
1,436605	-0,052903	0,599834	2020-10-29T19:38:53:061
0,756451	-1,752151	1,013733	2020-10-29T19:38:53:075
-0,777023	-1,218206	1,355695	2020-10-29T19:38:53:097
-1,759499	0,340796	0,632345	2020-10-29T19:38:53:115
-2,464877	1,238684	0,209130	2020-10-29T19:38:53:139
-2,563471	2,819326	-0,024446	2020-10-29T19:38:53:155
-0,065780	-0,039780	0,048527	2020-10-29T19:38:53:179
-0,589808	-1,173978	0,273452	2020-10-29T19:38:53:195
0,104410	-2,136851	1,520046	2020-10-29T19:38:53:219
0,507803	-1,654636	1,385956	2020-10-29T19:38:53:236
0,586924	-1,365819	0,703624	2020-10-29T19:38:53:259
0,455720	-2,340117	-0,017560	2020-10-29T19:38:53:276
-0,512180	-0,488938	0,276835	2020-10-29T19:38:53:302
-0,196327	-0,907682	0,587903	2020-10-29T19:38:53:315
0,149411	-1,652878	1,062844	2020-10-29T19:38:53:339
-0,214030	-2,227927	0,939960	2020-10-29T19:38:53:356
0,069615	-1,998576	0,845244	2020-10-29T19:38:53:379
0,485792	-0,569116	0,980603	2020-10-29T19:38:53:396
0,309797	-0,421560	1,073668	2020-10-29T19:38:53:419
0,223032	-0,799592	0,473082	2020-10-29T19:38:53:436
-0,098752	-0,096213	0,043793	2020-10-29T19:38:53:462
-0,101146	-0,292425	0,000723	2020-10-29T19:38:53:477
0,403543	-1,507302	1,111198	2020-10-29T19:38:53:499
0,422937	-0,423028	1,019417	2020-10-29T19:38:53:516
0,489974	0,100635	1,025739	2020-10-29T19:38:53:541
0,258571	-0,155348	0,659813	2020-10-29T19:38:53:556
0,684918	-0,385076	0,436575	2020-10-29T19:38:53:579
0,594824	-0,264799	0,952971	2020-10-29T19:38:53:596
0,616915	-0,385161	0,998500	2020-10-29T19:38:53:620
1,357077	-0,565687	1,254948	2020-10-29T19:38:53:635
2,187539	0,615597	0,695460	2020-10-29T19:38:53:659
2,013496	1,228912	0,388681	2020-10-29T19:38:53:676
1,984159	1,183350	0,775288	2020-10-29T19:38:53:699
1,342803	-0,016836	1,331292	2020-10-29T19:38:53:716
0,532303	-1,104474	0,917742	2020-10-29T19:38:53:739
-1,630417	-2,078145	0,598201	2020-10-29T19:38:53:756
-4,506862	-2,952472	1,056381	2020-10-29T19:38:53:781
-6,363793	-3,730484	2,816531	2020-10-29T19:38:53:796
-9,758787	1,892045	3,468365	2020-10-29T19:38:53:819
-8,457157	1,514694	1,966468	2020-10-29T19:38:53:836
-6,110841	0,478777	0,218647	2020-10-29T19:38:53:860
-5,625192	0,357122	0,092801	2020-10-29T19:38:53:876
-3,598288	0,845942	0,442484	2020-10-29T19:38:53:899
-1,756721	1,690011	0,704544	2020-10-29T19:38:53:916
-0,197662	2,478456	-0,167844	2020-10-29T19:38:53:940
0,493789	2,978932	-0,894023	2020-10-29T19:38:53:956
1,938116	0,574654	-0,587529	2020-10-29T19:38:53:980
1,748840	0,823201	-1,007962	2020-10-29T19:38:53:996
1,416134	0,502687	-1,119489	2020-10-29T19:38:54:021
1,295560	0,482296	-1,568597	2020-10-29T19:38:54:036
1,161996	0,621355	-1,808565	2020-10-29T19:38:54:059
0,989687	0,800398	-1,687990	2020-10-29T19:38:54:076
1,356507	0,406629	-0,054163	2020-10-29T19:38:54:101
1,789608	0,468842	0,412437	2020-10-29T19:38:54:116
0,107121	3,585570	-0,975589	2020-10-29T19:38:54:139
0,153226	3,931994	-1,163882	2020-10-29T19:38:54:156
0,269039	3,982586	-1,214359	2020-10-29T19:38:54:180
0,549170	3,989607	-1,167160	2020-10-29T19:38:54:196
0,659594	3,628642	-1,148299	2020-10-29T19:38:54:219
0,480418	3,295732	-1,378739	2020-10-29T19:38:54:236
0,267464	2,984557	-1,750305	2020-10-29T19:38:54:261
0,083650	2,737022	-1,960232	2020-10-29T19:38:54:276
0,208881	2,509940	-1,865498	2020-10-29T19:38:54:300
0,640052	2,128718	-1,580519	2020-10-29T19:38:54:317
0,715209	2,047997	-1,326995	2020-10-29T19:38:54:340
0,503895	1,878665	-1,025814	2020-10-29T19:38:54:357
1,192246	0,618756	-0,177609	2020-10-29T19:38:54:381
1,015177	0,769504	0,061673	2020-10-29T19:38:54:396
0,635405	1,097261	0,743692	2020-10-29T19:38:54:420
0,431151	1,153737	0,968991	2020-10-29T19:38:54:437
0,055583	1,290727	1,132051	2020-10-29T19:38:54:460
-0,240290	1,417129	1,387626	2020-10-29T19:38:54:477
-0,106622	1,615426	1,264438	2020-10-29T19:38:54:501
0,173122	1,824288	1,317569	2020-10-29T19:38:54:516
0,036270	1,685920	2,240054	2020-10-29T19:38:54:540
-0,008319	1,628673	2,672370	2020-10-29T19:38:54:557
0,254799	1,515730	2,478560	2020-10-29T19:38:54:581
-0,130243	1,336012	2,216960	2020-10-29T19:38:54:597
-1,167892	1,034143	2,154598	2020-10-29T19:38:54:620
-2,770627	0,659335	3,264753	2020-10-29T19:38:54:637
-3,453935	1,133892	4,434868	2020-10-29T19:38:54:661
-2,679776	2,361107	5,165066	2020-10-29T19:38:54:677
-1,138004	-2,024844	5,222512	2020-10-29T19:38:54:700
0,017936	-5,397429	5,713044	2020-10-29T19:38:54:717
0,919997	-5,131768	5,272554	2020-10-29T19:38:54:743
0,554089	-3,925930	3,881512	2020-10-29T19:38:54:757
0,442935	-2,777561	1,560621	2020-10-29T19:38:54:780
0,292416	-2,197948	-0,588701	2020-10-29T19:38:54:797
0,144082	-1,690369	-1,651479	2020-10-29T19:38:54:821
1,045923	-1,442195	-1,947330	2020-10-29T19:38:54:837
2,088608	-0,764935	-2,560006	2020-10-29T19:38:54:860
1,978783	-0,177470	-3,466634	2020-10-29T19:38:54:877
1,808486	-0,058309	-3,660247	2020-10-29T19:38:54:901
1,695738	-1,244729	-3,092804	2020-10-29T19:38:54:917
0,159957	0,072252	0,033484	2020-10-29T19:38:54:941
-0,364072	-1,260550	0,215338	2020-10-29T19:38:54:957
-1,509453	-1,215874	0,922349	2020-10-29T19:38:54:982
-2,262783	-1,465681	1,231754	2020-10-29T19:38:54:997
-3,317743	-1,579271	0,984795	2020-10-29T19:38:55:020
-4,090854	-0,400936	0,637853	2020-10-29T19:38:55:037
-4,515161	0,202852	1,102611	2020-10-29T19:38:55:061
-4,720322	1,254353	1,167465	2020-10-29T19:38:55:077
-2,772739	-0,738927	-0,223144	2020-10-29T19:38:55:101
-2,416208	1,077226	0,152529	2020-10-29T19:38:55:117
-7,861523	6,833375	-3,372045	2020-10-29T19:38:55:141
-8,421759	6,892249	-3,490323	2020-10-29T19:38:55:158
-8,440660	7,175365	-3,626791	2020-10-29T19:38:55:181
-8,073281	6,630890	-3,242151	2020-10-29T19:38:55:197
-0,421584	-0,114866	0,011640	2020-10-29T19:38:55:223
0,336940	-0,165115	-0,153465	2020-10-29T19:38:55:237
0,402032	1,364430	-0,520194	2020-10-29T19:38:55:261
0,847315	1,462805	0,366936	2020-10-29T19:38:55:278
1,019888	1,834587	0,646998	2020-10-29T19:38:55:302
1,208294	2,354639	0,450723	2020-10-29T19:38:55:318
1,417967	2,261254	0,152589	2020-10-29T19:38:55:341
1,253775	1,928085	0,266870	2020-10-29T19:38:55:360
0,838065	1,630483	0,667784	2020-10-29T19:38:55:382
0,732132	1,151748	0,931542	2020-10-29T19:38:55:398
0,963468	0,440400	-0,229865	2020-10-29T19:38:55:421
1,233857	0,416472	-0,043224	2020-10-29T19:38:55:437
1,631634	0,076098	0,164243	2020-10-29T19:38:55:463
1,356503	0,147652	-0,040495	2020-10-29T19:38:55:478
-0,918800	0,177621	-0,108896	2020-10-29T19:38:55:501
-2,882564	-0,344717	0,423313	2020-10-29T19:38:55:518
-2,558527	-0,737202	0,579159	2020-10-29T19:38:55:542
-0,516053	-0,833872	0,440136	2020-10-29T19:38:55:558
0,563881	0,304711	-0,173997	2020-10-29T19:38:55:583
1,501868	0,247283	-0,087855	2020-10-29T19:38:55:598
1,614014	1,043812	-0,641243	2020-10-29T19:38:55:623
1,087593	1,496055	-0,832669	2020-10-29T19:38:55:638
-0,033319	0,704000	-0,568888	2020-10-29T19:38:55:661
-1,466962	0,174423	-0,371775	2020-10-29T19:38:55:678
-2,019695	0,110833	-0,404736	2020-10-29T19:38:55:703
-1,831564	0,330462	-0,574978	2020-10-29T19:38:55:718
-1,389295	0,715871	-1,270711	2020-10-29T19:38:55:741
-1,549527	0,701414	-1,416315	2020-10-29T19:38:55:758
-1,131166	0,339870	-1,156271	2020-10-29T19:38:55:782
-0,773618	0,074472	-0,651996	2020-10-29T19:38:55:798
-0,572618	-0,169675	-0,095035	2020-10-29T19:38:55:821
-0,060246	-0,254994	0,111308	2020-10-29T19:38:55:838
0,443621	-0,436188	-0,023888	2020-10-29T19:38:55:862
0,562861	-0,744097	-0,092732	2020-10-29T19:38:55:878
0,291285	-0,607174	0,077631	2020-10-29T19:38:55:901
-0,064664	-0,059604	0,236098	2020-10-29T19:38:55:918
-0,225712	-0,062815	0,051955	2020-10-29T19:38:55:945
-0,374066	0,236287	-0,158613	2020-10-29T19:38:55:958
-0,307424	0,194733	-0,508941	2020-10-29T19:38:55:982
-0,076950	0,330825	-0,689511	2020-10-29T19:38:55:998
0,000113	0,218186	-0,647236	2020-10-29T19:38:56:022
0,198427	0,189881	-0,635494	2020-10-29T19:38:56:038
0,294355	0,106631	-0,592312	2020-10-29T19:38:56:062
0,201496	-0,062339	-0,563407	2020-10-29T19:38:56:078
0,174779	-0,279988	-0,608585	2020-10-29T19:38:56:102
0,050915	-0,448752	-0,655147	2020-10-29T19:38:56:119
-0,132364	-0,551606	-0,628972	2020-10-29T19:38:56:141
-0,388412	-0,537889	-0,584674	2020-10-29T19:38:56:159
-0,909131	-0,422552	-0,584992	2020-10-29T19:38:56:183
-0,807007	-0,395067	-0,442208	2020-10-29T19:38:56:198
-0,669363	-0,410321	-0,391159	2020-10-29T19:38:56:221
-1,648879	-0,280652	-0,537915	2020-10-29T19:38:56:239
-3,618076	-0,655858	-0,085931	2020-10-29T19:38:56:263
-3,613345	-0,679229	-0,204888	2020-10-29T19:38:56:279
-2,256768	-0,604026	-0,377930	2020-10-29T19:38:56:302
-0,947920	-0,652698	-0,339066	2020-10-29T19:38:56:319
0,209461	-0,731603	-0,204299	2020-10-29T19:38:56:342
0,997293	-0,552974	-0,069050	2020-10-29T19:38:56:359
1,507065	-0,203056	-0,067256	2020-10-29T19:38:56:382
1,760325	0,138674	-0,294268	2020-10-29T19:38:56:398
1,528220	0,609393	-0,562385	2020-10-29T19:38:56:424
1,042474	1,100356	-0,983701	2020-10-29T19:38:56:438
0,483535	1,887622	-1,293442	2020-10-29T19:38:56:462
0,040879	2,599525	-1,242152	2020-10-29T19:38:56:479
-0,427886	2,854615	-0,970490	2020-10-29T19:38:56:503
-0,682368	2,719738	-0,729259	2020-10-29T19:38:56:518
0,440080	0,101184	-0,004851	2020-10-29T19:38:56:542
0,877967	-0,276882	0,119576	2020-10-29T19:38:56:559
0,226984	2,227075	1,293641	2020-10-29T19:38:56:583
0,302903	1,915411	1,777642	2020-10-29T19:38:56:599
0,335661	1,986104	2,025482	2020-10-29T19:38:56:622
0,151814	2,207659	2,111426	2020-10-29T19:38:56:639
0,788726	0,201828	-0,106927	2020-10-29T19:38:56:665
0,262305	0,601429	-0,140427	2020-10-29T19:38:56:679
0,165676	0,399092	0,551227	2020-10-29T19:38:56:702
0,114680	-0,053451	1,030801	2020-10-29T19:38:56:719
0,153847	-0,697061	1,599215	2020-10-29T19:38:56:743
0,013494	-1,417331	2,123240	2020-10-29T19:38:56:759
-0,039709	-1,953310	2,680111	2020-10-29T19:38:56:783
-0,191159	-2,240824	3,199121	2020-10-29T19:38:56:799
-0,300138	-2,161766	3,596288	2020-10-29T19:38:56:823
-0,284808	-1,931731	3,911949	2020-10-29T19:38:56:839
-0,357193	-2,316408	4,013677	2020-10-29T19:38:56:863
-0,004766	-2,099774	4,049997	2020-10-29T19:38:56:879
-0,136135	-0,442616	3,646431	2020-10-29T19:38:56:905
-0,291080	-0,483683	3,491880	2020-10-29T19:38:56:919
-0,560367	-0,731340	3,344879	2020-10-29T19:38:56:943
-0,733255	-0,844580	3,257319	2020-10-29T19:38:56:959
-2,318080	-0,530371	0,705230	2020-10-29T19:38:56:984
-4,198838	-0,714618	1,444612	2020-10-29T19:38:56:999
-4,074089	-1,153815	1,270235	2020-10-29T19:38:57:023
-3,436127	-0,799349	0,335731	2020-10-29T19:38:57:039
-3,154154	-1,017401	0,222629	2020-10-29T19:38:57:063
-1,893825	-1,131699	0,093818	2020-10-29T19:38:57:079
-0,200718	-0,542570	-0,337425	2020-10-29T19:38:57:102
0,369273	-0,245729	-1,678867	2020-10-29T19:38:57:119
-0,825475	0,087294	-2,392100	2020-10-29T19:38:57:144
-1,590734	0,419081	-3,031583	2020-10-29T19:38:57:159
-1,250604	-0,230331	0,050849	2020-10-29T19:38:57:183
-1,300853	-0,366722	-0,099899	2020-10-29T19:38:57:199
-2,181118	0,738689	-1,018245	2020-10-29T19:38:57:223
-2,053410	0,306418	-1,834977	2020-10-29T19:38:57:239
-1,571505	0,016003	-3,571454	2020-10-29T19:38:57:263
-1,287309	0,270949	-5,118249	2020-10-29T19:38:57:280
-0,970862	0,046657	-5,599384	2020-10-29T19:38:57:303
-0,627880	-0,193939	-5,149558	2020-10-29T19:38:57:319
-0,314136	-0,055758	-4,328345	2020-10-29T19:38:57:343
-0,168167	-0,134074	-3,332455	2020-10-29T19:38:57:360
-0,315670	0,018827	-3,130515	2020-10-29T19:38:57:385
-0,406667	0,323941	-3,029232	2020-10-29T19:38:57:400
-0,580917	0,932432	-3,009397	2020-10-29T19:38:57:422
-0,595493	1,540774	-3,129390	2020-10-29T19:38:57:439
-0,682261	1,728494	-3,000752	2020-10-29T19:38:57:464
-0,572473	1,847720	-2,628110	2020-10-29T19:38:57:480
-0,307230	1,828768	-2,202993	2020-10-29T19:38:57:503
-0,097385	1,749659	-1,521105	2020-10-29T19:38:57:519
0,056894	1,533804	-1,019873	2020-10-29T19:38:57:543
-0,038821	1,382288	-0,816176	2020-10-29T19:38:57:560
-0,143663	1,157171	-0,819549	2020-10-29T19:38:57:583
-0,262461	1,158201	-0,704569	2020-10-29T19:38:57:600
-0,309493	1,124100	-0,516019	2020-10-29T19:38:57:625
-0,780518	1,339435	-0,792315	2020-10-29T19:38:57:639
-2,157537	1,626963	-0,728215	2020-10-29T19:38:57:663
-2,643732	1,345973	0,226526	2020-10-29T19:38:57:680
-1,705487	1,535338	0,788259	2020-10-29T19:38:57:704
-1,275884	1,840041	1,264286	2020-10-29T19:38:57:719
-0,474168	1,475210	1,843176	2020-10-29T19:38:57:743
0,820959	1,333335	1,967642	2020-10-29T19:38:57:760
1,492210	1,680861	1,585875	2020-10-29T19:38:57:785
1,027307	1,861456	1,238459	2020-10-29T19:38:57:800
0,174270	1,918508	1,024440	2020-10-29T19:38:57:823
-0,457100	2,062687	0,271828	2020-10-29T19:38:57:840
-0,969742	2,288793	-0,207266	2020-10-29T19:38:57:865
-1,283834	2,294191	-0,449444	2020-10-29T19:38:57:880
-1,237763	2,423342	-0,504516	2020-10-29T19:38:57:908
-0,915039	2,549720	-0,780644	2020-10-29T19:38:57:920
-0,709353	2,277378	-0,909165	2020-10-29T19:38:57:944
-0,497142	1,962395	-1,726946	2020-10-29T19:38:57:960
0,847988	3,170915	-2,694348	2020-10-29T19:38:57:983
0,800559	3,605212	-2,857361	2020-10-29T19:38:58:000
0,284808	2,331589	-2,099899	2020-10-29T19:38:58:024
-0,477414	1,131346	-1,073499	2020-10-29T19:38:58:040
-0,464716	1,222907	-0,858657	2020-10-29T19:38:58:064
0,067381	1,270655	-1,290024	2020-10-29T19:38:58:080
0,078034	1,051690	-1,431363	2020-10-29T19:38:58:106
-0,499426	0,534806	-1,209560	2020-10-29T19:38:58:120
-0,706656	-0,126701	-0,769355	2020-10-29T19:38:58:143
-0,608408	-0,641528	-0,395494	2020-10-29T19:38:58:161
-0,436473	-0,885069	0,066826	2020-10-29T19:38:58:185
-0,441969	-0,764049	0,303854	2020-10-29T19:38:58:200
-0,085369	-0,342752	0,300168	2020-10-29T19:38:58:224
0,174647	-0,036574	-0,029992	2020-10-29T19:38:58:240
-2,501508	2,792888	-4,163900	2020-10-29T19:38:58:265
-2,416245	2,779310	-4,148357	2020-10-29T19:38:58:281
-2,266893	2,414723	-3,723445	2020-10-29T19:38:58:303
-2,208836	2,051850	-3,246649	2020-10-29T19:38:58:320
-2,162728	1,838506	-2,681225	2020-10-29T19:38:58:345
0,327588	-1,178763	0,726575	2020-10-29T19:38:58:361
0,432549	-1,606025	0,536006	2020-10-29T19:38:58:384
0,418748	-1,842708	1,170188	2020-10-29T19:38:58:400
0,424924	-1,576548	0,769022	2020-10-29T19:38:58:425
0,177455	-1,208682	-0,442851	2020-10-29T19:38:58:440
-2,059221	-1,754539	-0,576985	2020-10-29T19:38:58:464
-2,892434	-2,565239	-0,639200	2020-10-29T19:38:58:481
-3,653187	-2,978469	-0,658877	2020-10-29T19:38:58:505
-2,874911	-3,480777	-0,509830	2020-10-29T19:38:58:521
-0,764041	-3,193926	-0,866988	2020-10-29T19:38:58:544
0,193301	-2,075474	-1,769288	2020-10-29T19:38:58:561
-0,355305	-2,163975	-1,572872	2020-10-29T19:38:58:587
-1,824677	-2,628300	-0,762894	2020-10-29T19:38:58:600
-2,691597	-1,978835	-0,444073	2020-10-29T19:38:58:624
-2,440234	-1,343385	-0,514052	2020-10-29T19:38:58:641
-2,045276	-1,119345	-0,871040	2020-10-29T19:38:58:665
-2,020272	-0,663814	-0,917032	2020-10-29T19:38:58:681
-2,287834	0,079716	-0,990496	2020-10-29T19:38:58:704
-2,242764	0,824326	-0,970297	2020-10-29T19:38:58:721
-2,255805	1,277225	-1,270060	2020-10-29T19:38:58:745
-2,353311	1,486413	-1,782776	2020-10-29T19:38:58:761
-2,455243	1,533054	-2,059548	2020-10-29T19:38:58:785
-2,533423	1,416687	-2,255163	2020-10-29T19:38:58:801
-2,240920	1,386585	-2,249171	2020-10-29T19:38:58:827
-1,696608	1,323862	-1,910690	2020-10-29T19:38:58:841
-1,751098	1,622402	-1,266081	2020-10-29T19:38:58:864
-1,860919	2,264406	-1,271118	2020-10-29T19:38:58:881
-1,615015	2,523440	-1,666471	2020-10-29T19:38:58:905
-1,212639	2,581910	-2,179783	2020-10-29T19:38:58:921
-0,611512	2,809453	-2,187586	2020-10-29T19:38:58:944
0,099556	2,864351	-1,718027	2020-10-29T19:38:58:961
0,859426	2,772512	-1,655942	2020-10-29T19:38:58:985
1,400727	2,600940	-1,765798	2020-10-29T19:38:59:001
1,731200	2,332202	-1,913002	2020-10-29T19:38:59:024
1,811129	2,186930	-2,051841	2020-10-29T19:38:59:041
1,736967	2,088276	-2,070918	2020-10-29T19:38:59:067
1,506459	2,123890	-2,097797	2020-10-29T19:38:59:081
1,221946	2,190577	-2,326031	2020-10-29T19:38:59:104
0,846639	1,909772	-2,294242	2020-10-29T19:38:59:121
0,434354	1,363068	-2,208340	2020-10-29T19:38:59:145
0,524979	1,010980	-1,986203	2020-10-29T19:38:59:161
0,407076	0,383300	-1,217217	2020-10-29T19:38:59:185
-0,439940	-0,210552	-0,852926	2020-10-29T19:38:59:201
-2,740705	-0,558953	-1,050837	2020-10-29T19:38:59:225
-3,754541	-1,150502	-0,740089	2020-10-29T19:38:59:242
-3,125120	-0,898527	-1,044203	2020-10-29T19:38:59:266
-2,311849	-0,495363	-1,279139	2020-10-29T19:38:59:282
-1,677179	-0,799140	-0,939791	2020-10-29T19:38:59:307
-0,417411	-0,816970	-0,492719	2020-10-29T19:38:59:321
0,776723	-0,767673	-0,122888	2020-10-29T19:38:59:345
1,078335	-1,330528	0,024773	2020-10-29T19:38:59:362
0,715390	-1,746227	0,112631	2020-10-29T19:38:59:386
0,070867	-1,932516	0,094338	2020-10-29T19:38:59:401
-0,478745	-2,004862	0,188905	2020-10-29T19:38:59:425
-0,548959	-1,829031	0,106215	2020-10-29T19:38:59:441
-0,852102	-0,304747	0,161602	2020-10-29T19:38:59:467
-0,758781	-0,027179	0,104174	2020-10-29T19:38:59:482
-0,104345	-0,965887	0,805956	2020-10-29T19:38:59:505
0,257595	-1,039551	0,579354	2020-10-29T19:38:59:521
1,327859	-1,082965	-0,264016	2020-10-29T19:38:59:547
1,322770	-2,260643	0,998611	2020-10-29T19:38:59:562
1,179123	0,223108	2,097335	2020-10-29T19:38:59:585
1,086867	0,316547	1,005085	2020-10-29T19:38:59:602
1,605619	-0,764289	0,069320	2020-10-29T19:38:59:626
0,573856	1,941367	0,480070	2020-10-29T19:38:59:642
0,338849	1,016152	0,407556	2020-10-29T19:38:59:665
-0,118945	1,120939	0,017772	2020-10-29T19:38:59:682
0,615204	0,211301	-0,000170	2020-10-29T19:38:59:706
0,222781	0,543903	0,100329	2020-10-29T19:38:59:722
-0,157745	-0,743086	0,640699	2020-10-29T19:38:59:745
-0,629656	-1,126811	1,128557	2020-10-29T19:38:59:762
-0,690818	-1,629543	1,647197	2020-10-29T19:38:59:787
-0,646832	-1,889320	1,857004	2020-10-29T19:38:59:802
-0,659024	-1,928895	1,869120	2020-10-29T19:38:59:825
-0,623360	-1,799376	1,993707	2020-10-29T19:38:59:843
-0,458681	-1,424019	2,128286	2020-10-29T19:38:59:866
-0,900192	-0,822119	2,222497	2020-10-29T19:38:59:882
-0,848903	-0,655945	2,385480	2020-10-29T19:38:59:905
-0,967623	0,079801	1,882363	2020-10-29T19:38:59:922
-1,406899	1,124999	1,227260	2020-10-29T19:38:59:946
-1,214158	1,770379	1,013167	2020-10-29T19:38:59:962
-1,259888	1,968117	0,843557	2020-10-29T19:38:59:985
-2,366558	1,577066	0,988504	2020-10-29T19:39:00:002
-2,577329	-0,371561	0,042177	2020-10-29T19:39:00:027
-1,849911	-0,041352	-0,345460	2020-10-29T19:39:00:042
-2,038744	0,296062	0,554489	2020-10-29T19:39:00:065
-2,020715	-0,034125	1,065730	2020-10-29T19:39:00:082
-1,820671	0,613129	1,024700	2020-10-29T19:39:00:106
-1,082062	1,713039	0,775604	2020-10-29T19:39:00:122
0,106159	2,402803	0,495244	2020-10-29T19:39:00:145
1,176726	2,989407	0,352132	2020-10-29T19:39:00:162
1,722163	4,108994	-0,004321	2020-10-29T19:39:00:186
1,160620	4,810525	-0,644985	2020-10-29T19:39:00:203
0,215103	4,838139	-1,241082	2020-10-29T19:39:00:225
-0,136003	4,221095	-2,019380	2020-10-29T19:39:00:242
-0,161751	3,469813	-2,625817	2020-10-29T19:39:00:268
-0,345054	2,976048	-2,718739	2020-10-29T19:39:00:284
-0,695748	2,623841	-1,841920	2020-10-29T19:39:00:305
-0,373205	2,695736	-1,276658	2020-10-29T19:39:00:322
0,154058	2,383451	-0,930138	2020-10-29T19:39:00:346
0,597990	1,845182	-0,943309	2020-10-29T19:39:00:362
0,590200	1,334225	-1,271246	2020-10-29T19:39:00:385
0,268908	0,984929	-1,542502	2020-10-29T19:39:00:402
-0,067046	0,000151	-0,017046	2020-10-29T19:39:00:427
-0,282400	-0,169740	0,076274	2020-10-29T19:39:00:442
-0,072338	0,003794	-1,233958	2020-10-29T19:39:00:467
0,126534	-0,173129	-0,815712	2020-10-29T19:39:00:482
0,215250	-0,281486	-0,486575	2020-10-29T19:39:00:507
0,195653	-0,162621	-0,583568	2020-10-29T19:39:00:522
0,154632	-0,350399	-0,645941	2020-10-29T19:39:00:545
0,202252	-0,614363	-0,526320	2020-10-29T19:39:00:563
0,118869	-0,678525	-0,677345	2020-10-29T19:39:00:588
0,057681	-0,719484	-0,884332	2020-10-29T19:39:00:602
-0,116485	-0,368260	-1,392294	2020-10-29T19:39:00:627
0,326559	0,031584	-1,518136	2020-10-29T19:39:00:642
0,231758	-0,270127	-1,300790	2020-10-29T19:39:00:667
0,379333	-0,205859	-1,173326	2020-10-29T19:39:00:683
0,587123	-0,058516	-1,278537	2020-10-29T19:39:00:706
0,212564	-0,190566	-1,396732	2020-10-29T19:39:00:722
0,126075	-0,438713	-1,311412	2020-10-29T19:39:00:748
0,109227	-0,477065	-1,280321	2020-10-29T19:39:00:763
-0,004253	-0,520572	-1,878273	2020-10-29T19:39:00:787
0,072383	-0,447972	-2,091766	2020-10-29T19:39:00:802
0,458545	-0,553836	-2,086141	2020-10-29T19:39:00:827
0,440051	-0,238106	-2,051495	2020-10-29T19:39:00:842
-0,471757	0,510600	-2,417746	2020-10-29T19:39:00:866
-2,368769	0,134317	-2,562238	2020-10-29T19:39:00:883
-3,424769	-0,955173	-2,370477	2020-10-29T19:39:00:907
-2,325013	-0,969097	-2,293448	2020-10-29T19:39:00:923
-2,213846	1,235127	-5,589847	2020-10-29T19:39:00:946
-2,397542	0,667790	-4,917474	2020-10-29T19:39:00:963
-0,766603	-0,169816	0,142984	2020-10-29T19:39:00:990
-0,201898	0,351819	0,358338	2020-10-29T19:39:01:002
-0,157413	1,255652	-0,131831	2020-10-29T19:39:01:026
-0,508170	3,218956	1,225094	2020-10-29T19:39:01:043
0,072576	5,459084	2,280680	2020-10-29T19:39:01:067
0,661536	6,368108	0,912691	2020-10-29T19:39:01:083
1,138729	4,762235	-0,531969	2020-10-29T19:39:01:106
1,352735	2,076941	-1,850178	2020-10-29T19:39:01:123
0,505762	1,217927	-2,395024	2020-10-29T19:39:01:148
-0,247757	1,035813	-2,228801	2020-10-29T19:39:01:163
-1,162894	0,467193	-1,762695	2020-10-29T19:39:01:186
-1,566883	-0,096112	-1,948600	2020-10-29T19:39:01:203
-1,436195	-0,085386	-2,193631	2020-10-29T19:39:01:228
-1,239912	-0,042735	-2,376956	2020-10-29T19:39:01:243
-0,929765	-0,087230	-2,151458	2020-10-29T19:39:01:266
-0,892241	-0,139222	-1,690630	2020-10-29T19:39:01:283
-0,334380	0,274562	-1,376944	2020-10-29T19:39:01:307
-0,066124	0,882347	-1,217959	2020-10-29T19:39:01:323
-0,232505	1,215299	-1,175562	2020-10-29T19:39:01:346
-0,218540	1,317457	-1,260545	2020-10-29T19:39:01:364
-0,276489	1,745085	-1,425401	2020-10-29T19:39:01:387
-0,204862	2,058606	-1,492181	2020-10-29T19:39:01:403
-0,165473	2,305992	-1,503185	2020-10-29T19:39:01:427
-0,191468	1,745960	-1,637999	2020-10-29T19:39:01:443
-0,410381	2,748988	-0,883848	2020-10-29T19:39:01:469
-0,382071	2,892607	-0,607515	2020-10-29T19:39:01:484
-0,223298	2,927547	-0,467876	2020-10-29T19:39:01:506
-0,469571	2,191705	-0,337907	2020-10-29T19:39:01:523
-0,676045	2,035530	-0,101552	2020-10-29T19:39:01:547
-0,702366	1,635374	-0,064259	2020-10-29T19:39:01:564
-0,913774	2,039187	0,283490	2020-10-29T19:39:01:587
-1,200760	1,620603	0,757503	2020-10-29T19:39:01:603
-1,412666	1,300611	1,194924	2020-10-29T19:39:01:628
-1,044622	1,436464	1,106562	2020-10-29T19:39:01:643
-0,778723	1,651827	1,130813	2020-10-29T19:39:01:667
-0,681867	1,611045	1,258007	2020-10-29T19:39:01:684
-0,418060	1,853214	1,027521	2020-10-29T19:39:01:709
-0,452323	2,138530	0,731055	2020-10-29T19:39:01:724
-1,246864	2,063456	0,538543	2020-10-29T19:39:01:747
-2,600935	2,259656	0,641933	2020-10-29T19:39:01:764
-1,530121	-0,412085	0,229384	2020-10-29T19:39:01:789
-0,864917	-0,019662	-0,084076	2020-10-29T19:39:01:804
0,276041	-0,155292	-0,480120	2020-10-29T19:39:01:827
0,923300	0,413953	-0,573497	2020-10-29T19:39:01:843
0,724199	0,781647	-0,586172	2020-10-29T19:39:01:868
0,177080	0,824094	-0,662324	2020-10-29T19:39:01:884
-0,694131	0,633410	-0,725783	2020-10-29T19:39:01:907
-1,560723	0,472366	-0,660579	2020-10-29T19:39:01:924
-1,616615	0,542794	-0,795579	2020-10-29T19:39:01:949
-0,898126	0,721242	-0,990813	2020-10-29T19:39:01:964
-0,399671	1,096810	-1,120268	2020-10-29T19:39:01:987
-0,242922	1,441437	-0,946145	2020-10-29T19:39:02:004
-0,191293	1,747704	-0,701798	2020-10-29T19:39:02:028
-0,232765	2,030472	-0,560190	2020-10-29T19:39:02:044
-0,382407	2,375263	-0,620153	2020-10-29T19:39:02:067
-0,630859	2,692008	-0,727169	2020-10-29T19:39:02:084
-0,907126	3,206855	-0,742047	2020-10-29T19:39:02:108
-1,132774	3,709393	-0,911707	2020-10-29T19:39:02:124
-1,423124	4,076686	-0,905849	2020-10-29T19:39:02:147
-1,883536	4,126082	-0,735955	2020-10-29T19:39:02:164
-2,216614	4,223895	-0,649877	2020-10-29T19:39:02:189
-2,675366	3,823153	-0,500322	2020-10-29T19:39:02:204
-3,033655	3,496515	-0,518342	2020-10-29T19:39:02:227
-3,131542	3,364114	-0,477590	2020-10-29T19:39:02:244
-2,894979	3,272195	-0,281685	2020-10-29T19:39:02:268
-2,564466	2,990109	-0,043938	2020-10-29T19:39:02:284
-2,284378	2,751760	0,099653	2020-10-29T19:39:02:307
-2,087038	2,492842	0,206195	2020-10-29T19:39:02:324
-1,962490	2,347018	0,387946	2020-10-29T19:39:02:348
-2,071198	2,211810	0,548760	2020-10-29T19:39:02:365
-2,053503	2,140188	0,628411	2020-10-29T19:39:02:388
-1,999418	2,063558	0,732797	2020-10-29T19:39:02:404
-0,678087	-0,245102	0,021313	2020-10-29T19:39:02:430
-0,826443	-0,211602	0,028492	2020-10-29T19:39:02:444
-2,494757	2,960983	0,550771	2020-10-29T19:39:02:468
-2,194152	2,786695	0,577358	2020-10-29T19:39:02:485
-1,806571	2,675250	0,728888	2020-10-29T19:39:02:508
-1,295113	2,522942	0,881459	2020-10-29T19:39:02:524
-1,054492	2,450346	0,906513	2020-10-29T19:39:02:548
-0,996455	2,414007	1,031141	2020-10-29T19:39:02:565
-1,428534	2,527065	1,044064	2020-10-29T19:39:02:589
-3,220386	2,487303	0,848152	2020-10-29T19:39:02:604
-4,454356	2,153575	1,495332	2020-10-29T19:39:02:628
-3,223460	2,522723	1,480843	2020-10-29T19:39:02:644
-2,411199	3,153775	1,330048	2020-10-29T19:39:02:670
-2,005849	3,187183	1,750025	2020-10-29T19:39:02:685
-1,449840	3,115262	1,766664	2020-10-29T19:39:02:708
-0,654374	2,899017	2,319630	2020-10-29T19:39:02:725
-0,171628	2,426825	3,145404	2020-10-29T19:39:02:748
-0,008608	2,229414	4,414711	2020-10-29T19:39:02:765
-0,118454	2,596756	4,457851	2020-10-29T19:39:02:789
0,117579	3,272613	4,066521	2020-10-29T19:39:02:804
-0,269326	4,047743	3,753506	2020-10-29T19:39:02:829
-0,863285	5,573965	3,656152	2020-10-29T19:39:02:845
-1,504504	7,245405	4,451165	2020-10-29T19:39:02:868
-1,073581	6,681857	3,890175	2020-10-29T19:39:02:885
-1,255641	4,035213	3,677027	2020-10-29T19:39:02:915
-1,164863	3,700126	3,052005	2020-10-29T19:39:02:925
-0,724325	3,931862	2,940344	2020-10-29T19:39:02:952
-0,641963	3,500929	2,532461	2020-10-29T19:39:02:965
-0,488835	3,465424	2,206905	2020-10-29T19:39:02:989
-0,329789	3,441310	1,981294	2020-10-29T19:39:03:005
-0,405756	3,306553	1,959183	2020-10-29T19:39:03:028
-0,240574	3,087656	1,829224	2020-10-29T19:39:03:045
0,023492	2,720780	1,642923	2020-10-29T19:39:03:069
0,478999	2,620448	1,687114	2020-10-29T19:39:03:085
1,013582	2,661431	1,602170	2020-10-29T19:39:03:108
1,234525	2,377271	1,840794	2020-10-29T19:39:03:125
1,333173	1,879292	2,043468	2020-10-29T19:39:03:150
1,635848	1,818068	1,994131	2020-10-29T19:39:03:165
2,335703	1,866084	1,654688	2020-10-29T19:39:03:188
2,762910	1,944499	1,266166	2020-10-29T19:39:03:206
2,494195	2,181344	1,009938	2020-10-29T19:39:03:229
1,909134	2,213466	1,319967	2020-10-29T19:39:03:245
1,319621	1,750314	1,769341	2020-10-29T19:39:03:269
0,613960	0,530962	1,868358	2020-10-29T19:39:03:286
0,460805	0,292468	1,605167	2020-10-29T19:39:03:309
0,844403	0,166033	1,121602	2020-10-29T19:39:03:325
1,147312	0,484850	1,258922	2020-10-29T19:39:03:348
1,087861	-0,142114	1,742678	2020-10-29T19:39:03:366
1,184044	-0,772076	1,876920	2020-10-29T19:39:03:390
0,895383	-0,091657	1,654288	2020-10-29T19:39:03:405
0,299211	-0,146690	1,466409	2020-10-29T19:39:03:429
0,003322	-1,100175	1,347682	2020-10-29T19:39:03:445
-0,425606	-0,769164	1,685070	2020-10-29T19:39:03:470
-0,774068	0,085679	1,801885	2020-10-29T19:39:03:485
-0,766539	-0,158156	1,332237	2020-10-29T19:39:03:509
-0,493826	-0,501647	1,049613	2020-10-29T19:39:03:525
-0,431014	-1,092228	1,168162	2020-10-29T19:39:03:549
-0,639713	-1,987746	1,169046	2020-10-29T19:39:03:566
-0,863665	-2,167921	0,590457	2020-10-29T19:39:03:589
-0,762717	-0,892896	0,375659	2020-10-29T19:39:03:605
-0,179120	-0,288767	-0,097316	2020-10-29T19:39:03:631
-0,223833	-0,717448	-0,015967	2020-10-29T19:39:03:646
-0,506668	0,102980	-0,284494	2020-10-29T19:39:03:669
-0,459709	0,254726	-0,903969	2020-10-29T19:39:03:686
-0,203538	0,834648	-0,814400	2020-10-29T19:39:03:709
0,745651	-0,097576	0,028032	2020-10-29T19:39:03:725
-0,170473	-1,165477	1,265707	2020-10-29T19:39:03:749
-0,614481	-1,060068	1,587080	2020-10-29T19:39:03:766
0,587534	0,445124	1,060203	2020-10-29T19:39:03:790
0,776833	1,650825	0,541536	2020-10-29T19:39:03:806
-0,456892	2,076992	0,322652	2020-10-29T19:39:03:829
-1,779049	3,218327	-0,533463	2020-10-29T19:39:03:845
-2,375625	4,969114	-1,051687	2020-10-29T19:39:03:871
-2,510740	5,971242	-1,087782	2020-10-29T19:39:03:886
-3,518737	5,654445	-0,870104	2020-10-29T19:39:03:909
-4,200819	6,599139	-2,422276	2020-10-29T19:39:03:926
-5,114711	6,891497	-2,956764	2020-10-29T19:39:03:950
-3,986492	3,556925	-1,844262	2020-10-29T19:39:03:966
-2,610054	0,918355	-2,882694	2020-10-29T19:39:03:989
-0,235875	1,819231	1,223476	2020-10-29T19:39:04:008
0,346792	-6,585192	0,771830	2020-10-29T19:39:04:031
-2,163279	-32,872742	-1,362567	2020-10-29T19:39:04:056
4,175701	-19,901825	7,371354	2020-10-29T19:39:04:070
7,621942	-6,655877	7,047206	2020-10-29T19:39:04:086
0,348065	-0,350194	-0,127376	2020-10-29T19:39:04:112
0,714168	-1,747603	-4,458384	2020-10-29T19:39:04:127
-2,843185	-5,292064	-3,799878	2020-10-29T19:39:04:236
-2,908707	-6,621402	0,047885	2020-10-29T19:39:04:239
1,964739	-4,897953	0,717513	2020-10-29T19:39:04:240
1,636923	-4,440923	1,837354	2020-10-29T19:39:04:241
1,677021	-2,852133	-1,603654	2020-10-29T19:39:04:242
1,098736	-1,672821	-2,271858	2020-10-29T19:39:04:285
0,447991	0,534694	-1,450321	2020-10-29T19:39:04:285
-1,228989	1,772090	-0,952948	2020-10-29T19:39:04:345
-1,657717	1,661326	-1,244629	2020-10-29T19:39:04:352
-1,754846	0,608164	-1,400381	2020-10-29T19:39:04:353
-1,459883	0,274008	-2,499346	2020-10-29T19:39:04:353
-1,835101	-0,155581	-2,925824	2020-10-29T19:39:04:364
-1,374310	-0,281371	-3,110280	2020-10-29T19:39:04:388
-0,677696	0,015405	-2,689796	2020-10-29T19:39:04:405
-0,213770	-0,932878	-2,061257	2020-10-29T19:39:04:430
0,071779	-1,188096	-1,646454	2020-10-29T19:39:04:446
-0,060092	-1,129632	-1,489694	2020-10-29T19:39:04:469
-0,261425	-0,570452	-1,303300	2020-10-29T19:39:04:486
-0,396007	-0,570371	-1,519733	2020-10-29T19:39:04:510
-0,234540	-0,003224	-1,747761	2020-10-29T19:39:04:526
-0,444685	-0,617661	-1,383890	2020-10-29T19:39:04:550
-0,514626	-0,349569	-0,991260	2020-10-29T19:39:04:566
-0,455122	-0,575450	-0,788300	2020-10-29T19:39:04:591
-0,339669	-0,444929	-0,905901	2020-10-29T19:39:04:607
-0,199153	-0,413788	-0,972531	2020-10-29T19:39:04:629
-0,148190	-0,346348	-0,950815	2020-10-29T19:39:04:658
-0,272184	-0,249639	-0,709450	2020-10-29T19:39:04:674
-0,408287	-0,234394	-0,673897	2020-10-29T19:39:04:688
-0,276784	-0,199281	-0,801357	2020-10-29T19:39:04:710
-0,276184	-0,281130	-0,887198	2020-10-29T19:39:04:726
-0,272790	-0,305711	-0,899485	2020-10-29T19:39:04:750
-0,281125	-0,238119	-0,732897	2020-10-29T19:39:04:767
-0,339546	-0,194317	-0,549816	2020-10-29T19:39:04:790
-0,375098	-0,087447	-0,626870	2020-10-29T19:39:04:807
-0,365295	-0,475169	-0,589262	2020-10-29T19:39:04:832
-0,189802	-0,137692	-0,516906	2020-10-29T19:39:04:847
0,054415	-0,143684	0,016443	2020-10-29T19:39:04:870
-0,024548	-0,186755	-0,100805	2020-10-29T19:39:04:887
-0,021628	-0,187006	-0,091895	2020-10-29T19:39:04:911
-0,083894	-0,086004	-0,004128	2020-10-29T19:39:04:926
-0,122338	-0,052621	-0,170523	2020-10-29T19:39:04:950
0,003356	-0,138908	-0,286601	2020-10-29T19:39:04:967
-0,069787	0,114001	-0,269773	2020-10-29T19:39:05:001
-13,040132	8,314042	0,441375	2020-10-29T19:39:27:125
-13,021602	8,107610	0,078201	2020-10-29T19:39:27:126
-12,696736	8,184923	-0,200381	2020-10-29T19:39:27:127
-12,178812	8,105441	-0,393253	2020-10-29T19:39:27:140
-11,817881	7,809678	-0,553113	2020-10-29T19:39:27:192
-11,601148	7,517006	-0,628619	2020-10-29T19:39:27:194
-11,389410	7,511977	-0,787204	2020-10-29T19:39:27:205
-13,967719	5,299224	-4,238911	2020-10-29T19:39:27:218
-13,635487	5,342430	-4,482645	2020-10-29T19:39:27:233
-12,673424	5,075396	-5,023307	2020-10-29T19:39:27:258
-11,405359	4,915415	-5,672587	2020-10-29T19:39:27:275
-10,845325	5,132088	-5,901975	2020-10-29T19:39:27:299
-11,215928	5,361291	-5,908820	2020-10-29T19:39:27:316
-12,281079	5,555389	-5,749536	2020-10-29T19:39:27:340
-13,386348	5,491902	-5,176457	2020-10-29T19:39:27:354
-13,088685	5,453736	-5,032655	2020-10-29T19:39:27:379
-12,229539	5,451376	-5,107794	2020-10-29T19:39:27:395
-11,399988	5,456473	-5,087355	2020-10-29T19:39:27:419
-10,506473	5,511410	-4,713087	2020-10-29T19:39:27:435
-9,445335	5,544559	-4,514452	2020-10-29T19:39:27:459
-8,790036	5,788857	-4,273023	2020-10-29T19:39:27:475
-8,818584	5,918946	-4,170029	2020-10-29T19:39:27:499
-9,242126	5,799871	-4,120053	2020-10-29T19:39:27:515
-9,283904	5,908785	-4,150399	2020-10-29T19:39:27:538
-8,998520	6,053483	-4,243091	2020-10-29T19:39:27:555
-8,614437	6,106445	-4,508764	2020-10-29T19:39:27:579
-8,086090	6,026175	-4,779368	2020-10-29T19:39:27:595
-7,661204	5,869110	-4,975726	2020-10-29T19:39:27:618
-7,575232	5,840746	-5,131481	2020-10-29T19:39:27:635
-7,462253	5,786268	-5,195436	2020-10-29T19:39:27:659
-7,212080	5,594575	-5,063023	2020-10-29T19:39:27:676
-6,867942	5,643213	-5,020442	2020-10-29T19:39:27:699
-6,539245	5,528152	-4,772216	2020-10-29T19:39:27:715
-6,120655	5,445054	-4,538811	2020-10-29T19:39:27:739
-5,859101	5,259024	-4,412238	2020-10-29T19:39:27:756
-5,649717	5,209510	-4,360250	2020-10-29T19:39:27:778
-5,505362	5,228506	-4,278070	2020-10-29T19:39:27:795
-5,452996	5,215533	-4,228465	2020-10-29T19:39:27:819
-5,527606	5,321794	-4,189818	2020-10-29T19:39:27:835
-5,237887	5,123651	-4,123090	2020-10-29T19:39:27:859
-4,948244	4,958974	-4,028204	2020-10-29T19:39:27:875
-4,763852	4,855205	-3,744901	2020-10-29T19:39:27:899
-4,659735	4,749476	-3,787824	2020-10-29T19:39:27:915
-4,676210	4,667427	-3,695183	2020-10-29T19:39:27:939
-4,686505	4,624049	-3,711811	2020-10-29T19:39:27:956
-4,512987	4,480025	-3,774160	2020-10-29T19:39:27:980
-4,329353	4,389151	-3,780586	2020-10-29T19:39:27:995
-4,183703	4,291253	-3,774267	2020-10-29T19:39:28:019
-3,973180	4,078935	-3,744188	2020-10-29T19:39:28:036
-3,865038	3,916040	-3,776755	2020-10-29T19:39:28:060
-3,880182	3,696120	-3,697239	2020-10-29T19:39:28:076
-3,820059	3,566921	-3,539010	2020-10-29T19:39:28:098
-3,884286	3,396690	-3,327059	2020-10-29T19:39:28:116
-4,005216	3,170101	-3,344780	2020-10-29T19:39:28:140
-4,089834	3,040628	-3,311089	2020-10-29T19:39:28:156
-3,977293	3,034548	-3,349785	2020-10-29T19:39:28:180
-3,698341	3,056610	-3,337092	2020-10-29T19:39:28:195
-3,381097	2,993645	-3,515609	2020-10-29T19:39:28:220
-3,159356	2,980974	-3,520025	2020-10-29T19:39:28:236
-2,803363	2,927692	-3,474818	2020-10-29T19:39:28:259
-2,427470	2,753703	-3,242089	2020-10-29T19:39:28:276
-2,089710	2,612305	-3,115279	2020-10-29T19:39:28:300
-1,813871	2,311810	-3,102194	2020-10-29T19:39:28:316
-1,485612	2,215798	-2,990673	2020-10-29T19:39:28:339
-1,090392	2,154424	-2,775188	2020-10-29T19:39:28:356
-0,673960	2,113019	-2,552388	2020-10-29T19:39:28:380
-0,576305	1,978000	-2,388908	2020-10-29T19:39:28:396
-0,750316	1,783295	-2,160210	2020-10-29T19:39:28:420
-1,000607	2,009383	-1,647812	2020-10-29T19:39:28:436
-0,803370	1,912245	-1,753824	2020-10-29T19:39:28:460
-0,863342	1,894358	-1,849945	2020-10-29T19:39:28:476
-1,072623	1,736905	-1,813379	2020-10-29T19:39:28:499
-1,270621	1,532487	-1,899996	2020-10-29T19:39:28:516
-1,402088	1,526113	-2,013628	2020-10-29T19:39:28:540
-1,484922	1,553839	-2,165428	2020-10-29T19:39:28:556
-1,744058	1,317138	-2,067895	2020-10-29T19:39:28:579
-1,796788	1,081100	-2,033959	2020-10-29T19:39:28:596
-1,562327	0,884955	-1,951954	2020-10-29T19:39:28:620
-1,203563	0,663201	-1,676073	2020-10-29T19:39:28:636
-0,852699	0,461701	-1,581038	2020-10-29T19:39:28:661
-0,446581	0,252751	-1,799927	2020-10-29T19:39:28:676
-0,090619	0,266592	-2,025057	2020-10-29T19:39:28:700
-0,146729	0,319685	-2,099097	2020-10-29T19:39:28:716
-0,447764	0,511784	-2,190785	2020-10-29T19:39:28:739
-0,567768	0,669227	-2,487239	2020-10-29T19:39:28:756
0,172364	0,027983	-0,033951	2020-10-29T19:39:28:781
0,162793	0,245730	-0,036344	2020-10-29T19:39:28:796
-0,328581	1,100009	-1,773542	2020-10-29T19:39:28:819
-0,241923	1,140451	-2,011931	2020-10-29T19:39:28:836
-0,068369	1,109640	-1,993266	2020-10-29T19:39:28:861
0,060940	1,171257	-1,841508	2020-10-29T19:39:28:876
0,177995	1,346493	-1,700605	2020-10-29T19:39:28:901
0,326039	1,469152	-1,689672	2020-10-29T19:39:28:916
0,592172	1,708445	-1,821154	2020-10-29T19:39:28:940
0,921039	1,891267	-1,982491	2020-10-29T19:39:28:957
1,418043	1,950774	-2,236809	2020-10-29T19:39:28:980
1,521051	2,078461	-2,499209	2020-10-29T19:39:28:996
1,589214	2,227886	-2,579826	2020-10-29T19:39:29:021
2,044229	2,267915	-2,622039	2020-10-29T19:39:29:036
2,693548	2,265738	-2,729314	2020-10-29T19:39:29:060
3,084453	2,218050	-2,888322	2020-10-29T19:39:29:077
3,092168	2,071995	-3,086607	2020-10-29T19:39:29:100
2,729184	2,039808	-2,937367	2020-10-29T19:39:29:116
3,231226	0,688119	-1,184205	2020-10-29T19:39:29:142
2,149671	0,893902	-1,196169	2020-10-29T19:39:29:157
1,288477	0,550205	-1,220978	2020-10-29T19:39:29:181
0,474122	0,329934	-0,994836	2020-10-29T19:39:29:196
0,100519	0,306053	-0,998641	2020-10-29T19:39:29:220
-0,028703	0,303427	-1,042511	2020-10-29T19:39:29:236
-0,087773	0,016427	-0,675957	2020-10-29T19:39:29:261
0,160539	-0,743587	-0,275787	2020-10-29T19:39:29:277
0,256038	-0,760357	0,109195	2020-10-29T19:39:29:299
-3,601406	0,871957	-4,533254	2020-10-29T19:39:29:316
-4,325445	0,834245	-4,572360	2020-10-29T19:39:29:341
-5,440189	0,441410	-4,971309	2020-10-29T19:39:29:357
-2,555918	-0,315957	0,489581	2020-10-29T19:39:29:383
-2,697094	0,066895	0,365155	2020-10-29T19:39:29:397
-2,628407	-0,634713	1,146713	2020-10-29T19:39:29:421
-3,126899	-1,047480	1,113494	2020-10-29T19:39:29:437
-3,563645	-1,552132	1,170376	2020-10-29T19:39:29:461
-3,558863	-1,596755	1,186150	2020-10-29T19:39:29:477
-3,393285	-0,492855	0,404378	2020-10-29T19:39:29:502
-3,213825	-0,753673	0,114846	2020-10-29T19:39:29:517
-3,183461	-0,602089	0,167636	2020-10-29T19:39:29:540
-3,346696	-0,646237	0,136210	2020-10-29T19:39:29:557
-3,139561	-0,558254	0,019487	2020-10-29T19:39:29:581
-2,616452	-0,319194	0,066483	2020-10-29T19:39:29:597
-2,089104	-0,352453	-0,079944	2020-10-29T19:39:29:621
-1,394382	-0,275395	-0,308836	2020-10-29T19:39:29:637
-0,733008	-0,162251	-0,361730	2020-10-29T19:39:29:661
-0,163158	-0,086609	-0,237349	2020-10-29T19:39:29:677
0,252715	-0,103625	-0,141275	2020-10-29T19:39:29:700
0,590897	-0,242109	-0,078141	2020-10-29T19:39:29:717
0,774315	-0,310030	-0,060316	2020-10-29T19:39:29:741
0,595691	-0,447847	0,021836	2020-10-29T19:39:29:757
0,333279	-0,348254	0,315746	2020-10-29T19:39:29:780
0,122543	-0,364589	0,582868	2020-10-29T19:39:29:797
-0,064251	-0,365720	0,585548	2020-10-29T19:39:29:821
-0,213972	-0,459791	0,440492	2020-10-29T19:39:29:837
-0,268797	-0,561734	0,634049	2020-10-29T19:39:29:861
-0,757595	-0,690657	1,053711	2020-10-29T19:39:29:886
-1,262107	-0,773593	1,346943	2020-10-29T19:39:29:911
-1,635562	-0,929640	1,298507	2020-10-29T19:39:29:919
-2,163317	-1,153425	1,194232	2020-10-29T19:39:29:940
-3,097015	-1,213644	1,124680	2020-10-29T19:39:29:957
-3,844670	-1,419322	1,159684	2020-10-29T19:39:29:981
-4,180502	-1,535424	1,275897	2020-10-29T19:39:29:997
-4,286499	-1,717197	1,434482	2020-10-29T19:39:30:020
-3,870844	-1,834254	1,544528	2020-10-29T19:39:30:038
-3,441199	-1,937724	1,845578	2020-10-29T19:39:30:062
-2,835078	-1,919986	2,143613	2020-10-29T19:39:30:077
-1,806098	-1,983181	2,415914	2020-10-29T19:39:30:101
-0,831405	-1,967844	2,515235	2020-10-29T19:39:30:117
0,178163	-1,886992	2,429823	2020-10-29T19:39:30:142
1,338164	-1,488161	2,207105	2020-10-29T19:39:30:158
1,923442	-0,809393	1,765950	2020-10-29T19:39:30:181
2,575535	-0,158946	1,456818	2020-10-29T19:39:30:197
3,029566	0,429393	1,032410	2020-10-29T19:39:30:222
3,167218	0,967923	0,508768	2020-10-29T19:39:30:237
3,012783	1,240074	0,198030	2020-10-29T19:39:30:261
2,379175	1,233550	0,019405	2020-10-29T19:39:30:278
1,820539	0,947074	-0,293194	2020-10-29T19:39:30:302
1,278506	0,882320	-0,920093	2020-10-29T19:39:30:317
-0,160840	0,770008	-1,527470	2020-10-29T19:39:30:341
-2,310749	0,717330	-2,159065	2020-10-29T19:39:30:358
-4,271512	0,541898	-2,593548	2020-10-29T19:39:30:382
-4,818165	0,568730	-2,366929	2020-10-29T19:39:30:398
-3,708061	1,258516	-2,062955	2020-10-29T19:39:30:420
-1,655780	1,475243	-2,123522	2020-10-29T19:39:30:437
0,317529	1,376636	-2,425545	2020-10-29T19:39:30:463
1,623256	1,573472	-2,671319	2020-10-29T19:39:30:478
3,002171	0,828146	-0,616241	2020-10-29T19:39:30:502
3,152919	0,806610	-0,247746	2020-10-29T19:39:30:518
0,979036	4,460280	-1,781684	2020-10-29T19:39:30:542
0,796461	4,678708	-2,506424	2020-10-29T19:39:30:558
0,416730	5,104369	-3,266373	2020-10-29T19:39:30:582
-0,399786	5,577103	-3,334724	2020-10-29T19:39:30:597
-1,800782	5,686738	-2,801736	2020-10-29T19:39:30:622
-2,765280	4,723398	-1,875764	2020-10-29T19:39:30:638
-2,703472	3,847052	-0,597623	2020-10-29T19:39:30:661
-1,273892	3,121712	0,845627	2020-10-29T19:39:30:678
0,505969	0,229230	-0,336295	2020-10-29T19:39:30:703
1,233387	0,839400	-0,862716	2020-10-29T19:39:30:718
1,479918	-1,480702	-0,185124	2020-10-29T19:39:30:741
0,088655	-0,797295	0,987664	2020-10-29T19:39:30:759
-0,789331	0,574696	0,688902	2020-10-29T19:39:30:783
-1,788927	1,432616	-0,304928	2020-10-29T19:39:30:799
-1,258900	1,143651	7,469673	2020-10-29T19:39:30:822
-1,354093	0,589076	6,744386	2020-10-29T19:39:30:838
-1,099817	-0,153144	6,020163	2020-10-29T19:39:30:863
-0,401506	-1,337217	6,001411	2020-10-29T19:39:30:879
0,265709	-2,038522	6,235405	2020-10-29T19:39:30:901
-0,003820	-2,285661	0,699896	2020-10-29T19:39:30:918
2,100342	-2,642976	4,241578	2020-10-29T19:39:30:943
2,719479	-1,134803	3,521806	2020-10-29T19:39:30:959
3,141915	-1,390386	3,385876	2020-10-29T19:39:30:982
3,204612	-2,439240	3,451913	2020-10-29T19:39:30:999
2,272511	-2,883509	2,253654	2020-10-29T19:39:31:023
-0,252934	-2,603363	-1,825806	2020-10-29T19:39:31:038
-1,771654	-1,811796	-2,204862	2020-10-29T19:39:31:063
-3,187328	-1,722112	-1,967576	2020-10-29T19:39:31:079
-3,259221	-1,954990	-1,671005	2020-10-29T19:39:31:102
-2,377928	-2,102937	-1,669535	2020-10-29T19:39:31:119
-1,366262	-2,446182	-1,317432	2020-10-29T19:39:31:142
-0,270450	-2,585873	-1,137259	2020-10-29T19:39:31:159
0,388947	-2,597646	-0,810042	2020-10-29T19:39:31:183
0,362369	-2,308772	-1,214588	2020-10-29T19:39:31:199
-0,018518	-1,776757	-1,728389	2020-10-29T19:39:31:222
-0,120099	-1,341026	-2,264395	2020-10-29T19:39:31:239
-0,048417	-1,406507	-2,567899	2020-10-29T19:39:31:263
-0,326445	-1,459083	-2,828918	2020-10-29T19:39:31:279
-0,763443	-1,418995	-2,882941	2020-10-29T19:39:31:303
-1,119341	-1,034059	-2,981050	2020-10-29T19:39:31:319
-1,371271	-0,705368	-3,230493	2020-10-29T19:39:31:343
-1,402287	-0,520146	-3,283275	2020-10-29T19:39:31:359
-1,236017	-0,428532	-3,149727	2020-10-29T19:39:31:382
-0,691795	-0,378632	-3,022324	2020-10-29T19:39:31:399
-0,263293	-0,361744	-2,792982	2020-10-29T19:39:31:423
-0,233647	-0,490554	-2,591750	2020-10-29T19:39:31:439
-0,114515	-0,026750	0,003517	2020-10-29T19:39:31:464
-0,279619	-0,055464	-0,068267	2020-10-29T19:39:31:479
-1,277446	2,451385	-0,202354	2020-10-29T19:39:31:503
-1,331827	2,649248	-0,055189	2020-10-29T19:39:31:519
-1,318346	2,745411	0,116777	2020-10-29T19:39:31:543
-1,334444	2,670661	0,252360	2020-10-29T19:39:31:560
-1,050772	2,532638	0,179308	2020-10-29T19:39:31:583
-0,665368	2,325584	0,106865	2020-10-29T19:39:31:599
-0,736785	2,411380	0,357719	2020-10-29T19:39:31:622
-0,650978	2,990035	0,052620	2020-10-29T19:39:31:639
-0,186117	2,490013	-0,304731	2020-10-29T19:39:31:663
-0,109598	1,637808	-0,161438	2020-10-29T19:39:31:679
0,405725	0,077495	0,582835	2020-10-29T19:39:31:702
0,663726	-0,426082	0,706943	2020-10-29T19:39:31:719
0,137012	0,084155	-0,015428	2020-10-29T19:39:31:744
0,469614	-0,968688	0,563635	2020-10-29T19:39:31:760
1,395561	-1,913209	1,781871	2020-10-29T19:39:31:784
2,222403	-0,938218	1,794383	2020-10-29T19:39:31:799
2,662987	0,513868	0,901264	2020-10-29T19:39:31:823
3,047522	1,505365	-0,252624	2020-10-29T19:39:31:839
3,667787	0,752480	-0,079831	2020-10-29T19:39:31:863
3,292114	0,573018	-0,240150	2020-10-29T19:39:31:879
0,693125	3,527717	-0,214855	2020-10-29T19:39:31:903
-0,122088	3,435238	0,738417	2020-10-29T19:39:31:919
0,907472	2,714861	1,242405	2020-10-29T19:39:31:942
1,719634	3,941944	1,061593	2020-10-29T19:39:31:959
1,065041	4,818614	0,662761	2020-10-29T19:39:31:984
0,438446	4,437390	1,093455	2020-10-29T19:39:32:000
-1,330384	2,829628	0,095207	2020-10-29T19:39:32:024
-3,548487	1,996453	4,888069	2020-10-29T19:39:32:040
-6,632360	5,399472	-3,155133	2020-10-29T19:39:32:064
-3,339658	1,648659	3,519451	2020-10-29T19:39:32:081
-3,538130	6,058482	7,560352	2020-10-29T19:39:32:102
1,105348	5,176077	0,886253	2020-10-29T19:39:32:120
-2,935431	-1,618008	1,273948	2020-10-29T19:39:32:147
0,614275	-4,322222	2,751874	2020-10-29T19:39:32:160
0,932415	-3,926847	-2,013220	2020-10-29T19:39:32:184
0,457110	-4,837661	-1,473054	2020-10-29T19:39:32:200
-3,420355	-2,308504	1,063289	2020-10-29T19:39:32:225
-3,221749	-0,229141	1,149431	2020-10-29T19:39:32:240
-2,287936	4,005445	-2,743973	2020-10-29T19:39:32:264
-1,361048	3,695133	-2,788350	2020-10-29T19:39:32:280
-2,854954	1,350436	-1,375267	2020-10-29T19:39:32:304
-3,743890	0,004737	-0,690908	2020-10-29T19:39:32:320
-2,400320	1,585672	-1,505207	2020-10-29T19:39:32:343
-0,629413	2,104548	-0,995929	2020-10-29T19:39:32:360
-1,314605	0,174120	0,521551	2020-10-29T19:39:32:385
-1,514544	0,232268	-0,485182	2020-10-29T19:39:32:400
-1,929799	0,013598	-1,190489	2020-10-29T19:39:32:423
-1,181165	1,123672	-1,119409	2020-10-29T19:39:32:440
-1,311488	0,506580	-0,838983	2020-10-29T19:39:32:464
-1,923718	-0,125054	-0,467971	2020-10-29T19:39:32:480
-1,056303	0,736522	-1,133094	2020-10-29T19:39:32:504
-0,563642	0,200005	-0,390191	2020-10-29T19:39:32:520
-0,636129	0,532177	0,144112	2020-10-29T19:39:32:544
-1,109062	-0,916090	0,899316	2020-10-29T19:39:32:561
-0,335449	-0,782054	0,102831	2020-10-29T19:39:32:584
0,050694	-0,576227	0,256965	2020-10-29T19:39:32:600
0,453802	0,313299	0,510031	2020-10-29T19:39:32:624
0,113609	0,207072	1,434273	2020-10-29T19:39:32:641
0,247294	0,524549	1,554625	2020-10-29T19:39:32:664
0,961473	-0,315775	2,122280	2020-10-29T19:39:32:681
1,672266	-0,579506	2,354059	2020-10-29T19:39:32:705
2,254035	-0,227868	2,473326	2020-10-29T19:39:32:721
-0,033638	-0,313477	0,303661	2020-10-29T19:39:32:745
0,071646	-0,849469	0,880332	2020-10-29T19:39:32:761
-1,383328	-0,412227	1,960585	2020-10-29T19:39:32:785
-0,937779	0,246019	1,864154	2020-10-29T19:39:32:801
-0,580901	0,828377	1,611963	2020-10-29T19:39:32:824
-0,183668	0,863731	1,847460	2020-10-29T19:39:32:841
-0,461002	0,164148	2,448348	2020-10-29T19:39:32:865
-0,596323	0,130097	2,262260	2020-10-29T19:39:32:881
-0,242446	1,045500	1,640056	2020-10-29T19:39:32:903
-0,428392	1,827570	1,432607	2020-10-29T19:39:32:920
-0,845981	1,199605	2,509085	2020-10-29T19:39:32:945
-0,607463	2,181504	2,309979	2020-10-29T19:39:32:961
-0,285625	2,881281	1,558788	2020-10-29T19:39:32:985
-0,354217	3,578636	0,420722	2020-10-29T19:39:33:000
0,237104	2,675490	-0,441500	2020-10-29T19:39:33:025
0,763088	0,251333	-0,461603	2020-10-29T19:39:33:041
1,173525	-2,007236	-0,075542	2020-10-29T19:39:33:064
0,687206	-3,706108	0,190602	2020-10-29T19:39:33:081
-0,323332	-3,443867	-0,164672	2020-10-29T19:39:33:105
-0,240969	-0,869257	-0,923377	2020-10-29T19:39:33:121
-0,634261	1,404705	-0,862844	2020-10-29T19:39:33:144
-0,876267	2,743097	-0,395827	2020-10-29T19:39:33:161
-0,645180	0,763603	-1,832647	2020-10-29T19:39:33:186
-0,456147	0,631998	-1,062158	2020-10-29T19:39:33:201
1,007096	-1,150942	-0,706895	2020-10-29T19:39:33:225
1,261145	-2,313041	-0,894487	2020-10-29T19:39:33:241
0,376498	-0,579158	0,760713	2020-10-29T19:39:33:266
0,362141	-0,670086	0,033295	2020-10-29T19:39:33:281
0,536034	-0,206519	-0,844635	2020-10-29T19:39:33:304
0,256159	0,262279	-1,220839	2020-10-29T19:39:33:321
-0,177968	0,074103	-1,092144	2020-10-29T19:39:33:345
-0,470304	-0,248917	-0,322794	2020-10-29T19:39:33:361
-0,631011	-1,268964	0,421231	2020-10-29T19:39:33:384
-0,426595	-0,628933	0,469696	2020-10-29T19:39:33:401
-0,056281	0,091805	-0,163435	2020-10-29T19:39:33:426
-0,056281	1,587319	-0,359648	2020-10-29T19:39:33:441
0,157570	0,777626	-0,854060	2020-10-29T19:39:33:465
-0,357116	0,047732	0,056026	2020-10-29T19:39:33:481
-0,174292	-0,879344	-0,318306	2020-10-29T19:39:33:505
0,393473	-0,697363	-0,951826	2020-10-29T19:39:33:521
0,677415	-0,626130	-2,030564	2020-10-29T19:39:33:544
0,451298	-0,658239	-3,101794	2020-10-29T19:39:33:561
-0,145924	-0,817280	-3,343183	2020-10-29T19:39:33:586
-0,873127	-0,999662	-3,068305	2020-10-29T19:39:33:601
-1,099888	-1,938097	-2,673047	2020-10-29T19:39:33:624
-1,165969	-3,297472	-1,445215	2020-10-29T19:39:33:641
-0,809113	-3,250665	-0,487626	2020-10-29T19:39:33:665
-0,316602	-0,602512	-2,427210	2020-10-29T19:39:33:682
-0,918245	-2,898149	-2,092690	2020-10-29T19:39:33:705
-7,612152	-15,989427	13,142965	2020-10-29T19:39:33:721
-2,877642	-5,169955	4,144842	2020-10-29T19:39:33:745
-1,055056	-0,460883	3,857982	2020-10-29T19:39:33:761
0,943581	-2,334913	-2,583838	2020-10-29T19:39:33:784
3,012242	-7,154487	-7,964436	2020-10-29T19:39:33:802
1,572698	-9,818093	-6,382425	2020-10-29T19:39:33:826
-2,286055	-2,292118	-0,932157	2020-10-29T19:39:33:841
-1,381755	-2,985840	0,011031	2020-10-29T19:39:33:865
-1,979527	-1,398542	-5,801266	2020-10-29T19:39:33:882
-0,042927	-0,074008	0,012976	2020-10-29T19:39:33:906
-2,464464	-1,564737	4,793836	2020-10-29T19:39:33:921
-0,561631	-0,541737	4,893276	2020-10-29T19:39:33:946
0,325112	2,728763	0,533814	2020-10-29T19:39:33:961
-0,942860	-0,365912	0,618807	2020-10-29T19:39:33:986
-1,700835	0,434698	0,134714	2020-10-29T19:39:34:002
-2,830255	0,376994	2,146534	2020-10-29T19:39:34:025
-2,623434	0,541774	2,592422	2020-10-29T19:39:34:042
-2,348015	1,587831	1,838023	2020-10-29T19:39:34:067
-2,769724	1,673016	1,567913	2020-10-29T19:39:34:082
-2,362357	1,152870	1,427183	2020-10-29T19:39:34:105
-3,152926	1,379498	1,107983	2020-10-29T19:39:34:122
-4,697635	0,629085	0,736708	2020-10-29T19:39:34:148
-5,781023	-0,860414	0,817485	2020-10-29T19:39:34:162
-6,515000	-1,369912	1,454253	2020-10-29T19:39:34:187
-6,166380	-0,356802	1,095880	2020-10-29T19:39:34:201
-5,605085	0,359143	2,503036	2020-10-29T19:39:34:227
-4,834739	2,168113	2,909054	2020-10-29T19:39:34:242
-2,838177	2,401012	2,277500	2020-10-29T19:39:34:266
-0,989926	2,468423	1,991898	2020-10-29T19:39:34:282
0,593204	2,673338	2,590564	2020-10-29T19:39:34:307
0,791879	3,940748	3,495678	2020-10-29T19:39:34:322
0,742315	5,767980	3,724442	2020-10-29T19:39:34:346
1,224205	7,205316	2,839437	2020-10-29T19:39:34:362
1,077095	6,365779	2,564232	2020-10-29T19:39:34:387
1,517862	5,605111	1,792374	2020-10-29T19:39:34:402
2,192173	4,854651	0,828002	2020-10-29T19:39:34:427
2,701776	4,655915	-0,241894	2020-10-29T19:39:34:441
3,220228	4,068522	-1,134781	2020-10-29T19:39:34:467
3,334857	3,166673	-1,183860	2020-10-29T19:39:34:482
3,599741	3,375370	-1,389659	2020-10-29T19:39:34:506
3,994651	3,149727	-1,732949	2020-10-29T19:39:34:521
3,811663	2,791722	-1,764410	2020-10-29T19:39:34:547
3,517810	2,350335	-1,917313	2020-10-29T19:39:34:562
2,875744	1,843750	-1,701119	2020-10-29T19:39:34:586
2,769848	1,721610	-1,744664	2020-10-29T19:39:34:602
2,067456	1,351802	-1,045521	2020-10-29T19:39:34:626
1,129054	0,745800	-0,927833	2020-10-29T19:39:34:642
0,411500	0,597054	-1,449120	2020-10-29T19:39:34:667
-0,655884	0,380538	-1,376633	2020-10-29T19:39:34:682
-1,954787	-0,171634	-0,969296	2020-10-29T19:39:34:706
-2,817544	-0,940650	-0,643126	2020-10-29T19:39:34:723
-2,575722	-1,076103	0,309513	2020-10-29T19:39:34:746
-2,970538	-0,824857	0,211407	2020-10-29T19:39:34:764
-4,152856	-6,409097	1,094945	2020-10-29T19:39:34:787
-6,211612	-8,854453	1,192416	2020-10-29T19:39:34:802
-5,876726	-2,254870	0,546607	2020-10-29T19:39:34:826
-3,469547	-2,084980	-0,063563	2020-10-29T19:39:34:842
-0,484209	-6,462105	0,828266	2020-10-29T19:39:34:867
1,262710	-6,423516	1,428448	2020-10-29T19:39:34:882
2,413587	-5,783108	1,831629	2020-10-29T19:39:34:906
2,507541	-4,710226	1,841782	2020-10-29T19:39:34:922
1,956604	-3,978236	2,052981	2020-10-29T19:39:34:946
1,458372	-4,023775	1,789340	2020-10-29T19:39:34:963
0,841560	-3,663534	1,219410	2020-10-29T19:39:34:986
0,085629	-3,271240	0,895891	2020-10-29T19:39:35:002
0,103719	-2,838365	1,140540	2020-10-29T19:39:35:027
0,572766	-2,282912	1,468306	2020-10-29T19:39:35:042
0,717668	-1,992561	1,796268	2020-10-29T19:39:35:066
0,492224	-2,051417	1,989202	2020-10-29T19:39:35:083
0,272908	-2,257542	2,045636	2020-10-29T19:39:35:107
-0,035931	-2,247936	1,993483	2020-10-29T19:39:35:122
-0,193359	-2,233227	1,936978	2020-10-29T19:39:35:146
-0,072149	-2,072580	1,804146	2020-10-29T19:39:35:162
0,241693	-1,875910	1,441567	2020-10-29T19:39:35:187
0,368064	-1,730802	1,281783	2020-10-29T19:39:35:203
0,248764	-1,449771	1,151398	2020-10-29T19:39:35:226
-0,104994	-1,108806	1,135733	2020-10-29T19:39:35:243
-0,489852	-0,668679	0,973522	2020-10-29T19:39:35:269
-0,694521	-0,198044	0,830290	2020-10-29T19:39:35:283
-0,759089	0,100883	0,691208	2020-10-29T19:39:35:306
-0,665666	0,518609	0,586535	2020-10-29T19:39:35:323
-0,230620	-0,033703	0,054804	2020-10-29T19:39:35:348
0,003876	0,126616	0,057196	2020-10-29T19:39:35:363
-0,743220	0,980101	-1,888400	2020-10-29T19:39:35:387
-0,740044	1,157955	-2,101218	2020-10-29T19:39:35:403
-0,777637	1,224187	-2,121335	2020-10-29T19:39:35:427
-1,142999	1,071817	-2,184304	2020-10-29T19:39:35:443
-1,237965	0,907577	-2,131045	2020-10-29T19:39:35:466
-1,304458	0,915321	-2,103942	2020-10-29T19:39:35:483
-1,236848	0,938318	-1,981175	2020-10-29T19:39:35:507
-1,445763	1,078222	-2,030349	2020-10-29T19:39:35:523
-2,284250	1,280374	-2,483493	2020-10-29T19:39:35:546
-3,499099	1,271844	-1,953802	2020-10-29T19:39:35:563
-3,237101	1,183941	-1,671277	2020-10-29T19:39:35:588
-2,012676	1,251853	-1,857619	2020-10-29T19:39:35:603
-1,930317	1,046638	-1,647933	2020-10-29T19:39:35:627
-1,738935	1,795837	-2,647049	2020-10-29T19:39:35:643
-0,534630	3,848529	-2,710612	2020-10-29T19:39:35:667
1,177671	3,282256	-2,068452	2020-10-29T19:39:35:684
2,287837	1,895830	-1,501904	2020-10-29T19:39:35:706
2,327916	0,507158	-1,551109	2020-10-29T19:39:35:723
1,501509	-0,390397	-1,965402	2020-10-29T19:39:35:747
0,272152	-0,569298	-2,548321	2020-10-29T19:39:35:764
-0,723081	-0,085862	-2,843558	2020-10-29T19:39:35:786
-1,279805	0,174225	-2,596255	2020-10-29T19:39:35:803
-1,032443	-0,129860	0,055621	2020-10-29T19:39:35:828
-0,874517	0,111815	0,273368	2020-10-29T19:39:35:843
0,040534	0,171144	0,280351	2020-10-29T19:39:35:867
1,332056	-0,257101	0,451392	2020-10-29T19:39:35:884
2,169638	-0,602246	0,369146	2020-10-29T19:39:35:907
2,612056	-0,704432	0,207743	2020-10-29T19:39:35:923
2,220930	0,696022	-0,338197	2020-10-29T19:39:35:947
1,742366	0,466311	-0,244877	2020-10-29T19:39:35:964
0,967144	1,509469	0,483802	2020-10-29T19:39:35:988
0,322327	1,563551	0,701986	2020-10-29T19:39:36:004
-0,215532	1,642244	0,932290	2020-10-29T19:39:36:026
-0,461347	1,678551	1,011561	2020-10-29T19:39:36:044
-0,327701	1,461104	1,018807	2020-10-29T19:39:36:068
-0,157630	0,917029	1,200832	2020-10-29T19:39:36:084
-0,145025	0,292782	1,721986	2020-10-29T19:39:36:107
-0,159233	-0,374493	2,348909	2020-10-29T19:39:36:124
-0,155463	-0,722518	2,873895	2020-10-29T19:39:36:147
-0,269596	-1,166000	3,213875	2020-10-29T19:39:36:164
-0,560861	-1,621329	3,458427	2020-10-29T19:39:36:188
-0,735663	-1,692188	3,465648	2020-10-29T19:39:36:204
-0,912506	0,039519	3,262352	2020-10-29T19:39:36:228
-0,983883	0,798136	3,086150	2020-10-29T19:39:36:244
-1,012349	-0,174486	0,322929	2020-10-29T19:39:36:268
-1,167882	0,083939	0,602889	2020-10-29T19:39:36:284
-2,317661	-0,401669	1,673829	2020-10-29T19:39:36:308
-3,282223	-0,710043	1,664459	2020-10-29T19:39:36:324
-2,909256	-0,552388	1,494788	2020-10-29T19:39:36:348
-2,951509	-0,680341	1,734489	2020-10-29T19:39:36:364
-2,432551	-1,294668	1,996940	2020-10-29T19:39:36:388
-0,340339	-1,193063	1,740021	2020-10-29T19:39:36:404
0,834939	-0,878792	1,143061	2020-10-29T19:39:36:427
0,623817	-0,651300	0,497502	2020-10-29T19:39:36:444
-0,384535	-0,424281	-0,154015	2020-10-29T19:39:36:468
-1,607753	0,001282	-0,888307	2020-10-29T19:39:36:484
-2,617004	0,528024	-1,407995	2020-10-29T19:39:36:507
-3,396054	1,005729	-1,791861	2020-10-29T19:39:36:524
-3,173356	1,550432	-2,288848	2020-10-29T19:39:36:548
-2,644519	1,650252	-2,854946	2020-10-29T19:39:36:564
-2,284909	1,751710	-2,945213	2020-10-29T19:39:36:588
-2,182156	1,644190	-2,460264	2020-10-29T19:39:36:604
-2,566886	1,329465	-2,071607	2020-10-29T19:39:36:628
-2,259691	1,601346	-2,111664	2020-10-29T19:39:36:644
-0,435421	-0,065224	0,097625	2020-10-29T19:39:36:668
-0,064533	-0,170508	-0,141657	2020-10-29T19:39:36:685
-0,945837	1,569573	-2,129933	2020-10-29T19:39:36:708
-1,094463	1,691019	-2,486000	2020-10-29T19:39:36:724
-1,116823	2,225784	-2,395940	2020-10-29T19:39:36:747
-0,833379	2,271745	-2,578607	2020-10-29T19:39:36:764
-0,202447	2,382350	-2,729416	2020-10-29T19:39:36:788
0,211342	2,428205	-2,920803	2020-10-29T19:39:36:804
0,544125	2,555248	-3,050265	2020-10-29T19:39:36:828
0,949904	2,432216	-2,804260	2020-10-29T19:39:36:844
0,882086	2,258529	-2,419578	2020-10-29T19:39:36:869
0,605348	2,149067	-2,146936	2020-10-29T19:39:36:887
1,963006	0,298997	-0,585188	2020-10-29T19:39:36:911
2,125717	0,231997	-0,597152	2020-10-29T19:39:36:925
2,355674	-0,728777	0,293392	2020-10-29T19:39:36:950
2,213436	-0,861959	0,297245	2020-10-29T19:39:36:965
1,960496	-1,014234	0,460700	2020-10-29T19:39:36:987
1,434825	-1,187500	0,681441	2020-10-29T19:39:37:004
0,728264	-1,438912	1,011066	2020-10-29T19:39:37:029
0,044794	-1,579654	1,269600	2020-10-29T19:39:37:044
-0,692533	-1,711315	0,906849	2020-10-29T19:39:37:068
-3,429440	-1,719350	0,741286	2020-10-29T19:39:37:085
-6,211799	-2,426848	1,219978	2020-10-29T19:39:37:109
-5,700638	-3,409117	1,220298	2020-10-29T19:39:37:124
-3,883847	-4,356387	2,028110	2020-10-29T19:39:37:152
-1,899529	-5,474755	3,307374	2020-10-29T19:39:37:164
0,492123	-5,799623	4,043843	2020-10-29T19:39:37:189
2,035312	-5,239999	3,715015	2020-10-29T19:39:37:204
0,878126	-5,193964	3,165763	2020-10-29T19:39:37:228
-0,627933	-5,382446	2,592288	2020-10-29T19:39:37:245
-0,931870	-0,276571	0,155639	2020-10-29T19:39:37:270
-0,776338	0,297707	0,129318	2020-10-29T19:39:37:285
-0,565617	0,474100	0,125255	2020-10-29T19:39:37:308
-0,530319	1,150676	-0,037128	2020-10-29T19:39:37:324
-0,531612	1,371673	0,743769	2020-10-29T19:39:37:348
-0,523370	1,689190	1,619937	2020-10-29T19:39:37:365
-1,071091	-0,036798	0,353902	2020-10-29T19:39:37:390
-1,331907	0,422624	2,880722	2020-10-29T19:39:37:404
-1,610065	2,686766	1,896593	2020-10-29T19:39:37:429
-0,757825	3,584066	1,239231	2020-10-29T19:39:37:470
0,075605	3,093889	0,654497	2020-10-29T19:39:37:471
0,895860	2,289971	-0,307644	2020-10-29T19:39:37:488
1,555099	1,460826	-0,575009	2020-10-29T19:39:37:515
1,687304	0,942765	-0,210751	2020-10-29T19:39:37:524
0,790275	0,368740	-0,501684	2020-10-29T19:39:37:549
0,440924	0,206029	-0,274365	2020-10-29T19:39:37:564
0,641322	0,292367	-0,136192	2020-10-29T19:39:37:588
0,355187	0,153914	-0,717560	2020-10-29T19:39:37:606
0,288970	-0,086846	-1,162917	2020-10-29T19:39:37:628
0,188861	-0,089363	-0,946970	2020-10-29T19:39:37:645
-0,175591	-0,140455	-0,977712	2020-10-29T19:39:37:669
-0,547008	-0,243727	-1,621052	2020-10-29T19:39:37:685
-0,686980	-0,863175	-1,907935	2020-10-29T19:39:37:708
-0,350006	-1,778672	-1,756824	2020-10-29T19:39:37:725
0,176324	-2,513711	-1,329508	2020-10-29T19:39:37:749
0,801747	-2,615422	-1,278901	2020-10-29T19:39:37:765
0,465368	0,256779	-0,108007	2020-10-29T19:39:37:792
0,604151	0,223280	0,148025	2020-10-29T19:39:37:805
1,072163	-0,236204	1,146910	2020-10-29T19:39:37:829
0,673160	-0,226492	0,811736	2020-10-29T19:39:37:845
-1,518419	-0,213233	1,011331	2020-10-29T19:39:37:868
-2,397106	-0,315420	1,682202	2020-10-29T19:39:37:885
-1,546617	-0,201651	1,172778	2020-10-29T19:39:37:909
-2,024711	-0,315374	1,477214	2020-10-29T19:39:37:925
-1,377079	-0,797074	1,607278	2020-10-29T19:39:37:948
-0,243344	-0,637564	1,066563	2020-10-29T19:39:37:965
-0,800904	-0,630380	0,666698	2020-10-29T19:39:37:989
-1,887010	-1,100899	0,326856	2020-10-29T19:39:38:005
-3,046665	-1,224799	0,224276	2020-10-29T19:39:38:031
-4,539786	-0,954410	-1,201846	2020-10-29T19:39:38:045
-13,605343	3,925565	-6,756055	2020-10-29T19:39:38:069
-14,988582	4,457983	-6,552206	2020-10-29T19:39:38:085
-16,547499	6,633070	-8,748247	2020-10-29T19:39:38:108
-15,987242	7,738581	-9,968853	2020-10-29T19:39:38:125
-14,284782	7,621654	-9,594690	2020-10-29T19:39:38:149
-14,370018	5,825199	-7,352368	2020-10-29T19:39:38:165
-15,134610	4,018864	-6,665924	2020-10-29T19:39:38:188
-15,237761	3,696958	-6,199706	2020-10-29T19:39:38:205
-15,073852	4,118553	-6,449533	2020-10-29T19:39:38:229
-14,543164	4,382321	-6,769569	2020-10-29T19:39:38:245
-13,750164	4,363455	-6,553813	2020-10-29T19:39:38:269
-12,997221	4,606138	-6,361283	2020-10-29T19:39:38:285
-12,504395	4,989152	-6,176409	2020-10-29T19:39:38:309
-12,065827	5,237994	-6,065269	2020-10-29T19:39:38:325
-11,974643	5,052960	-5,898637	2020-10-29T19:39:38:348
-11,857656	4,929465	-5,766835	2020-10-29T19:39:38:365
-11,866833	4,944580	-4,980717	2020-10-29T19:39:38:390
-11,877182	4,548035	-4,775148	2020-10-29T19:39:38:405
-11,603782	4,613012	-5,302804	2020-10-29T19:39:38:428
-11,200405	4,861742	-6,049468	2020-10-29T19:39:38:446
-10,922458	5,076662	-6,467606	2020-10-29T19:39:38:470
-10,858760	4,950658	-6,418722	2020-10-29T19:39:38:485
1,995891	0,375172	-0,191042	2020-10-29T19:39:38:511
1,424006	0,109569	0,356914	2020-10-29T19:39:38:525
1,115568	-2,757123	2,014692	2020-10-29T19:39:38:550
0,818622	-3,014950	2,457944	2020-10-29T19:39:38:566
0,383424	-3,267388	2,816834	2020-10-29T19:39:38:589
-0,262441	-3,554836	3,205033	2020-10-29T19:39:38:605
-0,900892	-0,128490	0,228148	2020-10-29T19:39:38:630
-2,226514	-0,063884	0,125257	2020-10-29T19:39:38:645
-3,484591	-3,160572	3,857275	2020-10-29T19:39:38:669
-3,488271	-3,728335	4,016076	2020-10-29T19:39:38:686
-3,298713	-4,144422	4,053678	2020-10-29T19:39:38:710
-5,864843	-8,229178	7,346848	2020-10-29T19:39:38:725
-5,085053	-9,386089	8,298727	2020-10-29T19:39:38:749
-3,398590	-9,484495	8,326633	2020-10-29T19:39:38:766
-2,125584	-9,504116	7,916601	2020-10-29T19:39:38:790
-0,974617	-9,391678	7,374158	2020-10-29T19:39:38:806
-0,853635	-9,011037	7,118708	2020-10-29T19:39:38:829
-1,934926	-8,867565	7,041570	2020-10-29T19:39:38:845
-3,359846	-8,831028	7,139256	2020-10-29T19:39:38:870
-3,626418	-8,575301	6,908379	2020-10-29T19:39:38:886
-0,838589	-0,193264	0,163440	2020-10-29T19:39:38:909
-1,314760	0,141731	0,029442	2020-10-29T19:39:38:926
-0,757922	-0,648525	0,554718	2020-10-29T19:39:38:950
0,007281	-0,813353	0,400845	2020-10-29T19:39:38:965
0,630124	-0,958958	0,290438	2020-10-29T19:39:38:990
1,149023	-0,974041	0,120274	2020-10-29T19:39:39:005
1,361526	-1,057712	-0,004246	2020-10-29T19:39:39:030
1,252696	-1,540136	-0,164535	2020-10-29T19:39:39:046
0,991854	-1,881449	-0,118137	2020-10-29T19:39:39:069
0,442533	-2,062908	-0,123949	2020-10-29T19:39:39:086
-0,555463	-0,238374	0,059873	2020-10-29T19:39:39:111
-0,890458	0,761826	0,062266	2020-10-29T19:39:39:126
0,112151	0,017840	-0,007417	2020-10-29T19:39:39:151
0,765391	0,683044	-1,148793	2020-10-29T19:39:39:166
0,320046	0,058529	0,537503	2020-10-29T19:39:39:190
-0,243339	-2,452938	1,443938	2020-10-29T19:39:39:206
-0,639085	-2,977609	1,367824	2020-10-29T19:39:39:230
-0,754401	-1,815198	2,226579	2020-10-29T19:39:39:246
-1,787347	2,020499	5,700385	2020-10-29T19:39:39:270
-1,688947	4,337111	6,411692	2020-10-29T19:39:39:287
0,257091	2,966804	4,806507	2020-10-29T19:39:39:310
-0,200568	0,364741	3,266005	2020-10-29T19:39:39:326
-0,375576	-0,900059	2,320164	2020-10-29T19:39:39:350
-0,283897	-1,258580	1,521153	2020-10-29T19:39:39:366
-1,363843	-0,659035	0,601485	2020-10-29T19:39:39:390
-3,669654	0,508346	0,653234	2020-10-29T19:39:39:407
-4,457594	-1,396038	0,102695	2020-10-29T19:39:39:431
-3,584213	-1,654463	-0,208372	2020-10-29T19:39:39:447
-2,433437	-0,917311	-0,167286	2020-10-29T19:39:39:481
-2,316188	-0,845526	-0,727207	2020-10-29T19:39:39:487
-3,246691	2,616350	-3,402171	2020-10-29T19:39:39:510
-2,221545	3,073922	-3,607983	2020-10-29T19:39:39:527
0,141912	0,039455	0,026476	2020-10-29T19:39:39:551
0,168233	0,434270	0,392578	2020-10-29T19:39:39:567
-1,787552	4,257567	-0,694469	2020-10-29T19:39:39:591
-2,437473	5,067490	-0,590618	2020-10-29T19:39:39:606
-2,181170	5,149984	-0,576235	2020-10-29T19:39:39:630
-2,053671	5,056475	-0,637953	2020-10-29T19:39:39:647
-1,848754	4,723495	-0,732707	2020-10-29T19:39:39:671
-1,843503	4,304684	-0,769123	2020-10-29T19:39:39:687
-1,753911	3,870995	-0,885348	2020-10-29T19:39:39:711
-1,864756	3,662615	-1,086977	2020-10-29T19:39:39:726
-1,835279	3,527889	-1,192665	2020-10-29T19:39:39:750
-1,706796	3,390131	-1,256415	2020-10-29T19:39:39:767
-1,524312	3,510877	-1,182527	2020-10-29T19:39:39:790
-1,410563	3,536557	-1,266600	2020-10-29T19:39:39:806
-1,608579	3,566777	-1,449990	2020-10-29T19:39:39:831
-1,858419	3,345331	-1,543335	2020-10-29T19:39:39:847
-0,225687	-0,075058	-0,020414	2020-10-29T19:39:39:871
-0,472147	-0,103772	0,077692	2020-10-29T19:39:39:891
-2,907411	3,844969	-0,644178	2020-10-29T19:39:39:910
-3,078978	3,667193	-0,744864	2020-10-29T19:39:39:927
-3,240117	3,484300	-0,836586	2020-10-29T19:39:39:951
-3,340812	3,419459	-1,065130	2020-10-29T19:39:39:967
-3,511190	3,501901	-1,073465	2020-10-29T19:39:39:992
-3,328785	3,656180	-1,067329	2020-10-29T19:39:40:007
-3,234220	3,758051	-1,106923	2020-10-29T19:39:40:030
-3,342615	3,937489	-1,090030	2020-10-29T19:39:40:047
-3,240607	4,087031	-1,173629	2020-10-29T19:39:40:072
-2,850593	4,215127	-1,192279	2020-10-29T19:39:40:087
-2,533454	4,475953	-1,290717	2020-10-29T19:39:40:110
-2,411380	4,730632	-1,385378	2020-10-29T19:39:40:127
-2,390516	4,940329	-1,483249	2020-10-29T19:39:40:151
-2,755292	5,259923	-1,864718	2020-10-29T19:39:40:167
-0,322624	-0,061190	-0,008686	2020-10-29T19:39:40:193
-1,827709	2,051672	0,668483	2020-10-29T19:39:40:207
-2,171273	1,910073	-0,446337	2020-10-29T19:39:40:232
-1,906736	1,947111	-0,753372	2020-10-29T19:39:40:247
-0,771800	1,879778	-1,391473	2020-10-29T19:39:40:270
-0,466915	1,818102	-1,350341	2020-10-29T19:39:40:287
-0,366396	1,858419	-1,121013	2020-10-29T19:39:40:311
-0,002506	1,518958	-0,569548	2020-10-29T19:39:40:327
0,207498	0,783072	-0,225988	2020-10-29T19:39:40:350
0,190802	-0,353011	-0,349139	2020-10-29T19:39:40:368
0,284742	-0,939625	-0,592239	2020-10-29T19:39:40:392
0,262440	-0,595554	-0,785486	2020-10-29T19:39:40:407
0,306754	-0,161270	-0,730007	2020-10-29T19:39:40:431
0,332781	0,253475	-0,411644	2020-10-29T19:39:40:447
0,364275	0,500425	-0,175016	2020-10-29T19:39:40:472
0,400364	0,338703	-0,328544	2020-10-29T19:39:40:488
0,266644	0,118387	-0,605552	2020-10-29T19:39:40:511
0,118859	-0,198923	-0,770358	2020-10-29T19:39:40:527
-0,037930	-0,335215	-0,774776	2020-10-29T19:39:40:552
0,001762	-0,280324	-0,872635	2020-10-29T19:39:40:568
-0,086149	-0,181181	-0,980422	2020-10-29T19:39:40:591
-0,342989	-0,034378	-0,998800	2020-10-29T19:39:40:608
-0,759377	0,075247	-1,093567	2020-10-29T19:39:40:632
-0,965210	0,366658	-1,289030	2020-10-29T19:39:40:647
-1,195308	0,453881	-1,439466	2020-10-29T19:39:40:672
-1,533653	0,402203	-1,736253	2020-10-29T19:39:40:688
-1,337265	-0,194612	0,125960	2020-10-29T19:39:40:713
-1,318123	-0,103684	0,118781	2020-10-29T19:39:40:728
-1,394536	0,560934	-1,145773	2020-10-29T19:39:40:751
-1,316210	0,417590	-1,313048	2020-10-29T19:39:40:768
-1,260790	0,316885	-1,528637	2020-10-29T19:39:40:792
-0,931716	0,451655	-1,687487	2020-10-29T19:39:40:808
-0,257747	0,583863	-1,922901	2020-10-29T19:39:40:831
0,330012	0,750429	-2,094433	2020-10-29T19:39:40:848
0,867654	0,857161	-2,131556	2020-10-29T19:39:40:873
1,438028	0,869047	-2,003256	2020-10-29T19:39:40:888
2,220420	1,160556	-2,341280	2020-10-29T19:39:40:912
0,772713	1,665801	-3,247477	2020-10-29T19:39:40:928
-1,996757	1,909055	-2,804011	2020-10-29T19:39:40:952
-2,253045	1,786261	-2,298080	2020-10-29T19:39:40:968
-1,924198	1,635534	-2,259322	2020-10-29T19:39:40:991
-2,151437	1,436620	-2,107284	2020-10-29T19:39:41:008
-1,858050	0,845622	-1,843900	2020-10-29T19:39:41:032
-1,506533	0,609467	-1,459202	2020-10-29T19:39:41:048
-1,017190	0,809771	-1,043056	2020-10-29T19:39:41:071
-0,350070	0,991744	-0,843449	2020-10-29T19:39:41:088
-0,036873	0,915768	-0,677260	2020-10-29T19:39:41:113
0,405908	0,493184	-0,443231	2020-10-29T19:39:41:128
0,220529	0,216092	0,069227	2020-10-29T19:39:41:152
-0,370045	0,443298	0,279021	2020-10-29T19:39:41:168
-0,472423	-0,086655	0,109892	2020-10-29T19:39:41:193
-0,434136	0,521122	-0,009749	2020-10-29T19:39:41:208
-0,985588	0,679814	-1,961124	2020-10-29T19:39:41:231
-0,798801	0,962901	-2,292706	2020-10-29T19:39:41:248
-0,553331	0,988084	-2,474638	2020-10-29T19:39:41:272
0,331952	1,600466	5,931113	2020-10-29T19:39:41:288
0,441990	0,912192	6,935236	2020-10-29T19:39:41:311
0,049212	0,787101	7,567361	2020-10-29T19:39:41:328
0,126604	1,665864	7,747645	2020-10-29T19:39:41:352
-0,060242	0,306448	7,602789	2020-10-29T19:39:41:368
0,062346	-0,600205	7,051719	2020-10-29T19:39:41:393
-0,936921	-1,265692	-1,969516	2020-10-29T19:39:41:408
-0,880182	-1,051740	-2,001893	2020-10-29T19:39:41:432
-0,595688	-0,970158	-1,925434	2020-10-29T19:39:41:448
-0,607889	-1,050092	-1,774424	2020-10-29T19:39:41:471
-0,165498	-1,082242	-1,577253	2020-10-29T19:39:41:489
0,105500	-0,817564	-1,465642	2020-10-29T19:39:41:513
0,360718	-0,719671	-1,600685	2020-10-29T19:39:41:528
0,319914	-0,760888	-1,617034	2020-10-29T19:39:41:551
0,148739	-0,819379	-1,392099	2020-10-29T19:39:41:569
-0,098808	-0,024733	0,010759	2020-10-29T19:39:41:594
-0,333305	-0,168303	0,319433	2020-10-29T19:39:41:608
-0,314998	-0,408911	0,683769	2020-10-29T19:39:41:632
-0,256108	-0,447568	0,599857	2020-10-29T19:39:41:648
-0,135304	-0,307847	0,496341	2020-10-29T19:39:41:673
0,037961	-0,765372	0,727365	2020-10-29T19:39:41:689
-0,049298	-0,071487	1,107784	2020-10-29T19:39:41:713
0,019190	-0,245924	0,722574	2020-10-29T19:39:41:728
0,092997	-0,436590	1,067284	2020-10-29T19:39:41:753
0,007549	0,001882	1,018763	2020-10-29T19:39:41:769
-0,059505	-0,797467	1,385884	2020-10-29T19:39:41:792
-0,009255	-0,813530	1,578581	2020-10-29T19:39:41:809
-0,525791	-0,176969	0,125676	2020-10-29T19:39:41:833
-0,521005	-0,622034	0,312316	2020-10-29T19:39:41:848
-0,758986	-0,111325	0,814722	2020-10-29T19:39:41:876
-0,496505	0,143240	0,780916	2020-10-29T19:39:41:889
-0,438248	0,121231	0,722912	2020-10-29T19:39:41:913
-0,348944	0,174530	0,765707	2020-10-29T19:39:41:929
-0,437465	0,157441	0,811758	2020-10-29T19:39:41:952
-0,326453	0,325232	0,773748	2020-10-29T19:39:41:969
-0,435448	0,372763	0,693039	2020-10-29T19:39:41:993
-0,769479	0,582335	0,412889	2020-10-29T19:39:42:009
-1,049630	0,779439	0,204180	2020-10-29T19:39:42:032
-1,153754	1,036513	0,004602	2020-10-29T19:39:42:049
-1,209659	1,178809	-0,177805	2020-10-29T19:39:42:073
-0,914264	1,296194	-0,580520	2020-10-29T19:39:42:090
-0,709779	1,707197	-0,711610	2020-10-29T19:39:42:113
-0,455163	1,815475	-0,834566	2020-10-29T19:39:42:129
-0,192188	1,644363	-1,079173	2020-10-29T19:39:42:154
0,026142	1,483428	-1,237405	2020-10-29T19:39:42:169
0,156113	1,083638	-1,359561	2020-10-29T19:39:42:192
0,253099	1,119264	-1,462789	2020-10-29T19:39:42:209
0,315584	1,012981	-1,415446	2020-10-29T19:39:42:234
0,395724	0,936775	-1,379540	2020-10-29T19:39:42:249
0,411305	0,831047	-1,339440	2020-10-29T19:39:42:273
0,217341	0,982750	-1,370243	2020-10-29T19:39:42:289
0,083196	0,990188	-1,364102	2020-10-29T19:39:42:313
0,142453	1,062688	-1,439368	2020-10-29T19:39:42:329
0,481679	1,154147	-1,460784	2020-10-29T19:39:42:353
0,678843	1,217522	-1,562321	2020-10-29T19:39:42:369
1,069870	1,294023	-1,754135	2020-10-29T19:39:42:394
1,376648	1,206999	-2,273428	2020-10-29T19:39:42:409
1,690026	1,107653	-1,997178	2020-10-29T19:39:42:432
2,324624	1,085309	-1,619321	2020-10-29T19:39:42:449
2,921327	1,113742	-0,184127	2020-10-29T19:39:42:475
3,031396	1,061100	-0,387517	2020-10-29T19:39:42:490
-0,623429	5,185209	-0,451728	2020-10-29T19:39:42:512
-1,503496	5,479292	-0,256035	2020-10-29T19:39:42:529
-2,018526	5,748725	0,117442	2020-10-29T19:39:42:553
-2,510077	6,026697	0,108870	2020-10-29T19:39:42:570
-2,516994	6,128262	-0,149784	2020-10-29T19:39:42:594
-2,556476	6,190086	-0,334271	2020-10-29T19:39:42:609
-2,357296	6,247474	-0,457316	2020-10-29T19:39:42:634
-1,907645	6,346889	-0,358722	2020-10-29T19:39:42:649
-1,928791	5,910467	-0,480371	2020-10-29T19:39:42:673
-1,900043	4,742907	-0,207307	2020-10-29T19:39:42:690
-2,970360	4,190799	0,467112	2020-10-29T19:39:42:714
-3,434993	5,772986	1,059277	2020-10-29T19:39:42:729
-3,282226	6,671763	0,525710	2020-10-29T19:39:42:753
-2,741565	6,300635	-0,380357	2020-10-29T19:39:42:770
-3,084919	5,310269	-0,292021	2020-10-29T19:39:42:794
-4,045020	5,656754	0,086342	2020-10-29T19:39:42:810
-4,531528	5,242297	-0,601708	2020-10-29T19:39:42:833
-4,540256	3,743514	-0,906474	2020-10-29T19:39:42:850
-4,747532	1,669309	-0,430385	2020-10-29T19:39:42:875
-2,858289	-0,619556	1,118349	2020-10-29T19:39:42:890
-2,047766	-3,174467	1,311999	2020-10-29T19:39:42:913
-1,567624	-3,145115	1,964100	2020-10-29T19:39:42:931
-3,253005	0,366842	2,130527	2020-10-29T19:39:42:954
-3,675243	-0,712891	2,024035	2020-10-29T19:39:42:971
-3,681583	-0,003563	0,834731	2020-10-29T19:39:42:993
-4,578109	1,045767	0,135103	2020-10-29T19:39:43:012
-3,430654	-1,850102	0,090531	2020-10-29T19:39:43:034
-5,562658	-6,599855	1,598009	2020-10-29T19:39:43:051
-9,663151	-9,875204	4,325465	2020-10-29T19:39:43:074
-2,061985	-2,755017	2,382249	2020-10-29T19:39:43:092
-0,917603	-0,461543	-0,129552	2020-10-29T19:39:43:115
-2,733755	-2,966828	0,707936	2020-10-29T19:39:43:131
-8,438764	4,516772	0,173181	2020-10-29T19:39:43:153
-7,923777	6,153432	1,493268	2020-10-29T19:39:43:171
-6,517290	5,270896	3,575598	2020-10-29T19:39:43:194
-5,318275	4,270895	3,543339	2020-10-29T19:39:43:211
-4,234703	3,922825	2,198596	2020-10-29T19:39:43:233
-3,783522	3,692996	1,734103	2020-10-29T19:39:43:251
-0,304194	-0,368271	0,112192	2020-10-29T19:39:43:275
-0,553048	-2,294495	0,363438	2020-10-29T19:39:43:291
-2,217748	-0,769353	-1,259069	2020-10-29T19:39:43:314
-2,061969	0,110772	-2,201957	2020-10-29T19:39:43:330
-1,634628	-0,278538	-2,328528	2020-10-29T19:39:43:354
-1,029912	-0,265711	-2,935617	2020-10-29T19:39:43:371
0,214062	0,468626	-0,020716	2020-10-29T19:39:43:394
0,726126	0,183881	1,290551	2020-10-29T19:39:43:410
0,292809	0,626892	1,495015	2020-10-29T19:39:43:434
-0,166228	0,766609	1,921545	2020-10-29T19:39:43:451
-1,283082	1,336051	1,384218	2020-10-29T19:39:43:473
-1,545583	1,993146	0,550615	2020-10-29T19:39:43:491
-1,637170	2,128290	0,330160	2020-10-29T19:39:43:514
-1,463495	1,341477	0,635144	2020-10-29T19:39:43:530
-0,920926	0,984338	1,219777	2020-10-29T19:39:43:554
-0,670910	0,926512	1,481643	2020-10-29T19:39:43:571
-0,750015	0,932010	1,537579	2020-10-29T19:39:43:594
-0,379523	1,219496	1,346038	2020-10-29T19:39:43:611
-0,090412	1,274876	1,581869	2020-10-29T19:39:43:633
0,130492	0,808125	1,862583	2020-10-29T19:39:43:650
0,548999	0,873007	1,978092	2020-10-29T19:39:43:674
0,706353	1,214478	1,799133	2020-10-29T19:39:43:691
0,436082	1,491992	1,683595	2020-10-29T19:39:43:713
0,266645	1,855668	1,689446	2020-10-29T19:39:43:731
0,109812	2,141926	1,606017	2020-10-29T19:39:43:754
0,003598	1,555666	1,475159	2020-10-29T19:39:43:771
-0,119466	-0,158564	0,169611	2020-10-29T19:39:43:797
-0,770314	0,063968	0,016470	2020-10-29T19:39:43:810
-0,421119	-1,257184	-0,131752	2020-10-29T19:39:43:834
0,516681	-1,962161	0,049471	2020-10-29T19:39:43:853
0,400753	-1,321384	-0,260991	2020-10-29T19:39:43:874
0,506563	-1,451884	-0,026080	2020-10-29T19:39:43:891
0,905805	-1,382491	-0,018721	2020-10-29T19:39:43:914
0,898842	-1,017895	-0,141191	2020-10-29T19:39:43:931
0,130683	0,137332	-0,192835	2020-10-29T19:39:43:954
0,264681	0,733145	-0,113872	2020-10-29T19:39:43:971
0,074526	0,636684	-0,747099	2020-10-29T19:39:43:995
0,138335	1,104092	-0,896409	2020-10-29T19:39:44:011
0,817958	0,524400	-1,191132	2020-10-29T19:39:44:036
0,638497	0,701469	-1,164811	2020-10-29T19:39:44:051
0,437176	0,815708	-1,094072	2020-10-29T19:39:44:075
0,067525	1,013052	-0,870389	2020-10-29T19:39:44:092
-0,366918	0,954172	-0,659924	2020-10-29T19:39:44:114
-0,635205	0,807789	-0,506398	2020-10-29T19:39:44:132
-0,898938	0,302083	-0,421048	2020-10-29T19:39:44:155
-1,087275	-0,057008	-0,524689	2020-10-29T19:39:44:172
-0,347648	-0,150262	0,332330	2020-10-29T19:39:44:195
-0,352434	-0,485257	0,509399	2020-10-29T19:39:44:211
0,103778	-1,133407	0,916471	2020-10-29T19:39:44:235
0,177691	-1,268411	0,967293	2020-10-29T19:39:44:251
0,300652	-1,385000	0,818439	2020-10-29T19:39:44:275
0,393248	-1,119996	0,515872	2020-10-29T19:39:44:292
0,400796	-0,893560	0,124911	2020-10-29T19:39:44:315
0,298038	-0,771944	-0,029804	2020-10-29T19:39:44:332
0,546702	-0,991655	-0,067885	2020-10-29T19:39:44:354
0,872192	-0,906507	0,201849	2020-10-29T19:39:44:372
-0,013227	-0,007601	0,013530	2020-10-29T19:39:44:397
-0,431971	0,152718	0,037458	2020-10-29T19:39:44:412
-0,902492	0,499051	-0,174443	2020-10-29T19:39:44:435
-0,713377	0,921202	-0,522900	2020-10-29T19:39:44:452
-0,846623	1,404770	-0,713021	2020-10-29T19:39:44:476
-0,739626	1,742993	-0,677745	2020-10-29T19:39:44:492
-0,553548	1,680016	-0,427875	2020-10-29T19:39:44:515
-0,533646	0,452400	0,132532	2020-10-29T19:39:44:531
-0,312551	-0,773625	0,317647	2020-10-29T19:39:44:555
-0,214432	-1,215098	0,284629	2020-10-29T19:39:44:572
-0,095620	-1,283353	0,103412	2020-10-29T19:39:44:595
-0,051633	-1,208941	-0,056038	2020-10-29T19:39:44:612
0,083734	-1,034992	-0,170568	2020-10-29T19:39:44:635
0,123928	-0,571547	-0,282434	2020-10-29T19:39:44:652
0,256702	-0,307588	-0,284545	2020-10-29T19:39:44:675
0,246144	-0,242421	-0,191592	2020-10-29T19:39:44:692
0,310882	-0,094071	-0,201849	2020-10-29T19:39:44:716
0,296841	0,150637	-0,231451	2020-10-29T19:39:44:732
0,268783	0,340266	-0,310134	2020-10-29T19:39:44:757
0,128541	0,401993	-0,166004	2020-10-29T19:39:44:772
-0,001501	0,192262	-0,083506	2020-10-29T19:39:44:796
-0,033580	0,020879	0,076702	2020-10-29T19:39:44:812
-0,024043	-0,181102	0,000977	2020-10-29T19:39:44:835
-0,058952	-0,162791	-0,065248	2020-10-29T19:39:44:852
-0,035215	-0,075714	-0,101909	2020-10-29T19:39:44:876
0,002360	-0,070837	-0,138716	2020-10-29T19:39:44:893
0,058445	0,025081	-0,070790	2020-10-29T19:39:44:915
0,133795	0,004403	-0,098678	2020-10-29T19:39:44:932
0,152261	0,009027	-0,007897	2020-10-29T19:39:44:956
0,196055	-0,010049	-0,091756	2020-10-29T19:39:44:973
0,251180	0,097890	-0,002317	2020-10-29T19:39:44:997
0,164513	-0,077777	-0,080903	2020-10-29T19:39:45:013
0,121432	-0,130898	-0,106240	2020-10-29T19:39:45:036
0,091774	-0,201379	-0,136151	2020-10-29T19:39:45:053
0,158537	-0,109800	-0,102001	2020-10-29T19:39:45:075
0,158797	-0,111080	-0,050957	2020-10-29T19:39:45:093
0,109642	0,065657	-0,028706	2020-10-29T19:39:45:116
0,128067	0,071332	0,039002	2020-10-29T19:39:45:132
0,132879	0,119804	0,004395	2020-10-29T19:39:45:155
0,079295	0,136770	0,030773	2020-10-29T19:39:45:173
0,062867	0,102047	-0,021475	2020-10-29T19:39:45:197
0,025390	0,116592	-0,043618	2020-10-29T19:39:45:212
0,096641	0,089425	-0,017519	2020-10-29T19:39:45:236
0,143253	0,096706	-0,070483	2020-10-29T19:39:45:253
0,097157	-0,041143	-0,022667	2020-10-29T19:39:45:276
0,096202	-0,056261	-0,012335	2020-10-29T19:39:45:293
0,182917	-0,144638	0,014487	2020-10-29T19:39:45:316
0,140512	-0,071984	-0,045115	2020-10-29T19:39:45:333
0,093752	-0,001076	-0,020806	2020-10-29T19:39:45:356
0,099703	0,032568	-0,020391	2020-10-29T19:39:45:373
0,173431	-0,035766	0,030094	2020-10-29T19:39:45:396
0,108512	-0,073895	-0,024439	2020-10-29T19:39:45:413
0,080187	0,052216	-0,079879	2020-10-29T19:39:45:437
0,130437	0,078537	0,001477	2020-10-29T19:39:45:453
0,032336	0,020392	-0,032226	2020-10-29T19:39:45:478
0,073013	0,056285	0,039559	2020-10-29T19:39:45:493
0,029644	0,045604	-0,053082	2020-10-29T19:39:45:516
0,041023	-0,066761	-0,021598	2020-10-29T19:39:45:533
0,134036	0,000779	0,020620	2020-10-29T19:39:45:556
0,102089	-0,069435	-0,000771	2020-10-29T19:39:45:573
0,036433	-0,079127	0,058537	2020-10-29T19:39:45:597
0,126128	-0,089539	0,026286	2020-10-29T19:39:45:613
0,127014	-0,006557	-0,007083	2020-10-29T19:39:45:636
0,129230	-0,024600	-0,031383	2020-10-29T19:39:45:653
0,169589	-0,082568	-0,038596	2020-10-29T19:39:45:677
0,241953	0,048985	-0,059834	2020-10-29T19:39:45:693
0,123470	0,001511	-0,044957	2020-10-29T19:39:45:717
0,094003	0,023038	-0,034628	2020-10-29T19:39:45:733
0,120891	-0,086229	0,031055	2020-10-29T19:39:45:757
0,029524	-0,036053	0,000105	2020-10-29T19:39:45:774
0,049451	-0,055228	0,026317	2020-10-29T19:39:45:796
0,118046	0,074394	0,027304	2020-10-29T19:39:45:813
0,068578	0,065847	0,048748	2020-10-29T19:39:45:837
0,110668	0,001621	0,020167	2020-10-29T19:39:45:853
0,072414	0,058359	0,023674	2020-10-29T19:39:45:876
0,115062	0,006996	-0,068383	2020-10-29T19:39:45:893
0,133529	-0,034848	-0,033257	2020-10-29T19:39:45:917
0,111963	-0,005013	-0,022348	2020-10-29T19:39:45:933
0,148359	0,086740	-0,019792	2020-10-29T19:39:45:958
0,081786	0,030474	0,054031	2020-10-29T19:39:45:973
0,067891	0,027128	0,075425	2020-10-29T19:39:45:997
0,087524	0,060416	0,061430	2020-10-29T19:39:46:013
0,076372	-0,105881	0,094988	2020-10-29T19:39:46:036
0,089019	-0,017354	-0,011340	2020-10-29T19:39:46:054
0,077862	0,019337	0,056114	2020-10-29T19:39:46:078
0,094504	0,015455	0,032668	2020-10-29T19:39:46:094
0,039264	0,033937	0,040760	2020-10-29T19:39:46:116
0,102941	-0,034930	-0,010078	2020-10-29T19:39:46:133
0,032756	-0,008129	0,030794	2020-10-29T19:39:46:157
0,085615	0,035206	-0,027098	2020-10-29T19:39:46:174
0,121222	0,044702	-0,021098	2020-10-29T19:39:46:198
0,078990	0,032858	-0,018619	2020-10-29T19:39:46:213
0,147986	0,073727	-0,026910	2020-10-29T19:39:46:238
0,141746	-0,024623	0,040047	2020-10-29T19:39:46:254
0,109675	-0,010114	-0,010337	2020-10-29T19:39:46:277
0,128047	0,003851	0,008493	2020-10-29T19:39:46:294
0,181810	0,000139	0,028633	2020-10-29T19:39:46:318
0,176481	-0,065527	0,006622	2020-10-29T19:39:46:334
0,140018	0,005625	-0,039916	2020-10-29T19:39:46:357
0,123534	0,047465	0,048808	2020-10-29T19:39:46:374
0,027779	-0,109885	0,147281	2020-10-29T19:39:46:398
0,058591	-0,242219	0,271673	2020-10-29T19:39:46:414
-0,096885	-0,225595	0,393645	2020-10-29T19:39:46:437
-0,114043	-0,457077	0,697626	2020-10-29T19:39:46:453
0,050403	-0,678773	0,930626	2020-10-29T19:39:46:478
0,103547	-0,769614	0,814461	2020-10-29T19:39:46:494
0,343257	-0,650444	0,596200	2020-10-29T19:39:46:517
0,432354	-0,667390	0,255375	2020-10-29T19:39:46:534
0,578441	-0,517469	-0,111279	2020-10-29T19:39:46:558
0,586494	-0,310176	-0,416667	2020-10-29T19:39:46:574
0,802918	-0,011699	-0,693034	2020-10-29T19:39:46:597
0,762482	0,241067	-0,891259	2020-10-29T19:39:46:614
0,612255	0,717058	-0,908749	2020-10-29T19:39:46:638
0,271241	1,265895	-0,819747	2020-10-29T19:39:46:654
-0,175828	1,739300	-0,587149	2020-10-29T19:39:46:678
-0,176991	2,114580	-0,530681	2020-10-29T19:39:46:694
-0,237787	2,203297	-0,637330	2020-10-29T19:39:46:718
-0,220698	1,367645	0,127038	2020-10-29T19:39:46:734
-0,877476	0,326315	1,077877	2020-10-29T19:39:46:757
-1,538021	-0,137057	1,533604	2020-10-29T19:39:46:775
-0,756719	-0,665064	0,562855	2020-10-29T19:39:46:798
-0,171852	-1,260073	-0,505752	2020-10-29T19:39:46:814
0,249130	-2,068241	-1,595190	2020-10-29T19:39:46:838
0,819169	-1,942436	-1,365483	2020-10-29T19:39:46:854
0,803718	-0,828305	-0,305283	2020-10-29T19:39:46:878
0,719047	-0,613274	-0,034386	2020-10-29T19:39:46:895
0,885482	-0,207170	0,117993	2020-10-29T19:39:46:918
0,740692	-0,200283	0,146510	2020-10-29T19:39:46:935
0,982915	-0,167094	-0,087990	2020-10-29T19:39:46:958
0,709868	-0,228573	-0,344818	2020-10-29T19:39:46:975
0,877773	-0,730666	-0,274109	2020-10-29T19:39:46:998
0,772361	-0,774431	-0,371835	2020-10-29T19:39:47:014
0,842972	-0,437724	-0,293106	2020-10-29T19:39:47:038
0,877598	0,091414	-0,091493	2020-10-29T19:39:47:055
-0,034463	0,926555	-0,350811	2020-10-29T19:39:47:077
-0,237978	1,340366	-0,255020	2020-10-29T19:39:47:096
-0,667505	1,639014	0,176331	2020-10-29T19:39:47:118
-0,368549	-0,155008	0,362433	2020-10-29T19:39:47:187
-0,868603	-0,091083	1,074807	2020-10-29T19:39:47:188
-0,665214	-1,301851	1,050879	2020-10-29T19:39:47:190
0,487350	-1,838696	1,043191	2020-10-29T19:39:47:206
0,989145	-2,354714	0,495005	2020-10-29T19:39:47:215
1,395441	-1,817540	-0,004674	2020-10-29T19:39:47:238
1,533781	-0,966488	-0,494898	2020-10-29T19:39:47:255
1,529972	-0,927073	-0,628381	2020-10-29T19:39:47:279
1,162435	-0,771218	-0,222813	2020-10-29T19:39:47:295
1,018110	-0,904305	0,199953	2020-10-29T19:39:47:317
0,926311	-1,222160	0,414147	2020-10-29T19:39:47:334
1,075326	-1,397119	0,195557	2020-10-29T19:39:47:359
1,113053	-1,423682	-0,018923	2020-10-29T19:39:47:375
1,442224	-2,649775	0,238546	2020-10-29T19:39:47:399
1,398950	-3,191062	0,371474	2020-10-29T19:39:47:415
1,319193	-3,214446	0,878547	2020-10-29T19:39:47:438
1,357138	-2,669135	0,850056	2020-10-29T19:39:47:455
2,177894	0,659207	-0,229033	2020-10-29T19:39:47:478
1,969915	0,334910	-0,168713	2020-10-29T19:39:47:495
1,095032	0,124732	0,334430	2020-10-29T19:39:47:519
0,347413	-0,768223	1,151861	2020-10-29T19:39:47:535
-0,122550	0,696694	-0,030173	2020-10-29T19:39:47:558
-0,045286	2,539536	-1,222066	2020-10-29T19:39:47:575
0,213882	1,444149	-0,855601	2020-10-29T19:39:47:599
0,462629	-0,307496	-0,176875	2020-10-29T19:39:47:615
-0,236894	-0,211522	0,221889	2020-10-29T19:39:47:640
-0,835099	0,884391	-0,407423	2020-10-29T19:39:47:655
-0,118654	0,702054	-0,038088	2020-10-29T19:39:47:679
-0,441951	0,025838	-0,321486	2020-10-29T19:39:47:695
-0,449147	-0,377759	-1,223788	2020-10-29T19:39:47:718
-0,901618	-1,216787	-1,439313	2020-10-29T19:39:47:735
-2,063730	-1,460377	0,707954	2020-10-29T19:39:47:760
-2,329334	-1,630267	1,705761	2020-10-29T19:39:47:776
-1,525544	-1,507182	4,523473	2020-10-29T19:39:47:798
-4,762791	4,094829	4,113117	2020-10-29T19:39:47:815
-4,703420	3,191511	3,315238	2020-10-29T19:39:47:839
-3,920665	1,382071	2,488230	2020-10-29T19:39:47:855
-3,944611	1,167032	1,270939	2020-10-29T19:39:47:879
-4,798812	1,289789	1,196070	2020-10-29T19:39:47:895
-6,448922	2,819351	1,811152	2020-10-29T19:39:47:919
-7,147714	3,721654	2,111278	2020-10-29T19:39:47:935
-6,819901	3,084887	2,558354	2020-10-29T19:39:47:958
-4,946013	1,654807	4,428599	2020-10-29T19:39:47:976
-3,853150	3,244774	4,384947	2020-10-29T19:39:48:000
-3,675219	3,928993	3,334066	2020-10-29T19:39:48:015
-3,296909	4,211277	1,845478	2020-10-29T19:39:48:038
-2,668932	4,259173	0,725137	2020-10-29T19:39:48:055
-2,086719	3,920111	0,017213	2020-10-29T19:39:48:080
-1,740124	3,805173	0,074250	2020-10-29T19:39:48:095
0,499879	0,165006	-0,111115	2020-10-29T19:39:48:121
0,593199	0,119542	0,008526	2020-10-29T19:39:48:135
0,871035	0,405016	-0,176946	2020-10-29T19:39:48:159
1,023566	0,770645	-0,276875	2020-10-29T19:39:48:176
1,154828	1,116349	-0,204242	2020-10-29T19:39:48:199
1,334526	0,925887	-0,337468	2020-10-29T19:39:48:215
1,730626	0,594251	-0,703890	2020-10-29T19:39:48:240
1,941750	0,503445	-1,035930	2020-10-29T19:39:48:255
2,198264	0,475576	-1,369684	2020-10-29T19:39:48:279
2,491675	0,187256	-1,516668	2020-10-29T19:39:48:296
2,439597	0,886018	-0,323771	2020-10-29T19:39:48:321
2,310384	0,663486	-0,184987	2020-10-29T19:39:48:335
1,962787	0,805811	-0,273054	2020-10-29T19:39:48:361
1,556007	0,487565	-0,186913	2020-10-29T19:39:48:376
1,477039	-0,071566	-0,049882	2020-10-29T19:39:48:400
1,356419	-0,222483	-0,125137	2020-10-29T19:39:48:416
1,374050	-0,248698	-0,313939	2020-10-29T19:39:48:439
1,261553	-0,348850	-0,231857	2020-10-29T19:39:48:456
1,088540	-0,201034	-0,061962	2020-10-29T19:39:48:481
0,854056	0,020437	0,125639	2020-10-29T19:39:48:496
0,783860	0,130358	0,102215	2020-10-29T19:39:48:518
0,778614	0,167190	-0,160554	2020-10-29T19:39:48:536
0,753832	0,009377	-0,111676	2020-10-29T19:39:48:560
0,752252	-0,237593	0,033052	2020-10-29T19:39:48:576
0,679766	-0,085966	0,308645	2020-10-29T19:39:48:600
0,580977	-0,078073	0,308075	2020-10-29T19:39:48:616
0,452665	0,144383	-0,077070	2020-10-29T19:39:48:640
0,708696	0,235311	0,102391	2020-10-29T19:39:48:656
0,763075	-0,253176	0,644404	2020-10-29T19:39:48:679
0,811044	-0,154008	0,907331	2020-10-29T19:39:48:696
0,891601	-0,172653	1,101901	2020-10-29T19:39:48:720
0,811510	-0,136403	1,076436	2020-10-29T19:39:48:736
0,333548	0,094230	-0,098978	2020-10-29T19:39:48:759
0,477118	0,204299	0,116376	2020-10-29T19:39:48:776
0,396836	0,263765	0,469687	2020-10-29T19:39:48:800
-0,043252	0,442523	0,687551	2020-10-29T19:39:48:816
-0,767684	0,761968	0,215476	2020-10-29T19:39:48:840
-2,186494	0,963674	0,168801	2020-10-29T19:39:48:856
-3,058509	0,925674	0,504392	2020-10-29T19:39:48:880
-2,921304	1,017981	0,734894	2020-10-29T19:39:48:897
-2,281051	1,228069	0,720641	2020-10-29T19:39:48:919
-1,498838	1,030756	0,478264	2020-10-29T19:39:48:936
-1,108084	0,945520	0,353458	2020-10-29T19:39:48:960
-0,905761	0,834400	0,409827	2020-10-29T19:39:48:976
-0,505397	1,015657	0,276571	2020-10-29T19:39:48:999
0,147442	1,261470	-0,032921	2020-10-29T19:39:49:016
0,798601	0,095055	-0,289736	2020-10-29T19:39:49:041
0,951742	0,243410	-0,715658	2020-10-29T19:39:49:056
-0,654297	1,166233	-3,528446	2020-10-29T19:39:49:080
-1,154445	1,245660	-3,643435	2020-10-29T19:39:49:097
-2,042871	1,388296	-3,740528	2020-10-29T19:39:49:119
-3,140933	1,129411	-3,917313	2020-10-29T19:39:49:136
-3,833907	0,924168	-3,802159	2020-10-29T19:39:49:159
-4,092630	0,771708	-3,846027	2020-10-29T19:39:49:177
-4,191137	0,618935	-3,561352	2020-10-29T19:39:49:200
-3,777396	0,560228	-3,045437	2020-10-29T19:39:49:216
-2,773555	0,679704	-2,573958	2020-10-29T19:39:49:240
-1,647442	0,870379	-2,661014	2020-10-29T19:39:49:256
-0,785506	1,075352	-2,960544	2020-10-29T19:39:49:281
-0,178972	1,195293	-3,414749	2020-10-29T19:39:49:297
1,878001	0,216830	-0,513703	2020-10-29T19:39:49:322
1,988071	0,628396	-0,841519	2020-10-29T19:39:49:336
1,552812	1,274901	-2,574082	2020-10-29T19:39:49:360
1,640444	1,342434	-2,506610	2020-10-29T19:39:49:377
1,495589	1,359594	-2,306224	2020-10-29T19:39:49:400
1,767928	1,168102	-2,239678	2020-10-29T19:39:49:416
1,962423	0,825768	-2,156015	2020-10-29T19:39:49:440
2,080682	0,459033	-1,904881	2020-10-29T19:39:49:457
2,063131	0,256532	-1,598888	2020-10-29T19:39:49:480
1,565103	0,023837	-1,162731	2020-10-29T19:39:49:497
1,042466	-0,281264	-0,713332	2020-10-29T19:39:49:520
0,659538	-0,623861	-0,161042	2020-10-29T19:39:49:536
0,262470	-1,020968	0,451770	2020-10-29T19:39:49:561
-0,477704	-0,836583	1,879791	2020-10-29T19:39:49:577
-0,731364	-1,202919	2,340814	2020-10-29T19:39:49:601
-0,856353	-1,891641	2,497420	2020-10-29T19:39:49:617
-1,100524	-3,068759	2,936275	2020-10-29T19:39:49:640
-1,017004	-3,024102	3,210358	2020-10-29T19:39:49:657
-1,143073	-2,704835	3,521931	2020-10-29T19:39:49:681
-1,310452	-2,722659	3,644616	2020-10-29T19:39:49:697
-2,379145	-2,739680	3,497343	2020-10-29T19:39:49:720
-4,175364	-2,914410	3,842217	2020-10-29T19:39:49:737
-4,230556	-2,990049	4,444561	2020-10-29T19:39:49:761
-3,368753	-3,053475	4,588927	2020-10-29T19:39:49:777
-4,137640	-5,756313	6,757170	2020-10-29T19:39:49:802
-2,635069	-6,047349	7,048328	2020-10-29T19:39:49:817
-0,832289	-5,839690	7,149679	2020-10-29T19:39:49:840
1,321134	-3,737799	5,685260	2020-10-29T19:39:49:857
2,125916	-3,767212	5,242130	2020-10-29T19:39:49:882
2,417155	-3,482478	4,646410	2020-10-29T19:39:49:899
1,758599	-3,029197	4,041081	2020-10-29T19:39:49:921
0,326909	-2,403476	3,351212	2020-10-29T19:39:49:937
-1,113610	-2,070934	2,792775	2020-10-29T19:39:49:960
-2,275857	-1,674508	3,195115	2020-10-29T19:39:49:978
-3,087720	-0,500799	4,199738	2020-10-29T19:39:50:001
-2,806977	1,114631	2,618974	2020-10-29T19:39:50:018
-2,481836	0,254840	0,614001	2020-10-29T19:39:50:043
-1,735274	-0,769288	0,427361	2020-10-29T19:39:50:057
-1,065319	-0,095442	0,333679	2020-10-29T19:39:50:082
-0,457541	-0,834824	0,723709	2020-10-29T19:39:50:098
-1,923721	0,802059	-1,404211	2020-10-29T19:39:50:120
-2,164744	0,873679	-2,016616	2020-10-29T19:39:50:137
-1,763783	0,959352	-2,867187	2020-10-29T19:39:50:161
-1,590272	1,193099	-3,333511	2020-10-29T19:39:50:178
-1,579780	1,576062	-3,607896	2020-10-29T19:39:50:200
-1,421466	1,887634	-3,694329	2020-10-29T19:39:50:217
-1,299857	2,037126	-3,901512	2020-10-29T19:39:50:241
-1,278601	2,022224	-4,168307	2020-10-29T19:39:50:257
1,044164	0,110970	-0,172717	2020-10-29T19:39:50:283
1,249947	-0,094813	-0,043504	2020-10-29T19:39:50:298
1,115897	0,653365	-1,313649	2020-10-29T19:39:50:321
1,411018	0,400089	-1,466536	2020-10-29T19:39:50:337
1,699306	0,346536	-1,620333	2020-10-29T19:39:50:360
1,755878	0,386860	-1,655038	2020-10-29T19:39:50:378
1,370259	0,436938	-1,471225	2020-10-29T19:39:50:402
0,625224	0,587879	-1,474306	2020-10-29T19:39:50:418
1,339957	0,234275	-0,294031	2020-10-29T19:39:50:441
1,595989	0,509449	-0,121747	2020-10-29T19:39:50:457
1,323007	0,765369	-0,016015	2020-10-29T19:39:50:482
0,060269	1,097810	-0,349127	2020-10-29T19:39:50:498
-1,399705	1,146818	0,287335	2020-10-29T19:39:50:522
-1,516308	1,160740	1,223418	2020-10-29T19:39:50:537
-0,789190	1,179087	2,075958	2020-10-29T19:39:50:562
-0,444391	1,430220	2,761303	2020-10-29T19:39:50:578
0,224316	1,269081	3,006574	2020-10-29T19:39:50:601
1,257438	0,990911	2,907998	2020-10-29T19:39:50:618
1,897677	0,791778	2,884996	2020-10-29T19:39:50:642
1,381982	0,285483	3,068005	2020-10-29T19:39:50:658
0,187716	-0,400688	3,245775	2020-10-29T19:39:50:681
-0,604829	-0,864936	3,778948	2020-10-29T19:39:50:698
-0,908545	-1,293600	4,041053	2020-10-29T19:39:50:722
-1,505940	-1,456343	4,045088	2020-10-29T19:39:50:738
-1,782772	-1,299515	4,014311	2020-10-29T19:39:50:762
-1,306396	-1,434286	3,884861	2020-10-29T19:39:50:779
-0,583822	-0,027190	0,136915	2020-10-29T19:39:50:803
-0,019116	0,042202	-0,341649	2020-10-29T19:39:50:818
0,795592	-0,732166	1,216404	2020-10-29T19:39:50:841
1,136019	-1,033709	1,142472	2020-10-29T19:39:50:858
1,009102	-1,438102	1,493303	2020-10-29T19:39:50:882
0,687944	-1,944040	1,684951	2020-10-29T19:39:50:899
0,634848	-2,605994	1,831596	2020-10-29T19:39:50:921
0,273080	-3,093985	2,186606	2020-10-29T19:39:50:938
-0,768374	-0,269835	0,236130	2020-10-29T19:39:50:963
-0,708553	-0,367941	0,394056	2020-10-29T19:39:50:978
-0,092217	-0,498341	1,452744	2020-10-29T19:39:51:002
0,068142	-0,378226	1,914518	2020-10-29T19:39:51:017
0,165130	-0,510317	2,699033	2020-10-29T19:39:51:042
0,240856	-0,495201	3,339633	2020-10-29T19:39:51:058
0,139457	-0,439682	3,698421	2020-10-29T19:39:51:081
0,245107	-0,295150	3,728229	2020-10-29T19:39:51:098
0,440175	-0,169270	3,396035	2020-10-29T19:39:51:122
0,412504	-0,021606	2,958378	2020-10-29T19:39:51:138
0,132674	0,368524	2,437685	2020-10-29T19:39:51:161
-0,315561	0,613293	2,059302	2020-10-29T19:39:51:179
-0,753726	0,714920	1,885444	2020-10-29T19:39:51:203
-0,803751	0,604342	1,787656	2020-10-29T19:39:51:218
-0,990821	-0,123141	0,256753	2020-10-29T19:39:51:244
-3,620533	-0,391138	0,797531	2020-10-29T19:39:51:258
-4,382643	-0,157221	-0,177675	2020-10-29T19:39:51:282
-3,328089	-0,265247	-1,007857	2020-10-29T19:39:51:299
-3,449216	-0,885315	-1,157186	2020-10-29T19:39:51:321
-2,612688	-1,411720	-1,469753	2020-10-29T19:39:51:338
-1,330518	-1,315071	-1,883631	2020-10-29T19:39:51:362
-0,547872	-0,952134	-1,988858	2020-10-29T19:39:51:379
0,035197	-0,847035	-2,662350	2020-10-29T19:39:51:402
0,129131	-1,060935	-3,574719	2020-10-29T19:39:51:418
-0,616171	-1,019776	-4,387081	2020-10-29T19:39:51:443
-1,657293	-0,584882	-4,854089	2020-10-29T19:39:51:458
-2,240022	-0,318413	-4,984141	2020-10-29T19:39:51:483
-2,712276	0,013403	-5,483149	2020-10-29T19:39:51:499
-3,190551	0,056278	-5,657934	2020-10-29T19:39:51:522
-3,280638	0,036497	-5,638570	2020-10-29T19:39:51:538
-3,337056	-0,204957	-5,746246	2020-10-29T19:39:51:562
-3,228231	-0,451526	-5,784198	2020-10-29T19:39:51:579
-2,481360	-0,670663	-5,896454	2020-10-29T19:39:51:603
-2,071135	-0,813026	-5,723114	2020-10-29T19:39:51:619
-2,087321	-0,834819	-5,439482	2020-10-29T19:39:51:641
-2,176556	-1,022464	-5,130607	2020-10-29T19:39:51:659
-0,730088	-0,247085	0,031235	2020-10-29T19:39:51:685
-0,823409	-0,311692	-0,155405	2020-10-29T19:39:51:699
-1,013398	0,159146	-1,107953	2020-10-29T19:39:51:724
-1,004054	0,453728	-1,180565	2020-10-29T19:39:51:738
-0,991911	0,694144	-1,316901	2020-10-29T19:39:51:764
-1,108779	0,951118	-1,256093	2020-10-29T19:39:51:779
-1,108246	1,197062	-1,308866	2020-10-29T19:39:51:803
-0,989956	1,402433	-1,171294	2020-10-29T19:39:51:818
-0,288305	-0,067601	0,012636	2020-10-29T19:39:51:845
-0,154308	-0,007781	0,340452	2020-10-29T19:39:51:859
-0,656695	2,128715	0,005609	2020-10-29T19:39:51:882
-0,413924	2,251617	0,039890	2020-10-29T19:39:51:899
-0,270684	2,448315	0,145014	2020-10-29T19:39:51:924
-0,389547	2,622796	0,240055	2020-10-29T19:39:51:939
-0,308672	2,743577	0,593490	2020-10-29T19:39:51:963
-0,428802	3,033792	0,847245	2020-10-29T19:39:51:979
-0,339586	3,333814	0,649507	2020-10-29T19:39:52:004
-0,640527	3,785070	0,141815	2020-10-29T19:39:52:019
-1,877018	3,969597	0,262788	2020-10-29T19:39:52:042
-2,148305	4,207465	1,225720	2020-10-29T19:39:52:059
-1,633693	5,012960	1,475772	2020-10-29T19:39:52:084
-1,211567	6,147899	1,417663	2020-10-29T19:39:52:100
0,064247	6,404455	0,733717	2020-10-29T19:39:52:122
1,794882	5,461514	0,238188	2020-10-29T19:39:52:139
2,666659	4,523941	0,235065	2020-10-29T19:39:52:166
2,358651	3,641333	0,603995	2020-10-29T19:39:52:179
0,883754	2,913261	0,964808	2020-10-29T19:39:52:203
-0,423848	2,123436	0,916001	2020-10-29T19:39:52:219
-1,199108	1,711855	0,683934	2020-10-29T19:39:52:244
-1,597156	1,398041	0,570565	2020-10-29T19:39:52:259
-1,669203	1,288183	0,549770	2020-10-29T19:39:52:283
-1,310186	1,081514	0,730117	2020-10-29T19:39:52:300
-0,440243	0,851818	0,941471	2020-10-29T19:39:52:327
0,297266	0,752307	1,070959	2020-10-29T19:39:52:339
0,694918	0,384711	1,047307	2020-10-29T19:39:52:362
0,713204	0,012240	0,951013	2020-10-29T19:39:52:380
0,373026	-0,324049	1,045266	2020-10-29T19:39:52:404
0,426988	-0,734226	1,168235	2020-10-29T19:39:52:419
0,505381	-0,939839	1,109333	2020-10-29T19:39:52:443
-0,556489	1,602905	-0,555460	2020-10-29T19:39:52:459
-0,241037	3,343500	-1,319146	2020-10-29T19:39:52:484
0,647545	4,284788	-1,624775	2020-10-29T19:39:52:500
0,129250	2,878825	-0,933400	2020-10-29T19:39:52:523
-0,619974	1,534503	-0,406936	2020-10-29T19:39:52:539
-0,733829	0,986960	-0,537600	2020-10-29T19:39:52:563
-0,464911	1,145245	-1,106920	2020-10-29T19:39:52:580
-1,078332	1,344834	-1,236273	2020-10-29T19:39:52:603
-1,642519	1,038065	-1,060239	2020-10-29T19:39:52:620
-1,711888	-0,293559	-0,144072	2020-10-29T19:39:52:644
-1,348180	-0,226560	-0,034002	2020-10-29T19:39:52:659
-1,143754	-0,158257	-0,116983	2020-10-29T19:39:52:685
-1,210752	0,801265	-0,796545	2020-10-29T19:39:52:700
-2,621797	2,194908	-0,393770	2020-10-29T19:39:52:723
-3,769430	2,203748	0,469553	2020-10-29T19:39:52:740
-3,281219	1,760118	1,316170	2020-10-29T19:39:52:763
-2,754545	1,902190	1,170215	2020-10-29T19:39:52:780
-2,297552	0,004127	-0,356786	2020-10-29T19:39:52:805
-1,979307	-0,606042	0,306026	2020-10-29T19:39:52:820
-0,742543	-0,966548	2,369993	2020-10-29T19:39:52:842
0,874498	-0,396115	2,704687	2020-10-29T19:39:52:860
1,998022	0,376652	2,185868	2020-10-29T19:39:52:884
1,815804	0,958561	1,517766	2020-10-29T19:39:52:900
0,927000	1,031594	1,326052	2020-10-29T19:39:52:924
0,239738	1,320507	1,066509	2020-10-29T19:39:52:940
0,045781	1,472871	0,457640	2020-10-29T19:39:52:964
-0,334956	1,042372	-0,193918	2020-10-29T19:39:52:980
-0,269686	0,219485	-0,027059	2020-10-29T19:39:53:003
-0,015666	-0,267557	0,408498	2020-10-29T19:39:53:020
-0,178458	0,393168	0,028667	2020-10-29T19:39:53:044
-0,168875	0,922252	-0,632473	2020-10-29T19:39:53:060
0,527621	0,972995	-1,054534	2020-10-29T19:39:53:084
0,736791	1,039110	-1,248906	2020-10-29T19:39:53:100
1,489323	0,945384	-0,081763	2020-10-29T19:39:53:124
1,221358	0,497420	0,835704	2020-10-29T19:39:53:140
0,222218	0,095726	0,638597	2020-10-29T19:39:53:164
-0,377757	-0,278461	-0,478347	2020-10-29T19:39:53:181
0,097143	-0,532787	-1,009893	2020-10-29T19:39:53:204
0,721542	-0,798059	-0,572324	2020-10-29T19:39:53:220
0,297796	-1,173066	-0,103018	2020-10-29T19:39:53:244
-0,389791	-0,972172	0,034390	2020-10-29T19:39:53:260
-0,151766	-0,945317	0,012964	2020-10-29T19:39:53:285
0,099424	-0,784207	-0,007520	2020-10-29T19:39:53:300
0,026931	-0,743530	-0,102445	2020-10-29T19:39:53:323
0,034609	-1,036667	0,055747	2020-10-29T19:39:53:340
-0,033026	-0,971772	0,024650	2020-10-29T19:39:53:365
0,157830	-0,335301	0,393439	2020-10-29T19:39:53:380
0,066581	-0,562170	0,438277	2020-10-29T19:39:53:405
-0,113358	-0,735215	0,495010	2020-10-29T19:39:53:420
0,147850	-0,145487	0,273495	2020-10-29T19:39:53:445
-0,224589	1,100665	-0,278001	2020-10-29T19:39:53:460
-2,208730	0,299169	-0,411020	2020-10-29T19:39:53:485
-4,371841	-0,813494	0,156079	2020-10-29T19:39:53:501
-4,509426	-1,464056	-0,381367	2020-10-29T19:39:53:525
-2,465738	-1,307568	-0,155866	2020-10-29T19:39:53:540
0,757070	-0,632917	0,214690	2020-10-29T19:39:53:564
2,990823	-0,449641	0,547868	2020-10-29T19:39:53:581
3,555898	-0,475779	0,179800	2020-10-29T19:39:53:606
3,455400	-0,396816	-0,784507	2020-10-29T19:39:53:621
2,895947	0,810618	-1,884558	2020-10-29T19:39:53:645
1,346881	1,226758	-2,476778	2020-10-29T19:39:53:660
-0,065195	1,379431	-2,475439	2020-10-29T19:39:53:685
-0,747875	1,505204	-1,682397	2020-10-29T19:39:53:701
-0,749104	2,314629	-0,764835	2020-10-29T19:39:53:724
-1,024363	2,199305	-0,200935	2020-10-29T19:39:53:741
-1,221694	1,729483	0,151925	2020-10-29T19:39:53:765
-0,864805	1,151376	0,161953	2020-10-29T19:39:53:781
-0,163447	0,567943	0,182861	2020-10-29T19:39:53:804
0,234796	0,119693	-0,038248	2020-10-29T19:39:53:821
0,408159	0,286766	-0,245332	2020-10-29T19:39:53:845
0,274166	0,323976	-0,429945	2020-10-29T19:39:53:861
0,180079	0,156347	-0,706711	2020-10-29T19:39:53:885
-0,109343	-0,439077	-0,845799	2020-10-29T19:39:53:901
-0,430955	-1,145323	-1,005841	2020-10-29T19:39:53:925
-0,404772	-1,394717	-1,310175	2020-10-29T19:39:53:942
-0,149505	-1,846522	-1,592821	2020-10-29T19:39:53:965
0,083315	-1,939145	-1,722523	2020-10-29T19:39:53:981
-0,143333	-0,045248	-0,021712	2020-10-29T19:39:54:006
-0,021299	-0,160103	-0,036069	2020-10-29T19:39:54:021
-0,961488	1,552537	-0,259819	2020-10-29T19:39:54:044
-1,197544	2,031905	-0,509561	2020-10-29T19:39:54:061
-1,385765	2,026226	-0,506269	2020-10-29T19:39:54:086
-1,931015	2,412879	-0,670648	2020-10-29T19:39:54:102
-2,198984	2,906517	-0,889619	2020-10-29T19:39:54:125
-2,537615	4,146769	-1,445960	2020-10-29T19:39:54:141
-1,915884	4,029107	-1,489506	2020-10-29T19:39:54:165
-1,762694	4,121953	-1,248122	2020-10-29T19:39:54:181
-1,593145	4,534990	-0,934001	2020-10-29T19:39:54:205
-1,403574	4,642295	-0,556791	2020-10-29T19:39:54:221
-1,350409	4,597514	-0,246113	2020-10-29T19:39:54:246
-1,329103	4,374258	0,004856	2020-10-29T19:39:54:261
-1,822721	3,845043	-0,296003	2020-10-29T19:39:54:285
-2,496663	4,716117	-1,385983	2020-10-29T19:39:54:302
-2,223547	4,909851	-1,811230	2020-10-29T19:39:54:326
-2,269075	3,714504	-1,772542	2020-10-29T19:39:54:341
-2,346300	2,862350	-1,705723	2020-10-29T19:39:54:365
-2,969956	1,840405	-1,782045	2020-10-29T19:39:54:381
-3,462297	2,626538	-2,052526	2020-10-29T19:39:54:406
-2,251054	2,717917	-2,074517	2020-10-29T19:39:54:422
-1,980237	1,898555	-1,457169	2020-10-29T19:39:54:445
-1,521723	1,575918	-0,982518	2020-10-29T19:39:54:461
-0,795080	1,692863	-0,473426	2020-10-29T19:39:54:486
-1,036913	1,961959	-0,202751	2020-10-29T19:39:54:502
-1,809627	2,164004	-0,252814	2020-10-29T19:39:54:526
-2,043585	2,066082	-0,953010	2020-10-29T19:39:54:542
-2,537744	2,097240	-1,686910	2020-10-29T19:39:54:566
-1,560309	-0,881084	-0,629806	2020-10-29T19:39:54:582
-1,714414	-0,411372	0,033552	2020-10-29T19:39:54:608
-1,656985	0,191620	-0,239230	2020-10-29T19:39:54:622
-3,130470	4,329639	-2,428535	2020-10-29T19:39:54:646
-2,404640	4,336772	-2,792301	2020-10-29T19:39:54:662
-1,872274	4,131909	-2,729952	2020-10-29T19:39:54:685
-1,648330	4,025532	-2,310166	2020-10-29T19:39:54:702
-1,538069	4,020065	-2,047611	2020-10-29T19:39:54:726
-1,531153	4,191992	-1,918135	2020-10-29T19:39:54:741
-1,435857	4,198042	-2,135091	2020-10-29T19:39:54:765
-1,406274	4,063971	-2,285223	2020-10-29T19:39:54:782
-1,326423	4,135072	-2,173732	2020-10-29T19:39:54:806
-1,352335	4,370693	-1,989922	2020-10-29T19:39:54:822
-1,579724	4,458213	-1,868029	2020-10-29T19:39:54:847
-2,001938	4,398997	-1,947490	2020-10-29T19:39:54:861
-2,881620	4,302109	-1,985778	2020-10-29T19:39:54:886
-3,854921	3,930812	-1,701731	2020-10-29T19:39:54:902
-3,211047	3,839990	-1,715125	2020-10-29T19:39:54:925
-2,390310	3,751818	-1,802869	2020-10-29T19:39:54:941
-1,936306	3,650909	-1,813607	2020-10-29T19:39:54:966
-1,563035	3,573963	-1,767449	2020-10-29T19:39:54:982
-1,402269	3,774872	-1,320328	2020-10-29T19:39:55:005
-1,286929	3,364107	-0,657209	2020-10-29T19:39:55:022
-1,158829	2,742706	0,038090	2020-10-29T19:39:55:046
-1,138332	1,747336	0,435600	2020-10-29T19:39:55:062
-1,005105	1,239478	0,598734	2020-10-29T19:39:55:086
-0,924001	0,537091	0,916803	2020-10-29T19:39:55:102
-0,575218	-0,067420	1,104205	2020-10-29T19:39:55:126
-3,955595	4,424584	0,557217	2020-10-29T19:39:55:142
-4,736741	5,057227	0,495877	2020-10-29T19:39:55:165
-5,574374	5,658604	0,277793	2020-10-29T19:39:55:182
-6,040419	6,011086	1,009966	2020-10-29T19:39:55:206
-10,477606	16,537174	13,900725	2020-10-29T19:39:55:222
-9,369572	13,479209	15,743020	2020-10-29T19:39:55:246
-4,208253	0,055474	2,465248	2020-10-29T19:39:55:262
-1,561077	-5,869692	-4,376469	2020-10-29T19:39:55:286
-1,560436	-7,681545	-2,838804	2020-10-29T19:39:55:302
-2,444625	-8,190878	-0,424231	2020-10-29T19:39:55:326
-1,924977	-6,835199	-1,351182	2020-10-29T19:39:55:342
-0,841955	-6,414190	-3,296048	2020-10-29T19:39:55:366
-0,679265	-6,004625	-4,541240	2020-10-29T19:39:55:382
0,128972	0,036157	0,006269	2020-10-29T19:39:55:406
0,083508	1,175141	0,188124	2020-10-29T19:39:55:422
0,337090	-0,154294	-0,250775	2020-10-29T19:39:55:447
0,431583	0,132107	-0,075291	2020-10-29T19:39:55:462
0,631187	0,218347	0,083367	2020-10-29T19:39:55:486
0,672009	-0,122572	0,450200	2020-10-29T19:39:55:503
0,496932	-0,838686	0,514022	2020-10-29T19:39:55:527
0,290594	-1,579094	0,422335	2020-10-29T19:39:55:542
0,245710	-2,183155	0,271093	2020-10-29T19:39:55:566
0,372250	-3,069756	0,157105	2020-10-29T19:39:55:583
0,499454	-2,877816	0,171694	2020-10-29T19:39:55:606
0,316949	-1,599706	0,402597	2020-10-29T19:39:55:622
-0,390038	0,390491	0,866861	2020-10-29T19:39:55:645
-0,804431	1,146449	1,168625	2020-10-29T19:39:55:663
-0,953981	1,805499	1,376529	2020-10-29T19:39:55:687
-0,713531	1,817251	1,377272	2020-10-29T19:39:55:703
-0,054783	0,967134	1,308276	2020-10-29T19:39:55:726
0,484612	0,072457	1,344660	2020-10-29T19:39:55:743
0,764271	-0,413352	1,473019	2020-10-29T19:39:55:767
0,761203	-0,612080	1,589892	2020-10-29T19:39:55:783
0,539334	-0,713078	1,756517	2020-10-29T19:39:55:807
0,217684	-0,929965	2,021157	2020-10-29T19:39:55:823
-0,131497	-0,905155	2,981380	2020-10-29T19:39:55:847
-0,607658	1,287912	4,090592	2020-10-29T19:39:55:864
-0,588064	4,339741	3,291724	2020-10-29T19:39:55:886
-0,533989	1,199015	3,300946	2020-10-29T19:39:55:903
-0,674020	-2,508581	3,550753	2020-10-29T19:39:55:927
-0,225974	-3,473118	3,608217	2020-10-29T19:39:55:943
-0,089471	-3,164777	3,334533	2020-10-29T19:39:55:966
-0,123802	-3,744235	3,094361	2020-10-29T19:39:55:984
-0,081223	-2,865235	2,409403	2020-10-29T19:39:56:008
-0,171141	-1,980149	1,916036	2020-10-29T19:39:56:023
-0,147524	-1,294144	1,493856	2020-10-29T19:39:56:047
-0,217605	-0,950757	1,283296	2020-10-29T19:39:56:063
-0,235931	-0,896686	1,134701	2020-10-29T19:39:56:087
-0,230139	-0,683672	0,904324	2020-10-29T19:39:56:104
-0,140472	-0,488143	0,603673	2020-10-29T19:39:56:126
0,158010	-0,494102	0,283770	2020-10-29T19:39:56:143
0,374868	-0,568094	0,224257	2020-10-29T19:39:56:168
0,487075	-0,762630	0,329412	2020-10-29T19:39:56:183
0,386279	-1,121106	0,359593	2020-10-29T19:39:56:206
0,381438	-1,433930	0,106105	2020-10-29T19:39:56:223
0,596244	-1,274989	-0,192206	2020-10-29T19:39:56:248
0,646223	-1,272310	-0,476845	2020-10-29T19:39:56:263
-0,091991	-1,218770	-0,822812	2020-10-29T19:39:56:288
-1,417911	-1,366924	-0,917020	2020-10-29T19:39:56:303
-2,024936	-1,351350	-0,881073	2020-10-29T19:39:56:327
-1,051170	-1,289164	-0,979736	2020-10-29T19:39:56:343
0,487569	-1,320419	-1,115383	2020-10-29T19:39:56:366
0,912621	-1,479614	-1,144556	2020-10-29T19:39:56:383
0,503982	-1,406328	-1,013342	2020-10-29T19:39:56:408
0,077843	-1,180289	-0,788684	2020-10-29T19:39:56:424
-0,215457	-1,108612	-0,897080	2020-10-29T19:39:56:447
-0,597684	-1,182421	-0,995017	2020-10-29T19:39:56:463
-0,978999	-1,126063	-1,096164	2020-10-29T19:39:56:488
-0,798759	-0,629095	-1,235508	2020-10-29T19:39:56:504
-0,830018	-0,207564	-1,275200	2020-10-29T19:39:56:527
-0,860994	0,274897	-1,493686	2020-10-29T19:39:56:544
-0,916965	0,669503	-1,611210	2020-10-29T19:39:56:567
-1,159532	1,087869	-1,788056	2020-10-29T19:39:56:584
-1,212482	1,244222	-1,906454	2020-10-29T19:39:56:607
-1,116764	1,260315	-2,019876	2020-10-29T19:39:56:624
-1,009754	1,190660	-2,031196	2020-10-29T19:39:56:647
-1,117492	1,214421	-1,972463	2020-10-29T19:39:56:663
-1,376184	1,207459	-1,557058	2020-10-29T19:39:56:687
-1,182912	1,333365	-1,176947	2020-10-29T19:39:56:704
-0,937937	1,503055	-1,073282	2020-10-29T19:39:56:728
-0,775891	1,717548	-1,148108	2020-10-29T19:39:56:743
-0,654982	1,916861	-0,634920	2020-10-29T19:39:56:768
-0,708292	2,204357	0,092658	2020-10-29T19:39:56:784
-0,750370	2,681902	-0,401330	2020-10-29T19:39:56:808
-0,660355	3,039116	-1,001415	2020-10-29T19:39:56:824
-0,556354	3,112528	-1,133251	2020-10-29T19:39:56:847
-0,776870	3,093831	-1,089593	2020-10-29T19:39:56:864
0,070703	-0,001809	-0,027334	2020-10-29T19:39:56:889
0,135307	0,278152	-0,034512	2020-10-29T19:39:56:904
0,684931	0,662061	2,035827	2020-10-29T19:39:56:927
0,895590	0,558754	2,032587	2020-10-29T19:39:56:944
1,093780	0,263572	1,998186	2020-10-29T19:39:56:968
1,278882	0,009293	1,810946	2020-10-29T19:39:56:984
0,792226	0,032133	-0,298697	2020-10-29T19:39:57:009
0,696512	-0,396183	-0,401588	2020-10-29T19:39:57:024
1,214058	-1,196370	2,184369	2020-10-29T19:39:57:049
1,091164	-1,457306	2,284344	2020-10-29T19:39:57:070
1,127592	-1,809563	2,335581	2020-10-29T19:39:57:087
1,208279	-2,222533	2,250976	2020-10-29T19:39:57:105
1,578181	-2,419777	2,028089	2020-10-29T19:39:57:128
1,692619	-2,639044	2,091753	2020-10-29T19:39:57:144
1,682001	-2,666675	1,965841	2020-10-29T19:39:57:167
1,670256	-2,603863	1,961287	2020-10-29T19:39:57:184
1,431116	-2,466377	2,113297	2020-10-29T19:39:57:208
1,036660	-2,396780	2,317837	2020-10-29T19:39:57:224
0,868663	-2,188977	2,202415	2020-10-29T19:39:57:249
-0,925256	-1,944427	1,903406	2020-10-29T19:39:57:264
-3,800570	-0,462406	0,707209	2020-10-29T19:39:57:289
-3,984818	-0,713652	1,264737	2020-10-29T19:39:57:304
-3,080132	-1,459065	3,067962	2020-10-29T19:39:57:327
-1,902984	-1,989212	3,823245	2020-10-29T19:39:57:344
-0,103947	-2,408124	3,949048	2020-10-29T19:39:57:375
1,402958	-2,468055	3,807814	2020-10-29T19:39:57:396
0,854596	0,292721	-0,397972	2020-10-29T19:39:57:409
0,462173	0,563110	-0,448222	2020-10-29T19:39:57:424
-0,618236	0,186789	-0,070585	2020-10-29T19:39:57:448
-2,033908	0,030071	-0,130190	2020-10-29T19:39:57:464
-2,794433	0,160283	-0,525771	2020-10-29T19:39:57:491
-2,934474	0,454209	-1,057913	2020-10-29T19:39:57:505
-2,698918	0,624979	-1,535939	2020-10-29T19:39:57:528
-2,205145	0,803047	-1,818094	2020-10-29T19:39:57:545
-1,798688	0,936732	-1,933234	2020-10-29T19:39:57:568
-1,477890	1,085881	-2,103406	2020-10-29T19:39:57:585
-1,322318	1,021228	-2,216520	2020-10-29T19:39:57:609
-1,253989	0,768832	-2,441327	2020-10-29T19:39:57:624
-1,296591	0,539452	-2,730031	2020-10-29T19:39:57:648
-1,304234	0,431970	-3,003472	2020-10-29T19:39:57:665
-1,373309	0,383373	-3,093443	2020-10-29T19:39:57:689
-1,404134	0,429454	-3,209361	2020-10-29T19:39:57:705
-1,511683	0,622682	-3,215663	2020-10-29T19:39:57:729
-1,371587	0,772892	-3,163972	2020-10-29T19:39:57:744
-0,832051	0,989998	-2,962486	2020-10-29T19:39:57:769
-0,688770	1,162828	-2,858726	2020-10-29T19:39:57:785
-0,682153	1,384255	-2,927196	2020-10-29T19:39:57:808
-0,680225	1,546068	-3,106724	2020-10-29T19:39:57:824
-0,519722	1,467070	-3,116166	2020-10-29T19:39:57:849
-0,270923	1,532480	-3,006323	2020-10-29T19:39:57:865
0,999515	0,210912	-0,132557	2020-10-29T19:39:57:889
1,162226	0,186984	0,066047	2020-10-29T19:39:57:905
1,095489	0,237822	-0,196666	2020-10-29T19:39:57:929
1,006953	0,252179	-0,134453	2020-10-29T19:39:57:945
0,724100	0,446051	-0,077450	2020-10-29T19:39:57:969
0,680582	0,511290	0,131898	2020-10-29T19:39:57:985
0,532888	0,627277	0,266550	2020-10-29T19:39:58:009
0,445697	0,756364	0,401009	2020-10-29T19:39:58:025
-0,067554	-0,007761	0,012756	2020-10-29T19:39:58:049
-1,601353	-0,072367	0,445857	2020-10-29T19:39:58:065
-1,704537	-0,351439	1,494297	2020-10-29T19:39:58:089
-1,358118	-0,071371	1,291764	2020-10-29T19:39:58:105
-1,255562	0,458297	1,483250	2020-10-29T19:39:58:129
-0,209161	0,077869	2,011316	2020-10-29T19:39:58:145
0,744020	0,016546	2,363478	2020-10-29T19:39:58:169
1,529355	-0,158070	2,606318	2020-10-29T19:39:58:185
2,119471	-0,574164	2,799919	2020-10-29T19:39:58:210
2,611332	-0,961857	2,506353	2020-10-29T19:39:58:225
2,105503	-0,431823	1,585356	2020-10-29T19:39:58:250
1,089084	0,259352	0,889829	2020-10-29T19:39:58:265
-0,139235	0,318102	0,642781	2020-10-29T19:39:58:289
-1,336081	0,409040	0,465676	2020-10-29T19:39:58:305
-1,897996	0,756904	0,137274	2020-10-29T19:39:58:329
-2,001430	0,896248	-0,409044	2020-10-29T19:39:58:345
-0,801041	0,545490	-0,416466	2020-10-29T19:39:58:369
0,190929	-0,348284	-0,038175	2020-10-29T19:39:58:386
0,916452	-1,120059	0,354330	2020-10-29T19:39:58:410
1,441102	-1,729857	0,688148	2020-10-29T19:39:58:425
1,417252	-2,536983	0,748966	2020-10-29T19:39:58:449
1,048627	-2,922383	0,719867	2020-10-29T19:39:58:466
0,678702	-2,492994	0,452244	2020-10-29T19:39:58:490
