v1	v2	v3	v4	ts
0,000000	0,000000	0,000000	0,000000	2020-10-29T19:38:42:557
0,000000	0,000000	0,000000	0,000000	2020-10-29T19:38:42:582
0,000000	0,000000	0,000000	0,000000	2020-10-29T19:38:42:622
0,000000	0,000000	0,000000	0,000000	2020-10-29T19:38:42:661
0,000000	0,000000	0,000000	0,000000	2020-10-29T19:38:42:702
0,000000	0,000000	0,000000	0,000000	2020-10-29T19:38:42:741
0,000000	0,000000	0,000000	0,000000	2020-10-29T19:38:42:782
0,000000	0,000000	0,000000	0,000000	2020-10-29T19:38:42:822
0,000000	0,000000	0,000000	0,000000	2020-10-29T19:38:42:861
0,000000	0,000000	0,000000	0,000000	2020-10-29T19:38:42:902
0,000000	0,000000	0,000000	0,000000	2020-10-29T19:38:42:943
0,000000	0,000000	0,000000	0,000000	2020-10-29T19:38:42:983
0,000000	0,000000	0,000000	0,000000	2020-10-29T19:38:43:022
0,000000	0,000000	0,000000	0,000000	2020-10-29T19:38:43:063
0,000000	0,000000	0,000000	0,000000	2020-10-29T19:38:43:104
0,000000	0,000000	0,000000	0,000000	2020-10-29T19:38:43:143
0,000000	0,000000	0,000000	0,000000	2020-10-29T19:38:43:184
0,000000	0,000000	0,000000	0,000000	2020-10-29T19:38:43:289
0,000000	0,000000	0,000000	0,000000	2020-10-29T19:38:43:291
0,000000	0,000000	0,000000	0,000000	2020-10-29T19:38:43:365
0,000000	0,000000	0,000000	0,000000	2020-10-29T19:38:43:366
0,000000	0,000000	0,000000	0,000000	2020-10-29T19:38:43:383
0,000000	0,000000	0,000000	0,000000	2020-10-29T19:38:43:424
0,000000	0,000000	0,000000	0,000000	2020-10-29T19:38:43:462
0,000000	0,000000	0,000000	0,000000	2020-10-29T19:38:43:504
0,000000	0,000000	0,000000	0,000000	2020-10-29T19:38:43:548
0,000000	0,000000	0,000000	0,000000	2020-10-29T19:38:43:584
0,000000	0,000000	0,000000	0,000000	2020-10-29T19:38:43:624
0,000000	0,000000	0,000000	0,000000	2020-10-29T19:38:43:668
0,000000	0,000000	0,000000	0,000000	2020-10-29T19:38:43:704
0,000000	0,000000	0,000000	0,000000	2020-10-29T19:38:43:744
0,000000	0,000000	0,000000	0,000000	2020-10-29T19:38:43:787
0,000000	0,000000	0,000000	0,000000	2020-10-29T19:38:43:827
0,000000	0,000000	0,000000	0,000000	2020-10-29T19:38:43:865
0,000000	0,000000	0,000000	0,000000	2020-10-29T19:38:43:910
0,000000	0,000000	0,000000	0,000000	2020-10-29T19:38:43:945
0,000000	0,000000	0,000000	0,000000	2020-10-29T19:38:43:987
0,000000	0,000000	0,000000	0,000000	2020-10-29T19:38:44:027
0,000000	0,000000	0,000000	0,000000	2020-10-29T19:38:44:067
0,000000	0,000000	0,000000	0,000000	2020-10-29T19:38:44:107
0,000000	0,000000	0,000000	0,000000	2020-10-29T19:38:44:151
0,000000	0,000000	0,000000	0,000000	2020-10-29T19:38:44:193
0,000000	0,000000	0,000000	0,000000	2020-10-29T19:38:52:126
0,000000	0,000000	0,000000	0,000000	2020-10-29T19:38:52:146
0,000000	0,000000	0,000000	0,000000	2020-10-29T19:38:52:181
0,000000	0,000000	0,000000	0,000000	2020-10-29T19:38:52:247
0,000000	0,000000	0,000000	0,000000	2020-10-29T19:38:52:263
0,000000	0,000000	0,000000	0,000000	2020-10-29T19:38:52:296
0,000000	0,000000	0,000000	0,000000	2020-10-29T19:38:52:340
0,000000	0,000000	0,000000	0,000000	2020-10-29T19:38:52:380
0,000000	0,000000	0,000000	0,000000	2020-10-29T19:38:52:904
0,000000	0,000000	0,000000	0,000000	2020-10-29T19:38:52:939
0,000000	0,000000	0,000000	0,000000	2020-10-29T19:38:52:980
0,000000	0,000000	0,000000	0,000000	2020-10-29T19:38:53:019
0,000000	0,000000	0,000000	0,000000	2020-10-29T19:38:53:062
0,000000	0,000000	0,000000	0,000000	2020-10-29T19:38:53:098
0,000000	0,000000	0,000000	0,000000	2020-10-29T19:38:53:139
0,000000	0,000000	0,000000	0,000000	2020-10-29T19:38:53:178
0,000000	0,000000	0,000000	0,000000	2020-10-29T19:38:53:220
0,000000	0,000000	0,000000	0,000000	2020-10-29T19:38:53:259
0,000000	0,000000	0,000000	0,000000	2020-10-29T19:38:53:301
0,000000	0,000000	0,000000	0,000000	2020-10-29T19:38:53:339
0,000000	0,000000	0,000000	0,000000	2020-10-29T19:38:53:380
0,000000	0,000000	0,000000	0,000000	2020-10-29T19:38:53:419
0,000000	0,000000	0,000000	0,000000	2020-10-29T19:38:53:461
0,000000	0,000000	0,000000	0,000000	2020-10-29T19:38:53:499
0,000000	0,000000	0,000000	0,000000	2020-10-29T19:38:53:542
0,000000	0,000000	0,000000	0,000000	2020-10-29T19:38:53:579
0,000000	0,000000	0,000000	0,000000	2020-10-29T19:38:53:620
0,000000	0,000000	0,000000	0,000000	2020-10-29T19:38:53:660
0,000000	0,000000	0,000000	0,000000	2020-10-29T19:38:53:700
0,000000	0,000000	0,000000	0,000000	2020-10-29T19:38:53:739
0,000000	0,000000	0,000000	0,000000	2020-10-29T19:38:53:782
0,000000	0,000000	0,000000	0,000000	2020-10-29T19:38:53:819
0,000000	0,000000	0,000000	0,000000	2020-10-29T19:38:53:861
0,000000	0,000000	0,000000	0,000000	2020-10-29T19:38:53:899
0,000000	0,000000	0,000000	0,000000	2020-10-29T19:38:53:940
0,000000	0,000000	0,000000	0,000000	2020-10-29T19:38:53:980
0,000000	0,000000	0,000000	0,000000	2020-10-29T19:38:54:022
0,000000	0,000000	0,000000	0,000000	2020-10-29T19:38:54:060
0,000000	0,000000	0,000000	0,000000	2020-10-29T19:38:54:100
0,000000	0,000000	0,000000	0,000000	2020-10-29T19:38:54:140
0,000000	0,000000	0,000000	0,000000	2020-10-29T19:38:54:181
0,000000	0,000000	0,000000	0,000000	2020-10-29T19:38:54:220
0,000000	0,000000	0,000000	0,000000	2020-10-29T19:38:54:262
0,000000	0,000000	0,000000	0,000000	2020-10-29T19:38:54:300
0,000000	0,000000	0,000000	0,000000	2020-10-29T19:38:54:341
0,000000	0,000000	0,000000	0,000000	2020-10-29T19:38:54:380
0,000000	0,000000	0,000000	0,000000	2020-10-29T19:38:54:421
0,000000	0,000000	0,000000	0,000000	2020-10-29T19:38:54:460
0,000000	0,000000	0,000000	0,000000	2020-10-29T19:38:54:503
0,000000	0,000000	0,000000	0,000000	2020-10-29T19:38:54:540
0,000000	0,000000	0,000000	0,000000	2020-10-29T19:38:54:581
0,000000	0,000000	0,000000	0,000000	2020-10-29T19:38:54:621
0,000000	0,000000	0,000000	0,000000	2020-10-29T19:38:54:661
0,000000	0,000000	0,000000	0,000000	2020-10-29T19:38:54:700
0,000000	0,000000	0,000000	0,000000	2020-10-29T19:38:54:744
0,000000	0,000000	0,000000	0,000000	2020-10-29T19:38:54:781
0,000000	0,000000	0,000000	0,000000	2020-10-29T19:38:54:820
0,000000	0,000000	0,000000	0,000000	2020-10-29T19:38:54:861
0,000000	0,000000	0,000000	0,000000	2020-10-29T19:38:54:901
0,000000	0,000000	0,000000	0,000000	2020-10-29T19:38:54:940
0,000000	0,000000	0,000000	0,000000	2020-10-29T19:38:54:983
0,000000	0,000000	0,000000	0,000000	2020-10-29T19:38:55:020
0,000000	0,000000	0,000000	0,000000	2020-10-29T19:38:55:062
0,000000	0,000000	0,000000	0,000000	2020-10-29T19:38:55:100
0,000000	0,000000	0,000000	0,000000	2020-10-29T19:38:55:141
0,000000	0,000000	0,000000	0,000000	2020-10-29T19:38:55:181
0,000000	0,000000	0,000000	0,000000	2020-10-29T19:38:55:223
0,000000	0,000000	0,000000	0,000000	2020-10-29T19:38:55:261
0,000000	0,000000	0,000000	0,000000	2020-10-29T19:38:55:302
0,000000	0,000000	0,000000	0,000000	2020-10-29T19:38:55:341
0,000000	0,000000	0,000000	0,000000	2020-10-29T19:38:55:382
0,000000	0,000000	0,000000	0,000000	2020-10-29T19:38:55:421
0,000000	0,000000	0,000000	0,000000	2020-10-29T19:38:55:464
0,000000	0,000000	0,000000	0,000000	2020-10-29T19:38:55:501
0,000000	0,000000	0,000000	0,000000	2020-10-29T19:38:55:542
0,000000	0,000000	0,000000	0,000000	2020-10-29T19:38:55:582
0,000000	0,000000	0,000000	0,000000	2020-10-29T19:38:55:622
0,000000	0,000000	0,000000	0,000000	2020-10-29T19:38:55:662
0,000000	0,000000	0,000000	0,000000	2020-10-29T19:38:55:704
0,000000	0,000000	0,000000	0,000000	2020-10-29T19:38:55:741
0,000000	0,000000	0,000000	0,000000	2020-10-29T19:38:55:783
0,000000	0,000000	0,000000	0,000000	2020-10-29T19:38:55:821
0,000000	0,000000	0,000000	0,000000	2020-10-29T19:38:55:863
0,000000	0,000000	0,000000	0,000000	2020-10-29T19:38:55:902
0,000000	0,000000	0,000000	0,000000	2020-10-29T19:38:55:943
0,000000	0,000000	0,000000	0,000000	2020-10-29T19:38:55:982
0,000000	0,000000	0,000000	0,000000	2020-10-29T19:38:56:023
0,000000	0,000000	0,000000	0,000000	2020-10-29T19:38:56:062
0,000000	0,000000	0,000000	0,000000	2020-10-29T19:38:56:103
0,000000	0,000000	0,000000	0,000000	2020-10-29T19:38:56:142
0,000000	0,000000	0,000000	0,000000	2020-10-29T19:38:56:184
0,000000	0,000000	0,000000	0,000000	2020-10-29T19:38:56:222
0,000000	0,000000	0,000000	0,000000	2020-10-29T19:38:56:264
0,000000	0,000000	0,000000	0,000000	2020-10-29T19:38:56:302
0,000000	0,000000	0,000000	0,000000	2020-10-29T19:38:56:343
0,000000	0,000000	0,000000	0,000000	2020-10-29T19:38:56:383
0,000000	0,000000	0,000000	0,000000	2020-10-29T19:38:56:424
0,000000	0,000000	0,000000	0,000000	2020-10-29T19:38:56:462
0,000000	0,000000	0,000000	0,000000	2020-10-29T19:38:56:503
0,000000	0,000000	0,000000	0,000000	2020-10-29T19:38:56:542
0,000000	0,000000	0,000000	0,000000	2020-10-29T19:38:56:583
0,000000	0,000000	0,000000	0,000000	2020-10-29T19:38:56:623
0,000000	0,000000	0,000000	0,000000	2020-10-29T19:38:56:665
0,000000	0,000000	0,000000	0,000000	2020-10-29T19:38:56:703
0,000000	0,000000	0,000000	0,000000	2020-10-29T19:38:56:743
0,000000	0,000000	0,000000	0,000000	2020-10-29T19:38:56:783
0,000000	0,000000	0,000000	0,000000	2020-10-29T19:38:56:824
0,000000	0,000000	0,000000	0,000000	2020-10-29T19:38:56:863
0,000000	0,000000	0,000000	0,000000	2020-10-29T19:38:56:905
0,000000	0,000000	0,000000	0,000000	2020-10-29T19:38:56:942
0,000000	0,000000	0,000000	0,000000	2020-10-29T19:38:56:983
0,000000	0,000000	0,000000	0,000000	2020-10-29T19:38:57:023
0,000000	0,000000	0,000000	0,000000	2020-10-29T19:38:57:064
0,000000	0,000000	0,000000	0,000000	2020-10-29T19:38:57:103
0,000000	0,000000	0,000000	0,000000	2020-10-29T19:38:57:145
0,000000	0,000000	0,000000	0,000000	2020-10-29T19:38:57:182
0,000000	0,000000	0,000000	0,000000	2020-10-29T19:38:57:224
0,000000	0,000000	0,000000	0,000000	2020-10-29T19:38:57:263
0,000000	0,000000	0,000000	0,000000	2020-10-29T19:38:57:304
0,000000	0,000000	0,000000	0,000000	2020-10-29T19:38:57:343
0,000000	0,000000	0,000000	0,000000	2020-10-29T19:38:57:384
0,000000	0,000000	0,000000	0,000000	2020-10-29T19:38:57:423
0,000000	0,000000	0,000000	0,000000	2020-10-29T19:38:57:464
0,000000	0,000000	0,000000	0,000000	2020-10-29T19:38:57:503
0,000000	0,000000	0,000000	0,000000	2020-10-29T19:38:57:544
0,000000	0,000000	0,000000	0,000000	2020-10-29T19:38:57:584
0,000000	0,000000	0,000000	0,000000	2020-10-29T19:38:57:626
0,000000	0,000000	0,000000	0,000000	2020-10-29T19:38:57:662
0,000000	0,000000	0,000000	0,000000	2020-10-29T19:38:57:704
0,000000	0,000000	0,000000	0,000000	2020-10-29T19:38:57:743
0,000000	0,000000	0,000000	0,000000	2020-10-29T19:38:57:785
0,000000	0,000000	0,000000	0,000000	2020-10-29T19:38:57:823
0,000000	0,000000	0,000000	0,000000	2020-10-29T19:38:57:866
0,000000	0,000000	0,000000	0,000000	2020-10-29T19:38:57:908
0,000000	0,000000	0,000000	0,000000	2020-10-29T19:38:57:944
0,000000	0,000000	0,000000	0,000000	2020-10-29T19:38:57:984
0,000000	0,000000	0,000000	0,000000	2020-10-29T19:38:58:024
0,000000	0,000000	0,000000	0,000000	2020-10-29T19:38:58:064
0,000000	0,000000	0,000000	0,000000	2020-10-29T19:38:58:107
0,000000	0,000000	0,000000	0,000000	2020-10-29T19:38:58:144
0,000000	0,000000	0,000000	0,000000	2020-10-29T19:38:58:185
0,000000	0,000000	0,000000	0,000000	2020-10-29T19:38:58:224
0,000000	0,000000	0,000000	0,000000	2020-10-29T19:38:58:265
0,000000	0,000000	0,000000	0,000000	2020-10-29T19:38:58:304
0,000000	0,000000	0,000000	0,000000	2020-10-29T19:38:58:346
0,000000	0,000000	0,000000	0,000000	2020-10-29T19:38:58:384
0,000000	0,000000	0,000000	0,000000	2020-10-29T19:38:58:425
0,000000	0,000000	0,000000	0,000000	2020-10-29T19:38:58:464
0,000000	0,000000	0,000000	0,000000	2020-10-29T19:38:58:505
0,000000	0,000000	0,000000	0,000000	2020-10-29T19:38:58:544
0,000000	0,000000	0,000000	0,000000	2020-10-29T19:38:58:588
0,000000	0,000000	0,000000	0,000000	2020-10-29T19:38:58:625
0,000000	0,000000	0,000000	0,000000	2020-10-29T19:38:58:666
0,000000	0,000000	0,000000	0,000000	2020-10-29T19:38:58:704
0,000000	0,000000	0,000000	0,000000	2020-10-29T19:38:58:745
0,000000	0,000000	0,000000	0,000000	2020-10-29T19:38:58:785
0,000000	0,000000	0,000000	0,000000	2020-10-29T19:38:58:827
0,000000	0,000000	0,000000	0,000000	2020-10-29T19:38:58:865
0,000000	0,000000	0,000000	0,000000	2020-10-29T19:38:58:905
0,000000	0,000000	0,000000	0,000000	2020-10-29T19:38:58:945
0,000000	0,000000	0,000000	0,000000	2020-10-29T19:38:58:986
0,000000	0,000000	0,000000	0,000000	2020-10-29T19:38:59:025
0,000000	0,000000	0,000000	0,000000	2020-10-29T19:38:59:068
0,000000	0,000000	0,000000	0,000000	2020-10-29T19:38:59:105
0,000000	0,000000	0,000000	0,000000	2020-10-29T19:38:59:146
0,000000	0,000000	0,000000	0,000000	2020-10-29T19:38:59:185
0,000000	0,000000	0,000000	0,000000	2020-10-29T19:38:59:226
0,000000	0,000000	0,000000	0,000000	2020-10-29T19:38:59:265
0,000000	0,000000	0,000000	0,000000	2020-10-29T19:38:59:308
0,000000	0,000000	0,000000	0,000000	2020-10-29T19:38:59:345
0,000000	0,000000	0,000000	0,000000	2020-10-29T19:38:59:386
0,000000	0,000000	0,000000	0,000000	2020-10-29T19:38:59:425
0,000000	0,000000	0,000000	0,000000	2020-10-29T19:38:59:466
0,000000	0,000000	0,000000	0,000000	2020-10-29T19:38:59:505
0,000000	0,000000	0,000000	0,000000	2020-10-29T19:38:59:548
0,000000	0,000000	0,000000	0,000000	2020-10-29T19:38:59:585
0,000000	0,000000	0,000000	0,000000	2020-10-29T19:38:59:627
0,000000	0,000000	0,000000	0,000000	2020-10-29T19:38:59:666
0,000000	0,000000	0,000000	0,000000	2020-10-29T19:38:59:705
0,000000	0,000000	0,000000	0,000000	2020-10-29T19:38:59:745
0,000000	0,000000	0,000000	0,000000	2020-10-29T19:38:59:789
0,000000	0,000000	0,000000	0,000000	2020-10-29T19:38:59:825
0,000000	0,000000	0,000000	0,000000	2020-10-29T19:38:59:867
0,000000	0,000000	0,000000	0,000000	2020-10-29T19:38:59:906
0,000000	0,000000	0,000000	0,000000	2020-10-29T19:38:59:946
0,000000	0,000000	0,000000	0,000000	2020-10-29T19:38:59:986
0,000000	0,000000	0,000000	0,000000	2020-10-29T19:39:00:027
0,000000	0,000000	0,000000	0,000000	2020-10-29T19:39:00:065
0,000000	0,000000	0,000000	0,000000	2020-10-29T19:39:00:106
0,000000	0,000000	0,000000	0,000000	2020-10-29T19:39:00:145
0,000000	0,000000	0,000000	0,000000	2020-10-29T19:39:00:187
0,000000	0,000000	0,000000	0,000000	2020-10-29T19:39:00:225
0,000000	0,000000	0,000000	0,000000	2020-10-29T19:39:00:269
0,000000	0,000000	0,000000	0,000000	2020-10-29T19:39:00:305
0,000000	0,000000	0,000000	0,000000	2020-10-29T19:39:00:346
0,000000	0,000000	0,000000	0,000000	2020-10-29T19:39:00:386
0,000000	0,000000	0,000000	0,000000	2020-10-29T19:39:00:426
0,000000	0,000000	0,000000	0,000000	2020-10-29T19:39:00:468
0,000000	0,000000	0,000000	0,000000	2020-10-29T19:39:00:508
0,000000	0,000000	0,000000	0,000000	2020-10-29T19:39:00:545
0,000000	0,000000	0,000000	0,000000	2020-10-29T19:39:00:588
0,000000	0,000000	0,000000	0,000000	2020-10-29T19:39:00:627
0,000000	0,000000	0,000000	0,000000	2020-10-29T19:39:00:668
0,000000	0,000000	0,000000	0,000000	2020-10-29T19:39:00:707
0,000000	0,000000	0,000000	0,000000	2020-10-29T19:39:00:749
0,000000	0,000000	0,000000	0,000000	2020-10-29T19:39:00:787
0,000000	0,000000	0,000000	0,000000	2020-10-29T19:39:00:827
0,000000	0,000000	0,000000	0,000000	2020-10-29T19:39:00:867
0,000000	0,000000	0,000000	0,000000	2020-10-29T19:39:00:906
0,000000	0,000000	0,000000	0,000000	2020-10-29T19:39:00:946
0,000000	0,000000	0,000000	0,000000	2020-10-29T19:39:00:988
0,000000	0,000000	0,000000	0,000000	2020-10-29T19:39:01:026
0,000000	0,000000	0,000000	0,000000	2020-10-29T19:39:01:067
0,000000	0,000000	0,000000	0,000000	2020-10-29T19:39:01:107
0,000000	0,000000	0,000000	0,000000	2020-10-29T19:39:01:148
0,000000	0,000000	0,000000	0,000000	2020-10-29T19:39:01:187
0,000000	0,000000	0,000000	0,000000	2020-10-29T19:39:01:229
0,000000	0,000000	0,000000	0,000000	2020-10-29T19:39:01:267
0,000000	0,000000	0,000000	0,000000	2020-10-29T19:39:01:308
0,000000	0,000000	0,000000	0,000000	2020-10-29T19:39:01:347
0,000000	0,000000	0,000000	0,000000	2020-10-29T19:39:01:388
0,000000	0,000000	0,000000	0,000000	2020-10-29T19:39:01:427
0,000000	0,000000	0,000000	0,000000	2020-10-29T19:39:01:470
0,000000	0,000000	0,000000	0,000000	2020-10-29T19:39:01:507
0,000000	0,000000	0,000000	0,000000	2020-10-29T19:39:01:548
0,000000	0,000000	0,000000	0,000000	2020-10-29T19:39:01:587
0,000000	0,000000	0,000000	0,000000	2020-10-29T19:39:01:628
0,000000	0,000000	0,000000	0,000000	2020-10-29T19:39:01:667
0,000000	0,000000	0,000000	0,000000	2020-10-29T19:39:01:710
0,000000	0,000000	0,000000	0,000000	2020-10-29T19:39:01:747
0,000000	0,000000	0,000000	0,000000	2020-10-29T19:39:01:788
0,000000	0,000000	0,000000	0,000000	2020-10-29T19:39:01:827
0,000000	0,000000	0,000000	0,000000	2020-10-29T19:39:01:868
0,000000	0,000000	0,000000	0,000000	2020-10-29T19:39:01:906
0,000000	0,000000	0,000000	0,000000	2020-10-29T19:39:01:950
0,000000	0,000000	0,000000	0,000000	2020-10-29T19:39:01:987
0,000000	0,000000	0,000000	0,000000	2020-10-29T19:39:02:028
0,000000	0,000000	0,000000	0,000000	2020-10-29T19:39:02:068
0,000000	0,000000	0,000000	0,000000	2020-10-29T19:39:02:108
0,000000	0,000000	0,000000	0,000000	2020-10-29T19:39:02:147
0,000000	0,000000	0,000000	0,000000	2020-10-29T19:39:02:190
0,000000	0,000000	0,000000	0,000000	2020-10-29T19:39:02:227
0,000000	0,000000	0,000000	0,000000	2020-10-29T19:39:02:269
0,000000	0,000000	0,000000	0,000000	2020-10-29T19:39:02:308
0,000000	0,000000	0,000000	0,000000	2020-10-29T19:39:02:349
0,000000	0,000000	0,000000	0,000000	2020-10-29T19:39:02:387
0,000000	0,000000	0,000000	0,000000	2020-10-29T19:39:02:429
0,000000	0,000000	0,000000	0,000000	2020-10-29T19:39:02:468
0,000000	0,000000	0,000000	0,000000	2020-10-29T19:39:02:509
0,000000	0,000000	0,000000	0,000000	2020-10-29T19:39:02:548
0,000000	0,000000	0,000000	0,000000	2020-10-29T19:39:02:589
0,000000	0,000000	0,000000	0,000000	2020-10-29T19:39:02:628
0,000000	0,000000	0,000000	0,000000	2020-10-29T19:39:02:671
0,000000	0,000000	0,000000	0,000000	2020-10-29T19:39:02:708
0,000000	0,000000	0,000000	0,000000	2020-10-29T19:39:02:749
0,000000	0,000000	0,000000	0,000000	2020-10-29T19:39:02:789
0,000000	0,000000	0,000000	0,000000	2020-10-29T19:39:02:829
0,000000	0,000000	0,000000	0,000000	2020-10-29T19:39:02:868
0,000000	0,000000	0,000000	0,000000	2020-10-29T19:39:02:916
0,000000	0,000000	0,000000	0,000000	2020-10-29T19:39:02:952
0,000000	0,000000	0,000000	0,000000	2020-10-29T19:39:02:989
0,000000	0,000000	0,000000	0,000000	2020-10-29T19:39:03:028
0,000000	0,000000	0,000000	0,000000	2020-10-29T19:39:03:070
0,000000	0,000000	0,000000	0,000000	2020-10-29T19:39:03:109
0,000000	0,000000	0,000000	0,000000	2020-10-29T19:39:03:151
0,000000	0,000000	0,000000	0,000000	2020-10-29T19:39:03:189
0,000000	0,000000	0,000000	0,000000	2020-10-29T19:39:03:229
0,000000	0,000000	0,000000	0,000000	2020-10-29T19:39:03:269
0,000000	0,000000	0,000000	0,000000	2020-10-29T19:39:03:309
0,000000	0,000000	0,000000	0,000000	2020-10-29T19:39:03:349
0,000000	0,000000	0,000000	0,000000	2020-10-29T19:39:03:391
0,000000	0,000000	0,000000	0,000000	2020-10-29T19:39:03:429
0,000000	0,000000	0,000000	0,000000	2020-10-29T19:39:03:470
0,000000	0,000000	0,000000	0,000000	2020-10-29T19:39:03:509
0,000000	0,000000	0,000000	0,000000	2020-10-29T19:39:03:549
0,000000	0,000000	0,000000	0,000000	2020-10-29T19:39:03:589
0,000000	0,000000	0,000000	0,000000	2020-10-29T19:39:03:631
0,000000	0,000000	0,000000	0,000000	2020-10-29T19:39:03:669
0,000000	0,000000	0,000000	0,000000	2020-10-29T19:39:03:710
0,000000	0,000000	0,000000	0,000000	2020-10-29T19:39:03:749
0,000000	0,000000	0,000000	0,000000	2020-10-29T19:39:03:790
0,000000	0,000000	0,000000	0,000000	2020-10-29T19:39:03:829
0,000000	0,000000	0,000000	0,000000	2020-10-29T19:39:03:872
0,000000	0,000000	0,000000	0,000000	2020-10-29T19:39:03:909
0,000000	0,000000	0,000000	0,000000	2020-10-29T19:39:03:950
0,000000	0,000000	0,000000	0,000000	2020-10-29T19:39:03:989
0,000000	0,000000	0,000000	0,000000	2020-10-29T19:39:04:031
0,000000	0,000000	0,000000	0,000000	2020-10-29T19:39:04:071
0,000000	0,000000	0,000000	0,000000	2020-10-29T19:39:04:113
0,000000	0,000000	0,000000	0,000000	2020-10-29T19:39:04:236
0,000000	0,000000	0,000000	0,000000	2020-10-29T19:39:04:240
0,000000	0,000000	0,000000	0,000000	2020-10-29T19:39:04:284
0,000000	0,000000	0,000000	0,000000	2020-10-29T19:39:04:285
0,000000	0,000000	0,000000	0,000000	2020-10-29T19:39:04:352
0,000000	0,000000	0,000000	0,000000	2020-10-29T19:39:04:354
0,000000	0,000000	0,000000	0,000000	2020-10-29T19:39:04:388
0,000000	0,000000	0,000000	0,000000	2020-10-29T19:39:04:430
0,000000	0,000000	0,000000	0,000000	2020-10-29T19:39:04:470
0,000000	0,000000	0,000000	0,000000	2020-10-29T19:39:04:511
0,000000	0,000000	0,000000	0,000000	2020-10-29T19:39:04:551
0,000000	0,000000	0,000000	0,000000	2020-10-29T19:39:04:592
0,000000	0,000000	0,000000	0,000000	2020-10-29T19:39:04:630
0,000000	0,000000	0,000000	0,000000	2020-10-29T19:39:04:674
0,000000	0,000000	0,000000	0,000000	2020-10-29T19:39:04:710
0,000000	0,000000	0,000000	0,000000	2020-10-29T19:39:04:751
0,000000	0,000000	0,000000	0,000000	2020-10-29T19:39:04:790
0,000000	0,000000	0,000000	0,000000	2020-10-29T19:39:04:833
0,000000	0,000000	0,000000	0,000000	2020-10-29T19:39:04:869
0,000000	0,000000	0,000000	0,000000	2020-10-29T19:39:04:911
0,000000	0,000000	0,000000	0,000000	2020-10-29T19:39:04:949
0,000000	0,000000	0,000000	0,000000	2020-10-29T19:39:05:002
94,000000	0,000000	721,000000	0,000000	2020-10-29T19:39:27:126
94,000000	0,000000	721,000000	0,000000	2020-10-29T19:39:27:141
94,000000	0,000000	721,000000	0,000000	2020-10-29T19:39:27:193
94,000000	0,000000	721,000000	0,000000	2020-10-29T19:39:27:218
94,000000	0,000000	721,000000	0,000000	2020-10-29T19:39:27:258
94,000000	0,000000	721,000000	0,000000	2020-10-29T19:39:27:299
94,000000	0,000000	721,000000	0,000000	2020-10-29T19:39:27:340
94,000000	0,000000	721,000000	0,000000	2020-10-29T19:39:27:379
94,000000	0,000000	721,000000	0,000000	2020-10-29T19:39:27:419
95,000000	0,000000	721,000000	0,000000	2020-10-29T19:39:27:460
95,000000	0,000000	721,000000	0,000000	2020-10-29T19:39:27:499
95,000000	0,000000	721,000000	0,000000	2020-10-29T19:39:27:538
94,000000	0,000000	721,000000	0,000000	2020-10-29T19:39:27:579
94,000000	0,000000	656,000000	0,000000	2020-10-29T19:39:27:618
95,000000	0,000000	656,000000	0,000000	2020-10-29T19:39:27:660
94,000000	0,000000	656,000000	0,000000	2020-10-29T19:39:27:700
94,000000	0,000000	656,000000	0,000000	2020-10-29T19:39:27:739
94,000000	0,000000	656,000000	0,000000	2020-10-29T19:39:27:779
95,000000	0,000000	656,000000	0,000000	2020-10-29T19:39:27:820
95,000000	0,000000	656,000000	0,000000	2020-10-29T19:39:27:859
94,000000	0,000000	656,000000	0,000000	2020-10-29T19:39:27:900
94,000000	0,000000	656,000000	0,000000	2020-10-29T19:39:27:940
95,000000	0,000000	656,000000	0,000000	2020-10-29T19:39:27:980
94,000000	0,000000	656,000000	0,000000	2020-10-29T19:39:28:019
95,000000	0,000000	656,000000	0,000000	2020-10-29T19:39:28:059
95,000000	0,000000	656,000000	0,000000	2020-10-29T19:39:28:099
95,000000	0,000000	656,000000	0,000000	2020-10-29T19:39:28:140
95,000000	0,000000	656,000000	0,000000	2020-10-29T19:39:28:181
95,000000	0,000000	656,000000	0,000000	2020-10-29T19:39:28:220
95,000000	0,000000	656,000000	0,000000	2020-10-29T19:39:28:259
95,000000	0,000000	656,000000	0,000000	2020-10-29T19:39:28:299
95,000000	0,000000	656,000000	0,000000	2020-10-29T19:39:28:338
95,000000	0,000000	656,000000	0,000000	2020-10-29T19:39:28:381
95,000000	0,000000	656,000000	0,000000	2020-10-29T19:39:28:421
95,000000	0,000000	656,000000	0,000000	2020-10-29T19:39:28:461
95,000000	0,000000	656,000000	0,000000	2020-10-29T19:39:28:499
95,000000	0,000000	656,000000	0,000000	2020-10-29T19:39:28:540
95,000000	0,000000	656,000000	0,000000	2020-10-29T19:39:28:580
95,000000	0,000000	656,000000	0,000000	2020-10-29T19:39:28:620
95,000000	0,000000	656,000000	0,000000	2020-10-29T19:39:28:660
95,000000	0,000000	656,000000	0,000000	2020-10-29T19:39:28:700
95,000000	0,000000	656,000000	0,000000	2020-10-29T19:39:28:739
95,000000	0,000000	656,000000	0,000000	2020-10-29T19:39:28:780
95,000000	0,000000	656,000000	0,000000	2020-10-29T19:39:28:819
95,000000	0,000000	656,000000	0,000000	2020-10-29T19:39:28:860
95,000000	0,000000	656,000000	0,000000	2020-10-29T19:39:28:900
95,000000	0,000000	656,000000	0,000000	2020-10-29T19:39:28:941
95,000000	0,000000	656,000000	0,000000	2020-10-29T19:39:28:980
95,000000	0,000000	620,000000	0,000000	2020-10-29T19:39:29:021
95,000000	0,000000	620,000000	0,000000	2020-10-29T19:39:29:060
95,000000	0,000000	620,000000	0,000000	2020-10-29T19:39:29:101
95,000000	0,000000	620,000000	0,000000	2020-10-29T19:39:29:141
95,000000	0,000000	620,000000	0,000000	2020-10-29T19:39:29:181
95,000000	0,000000	620,000000	0,000000	2020-10-29T19:39:29:220
95,000000	0,000000	620,000000	0,000000	2020-10-29T19:39:29:261
95,000000	0,000000	620,000000	0,000000	2020-10-29T19:39:29:300
95,000000	0,000000	620,000000	0,000000	2020-10-29T19:39:29:341
95,000000	0,000000	620,000000	0,000000	2020-10-29T19:39:29:382
95,000000	0,000000	620,000000	0,000000	2020-10-29T19:39:29:421
95,000000	0,000000	620,000000	0,000000	2020-10-29T19:39:29:460
95,000000	0,000000	620,000000	0,000000	2020-10-29T19:39:29:501
95,000000	0,000000	620,000000	0,000000	2020-10-29T19:39:29:540
95,000000	0,000000	620,000000	0,000000	2020-10-29T19:39:29:582
95,000000	0,000000	620,000000	0,000000	2020-10-29T19:39:29:622
95,000000	0,000000	620,000000	0,000000	2020-10-29T19:39:29:662
95,000000	0,000000	620,000000	0,000000	2020-10-29T19:39:29:699
95,000000	0,000000	620,000000	0,000000	2020-10-29T19:39:29:741
95,000000	0,000000	620,000000	0,000000	2020-10-29T19:39:29:780
95,000000	0,000000	620,000000	0,000000	2020-10-29T19:39:29:821
95,000000	0,000000	620,000000	0,000000	2020-10-29T19:39:29:862
95,000000	0,000000	620,000000	0,000000	2020-10-29T19:39:29:912
95,000000	0,000000	620,000000	0,000000	2020-10-29T19:39:29:941
95,000000	0,000000	620,000000	0,000000	2020-10-29T19:39:29:982
95,000000	0,000000	620,000000	0,000000	2020-10-29T19:39:30:021
95,000000	0,000000	620,000000	0,000000	2020-10-29T19:39:30:062
95,000000	0,000000	620,000000	0,000000	2020-10-29T19:39:30:102
95,000000	0,000000	620,000000	0,000000	2020-10-29T19:39:30:142
95,000000	0,000000	620,000000	0,000000	2020-10-29T19:39:30:181
95,000000	0,000000	620,000000	0,000000	2020-10-29T19:39:30:222
95,000000	0,000000	620,000000	0,000000	2020-10-29T19:39:30:261
95,000000	0,000000	620,000000	0,000000	2020-10-29T19:39:30:302
95,000000	0,000000	620,000000	0,000000	2020-10-29T19:39:30:343
95,000000	0,000000	620,000000	0,000000	2020-10-29T19:39:30:383
95,000000	0,000000	620,000000	0,000000	2020-10-29T19:39:30:421
95,000000	0,000000	620,000000	0,000000	2020-10-29T19:39:30:463
95,000000	0,000000	620,000000	0,000000	2020-10-29T19:39:30:501
95,000000	0,000000	620,000000	0,000000	2020-10-29T19:39:30:542
95,000000	0,000000	620,000000	0,000000	2020-10-29T19:39:30:583
95,000000	0,000000	620,000000	0,000000	2020-10-29T19:39:30:622
95,000000	0,000000	620,000000	0,000000	2020-10-29T19:39:30:662
95,000000	0,000000	620,000000	0,000000	2020-10-29T19:39:30:702
95,000000	0,000000	620,000000	0,000000	2020-10-29T19:39:30:742
95,000000	0,000000	620,000000	0,000000	2020-10-29T19:39:30:783
95,000000	0,000000	620,000000	0,000000	2020-10-29T19:39:30:823
95,000000	0,000000	620,000000	0,000000	2020-10-29T19:39:30:862
95,000000	0,000000	620,000000	0,000000	2020-10-29T19:39:30:901
95,000000	0,000000	620,000000	0,000000	2020-10-29T19:39:30:943
95,000000	0,000000	620,000000	0,000000	2020-10-29T19:39:30:982
95,000000	0,000000	620,000000	0,000000	2020-10-29T19:39:31:023
95,000000	0,000000	620,000000	0,000000	2020-10-29T19:39:31:063
96,000000	0,000000	620,000000	0,000000	2020-10-29T19:39:31:103
96,000000	0,000000	620,000000	0,000000	2020-10-29T19:39:31:142
96,000000	0,000000	620,000000	0,000000	2020-10-29T19:39:31:183
95,000000	0,000000	620,000000	0,000000	2020-10-29T19:39:31:222
95,000000	0,000000	620,000000	0,000000	2020-10-29T19:39:31:264
96,000000	0,000000	620,000000	0,000000	2020-10-29T19:39:31:303
95,000000	0,000000	620,000000	0,000000	2020-10-29T19:39:31:343
95,000000	0,000000	620,000000	0,000000	2020-10-29T19:39:31:383
95,000000	0,000000	620,000000	0,000000	2020-10-29T19:39:31:423
96,000000	0,000000	620,000000	0,000000	2020-10-29T19:39:31:463
96,000000	0,000000	620,000000	0,000000	2020-10-29T19:39:31:503
96,000000	0,000000	620,000000	0,000000	2020-10-29T19:39:31:544
96,000000	0,000000	620,000000	0,000000	2020-10-29T19:39:31:584
96,000000	0,000000	620,000000	0,000000	2020-10-29T19:39:31:622
96,000000	0,000000	620,000000	0,000000	2020-10-29T19:39:31:664
96,000000	0,000000	620,000000	0,000000	2020-10-29T19:39:31:702
96,000000	0,000000	620,000000	0,000000	2020-10-29T19:39:31:743
96,000000	0,000000	620,000000	0,000000	2020-10-29T19:39:31:785
96,000000	0,000000	620,000000	0,000000	2020-10-29T19:39:31:824
96,000000	0,000000	620,000000	0,000000	2020-10-29T19:39:31:862
96,000000	0,000000	620,000000	0,000000	2020-10-29T19:39:31:903
96,000000	0,000000	620,000000	0,000000	2020-10-29T19:39:31:942
96,000000	0,000000	620,000000	0,000000	2020-10-29T19:39:31:984
96,000000	0,000000	693,000000	0,000000	2020-10-29T19:39:32:026
96,000000	0,000000	693,000000	0,000000	2020-10-29T19:39:32:063
96,000000	0,000000	693,000000	0,000000	2020-10-29T19:39:32:103
96,000000	0,000000	693,000000	0,000000	2020-10-29T19:39:32:148
96,000000	0,000000	693,000000	0,000000	2020-10-29T19:39:32:182
96,000000	0,000000	693,000000	0,000000	2020-10-29T19:39:32:224
96,000000	0,000000	693,000000	0,000000	2020-10-29T19:39:32:265
96,000000	0,000000	693,000000	0,000000	2020-10-29T19:39:32:304
96,000000	0,000000	693,000000	0,000000	2020-10-29T19:39:32:342
96,000000	0,000000	693,000000	0,000000	2020-10-29T19:39:32:385
96,000000	0,000000	693,000000	0,000000	2020-10-29T19:39:32:423
96,000000	0,000000	693,000000	0,000000	2020-10-29T19:39:32:465
96,000000	0,000000	693,000000	0,000000	2020-10-29T19:39:32:505
96,000000	0,000000	693,000000	0,000000	2020-10-29T19:39:32:545
96,000000	0,000000	693,000000	0,000000	2020-10-29T19:39:32:584
96,000000	0,000000	721,000000	0,000000	2020-10-29T19:39:32:625
96,000000	0,000000	721,000000	0,000000	2020-10-29T19:39:32:663
96,000000	0,000000	721,000000	0,000000	2020-10-29T19:39:32:705
96,000000	0,000000	721,000000	0,000000	2020-10-29T19:39:32:744
96,000000	0,000000	721,000000	0,000000	2020-10-29T19:39:32:785
96,000000	0,000000	721,000000	0,000000	2020-10-29T19:39:32:824
96,000000	0,000000	721,000000	0,000000	2020-10-29T19:39:32:865
96,000000	0,000000	721,000000	0,000000	2020-10-29T19:39:32:904
96,000000	0,000000	721,000000	0,000000	2020-10-29T19:39:32:945
96,000000	0,000000	721,000000	0,000000	2020-10-29T19:39:32:986
96,000000	0,000000	721,000000	0,000000	2020-10-29T19:39:33:025
96,000000	0,000000	721,000000	0,000000	2020-10-29T19:39:33:064
96,000000	0,000000	721,000000	0,000000	2020-10-29T19:39:33:105
96,000000	0,000000	721,000000	0,000000	2020-10-29T19:39:33:144
96,000000	0,000000	721,000000	0,000000	2020-10-29T19:39:33:185
96,000000	0,000000	721,000000	0,000000	2020-10-29T19:39:33:226
96,000000	0,000000	721,000000	0,000000	2020-10-29T19:39:33:265
96,000000	0,000000	721,000000	0,000000	2020-10-29T19:39:33:304
96,000000	0,000000	721,000000	0,000000	2020-10-29T19:39:33:345
96,000000	0,000000	721,000000	0,000000	2020-10-29T19:39:33:385
96,000000	0,000000	721,000000	0,000000	2020-10-29T19:39:33:425
96,000000	0,000000	721,000000	0,000000	2020-10-29T19:39:33:466
96,000000	0,000000	721,000000	0,000000	2020-10-29T19:39:33:505
96,000000	0,000000	721,000000	0,000000	2020-10-29T19:39:33:545
96,000000	0,000000	721,000000	0,000000	2020-10-29T19:39:33:586
96,000000	0,000000	721,000000	0,000000	2020-10-29T19:39:33:623
96,000000	0,000000	721,000000	0,000000	2020-10-29T19:39:33:666
96,000000	0,000000	721,000000	0,000000	2020-10-29T19:39:33:707
96,000000	0,000000	721,000000	0,000000	2020-10-29T19:39:33:745
96,000000	0,000000	721,000000	0,000000	2020-10-29T19:39:33:785
96,000000	0,000000	601,000000	0,000000	2020-10-29T19:39:33:826
96,000000	0,000000	601,000000	0,000000	2020-10-29T19:39:33:865
96,000000	0,000000	601,000000	0,000000	2020-10-29T19:39:33:905
96,000000	0,000000	601,000000	0,000000	2020-10-29T19:39:33:946
96,000000	0,000000	601,000000	0,000000	2020-10-29T19:39:33:986
96,000000	0,000000	601,000000	0,000000	2020-10-29T19:39:34:025
96,000000	0,000000	601,000000	0,000000	2020-10-29T19:39:34:068
96,000000	0,000000	601,000000	0,000000	2020-10-29T19:39:34:105
96,000000	0,000000	601,000000	0,000000	2020-10-29T19:39:34:148
96,000000	0,000000	601,000000	0,000000	2020-10-29T19:39:34:188
96,000000	0,000000	601,000000	0,000000	2020-10-29T19:39:34:228
96,000000	0,000000	601,000000	0,000000	2020-10-29T19:39:34:266
96,000000	0,000000	601,000000	0,000000	2020-10-29T19:39:34:307
96,000000	0,000000	601,000000	0,000000	2020-10-29T19:39:34:346
96,000000	0,000000	601,000000	0,000000	2020-10-29T19:39:34:388
96,000000	0,000000	601,000000	0,000000	2020-10-29T19:39:34:428
96,000000	0,000000	601,000000	0,000000	2020-10-29T19:39:34:467
96,000000	0,000000	601,000000	0,000000	2020-10-29T19:39:34:506
96,000000	0,000000	601,000000	0,000000	2020-10-29T19:39:34:547
96,000000	0,000000	601,000000	0,000000	2020-10-29T19:39:34:586
96,000000	0,000000	601,000000	0,000000	2020-10-29T19:39:34:627
96,000000	0,000000	601,000000	0,000000	2020-10-29T19:39:34:669
96,000000	0,000000	601,000000	0,000000	2020-10-29T19:39:34:707
96,000000	0,000000	601,000000	0,000000	2020-10-29T19:39:34:745
96,000000	0,000000	601,000000	0,000000	2020-10-29T19:39:34:787
96,000000	0,000000	601,000000	0,000000	2020-10-29T19:39:34:825
96,000000	0,000000	601,000000	0,000000	2020-10-29T19:39:34:867
96,000000	0,000000	601,000000	0,000000	2020-10-29T19:39:34:907
96,000000	0,000000	601,000000	0,000000	2020-10-29T19:39:34:947
96,000000	0,000000	601,000000	0,000000	2020-10-29T19:39:34:986
96,000000	0,000000	601,000000	0,000000	2020-10-29T19:39:35:027
96,000000	0,000000	601,000000	0,000000	2020-10-29T19:39:35:066
96,000000	0,000000	601,000000	0,000000	2020-10-29T19:39:35:107
96,000000	0,000000	601,000000	0,000000	2020-10-29T19:39:35:147
96,000000	0,000000	601,000000	0,000000	2020-10-29T19:39:35:187
96,000000	0,000000	601,000000	0,000000	2020-10-29T19:39:35:226
96,000000	0,000000	601,000000	0,000000	2020-10-29T19:39:35:269
96,000000	0,000000	601,000000	0,000000	2020-10-29T19:39:35:306
96,000000	0,000000	601,000000	0,000000	2020-10-29T19:39:35:347
96,000000	0,000000	601,000000	0,000000	2020-10-29T19:39:35:388
96,000000	0,000000	601,000000	0,000000	2020-10-29T19:39:35:427
96,000000	0,000000	601,000000	0,000000	2020-10-29T19:39:35:466
96,000000	0,000000	601,000000	0,000000	2020-10-29T19:39:35:507
96,000000	0,000000	601,000000	0,000000	2020-10-29T19:39:35:546
96,000000	0,000000	601,000000	0,000000	2020-10-29T19:39:35:588
96,000000	0,000000	601,000000	0,000000	2020-10-29T19:39:35:628
96,000000	0,000000	601,000000	0,000000	2020-10-29T19:39:35:667
96,000000	0,000000	601,000000	0,000000	2020-10-29T19:39:35:707
96,000000	0,000000	601,000000	0,000000	2020-10-29T19:39:35:748
96,000000	0,000000	601,000000	0,000000	2020-10-29T19:39:35:787
96,000000	0,000000	601,000000	0,000000	2020-10-29T19:39:35:827
96,000000	0,000000	601,000000	0,000000	2020-10-29T19:39:35:868
96,000000	0,000000	601,000000	0,000000	2020-10-29T19:39:35:908
96,000000	0,000000	601,000000	0,000000	2020-10-29T19:39:35:946
96,000000	0,000000	601,000000	0,000000	2020-10-29T19:39:35:988
96,000000	0,000000	601,000000	0,000000	2020-10-29T19:39:36:027
96,000000	0,000000	601,000000	0,000000	2020-10-29T19:39:36:067
96,000000	0,000000	601,000000	0,000000	2020-10-29T19:39:36:108
96,000000	0,000000	601,000000	0,000000	2020-10-29T19:39:36:148
96,000000	0,000000	601,000000	0,000000	2020-10-29T19:39:36:188
96,000000	0,000000	601,000000	0,000000	2020-10-29T19:39:36:229
96,000000	0,000000	601,000000	0,000000	2020-10-29T19:39:36:267
96,000000	0,000000	601,000000	0,000000	2020-10-29T19:39:36:308
96,000000	0,000000	601,000000	0,000000	2020-10-29T19:39:36:349
96,000000	0,000000	601,000000	0,000000	2020-10-29T19:39:36:388
96,000000	0,000000	601,000000	0,000000	2020-10-29T19:39:36:427
96,000000	0,000000	601,000000	0,000000	2020-10-29T19:39:36:469
96,000000	0,000000	601,000000	0,000000	2020-10-29T19:39:36:507
96,000000	0,000000	601,000000	0,000000	2020-10-29T19:39:36:548
96,000000	0,000000	601,000000	0,000000	2020-10-29T19:39:36:589
97,000000	0,000000	601,000000	0,000000	2020-10-29T19:39:36:628
97,000000	0,000000	601,000000	0,000000	2020-10-29T19:39:36:667
96,000000	0,000000	601,000000	0,000000	2020-10-29T19:39:36:709
96,000000	0,000000	601,000000	0,000000	2020-10-29T19:39:36:747
96,000000	0,000000	601,000000	0,000000	2020-10-29T19:39:36:789
96,000000	0,000000	601,000000	0,000000	2020-10-29T19:39:36:829
96,000000	0,000000	601,000000	0,000000	2020-10-29T19:39:36:869
96,000000	0,000000	601,000000	0,000000	2020-10-29T19:39:36:911
97,000000	0,000000	601,000000	0,000000	2020-10-29T19:39:36:950
97,000000	0,000000	601,000000	0,000000	2020-10-29T19:39:36:987
97,000000	0,000000	601,000000	0,000000	2020-10-29T19:39:37:029
97,000000	0,000000	601,000000	0,000000	2020-10-29T19:39:37:069
97,000000	0,000000	601,000000	0,000000	2020-10-29T19:39:37:110
97,000000	0,000000	601,000000	0,000000	2020-10-29T19:39:37:153
97,000000	0,000000	601,000000	0,000000	2020-10-29T19:39:37:189
97,000000	0,000000	601,000000	0,000000	2020-10-29T19:39:37:228
97,000000	0,000000	601,000000	0,000000	2020-10-29T19:39:37:269
97,000000	0,000000	601,000000	0,000000	2020-10-29T19:39:37:309
97,000000	0,000000	601,000000	0,000000	2020-10-29T19:39:37:349
97,000000	0,000000	601,000000	0,000000	2020-10-29T19:39:37:389
97,000000	0,000000	579,000000	0,000000	2020-10-29T19:39:37:429
97,000000	0,000000	579,000000	0,000000	2020-10-29T19:39:37:471
97,000000	0,000000	579,000000	0,000000	2020-10-29T19:39:37:515
97,000000	0,000000	579,000000	0,000000	2020-10-29T19:39:37:550
97,000000	0,000000	579,000000	0,000000	2020-10-29T19:39:37:589
97,000000	0,000000	579,000000	0,000000	2020-10-29T19:39:37:628
97,000000	0,000000	579,000000	0,000000	2020-10-29T19:39:37:670
97,000000	0,000000	579,000000	0,000000	2020-10-29T19:39:37:708
97,000000	0,000000	579,000000	0,000000	2020-10-29T19:39:37:749
97,000000	0,000000	579,000000	0,000000	2020-10-29T19:39:37:791
97,000000	0,000000	579,000000	0,000000	2020-10-29T19:39:37:829
97,000000	0,000000	579,000000	0,000000	2020-10-29T19:39:37:867
97,000000	0,000000	579,000000	0,000000	2020-10-29T19:39:37:909
97,000000	0,000000	579,000000	0,000000	2020-10-29T19:39:37:948
97,000000	0,000000	579,000000	0,000000	2020-10-29T19:39:37:989
97,000000	0,000000	579,000000	0,000000	2020-10-29T19:39:38:029
97,000000	0,000000	579,000000	0,000000	2020-10-29T19:39:38:069
97,000000	0,000000	579,000000	0,000000	2020-10-29T19:39:38:108
97,000000	0,000000	579,000000	0,000000	2020-10-29T19:39:38:149
97,000000	0,000000	579,000000	0,000000	2020-10-29T19:39:38:189
98,000000	0,000000	579,000000	0,000000	2020-10-29T19:39:38:229
98,000000	0,000000	579,000000	0,000000	2020-10-29T19:39:38:271
97,000000	0,000000	579,000000	0,000000	2020-10-29T19:39:38:309
97,000000	0,000000	579,000000	0,000000	2020-10-29T19:39:38:348
98,000000	0,000000	579,000000	0,000000	2020-10-29T19:39:38:390
98,000000	0,000000	579,000000	0,000000	2020-10-29T19:39:38:428
98,000000	0,000000	579,000000	0,000000	2020-10-29T19:39:38:470
98,000000	0,000000	579,000000	0,000000	2020-10-29T19:39:38:510
98,000000	0,000000	579,000000	0,000000	2020-10-29T19:39:38:550
98,000000	0,000000	579,000000	0,000000	2020-10-29T19:39:38:589
98,000000	0,000000	579,000000	0,000000	2020-10-29T19:39:38:629
98,000000	0,000000	579,000000	0,000000	2020-10-29T19:39:38:670
98,000000	0,000000	579,000000	0,000000	2020-10-29T19:39:38:710
98,000000	0,000000	579,000000	0,000000	2020-10-29T19:39:38:751
98,000000	0,000000	579,000000	0,000000	2020-10-29T19:39:38:790
98,000000	0,000000	579,000000	0,000000	2020-10-29T19:39:38:829
98,000000	0,000000	579,000000	0,000000	2020-10-29T19:39:38:870
98,000000	0,000000	579,000000	0,000000	2020-10-29T19:39:38:908
98,000000	0,000000	579,000000	0,000000	2020-10-29T19:39:38:950
98,000000	0,000000	579,000000	0,000000	2020-10-29T19:39:38:991
98,000000	0,000000	613,000000	0,000000	2020-10-29T19:39:39:030
98,000000	0,000000	613,000000	0,000000	2020-10-29T19:39:39:070
98,000000	0,000000	613,000000	0,000000	2020-10-29T19:39:39:110
98,000000	0,000000	613,000000	0,000000	2020-10-29T19:39:39:150
98,000000	0,000000	613,000000	0,000000	2020-10-29T19:39:39:191
98,000000	0,000000	613,000000	0,000000	2020-10-29T19:39:39:232
98,000000	0,000000	613,000000	0,000000	2020-10-29T19:39:39:271
98,000000	0,000000	613,000000	0,000000	2020-10-29T19:39:39:309
98,000000	0,000000	613,000000	0,000000	2020-10-29T19:39:39:351
98,000000	0,000000	613,000000	0,000000	2020-10-29T19:39:39:390
98,000000	0,000000	613,000000	0,000000	2020-10-29T19:39:39:430
98,000000	0,000000	613,000000	0,000000	2020-10-29T19:39:39:470
98,000000	0,000000	613,000000	0,000000	2020-10-29T19:39:39:511
98,000000	0,000000	613,000000	0,000000	2020-10-29T19:39:39:550
98,000000	0,000000	613,000000	0,000000	2020-10-29T19:39:39:591
98,000000	0,000000	613,000000	0,000000	2020-10-29T19:39:39:630
98,000000	0,000000	613,000000	0,000000	2020-10-29T19:39:39:670
98,000000	0,000000	613,000000	0,000000	2020-10-29T19:39:39:712
98,000000	0,000000	613,000000	0,000000	2020-10-29T19:39:39:751
98,000000	0,000000	613,000000	0,000000	2020-10-29T19:39:39:790
98,000000	0,000000	613,000000	0,000000	2020-10-29T19:39:39:831
98,000000	0,000000	613,000000	0,000000	2020-10-29T19:39:39:870
98,000000	0,000000	613,000000	0,000000	2020-10-29T19:39:39:911
98,000000	0,000000	613,000000	0,000000	2020-10-29T19:39:39:952
98,000000	0,000000	613,000000	0,000000	2020-10-29T19:39:39:992
98,000000	0,000000	613,000000	0,000000	2020-10-29T19:39:40:031
98,000000	0,000000	613,000000	0,000000	2020-10-29T19:39:40:071
98,000000	0,000000	613,000000	0,000000	2020-10-29T19:39:40:110
98,000000	0,000000	613,000000	0,000000	2020-10-29T19:39:40:152
98,000000	0,000000	613,000000	0,000000	2020-10-29T19:39:40:192
98,000000	0,000000	613,000000	0,000000	2020-10-29T19:39:40:232
98,000000	0,000000	613,000000	0,000000	2020-10-29T19:39:40:271
98,000000	0,000000	613,000000	0,000000	2020-10-29T19:39:40:312
98,000000	0,000000	613,000000	0,000000	2020-10-29T19:39:40:351
98,000000	0,000000	613,000000	0,000000	2020-10-29T19:39:40:392
98,000000	0,000000	613,000000	0,000000	2020-10-29T19:39:40:432
98,000000	0,000000	613,000000	0,000000	2020-10-29T19:39:40:472
98,000000	0,000000	613,000000	0,000000	2020-10-29T19:39:40:511
98,000000	0,000000	613,000000	0,000000	2020-10-29T19:39:40:552
98,000000	0,000000	613,000000	0,000000	2020-10-29T19:39:40:591
98,000000	0,000000	613,000000	0,000000	2020-10-29T19:39:40:632
98,000000	0,000000	613,000000	0,000000	2020-10-29T19:39:40:673
98,000000	0,000000	613,000000	0,000000	2020-10-29T19:39:40:712
98,000000	0,000000	613,000000	0,000000	2020-10-29T19:39:40:751
98,000000	0,000000	613,000000	0,000000	2020-10-29T19:39:40:793
98,000000	0,000000	613,000000	0,000000	2020-10-29T19:39:40:831
98,000000	0,000000	613,000000	0,000000	2020-10-29T19:39:40:874
99,000000	0,000000	613,000000	0,000000	2020-10-29T19:39:40:913
98,000000	0,000000	613,000000	0,000000	2020-10-29T19:39:40:952
98,000000	0,000000	613,000000	0,000000	2020-10-29T19:39:40:991
99,000000	0,000000	613,000000	0,000000	2020-10-29T19:39:41:032
99,000000	0,000000	613,000000	0,000000	2020-10-29T19:39:41:072
99,000000	0,000000	613,000000	0,000000	2020-10-29T19:39:41:113
99,000000	0,000000	613,000000	0,000000	2020-10-29T19:39:41:153
99,000000	0,000000	613,000000	0,000000	2020-10-29T19:39:41:192
99,000000	0,000000	613,000000	0,000000	2020-10-29T19:39:41:232
99,000000	0,000000	613,000000	0,000000	2020-10-29T19:39:41:273
99,000000	0,000000	613,000000	0,000000	2020-10-29T19:39:41:311
99,000000	0,000000	613,000000	0,000000	2020-10-29T19:39:41:353
99,000000	0,000000	613,000000	0,000000	2020-10-29T19:39:41:394
99,000000	0,000000	560,000000	0,000000	2020-10-29T19:39:41:433
99,000000	0,000000	560,000000	0,000000	2020-10-29T19:39:41:472
99,000000	0,000000	560,000000	0,000000	2020-10-29T19:39:41:513
99,000000	0,000000	560,000000	0,000000	2020-10-29T19:39:41:552
99,000000	0,000000	560,000000	0,000000	2020-10-29T19:39:41:593
99,000000	0,000000	560,000000	0,000000	2020-10-29T19:39:41:633
99,000000	0,000000	560,000000	0,000000	2020-10-29T19:39:41:673
99,000000	0,000000	560,000000	0,000000	2020-10-29T19:39:41:711
99,000000	0,000000	560,000000	0,000000	2020-10-29T19:39:41:753
99,000000	0,000000	560,000000	0,000000	2020-10-29T19:39:41:792
99,000000	0,000000	560,000000	0,000000	2020-10-29T19:39:41:832
99,000000	0,000000	560,000000	0,000000	2020-10-29T19:39:41:877
99,000000	0,000000	560,000000	0,000000	2020-10-29T19:39:41:913
99,000000	0,000000	560,000000	0,000000	2020-10-29T19:39:41:952
99,000000	0,000000	560,000000	0,000000	2020-10-29T19:39:41:994
99,000000	0,000000	562,000000	0,000000	2020-10-29T19:39:42:032
99,000000	0,000000	562,000000	0,000000	2020-10-29T19:39:42:074
99,000000	0,000000	562,000000	0,000000	2020-10-29T19:39:42:114
99,000000	0,000000	562,000000	0,000000	2020-10-29T19:39:42:155
99,000000	0,000000	562,000000	0,000000	2020-10-29T19:39:42:193
99,000000	0,000000	562,000000	0,000000	2020-10-29T19:39:42:234
99,000000	0,000000	562,000000	0,000000	2020-10-29T19:39:42:273
99,000000	0,000000	562,000000	0,000000	2020-10-29T19:39:42:313
99,000000	0,000000	562,000000	0,000000	2020-10-29T19:39:42:354
99,000000	0,000000	562,000000	0,000000	2020-10-29T19:39:42:395
99,000000	0,000000	562,000000	0,000000	2020-10-29T19:39:42:433
99,000000	0,000000	562,000000	0,000000	2020-10-29T19:39:42:474
99,000000	0,000000	562,000000	0,000000	2020-10-29T19:39:42:513
99,000000	0,000000	562,000000	0,000000	2020-10-29T19:39:42:554
99,000000	0,000000	562,000000	0,000000	2020-10-29T19:39:42:595
99,000000	0,000000	554,000000	0,000000	2020-10-29T19:39:42:634
99,000000	0,000000	554,000000	0,000000	2020-10-29T19:39:42:673
99,000000	0,000000	554,000000	0,000000	2020-10-29T19:39:42:714
99,000000	0,000000	554,000000	0,000000	2020-10-29T19:39:42:753
99,000000	0,000000	554,000000	0,000000	2020-10-29T19:39:42:795
100,000000	0,000000	554,000000	0,000000	2020-10-29T19:39:42:835
99,000000	0,000000	554,000000	0,000000	2020-10-29T19:39:42:875
99,000000	0,000000	554,000000	0,000000	2020-10-29T19:39:42:913
99,000000	0,000000	554,000000	0,000000	2020-10-29T19:39:42:954
100,000000	0,000000	554,000000	0,000000	2020-10-29T19:39:42:993
100,000000	0,000000	554,000000	0,000000	2020-10-29T19:39:43:033
100,000000	0,000000	554,000000	0,000000	2020-10-29T19:39:43:075
100,000000	0,000000	554,000000	0,000000	2020-10-29T19:39:43:114
100,000000	0,000000	554,000000	0,000000	2020-10-29T19:39:43:153
100,000000	0,000000	554,000000	0,000000	2020-10-29T19:39:43:194
100,000000	0,000000	554,000000	0,000000	2020-10-29T19:39:43:233
100,000000	0,000000	554,000000	0,000000	2020-10-29T19:39:43:274
100,000000	0,000000	554,000000	0,000000	2020-10-29T19:39:43:315
100,000000	0,000000	554,000000	0,000000	2020-10-29T19:39:43:354
100,000000	0,000000	554,000000	0,000000	2020-10-29T19:39:43:393
100,000000	0,000000	554,000000	0,000000	2020-10-29T19:39:43:434
100,000000	0,000000	554,000000	0,000000	2020-10-29T19:39:43:474
100,000000	0,000000	554,000000	0,000000	2020-10-29T19:39:43:514
100,000000	0,000000	554,000000	0,000000	2020-10-29T19:39:43:555
100,000000	0,000000	554,000000	0,000000	2020-10-29T19:39:43:594
100,000000	0,000000	554,000000	0,000000	2020-10-29T19:39:43:634
100,000000	0,000000	554,000000	0,000000	2020-10-29T19:39:43:675
100,000000	0,000000	554,000000	0,000000	2020-10-29T19:39:43:714
100,000000	0,000000	554,000000	0,000000	2020-10-29T19:39:43:755
100,000000	0,000000	554,000000	0,000000	2020-10-29T19:39:43:794
100,000000	0,000000	554,000000	0,000000	2020-10-29T19:39:43:834
100,000000	0,000000	554,000000	0,000000	2020-10-29T19:39:43:874
100,000000	0,000000	554,000000	0,000000	2020-10-29T19:39:43:915
100,000000	0,000000	554,000000	0,000000	2020-10-29T19:39:43:953
100,000000	0,000000	554,000000	0,000000	2020-10-29T19:39:43:995
100,000000	0,000000	554,000000	0,000000	2020-10-29T19:39:44:035
100,000000	0,000000	554,000000	0,000000	2020-10-29T19:39:44:075
100,000000	0,000000	554,000000	0,000000	2020-10-29T19:39:44:114
100,000000	0,000000	554,000000	0,000000	2020-10-29T19:39:44:156
100,000000	0,000000	554,000000	0,000000	2020-10-29T19:39:44:194
100,000000	0,000000	554,000000	0,000000	2020-10-29T19:39:44:236
100,000000	0,000000	554,000000	0,000000	2020-10-29T19:39:44:276
100,000000	0,000000	554,000000	0,000000	2020-10-29T19:39:44:315
100,000000	0,000000	554,000000	0,000000	2020-10-29T19:39:44:355
100,000000	0,000000	554,000000	0,000000	2020-10-29T19:39:44:396
100,000000	0,000000	554,000000	0,000000	2020-10-29T19:39:44:433
100,000000	0,000000	554,000000	0,000000	2020-10-29T19:39:44:476
100,000000	0,000000	554,000000	0,000000	2020-10-29T19:39:44:516
100,000000	0,000000	554,000000	0,000000	2020-10-29T19:39:44:556
100,000000	0,000000	554,000000	0,000000	2020-10-29T19:39:44:595
100,000000	0,000000	554,000000	0,000000	2020-10-29T19:39:44:635
100,000000	0,000000	554,000000	0,000000	2020-10-29T19:39:44:676
100,000000	0,000000	554,000000	0,000000	2020-10-29T19:39:44:715
100,000000	0,000000	554,000000	0,000000	2020-10-29T19:39:44:757
100,000000	0,000000	554,000000	0,000000	2020-10-29T19:39:44:797
100,000000	0,000000	554,000000	0,000000	2020-10-29T19:39:44:835
100,000000	0,000000	554,000000	0,000000	2020-10-29T19:39:44:876
100,000000	0,000000	554,000000	0,000000	2020-10-29T19:39:44:916
100,000000	0,000000	554,000000	0,000000	2020-10-29T19:39:44:956
100,000000	0,000000	554,000000	0,000000	2020-10-29T19:39:44:998
100,000000	0,000000	587,000000	0,000000	2020-10-29T19:39:45:036
100,000000	0,000000	587,000000	0,000000	2020-10-29T19:39:45:076
100,000000	0,000000	587,000000	0,000000	2020-10-29T19:39:45:116
100,000000	0,000000	587,000000	0,000000	2020-10-29T19:39:45:155
100,000000	0,000000	587,000000	0,000000	2020-10-29T19:39:45:197
100,000000	0,000000	587,000000	0,000000	2020-10-29T19:39:45:238
100,000000	0,000000	587,000000	0,000000	2020-10-29T19:39:45:277
100,000000	0,000000	587,000000	0,000000	2020-10-29T19:39:45:316
100,000000	0,000000	587,000000	0,000000	2020-10-29T19:39:45:357
100,000000	0,000000	587,000000	0,000000	2020-10-29T19:39:45:396
100,000000	0,000000	587,000000	0,000000	2020-10-29T19:39:45:436
100,000000	0,000000	587,000000	0,000000	2020-10-29T19:39:45:477
100,000000	0,000000	587,000000	0,000000	2020-10-29T19:39:45:516
100,000000	0,000000	587,000000	0,000000	2020-10-29T19:39:45:556
100,000000	0,000000	587,000000	0,000000	2020-10-29T19:39:45:597
100,000000	0,000000	668,000000	0,000000	2020-10-29T19:39:45:636
100,000000	0,000000	668,000000	0,000000	2020-10-29T19:39:45:677
100,000000	0,000000	668,000000	0,000000	2020-10-29T19:39:45:718
100,000000	0,000000	668,000000	0,000000	2020-10-29T19:39:45:757
100,000000	0,000000	668,000000	0,000000	2020-10-29T19:39:45:797
100,000000	0,000000	668,000000	0,000000	2020-10-29T19:39:45:837
100,000000	0,000000	668,000000	0,000000	2020-10-29T19:39:45:877
100,000000	0,000000	668,000000	0,000000	2020-10-29T19:39:45:917
100,000000	0,000000	668,000000	0,000000	2020-10-29T19:39:45:959
100,000000	0,000000	668,000000	0,000000	2020-10-29T19:39:45:997
100,000000	0,000000	668,000000	0,000000	2020-10-29T19:39:46:037
100,000000	0,000000	668,000000	0,000000	2020-10-29T19:39:46:077
100,000000	0,000000	668,000000	0,000000	2020-10-29T19:39:46:116
100,000000	0,000000	668,000000	0,000000	2020-10-29T19:39:46:158
100,000000	0,000000	668,000000	0,000000	2020-10-29T19:39:46:199
100,000000	0,000000	668,000000	0,000000	2020-10-29T19:39:46:238
100,000000	0,000000	668,000000	0,000000	2020-10-29T19:39:46:277
100,000000	0,000000	668,000000	0,000000	2020-10-29T19:39:46:318
100,000000	0,000000	668,000000	0,000000	2020-10-29T19:39:46:357
100,000000	0,000000	668,000000	0,000000	2020-10-29T19:39:46:398
100,000000	0,000000	600,000000	0,000000	2020-10-29T19:39:46:438
100,000000	0,000000	600,000000	0,000000	2020-10-29T19:39:46:478
99,000000	0,000000	600,000000	0,000000	2020-10-29T19:39:46:517
100,000000	0,000000	600,000000	0,000000	2020-10-29T19:39:46:558
100,000000	0,000000	600,000000	0,000000	2020-10-29T19:39:46:597
100,000000	0,000000	600,000000	0,000000	2020-10-29T19:39:46:638
99,000000	0,000000	600,000000	0,000000	2020-10-29T19:39:46:679
99,000000	0,000000	600,000000	0,000000	2020-10-29T19:39:46:718
100,000000	0,000000	600,000000	0,000000	2020-10-29T19:39:46:757
100,000000	0,000000	600,000000	0,000000	2020-10-29T19:39:46:799
99,000000	0,000000	600,000000	0,000000	2020-10-29T19:39:46:839
99,000000	0,000000	600,000000	0,000000	2020-10-29T19:39:46:879
99,000000	0,000000	600,000000	0,000000	2020-10-29T19:39:46:919
99,000000	0,000000	600,000000	0,000000	2020-10-29T19:39:46:958
99,000000	0,000000	600,000000	0,000000	2020-10-29T19:39:46:998
99,000000	0,000000	627,000000	0,000000	2020-10-29T19:39:47:039
99,000000	0,000000	627,000000	0,000000	2020-10-29T19:39:47:078
99,000000	0,000000	627,000000	0,000000	2020-10-29T19:39:47:118
99,000000	0,000000	627,000000	0,000000	2020-10-29T19:39:47:189
99,000000	0,000000	627,000000	0,000000	2020-10-29T19:39:47:206
99,000000	0,000000	627,000000	0,000000	2020-10-29T19:39:47:238
99,000000	0,000000	627,000000	0,000000	2020-10-29T19:39:47:279
99,000000	0,000000	627,000000	0,000000	2020-10-29T19:39:47:318
99,000000	0,000000	627,000000	0,000000	2020-10-29T19:39:47:359
99,000000	0,000000	627,000000	0,000000	2020-10-29T19:39:47:400
99,000000	0,000000	627,000000	0,000000	2020-10-29T19:39:47:439
99,000000	0,000000	627,000000	0,000000	2020-10-29T19:39:47:478
99,000000	0,000000	627,000000	0,000000	2020-10-29T19:39:47:519
99,000000	0,000000	627,000000	0,000000	2020-10-29T19:39:47:558
99,000000	0,000000	627,000000	0,000000	2020-10-29T19:39:47:600
99,000000	0,000000	627,000000	0,000000	2020-10-29T19:39:47:639
99,000000	0,000000	627,000000	0,000000	2020-10-29T19:39:47:679
99,000000	0,000000	627,000000	0,000000	2020-10-29T19:39:47:718
99,000000	0,000000	627,000000	0,000000	2020-10-29T19:39:47:759
99,000000	0,000000	627,000000	0,000000	2020-10-29T19:39:47:799
98,000000	0,000000	627,000000	0,000000	2020-10-29T19:39:47:839
98,000000	0,000000	627,000000	0,000000	2020-10-29T19:39:47:880
98,000000	0,000000	627,000000	0,000000	2020-10-29T19:39:47:920
98,000000	0,000000	627,000000	0,000000	2020-10-29T19:39:47:958
98,000000	0,000000	627,000000	0,000000	2020-10-29T19:39:48:000
98,000000	0,000000	627,000000	0,000000	2020-10-29T19:39:48:038
98,000000	0,000000	627,000000	0,000000	2020-10-29T19:39:48:080
98,000000	0,000000	627,000000	0,000000	2020-10-29T19:39:48:120
98,000000	0,000000	627,000000	0,000000	2020-10-29T19:39:48:160
98,000000	0,000000	627,000000	0,000000	2020-10-29T19:39:48:199
98,000000	0,000000	627,000000	0,000000	2020-10-29T19:39:48:240
98,000000	0,000000	627,000000	0,000000	2020-10-29T19:39:48:279
98,000000	0,000000	627,000000	0,000000	2020-10-29T19:39:48:319
98,000000	0,000000	627,000000	0,000000	2020-10-29T19:39:48:359
98,000000	0,000000	627,000000	0,000000	2020-10-29T19:39:48:400
98,000000	0,000000	627,000000	0,000000	2020-10-29T19:39:48:439
98,000000	0,000000	627,000000	0,000000	2020-10-29T19:39:48:481
98,000000	0,000000	627,000000	0,000000	2020-10-29T19:39:48:519
98,000000	0,000000	627,000000	0,000000	2020-10-29T19:39:48:560
98,000000	0,000000	627,000000	0,000000	2020-10-29T19:39:48:601
98,000000	0,000000	627,000000	0,000000	2020-10-29T19:39:48:640
98,000000	0,000000	627,000000	0,000000	2020-10-29T19:39:48:679
98,000000	0,000000	627,000000	0,000000	2020-10-29T19:39:48:720
98,000000	0,000000	627,000000	0,000000	2020-10-29T19:39:48:758
98,000000	0,000000	627,000000	0,000000	2020-10-29T19:39:48:801
98,000000	0,000000	627,000000	0,000000	2020-10-29T19:39:48:841
98,000000	0,000000	627,000000	0,000000	2020-10-29T19:39:48:881
98,000000	0,000000	627,000000	0,000000	2020-10-29T19:39:48:919
98,000000	0,000000	627,000000	0,000000	2020-10-29T19:39:48:961
98,000000	0,000000	627,000000	0,000000	2020-10-29T19:39:49:000
98,000000	0,000000	627,000000	0,000000	2020-10-29T19:39:49:040
98,000000	0,000000	627,000000	0,000000	2020-10-29T19:39:49:082
98,000000	0,000000	627,000000	0,000000	2020-10-29T19:39:49:120
98,000000	0,000000	627,000000	0,000000	2020-10-29T19:39:49:160
98,000000	0,000000	627,000000	0,000000	2020-10-29T19:39:49:201
98,000000	0,000000	627,000000	0,000000	2020-10-29T19:39:49:240
98,000000	0,000000	627,000000	0,000000	2020-10-29T19:39:49:281
98,000000	0,000000	627,000000	0,000000	2020-10-29T19:39:49:320
98,000000	0,000000	627,000000	0,000000	2020-10-29T19:39:49:360
98,000000	0,000000	627,000000	0,000000	2020-10-29T19:39:49:401
98,000000	0,000000	627,000000	0,000000	2020-10-29T19:39:49:441
98,000000	0,000000	627,000000	0,000000	2020-10-29T19:39:49:480
98,000000	0,000000	627,000000	0,000000	2020-10-29T19:39:49:521
98,000000	0,000000	627,000000	0,000000	2020-10-29T19:39:49:562
98,000000	0,000000	627,000000	0,000000	2020-10-29T19:39:49:601
98,000000	0,000000	627,000000	0,000000	2020-10-29T19:39:49:640
98,000000	0,000000	627,000000	0,000000	2020-10-29T19:39:49:681
98,000000	0,000000	627,000000	0,000000	2020-10-29T19:39:49:721
98,000000	0,000000	627,000000	0,000000	2020-10-29T19:39:49:761
98,000000	0,000000	627,000000	0,000000	2020-10-29T19:39:49:803
98,000000	0,000000	627,000000	0,000000	2020-10-29T19:39:49:841
98,000000	0,000000	627,000000	0,000000	2020-10-29T19:39:49:882
98,000000	0,000000	627,000000	0,000000	2020-10-29T19:39:49:921
98,000000	0,000000	627,000000	0,000000	2020-10-29T19:39:49:961
98,000000	0,000000	627,000000	0,000000	2020-10-29T19:39:50:001
98,000000	0,000000	627,000000	0,000000	2020-10-29T19:39:50:041
98,000000	0,000000	627,000000	0,000000	2020-10-29T19:39:50:081
98,000000	0,000000	627,000000	0,000000	2020-10-29T19:39:50:121
98,000000	0,000000	627,000000	0,000000	2020-10-29T19:39:50:162
98,000000	0,000000	627,000000	0,000000	2020-10-29T19:39:50:201
98,000000	0,000000	627,000000	0,000000	2020-10-29T19:39:50:242
98,000000	0,000000	627,000000	0,000000	2020-10-29T19:39:50:281
98,000000	0,000000	627,000000	0,000000	2020-10-29T19:39:50:322
98,000000	0,000000	627,000000	0,000000	2020-10-29T19:39:50:361
98,000000	0,000000	627,000000	0,000000	2020-10-29T19:39:50:402
98,000000	0,000000	627,000000	0,000000	2020-10-29T19:39:50:440
98,000000	0,000000	627,000000	0,000000	2020-10-29T19:39:50:482
98,000000	0,000000	627,000000	0,000000	2020-10-29T19:39:50:523
98,000000	0,000000	627,000000	0,000000	2020-10-29T19:39:50:562
97,000000	0,000000	627,000000	0,000000	2020-10-29T19:39:50:601
98,000000	0,000000	627,000000	0,000000	2020-10-29T19:39:50:642
98,000000	0,000000	627,000000	0,000000	2020-10-29T19:39:50:681
98,000000	0,000000	627,000000	0,000000	2020-10-29T19:39:50:722
98,000000	0,000000	627,000000	0,000000	2020-10-29T19:39:50:763
98,000000	0,000000	627,000000	0,000000	2020-10-29T19:39:50:802
98,000000	0,000000	627,000000	0,000000	2020-10-29T19:39:50:841
97,000000	0,000000	627,000000	0,000000	2020-10-29T19:39:50:883
98,000000	0,000000	627,000000	0,000000	2020-10-29T19:39:50:921
98,000000	0,000000	627,000000	0,000000	2020-10-29T19:39:50:962
98,000000	0,000000	627,000000	0,000000	2020-10-29T19:39:51:003
98,000000	0,000000	627,000000	0,000000	2020-10-29T19:39:51:042
98,000000	0,000000	627,000000	0,000000	2020-10-29T19:39:51:082
98,000000	0,000000	627,000000	0,000000	2020-10-29T19:39:51:122
98,000000	0,000000	627,000000	0,000000	2020-10-29T19:39:51:161
98,000000	0,000000	627,000000	0,000000	2020-10-29T19:39:51:203
98,000000	0,000000	627,000000	0,000000	2020-10-29T19:39:51:243
98,000000	0,000000	627,000000	0,000000	2020-10-29T19:39:51:283
98,000000	0,000000	627,000000	0,000000	2020-10-29T19:39:51:322
98,000000	0,000000	627,000000	0,000000	2020-10-29T19:39:51:363
98,000000	0,000000	627,000000	0,000000	2020-10-29T19:39:51:403
98,000000	0,000000	627,000000	0,000000	2020-10-29T19:39:51:443
98,000000	0,000000	627,000000	0,000000	2020-10-29T19:39:51:484
98,000000	0,000000	627,000000	0,000000	2020-10-29T19:39:51:523
98,000000	0,000000	627,000000	0,000000	2020-10-29T19:39:51:562
98,000000	0,000000	627,000000	0,000000	2020-10-29T19:39:51:603
98,000000	0,000000	627,000000	0,000000	2020-10-29T19:39:51:642
98,000000	0,000000	627,000000	0,000000	2020-10-29T19:39:51:684
98,000000	0,000000	627,000000	0,000000	2020-10-29T19:39:51:725
98,000000	0,000000	627,000000	0,000000	2020-10-29T19:39:51:764
98,000000	0,000000	627,000000	0,000000	2020-10-29T19:39:51:803
98,000000	0,000000	627,000000	0,000000	2020-10-29T19:39:51:844
98,000000	0,000000	627,000000	0,000000	2020-10-29T19:39:51:883
98,000000	0,000000	627,000000	0,000000	2020-10-29T19:39:51:924
98,000000	0,000000	627,000000	0,000000	2020-10-29T19:39:51:965
98,000000	0,000000	627,000000	0,000000	2020-10-29T19:39:52:004
98,000000	0,000000	627,000000	0,000000	2020-10-29T19:39:52:043
98,000000	0,000000	627,000000	0,000000	2020-10-29T19:39:52:084
98,000000	0,000000	627,000000	0,000000	2020-10-29T19:39:52:122
98,000000	0,000000	627,000000	0,000000	2020-10-29T19:39:52:167
98,000000	0,000000	627,000000	0,000000	2020-10-29T19:39:52:204
98,000000	0,000000	627,000000	0,000000	2020-10-29T19:39:52:244
98,000000	0,000000	627,000000	0,000000	2020-10-29T19:39:52:283
98,000000	0,000000	627,000000	0,000000	2020-10-29T19:39:52:328
98,000000	0,000000	627,000000	0,000000	2020-10-29T19:39:52:363
98,000000	0,000000	627,000000	0,000000	2020-10-29T19:39:52:405
98,000000	0,000000	627,000000	0,000000	2020-10-29T19:39:52:444
98,000000	0,000000	627,000000	0,000000	2020-10-29T19:39:52:484
98,000000	0,000000	627,000000	0,000000	2020-10-29T19:39:52:523
98,000000	0,000000	627,000000	0,000000	2020-10-29T19:39:52:564
98,000000	0,000000	627,000000	0,000000	2020-10-29T19:39:52:603
98,000000	0,000000	599,000000	0,000000	2020-10-29T19:39:52:643
98,000000	0,000000	599,000000	0,000000	2020-10-29T19:39:52:684
98,000000	0,000000	599,000000	0,000000	2020-10-29T19:39:52:724
98,000000	0,000000	599,000000	0,000000	2020-10-29T19:39:52:763
98,000000	0,000000	599,000000	0,000000	2020-10-29T19:39:52:804
98,000000	0,000000	599,000000	0,000000	2020-10-29T19:39:52:843
98,000000	0,000000	599,000000	0,000000	2020-10-29T19:39:52:884
98,000000	0,000000	599,000000	0,000000	2020-10-29T19:39:52:925
98,000000	0,000000	599,000000	0,000000	2020-10-29T19:39:52:964
98,000000	0,000000	599,000000	0,000000	2020-10-29T19:39:53:004
98,000000	0,000000	599,000000	0,000000	2020-10-29T19:39:53:044
98,000000	0,000000	599,000000	0,000000	2020-10-29T19:39:53:084
98,000000	0,000000	599,000000	0,000000	2020-10-29T19:39:53:124
98,000000	0,000000	599,000000	0,000000	2020-10-29T19:39:53:165
98,000000	0,000000	599,000000	0,000000	2020-10-29T19:39:53:205
98,000000	0,000000	599,000000	0,000000	2020-10-29T19:39:53:244
98,000000	0,000000	599,000000	0,000000	2020-10-29T19:39:53:285
98,000000	0,000000	599,000000	0,000000	2020-10-29T19:39:53:324
98,000000	0,000000	599,000000	0,000000	2020-10-29T19:39:53:365
98,000000	0,000000	599,000000	0,000000	2020-10-29T19:39:53:406
98,000000	0,000000	599,000000	0,000000	2020-10-29T19:39:53:445
98,000000	0,000000	599,000000	0,000000	2020-10-29T19:39:53:484
98,000000	0,000000	599,000000	0,000000	2020-10-29T19:39:53:525
98,000000	0,000000	599,000000	0,000000	2020-10-29T19:39:53:564
98,000000	0,000000	599,000000	0,000000	2020-10-29T19:39:53:605
98,000000	0,000000	599,000000	0,000000	2020-10-29T19:39:53:646
98,000000	0,000000	599,000000	0,000000	2020-10-29T19:39:53:686
98,000000	0,000000	599,000000	0,000000	2020-10-29T19:39:53:724
98,000000	0,000000	599,000000	0,000000	2020-10-29T19:39:53:766
98,000000	0,000000	599,000000	0,000000	2020-10-29T19:39:53:805
98,000000	0,000000	599,000000	0,000000	2020-10-29T19:39:53:845
98,000000	0,000000	599,000000	0,000000	2020-10-29T19:39:53:887
98,000000	0,000000	599,000000	0,000000	2020-10-29T19:39:53:925
98,000000	0,000000	599,000000	0,000000	2020-10-29T19:39:53:964
98,000000	0,000000	599,000000	0,000000	2020-10-29T19:39:54:005
98,000000	0,000000	599,000000	0,000000	2020-10-29T19:39:54:045
98,000000	0,000000	599,000000	0,000000	2020-10-29T19:39:54:086
98,000000	0,000000	599,000000	0,000000	2020-10-29T19:39:54:126
98,000000	0,000000	599,000000	0,000000	2020-10-29T19:39:54:166
98,000000	0,000000	599,000000	0,000000	2020-10-29T19:39:54:205
98,000000	0,000000	599,000000	0,000000	2020-10-29T19:39:54:246
98,000000	0,000000	599,000000	0,000000	2020-10-29T19:39:54:285
98,000000	0,000000	599,000000	0,000000	2020-10-29T19:39:54:326
98,000000	0,000000	599,000000	0,000000	2020-10-29T19:39:54:367
98,000000	0,000000	599,000000	0,000000	2020-10-29T19:39:54:406
98,000000	0,000000	599,000000	0,000000	2020-10-29T19:39:54:445
98,000000	0,000000	599,000000	0,000000	2020-10-29T19:39:54:487
98,000000	0,000000	599,000000	0,000000	2020-10-29T19:39:54:526
98,000000	0,000000	599,000000	0,000000	2020-10-29T19:39:54:566
98,000000	0,000000	599,000000	0,000000	2020-10-29T19:39:54:606
98,000000	0,000000	599,000000	0,000000	2020-10-29T19:39:54:646
98,000000	0,000000	599,000000	0,000000	2020-10-29T19:39:54:686
98,000000	0,000000	599,000000	0,000000	2020-10-29T19:39:54:726
98,000000	0,000000	599,000000	0,000000	2020-10-29T19:39:54:764
98,000000	0,000000	599,000000	0,000000	2020-10-29T19:39:54:806
98,000000	0,000000	599,000000	0,000000	2020-10-29T19:39:54:848
98,000000	0,000000	599,000000	0,000000	2020-10-29T19:39:54:886
98,000000	0,000000	599,000000	0,000000	2020-10-29T19:39:54:925
98,000000	0,000000	599,000000	0,000000	2020-10-29T19:39:54:966
98,000000	0,000000	599,000000	0,000000	2020-10-29T19:39:55:005
98,000000	0,000000	599,000000	0,000000	2020-10-29T19:39:55:046
98,000000	0,000000	599,000000	0,000000	2020-10-29T19:39:55:087
98,000000	0,000000	599,000000	0,000000	2020-10-29T19:39:55:126
99,000000	0,000000	599,000000	0,000000	2020-10-29T19:39:55:166
99,000000	0,000000	599,000000	0,000000	2020-10-29T19:39:55:207
99,000000	0,000000	599,000000	0,000000	2020-10-29T19:39:55:245
99,000000	0,000000	599,000000	0,000000	2020-10-29T19:39:55:287
99,000000	0,000000	599,000000	0,000000	2020-10-29T19:39:55:327
99,000000	0,000000	599,000000	0,000000	2020-10-29T19:39:55:366
99,000000	0,000000	599,000000	0,000000	2020-10-29T19:39:55:405
99,000000	0,000000	599,000000	0,000000	2020-10-29T19:39:55:447
99,000000	0,000000	599,000000	0,000000	2020-10-29T19:39:55:487
99,000000	0,000000	599,000000	0,000000	2020-10-29T19:39:55:528
99,000000	0,000000	599,000000	0,000000	2020-10-29T19:39:55:567
99,000000	0,000000	599,000000	0,000000	2020-10-29T19:39:55:607
99,000000	0,000000	599,000000	0,000000	2020-10-29T19:39:55:646
99,000000	0,000000	599,000000	0,000000	2020-10-29T19:39:55:687
99,000000	0,000000	599,000000	0,000000	2020-10-29T19:39:55:726
99,000000	0,000000	599,000000	0,000000	2020-10-29T19:39:55:767
99,000000	0,000000	599,000000	0,000000	2020-10-29T19:39:55:808
99,000000	0,000000	599,000000	0,000000	2020-10-29T19:39:55:847
99,000000	0,000000	599,000000	0,000000	2020-10-29T19:39:55:886
99,000000	0,000000	599,000000	0,000000	2020-10-29T19:39:55:927
99,000000	0,000000	599,000000	0,000000	2020-10-29T19:39:55:966
99,000000	0,000000	599,000000	0,000000	2020-10-29T19:39:56:008
99,000000	0,000000	599,000000	0,000000	2020-10-29T19:39:56:048
99,000000	0,000000	599,000000	0,000000	2020-10-29T19:39:56:088
99,000000	0,000000	599,000000	0,000000	2020-10-29T19:39:56:126
99,000000	0,000000	599,000000	0,000000	2020-10-29T19:39:56:168
99,000000	0,000000	599,000000	0,000000	2020-10-29T19:39:56:207
99,000000	0,000000	599,000000	0,000000	2020-10-29T19:39:56:248
99,000000	0,000000	599,000000	0,000000	2020-10-29T19:39:56:289
99,000000	0,000000	599,000000	0,000000	2020-10-29T19:39:56:327
99,000000	0,000000	599,000000	0,000000	2020-10-29T19:39:56:366
99,000000	0,000000	599,000000	0,000000	2020-10-29T19:39:56:408
99,000000	0,000000	599,000000	0,000000	2020-10-29T19:39:56:446
99,000000	0,000000	599,000000	0,000000	2020-10-29T19:39:56:489
99,000000	0,000000	599,000000	0,000000	2020-10-29T19:39:56:528
99,000000	0,000000	599,000000	0,000000	2020-10-29T19:39:56:567
99,000000	0,000000	599,000000	0,000000	2020-10-29T19:39:56:607
99,000000	0,000000	599,000000	0,000000	2020-10-29T19:39:56:648
99,000000	0,000000	599,000000	0,000000	2020-10-29T19:39:56:687
99,000000	0,000000	599,000000	0,000000	2020-10-29T19:39:56:728
99,000000	0,000000	599,000000	0,000000	2020-10-29T19:39:56:769
99,000000	0,000000	599,000000	0,000000	2020-10-29T19:39:56:808
99,000000	0,000000	599,000000	0,000000	2020-10-29T19:39:56:847
99,000000	0,000000	599,000000	0,000000	2020-10-29T19:39:56:888
99,000000	0,000000	599,000000	0,000000	2020-10-29T19:39:56:927
99,000000	0,000000	599,000000	0,000000	2020-10-29T19:39:56:968
99,000000	0,000000	599,000000	0,000000	2020-10-29T19:39:57:009
99,000000	0,000000	599,000000	0,000000	2020-10-29T19:39:57:053
99,000000	0,000000	599,000000	0,000000	2020-10-29T19:39:57:088
99,000000	0,000000	599,000000	0,000000	2020-10-29T19:39:57:128
99,000000	0,000000	599,000000	0,000000	2020-10-29T19:39:57:169
99,000000	0,000000	599,000000	0,000000	2020-10-29T19:39:57:209
99,000000	0,000000	599,000000	0,000000	2020-10-29T19:39:57:249
99,000000	0,000000	599,000000	0,000000	2020-10-29T19:39:57:288
99,000000	0,000000	599,000000	0,000000	2020-10-29T19:39:57:328
99,000000	0,000000	599,000000	0,000000	2020-10-29T19:39:57:378
99,000000	0,000000	599,000000	0,000000	2020-10-29T19:39:57:408
99,000000	0,000000	599,000000	0,000000	2020-10-29T19:39:57:449
99,000000	0,000000	599,000000	0,000000	2020-10-29T19:39:57:492
99,000000	0,000000	599,000000	0,000000	2020-10-29T19:39:57:529
99,000000	0,000000	599,000000	0,000000	2020-10-29T19:39:57:568
99,000000	0,000000	599,000000	0,000000	2020-10-29T19:39:57:609
99,000000	0,000000	599,000000	0,000000	2020-10-29T19:39:57:648
99,000000	0,000000	599,000000	0,000000	2020-10-29T19:39:57:689
99,000000	0,000000	599,000000	0,000000	2020-10-29T19:39:57:730
99,000000	0,000000	599,000000	0,000000	2020-10-29T19:39:57:769
99,000000	0,000000	599,000000	0,000000	2020-10-29T19:39:57:808
99,000000	0,000000	599,000000	0,000000	2020-10-29T19:39:57:849
99,000000	0,000000	599,000000	0,000000	2020-10-29T19:39:57:888
99,000000	0,000000	599,000000	0,000000	2020-10-29T19:39:57:929
99,000000	0,000000	599,000000	0,000000	2020-10-29T19:39:57:971
99,000000	0,000000	599,000000	0,000000	2020-10-29T19:39:58:010
99,000000	0,000000	616,000000	0,000000	2020-10-29T19:39:58:048
99,000000	0,000000	616,000000	0,000000	2020-10-29T19:39:58:090
99,000000	0,000000	616,000000	0,000000	2020-10-29T19:39:58:128
99,000000	0,000000	616,000000	0,000000	2020-10-29T19:39:58:170
99,000000	0,000000	616,000000	0,000000	2020-10-29T19:39:58:211
99,000000	0,000000	616,000000	0,000000	2020-10-29T19:39:58:250
99,000000	0,000000	616,000000	0,000000	2020-10-29T19:39:58:289
99,000000	0,000000	616,000000	0,000000	2020-10-29T19:39:58:330
99,000000	0,000000	616,000000	0,000000	2020-10-29T19:39:58:368
99,000000	0,000000	616,000000	0,000000	2020-10-29T19:39:58:410
99,000000	0,000000	616,000000	0,000000	2020-10-29T19:39:58:450
99,000000	0,000000	616,000000	0,000000	2020-10-29T19:39:58:490
99,000000	0,000000	616,000000	0,000000	2020-10-29T19:39:58:529
99,000000	0,000000	616,000000	0,000000	2020-10-29T19:39:58:570
99,000000	0,000000	616,000000	0,000000	2020-10-29T19:39:58:609
99,000000	0,000000	638,000000	0,000000	2020-10-29T19:39:58:650
99,000000	0,000000	638,000000	0,000000	2020-10-29T19:39:58:691
99,000000	0,000000	638,000000	0,000000	2020-10-29T19:39:58:730
99,000000	0,000000	638,000000	0,000000	2020-10-29T19:39:58:769
99,000000	0,000000	638,000000	0,000000	2020-10-29T19:39:58:811
99,000000	0,000000	638,000000	0,000000	2020-10-29T19:39:58:849
99,000000	0,000000	638,000000	0,000000	2020-10-29T19:39:58:891
99,000000	0,000000	638,000000	0,000000	2020-10-29T19:39:58:931
99,000000	0,000000	638,000000	0,000000	2020-10-29T19:39:58:970
99,000000	0,000000	638,000000	0,000000	2020-10-29T19:39:59:010
99,000000	0,000000	638,000000	0,000000	2020-10-29T19:39:59:050
99,000000	0,000000	638,000000	0,000000	2020-10-29T19:39:59:090
99,000000	0,000000	638,000000	0,000000	2020-10-29T19:39:59:130
99,000000	0,000000	638,000000	0,000000	2020-10-29T19:39:59:170
99,000000	0,000000	638,000000	0,000000	2020-10-29T19:39:59:211
99,000000	0,000000	638,000000	0,000000	2020-10-29T19:39:59:250
99,000000	0,000000	638,000000	0,000000	2020-10-29T19:39:59:291
99,000000	0,000000	638,000000	0,000000	2020-10-29T19:39:59:330
99,000000	0,000000	638,000000	0,000000	2020-10-29T19:39:59:371
99,000000	0,000000	638,000000	0,000000	2020-10-29T19:39:59:412
99,000000	0,000000	638,000000	0,000000	2020-10-29T19:39:59:451
99,000000	0,000000	638,000000	0,000000	2020-10-29T19:39:59:489
99,000000	0,000000	638,000000	0,000000	2020-10-29T19:39:59:531
99,000000	0,000000	638,000000	0,000000	2020-10-29T19:39:59:570
100,000000	0,000000	638,000000	0,000000	2020-10-29T19:39:59:611
100,000000	0,000000	638,000000	0,000000	2020-10-29T19:39:59:652
100,000000	0,000000	638,000000	0,000000	2020-10-29T19:39:59:692
99,000000	0,000000	638,000000	0,000000	2020-10-29T19:39:59:730
100,000000	0,000000	638,000000	0,000000	2020-10-29T19:39:59:771
100,000000	0,000000	638,000000	0,000000	2020-10-29T19:39:59:810
100,000000	0,000000	575,000000	0,000000	2020-10-29T19:39:59:851
100,000000	0,000000	575,000000	0,000000	2020-10-29T19:39:59:899
100,000000	0,000000	575,000000	0,000000	2020-10-29T19:39:59:930
100,000000	0,000000	575,000000	0,000000	2020-10-29T19:39:59:970
100,000000	0,000000	575,000000	0,000000	2020-10-29T19:40:00:012
100,000000	0,000000	575,000000	0,000000	2020-10-29T19:40:00:050
100,000000	0,000000	575,000000	0,000000	2020-10-29T19:40:00:091
100,000000	0,000000	575,000000	0,000000	2020-10-29T19:40:00:131
100,000000	0,000000	575,000000	0,000000	2020-10-29T19:40:00:171
100,000000	0,000000	575,000000	0,000000	2020-10-29T19:40:00:210
100,000000	0,000000	575,000000	0,000000	2020-10-29T19:40:00:252
100,000000	0,000000	575,000000	0,000000	2020-10-29T19:40:00:291
100,000000	0,000000	575,000000	0,000000	2020-10-29T19:40:00:332
100,000000	0,000000	575,000000	0,000000	2020-10-29T19:40:00:372
100,000000	0,000000	575,000000	0,000000	2020-10-29T19:40:00:412
100,000000	0,000000	575,000000	0,000000	2020-10-29T19:40:00:450
100,000000	0,000000	575,000000	0,000000	2020-10-29T19:40:00:492
100,000000	0,000000	575,000000	0,000000	2020-10-29T19:40:00:531
100,000000	0,000000	575,000000	0,000000	2020-10-29T19:40:00:572
100,000000	0,000000	575,000000	0,000000	2020-10-29T19:40:00:613
100,000000	0,000000	575,000000	0,000000	2020-10-29T19:40:00:652
100,000000	0,000000	575,000000	0,000000	2020-10-29T19:40:00:690
100,000000	0,000000	575,000000	0,000000	2020-10-29T19:40:00:732
100,000000	0,000000	575,000000	0,000000	2020-10-29T19:40:00:771
100,000000	0,000000	575,000000	0,000000	2020-10-29T19:40:00:812
100,000000	0,000000	575,000000	0,000000	2020-10-29T19:40:00:853
100,000000	0,000000	575,000000	0,000000	2020-10-29T19:40:00:892
100,000000	0,000000	575,000000	0,000000	2020-10-29T19:40:00:931
100,000000	0,000000	575,000000	0,000000	2020-10-29T19:40:00:972
100,000000	0,000000	575,000000	0,000000	2020-10-29T19:40:01:013
100,000000	0,000000	575,000000	0,000000	2020-10-29T19:40:01:073
100,000000	0,000000	575,000000	0,000000	2020-10-29T19:40:01:098
100,000000	0,000000	575,000000	0,000000	2020-10-29T19:40:01:169
100,000000	0,000000	575,000000	0,000000	2020-10-29T19:40:01:176
100,000000	0,000000	575,000000	0,000000	2020-10-29T19:40:01:214
100,000000	0,000000	575,000000	0,000000	2020-10-29T19:40:01:249
100,000000	0,000000	575,000000	0,000000	2020-10-29T19:40:01:291
100,000000	0,000000	575,000000	0,000000	2020-10-29T19:40:01:331
100,000000	0,000000	575,000000	0,000000	2020-10-29T19:40:01:371
100,000000	0,000000	575,000000	0,000000	2020-10-29T19:40:01:408
100,000000	0,000000	575,000000	0,000000	2020-10-29T19:40:01:450
100,000000	0,000000	575,000000	0,000000	2020-10-29T19:40:01:490
100,000000	0,000000	575,000000	0,000000	2020-10-29T19:40:01:531
99,000000	0,000000	650,000000	0,000000	2020-10-29T19:40:05:224
99,000000	0,000000	650,000000	0,000000	2020-10-29T19:40:05:225
99,000000	0,000000	650,000000	0,000000	2020-10-29T19:40:05:226
99,000000	0,000000	650,000000	0,000000	2020-10-29T19:40:05:228
99,000000	0,000000	650,000000	0,000000	2020-10-29T19:40:05:242
99,000000	0,000000	650,000000	0,000000	2020-10-29T19:40:05:283
99,000000	0,000000	650,000000	0,000000	2020-10-29T19:40:05:322
99,000000	0,000000	647,000000	0,000000	2020-10-29T19:40:05:363
99,000000	0,000000	647,000000	0,000000	2020-10-29T19:40:05:403
99,000000	0,000000	647,000000	0,000000	2020-10-29T19:40:05:443
99,000000	0,000000	647,000000	0,000000	2020-10-29T19:40:05:483
98,000000	0,000000	647,000000	0,000000	2020-10-29T19:40:05:524
98,000000	0,000000	647,000000	0,000000	2020-10-29T19:40:05:565
98,000000	0,000000	647,000000	0,000000	2020-10-29T19:40:05:605
98,000000	0,000000	647,000000	0,000000	2020-10-29T19:40:05:643
98,000000	0,000000	647,000000	0,000000	2020-10-29T19:40:05:684
98,000000	0,000000	647,000000	0,000000	2020-10-29T19:40:05:723
98,000000	0,000000	647,000000	0,000000	2020-10-29T19:40:05:764
98,000000	0,000000	647,000000	0,000000	2020-10-29T19:40:05:805
98,000000	0,000000	647,000000	0,000000	2020-10-29T19:40:05:844
98,000000	0,000000	647,000000	0,000000	2020-10-29T19:40:05:883
98,000000	0,000000	647,000000	0,000000	2020-10-29T19:40:05:925
98,000000	0,000000	647,000000	0,000000	2020-10-29T19:40:05:963
98,000000	0,000000	647,000000	0,000000	2020-10-29T19:40:06:004
98,000000	0,000000	647,000000	0,000000	2020-10-29T19:40:06:044
98,000000	0,000000	647,000000	0,000000	2020-10-29T19:40:06:084
98,000000	0,000000	647,000000	0,000000	2020-10-29T19:40:06:127
98,000000	0,000000	647,000000	0,000000	2020-10-29T19:40:06:199
98,000000	0,000000	647,000000	0,000000	2020-10-29T19:40:06:218
98,000000	0,000000	647,000000	0,000000	2020-10-29T19:40:06:245
98,000000	0,000000	647,000000	0,000000	2020-10-29T19:40:06:286
98,000000	0,000000	647,000000	0,000000	2020-10-29T19:40:06:327
98,000000	0,000000	647,000000	0,000000	2020-10-29T19:40:06:364
98,000000	0,000000	647,000000	0,000000	2020-10-29T19:40:06:406
98,000000	0,000000	647,000000	0,000000	2020-10-29T19:40:06:444
98,000000	0,000000	647,000000	0,000000	2020-10-29T19:40:06:484
98,000000	0,000000	647,000000	0,000000	2020-10-29T19:40:06:529
98,000000	0,000000	647,000000	0,000000	2020-10-29T19:40:06:566
98,000000	0,000000	647,000000	0,000000	2020-10-29T19:40:06:605
98,000000	0,000000	647,000000	0,000000	2020-10-29T19:40:06:646
98,000000	0,000000	647,000000	0,000000	2020-10-29T19:40:06:685
98,000000	0,000000	647,000000	0,000000	2020-10-29T19:40:06:727
98,000000	0,000000	647,000000	0,000000	2020-10-29T19:40:06:766
98,000000	0,000000	647,000000	0,000000	2020-10-29T19:40:06:806
98,000000	0,000000	647,000000	0,000000	2020-10-29T19:40:06:845
98,000000	0,000000	647,000000	0,000000	2020-10-29T19:40:06:886
98,000000	0,000000	647,000000	0,000000	2020-10-29T19:40:06:926
98,000000	0,000000	647,000000	0,000000	2020-10-29T19:40:06:967
98,000000	0,000000	647,000000	0,000000	2020-10-29T19:40:07:008
98,000000	0,000000	647,000000	0,000000	2020-10-29T19:40:07:054
98,000000	0,000000	647,000000	0,000000	2020-10-29T19:40:07:089
98,000000	0,000000	647,000000	0,000000	2020-10-29T19:40:07:126
98,000000	0,000000	647,000000	0,000000	2020-10-29T19:40:07:165
98,000000	0,000000	647,000000	0,000000	2020-10-29T19:40:07:207
98,000000	0,000000	647,000000	0,000000	2020-10-29T19:40:07:247
98,000000	0,000000	647,000000	0,000000	2020-10-29T19:40:07:287
98,000000	0,000000	647,000000	0,000000	2020-10-29T19:40:07:327
98,000000	0,000000	647,000000	0,000000	2020-10-29T19:40:07:367
98,000000	0,000000	647,000000	0,000000	2020-10-29T19:40:07:406
98,000000	0,000000	647,000000	0,000000	2020-10-29T19:40:07:447
98,000000	0,000000	647,000000	0,000000	2020-10-29T19:40:07:488
98,000000	0,000000	647,000000	0,000000	2020-10-29T19:40:07:527
98,000000	0,000000	647,000000	0,000000	2020-10-29T19:40:07:566
98,000000	0,000000	647,000000	0,000000	2020-10-29T19:40:07:609
98,000000	0,000000	647,000000	0,000000	2020-10-29T19:40:07:647
98,000000	0,000000	647,000000	0,000000	2020-10-29T19:40:07:687
97,000000	0,000000	647,000000	0,000000	2020-10-29T19:40:07:728
97,000000	0,000000	647,000000	0,000000	2020-10-29T19:40:07:768
97,000000	0,000000	647,000000	0,000000	2020-10-29T19:40:07:807
97,000000	0,000000	647,000000	0,000000	2020-10-29T19:40:07:848
97,000000	0,000000	647,000000	0,000000	2020-10-29T19:40:07:887
97,000000	0,000000	647,000000	0,000000	2020-10-29T19:40:07:928
97,000000	0,000000	647,000000	0,000000	2020-10-29T19:40:07:969
97,000000	0,000000	647,000000	0,000000	2020-10-29T19:40:08:008
97,000000	0,000000	647,000000	0,000000	2020-10-29T19:40:08:047
97,000000	0,000000	647,000000	0,000000	2020-10-29T19:40:08:088
97,000000	0,000000	647,000000	0,000000	2020-10-29T19:40:08:127
97,000000	0,000000	647,000000	0,000000	2020-10-29T19:40:08:169
97,000000	0,000000	647,000000	0,000000	2020-10-29T19:40:08:213
97,000000	0,000000	647,000000	0,000000	2020-10-29T19:40:08:266
97,000000	0,000000	647,000000	0,000000	2020-10-29T19:40:08:290
97,000000	0,000000	647,000000	0,000000	2020-10-29T19:40:08:329
97,000000	0,000000	647,000000	0,000000	2020-10-29T19:40:08:367
97,000000	0,000000	647,000000	0,000000	2020-10-29T19:40:08:409
97,000000	0,000000	647,000000	0,000000	2020-10-29T19:40:08:452
97,000000	0,000000	647,000000	0,000000	2020-10-29T19:40:08:491
97,000000	0,000000	647,000000	0,000000	2020-10-29T19:40:08:575
97,000000	0,000000	647,000000	0,000000	2020-10-29T19:40:08:617
97,000000	0,000000	647,000000	0,000000	2020-10-29T19:40:08:649
98,000000	0,000000	647,000000	0,000000	2020-10-29T19:40:08:690
98,000000	0,000000	647,000000	0,000000	2020-10-29T19:40:08:729
97,000000	0,000000	647,000000	0,000000	2020-10-29T19:40:08:768
97,000000	0,000000	647,000000	0,000000	2020-10-29T19:40:08:809
97,000000	0,000000	647,000000	0,000000	2020-10-29T19:40:08:848
97,000000	0,000000	647,000000	0,000000	2020-10-29T19:40:08:889
97,000000	0,000000	647,000000	0,000000	2020-10-29T19:40:08:930
97,000000	0,000000	647,000000	0,000000	2020-10-29T19:40:08:969
97,000000	0,000000	647,000000	0,000000	2020-10-29T19:40:09:008
97,000000	0,000000	647,000000	0,000000	2020-10-29T19:40:09:049
97,000000	0,000000	647,000000	0,000000	2020-10-29T19:40:09:088
97,000000	0,000000	647,000000	0,000000	2020-10-29T19:40:09:129
97,000000	0,000000	647,000000	0,000000	2020-10-29T19:40:09:170
97,000000	0,000000	647,000000	0,000000	2020-10-29T19:40:09:210
97,000000	0,000000	647,000000	0,000000	2020-10-29T19:40:09:248
97,000000	0,000000	647,000000	0,000000	2020-10-29T19:40:09:289
97,000000	0,000000	647,000000	0,000000	2020-10-29T19:40:09:328
97,000000	0,000000	647,000000	0,000000	2020-10-29T19:40:09:369
97,000000	0,000000	647,000000	0,000000	2020-10-29T19:40:09:411
97,000000	0,000000	647,000000	0,000000	2020-10-29T19:40:09:449
97,000000	0,000000	647,000000	0,000000	2020-10-29T19:40:09:489
97,000000	0,000000	647,000000	0,000000	2020-10-29T19:40:09:529
97,000000	0,000000	647,000000	0,000000	2020-10-29T19:40:09:569
97,000000	0,000000	647,000000	0,000000	2020-10-29T19:40:09:615
98,000000	0,000000	647,000000	0,000000	2020-10-29T19:40:09:650
98,000000	0,000000	647,000000	0,000000	2020-10-29T19:40:09:689
98,000000	0,000000	647,000000	0,000000	2020-10-29T19:40:09:728
98,000000	0,000000	647,000000	0,000000	2020-10-29T19:40:09:770
98,000000	0,000000	647,000000	0,000000	2020-10-29T19:40:09:809
98,000000	0,000000	647,000000	0,000000	2020-10-29T19:40:09:849
98,000000	0,000000	647,000000	0,000000	2020-10-29T19:40:09:891
98,000000	0,000000	647,000000	0,000000	2020-10-29T19:40:09:930
98,000000	0,000000	647,000000	0,000000	2020-10-29T19:40:09:969
98,000000	0,000000	647,000000	0,000000	2020-10-29T19:40:10:011
98,000000	0,000000	647,000000	0,000000	2020-10-29T19:40:10:049
98,000000	0,000000	647,000000	0,000000	2020-10-29T19:40:10:090
98,000000	0,000000	647,000000	0,000000	2020-10-29T19:40:10:133
98,000000	0,000000	647,000000	0,000000	2020-10-29T19:40:10:170
98,000000	0,000000	647,000000	0,000000	2020-10-29T19:40:10:210
98,000000	0,000000	647,000000	0,000000	2020-10-29T19:40:10:250
98,000000	0,000000	647,000000	0,000000	2020-10-29T19:40:10:289
98,000000	0,000000	647,000000	0,000000	2020-10-29T19:40:10:330
98,000000	0,000000	647,000000	0,000000	2020-10-29T19:40:10:371
98,000000	0,000000	647,000000	0,000000	2020-10-29T19:40:10:411
98,000000	0,000000	647,000000	0,000000	2020-10-29T19:40:10:450
98,000000	0,000000	647,000000	0,000000	2020-10-29T19:40:10:491
98,000000	0,000000	647,000000	0,000000	2020-10-29T19:40:10:529
98,000000	0,000000	647,000000	0,000000	2020-10-29T19:40:10:576
98,000000	0,000000	640,000000	0,000000	2020-10-29T19:40:16:104
98,000000	0,000000	640,000000	0,000000	2020-10-29T19:40:16:118
98,000000	0,000000	640,000000	0,000000	2020-10-29T19:40:16:149
98,000000	0,000000	640,000000	0,000000	2020-10-29T19:40:16:189
98,000000	0,000000	640,000000	0,000000	2020-10-29T19:40:16:230
98,000000	0,000000	640,000000	0,000000	2020-10-29T19:40:16:269
98,000000	0,000000	640,000000	0,000000	2020-10-29T19:40:16:312
98,000000	0,000000	640,000000	0,000000	2020-10-29T19:40:16:352
98,000000	0,000000	640,000000	0,000000	2020-10-29T19:40:16:390
98,000000	0,000000	640,000000	0,000000	2020-10-29T19:40:16:431
98,000000	0,000000	640,000000	0,000000	2020-10-29T19:40:16:471
98,000000	0,000000	640,000000	0,000000	2020-10-29T19:40:16:509
98,000000	0,000000	640,000000	0,000000	2020-10-29T19:40:16:551
98,000000	0,000000	640,000000	0,000000	2020-10-29T19:40:16:591
98,000000	0,000000	640,000000	0,000000	2020-10-29T19:40:16:630
98,000000	0,000000	640,000000	0,000000	2020-10-29T19:40:16:670
98,000000	0,000000	640,000000	0,000000	2020-10-29T19:40:16:711
98,000000	0,000000	640,000000	0,000000	2020-10-29T19:40:16:749
98,000000	0,000000	640,000000	0,000000	2020-10-29T19:40:16:791
98,000000	0,000000	640,000000	0,000000	2020-10-29T19:40:16:832
98,000000	0,000000	640,000000	0,000000	2020-10-29T19:40:16:871
98,000000	0,000000	640,000000	0,000000	2020-10-29T19:40:16:910
98,000000	0,000000	640,000000	0,000000	2020-10-29T19:40:16:950
98,000000	0,000000	640,000000	0,000000	2020-10-29T19:40:16:989
98,000000	0,000000	640,000000	0,000000	2020-10-29T19:40:17:030
99,000000	0,000000	640,000000	0,000000	2020-10-29T19:40:17:072
99,000000	0,000000	640,000000	0,000000	2020-10-29T19:40:17:111
98,000000	0,000000	640,000000	0,000000	2020-10-29T19:40:17:149
98,000000	0,000000	640,000000	0,000000	2020-10-29T19:40:17:191
99,000000	0,000000	640,000000	0,000000	2020-10-29T19:40:17:230
99,000000	0,000000	640,000000	0,000000	2020-10-29T19:40:17:271
99,000000	0,000000	640,000000	0,000000	2020-10-29T19:40:17:311
99,000000	0,000000	640,000000	0,000000	2020-10-29T19:40:17:351
99,000000	0,000000	640,000000	0,000000	2020-10-29T19:40:17:390
99,000000	0,000000	640,000000	0,000000	2020-10-29T19:40:17:431
99,000000	0,000000	640,000000	0,000000	2020-10-29T19:40:17:470
99,000000	0,000000	640,000000	0,000000	2020-10-29T19:40:17:511
99,000000	0,000000	640,000000	0,000000	2020-10-29T19:40:17:553
99,000000	0,000000	640,000000	0,000000	2020-10-29T19:40:17:591
99,000000	0,000000	640,000000	0,000000	2020-10-29T19:40:17:630
99,000000	0,000000	640,000000	0,000000	2020-10-29T19:40:17:671
99,000000	0,000000	640,000000	0,000000	2020-10-29T19:40:17:710
99,000000	0,000000	640,000000	0,000000	2020-10-29T19:40:17:751
99,000000	0,000000	640,000000	0,000000	2020-10-29T19:40:17:793
99,000000	0,000000	640,000000	0,000000	2020-10-29T19:40:17:831
99,000000	0,000000	640,000000	0,000000	2020-10-29T19:40:17:871
99,000000	0,000000	640,000000	0,000000	2020-10-29T19:40:17:911
99,000000	0,000000	640,000000	0,000000	2020-10-29T19:40:17:952
99,000000	0,000000	640,000000	0,000000	2020-10-29T19:40:17:992
99,000000	0,000000	640,000000	0,000000	2020-10-29T19:40:18:032
99,000000	0,000000	640,000000	0,000000	2020-10-29T19:40:18:072
99,000000	0,000000	640,000000	0,000000	2020-10-29T19:40:18:111
99,000000	0,000000	640,000000	0,000000	2020-10-29T19:40:18:151
99,000000	0,000000	640,000000	0,000000	2020-10-29T19:40:18:190
99,000000	0,000000	640,000000	0,000000	2020-10-29T19:40:18:232
99,000000	0,000000	640,000000	0,000000	2020-10-29T19:40:18:273
99,000000	0,000000	640,000000	0,000000	2020-10-29T19:40:18:311
99,000000	0,000000	640,000000	0,000000	2020-10-29T19:40:18:351
99,000000	0,000000	640,000000	0,000000	2020-10-29T19:40:18:392
99,000000	0,000000	640,000000	0,000000	2020-10-29T19:40:18:431
99,000000	0,000000	640,000000	0,000000	2020-10-29T19:40:18:472
99,000000	0,000000	640,000000	0,000000	2020-10-29T19:40:18:513
98,000000	0,000000	640,000000	0,000000	2020-10-29T19:40:18:552
99,000000	0,000000	640,000000	0,000000	2020-10-29T19:40:18:591
99,000000	0,000000	640,000000	0,000000	2020-10-29T19:40:18:632
99,000000	0,000000	640,000000	0,000000	2020-10-29T19:40:18:672
99,000000	0,000000	640,000000	0,000000	2020-10-29T19:40:18:712
99,000000	0,000000	640,000000	0,000000	2020-10-29T19:40:18:753
99,000000	0,000000	640,000000	0,000000	2020-10-29T19:40:18:791
99,000000	0,000000	640,000000	0,000000	2020-10-29T19:40:18:831
99,000000	0,000000	640,000000	0,000000	2020-10-29T19:40:18:873
99,000000	0,000000	640,000000	0,000000	2020-10-29T19:40:18:912
98,000000	0,000000	640,000000	0,000000	2020-10-29T19:40:18:951
98,000000	0,000000	640,000000	0,000000	2020-10-29T19:40:18:993
99,000000	0,000000	640,000000	0,000000	2020-10-29T19:40:19:032
99,000000	0,000000	640,000000	0,000000	2020-10-29T19:40:19:072
98,000000	0,000000	640,000000	0,000000	2020-10-29T19:40:19:113
98,000000	0,000000	640,000000	0,000000	2020-10-29T19:40:19:151
98,000000	0,000000	640,000000	0,000000	2020-10-29T19:40:19:192
98,000000	0,000000	645,000000	0,000000	2020-10-29T19:40:19:233
98,000000	0,000000	645,000000	0,000000	2020-10-29T19:40:19:273
98,000000	0,000000	645,000000	0,000000	2020-10-29T19:40:19:312
98,000000	0,000000	645,000000	0,000000	2020-10-29T19:40:19:352
98,000000	0,000000	645,000000	0,000000	2020-10-29T19:40:19:391
98,000000	0,000000	645,000000	0,000000	2020-10-29T19:40:19:432
98,000000	0,000000	645,000000	0,000000	2020-10-29T19:40:19:474
98,000000	0,000000	645,000000	0,000000	2020-10-29T19:40:19:513
98,000000	0,000000	645,000000	0,000000	2020-10-29T19:40:19:552
98,000000	0,000000	645,000000	0,000000	2020-10-29T19:40:19:593
98,000000	0,000000	645,000000	0,000000	2020-10-29T19:40:19:632
98,000000	0,000000	645,000000	0,000000	2020-10-29T19:40:19:673
98,000000	0,000000	645,000000	0,000000	2020-10-29T19:40:19:714
98,000000	0,000000	645,000000	0,000000	2020-10-29T19:40:19:753
98,000000	0,000000	645,000000	0,000000	2020-10-29T19:40:19:792
98,000000	0,000000	645,000000	0,000000	2020-10-29T19:40:19:833
98,000000	0,000000	645,000000	0,000000	2020-10-29T19:40:19:872
98,000000	0,000000	645,000000	0,000000	2020-10-29T19:40:19:913
98,000000	0,000000	645,000000	0,000000	2020-10-29T19:40:19:952
98,000000	0,000000	645,000000	0,000000	2020-10-29T19:40:19:993
98,000000	0,000000	645,000000	0,000000	2020-10-29T19:40:20:032
98,000000	0,000000	645,000000	0,000000	2020-10-29T19:40:20:074
98,000000	0,000000	645,000000	0,000000	2020-10-29T19:40:20:113
98,000000	0,000000	645,000000	0,000000	2020-10-29T19:40:20:154
98,000000	0,000000	645,000000	0,000000	2020-10-29T19:40:20:194
98,000000	0,000000	645,000000	0,000000	2020-10-29T19:40:20:233
98,000000	0,000000	645,000000	0,000000	2020-10-29T19:40:20:273
98,000000	0,000000	645,000000	0,000000	2020-10-29T19:40:20:314
98,000000	0,000000	645,000000	0,000000	2020-10-29T19:40:20:353
98,000000	0,000000	645,000000	0,000000	2020-10-29T19:40:20:394
98,000000	0,000000	645,000000	0,000000	2020-10-29T19:40:20:436
98,000000	0,000000	645,000000	0,000000	2020-10-29T19:40:20:474
98,000000	0,000000	645,000000	0,000000	2020-10-29T19:40:20:513
98,000000	0,000000	645,000000	0,000000	2020-10-29T19:40:20:554
98,000000	0,000000	645,000000	0,000000	2020-10-29T19:40:20:593
98,000000	0,000000	705,000000	0,000000	2020-10-29T19:40:20:634
98,000000	0,000000	705,000000	0,000000	2020-10-29T19:40:20:675
98,000000	0,000000	705,000000	0,000000	2020-10-29T19:40:20:714
98,000000	0,000000	705,000000	0,000000	2020-10-29T19:40:20:753
98,000000	0,000000	705,000000	0,000000	2020-10-29T19:40:20:794
98,000000	0,000000	705,000000	0,000000	2020-10-29T19:40:20:833
98,000000	0,000000	705,000000	0,000000	2020-10-29T19:40:20:875
98,000000	0,000000	705,000000	0,000000	2020-10-29T19:40:20:915
98,000000	0,000000	705,000000	0,000000	2020-10-29T19:40:20:954
98,000000	0,000000	705,000000	0,000000	2020-10-29T19:40:20:993
98,000000	0,000000	705,000000	0,000000	2020-10-29T19:40:21:034
98,000000	0,000000	705,000000	0,000000	2020-10-29T19:40:21:074
98,000000	0,000000	705,000000	0,000000	2020-10-29T19:40:21:188
98,000000	0,000000	705,000000	0,000000	2020-10-29T19:40:21:190
98,000000	0,000000	705,000000	0,000000	2020-10-29T19:40:21:196
98,000000	0,000000	705,000000	0,000000	2020-10-29T19:40:21:234
98,000000	0,000000	705,000000	0,000000	2020-10-29T19:40:21:275
98,000000	0,000000	705,000000	0,000000	2020-10-29T19:40:21:314
98,000000	0,000000	705,000000	0,000000	2020-10-29T19:40:21:355
98,000000	0,000000	705,000000	0,000000	2020-10-29T19:40:21:396
98,000000	0,000000	705,000000	0,000000	2020-10-29T19:40:21:435
98,000000	0,000000	705,000000	0,000000	2020-10-29T19:40:21:474
98,000000	0,000000	705,000000	0,000000	2020-10-29T19:40:21:515
98,000000	0,000000	705,000000	0,000000	2020-10-29T19:40:21:554
98,000000	0,000000	705,000000	0,000000	2020-10-29T19:40:21:596
98,000000	0,000000	705,000000	0,000000	2020-10-29T19:40:21:636
98,000000	0,000000	705,000000	0,000000	2020-10-29T19:40:21:675
98,000000	0,000000	705,000000	0,000000	2020-10-29T19:40:21:713
98,000000	0,000000	705,000000	0,000000	2020-10-29T19:40:21:755
98,000000	0,000000	705,000000	0,000000	2020-10-29T19:40:21:794
98,000000	0,000000	705,000000	0,000000	2020-10-29T19:40:21:835
98,000000	0,000000	705,000000	0,000000	2020-10-29T19:40:21:876
99,000000	0,000000	705,000000	0,000000	2020-10-29T19:40:21:915
99,000000	0,000000	705,000000	0,000000	2020-10-29T19:40:21:954
99,000000	0,000000	705,000000	0,000000	2020-10-29T19:40:21:996
99,000000	0,000000	705,000000	0,000000	2020-10-29T19:40:22:034
99,000000	0,000000	705,000000	0,000000	2020-10-29T19:40:22:076
99,000000	0,000000	705,000000	0,000000	2020-10-29T19:40:22:117
99,000000	0,000000	705,000000	0,000000	2020-10-29T19:40:22:155
99,000000	0,000000	705,000000	0,000000	2020-10-29T19:40:22:194
99,000000	0,000000	705,000000	0,000000	2020-10-29T19:40:22:235
99,000000	0,000000	705,000000	0,000000	2020-10-29T19:40:22:275
99,000000	0,000000	705,000000	0,000000	2020-10-29T19:40:22:316
99,000000	0,000000	705,000000	0,000000	2020-10-29T19:40:22:357
99,000000	0,000000	705,000000	0,000000	2020-10-29T19:40:22:396
99,000000	0,000000	705,000000	0,000000	2020-10-29T19:40:22:434
98,000000	0,000000	705,000000	0,000000	2020-10-29T19:40:22:476
98,000000	0,000000	705,000000	0,000000	2020-10-29T19:40:22:515
98,000000	0,000000	705,000000	0,000000	2020-10-29T19:40:22:556
99,000000	0,000000	705,000000	0,000000	2020-10-29T19:40:22:594
99,000000	0,000000	705,000000	0,000000	2020-10-29T19:40:22:636
99,000000	0,000000	705,000000	0,000000	2020-10-29T19:40:22:676
99,000000	0,000000	705,000000	0,000000	2020-10-29T19:40:22:716
99,000000	0,000000	705,000000	0,000000	2020-10-29T19:40:22:755
99,000000	0,000000	705,000000	0,000000	2020-10-29T19:40:22:797
99,000000	0,000000	705,000000	0,000000	2020-10-29T19:40:22:837
99,000000	0,000000	705,000000	0,000000	2020-10-29T19:40:22:877
99,000000	0,000000	705,000000	0,000000	2020-10-29T19:40:22:915
99,000000	0,000000	705,000000	0,000000	2020-10-29T19:40:22:956
99,000000	0,000000	705,000000	0,000000	2020-10-29T19:40:22:995
99,000000	0,000000	705,000000	0,000000	2020-10-29T19:40:23:037
99,000000	0,000000	705,000000	0,000000	2020-10-29T19:40:23:079
99,000000	0,000000	705,000000	0,000000	2020-10-29T19:40:23:117
99,000000	0,000000	705,000000	0,000000	2020-10-29T19:40:23:155
99,000000	0,000000	705,000000	0,000000	2020-10-29T19:40:23:196
99,000000	0,000000	705,000000	0,000000	2020-10-29T19:40:23:235
99,000000	0,000000	705,000000	0,000000	2020-10-29T19:40:23:277
99,000000	0,000000	705,000000	0,000000	2020-10-29T19:40:23:315
99,000000	0,000000	705,000000	0,000000	2020-10-29T19:40:23:356
99,000000	0,000000	705,000000	0,000000	2020-10-29T19:40:23:396
99,000000	0,000000	638,000000	0,000000	2020-10-29T19:40:23:437
99,000000	0,000000	638,000000	0,000000	2020-10-29T19:40:23:475
99,000000	0,000000	638,000000	0,000000	2020-10-29T19:40:23:516
99,000000	0,000000	638,000000	0,000000	2020-10-29T19:40:23:557
99,000000	0,000000	638,000000	0,000000	2020-10-29T19:40:23:596
99,000000	0,000000	638,000000	0,000000	2020-10-29T19:40:23:636
99,000000	0,000000	638,000000	0,000000	2020-10-29T19:40:23:676
99,000000	0,000000	638,000000	0,000000	2020-10-29T19:40:23:715
99,000000	0,000000	638,000000	0,000000	2020-10-29T19:40:23:756
99,000000	0,000000	638,000000	0,000000	2020-10-29T19:40:23:797
99,000000	0,000000	638,000000	0,000000	2020-10-29T19:40:23:836
99,000000	0,000000	638,000000	0,000000	2020-10-29T19:40:23:876
99,000000	0,000000	638,000000	0,000000	2020-10-29T19:40:23:917
99,000000	0,000000	638,000000	0,000000	2020-10-29T19:40:23:956
99,000000	0,000000	638,000000	0,000000	2020-10-29T19:40:23:997
99,000000	0,000000	638,000000	0,000000	2020-10-29T19:40:24:038
99,000000	0,000000	638,000000	0,000000	2020-10-29T19:40:24:077
99,000000	0,000000	638,000000	0,000000	2020-10-29T19:40:24:116
99,000000	0,000000	638,000000	0,000000	2020-10-29T19:40:24:157
99,000000	0,000000	638,000000	0,000000	2020-10-29T19:40:24:196
99,000000	0,000000	638,000000	0,000000	2020-10-29T19:40:24:237
99,000000	0,000000	638,000000	0,000000	2020-10-29T19:40:24:278
99,000000	0,000000	638,000000	0,000000	2020-10-29T19:40:24:318
99,000000	0,000000	638,000000	0,000000	2020-10-29T19:40:24:356
99,000000	0,000000	638,000000	0,000000	2020-10-29T19:40:24:396
99,000000	0,000000	638,000000	0,000000	2020-10-29T19:40:24:437
99,000000	0,000000	638,000000	0,000000	2020-10-29T19:40:24:477
99,000000	0,000000	638,000000	0,000000	2020-10-29T19:40:24:518
99,000000	0,000000	638,000000	0,000000	2020-10-29T19:40:24:557
99,000000	0,000000	638,000000	0,000000	2020-10-29T19:40:24:596
99,000000	0,000000	638,000000	0,000000	2020-10-29T19:40:24:638
99,000000	0,000000	638,000000	0,000000	2020-10-29T19:40:24:677
99,000000	0,000000	638,000000	0,000000	2020-10-29T19:40:24:717
99,000000	0,000000	638,000000	0,000000	2020-10-29T19:40:24:759
99,000000	0,000000	638,000000	0,000000	2020-10-29T19:40:24:799
99,000000	0,000000	638,000000	0,000000	2020-10-29T19:40:24:837
99,000000	0,000000	638,000000	0,000000	2020-10-29T19:40:24:878
99,000000	0,000000	638,000000	0,000000	2020-10-29T19:40:24:917
99,000000	0,000000	638,000000	0,000000	2020-10-29T19:40:24:958
99,000000	0,000000	638,000000	0,000000	2020-10-29T19:40:24:997
99,000000	0,000000	638,000000	0,000000	2020-10-29T19:40:25:038
99,000000	0,000000	638,000000	0,000000	2020-10-29T19:40:25:077
99,000000	0,000000	638,000000	0,000000	2020-10-29T19:40:25:118
99,000000	0,000000	638,000000	0,000000	2020-10-29T19:40:25:157
99,000000	0,000000	638,000000	0,000000	2020-10-29T19:40:25:198
99,000000	0,000000	638,000000	0,000000	2020-10-29T19:40:25:239
99,000000	0,000000	638,000000	0,000000	2020-10-29T19:40:25:278
99,000000	0,000000	638,000000	0,000000	2020-10-29T19:40:25:316
99,000000	0,000000	638,000000	0,000000	2020-10-29T19:40:25:358
99,000000	0,000000	638,000000	0,000000	2020-10-29T19:40:25:397
99,000000	0,000000	652,000000	0,000000	2020-10-29T19:40:25:438
99,000000	0,000000	652,000000	0,000000	2020-10-29T19:40:25:480
99,000000	0,000000	652,000000	0,000000	2020-10-29T19:40:25:518
98,000000	0,000000	652,000000	0,000000	2020-10-29T19:40:25:558
98,000000	0,000000	652,000000	0,000000	2020-10-29T19:40:25:599
98,000000	0,000000	652,000000	0,000000	2020-10-29T19:40:25:640
98,000000	0,000000	652,000000	0,000000	2020-10-29T19:40:25:679
98,000000	0,000000	652,000000	0,000000	2020-10-29T19:40:25:720
98,000000	0,000000	652,000000	0,000000	2020-10-29T19:40:25:759
98,000000	0,000000	652,000000	0,000000	2020-10-29T19:40:25:798
98,000000	0,000000	652,000000	0,000000	2020-10-29T19:40:25:839
98,000000	0,000000	652,000000	0,000000	2020-10-29T19:40:25:879
98,000000	0,000000	652,000000	0,000000	2020-10-29T19:40:25:920
98,000000	0,000000	652,000000	0,000000	2020-10-29T19:40:25:963
98,000000	0,000000	652,000000	0,000000	2020-10-29T19:40:26:001
98,000000	0,000000	652,000000	0,000000	2020-10-29T19:40:26:039
98,000000	0,000000	652,000000	0,000000	2020-10-29T19:40:26:080
98,000000	0,000000	652,000000	0,000000	2020-10-29T19:40:26:122
98,000000	0,000000	652,000000	0,000000	2020-10-29T19:40:26:160
98,000000	0,000000	652,000000	0,000000	2020-10-29T19:40:26:201
98,000000	0,000000	652,000000	0,000000	2020-10-29T19:40:26:239
98,000000	0,000000	652,000000	0,000000	2020-10-29T19:40:26:279
98,000000	0,000000	652,000000	0,000000	2020-10-29T19:40:26:320
98,000000	0,000000	652,000000	0,000000	2020-10-29T19:40:26:358
98,000000	0,000000	652,000000	0,000000	2020-10-29T19:40:26:399
98,000000	0,000000	652,000000	0,000000	2020-10-29T19:40:26:441
98,000000	0,000000	652,000000	0,000000	2020-10-29T19:40:26:480
98,000000	0,000000	652,000000	0,000000	2020-10-29T19:40:26:520
98,000000	0,000000	652,000000	0,000000	2020-10-29T19:40:26:560
98,000000	0,000000	652,000000	0,000000	2020-10-29T19:40:26:599
98,000000	0,000000	652,000000	0,000000	2020-10-29T19:40:26:640
98,000000	0,000000	652,000000	0,000000	2020-10-29T19:40:26:682
98,000000	0,000000	652,000000	0,000000	2020-10-29T19:40:26:720
98,000000	0,000000	652,000000	0,000000	2020-10-29T19:40:26:759
98,000000	0,000000	652,000000	0,000000	2020-10-29T19:40:26:800
98,000000	0,000000	652,000000	0,000000	2020-10-29T19:40:26:839
98,000000	0,000000	652,000000	0,000000	2020-10-29T19:40:26:880
98,000000	0,000000	652,000000	0,000000	2020-10-29T19:40:26:922
98,000000	0,000000	652,000000	0,000000	2020-10-29T19:40:26:960
98,000000	0,000000	652,000000	0,000000	2020-10-29T19:40:26:999
98,000000	0,000000	652,000000	0,000000	2020-10-29T19:40:27:039
98,000000	0,000000	652,000000	0,000000	2020-10-29T19:40:27:079
98,000000	0,000000	652,000000	0,000000	2020-10-29T19:40:27:120
98,000000	0,000000	652,000000	0,000000	2020-10-29T19:40:27:161
98,000000	0,000000	652,000000	0,000000	2020-10-29T19:40:27:200
98,000000	0,000000	652,000000	0,000000	2020-10-29T19:40:27:239
98,000000	0,000000	652,000000	0,000000	2020-10-29T19:40:27:281
98,000000	0,000000	652,000000	0,000000	2020-10-29T19:40:27:320
98,000000	0,000000	652,000000	0,000000	2020-10-29T19:40:27:360
98,000000	0,000000	652,000000	0,000000	2020-10-29T19:40:27:401
98,000000	0,000000	652,000000	0,000000	2020-10-29T19:40:27:440
98,000000	0,000000	652,000000	0,000000	2020-10-29T19:40:27:480
98,000000	0,000000	652,000000	0,000000	2020-10-29T19:40:27:520
98,000000	0,000000	652,000000	0,000000	2020-10-29T19:40:27:562
98,000000	0,000000	652,000000	0,000000	2020-10-29T19:40:27:600
98,000000	0,000000	652,000000	0,000000	2020-10-29T19:40:27:642
98,000000	0,000000	652,000000	0,000000	2020-10-29T19:40:27:681
98,000000	0,000000	652,000000	0,000000	2020-10-29T19:40:27:720
98,000000	0,000000	652,000000	0,000000	2020-10-29T19:40:27:760
98,000000	0,000000	652,000000	0,000000	2020-10-29T19:40:27:801
98,000000	0,000000	652,000000	0,000000	2020-10-29T19:40:27:841
98,000000	0,000000	652,000000	0,000000	2020-10-29T19:40:27:882
98,000000	0,000000	652,000000	0,000000	2020-10-29T19:40:27:921
98,000000	0,000000	652,000000	0,000000	2020-10-29T19:40:27:960
98,000000	0,000000	652,000000	0,000000	2020-10-29T19:40:28:005
98,000000	0,000000	652,000000	0,000000	2020-10-29T19:40:28:041
98,000000	0,000000	652,000000	0,000000	2020-10-29T19:40:28:081
98,000000	0,000000	652,000000	0,000000	2020-10-29T19:40:28:141
98,000000	0,000000	652,000000	0,000000	2020-10-29T19:40:28:161
98,000000	0,000000	652,000000	0,000000	2020-10-29T19:40:28:200
98,000000	0,000000	652,000000	0,000000	2020-10-29T19:40:28:241
98,000000	0,000000	652,000000	0,000000	2020-10-29T19:40:28:281
98,000000	0,000000	652,000000	0,000000	2020-10-29T19:40:28:321
98,000000	0,000000	652,000000	0,000000	2020-10-29T19:40:28:362
98,000000	0,000000	652,000000	0,000000	2020-10-29T19:40:28:401
98,000000	0,000000	652,000000	0,000000	2020-10-29T19:40:28:441
98,000000	0,000000	652,000000	0,000000	2020-10-29T19:40:28:482
98,000000	0,000000	652,000000	0,000000	2020-10-29T19:40:28:521
98,000000	0,000000	652,000000	0,000000	2020-10-29T19:40:28:562
98,000000	0,000000	652,000000	0,000000	2020-10-29T19:40:28:602
98,000000	0,000000	652,000000	0,000000	2020-10-29T19:40:28:642
97,000000	0,000000	652,000000	0,000000	2020-10-29T19:40:28:682
97,000000	0,000000	652,000000	0,000000	2020-10-29T19:40:28:722
98,000000	0,000000	652,000000	0,000000	2020-10-29T19:40:28:761
98,000000	0,000000	652,000000	0,000000	2020-10-29T19:40:28:802
97,000000	0,000000	652,000000	0,000000	2020-10-29T19:40:28:844
97,000000	0,000000	652,000000	0,000000	2020-10-29T19:40:28:883
98,000000	0,000000	652,000000	0,000000	2020-10-29T19:40:28:921
97,000000	0,000000	652,000000	0,000000	2020-10-29T19:40:28:962
97,000000	0,000000	652,000000	0,000000	2020-10-29T19:40:29:001
97,000000	0,000000	652,000000	0,000000	2020-10-29T19:40:29:042
97,000000	0,000000	652,000000	0,000000	2020-10-29T19:40:29:085
97,000000	0,000000	652,000000	0,000000	2020-10-29T19:40:29:122
97,000000	0,000000	652,000000	0,000000	2020-10-29T19:40:29:161
97,000000	0,000000	652,000000	0,000000	2020-10-29T19:40:29:202
97,000000	0,000000	652,000000	0,000000	2020-10-29T19:40:29:241
97,000000	0,000000	652,000000	0,000000	2020-10-29T19:40:29:283
97,000000	0,000000	652,000000	0,000000	2020-10-29T19:40:29:323
97,000000	0,000000	652,000000	0,000000	2020-10-29T19:40:29:362
97,000000	0,000000	652,000000	0,000000	2020-10-29T19:40:29:402
97,000000	0,000000	652,000000	0,000000	2020-10-29T19:40:29:443
97,000000	0,000000	652,000000	0,000000	2020-10-29T19:40:29:482
97,000000	0,000000	652,000000	0,000000	2020-10-29T19:40:29:523
97,000000	0,000000	652,000000	0,000000	2020-10-29T19:40:29:563
97,000000	0,000000	652,000000	0,000000	2020-10-29T19:40:29:603
97,000000	0,000000	652,000000	0,000000	2020-10-29T19:40:29:642
97,000000	0,000000	652,000000	0,000000	2020-10-29T19:40:29:683
97,000000	0,000000	652,000000	0,000000	2020-10-29T19:40:29:722
97,000000	0,000000	652,000000	0,000000	2020-10-29T19:40:29:763
97,000000	0,000000	652,000000	0,000000	2020-10-29T19:40:29:803
97,000000	0,000000	652,000000	0,000000	2020-10-29T19:40:29:842
97,000000	0,000000	652,000000	0,000000	2020-10-29T19:40:29:882
97,000000	0,000000	652,000000	0,000000	2020-10-29T19:40:29:924
97,000000	0,000000	652,000000	0,000000	2020-10-29T19:40:29:962
97,000000	0,000000	652,000000	0,000000	2020-10-29T19:40:30:003
97,000000	0,000000	652,000000	0,000000	2020-10-29T19:40:30:044
97,000000	0,000000	652,000000	0,000000	2020-10-29T19:40:30:083
97,000000	0,000000	652,000000	0,000000	2020-10-29T19:40:30:123
97,000000	0,000000	652,000000	0,000000	2020-10-29T19:40:30:163
97,000000	0,000000	652,000000	0,000000	2020-10-29T19:40:30:202
96,000000	0,000000	652,000000	0,000000	2020-10-29T19:40:30:243
97,000000	0,000000	652,000000	0,000000	2020-10-29T19:40:30:284
97,000000	0,000000	652,000000	0,000000	2020-10-29T19:40:30:323
97,000000	0,000000	652,000000	0,000000	2020-10-29T19:40:30:362
97,000000	0,000000	652,000000	0,000000	2020-10-29T19:40:30:404
97,000000	0,000000	652,000000	0,000000	2020-10-29T19:40:30:443
97,000000	0,000000	652,000000	0,000000	2020-10-29T19:40:30:484
97,000000	0,000000	652,000000	0,000000	2020-10-29T19:40:30:525
97,000000	0,000000	652,000000	0,000000	2020-10-29T19:40:30:564
97,000000	0,000000	652,000000	0,000000	2020-10-29T19:40:30:603
97,000000	0,000000	652,000000	0,000000	2020-10-29T19:40:30:644
97,000000	0,000000	652,000000	0,000000	2020-10-29T19:40:30:683
96,000000	0,000000	652,000000	0,000000	2020-10-29T19:40:30:724
97,000000	0,000000	652,000000	0,000000	2020-10-29T19:40:30:765
97,000000	0,000000	652,000000	0,000000	2020-10-29T19:40:30:805
97,000000	0,000000	652,000000	0,000000	2020-10-29T19:40:30:843
96,000000	0,000000	652,000000	0,000000	2020-10-29T19:40:30:885
96,000000	0,000000	652,000000	0,000000	2020-10-29T19:40:30:923
96,000000	0,000000	652,000000	0,000000	2020-10-29T19:40:30:964
96,000000	0,000000	652,000000	0,000000	2020-10-29T19:40:31:005
96,000000	0,000000	652,000000	0,000000	2020-10-29T19:40:31:044
96,000000	0,000000	652,000000	0,000000	2020-10-29T19:40:31:084
96,000000	0,000000	652,000000	0,000000	2020-10-29T19:40:31:126
96,000000	0,000000	652,000000	0,000000	2020-10-29T19:40:31:163
96,000000	0,000000	652,000000	0,000000	2020-10-29T19:40:31:204
96,000000	0,000000	652,000000	0,000000	2020-10-29T19:40:31:245
96,000000	0,000000	652,000000	0,000000	2020-10-29T19:40:31:285
96,000000	0,000000	652,000000	0,000000	2020-10-29T19:40:31:324
96,000000	0,000000	652,000000	0,000000	2020-10-29T19:40:31:365
96,000000	0,000000	652,000000	0,000000	2020-10-29T19:40:31:404
96,000000	0,000000	652,000000	0,000000	2020-10-29T19:40:31:444
96,000000	0,000000	652,000000	0,000000	2020-10-29T19:40:31:485
96,000000	0,000000	652,000000	0,000000	2020-10-29T19:40:31:525
96,000000	0,000000	652,000000	0,000000	2020-10-29T19:40:31:564
96,000000	0,000000	652,000000	0,000000	2020-10-29T19:40:31:605
96,000000	0,000000	652,000000	0,000000	2020-10-29T19:40:31:644
96,000000	0,000000	652,000000	0,000000	2020-10-29T19:40:31:685
96,000000	0,000000	652,000000	0,000000	2020-10-29T19:40:31:726
96,000000	0,000000	652,000000	0,000000	2020-10-29T19:40:31:764
96,000000	0,000000	652,000000	0,000000	2020-10-29T19:40:31:804
96,000000	0,000000	652,000000	0,000000	2020-10-29T19:40:31:845
96,000000	0,000000	652,000000	0,000000	2020-10-29T19:40:31:884
96,000000	0,000000	652,000000	0,000000	2020-10-29T19:40:31:925
96,000000	0,000000	652,000000	0,000000	2020-10-29T19:40:31:966
96,000000	0,000000	652,000000	0,000000	2020-10-29T19:40:32:005
96,000000	0,000000	652,000000	0,000000	2020-10-29T19:40:32:044
96,000000	0,000000	652,000000	0,000000	2020-10-29T19:40:32:086
96,000000	0,000000	652,000000	0,000000	2020-10-29T19:40:32:124
96,000000	0,000000	652,000000	0,000000	2020-10-29T19:40:32:165
96,000000	0,000000	652,000000	0,000000	2020-10-29T19:40:32:205
95,000000	0,000000	652,000000	0,000000	2020-10-29T19:40:32:246
96,000000	0,000000	652,000000	0,000000	2020-10-29T19:40:32:285
96,000000	0,000000	652,000000	0,000000	2020-10-29T19:40:32:326
96,000000	0,000000	652,000000	0,000000	2020-10-29T19:40:32:364
96,000000	0,000000	652,000000	0,000000	2020-10-29T19:40:32:406
96,000000	0,000000	686,000000	0,000000	2020-10-29T19:40:32:447
96,000000	0,000000	686,000000	0,000000	2020-10-29T19:40:32:486
95,000000	0,000000	686,000000	0,000000	2020-10-29T19:40:32:524
95,000000	0,000000	686,000000	0,000000	2020-10-29T19:40:32:566
95,000000	0,000000	686,000000	0,000000	2020-10-29T19:40:32:605
95,000000	0,000000	686,000000	0,000000	2020-10-29T19:40:32:646
95,000000	0,000000	686,000000	0,000000	2020-10-29T19:40:32:687
95,000000	0,000000	686,000000	0,000000	2020-10-29T19:40:32:727
95,000000	0,000000	686,000000	0,000000	2020-10-29T19:40:32:765
95,000000	0,000000	686,000000	0,000000	2020-10-29T19:40:32:807
95,000000	0,000000	686,000000	0,000000	2020-10-29T19:40:32:845
95,000000	0,000000	686,000000	0,000000	2020-10-29T19:40:32:887
95,000000	0,000000	686,000000	0,000000	2020-10-29T19:40:32:927
95,000000	0,000000	686,000000	0,000000	2020-10-29T19:40:32:966
95,000000	0,000000	686,000000	0,000000	2020-10-29T19:40:33:005
95,000000	0,000000	686,000000	0,000000	2020-10-29T19:40:33:047
95,000000	0,000000	686,000000	0,000000	2020-10-29T19:40:33:084
95,000000	0,000000	686,000000	0,000000	2020-10-29T19:40:33:127
95,000000	0,000000	686,000000	0,000000	2020-10-29T19:40:33:167
95,000000	0,000000	686,000000	0,000000	2020-10-29T19:40:33:206
95,000000	0,000000	722,000000	0,000000	2020-10-29T19:40:33:246
95,000000	0,000000	722,000000	0,000000	2020-10-29T19:40:33:287
95,000000	0,000000	722,000000	0,000000	2020-10-29T19:40:33:327
95,000000	0,000000	722,000000	0,000000	2020-10-29T19:40:33:367
95,000000	0,000000	722,000000	0,000000	2020-10-29T19:40:33:408
95,000000	0,000000	722,000000	0,000000	2020-10-29T19:40:33:447
95,000000	0,000000	722,000000	0,000000	2020-10-29T19:40:33:486
95,000000	0,000000	722,000000	0,000000	2020-10-29T19:40:33:527
95,000000	0,000000	722,000000	0,000000	2020-10-29T19:40:33:565
95,000000	0,000000	722,000000	0,000000	2020-10-29T19:40:33:607
95,000000	0,000000	722,000000	0,000000	2020-10-29T19:40:33:648
95,000000	0,000000	722,000000	0,000000	2020-10-29T19:40:33:686
95,000000	0,000000	722,000000	0,000000	2020-10-29T19:40:33:726
95,000000	0,000000	722,000000	0,000000	2020-10-29T19:40:33:767
95,000000	0,000000	722,000000	0,000000	2020-10-29T19:40:33:806
95,000000	0,000000	722,000000	0,000000	2020-10-29T19:40:33:847
95,000000	0,000000	722,000000	0,000000	2020-10-29T19:40:33:888
95,000000	0,000000	722,000000	0,000000	2020-10-29T19:40:33:927
95,000000	0,000000	722,000000	0,000000	2020-10-29T19:40:33:966
95,000000	0,000000	722,000000	0,000000	2020-10-29T19:40:34:007
95,000000	0,000000	722,000000	0,000000	2020-10-29T19:40:34:046
95,000000	0,000000	722,000000	0,000000	2020-10-29T19:40:34:088
95,000000	0,000000	722,000000	0,000000	2020-10-29T19:40:34:128
95,000000	0,000000	722,000000	0,000000	2020-10-29T19:40:34:167
95,000000	0,000000	722,000000	0,000000	2020-10-29T19:40:34:206
95,000000	0,000000	701,000000	0,000000	2020-10-29T19:40:34:247
95,000000	0,000000	701,000000	0,000000	2020-10-29T19:40:34:286
95,000000	0,000000	701,000000	0,000000	2020-10-29T19:40:34:327
95,000000	0,000000	701,000000	0,000000	2020-10-29T19:40:34:368
95,000000	0,000000	701,000000	0,000000	2020-10-29T19:40:34:408
95,000000	0,000000	701,000000	0,000000	2020-10-29T19:40:34:447
95,000000	0,000000	701,000000	0,000000	2020-10-29T19:40:34:487
95,000000	0,000000	701,000000	0,000000	2020-10-29T19:40:34:526
95,000000	0,000000	701,000000	0,000000	2020-10-29T19:40:34:568
95,000000	0,000000	701,000000	0,000000	2020-10-29T19:40:34:609
95,000000	0,000000	701,000000	0,000000	2020-10-29T19:40:34:648
95,000000	0,000000	701,000000	0,000000	2020-10-29T19:40:34:687
95,000000	0,000000	701,000000	0,000000	2020-10-29T19:40:34:728
95,000000	0,000000	701,000000	0,000000	2020-10-29T19:40:34:765
95,000000	0,000000	701,000000	0,000000	2020-10-29T19:40:34:808
95,000000	0,000000	701,000000	0,000000	2020-10-29T19:40:34:849
95,000000	0,000000	701,000000	0,000000	2020-10-29T19:40:34:888
95,000000	0,000000	701,000000	0,000000	2020-10-29T19:40:34:927
95,000000	0,000000	701,000000	0,000000	2020-10-29T19:40:34:968
95,000000	0,000000	701,000000	0,000000	2020-10-29T19:40:35:006
95,000000	0,000000	701,000000	0,000000	2020-10-29T19:40:35:048
95,000000	0,000000	701,000000	0,000000	2020-10-29T19:40:35:089
95,000000	0,000000	701,000000	0,000000	2020-10-29T19:40:35:128
95,000000	0,000000	701,000000	0,000000	2020-10-29T19:40:35:167
95,000000	0,000000	701,000000	0,000000	2020-10-29T19:40:35:208
95,000000	0,000000	701,000000	0,000000	2020-10-29T19:40:35:246
94,000000	0,000000	701,000000	0,000000	2020-10-29T19:40:35:289
94,000000	0,000000	701,000000	0,000000	2020-10-29T19:40:35:329
95,000000	0,000000	701,000000	0,000000	2020-10-29T19:40:35:368
95,000000	0,000000	701,000000	0,000000	2020-10-29T19:40:35:407
95,000000	0,000000	701,000000	0,000000	2020-10-29T19:40:35:448
95,000000	0,000000	701,000000	0,000000	2020-10-29T19:40:35:487
95,000000	0,000000	701,000000	0,000000	2020-10-29T19:40:35:528
95,000000	0,000000	701,000000	0,000000	2020-10-29T19:40:35:569
94,000000	0,000000	701,000000	0,000000	2020-10-29T19:40:35:608
94,000000	0,000000	701,000000	0,000000	2020-10-29T19:40:35:648
94,000000	0,000000	701,000000	0,000000	2020-10-29T19:40:35:689
94,000000	0,000000	701,000000	0,000000	2020-10-29T19:40:35:728
94,000000	0,000000	701,000000	0,000000	2020-10-29T19:40:35:768
94,000000	0,000000	701,000000	0,000000	2020-10-29T19:40:35:809
94,000000	0,000000	701,000000	0,000000	2020-10-29T19:40:35:848
94,000000	0,000000	701,000000	0,000000	2020-10-29T19:40:35:888
94,000000	0,000000	701,000000	0,000000	2020-10-29T19:40:35:928
94,000000	0,000000	701,000000	0,000000	2020-10-29T19:40:35:967
94,000000	0,000000	701,000000	0,000000	2020-10-29T19:40:36:009
94,000000	0,000000	701,000000	0,000000	2020-10-29T19:40:36:048
94,000000	0,000000	701,000000	0,000000	2020-10-29T19:40:36:089
94,000000	0,000000	701,000000	0,000000	2020-10-29T19:40:36:130
94,000000	0,000000	701,000000	0,000000	2020-10-29T19:40:36:169
94,000000	0,000000	701,000000	0,000000	2020-10-29T19:40:36:208
94,000000	0,000000	701,000000	0,000000	2020-10-29T19:40:36:248
94,000000	0,000000	701,000000	0,000000	2020-10-29T19:40:36:290
94,000000	0,000000	701,000000	0,000000	2020-10-29T19:40:36:329
94,000000	0,000000	701,000000	0,000000	2020-10-29T19:40:36:369
94,000000	0,000000	701,000000	0,000000	2020-10-29T19:40:36:409
94,000000	0,000000	701,000000	0,000000	2020-10-29T19:40:36:449
94,000000	0,000000	701,000000	0,000000	2020-10-29T19:40:36:489
94,000000	0,000000	701,000000	0,000000	2020-10-29T19:40:36:530
94,000000	0,000000	701,000000	0,000000	2020-10-29T19:40:36:570
94,000000	0,000000	701,000000	0,000000	2020-10-29T19:40:36:608
94,000000	0,000000	701,000000	0,000000	2020-10-29T19:40:36:650
94,000000	0,000000	701,000000	0,000000	2020-10-29T19:40:36:690
94,000000	0,000000	701,000000	0,000000	2020-10-29T19:40:36:740
94,000000	0,000000	701,000000	0,000000	2020-10-29T19:40:36:770
94,000000	0,000000	701,000000	0,000000	2020-10-29T19:40:36:809
94,000000	0,000000	701,000000	0,000000	2020-10-29T19:40:36:848
94,000000	0,000000	701,000000	0,000000	2020-10-29T19:40:36:890
94,000000	0,000000	701,000000	0,000000	2020-10-29T19:40:36:928
94,000000	0,000000	701,000000	0,000000	2020-10-29T19:40:36:970
94,000000	0,000000	701,000000	0,000000	2020-10-29T19:40:37:010
94,000000	0,000000	701,000000	0,000000	2020-10-29T19:40:37:049
94,000000	0,000000	701,000000	0,000000	2020-10-29T19:40:37:089
94,000000	0,000000	701,000000	0,000000	2020-10-29T19:40:37:130
94,000000	0,000000	701,000000	0,000000	2020-10-29T19:40:37:169
94,000000	0,000000	701,000000	0,000000	2020-10-29T19:40:37:210
94,000000	0,000000	701,000000	0,000000	2020-10-29T19:40:37:251
94,000000	0,000000	701,000000	0,000000	2020-10-29T19:40:37:290
94,000000	0,000000	701,000000	0,000000	2020-10-29T19:40:37:329
94,000000	0,000000	701,000000	0,000000	2020-10-29T19:40:37:370
94,000000	0,000000	701,000000	0,000000	2020-10-29T19:40:37:408
94,000000	0,000000	701,000000	0,000000	2020-10-29T19:40:37:449
94,000000	0,000000	701,000000	0,000000	2020-10-29T19:40:37:489
94,000000	0,000000	701,000000	0,000000	2020-10-29T19:40:37:531
94,000000	0,000000	701,000000	0,000000	2020-10-29T19:40:37:569
94,000000	0,000000	701,000000	0,000000	2020-10-29T19:40:37:610
94,000000	0,000000	701,000000	0,000000	2020-10-29T19:40:37:649
94,000000	0,000000	701,000000	0,000000	2020-10-29T19:40:37:690
94,000000	0,000000	701,000000	0,000000	2020-10-29T19:40:37:731
94,000000	0,000000	701,000000	0,000000	2020-10-29T19:40:37:770
94,000000	0,000000	701,000000	0,000000	2020-10-29T19:40:37:811
94,000000	0,000000	701,000000	0,000000	2020-10-29T19:40:37:850
94,000000	0,000000	701,000000	0,000000	2020-10-29T19:40:37:891
94,000000	0,000000	701,000000	0,000000	2020-10-29T19:40:37:931
94,000000	0,000000	701,000000	0,000000	2020-10-29T19:40:37:971
94,000000	0,000000	701,000000	0,000000	2020-10-29T19:40:38:011
94,000000	0,000000	701,000000	0,000000	2020-10-29T19:40:38:049
94,000000	0,000000	701,000000	0,000000	2020-10-29T19:40:38:091
94,000000	0,000000	701,000000	0,000000	2020-10-29T19:40:38:130
94,000000	0,000000	701,000000	0,000000	2020-10-29T19:40:38:171
94,000000	0,000000	701,000000	0,000000	2020-10-29T19:40:38:211
94,000000	0,000000	701,000000	0,000000	2020-10-29T19:40:38:250
94,000000	0,000000	701,000000	0,000000	2020-10-29T19:40:38:290
94,000000	0,000000	701,000000	0,000000	2020-10-29T19:40:38:331
94,000000	0,000000	701,000000	0,000000	2020-10-29T19:40:38:370
94,000000	0,000000	701,000000	0,000000	2020-10-29T19:40:38:411
94,000000	0,000000	614,000000	0,000000	2020-10-29T19:40:38:451
94,000000	0,000000	614,000000	0,000000	2020-10-29T19:40:38:491
94,000000	0,000000	614,000000	0,000000	2020-10-29T19:40:38:530
94,000000	0,000000	614,000000	0,000000	2020-10-29T19:40:38:571
94,000000	0,000000	614,000000	0,000000	2020-10-29T19:40:38:610
94,000000	0,000000	614,000000	0,000000	2020-10-29T19:40:38:651
94,000000	0,000000	614,000000	0,000000	2020-10-29T19:40:38:692
94,000000	0,000000	614,000000	0,000000	2020-10-29T19:40:38:731
94,000000	0,000000	614,000000	0,000000	2020-10-29T19:40:38:770
