x	y	z	ts
-0,769470	2,492679	9,453299	2020-10-29T19:38:42:496
-0,769325	2,494704	9,452776	2020-10-29T19:38:42:496
-0,686733	2,346981	9,496866	2020-10-29T19:38:42:496
-0,683301	2,348694	9,496690	2020-10-29T19:38:42:497
-0,688267	2,358618	9,493872	2020-10-29T19:38:42:500
-0,698045	2,373702	9,489397	2020-10-29T19:38:42:552
-0,697506	2,374247	9,489301	2020-10-29T19:38:42:557
-0,699787	2,379499	9,487817	2020-10-29T19:38:42:560
-0,721598	2,407505	9,479114	2020-10-29T19:38:42:581
-0,735170	2,442314	9,469161	2020-10-29T19:38:42:601
-0,765906	2,499888	9,451684	2020-10-29T19:38:42:621
-0,775395	2,552895	9,436730	2020-10-29T19:38:42:641
-0,843422	2,751765	9,374797	2020-10-29T19:38:42:661
-0,845440	2,803445	9,359290	2020-10-29T19:38:42:680
-0,886640	2,781421	9,362048	2020-10-29T19:38:42:702
-0,945076	2,865530	9,330914	2020-10-29T19:38:42:721
-1,008789	3,019008	9,275684	2020-10-29T19:38:42:741
-1,080419	3,166758	9,218173	2020-10-29T19:38:42:761
-1,148814	3,295533	9,164610	2020-10-29T19:38:42:782
-1,224516	3,375116	9,125762	2020-10-29T19:38:42:801
-1,305493	3,386371	9,110354	2020-10-29T19:38:42:822
-1,380611	3,316705	9,124898	2020-10-29T19:38:42:841
-1,465751	3,165917	9,165093	2020-10-29T19:38:42:861
-1,567082	3,000689	9,203831	2020-10-29T19:38:42:881
-4,255470	7,293422	4,986718	2020-10-29T19:38:42:901
-4,558042	7,524556	4,333093	2020-10-29T19:38:42:922
-4,799849	7,728385	3,661133	2020-10-29T19:38:42:942
-5,007129	7,907802	2,926723	2020-10-29T19:38:42:961
-5,165151	8,056695	2,140391	2020-10-29T19:38:42:983
-5,259593	8,135851	1,521513	2020-10-29T19:38:43:001
-5,536450	8,008502	1,175588	2020-10-29T19:38:43:022
-5,530192	8,058532	0,804623	2020-10-29T19:38:43:041
-5,850707	-6,518211	4,410503	2020-10-29T19:38:43:064
-5,780307	-7,918524	0,235402	2020-10-29T19:38:43:081
-5,788374	-7,915958	-0,052181	2020-10-29T19:38:43:104
-5,948499	-7,793300	-0,224098	2020-10-29T19:38:43:121
-6,316475	-7,490645	-0,403424	2020-10-29T19:38:43:143
-6,861846	-6,985639	-0,535066	2020-10-29T19:38:43:161
-7,700247	-6,040651	-0,622185	2020-10-29T19:38:43:184
-8,529548	-4,795878	-0,645569	2020-10-29T19:38:43:201
-9,294538	-3,072735	-0,583298	2020-10-29T19:38:43:288
-9,663723	-1,612395	-0,427823	2020-10-29T19:38:43:290
-9,803092	-0,216254	-0,151675	2020-10-29T19:38:43:292
-9,805655	0,037470	-0,134577	2020-10-29T19:38:43:295
-9,802318	0,279420	-0,082904	2020-10-29T19:38:43:364
-9,796471	0,444174	-0,047490	2020-10-29T19:38:43:365
-8,679037	-4,293259	1,553259	2020-10-29T19:38:43:366
-9,660281	-1,602286	0,531075	2020-10-29T19:38:43:367
-9,697966	-1,388820	0,437064	2020-10-29T19:38:43:382
-9,726985	-1,195831	0,355157	2020-10-29T19:38:43:402
-9,745660	-1,054785	0,282727	2020-10-29T19:38:43:423
-9,756073	-0,967676	0,230275	2020-10-29T19:38:43:441
-9,756486	-0,970364	0,199408	2020-10-29T19:38:43:462
-9,750946	-1,026963	0,186502	2020-10-29T19:38:43:482
-9,733826	-1,177493	0,191135	2020-10-29T19:38:43:503
-9,702921	-1,406035	0,216297	2020-10-29T19:38:43:521
-9,644020	-1,758573	0,265878	2020-10-29T19:38:43:546
-9,571343	-2,110895	0,322314	2020-10-29T19:38:43:561
-9,497891	-2,410402	0,387809	2020-10-29T19:38:43:584
-9,446268	-2,594637	0,454157	2020-10-29T19:38:43:601
-9,413521	-2,698899	0,521496	2020-10-29T19:38:43:623
-9,379011	-2,804386	0,583055	2020-10-29T19:38:43:641
-9,342010	-2,913202	0,640697	2020-10-29T19:38:43:666
-9,294851	-3,046252	0,704604	2020-10-29T19:38:43:682
-8,932135	-4,037316	0,295691	2020-10-29T19:38:43:704
-8,445983	-4,662075	1,760914	2020-10-29T19:38:43:722
-9,096072	-3,645785	0,374315	2020-10-29T19:38:43:744
-8,463971	-4,492285	2,085894	2020-10-29T19:38:43:762
-8,371243	-4,607221	2,205942	2020-10-29T19:38:43:786
-8,276413	-4,743109	2,274704	2020-10-29T19:38:43:801
-8,172332	-4,895115	2,328352	2020-10-29T19:38:43:827
-8,067380	-5,038080	2,388623	2020-10-29T19:38:43:864
-7,957835	-5,181538	2,448453	2020-10-29T19:38:43:865
-7,840194	-5,337943	2,491608	2020-10-29T19:38:43:884
-7,722751	-5,498007	2,510262	2020-10-29T19:38:43:909
-7,615187	-5,639759	2,524366	2020-10-29T19:38:43:931
-7,577672	-5,700538	2,500628	2020-10-29T19:38:43:945
-7,543218	-5,737150	2,520983	2020-10-29T19:38:43:967
-7,521980	-5,743344	2,569863	2020-10-29T19:38:43:986
-7,519544	-5,722400	2,623163	2020-10-29T19:38:44:004
-7,529334	-5,683116	2,679873	2020-10-29T19:38:44:026
-7,553171	-5,622582	2,739810	2020-10-29T19:38:44:044
-7,584020	-5,540852	2,819925	2020-10-29T19:38:44:066
-7,577866	-5,516600	2,883307	2020-10-29T19:38:44:084
-7,595542	-5,465026	2,934556	2020-10-29T19:38:44:106
-7,639657	-5,383438	2,970625	2020-10-29T19:38:44:124
-7,705395	-5,289629	2,969359	2020-10-29T19:38:44:149
-7,791391	-5,183613	2,931683	2020-10-29T19:38:44:165
-9,090923	-2,465678	2,728723	2020-10-29T19:38:44:193
-8,306596	-3,331410	4,009060	2020-10-29T19:38:52:125
-8,239625	-3,398138	4,090432	2020-10-29T19:38:52:127
-8,204025	-3,432082	4,133420	2020-10-29T19:38:52:138
-8,143685	-3,496460	4,198277	2020-10-29T19:38:52:159
-6,286615	-4,999691	5,626006	2020-10-29T19:38:52:180
-5,598898	-4,187155	6,876805	2020-10-29T19:38:52:198
-5,501713	-4,040231	7,041170	2020-10-29T19:38:52:247
-5,365870	-3,810477	7,270357	2020-10-29T19:38:52:247
-6,357122	-1,817784	7,242447	2020-10-29T19:38:52:263
-3,707702	-0,955365	9,028322	2020-10-29T19:38:52:273
-3,556829	-0,922066	9,092257	2020-10-29T19:38:52:296
-3,524308	-1,006874	9,095924	2020-10-29T19:38:52:313
-3,516178	-1,108633	9,087234	2020-10-29T19:38:52:339
-3,506043	-1,232871	9,075135	2020-10-29T19:38:52:355
-3,441746	-1,334388	9,085382	2020-10-29T19:38:52:380
-3,387948	-1,502710	9,079320	2020-10-29T19:38:52:400
-3,516854	-1,865628	8,962230	2020-10-29T19:38:52:901
-3,698607	-2,252655	8,798650	2020-10-29T19:38:52:903
-3,860278	-2,621006	8,625484	2020-10-29T19:38:52:915
-2,862532	-5,893307	7,296933	2020-10-29T19:38:52:939
-3,839164	-6,500572	6,258895	2020-10-29T19:38:52:956
-3,927520	-6,605389	6,092110	2020-10-29T19:38:52:980
-4,005723	-6,695892	5,940505	2020-10-29T19:38:52:995
-4,075892	-6,784929	5,789838	2020-10-29T19:38:53:019
-4,114174	-6,819284	5,722003	2020-10-29T19:38:53:035
-4,087260	-6,902689	5,640707	2020-10-29T19:38:53:060
-4,106728	-6,979605	5,530848	2020-10-29T19:38:53:075
-4,167522	-6,997628	5,462174	2020-10-29T19:38:53:098
-4,266133	-6,971888	5,418789	2020-10-29T19:38:53:115
-4,428357	-6,889517	5,393940	2020-10-29T19:38:53:139
-4,637308	-6,748194	5,397003	2020-10-29T19:38:53:155
-7,095938	-4,291229	5,234826	2020-10-29T19:38:53:179
-7,809299	-4,218486	4,170086	2020-10-29T19:38:53:195
-7,848982	-4,219743	4,093608	2020-10-29T19:38:53:219
-7,885033	-4,216636	4,026987	2020-10-29T19:38:53:236
-7,906970	-4,242538	3,956146	2020-10-29T19:38:53:259
-7,930089	-4,304061	3,841761	2020-10-29T19:38:53:275
-6,606468	-6,306678	3,570823	2020-10-29T19:38:53:302
-6,959384	-6,260186	2,923598	2020-10-29T19:38:53:315
-6,993151	-6,261808	2,838307	2020-10-29T19:38:53:338
-7,025550	-6,268627	2,741597	2020-10-29T19:38:53:356
-7,058876	-6,264786	2,663666	2020-10-29T19:38:53:379
-7,091057	-6,242450	2,630421	2020-10-29T19:38:53:396
-7,131110	-6,213771	2,589731	2020-10-29T19:38:53:419
-7,172110	-6,200432	2,507162	2020-10-29T19:38:53:435
-6,694471	-6,522334	2,968771	2020-10-29T19:38:53:461
-7,426478	-6,001375	2,236361	2020-10-29T19:38:53:477
-7,508085	-5,922737	2,172608	2020-10-29T19:38:53:498
-7,603836	-5,812302	2,137572	2020-10-29T19:38:53:516
-7,721785	-5,666389	2,106289	2020-10-29T19:38:53:540
-7,853815	-5,506053	2,042389	2020-10-29T19:38:53:556
-7,976681	-5,355942	1,963880	2020-10-29T19:38:53:579
-8,104057	-5,185329	1,899208	2020-10-29T19:38:53:596
-8,234049	-5,002411	1,829401	2020-10-29T19:38:53:620
-8,346664	-4,829358	1,783504	2020-10-29T19:38:53:635
-8,495653	-4,595613	1,695467	2020-10-29T19:38:53:659
-8,657742	-4,327518	1,576857	2020-10-29T19:38:53:676
-8,817981	-4,038999	1,449169	2020-10-29T19:38:53:700
-8,950253	-3,776885	1,341082	2020-10-29T19:38:53:716
-9,082251	-3,504310	1,184452	2020-10-29T19:38:53:739
-9,247082	-3,122904	0,953590	2020-10-29T19:38:53:756
-9,407300	-2,679888	0,700918	2020-10-29T19:38:53:781
-7,153685	-6,507800	1,625954	2020-10-29T19:38:53:796
-7,383328	-6,254876	1,591660	2020-10-29T19:38:53:819
-7,700531	-5,881771	1,508970	2020-10-29T19:38:53:836
-7,925361	-5,599797	1,414677	2020-10-29T19:38:53:860
-8,078687	-5,392304	1,352132	2020-10-29T19:38:53:876
-8,211778	-5,188317	1,348498	2020-10-29T19:38:53:899
-8,359071	-4,931100	1,407326	2020-10-29T19:38:53:916
-8,492995	-4,680229	1,461122	2020-10-29T19:38:53:940
-9,640612	-1,689710	0,611458	2020-10-29T19:38:53:956
-9,594906	-1,866472	0,790216	2020-10-29T19:38:53:979
-9,534981	-2,081950	0,959170	2020-10-29T19:38:53:996
-9,452693	-2,351091	1,135496	2020-10-29T19:38:54:021
-9,350235	-2,652861	1,306072	2020-10-29T19:38:54:036
-9,232962	-2,961117	1,467850	2020-10-29T19:38:54:059
-9,108995	-3,249599	1,623788	2020-10-29T19:38:54:076
-9,386820	-2,813808	0,374801	2020-10-29T19:38:54:101
-7,654084	-5,818073	1,932718	2020-10-29T19:38:54:116
-7,575762	-5,884537	2,037262	2020-10-29T19:38:54:139
-7,516899	-5,932737	2,114060	2020-10-29T19:38:54:156
-7,473999	-5,968472	2,164967	2020-10-29T19:38:54:180
-7,450424	-5,985572	2,198748	2020-10-29T19:38:54:196
-7,441139	-5,992443	2,211441	2020-10-29T19:38:54:219
-7,443538	-5,997121	2,190584	2020-10-29T19:38:54:236
-7,453544	-6,005618	2,132516	2020-10-29T19:38:54:261
-7,475883	-6,005854	2,052138	2020-10-29T19:38:54:276
-7,519417	-5,978769	1,970549	2020-10-29T19:38:54:299
-7,585002	-5,919584	1,896487	2020-10-29T19:38:54:316
-7,677577	-5,819644	1,832195	2020-10-29T19:38:54:340
-7,804063	-5,666767	1,776159	2020-10-29T19:38:54:357
-8,629139	-4,478379	1,285486	2020-10-29T19:38:54:381
-8,447970	-4,873136	1,026997	2020-10-29T19:38:54:396
-8,494964	-4,790828	1,026623	2020-10-29T19:38:54:420
-8,557282	-4,676571	1,035847	2020-10-29T19:38:54:436
-8,639475	-4,520620	1,045875	2020-10-29T19:38:54:460
-8,742037	-4,316923	1,054207	2020-10-29T19:38:54:477
-8,854282	-4,083112	1,048933	2020-10-29T19:38:54:501
-8,978248	-3,808354	1,028542	2020-10-29T19:38:54:516
-9,113121	-3,480718	1,003006	2020-10-29T19:38:54:539
-9,254205	-3,099779	0,959926	2020-10-29T19:38:54:557
-9,376441	-2,728635	0,898495	2020-10-29T19:38:54:581
-9,477776	-2,383695	0,812502	2020-10-29T19:38:54:596
-9,550016	-2,123743	0,676226	2020-10-29T19:38:54:620
-9,618055	-1,839775	0,527846	2020-10-29T19:38:54:636
-9,693509	-1,442263	0,355175	2020-10-29T19:38:54:661
-9,751731	-1,018826	0,190053	2020-10-29T19:38:54:677
-9,768688	-0,850231	0,142193	2020-10-29T19:38:54:700
-9,761477	-0,914895	0,216581	2020-10-29T19:38:54:716
-9,797563	-0,397901	0,140823	2020-10-29T19:38:54:743
-9,782122	-0,632211	0,284245	2020-10-29T19:38:54:757
-9,756029	-0,893579	0,437953	2020-10-29T19:38:54:780
-9,732122	-1,092484	0,512495	2020-10-29T19:38:54:797
-9,712727	-1,242552	0,537957	2020-10-29T19:38:54:821
-9,692998	-1,381427	0,554821	2020-10-29T19:38:54:836
-9,671708	-1,507077	0,597640	2020-10-29T19:38:54:860
-9,656944	-1,599917	0,595041	2020-10-29T19:38:54:877
-9,649481	-1,662551	0,542056	2020-10-29T19:38:54:901
-8,237839	-5,141530	1,368603	2020-10-29T19:38:54:917
-8,778904	-3,965374	-1,837672	2020-10-29T19:38:54:941
-8,203014	-4,739861	-2,532718	2020-10-29T19:38:54:957
-8,136425	-4,825050	-2,586091	2020-10-29T19:38:54:982
-8,048164	-4,969885	-2,587986	2020-10-29T19:38:54:997
-7,918722	-5,205448	-2,523397	2020-10-29T19:38:55:020
-7,724127	-5,548418	-2,392343	2020-10-29T19:38:55:037
-7,416075	-6,037606	-2,172450	2020-10-29T19:38:55:061
-6,923739	-6,698830	-1,832459	2020-10-29T19:38:55:077
-9,447406	-2,517705	-0,760306	2020-10-29T19:38:55:101
-3,736488	-8,637564	2,757089	2020-10-29T19:38:55:117
-3,283931	-8,710794	3,083543	2020-10-29T19:38:55:141
-2,827140	-8,788128	3,308545	2020-10-29T19:38:55:158
-2,433603	-8,858608	3,431184	2020-10-29T19:38:55:180
-2,237281	-8,914460	3,420141	2020-10-29T19:38:55:197
-9,458380	-2,577060	0,261142	2020-10-29T19:38:55:223
-8,831945	-4,228639	0,534551	2020-10-29T19:38:55:237
-8,781915	-4,329407	0,551907	2020-10-29T19:38:55:261
-8,736741	-4,411657	0,614019	2020-10-29T19:38:55:278
-8,712186	-4,448359	0,693046	2020-10-29T19:38:55:301
-8,699327	-4,460258	0,773433	2020-10-29T19:38:55:317
-8,685882	-4,476441	0,829042	2020-10-29T19:38:55:340
-8,681738	-4,477942	0,863622	2020-10-29T19:38:55:360
-8,695446	-4,446665	0,887003	2020-10-29T19:38:55:382
-8,716055	-4,402195	0,906337	2020-10-29T19:38:55:397
-8,716213	-3,984171	2,079516	2020-10-29T19:38:55:421
-8,879494	-3,627047	2,041939	2020-10-29T19:38:55:437
-8,891501	-3,598102	2,040895	2020-10-29T19:38:55:463
-8,913308	-3,553894	2,023154	2020-10-29T19:38:55:477
-8,961908	-3,464656	1,962331	2020-10-29T19:38:55:501
-9,015556	-3,364096	1,890234	2020-10-29T19:38:55:517
-9,062416	-3,269819	1,830653	2020-10-29T19:38:55:541
-9,100155	-3,186610	1,789716	2020-10-29T19:38:55:557
-8,326198	-4,499329	2,569212	2020-10-29T19:38:55:583
-8,868520	-3,548431	2,219994	2020-10-29T19:38:55:598
-7,811425	-5,051790	3,103458	2020-10-29T19:38:55:623
-8,463594	-4,116165	2,755928	2020-10-29T19:38:55:638
-8,532643	-4,012511	2,695206	2020-10-29T19:38:55:661
-8,594866	-3,910635	2,646811	2020-10-29T19:38:55:678
-8,656178	-3,797662	2,611270	2020-10-29T19:38:55:703
-8,720381	-3,668614	2,581978	2020-10-29T19:38:55:717
-8,806608	-3,517766	2,497871	2020-10-29T19:38:55:741
-8,897153	-3,369183	2,379003	2020-10-29T19:38:55:758
-8,969955	-3,254533	2,262366	2020-10-29T19:38:55:782
-9,024993	-3,165920	2,167219	2020-10-29T19:38:55:797
-9,063587	-3,102136	2,097267	2020-10-29T19:38:55:821
-9,086495	-3,069298	2,045823	2020-10-29T19:38:55:838
-9,095667	-3,072456	1,999812	2020-10-29T19:38:55:862
-9,094480	-3,099308	1,963446	2020-10-29T19:38:55:878
-9,095060	-3,108493	1,946156	2020-10-29T19:38:55:901
-9,105492	-3,076325	1,948495	2020-10-29T19:38:55:918
-9,223545	-2,566897	2,123120	2020-10-29T19:38:55:945
-9,326080	-2,161633	2,126489	2020-10-29T19:38:55:958
-9,341200	-2,113478	2,108455	2020-10-29T19:38:55:981
-9,360836	-2,060659	2,073358	2020-10-29T19:38:55:998
-9,382080	-2,010819	2,025724	2020-10-29T19:38:56:022
-9,403831	-1,963461	1,970578	2020-10-29T19:38:56:038
-9,423435	-1,926097	1,912959	2020-10-29T19:38:56:061
-9,439788	-1,904660	1,852853	2020-10-29T19:38:56:078
-9,452315	-1,901000	1,791738	2020-10-29T19:38:56:102
-9,462854	-1,908215	1,727278	2020-10-29T19:38:56:118
-9,472411	-1,917148	1,663837	2020-10-29T19:38:56:141
-9,482898	-1,920022	1,599548	2020-10-29T19:38:56:158
-9,496488	-1,906828	1,533335	2020-10-29T19:38:56:183
-9,509704	-1,886789	1,475108	2020-10-29T19:38:56:198
-9,520818	-1,870495	1,423259	2020-10-29T19:38:56:221
-9,535270	-1,837463	1,368483	2020-10-29T19:38:56:238
-9,551966	-1,792557	1,310372	2020-10-29T19:38:56:263
-9,563775	-1,764868	1,260882	2020-10-29T19:38:56:278
-9,566143	-1,776017	1,226803	2020-10-29T19:38:56:301
-9,555826	-1,845467	1,204499	2020-10-29T19:38:56:318
-9,527705	-1,997775	1,184105	2020-10-29T19:38:56:342
-9,487128	-2,189766	1,170348	2020-10-29T19:38:56:359
-9,438893	-2,395106	1,158077	2020-10-29T19:38:56:382
-9,381464	-2,619364	1,139055	2020-10-29T19:38:56:398
-9,316854	-2,851902	1,110521	2020-10-29T19:38:56:423
-9,229301	-3,139068	1,066123	2020-10-29T19:38:56:438
-9,073785	-3,592546	0,964584	2020-10-29T19:38:56:462
-8,880195	-4,077348	0,829314	2020-10-29T19:38:56:479
-8,747746	-4,377964	0,693366	2020-10-29T19:38:56:502
-8,712007	-4,467134	0,562174	2020-10-29T19:38:56:518
-9,556734	-2,197296	0,105350	2020-10-29T19:38:56:542
-8,472651	-4,880715	-0,750470	2020-10-29T19:38:56:559
-8,491142	-4,834654	-0,834870	2020-10-29T19:38:56:582
-8,485615	-4,831170	-0,908034	2020-10-29T19:38:56:598
-8,471659	-4,844549	-0,965264	2020-10-29T19:38:56:622
-8,469322	-4,841224	-1,001761	2020-10-29T19:38:56:638
-9,419638	-2,410403	1,277018	2020-10-29T19:38:56:665
-9,586219	-1,949641	0,688255	2020-10-29T19:38:56:678
-9,609401	-1,851236	0,634604	2020-10-29T19:38:56:702
-9,634211	-1,736440	0,580646	2020-10-29T19:38:56:719
-9,656569	-1,623946	0,532794	2020-10-29T19:38:56:743
-9,677544	-1,509104	0,487986	2020-10-29T19:38:56:759
-9,707948	-1,326875	0,406863	2020-10-29T19:38:56:782
-9,735360	-1,133151	0,330334	2020-10-29T19:38:56:799
-9,757868	-0,942049	0,258741	2020-10-29T19:38:56:823
-9,774018	-0,775119	0,195298	2020-10-29T19:38:56:839
-9,784272	-0,647186	0,139836	2020-10-29T19:38:56:863
-9,621795	-1,854494	0,390260	2020-10-29T19:38:56:879
-9,629561	-1,813427	0,391671	2020-10-29T19:38:56:904
-9,635449	-1,781124	0,395103	2020-10-29T19:38:56:919
-9,637238	-1,768382	0,408485	2020-10-29T19:38:56:943
-9,636002	-1,768331	0,436888	2020-10-29T19:38:56:959
-9,165076	-2,096948	2,788291	2020-10-29T19:38:56:984
-9,237184	-1,767822	2,778421	2020-10-29T19:38:56:999
-9,224298	-1,760972	2,825188	2020-10-29T19:38:57:022
-9,197596	-1,775023	2,902397	2020-10-29T19:38:57:039
-9,156230	-1,813866	3,007280	2020-10-29T19:38:57:063
-9,090612	-1,881359	3,160956	2020-10-29T19:38:57:079
-9,000185	-1,979596	3,353843	2020-10-29T19:38:57:102
-8,910920	-2,097265	3,516726	2020-10-29T19:38:57:119
-8,834795	-2,187377	3,651324	2020-10-29T19:38:57:144
-8,768054	-2,276157	3,756423	2020-10-29T19:38:57:159
-9,636740	-1,774854	0,391823	2020-10-29T19:38:57:183
-8,986185	-3,421043	1,927517	2020-10-29T19:38:57:199
-8,927254	-3,481694	2,086223	2020-10-29T19:38:57:223
-8,861201	-3,554988	2,238652	2020-10-29T19:38:57:239
-8,796047	-3,642436	2,352146	2020-10-29T19:38:57:263
-8,743998	-3,724425	2,416931	2020-10-29T19:38:57:280
-8,704128	-3,804468	2,436097	2020-10-29T19:38:57:303
-8,694842	-3,892399	2,327945	2020-10-29T19:38:57:319
-8,687669	-3,960045	2,238935	2020-10-29T19:38:57:342
-8,676558	-4,010056	2,192529	2020-10-29T19:38:57:360
-8,671702	-4,035208	2,165423	2020-10-29T19:38:57:385
-8,674520	-4,035923	2,152766	2020-10-29T19:38:57:400
-8,688659	-4,007774	2,148333	2020-10-29T19:38:57:422
-8,711961	-3,968176	2,127372	2020-10-29T19:38:57:439
-8,738000	-3,929476	2,092118	2020-10-29T19:38:57:463
-8,763961	-3,893774	2,049852	2020-10-29T19:38:57:480
-8,787165	-3,862521	2,009241	2020-10-29T19:38:57:503
-8,805054	-3,830914	1,991359	2020-10-29T19:38:57:519
-8,812229	-3,815789	1,988659	2020-10-29T19:38:57:543
-8,812672	-3,817990	1,982461	2020-10-29T19:38:57:560
-8,808730	-3,835769	1,965587	2020-10-29T19:38:57:583
-8,804768	-3,851918	1,951712	2020-10-29T19:38:57:600
-8,800344	-3,863863	1,948048	2020-10-29T19:38:57:625
-8,806376	-3,859467	1,929412	2020-10-29T19:38:57:639
-8,813103	-3,851258	1,915051	2020-10-29T19:38:57:663
-8,825325	-3,822876	1,915631	2020-10-29T19:38:57:680
-8,836185	-3,783013	1,944489	2020-10-29T19:38:57:703
-8,865019	-3,679000	2,011661	2020-10-29T19:38:57:719
-8,877593	-3,596946	2,102550	2020-10-29T19:38:57:743
-8,864497	-3,547263	2,237856	2020-10-29T19:38:57:760
-8,844658	-3,526860	2,345989	2020-10-29T19:38:57:785
-8,821931	-3,509735	2,454724	2020-10-29T19:38:57:800
-8,800731	-3,460095	2,597166	2020-10-29T19:38:57:823
-8,783403	-3,403848	2,726908	2020-10-29T19:38:57:840
-8,768414	-3,337462	2,854231	2020-10-29T19:38:57:865
-8,752271	-3,270401	2,978694	2020-10-29T19:38:57:880
-8,732821	-3,198175	3,111253	2020-10-29T19:38:57:903
-8,713582	-3,119652	3,242167	2020-10-29T19:38:57:920
-8,698476	-3,058308	3,339709	2020-10-29T19:38:57:944
-8,694054	-3,022560	3,383481	2020-10-29T19:38:57:960
-8,677731	-2,940008	3,496244	2020-10-29T19:38:57:984
-8,681223	-2,810153	3,593020	2020-10-29T19:38:58:000
-8,720596	-2,720180	3,566820	2020-10-29T19:38:58:024
-8,793115	-2,610744	3,469227	2020-10-29T19:38:58:040
-8,870576	-2,469459	3,374172	2020-10-29T19:38:58:063
-8,957799	-2,319886	3,247515	2020-10-29T19:38:58:080
-9,052722	-2,181068	3,075962	2020-10-29T19:38:58:106
-9,154167	-2,053160	2,855896	2020-10-29T19:38:58:120
-9,242844	-1,945113	2,637569	2020-10-29T19:38:58:143
-9,311887	-1,852320	2,455209	2020-10-29T19:38:58:160
-9,354247	-1,777129	2,347393	2020-10-29T19:38:58:184
-9,378244	-1,710289	2,300830	2020-10-29T19:38:58:200
-9,389407	-1,647973	2,300781	2020-10-29T19:38:58:223
-6,354328	-4,235760	6,152336	2020-10-29T19:38:58:240
-6,386950	-4,152790	6,175078	2020-10-29T19:38:58:265
-6,505195	-4,101663	6,085161	2020-10-29T19:38:58:280
-6,685286	-4,109678	5,881147	2020-10-29T19:38:58:303
-6,884534	-4,169116	5,602861	2020-10-29T19:38:58:320
-9,470564	-1,584947	1,991671	2020-10-29T19:38:58:345
-9,470241	-1,660178	1,930994	2020-10-29T19:38:58:360
-9,461225	-1,760882	1,885447	2020-10-29T19:38:58:383
-9,433902	-1,881081	1,906153	2020-10-29T19:38:58:400
-9,401786	-2,004879	1,938365	2020-10-29T19:38:58:424
-9,380863	-2,126619	1,909788	2020-10-29T19:38:58:440
-9,365995	-2,229978	1,864325	2020-10-29T19:38:58:464
-9,354198	-2,333597	1,795467	2020-10-29T19:38:58:480
-9,345234	-2,434280	1,706241	2020-10-29T19:38:58:504
-9,328884	-2,546455	1,630299	2020-10-29T19:38:58:521
-9,297991	-2,681457	1,589826	2020-10-29T19:38:58:544
-9,263843	-2,839417	1,513052	2020-10-29T19:38:58:561
-9,213413	-2,999619	1,511848	2020-10-29T19:38:58:587
-9,148089	-3,168127	1,563914	2020-10-29T19:38:58:600
-9,071635	-3,327405	1,674571	2020-10-29T19:38:58:624
-8,990421	-3,462910	1,830561	2020-10-29T19:38:58:641
-8,907749	-3,576268	2,008159	2020-10-29T19:38:58:665
-8,824434	-3,666557	2,203657	2020-10-29T19:38:58:681
-8,740292	-3,733998	2,415562	2020-10-29T19:38:58:703
-8,645895	-3,792082	2,653111	2020-10-29T19:38:58:720
-8,545997	-3,848129	2,885868	2020-10-29T19:38:58:745
-8,444064	-3,911520	3,093248	2020-10-29T19:38:58:761
-8,346741	-3,984186	3,260148	2020-10-29T19:38:58:784
-8,251608	-4,066546	3,397726	2020-10-29T19:38:58:801
-8,154644	-4,152178	3,525846	2020-10-29T19:38:58:826
-8,085795	-4,209043	3,615833	2020-10-29T19:38:58:841
-8,009475	-4,228914	3,759653	2020-10-29T19:38:58:864
-7,941918	-4,207987	3,922902	2020-10-29T19:38:58:881
-7,887266	-4,173137	4,067720	2020-10-29T19:38:58:905
-7,851902	-4,135076	4,173628	2020-10-29T19:38:58:921
-7,792481	-4,120583	4,297490	2020-10-29T19:38:58:944
-7,743577	-4,088565	4,414866	2020-10-29T19:38:58:961
-7,708208	-4,050991	4,510366	2020-10-29T19:38:58:985
-7,686935	-4,011964	4,581000	2020-10-29T19:38:59:001
-7,683115	-3,969583	4,624125	2020-10-29T19:38:59:024
-7,699881	-3,911607	4,645595	2020-10-29T19:38:59:041
-7,734977	-3,832366	4,653331	2020-10-29T19:38:59:067
-7,787851	-3,731555	4,647069	2020-10-29T19:38:59:081
-7,862395	-3,615855	4,612887	2020-10-29T19:38:59:104
-7,962174	-3,495073	4,534163	2020-10-29T19:38:59:121
-8,083905	-3,384660	4,400561	2020-10-29T19:38:59:145
-8,222034	-3,273829	4,224995	2020-10-29T19:38:59:161
-8,365646	-3,168113	4,018631	2020-10-29T19:38:59:185
-8,510346	-3,058995	3,793012	2020-10-29T19:38:59:201
-8,664208	-2,922082	3,544477	2020-10-29T19:38:59:225
-8,812672	-2,764885	3,295849	2020-10-29T19:38:59:241
-8,948775	-2,591378	3,061792	2020-10-29T19:38:59:266
-9,073772	-2,416814	2,827729	2020-10-29T19:38:59:281
-9,180201	-2,264986	2,600796	2020-10-29T19:38:59:307
-9,264065	-2,151570	2,391284	2020-10-29T19:38:59:321
-9,324001	-2,064887	2,229266	2020-10-29T19:38:59:345
-9,367837	-2,017683	2,083980	2020-10-29T19:38:59:361
-9,402875	-1,986927	1,951525	2020-10-29T19:38:59:386
-9,437112	-1,948081	1,821066	2020-10-29T19:38:59:401
-9,479361	-1,858309	1,690795	2020-10-29T19:38:59:425
-9,520251	-1,754971	1,566935	2020-10-29T19:38:59:441
-9,090076	-3,250988	1,723942	2020-10-29T19:38:59:467
-9,519588	-2,151961	0,957554	2020-10-29T19:38:59:482
-9,539354	-2,085475	0,906588	2020-10-29T19:38:59:505
-9,549598	-2,061204	0,852651	2020-10-29T19:38:59:521
-9,554080	-2,070366	0,776863	2020-10-29T19:38:59:547
-9,508539	-2,273757	0,766874	2020-10-29T19:38:59:561
-9,430639	-2,565800	0,806282	2020-10-29T19:38:59:585
-9,305722	-2,994835	0,777739	2020-10-29T19:38:59:601
-9,039662	-3,738376	0,692413	2020-10-29T19:38:59:626
-8,665872	-4,552744	0,587859	2020-10-29T19:38:59:641
-8,098007	-5,514162	0,432079	2020-10-29T19:38:59:665
-7,730268	-6,028505	0,265465	2020-10-29T19:38:59:682
-9,274829	-3,185580	0,002563	2020-10-29T19:38:59:706
-9,528400	-2,255121	-0,542594	2020-10-29T19:38:59:721
-9,539840	-2,192034	-0,597351	2020-10-29T19:38:59:744
-9,536106	-2,194188	-0,646997	2020-10-29T19:38:59:762
-9,529842	-2,202406	-0,708449	2020-10-29T19:38:59:787
-9,515257	-2,246581	-0,763636	2020-10-29T19:38:59:801
-9,495887	-2,309100	-0,816438	2020-10-29T19:38:59:825
-9,473926	-2,380569	-0,864876	2020-10-29T19:38:59:843
-9,424837	-2,566118	-0,870552	2020-10-29T19:38:59:866
-9,389986	-2,677257	-0,911501	2020-10-29T19:38:59:882
-9,355014	-2,786083	-0,944376	2020-10-29T19:38:59:905
-9,296196	-2,977043	-0,942514	2020-10-29T19:38:59:922
-9,280762	-3,009861	-0,989238	2020-10-29T19:38:59:946
-9,287674	-2,977888	-1,020625	2020-10-29T19:38:59:963
-9,334345	-2,811762	-1,065075	2020-10-29T19:38:59:985
-9,366047	-2,678842	-1,127543	2020-10-29T19:39:00:002
-9,705029	-1,399128	0,158820	2020-10-29T19:39:00:027
-9,599946	-1,923182	-0,559275	2020-10-29T19:39:00:042
-9,601225	-1,901668	-0,608700	2020-10-29T19:39:00:065
-9,593093	-1,931574	-0,641849	2020-10-29T19:39:00:082
-9,575570	-2,009749	-0,663141	2020-10-29T19:39:00:106
-9,541059	-2,170699	-0,653170	2020-10-29T19:39:00:122
-9,585105	-1,960493	-0,672770	2020-10-29T19:39:00:145
-9,587371	-1,943490	-0,689598	2020-10-29T19:39:00:162
-9,592927	-1,910424	-0,704566	2020-10-29T19:39:00:186
-9,621289	-1,751397	-0,730604	2020-10-29T19:39:00:202
-9,648249	-1,584204	-0,756294	2020-10-29T19:39:00:225
-9,672750	-1,411985	-0,783955	2020-10-29T19:39:00:242
-9,690445	-1,265180	-0,815460	2020-10-29T19:39:00:268
-9,703460	-1,137898	-0,847612	2020-10-29T19:39:00:282
-9,712542	-1,059046	-0,845776	2020-10-29T19:39:00:305
-9,727741	-0,907079	-0,847729	2020-10-29T19:39:00:322
-9,740966	-0,761234	-0,839344	2020-10-29T19:39:00:346
-9,749925	-0,642699	-0,834438	2020-10-29T19:39:00:362
-9,754057	-0,563792	-0,843142	2020-10-29T19:39:00:385
-9,755640	-0,509045	-0,859505	2020-10-29T19:39:00:402
-9,504245	0,021385	-2,416454	2020-10-29T19:39:00:426
-9,769341	-0,058829	-0,852584	2020-10-29T19:39:00:442
-9,772001	-0,066153	-0,820979	2020-10-29T19:39:00:467
-9,776969	-0,084615	-0,757693	2020-10-29T19:39:00:482
-9,783693	-0,114947	-0,660700	2020-10-29T19:39:00:507
-9,788136	-0,137737	-0,586363	2020-10-29T19:39:00:521
-9,792686	-0,168090	-0,495416	2020-10-29T19:39:00:545
-9,797836	-0,213998	-0,356354	2020-10-29T19:39:00:562
-9,801254	-0,263967	-0,190046	2020-10-29T19:39:00:587
-9,801764	-0,308909	-0,019471	2020-10-29T19:39:00:602
-9,799744	-0,345044	0,127906	2020-10-29T19:39:00:627
-9,798264	-0,359186	0,188128	2020-10-29T19:39:00:642
-9,792697	-0,394740	0,343016	2020-10-29T19:39:00:667
-9,785133	-0,427227	0,488906	2020-10-29T19:39:00:682
-9,776675	-0,457889	0,614279	2020-10-29T19:39:00:706
-9,766757	-0,487309	0,737134	2020-10-29T19:39:00:722
-9,747517	-0,525528	0,938148	2020-10-29T19:39:00:748
-9,722570	-0,558591	1,153248	2020-10-29T19:39:00:762
-9,696316	-0,590513	1,342813	2020-10-29T19:39:00:787
-9,670912	-0,616255	1,504685	2020-10-29T19:39:00:802
-9,628490	-0,652024	1,742821	2020-10-29T19:39:00:827
-9,578098	-0,680490	1,991823	2020-10-29T19:39:00:842
-9,588166	-0,701416	1,935319	2020-10-29T19:39:00:866
-9,601757	-0,741338	1,851235	2020-10-29T19:39:00:883
-9,600815	-0,794413	1,834026	2020-10-29T19:39:00:907
-8,010686	-2,362146	5,139997	2020-10-29T19:39:00:923
-7,767169	-2,400193	5,484573	2020-10-29T19:39:00:946
-7,407991	-2,512885	5,914174	2020-10-29T19:39:00:963
-9,419642	-2,086616	1,756917	2020-10-29T19:39:00:990
-9,181774	-2,712881	2,122659	2020-10-29T19:39:01:002
-9,166012	-2,728428	2,170321	2020-10-29T19:39:01:026
-9,155730	-2,652303	2,303968	2020-10-29T19:39:01:043
-9,156056	-2,477378	2,489903	2020-10-29T19:39:01:067
-9,185792	-2,218665	2,620903	2020-10-29T19:39:01:083
-9,191622	-2,093691	2,702023	2020-10-29T19:39:01:106
-9,189315	-2,048236	2,744376	2020-10-29T19:39:01:123
-9,199107	-2,050370	2,709759	2020-10-29T19:39:01:147
-9,229135	-2,051242	2,604969	2020-10-29T19:39:01:163
-9,246282	-2,090927	2,510914	2020-10-29T19:39:01:186
-9,240580	-2,175831	2,459234	2020-10-29T19:39:01:203
-9,226294	-2,283088	2,415241	2020-10-29T19:39:01:228
-9,211018	-2,432413	2,326134	2020-10-29T19:39:01:243
-9,174364	-2,631666	2,252943	2020-10-29T19:39:01:266
-9,122055	-2,849239	2,200075	2020-10-29T19:39:01:283
-9,062494	-3,059816	2,163124	2020-10-29T19:39:01:307
-9,006183	-3,242020	2,132691	2020-10-29T19:39:01:323
-8,953149	-3,408784	2,095640	2020-10-29T19:39:01:346
-8,895200	-3,585165	2,047535	2020-10-29T19:39:01:363
-8,840008	-3,750332	1,989888	2020-10-29T19:39:01:387
-8,786077	-3,906790	1,926714	2020-10-29T19:39:01:404
-8,728974	-4,066998	1,853353	2020-10-29T19:39:01:427
-8,644060	-4,285180	1,757228	2020-10-29T19:39:01:443
-8,631693	-4,325908	1,717785	2020-10-29T19:39:01:468
-8,637323	-4,322563	1,697787	2020-10-29T19:39:01:483
-8,644690	-4,316531	1,675494	2020-10-29T19:39:01:506
-8,603321	-4,418782	1,620994	2020-10-29T19:39:01:523
-8,548286	-4,547439	1,554988	2020-10-29T19:39:01:547
-8,468484	-4,721541	1,470449	2020-10-29T19:39:01:564
-8,399244	-4,867663	1,388859	2020-10-29T19:39:01:587
-8,302194	-5,057343	1,291219	2020-10-29T19:39:01:603
-8,210815	-5,226695	1,197727	2020-10-29T19:39:01:627
-8,153685	-5,329595	1,132798	2020-10-29T19:39:01:643
-8,128506	-5,374955	1,098923	2020-10-29T19:39:01:667
-8,119531	-5,389806	1,092520	2020-10-29T19:39:01:684
-8,128339	-5,373626	1,106633	2020-10-29T19:39:01:708
-8,156928	-5,324873	1,131648	2020-10-29T19:39:01:723
-8,195480	-5,260255	1,155077	2020-10-29T19:39:01:747
-8,243186	-5,180414	1,176260	2020-10-29T19:39:01:764
-9,371579	-2,523908	1,404914	2020-10-29T19:39:01:789
-9,414230	-2,361957	1,401357	2020-10-29T19:39:01:803
-9,408249	-2,385638	1,401413	2020-10-29T19:39:01:827
-9,395788	-2,425516	1,416481	2020-10-29T19:39:01:843
-9,382269	-2,477534	1,416064	2020-10-29T19:39:01:868
-9,360510	-2,564418	1,405345	2020-10-29T19:39:01:884
-9,326620	-2,695299	1,385604	2020-10-29T19:39:01:907
-9,273120	-2,875796	1,381821	2020-10-29T19:39:01:923
-9,199586	-3,104493	1,378450	2020-10-29T19:39:01:948
-9,104621	-3,384349	1,349979	2020-10-29T19:39:01:964
-8,976624	-3,726583	1,305069	2020-10-29T19:39:01:987
-8,820077	-4,099848	1,252148	2020-10-29T19:39:02:004
-8,632643	-4,497472	1,191895	2020-10-29T19:39:02:028
-8,423180	-4,894906	1,122645	2020-10-29T19:39:02:044
-8,189085	-5,295399	1,033451	2020-10-29T19:39:02:067
-7,955889	-5,657105	0,933473	2020-10-29T19:39:02:084
-7,749384	-5,951468	0,835137	2020-10-29T19:39:02:108
-7,542782	-6,225441	0,721602	2020-10-29T19:39:02:124
-7,352760	-6,461477	0,597171	2020-10-29T19:39:02:147
-7,213500	-6,626289	0,477594	2020-10-29T19:39:02:164
-7,128028	-6,725646	0,356753	2020-10-29T19:39:02:189
-7,099948	-6,760325	0,243167	2020-10-29T19:39:02:204
-7,126488	-6,735601	0,123453	2020-10-29T19:39:02:227
-7,224268	-6,631718	0,025653	2020-10-29T19:39:02:244
-7,346606	-6,495594	-0,070918	2020-10-29T19:39:02:268
-7,471160	-6,350565	-0,149902	2020-10-29T19:39:02:284
-7,589537	-6,206502	-0,220552	2020-10-29T19:39:02:307
-7,694942	-6,072642	-0,285055	2020-10-29T19:39:02:324
-7,784838	-5,954184	-0,338192	2020-10-29T19:39:02:348
-7,862353	-5,849063	-0,377165	2020-10-29T19:39:02:365
-7,933189	-5,750898	-0,402587	2020-10-29T19:39:02:388
-7,996416	-5,661763	-0,414917	2020-10-29T19:39:02:404
-9,218627	-3,332168	0,289754	2020-10-29T19:39:02:430
-7,416315	-6,413826	-0,177491	2020-10-29T19:39:02:444
-7,547029	-6,258681	-0,204077	2020-10-29T19:39:02:467
-7,664220	-6,113736	-0,228788	2020-10-29T19:39:02:485
-7,756935	-5,994928	-0,247361	2020-10-29T19:39:02:508
-7,815702	-5,917546	-0,260451	2020-10-29T19:39:02:524
-7,856988	-5,862064	-0,272617	2020-10-29T19:39:02:547
-7,872367	-5,841124	-0,278361	2020-10-29T19:39:02:564
-7,882312	-5,827683	-0,278660	2020-10-29T19:39:02:588
-7,964394	-5,714095	-0,296528	2020-10-29T19:39:02:604
-8,029984	-5,621428	-0,298788	2020-10-29T19:39:02:628
-8,074150	-5,558562	-0,284385	2020-10-29T19:39:02:644
-8,130148	-5,477114	-0,268867	2020-10-29T19:39:02:669
-8,116666	-5,498513	-0,237651	2020-10-29T19:39:02:684
-8,096178	-5,528728	-0,235482	2020-10-29T19:39:02:707
-8,028575	-5,626029	-0,245303	2020-10-29T19:39:02:724
-7,894885	-5,811470	-0,260771	2020-10-29T19:39:02:748
-7,691720	-6,078313	-0,248877	2020-10-29T19:39:02:765
-7,470723	-6,349782	-0,197327	2020-10-29T19:39:02:789
-7,258494	-6,593706	-0,087702	2020-10-29T19:39:02:804
-7,126349	-6,736876	0,004866	2020-10-29T19:39:02:828
-7,097692	-6,762055	0,260303	2020-10-29T19:39:02:845
-7,263012	-6,564609	0,570046	2020-10-29T19:39:02:868
-7,447055	-6,329930	0,802337	2020-10-29T19:39:02:885
-7,501940	-6,246089	0,936830	2020-10-29T19:39:02:914
-7,566805	-6,145223	1,072420	2020-10-29T19:39:02:925
-7,668311	-5,987072	1,233842	2020-10-29T19:39:02:952
-7,759224	-5,836711	1,377543	2020-10-29T19:39:02:965
-7,851272	-5,676207	1,519405	2020-10-29T19:39:02:989
-7,945195	-5,503164	1,661157	2020-10-29T19:39:03:004
-8,040985	-5,315374	1,805473	2020-10-29T19:39:03:028
-8,125589	-5,137531	1,936740	2020-10-29T19:39:03:045
-8,195852	-4,977378	2,055260	2020-10-29T19:39:03:069
-8,266228	-4,807793	2,173704	2020-10-29T19:39:03:085
-8,302923	-4,710273	2,246147	2020-10-29T19:39:03:108
-8,332179	-4,621466	2,321040	2020-10-29T19:39:03:125
-8,347715	-4,553064	2,399091	2020-10-29T19:39:03:150
-8,353652	-4,495796	2,484895	2020-10-29T19:39:03:165
-8,345366	-4,459355	2,576707	2020-10-29T19:39:03:188
-8,323111	-4,447347	2,667830	2020-10-29T19:39:03:205
-8,305149	-4,429220	2,752617	2020-10-29T19:39:03:229
-8,297092	-4,384811	2,846414	2020-10-29T19:39:03:245
-8,278171	-4,354693	2,946002	2020-10-29T19:39:03:268
-8,237478	-4,345910	3,070408	2020-10-29T19:39:03:285
-8,185582	-4,355865	3,192658	2020-10-29T19:39:03:309
-8,112819	-4,399508	3,316155	2020-10-29T19:39:03:325
-8,019868	-4,459284	3,459318	2020-10-29T19:39:03:348
-7,881555	-4,573490	3,624180	2020-10-29T19:39:03:365
-7,695785	-4,727488	3,820490	2020-10-29T19:39:03:390
-7,523142	-4,830381	4,029904	2020-10-29T19:39:03:405
-7,349287	-4,917774	4,239559	2020-10-29T19:39:03:428
-7,162035	-5,026252	4,428592	2020-10-29T19:39:03:445
-6,966713	-5,101035	4,649165	2020-10-29T19:39:03:469
-6,770853	-5,153910	4,874746	2020-10-29T19:39:03:485
-6,548250	-5,260270	5,061656	2020-10-29T19:39:03:508
-6,302389	-5,435392	5,187175	2020-10-29T19:39:03:525
-6,036263	-5,664500	5,258076	2020-10-29T19:39:03:549
-5,747704	-5,934176	5,283922	2020-10-29T19:39:03:565
-5,446658	-6,216180	5,278581	2020-10-29T19:39:03:589
-5,147303	-6,480528	5,261028	2020-10-29T19:39:03:605
-4,834594	-6,750551	5,217964	2020-10-29T19:39:03:630
-4,518260	-7,027809	5,134746	2020-10-29T19:39:03:645
-4,225438	-7,280054	5,031588	2020-10-29T19:39:03:669
-3,957580	-7,524980	4,886984	2020-10-29T19:39:03:686
-3,676859	-7,781989	4,700186	2020-10-29T19:39:03:709
-3,320655	-8,068426	4,477068	2020-10-29T19:39:03:725
-2,977146	-8,350904	4,191587	2020-10-29T19:39:03:749
-2,676468	-8,566363	3,952761	2020-10-29T19:39:03:766
-2,387203	-8,700081	3,844508	2020-10-29T19:39:03:790
-2,132142	-8,800823	3,764289	2020-10-29T19:39:03:805
-1,917862	-8,889317	3,670454	2020-10-29T19:39:03:829
-1,771136	-8,957950	3,576115	2020-10-29T19:39:03:845
-1,698235	-8,986198	3,540426	2020-10-29T19:39:03:871
-1,680867	-8,978075	3,569208	2020-10-29T19:39:03:886
-1,695097	-8,958462	3,611509	2020-10-29T19:39:03:909
-1,731155	-8,968467	3,569327	2020-10-29T19:39:03:926
-1,746711	-9,022132	3,423525	2020-10-29T19:39:03:949
-1,711383	-9,144879	3,100441	2020-10-29T19:39:03:966
-1,618562	-9,342265	2,504542	2020-10-29T19:39:03:989
-1,331387	-9,535535	1,863161	2020-10-29T19:39:04:007
0,512231	-9,726681	1,140035	2020-10-29T19:39:04:031
0,038060	-5,909553	-7,825990	2020-10-29T19:39:04:055
-0,029515	-5,001956	-8,435043	2020-10-29T19:39:04:070
-0,054031	-4,386899	-8,770553	2020-10-29T19:39:04:086
6,694011	-6,734953	-2,449694	2020-10-29T19:39:04:112
8,023646	-4,985109	-2,634422	2020-10-29T19:39:04:126
7,959955	-5,108214	-2,591456	2020-10-29T19:39:04:236
7,857831	-5,334004	-2,444031	2020-10-29T19:39:04:239
3,617716	-9,018703	1,321172	2020-10-29T19:39:04:240
3,876721	-8,489847	3,010634	2020-10-29T19:39:04:241
3,875942	-8,482319	3,032776	2020-10-29T19:39:04:242
3,854304	-8,505186	2,996085	2020-10-29T19:39:04:285
3,829987	-8,529422	2,958133	2020-10-29T19:39:04:285
3,729901	-8,564619	2,984211	2020-10-29T19:39:04:344
3,599712	-8,621727	2,979644	2020-10-29T19:39:04:352
3,441140	-8,708708	2,913305	2020-10-29T19:39:04:353
3,321044	-8,800755	2,772683	2020-10-29T19:39:04:353
3,226355	-8,904675	2,543181	2020-10-29T19:39:04:364
3,197338	-8,971740	2,335658	2020-10-29T19:39:04:387
3,209584	-9,004514	2,188077	2020-10-29T19:39:04:404
3,247066	-9,010114	2,108269	2020-10-29T19:39:04:430
3,314331	-8,992007	2,080721	2020-10-29T19:39:04:446
3,374487	-8,974518	2,059432	2020-10-29T19:39:04:470
3,413356	-8,965028	2,036583	2020-10-29T19:39:04:486
3,440923	-8,965075	1,989437	2020-10-29T19:39:04:510
3,495534	-8,956023	1,934239	2020-10-29T19:39:04:526
3,531975	-8,948939	1,900533	2020-10-29T19:39:04:550
3,563398	-8,938413	1,891391	2020-10-29T19:39:04:567
3,574764	-8,937328	1,874994	2020-10-29T19:39:04:591
3,589782	-8,937363	1,845911	2020-10-29T19:39:04:607
3,608212	-8,937804	1,807445	2020-10-29T19:39:04:629
3,624529	-8,938801	1,769470	2020-10-29T19:39:04:658
3,629026	-8,942080	1,743489	2020-10-29T19:39:04:674
3,629128	-8,946088	1,722594	2020-10-29T19:39:04:688
3,633314	-8,950380	1,691187	2020-10-29T19:39:04:710
3,634706	-8,956905	1,653224	2020-10-29T19:39:04:726
3,638255	-8,962283	1,615848	2020-10-29T19:39:04:750
3,641641	-8,965407	1,590694	2020-10-29T19:39:04:767
3,638908	-8,969387	1,574428	2020-10-29T19:39:04:790
3,636284	-8,974088	1,553570	2020-10-29T19:39:04:806
3,613932	-8,988533	1,521892	2020-10-29T19:39:04:832
3,610297	-8,993673	1,499992	2020-10-29T19:39:04:846
3,453463	-9,118932	1,043577	2020-10-29T19:39:04:870
3,359615	-9,161752	0,972454	2020-10-29T19:39:04:887
3,347704	-9,167041	0,963650	2020-10-29T19:39:04:910
3,335899	-9,171710	0,960155	2020-10-29T19:39:04:926
3,320274	-9,178742	0,947020	2020-10-29T19:39:04:950
3,290526	-9,192370	0,918228	2020-10-29T19:39:04:967
3,270237	-9,201779	0,896213	2020-10-29T19:39:05:001
3,349814	-9,129345	1,266566	2020-10-29T19:39:27:125
3,235515	-9,130088	1,530790	2020-10-29T19:39:27:126
3,021479	-9,163069	1,754769	2020-10-29T19:39:27:127
2,734726	-9,221443	1,912236	2020-10-29T19:39:27:139
2,364852	-9,306837	1,990135	2020-10-29T19:39:27:192
1,954509	-9,399914	1,997972	2020-10-29T19:39:27:193
4,212181	-7,108198	5,282181	2020-10-29T19:39:27:205
3,918234	-7,062870	5,561808	2020-10-29T19:39:27:217
3,633340	-6,984869	5,846438	2020-10-29T19:39:27:233
3,288905	-7,004349	6,024333	2020-10-29T19:39:27:258
3,008830	-7,163594	5,983331	2020-10-29T19:39:27:275
2,690301	-7,378441	5,872927	2020-10-29T19:39:27:299
2,319759	-7,625181	5,713643	2020-10-29T19:39:27:316
1,776372	-7,877547	5,564094	2020-10-29T19:39:27:340
1,387782	-8,061913	5,408328	2020-10-29T19:39:27:354
1,004808	-8,227051	5,241792	2020-10-29T19:39:27:379
0,603573	-8,399645	5,025141	2020-10-29T19:39:27:394
0,191014	-8,564651	4,772907	2020-10-29T19:39:27:418
-0,274311	-8,640871	4,629307	2020-10-29T19:39:27:434
-0,664006	-8,660244	4,552983	2020-10-29T19:39:27:460
-0,963274	-8,615657	4,583988	2020-10-29T19:39:27:475
-1,197760	-8,527689	4,691937	2020-10-29T19:39:27:498
-1,335443	-8,481070	4,739034	2020-10-29T19:39:27:515
-1,443758	-8,417592	4,819761	2020-10-29T19:39:27:538
-1,612487	-8,269557	5,018435	2020-10-29T19:39:27:555
-1,793874	-8,136644	5,171791	2020-10-29T19:39:27:579
-1,998621	-8,029829	5,262865	2020-10-29T19:39:27:595
-2,220985	-7,948823	5,296586	2020-10-29T19:39:27:618
-2,460783	-7,889559	5,279184	2020-10-29T19:39:27:635
-2,708562	-7,848614	5,218556	2020-10-29T19:39:27:659
-2,947416	-7,811110	5,144869	2020-10-29T19:39:27:676
-3,166044	-7,779798	5,061748	2020-10-29T19:39:27:699
-3,378850	-7,737378	4,988661	2020-10-29T19:39:27:715
-3,575799	-7,685346	4,931481	2020-10-29T19:39:27:739
-3,768433	-7,626261	4,879492	2020-10-29T19:39:27:755
-3,951073	-7,561508	4,835598	2020-10-29T19:39:27:778
-4,130259	-7,486322	4,802742	2020-10-29T19:39:27:795
-4,309287	-7,403549	4,773667	2020-10-29T19:39:27:819
-4,491330	-7,313084	4,745224	2020-10-29T19:39:27:835
-4,668509	-7,227369	4,705373	2020-10-29T19:39:27:858
-4,838545	-7,145136	4,658959	2020-10-29T19:39:27:875
-4,997698	-7,053765	4,630097	2020-10-29T19:39:27:899
-5,158291	-6,962144	4,592491	2020-10-29T19:39:27:915
-5,315493	-6,863731	4,561263	2020-10-29T19:39:27:939
-5,477047	-6,757993	4,527899	2020-10-29T19:39:27:955
-5,631967	-6,657547	4,486469	2020-10-29T19:39:27:979
-5,784796	-6,557256	4,439472	2020-10-29T19:39:27:995
-5,935498	-6,459794	4,383072	2020-10-29T19:39:28:018
-6,081925	-6,368684	4,315140	2020-10-29T19:39:28:035
-6,224708	-6,285153	4,233231	2020-10-29T19:39:28:060
-6,361401	-6,203811	4,149180	2020-10-29T19:39:28:076
-6,493386	-6,114936	4,076012	2020-10-29T19:39:28:098
-6,628489	-6,007988	4,017163	2020-10-29T19:39:28:115
-6,706582	-5,919194	4,019364	2020-10-29T19:39:28:139
-6,790409	-5,812615	4,034132	2020-10-29T19:39:28:155
-6,875542	-5,693500	4,059725	2020-10-29T19:39:28:180
-6,960683	-5,563537	4,094672	2020-10-29T19:39:28:195
-7,096283	-5,416868	4,058410	2020-10-29T19:39:28:220
-7,224956	-5,275051	4,017989	2020-10-29T19:39:28:235
-7,347210	-5,139348	3,971900	2020-10-29T19:39:28:258
-7,457652	-5,009913	3,931231	2020-10-29T19:39:28:276
-7,556422	-4,891273	3,891826	2020-10-29T19:39:28:300
-7,647791	-4,783297	3,847304	2020-10-29T19:39:28:316
-7,734338	-4,671673	3,811281	2020-10-29T19:39:28:339
-7,820560	-4,544127	3,789477	2020-10-29T19:39:28:356
-7,901466	-4,406715	3,783923	2020-10-29T19:39:28:380
-7,978701	-4,262259	3,787329	2020-10-29T19:39:28:396
-8,051440	-4,110281	3,801352	2020-10-29T19:39:28:419
-8,121859	-3,922216	3,849937	2020-10-29T19:39:28:435
-8,181527	-3,741616	3,902987	2020-10-29T19:39:28:460
-8,233064	-3,567415	3,957348	2020-10-29T19:39:28:476
-8,276741	-3,406067	4,008072	2020-10-29T19:39:28:499
-8,317557	-3,253731	4,049920	2020-10-29T19:39:28:516
-8,356757	-3,106781	4,084472	2020-10-29T19:39:28:540
-8,396725	-2,963400	4,108973	2020-10-29T19:39:28:556
-8,432528	-2,839824	4,122893	2020-10-29T19:39:28:579
-8,465992	-2,732213	4,127029	2020-10-29T19:39:28:596
-8,492154	-2,639673	4,133502	2020-10-29T19:39:28:620
-8,505630	-2,560207	4,155715	2020-10-29T19:39:28:636
-8,507361	-2,497218	4,190357	2020-10-29T19:39:28:662
-8,499614	-2,458417	4,228847	2020-10-29T19:39:28:676
-8,481791	-2,437333	4,276566	2020-10-29T19:39:28:700
-8,453535	-2,428435	4,337147	2020-10-29T19:39:28:716
-8,417281	-2,425559	4,408675	2020-10-29T19:39:28:739
-8,373839	-2,438325	4,483723	2020-10-29T19:39:28:756
-9,501980	-1,542640	1,871639	2020-10-29T19:39:28:781
-8,859859	-2,380169	3,465268	2020-10-29T19:39:28:796
-8,788589	-2,456503	3,591194	2020-10-29T19:39:28:819
-8,715683	-2,557297	3,696955	2020-10-29T19:39:28:836
-8,636816	-2,676342	3,796444	2020-10-29T19:39:28:861
-8,550481	-2,798937	3,902001	2020-10-29T19:39:28:876
-8,437709	-2,935952	4,044210	2020-10-29T19:39:28:901
-8,323381	-3,065176	4,182870	2020-10-29T19:39:28:916
-8,216755	-3,173820	4,310708	2020-10-29T19:39:28:940
-8,117947	-3,264434	4,428634	2020-10-29T19:39:28:956
-8,034314	-3,337085	4,525929	2020-10-29T19:39:28:979
-7,968480	-3,390798	4,601761	2020-10-29T19:39:28:996
-7,918609	-3,423649	4,663116	2020-10-29T19:39:29:020
-7,878794	-3,440614	4,717750	2020-10-29T19:39:29:036
-7,848563	-3,445568	4,764295	2020-10-29T19:39:29:059
-7,832350	-3,443082	4,792689	2020-10-29T19:39:29:076
-7,835467	-3,437216	4,791804	2020-10-29T19:39:29:100
-7,853636	-3,412003	4,780064	2020-10-29T19:39:29:116
-9,029036	-1,922815	3,309031	2020-10-29T19:39:29:142
-9,055579	-1,524084	3,441518	2020-10-29T19:39:29:156
-9,049998	-1,466525	3,480979	2020-10-29T19:39:29:181
-9,073605	-1,382823	3,453677	2020-10-29T19:39:29:196
-9,114273	-1,274913	3,387477	2020-10-29T19:39:29:220
-9,172450	-1,153018	3,272169	2020-10-29T19:39:29:236
-9,248479	-1,036673	3,092139	2020-10-29T19:39:29:261
-9,334407	-0,955297	2,850727	2020-10-29T19:39:29:276
-6,058420	-2,393792	7,330463	2020-10-29T19:39:29:299
-6,217331	-2,241225	7,245142	2020-10-29T19:39:29:316
-5,956824	-2,061351	7,512487	2020-10-29T19:39:29:340
-5,503266	-1,881246	7,895908	2020-10-29T19:39:29:357
-9,561336	-1,181950	1,831457	2020-10-29T19:39:29:383
-9,773592	-0,312844	0,741224	2020-10-29T19:39:29:397
-9,782379	-0,261394	0,638052	2020-10-29T19:39:29:420
-9,788305	-0,232913	0,552457	2020-10-29T19:39:29:437
-9,790695	-0,233754	0,507969	2020-10-29T19:39:29:462
-9,789966	-0,259381	0,509584	2020-10-29T19:39:29:477
-9,638026	-1,399868	1,148564	2020-10-29T19:39:29:501
-9,579855	-1,848161	0,990491	2020-10-29T19:39:29:516
-9,572153	-1,894941	0,976452	2020-10-29T19:39:29:540
-9,563934	-1,942246	0,963963	2020-10-29T19:39:29:557
-9,558229	-1,975523	0,952859	2020-10-29T19:39:29:581
-9,554370	-1,997299	0,946145	2020-10-29T19:39:29:597
-9,552782	-2,009751	0,935756	2020-10-29T19:39:29:621
-9,553737	-2,012824	0,919258	2020-10-29T19:39:29:637
-9,558880	-2,002325	0,888197	2020-10-29T19:39:29:661
-9,565581	-1,982916	0,859121	2020-10-29T19:39:29:677
-9,573552	-1,956895	0,829487	2020-10-29T19:39:29:700
-9,582294	-1,927259	0,797305	2020-10-29T19:39:29:717
-9,592704	-1,889941	0,760617	2020-10-29T19:39:29:741
-9,605467	-1,841179	0,717953	2020-10-29T19:39:29:757
-9,619657	-1,779380	0,682935	2020-10-29T19:39:29:780
-9,633860	-1,711250	0,656327	2020-10-29T19:39:29:797
-9,649243	-1,633929	0,626707	2020-10-29T19:39:29:821
-9,666203	-1,546343	0,586290	2020-10-29T19:39:29:837
-9,682290	-1,455705	0,551873	2020-10-29T19:39:29:861
-9,697021	-1,363198	0,529030	2020-10-29T19:39:29:886
-9,713595	-1,255007	0,491324	2020-10-29T19:39:29:910
-9,729012	-1,143685	0,456815	2020-10-29T19:39:29:919
-9,742870	-1,033216	0,423476	2020-10-29T19:39:29:940
-9,756133	-0,916073	0,386079	2020-10-29T19:39:29:957
-9,767262	-0,804757	0,351222	2020-10-29T19:39:29:981
-9,776120	-0,701946	0,324243	2020-10-29T19:39:29:997
-9,782602	-0,613603	0,307517	2020-10-29T19:39:30:020
-9,786325	-0,550812	0,307962	2020-10-29T19:39:30:037
-9,787061	-0,525478	0,328172	2020-10-29T19:39:30:061
-9,784735	-0,541247	0,369331	2020-10-29T19:39:30:077
-9,778370	-0,602047	0,437508	2020-10-29T19:39:30:101
-9,766203	-0,709221	0,537277	2020-10-29T19:39:30:117
-9,739365	-0,895090	0,716924	2020-10-29T19:39:30:141
-9,697722	-1,109651	0,945118	2020-10-29T19:39:30:157
-9,653504	-1,286319	1,151358	2020-10-29T19:39:30:181
-9,595471	-1,465485	1,396305	2020-10-29T19:39:30:197
-9,522555	-1,637913	1,675879	2020-10-29T19:39:30:222
-9,439904	-1,788031	1,965081	2020-10-29T19:39:30:237
-9,349467	-1,917897	2,253777	2020-10-29T19:39:30:260
-9,257432	-2,028630	2,520912	2020-10-29T19:39:30:278
-9,167643	-2,128981	2,755388	2020-10-29T19:39:30:301
-9,080240	-2,222451	2,963164	2020-10-29T19:39:30:317
-9,024052	-2,294200	3,077909	2020-10-29T19:39:30:341
-8,965583	-2,379586	3,182182	2020-10-29T19:39:30:358
-8,916637	-2,473417	3,247488	2020-10-29T19:39:30:381
-8,856650	-2,581747	3,326365	2020-10-29T19:39:30:398
-8,774534	-2,707546	3,441967	2020-10-29T19:39:30:420
-8,694800	-2,855400	3,523850	2020-10-29T19:39:30:437
-8,550477	-3,112057	3,657162	2020-10-29T19:39:30:463
-8,375802	-3,422809	3,781627	2020-10-29T19:39:30:478
-9,273759	-2,558156	1,903580	2020-10-29T19:39:30:501
-6,879737	-6,152006	3,315483	2020-10-29T19:39:30:518
-6,663661	-6,346505	3,389376	2020-10-29T19:39:30:542
-6,477750	-6,506563	3,445835	2020-10-29T19:39:30:558
-6,347973	-6,627552	3,456758	2020-10-29T19:39:30:582
-6,296530	-6,677367	3,454977	2020-10-29T19:39:30:597
-6,346589	-6,618513	3,476562	2020-10-29T19:39:30:622
-6,561537	-6,412158	3,464225	2020-10-29T19:39:30:638
-6,854526	-6,110348	3,442311	2020-10-29T19:39:30:661
-7,124206	-5,788507	3,450980	2020-10-29T19:39:30:678
-7,641366	-3,461934	5,078869	2020-10-29T19:39:30:703
-8,789991	-1,218402	4,173959	2020-10-29T19:39:30:718
-8,750672	-1,059535	4,298081	2020-10-29T19:39:30:741
-8,585748	-0,890548	4,654271	2020-10-29T19:39:30:758
-8,220250	-0,647770	5,308320	2020-10-29T19:39:30:782
-9,456160	-0,545446	-2,540458	2020-10-29T19:39:30:798
-9,624178	-0,464649	-1,824743	2020-10-29T19:39:30:822
-9,722920	-0,342171	-1,232124	2020-10-29T19:39:30:838
-9,765597	-0,210939	-0,871200	2020-10-29T19:39:30:863
-9,765214	-0,103054	-0,894625	2020-10-29T19:39:30:879
-8,569663	-0,016235	4,767704	2020-10-29T19:39:30:901
-9,790874	0,003692	0,556031	2020-10-29T19:39:30:918
-9,775913	-0,013752	0,775703	2020-10-29T19:39:30:942
-9,801141	0,024085	0,327785	2020-10-29T19:39:30:959
-9,804017	0,024882	0,225855	2020-10-29T19:39:30:981
-9,730940	-0,026164	1,215939	2020-10-29T19:39:30:998
-8,739293	-0,086170	4,448339	2020-10-29T19:39:31:022
-8,711302	-0,193390	4,499578	2020-10-29T19:39:31:038
-8,602109	-0,244788	4,702572	2020-10-29T19:39:31:062
-8,680964	-0,301441	4,551963	2020-10-29T19:39:31:079
-8,779803	-0,354492	4,354282	2020-10-29T19:39:31:102
-8,870234	-0,403669	4,162498	2020-10-29T19:39:31:119
-8,939525	-0,453012	4,006254	2020-10-29T19:39:31:142
-9,060536	-0,558487	3,710143	2020-10-29T19:39:31:159
-9,074636	-0,665506	3,657660	2020-10-29T19:39:31:183
-9,055064	-0,769206	3,685718	2020-10-29T19:39:31:198
-9,027662	-0,855585	3,733588	2020-10-29T19:39:31:222
-9,003631	-0,928888	3,773882	2020-10-29T19:39:31:239
-8,976850	-1,007917	3,817154	2020-10-29T19:39:31:263
-8,960988	-1,086290	3,832892	2020-10-29T19:39:31:279
-8,956836	-1,160159	3,820931	2020-10-29T19:39:31:302
-8,970509	-1,230426	3,766485	2020-10-29T19:39:31:319
-9,013669	-1,307970	3,635020	2020-10-29T19:39:31:342
-9,077048	-1,401977	3,436865	2020-10-29T19:39:31:359
-9,137919	-1,504519	3,225713	2020-10-29T19:39:31:382
-9,185964	-1,619513	3,027478	2020-10-29T19:39:31:399
-9,215610	-1,746735	2,862139	2020-10-29T19:39:31:423
-9,227681	-1,888794	2,729973	2020-10-29T19:39:31:439
-9,545310	-2,229682	0,293193	2020-10-29T19:39:31:464
-8,561840	-4,762851	0,424887	2020-10-29T19:39:31:479
-8,457211	-4,946358	0,423684	2020-10-29T19:39:31:502
-8,422835	-5,004236	0,428787	2020-10-29T19:39:31:519
-8,478521	-4,907950	0,443952	2020-10-29T19:39:31:543
-8,601875	-4,686178	0,466754	2020-10-29T19:39:31:559
-8,726460	-4,448018	0,484162	2020-10-29T19:39:31:583
-8,841684	-4,213175	0,494126	2020-10-29T19:39:31:599
-8,972955	-3,923235	0,514479	2020-10-29T19:39:31:622
-9,102820	-3,609854	0,527263	2020-10-29T19:39:31:639
-9,191303	-3,382176	0,501219	2020-10-29T19:39:31:663
-9,261561	-3,190557	0,462828	2020-10-29T19:39:31:679
-9,304208	-3,067439	0,439219	2020-10-29T19:39:31:701
-9,346561	-2,941031	0,403130	2020-10-29T19:39:31:719
-8,318072	-5,109082	0,936665	2020-10-29T19:39:31:744
-8,954488	-3,932456	0,723414	2020-10-29T19:39:31:759
-8,984520	-3,849820	0,792258	2020-10-29T19:39:31:784
-9,032681	-3,722643	0,850282	2020-10-29T19:39:31:799
-9,082220	-3,589514	0,893901	2020-10-29T19:39:31:823
-9,139857	-3,438155	0,901385	2020-10-29T19:39:31:839
-9,604380	-1,970427	0,209043	2020-10-29T19:39:31:863
-8,118053	-5,494617	0,277068	2020-10-29T19:39:31:879
-7,968044	-5,710812	0,259390	2020-10-29T19:39:31:903
-7,870585	-5,844673	0,253109	2020-10-29T19:39:31:919
-7,823724	-5,906452	0,271209	2020-10-29T19:39:31:942
-7,879799	-5,828385	0,330260	2020-10-29T19:39:31:959
-7,944731	-5,734300	0,411630	2020-10-29T19:39:31:984
-7,982482	-5,674694	0,498213	2020-10-29T19:39:32:000
-7,927490	-5,746006	0,555603	2020-10-29T19:39:32:024
-8,035644	-5,574148	0,726418	2020-10-29T19:39:32:040
-7,990356	-5,630315	0,790023	2020-10-29T19:39:32:064
-7,861276	-5,795271	0,886311	2020-10-29T19:39:32:081
-7,924892	-5,690534	0,992112	2020-10-29T19:39:32:102
-9,605351	-1,930548	0,424956	2020-10-29T19:39:32:119
-9,541897	-2,188649	0,576542	2020-10-29T19:39:32:144
-9,405400	-2,662987	0,785702	2020-10-29T19:39:32:160
-9,253127	-3,128046	0,874849	2020-10-29T19:39:32:184
-9,088930	-3,554739	0,962063	2020-10-29T19:39:32:200
-7,871376	-5,312636	2,446982	2020-10-29T19:39:32:225
-6,618150	-6,259485	3,631711	2020-10-29T19:39:32:239
-6,607051	-6,274596	3,625838	2020-10-29T19:39:32:264
-6,512947	-6,372971	3,624521	2020-10-29T19:39:32:280
-6,401679	-6,494072	3,607759	2020-10-29T19:39:32:304
-6,285626	-6,617778	3,586963	2020-10-29T19:39:32:320
-6,230810	-6,703554	3,522749	2020-10-29T19:39:32:343
-6,122288	-6,816596	3,495998	2020-10-29T19:39:32:360
-6,030026	-6,898672	3,495353	2020-10-29T19:39:32:385
-5,966516	-6,962355	3,478028	2020-10-29T19:39:32:400
-5,918339	-7,017195	3,450018	2020-10-29T19:39:32:423
-5,881337	-7,043772	3,459124	2020-10-29T19:39:32:440
-5,826634	-7,082127	3,473356	2020-10-29T19:39:32:464
-5,741706	-7,127751	3,521131	2020-10-29T19:39:32:480
-5,686411	-7,158333	3,548717	2020-10-29T19:39:32:504
-5,589995	-7,200974	3,615012	2020-10-29T19:39:32:520
-5,487950	-7,231472	3,709260	2020-10-29T19:39:32:544
-5,337933	-7,288936	3,814219	2020-10-29T19:39:32:561
-5,171335	-7,355980	3,913724	2020-10-29T19:39:32:584
-4,978630	-7,422375	4,036332	2020-10-29T19:39:32:600
-4,770042	-7,469288	4,198431	2020-10-29T19:39:32:624
-4,544803	-7,497234	4,393932	2020-10-29T19:39:32:640
-4,304247	-7,508754	4,611123	2020-10-29T19:39:32:664
-4,026803	-7,539340	4,807659	2020-10-29T19:39:32:680
-3,739978	-7,551198	5,016209	2020-10-29T19:39:32:704
-3,451198	-7,521831	5,261339	2020-10-29T19:39:32:720
-0,753601	-7,022917	6,803022	2020-10-29T19:39:32:745
1,215830	-7,642015	6,024264	2020-10-29T19:39:32:761
1,382844	-7,553700	6,099159	2020-10-29T19:39:32:784
1,547602	-7,466067	6,167103	2020-10-29T19:39:32:800
1,683968	-7,391352	6,221138	2020-10-29T19:39:32:823
1,815340	-7,311510	6,278276	2020-10-29T19:39:32:841
1,929125	-7,239173	6,327972	2020-10-29T19:39:32:865
2,032278	-7,147198	6,399828	2020-10-29T19:39:32:880
2,136867	-7,005638	6,521136	2020-10-29T19:39:32:903
2,236211	-6,841881	6,660211	2020-10-29T19:39:32:920
2,320724	-6,720689	6,754033	2020-10-29T19:39:32:944
2,420023	-6,537514	6,897448	2020-10-29T19:39:32:960
2,550828	-6,335168	7,037706	2020-10-29T19:39:32:984
2,677354	-6,197725	7,112690	2020-10-29T19:39:33:000
2,799825	-6,161604	7,096900	2020-10-29T19:39:33:024
2,918202	-6,262360	6,959693	2020-10-29T19:39:33:040
3,004919	-6,437068	6,760548	2020-10-29T19:39:33:064
3,070293	-6,586845	6,584615	2020-10-29T19:39:33:081
3,119535	-6,639420	6,508225	2020-10-29T19:39:33:104
3,180224	-6,594738	6,524262	2020-10-29T19:39:33:120
3,240376	-6,447186	6,641095	2020-10-29T19:39:33:143
3,290242	-6,253346	6,800026	2020-10-29T19:39:33:161
3,030824	-3,587134	8,609120	2020-10-29T19:39:33:186
2,670673	-2,660824	9,053061	2020-10-29T19:39:33:201
2,694190	-2,666423	9,044441	2020-10-29T19:39:33:225
2,732440	-2,738830	9,011269	2020-10-29T19:39:33:240
3,593194	-5,527325	7,260029	2020-10-29T19:39:33:265
3,503050	-5,313723	7,460789	2020-10-29T19:39:33:281
3,502965	-5,265671	7,494820	2020-10-29T19:39:33:304
3,492027	-5,213886	7,536016	2020-10-29T19:39:33:320
3,454154	-5,192362	7,568262	2020-10-29T19:39:33:345
3,382757	-5,179693	7,609081	2020-10-29T19:39:33:361
3,286018	-5,161697	7,663508	2020-10-29T19:39:33:384
3,192010	-5,074345	7,760959	2020-10-29T19:39:33:401
2,819991	-4,599883	8,188963	2020-10-29T19:39:33:425
2,199360	-3,079521	9,047085	2020-10-29T19:39:33:441
2,125412	-2,955011	9,106092	2020-10-29T19:39:33:465
2,019158	-2,877387	9,155000	2020-10-29T19:39:33:481
1,929958	-2,848800	9,183136	2020-10-29T19:39:33:505
1,873334	-2,833891	9,199460	2020-10-29T19:39:33:521
1,812313	-2,813747	9,217849	2020-10-29T19:39:33:544
1,737151	-2,815024	9,231919	2020-10-29T19:39:33:561
1,631652	-2,845604	9,241787	2020-10-29T19:39:33:585
1,487525	-2,909761	9,246131	2020-10-29T19:39:33:601
1,338252	-3,048294	9,224281	2020-10-29T19:39:33:624
1,165643	-3,257813	9,175964	2020-10-29T19:39:33:641
0,981806	-3,360002	9,160613	2020-10-29T19:39:33:665
0,784247	-3,397368	9,165874	2020-10-29T19:39:33:681
0,541361	-3,452256	9,162928	2020-10-29T19:39:33:705
0,257501	-3,326959	9,221465	2020-10-29T19:39:33:721
0,045285	-3,188171	9,273829	2020-10-29T19:39:33:745
-0,130021	-3,034581	9,324419	2020-10-29T19:39:33:761
-0,193497	-3,048508	9,318773	2020-10-29T19:39:33:784
0,016137	-3,641533	9,105457	2020-10-29T19:39:33:801
-0,042162	-3,768902	9,053396	2020-10-29T19:39:33:826
-0,362613	-3,211571	9,258763	2020-10-29T19:39:33:841
-0,580793	-2,877432	9,357000	2020-10-29T19:39:33:864
-0,790862	-2,765609	9,375304	2020-10-29T19:39:33:882
-4,864752	-8,387012	1,470574	2020-10-29T19:39:33:906
-6,011453	-7,691966	0,930854	2020-10-29T19:39:33:921
-6,158813	-7,574229	0,932986	2020-10-29T19:39:33:945
-6,204501	-7,547153	0,845600	2020-10-29T19:39:33:961
-6,109338	-7,637094	0,721916	2020-10-29T19:39:33:986
-6,236149	-7,538712	0,669818	2020-10-29T19:39:34:001
-6,529112	-7,284748	0,688138	2020-10-29T19:39:34:024
-6,761460	-7,069787	0,686405	2020-10-29T19:39:34:042
-6,916421	-6,922869	0,638270	2020-10-29T19:39:34:067
-6,960081	-6,886074	0,556467	2020-10-29T19:39:34:082
-6,935213	-6,918882	0,449745	2020-10-29T19:39:34:104
-6,895591	-6,965280	0,325706	2020-10-29T19:39:34:122
-6,829152	-7,035902	0,170751	2020-10-29T19:39:34:147
-6,901556	-6,966682	0,065189	2020-10-29T19:39:34:162
-7,156856	-6,704418	0,023961	2020-10-29T19:39:34:187
-7,387942	-6,448876	0,026178	2020-10-29T19:39:34:201
-7,653403	-6,130627	0,105903	2020-10-29T19:39:34:227
-8,566016	-4,767514	0,254106	2020-10-29T19:39:34:241
-9,181962	-3,423159	0,379389	2020-10-29T19:39:34:266
-9,377255	-2,821693	0,524892	2020-10-29T19:39:34:282
-9,391684	-2,725194	0,734832	2020-10-29T19:39:34:307
-9,358870	-2,764987	0,967883	2020-10-29T19:39:34:321
-9,304768	-2,833628	1,249897	2020-10-29T19:39:34:346
-9,234228	-2,944042	1,493995	2020-10-29T19:39:34:362
-9,131824	-3,128539	1,729861	2020-10-29T19:39:34:387
-8,956683	-3,524242	1,878280	2020-10-29T19:39:34:402
-8,724510	-4,017031	1,979084	2020-10-29T19:39:34:426
-8,513152	-4,432231	2,012947	2020-10-29T19:39:34:441
-8,316714	-4,796185	1,999813	2020-10-29T19:39:34:466
-8,141318	-5,114952	1,930437	2020-10-29T19:39:34:482
-8,026557	-5,317624	1,862161	2020-10-29T19:39:34:506
-7,965603	-5,428613	1,802696	2020-10-29T19:39:34:521
-7,942139	-5,477754	1,756994	2020-10-29T19:39:34:546
-7,958099	-5,461698	1,734618	2020-10-29T19:39:34:562
-8,010130	-5,382628	1,742272	2020-10-29T19:39:34:585
-8,090191	-5,254496	1,763368	2020-10-29T19:39:34:602
-8,202238	-5,057666	1,820356	2020-10-29T19:39:34:626
-8,336528	-4,808421	1,884613	2020-10-29T19:39:34:642
-8,460771	-4,589512	1,876733	2020-10-29T19:39:34:667
-8,607132	-4,317302	1,857033	2020-10-29T19:39:34:682
-8,813967	-3,861745	1,889787	2020-10-29T19:39:34:706
-9,032197	-3,292820	1,935752	2020-10-29T19:39:34:722
-8,993575	-3,757399	1,080717	2020-10-29T19:39:34:746
-9,629804	1,834020	0,271357	2020-10-29T19:39:34:764
-9,097668	3,640492	0,386847	2020-10-29T19:39:34:787
-8,427357	4,992362	0,475788	2020-10-29T19:39:34:802
-9,121486	-3,499868	0,848409	2020-10-29T19:39:34:826
-9,776214	0,771973	0,009222	2020-10-29T19:39:34:842
-9,750051	1,051629	-0,031040	2020-10-29T19:39:34:866
-9,749981	1,052498	-0,022655	2020-10-29T19:39:34:882
-9,760186	0,953495	0,000691	2020-10-29T19:39:34:906
-9,754812	1,006350	-0,035832	2020-10-29T19:39:34:922
-9,754288	1,008819	-0,080865	2020-10-29T19:39:34:946
-9,771575	0,825646	-0,070855	2020-10-29T19:39:34:962
-9,786133	0,631956	-0,051224	2020-10-29T19:39:34:986
-9,797044	0,433578	-0,018306	2020-10-29T19:39:35:002
-9,804276	0,210728	0,046350	2020-10-29T19:39:35:026
-9,805608	-0,017410	0,141919	2020-10-29T19:39:35:042
-9,800304	-0,240907	0,257658	2020-10-29T19:39:35:066
-9,789164	-0,448741	0,375900	2020-10-29T19:39:35:083
-9,772249	-0,654558	0,495053	2020-10-29T19:39:35:106
-9,751212	-0,846335	0,606593	2020-10-29T19:39:35:122
-9,726460	-1,028518	0,713103	2020-10-29T19:39:35:146
-9,698129	-1,203653	0,817257	2020-10-29T19:39:35:163
-9,666573	-1,375082	0,914829	2020-10-29T19:39:35:187
-9,631021	-1,546043	1,011714	2020-10-29T19:39:35:203
-9,590723	-1,717118	1,113520	2020-10-29T19:39:35:226
-9,548039	-1,874892	1,220696	2020-10-29T19:39:35:242
-9,501295	-2,024888	1,340000	2020-10-29T19:39:35:269
-9,453478	-2,156318	1,467117	2020-10-29T19:39:35:283
-9,400940	-2,282119	1,607683	2020-10-29T19:39:35:305
-9,345303	-2,393925	1,762050	2020-10-29T19:39:35:323
-9,445954	-1,380455	2,244699	2020-10-29T19:39:35:348
-8,600752	-2,186084	4,173545	2020-10-29T19:39:35:363
-8,520180	-2,222761	4,316972	2020-10-29T19:39:35:387
-8,456266	-2,243529	4,430409	2020-10-29T19:39:35:403
-8,406756	-2,251478	4,519699	2020-10-29T19:39:35:426
-8,383575	-2,257129	4,559760	2020-10-29T19:39:35:443
-8,379295	-2,260087	4,566157	2020-10-29T19:39:35:466
-8,387085	-2,251978	4,555852	2020-10-29T19:39:35:483
-8,398310	-2,231563	4,545206	2020-10-29T19:39:35:507
-8,414060	-2,194432	4,534142	2020-10-29T19:39:35:523
-8,417157	-2,164367	4,542836	2020-10-29T19:39:35:545
-8,435088	-2,119535	4,530700	2020-10-29T19:39:35:563
-8,458316	-2,067806	4,511259	2020-10-29T19:39:35:587
-8,485640	-2,015731	4,483428	2020-10-29T19:39:35:603
-8,528667	-1,968120	4,422524	2020-10-29T19:39:35:627
-8,598774	-1,864879	4,330553	2020-10-29T19:39:35:643
-8,640885	-1,635993	4,339241	2020-10-29T19:39:35:667
-8,707780	-1,527335	4,244079	2020-10-29T19:39:35:683
-8,805286	-1,464287	4,061180	2020-10-29T19:39:35:706
-8,912081	-1,442505	3,829411	2020-10-29T19:39:35:723
-9,013133	-1,438280	3,586806	2020-10-29T19:39:35:747
-9,123384	-1,450330	3,291016	2020-10-29T19:39:35:763
-9,217507	-1,435243	3,024570	2020-10-29T19:39:35:786
-9,288427	-1,404132	2,814944	2020-10-29T19:39:35:803
-9,716116	-1,222085	0,523442	2020-10-29T19:39:35:828
-9,705145	-1,133059	0,834704	2020-10-29T19:39:35:843
-9,702150	-1,130736	0,871839	2020-10-29T19:39:35:867
-9,690280	-1,199549	0,911015	2020-10-29T19:39:35:883
-9,670882	-1,324682	0,943204	2020-10-29T19:39:35:907
-9,646253	-1,484347	0,957553	2020-10-29T19:39:35:923
-9,260614	-2,902205	1,410182	2020-10-29T19:39:35:947
-8,954385	-3,923827	0,770037	2020-10-29T19:39:35:963
-8,912560	-4,028159	0,714565	2020-10-29T19:39:35:988
-8,960942	-3,924997	0,682865	2020-10-29T19:39:36:003
-9,066874	-3,678951	0,653844	2020-10-29T19:39:36:026
-9,200520	-3,337077	0,620276	2020-10-29T19:39:36:044
-9,329912	-2,965285	0,574643	2020-10-29T19:39:36:068
-9,433444	-2,630569	0,510518	2020-10-29T19:39:36:084
-9,519734	-2,312647	0,443516	2020-10-29T19:39:36:107
-9,592896	-2,000514	0,380344	2020-10-29T19:39:36:123
-9,653440	-1,695816	0,325110	2020-10-29T19:39:36:147
-9,713919	-1,326629	0,224126	2020-10-29T19:39:36:164
-9,756865	-0,978202	0,130765	2020-10-29T19:39:36:187
-9,510630	-2,382092	0,209633	2020-10-29T19:39:36:203
-9,415325	-2,733930	0,218338	2020-10-29T19:39:36:228
-9,350615	-2,946778	0,229975	2020-10-29T19:39:36:244
-9,219360	-1,589024	2,940881	2020-10-29T19:39:36:267
-9,469383	-1,340306	2,169044	2020-10-29T19:39:36:284
-9,481093	-1,338213	2,118594	2020-10-29T19:39:36:308
-9,487959	-1,349905	2,080089	2020-10-29T19:39:36:323
-9,488775	-1,363129	2,067706	2020-10-29T19:39:36:348
-9,486097	-1,380507	2,068465	2020-10-29T19:39:36:364
-9,475019	-1,415113	2,095674	2020-10-29T19:39:36:388
-9,441922	-1,487710	2,192534	2020-10-29T19:39:36:404
-9,376762	-1,619489	2,371492	2020-10-29T19:39:36:427
-9,304004	-1,762759	2,549230	2020-10-29T19:39:36:444
-9,226949	-1,908362	2,718816	2020-10-29T19:39:36:468
-9,138932	-2,047467	2,908294	2020-10-29T19:39:36:484
-9,039444	-2,180605	3,115092	2020-10-29T19:39:36:506
-8,924755	-2,306564	3,346476	2020-10-29T19:39:36:524
-8,795566	-2,430312	3,591935	2020-10-29T19:39:36:548
-8,667039	-2,565270	3,804236	2020-10-29T19:39:36:564
-8,537689	-2,706603	3,994063	2020-10-29T19:39:36:588
-8,404205	-2,851300	4,172505	2020-10-29T19:39:36:604
-8,261550	-3,017897	4,336989	2020-10-29T19:39:36:627
-8,118346	-3,174903	4,492531	2020-10-29T19:39:36:644
-9,468472	-1,418326	2,122914	2020-10-29T19:39:36:668
-8,359850	-3,261299	3,955656	2020-10-29T19:39:36:685
-8,263866	-3,392316	4,046120	2020-10-29T19:39:36:708
-8,193649	-3,493980	4,102023	2020-10-29T19:39:36:724
-8,151670	-3,523191	4,160263	2020-10-29T19:39:36:747
-8,131754	-3,523727	4,198609	2020-10-29T19:39:36:764
-8,088514	-3,545653	4,263176	2020-10-29T19:39:36:788
-8,067159	-3,550662	4,299318	2020-10-29T19:39:36:804
-8,068552	-3,535308	4,309345	2020-10-29T19:39:36:828
-8,082089	-3,512368	4,302730	2020-10-29T19:39:36:844
-8,114025	-3,467512	4,278941	2020-10-29T19:39:36:868
-8,165596	-3,394892	4,238883	2020-10-29T19:39:36:886
-9,299399	-1,416445	2,772228	2020-10-29T19:39:36:911
-9,634641	-0,453277	1,771614	2020-10-29T19:39:36:925
-9,659900	-0,341631	1,655299	2020-10-29T19:39:36:949
-9,689313	-0,201320	1,499022	2020-10-29T19:39:36:964
-9,718778	-0,035232	1,309387	2020-10-29T19:39:36:987
-9,744420	0,153966	1,092225	2020-10-29T19:39:37:004
-9,762047	0,335386	0,871976	2020-10-29T19:39:37:028
-9,771280	0,538832	0,634129	2020-10-29T19:39:37:044
-9,769370	0,767006	0,376162	2020-10-29T19:39:37:068
-9,748328	1,065332	0,074539	2020-10-29T19:39:37:085
-9,704354	1,394361	-0,227277	2020-10-29T19:39:37:109
-9,642779	1,726675	-0,453632	2020-10-29T19:39:37:124
-9,571661	2,048233	-0,598699	2020-10-29T19:39:37:148
-9,503492	2,327636	-0,660392	2020-10-29T19:39:37:164
-9,493740	2,392540	-0,561275	2020-10-29T19:39:37:189
-9,465967	2,509217	-0,519301	2020-10-29T19:39:37:204
-9,474564	2,489523	-0,453104	2020-10-29T19:39:37:228
-9,485596	2,454159	-0,413472	2020-10-29T19:39:37:244
-9,283089	-2,755136	1,550443	2020-10-29T19:39:37:270
-9,522523	-2,089255	1,061585	2020-10-29T19:39:37:284
-9,533894	-2,047985	1,039720	2020-10-29T19:39:37:308
-9,537385	-2,032092	1,038883	2020-10-29T19:39:37:324
-9,519306	-2,091184	1,086345	2020-10-29T19:39:37:348
-9,466262	-2,272798	1,180956	2020-10-29T19:39:37:365
-9,306581	-0,319733	3,075013	2020-10-29T19:39:37:390
-8,789144	-2,275201	3,707397	2020-10-29T19:39:37:404
-8,674682	-2,538402	3,804838	2020-10-29T19:39:37:428
-8,586875	-2,689502	3,899044	2020-10-29T19:39:37:470
-8,493072	-2,852285	3,987805	2020-10-29T19:39:37:471
-8,386608	-3,078374	4,044602	2020-10-29T19:39:37:487
-8,298673	-3,273374	4,072767	2020-10-29T19:39:37:515
-8,236181	-3,414229	4,083961	2020-10-29T19:39:37:524
-7,703140	-3,594265	4,890121	2020-10-29T19:39:37:549
-8,092571	-3,326466	4,428916	2020-10-29T19:39:37:564
-8,158182	-3,211941	4,392936	2020-10-29T19:39:37:588
-8,254677	-3,062109	4,319050	2020-10-29T19:39:37:605
-8,372314	-2,892094	4,208387	2020-10-29T19:39:37:628
-8,500785	-2,685469	4,085989	2020-10-29T19:39:37:645
-8,641432	-2,448199	3,937304	2020-10-29T19:39:37:669
-8,779026	-2,235531	3,755194	2020-10-29T19:39:37:685
-8,895861	-2,090522	3,558619	2020-10-29T19:39:37:708
-8,981911	-2,025473	3,375371	2020-10-29T19:39:37:725
-9,037843	-2,026654	3,221873	2020-10-29T19:39:37:748
-9,072000	-2,077457	3,090853	2020-10-29T19:39:37:765
-8,414325	-4,642823	1,952873	2020-10-29T19:39:37:791
-8,765088	-4,147447	1,463659	2020-10-29T19:39:37:804
-8,780043	-4,116481	1,461446	2020-10-29T19:39:37:829
-8,799433	-4,079490	1,448491	2020-10-29T19:39:37:845
-8,846767	-3,994054	1,397360	2020-10-29T19:39:37:869
-8,890875	-3,906825	1,363615	2020-10-29T19:39:37:885
-8,917667	-3,850530	1,348710	2020-10-29T19:39:37:909
-8,943166	-3,797146	1,331108	2020-10-29T19:39:37:924
-8,952273	-3,774801	1,333438	2020-10-29T19:39:37:948
-8,937884	-3,791557	1,381558	2020-10-29T19:39:37:965
-8,926155	-3,806780	1,415119	2020-10-29T19:39:37:989
-8,900837	-3,842978	1,475469	2020-10-29T19:39:38:004
-9,077767	-3,649380	0,668247	2020-10-29T19:39:38:031
-1,352191	-8,101041	5,358647	2020-10-29T19:39:38:045
-0,679620	-7,865362	5,817609	2020-10-29T19:39:38:069
0,058557	-7,544735	6,264497	2020-10-29T19:39:38:085
0,857425	-7,145161	6,661973	2020-10-29T19:39:38:108
1,619572	-6,760237	6,917121	2020-10-29T19:39:38:125
2,221658	-6,490404	7,007802	2020-10-29T19:39:38:149
2,507685	-6,526542	6,876492	2020-10-29T19:39:38:165
2,711336	-6,635344	6,692627	2020-10-29T19:39:38:188
2,918312	-6,731515	6,506960	2020-10-29T19:39:38:205
3,146150	-6,782322	6,346040	2020-10-29T19:39:38:229
3,367707	-6,784992	6,228389	2020-10-29T19:39:38:245
3,442680	-6,848213	6,117215	2020-10-29T19:39:38:269
3,514560	-6,867517	6,054375	2020-10-29T19:39:38:285
3,566522	-6,862720	6,029376	2020-10-29T19:39:38:308
3,736155	-6,730329	6,075706	2020-10-29T19:39:38:325
3,853665	-6,604441	6,140115	2020-10-29T19:39:38:348
3,922661	-6,485558	6,222592	2020-10-29T19:39:38:365
3,964117	-6,354616	6,330483	2020-10-29T19:39:38:389
3,970678	-6,242525	6,437002	2020-10-29T19:39:38:405
3,933403	-6,161045	6,537603	2020-10-29T19:39:38:428
3,834917	-6,134290	6,620747	2020-10-29T19:39:38:445
3,661149	-6,166212	6,689111	2020-10-29T19:39:38:469
3,429983	-6,242354	6,740817	2020-10-29T19:39:38:485
-9,595495	-1,803687	0,918461	2020-10-29T19:39:38:511
-9,736908	1,113254	-0,351680	2020-10-29T19:39:38:525
-9,700780	1,361509	-0,459937	2020-10-29T19:39:38:549
-9,650826	1,640269	-0,584330	2020-10-29T19:39:38:566
-9,586417	1,934896	-0,726069	2020-10-29T19:39:38:589
-9,507447	2,236043	-0,882574	2020-10-29T19:39:38:605
-9,416960	-1,343096	2,384814	2020-10-29T19:39:38:630
-9,675934	1,332455	-0,878211	2020-10-29T19:39:38:645
-9,614826	1,562831	-1,132725	2020-10-29T19:39:38:669
-9,545959	1,789884	-1,356967	2020-10-29T19:39:38:686
-7,204754	5,293185	-4,030396	2020-10-29T19:39:38:709
-6,843167	5,626965	-4,204607	2020-10-29T19:39:38:725
-6,510088	5,912011	-4,340191	2020-10-29T19:39:38:749
-6,215795	6,132629	-4,463758	2020-10-29T19:39:38:766
-6,218207	6,147010	-4,440557	2020-10-29T19:39:38:790
-6,090337	6,211434	-4,527281	2020-10-29T19:39:38:805
-6,014030	6,213925	-4,624819	2020-10-29T19:39:38:828
-5,981733	6,167817	-4,727291	2020-10-29T19:39:38:845
-6,200904	5,976696	-4,690232	2020-10-29T19:39:38:870
-6,439288	5,782999	-4,611169	2020-10-29T19:39:38:886
-9,388335	-2,163666	1,829781	2020-10-29T19:39:38:909
-9,643678	-1,277698	1,239898	2020-10-29T19:39:38:925
-9,650356	-1,249260	1,216703	2020-10-29T19:39:38:949
-9,648672	-1,268760	1,209862	2020-10-29T19:39:38:965
-9,638758	-1,337425	1,214921	2020-10-29T19:39:38:990
-9,621551	-1,449966	1,222193	2020-10-29T19:39:39:005
-9,601254	-1,582497	1,217377	2020-10-29T19:39:39:030
-9,567730	-1,784356	1,202085	2020-10-29T19:39:39:046
-9,525688	-2,014462	1,172005	2020-10-29T19:39:39:069
-9,483554	-2,227887	1,126547	2020-10-29T19:39:39:086
-8,967971	-3,848567	0,966648	2020-10-29T19:39:39:111
-8,757551	-4,400120	0,338559	2020-10-29T19:39:39:125
-9,664299	-1,537282	0,639122	2020-10-29T19:39:39:151
-9,465415	-2,480065	-0,652359	2020-10-29T19:39:39:166
-9,421272	-2,617453	-0,747627	2020-10-29T19:39:39:190
-9,362913	-2,786700	-0,860545	2020-10-29T19:39:39:206
-9,295454	-2,960876	-0,999061	2020-10-29T19:39:39:230
-9,229209	-3,121197	-1,118130	2020-10-29T19:39:39:246
-9,191217	-3,224449	-1,137911	2020-10-29T19:39:39:270
-9,182319	-3,270692	-1,076097	2020-10-29T19:39:39:287
-9,215189	-3,231342	-0,899504	2020-10-29T19:39:39:310
-9,207679	-3,277810	-0,803115	2020-10-29T19:39:39:326
-9,160574	-3,421782	-0,738700	2020-10-29T19:39:39:350
-9,066471	-3,671974	-0,697198	2020-10-29T19:39:39:366
-8,902237	-4,054509	-0,693912	2020-10-29T19:39:39:389
-8,611279	-4,644053	-0,670103	2020-10-29T19:39:39:406
-9,356171	-2,930185	0,215550	2020-10-29T19:39:39:431
-7,876586	-5,570644	1,760029	2020-10-29T19:39:39:446
-9,157395	-3,451983	-0,629524	2020-10-29T19:39:39:481
-7,425299	-6,198405	1,617125	2020-10-29T19:39:39:487
-7,481350	-6,069736	1,832509	2020-10-29T19:39:39:510
-7,519329	-5,980860	1,964533	2020-10-29T19:39:39:526
-9,299244	-2,585418	-1,734952	2020-10-29T19:39:39:550
-7,520528	-6,281895	-0,387087	2020-10-29T19:39:39:566
-7,105104	-6,756823	-0,182264	2020-10-29T19:39:39:591
-6,995305	-6,872817	-0,021971	2020-10-29T19:39:39:606
-7,041448	-6,824771	0,104354	2020-10-29T19:39:39:629
-7,131508	-6,728680	0,191929	2020-10-29T19:39:39:646
-7,198974	-6,654436	0,252274	2020-10-29T19:39:39:671
-7,228745	-6,620348	0,294321	2020-10-29T19:39:39:687
-7,223184	-6,624929	0,326060	2020-10-29T19:39:39:711
-7,207198	-6,640951	0,352784	2020-10-29T19:39:39:726
-7,208861	-6,637191	0,387820	2020-10-29T19:39:39:750
-7,235812	-6,604797	0,435967	2020-10-29T19:39:39:767
-7,301704	-6,527586	0,496112	2020-10-29T19:39:39:790
-7,376471	-6,438164	0,555075	2020-10-29T19:39:39:806
-7,452053	-6,345931	0,605349	2020-10-29T19:39:39:830
-7,513917	-6,267961	0,651230	2020-10-29T19:39:39:846
-9,271426	-3,083467	-0,838610	2020-10-29T19:39:39:870
-6,946232	-6,922139	0,065115	2020-10-29T19:39:39:890
-7,006769	-6,859218	0,163408	2020-10-29T19:39:39:910
-7,058592	-6,803145	0,252738	2020-10-29T19:39:39:926
-7,113430	-6,740696	0,364032	2020-10-29T19:39:39:950
-7,144049	-6,701105	0,477652	2020-10-29T19:39:39:967
-7,149384	-6,685493	0,600729	2020-10-29T19:39:39:991
-7,126702	-6,696437	0,733643	2020-10-29T19:39:40:007
-7,063771	-6,749056	0,850748	2020-10-29T19:39:40:030
-6,976746	-6,822028	0,977418	2020-10-29T19:39:40:047
-6,857089	-6,921410	1,115709	2020-10-29T19:39:40:072
-6,712413	-7,036273	1,266789	2020-10-29T19:39:40:087
-6,542562	-7,164133	1,428449	2020-10-29T19:39:40:110
-6,352858	-7,297259	1,600497	2020-10-29T19:39:40:127
-6,146008	-7,430212	1,785755	2020-10-29T19:39:40:151
-5,935951	-7,558117	1,951854	2020-10-29T19:39:40:167
-9,631518	-1,826747	-0,259310	2020-10-29T19:39:40:192
-9,467417	-2,309674	1,097184	2020-10-29T19:39:40:207
-9,442421	-2,332356	1,253472	2020-10-29T19:39:40:231
-9,419231	-2,332022	1,417794	2020-10-29T19:39:40:247
-9,434586	-2,251203	1,446054	2020-10-29T19:39:40:270
-9,460926	-2,140772	1,441651	2020-10-29T19:39:40:287
-9,487429	-2,007094	1,459678	2020-10-29T19:39:40:311
-9,503613	-1,900520	1,496577	2020-10-29T19:39:40:327
-9,510846	-1,843600	1,521622	2020-10-29T19:39:40:350
-9,509073	-1,845620	1,530226	2020-10-29T19:39:40:367
-9,498735	-1,881018	1,551189	2020-10-29T19:39:40:392
-9,485621	-1,913307	1,591424	2020-10-29T19:39:40:407
-9,466185	-1,938022	1,675054	2020-10-29T19:39:40:431
-9,440251	-1,950476	1,802135	2020-10-29T19:39:40:447
-9,406948	-1,953858	1,965235	2020-10-29T19:39:40:472
-9,376119	-1,963253	2,098673	2020-10-29T19:39:40:488
-9,352762	-1,980938	2,184516	2020-10-29T19:39:40:510
-9,334756	-2,007359	2,236791	2020-10-29T19:39:40:527
-9,317021	-2,035928	2,284401	2020-10-29T19:39:40:552
-9,298501	-2,063287	2,334760	2020-10-29T19:39:40:568
-9,278551	-2,088056	2,391422	2020-10-29T19:39:40:591
-9,254586	-2,109147	2,464654	2020-10-29T19:39:40:608
-9,225821	-2,127775	2,554834	2020-10-29T19:39:40:632
-9,194328	-2,138428	2,657413	2020-10-29T19:39:40:647
-9,159871	-2,146570	2,767560	2020-10-29T19:39:40:672
-9,101834	-2,163633	2,940356	2020-10-29T19:39:40:687
-9,662540	-1,406187	0,910133	2020-10-29T19:39:40:713
-9,358809	-2,106698	2,035903	2020-10-29T19:39:40:727
-9,312708	-2,176315	2,169678	2020-10-29T19:39:40:751
-9,260451	-2,267035	2,296733	2020-10-29T19:39:40:768
-9,223424	-2,361127	2,350299	2020-10-29T19:39:40:792
-9,184332	-2,464621	2,396680	2020-10-29T19:39:40:808
-9,140385	-2,588117	2,434214	2020-10-29T19:39:40:831
-9,094178	-2,723562	2,459373	2020-10-29T19:39:40:848
-9,018490	-2,883803	2,553605	2020-10-29T19:39:40:873
-8,937074	-3,043708	2,652347	2020-10-29T19:39:40:888
-8,853275	-3,204386	2,742592	2020-10-29T19:39:40:912
-8,794873	-3,342356	2,765726	2020-10-29T19:39:40:928
-8,768296	-3,427737	2,745538	2020-10-29T19:39:40:952
-8,759755	-3,461257	2,730708	2020-10-29T19:39:40:968
-8,771798	-3,456162	2,698311	2020-10-29T19:39:40:991
-8,811545	-3,408335	2,628746	2020-10-29T19:39:41:008
-8,875925	-3,322928	2,519222	2020-10-29T19:39:41:032
-8,963273	-3,207379	2,354323	2020-10-29T19:39:41:048
-9,039366	-3,087857	2,219322	2020-10-29T19:39:41:071
-9,098924	-2,980774	2,120132	2020-10-29T19:39:41:088
-9,144496	-2,893185	2,044029	2020-10-29T19:39:41:112
-9,169685	-2,843412	2,000565	2020-10-29T19:39:41:128
-9,172532	-2,821764	2,018089	2020-10-29T19:39:41:152
-9,163608	-2,799413	2,088534	2020-10-29T19:39:41:168
-9,402757	-1,724712	2,187217	2020-10-29T19:39:41:193
-8,760379	-1,469445	4,155343	2020-10-29T19:39:41:208
-8,602599	-1,372074	4,503675	2020-10-29T19:39:41:231
-8,450860	-1,244116	4,817212	2020-10-29T19:39:41:248
-8,960471	-1,310934	-3,763216	2020-10-29T19:39:41:272
-9,058544	-1,354864	-3,503928	2020-10-29T19:39:41:288
-9,098866	-1,351807	-3,399064	2020-10-29T19:39:41:311
-9,133188	-1,326083	-3,316137	2020-10-29T19:39:41:328
-9,180839	-1,263577	-3,207174	2020-10-29T19:39:41:352
-9,135929	-1,170483	-3,366772	2020-10-29T19:39:41:368
-8,313731	-1,012275	5,101721	2020-10-29T19:39:41:393
-8,564289	-1,152050	4,636390	2020-10-29T19:39:41:408
-8,812891	-1,245596	4,117260	2020-10-29T19:39:41:432
-9,016044	-1,302052	3,631254	2020-10-29T19:39:41:448
-9,176082	-1,339294	3,190016	2020-10-29T19:39:41:471
-9,284368	-1,362298	2,848694	2020-10-29T19:39:41:488
-9,360124	-1,366871	2,586528	2020-10-29T19:39:41:512
-9,419819	-1,368725	2,358809	2020-10-29T19:39:41:528
-9,468783	-1,370054	2,153017	2020-10-29T19:39:41:551
-9,505642	-1,374049	1,981197	2020-10-29T19:39:41:569
-9,460518	-2,368090	1,030119	2020-10-29T19:39:41:593
-9,502753	-2,271050	0,842852	2020-10-29T19:39:41:608
-9,509001	-2,249143	0,831051	2020-10-29T19:39:41:632
-9,522128	-2,199831	0,812533	2020-10-29T19:39:41:648
-9,542253	-2,120373	0,787292	2020-10-29T19:39:41:673
-9,555491	-2,065304	0,772975	2020-10-29T19:39:41:688
-9,576123	-1,967437	0,772940	2020-10-29T19:39:41:713
-9,594895	-1,879662	0,758439	2020-10-29T19:39:41:728
-9,605161	-1,825213	0,761497	2020-10-29T19:39:41:752
-9,617070	-1,762853	0,758085	2020-10-29T19:39:41:768
-9,609892	-1,797039	0,768778	2020-10-29T19:39:41:792
-9,595033	-1,867720	0,785715	2020-10-29T19:39:41:808
-9,064642	-3,050949	2,166648	2020-10-29T19:39:41:833
-8,891268	-3,777012	1,688170	2020-10-29T19:39:41:848
-8,861825	-3,856901	1,662156	2020-10-29T19:39:41:876
-8,845904	-3,897105	1,653161	2020-10-29T19:39:41:888
-8,837103	-3,916904	1,653437	2020-10-29T19:39:41:912
-8,839509	-3,904601	1,669599	2020-10-29T19:39:41:928
-8,852414	-3,861824	1,700430	2020-10-29T19:39:41:952
-8,877419	-3,782536	1,747640	2020-10-29T19:39:41:969
-8,909489	-3,678647	1,805258	2020-10-29T19:39:41:993
-8,952368	-3,543149	1,863219	2020-10-29T19:39:42:009
-9,001386	-3,381479	1,926406	2020-10-29T19:39:42:032
-9,048371	-3,212708	1,993957	2020-10-29T19:39:42:049
-9,087734	-3,050133	2,068855	2020-10-29T19:39:42:073
-9,115150	-2,917965	2,137732	2020-10-29T19:39:42:089
-9,135270	-2,796532	2,212832	2020-10-29T19:39:42:113
-9,144606	-2,704384	2,287548	2020-10-29T19:39:42:128
-9,142797	-2,660697	2,345282	2020-10-29T19:39:42:152
-9,131591	-2,662901	2,386082	2020-10-29T19:39:42:169
-9,113721	-2,710490	2,400776	2020-10-29T19:39:42:192
-9,097243	-2,766920	2,398896	2020-10-29T19:39:42:209
-9,076884	-2,839069	2,391704	2020-10-29T19:39:42:233
-9,054180	-2,919981	2,380317	2020-10-29T19:39:42:249
-9,030107	-3,007078	2,363264	2020-10-29T19:39:42:272
-9,013210	-3,076730	2,337981	2020-10-29T19:39:42:289
-9,000683	-3,137265	2,305570	2020-10-29T19:39:42:313
-8,992949	-3,190439	2,262380	2020-10-29T19:39:42:329
-8,974759	-3,253814	2,244275	2020-10-29T19:39:42:353
-8,961400	-3,311172	2,213557	2020-10-29T19:39:42:369
-8,952325	-3,365325	2,168144	2020-10-29T19:39:42:394
-8,949850	-3,419120	2,092891	2020-10-29T19:39:42:409
-8,955135	-3,456596	2,006959	2020-10-29T19:39:42:432
-8,965900	-3,473811	1,927605	2020-10-29T19:39:42:449
-9,147451	-3,487422	0,576550	2020-10-29T19:39:42:474
-6,081259	-7,673745	0,549833	2020-10-29T19:39:42:490
-5,931004	-7,790759	0,545566	2020-10-29T19:39:42:512
-5,841897	-7,856802	0,559727	2020-10-29T19:39:42:529
-5,814554	-7,873956	0,601799	2020-10-29T19:39:42:553
-5,824385	-7,863058	0,647491	2020-10-29T19:39:42:569
-5,844725	-7,845920	0,671659	2020-10-29T19:39:42:594
-5,862050	-7,833915	0,660706	2020-10-29T19:39:42:609
-5,861849	-7,837617	0,617147	2020-10-29T19:39:42:634
-5,840703	-7,858224	0,552156	2020-10-29T19:39:42:649
-5,773739	-7,913397	0,460947	2020-10-29T19:39:42:673
-5,667729	-7,992994	0,399090	2020-10-29T19:39:42:689
-5,624234	-8,022240	0,426666	2020-10-29T19:39:42:713
-5,786571	-7,896889	0,570202	2020-10-29T19:39:42:729
-6,054452	-7,681293	0,715352	2020-10-29T19:39:42:752
-6,251874	-7,521237	0,717943	2020-10-29T19:39:42:770
-6,416401	-7,386765	0,660219	2020-10-29T19:39:42:794
-6,638168	-7,194840	0,582566	2020-10-29T19:39:42:809
-6,653369	-7,193964	0,387231	2020-10-29T19:39:42:833
-6,383879	-7,443190	0,124104	2020-10-29T19:39:42:850
-8,368834	-5,108861	-0,180362	2020-10-29T19:39:42:874
-9,370784	-2,881768	-0,232836	2020-10-29T19:39:42:890
-9,511145	-2,377519	-0,236483	2020-10-29T19:39:42:913
-7,677410	-6,066545	-0,651762	2020-10-29T19:39:42:931
-7,372418	-6,415328	-0,813267	2020-10-29T19:39:42:953
-6,983228	-6,806410	-1,038121	2020-10-29T19:39:42:971
-6,627480	-7,111572	-1,293229	2020-10-29T19:39:42:993
-6,287630	-7,352048	-1,607321	2020-10-29T19:39:43:012
-8,629173	-4,653590	0,227714	2020-10-29T19:39:43:034
-4,191291	-8,724207	-1,578505	2020-10-29T19:39:43:051
-4,051676	-8,773602	-1,666795	2020-10-29T19:39:43:074
-3,578049	-8,970259	-1,703645	2020-10-29T19:39:43:091
-8,691973	-4,371959	-1,227179	2020-10-29T19:39:43:115
-0,022257	-9,788160	-0,601496	2020-10-29T19:39:43:131
-0,082608	-9,792915	-0,512211	2020-10-29T19:39:43:153
-0,654000	-9,778975	-0,338109	2020-10-29T19:39:43:170
-1,573055	-9,678675	-0,138352	2020-10-29T19:39:43:194
-2,400594	-9,507673	0,108085	2020-10-29T19:39:43:211
-2,803918	-9,392699	0,292617	2020-10-29T19:39:43:233
-3,172590	-9,265510	0,505368	2020-10-29T19:39:43:251
-6,079856	-7,360545	2,242346	2020-10-29T19:39:43:275
-4,384049	-8,203732	3,106328	2020-10-29T19:39:43:291
-4,257476	-8,258333	3,137550	2020-10-29T19:39:43:314
-4,158396	-8,328445	3,084660	2020-10-29T19:39:43:330
-4,038086	-8,415449	3,007402	2020-10-29T19:39:43:353
-3,917814	-8,499167	2,930063	2020-10-29T19:39:43:371
-4,071292	-8,912897	0,393996	2020-10-29T19:39:43:394
-3,061305	-9,154912	1,728117	2020-10-29T19:39:43:410
-2,963584	-9,151059	1,909364	2020-10-29T19:39:43:434
-2,870859	-9,143831	2,078196	2020-10-29T19:39:43:450
-2,854818	-9,116579	2,215488	2020-10-29T19:39:43:473
-2,839801	-9,096189	2,316302	2020-10-29T19:39:43:491
-2,848372	-9,072687	2,396562	2020-10-29T19:39:43:514
-2,909983	-9,031401	2,477134	2020-10-29T19:39:43:530
-2,980537	-8,978360	2,583763	2020-10-29T19:39:43:554
-3,080894	-8,904895	2,716860	2020-10-29T19:39:43:570
-3,224068	-8,807137	2,865330	2020-10-29T19:39:43:594
-3,391145	-8,685448	3,038671	2020-10-29T19:39:43:610
-3,576157	-8,532157	3,253272	2020-10-29T19:39:43:633
-3,752989	-8,360149	3,491900	2020-10-29T19:39:43:650
-3,907950	-8,177591	3,745038	2020-10-29T19:39:43:674
-4,058816	-7,983720	3,994573	2020-10-29T19:39:43:691
-4,214803	-7,782689	4,223218	2020-10-29T19:39:43:713
-4,378607	-7,564063	4,447824	2020-10-29T19:39:43:730
-4,545175	-7,339118	4,652860	2020-10-29T19:39:43:754
-4,689468	-7,131500	4,829180	2020-10-29T19:39:43:771
-4,486718	-5,955098	6,369973	2020-10-29T19:39:43:796
-5,304906	-4,763158	6,733549	2020-10-29T19:39:43:810
-5,378897	-4,692279	6,724610	2020-10-29T19:39:43:834
-5,396967	-4,665459	6,728791	2020-10-29T19:39:43:852
-5,421421	-4,630671	6,733161	2020-10-29T19:39:43:874
-5,428239	-4,601959	6,747338	2020-10-29T19:39:43:891
-5,397349	-4,581310	6,786060	2020-10-29T19:39:43:914
-5,355205	-4,552471	6,838654	2020-10-29T19:39:43:931
-4,739259	-4,980405	6,993237	2020-10-29T19:39:43:954
-4,604139	-4,319238	7,504430	2020-10-29T19:39:43:971
-4,603342	-4,255439	7,541277	2020-10-29T19:39:43:994
-4,604661	-4,202192	7,570275	2020-10-29T19:39:44:011
-5,218359	-3,345538	7,599111	2020-10-29T19:39:44:036
-5,378355	-3,222888	7,540337	2020-10-29T19:39:44:051
-5,417876	-3,209663	7,517650	2020-10-29T19:39:44:074
-5,478748	-3,184283	7,484253	2020-10-29T19:39:44:091
-5,564599	-3,131220	7,443191	2020-10-29T19:39:44:113
-5,659789	-3,065793	7,398519	2020-10-29T19:39:44:131
-5,756198	-3,010591	7,346626	2020-10-29T19:39:44:155
-5,850770	-2,955458	7,294117	2020-10-29T19:39:44:172
-6,766213	-2,924515	6,468072	2020-10-29T19:39:44:195
-7,143463	-2,623325	6,185426	2020-10-29T19:39:44:211
-7,162341	-2,629498	6,160925	2020-10-29T19:39:44:235
-7,170445	-2,656477	6,139889	2020-10-29T19:39:44:251
-7,167329	-2,706127	6,121818	2020-10-29T19:39:44:275
-7,158127	-2,760281	6,108392	2020-10-29T19:39:44:292
-7,148689	-2,812504	6,095609	2020-10-29T19:39:44:315
-7,138929	-2,863183	6,083442	2020-10-29T19:39:44:331
-7,112674	-2,936366	6,079310	2020-10-29T19:39:44:354
-7,061779	-3,019377	6,097952	2020-10-29T19:39:44:371
-6,361253	-3,655810	6,506912	2020-10-29T19:39:44:396
-6,287941	-3,798754	6,496280	2020-10-29T19:39:44:412
-6,299986	-3,792589	6,488206	2020-10-29T19:39:44:434
-6,322273	-3,761700	6,484509	2020-10-29T19:39:44:452
-6,362271	-3,688358	6,487519	2020-10-29T19:39:44:476
-6,409565	-3,572738	6,505644	2020-10-29T19:39:44:492
-6,458182	-3,462571	6,517122	2020-10-29T19:39:44:515
-6,502208	-3,440135	6,485147	2020-10-29T19:39:44:531
-6,530935	-3,493977	6,427238	2020-10-29T19:39:44:555
-6,544463	-3,574077	6,369173	2020-10-29T19:39:44:572
-6,542986	-3,658060	6,322841	2020-10-29T19:39:44:595
-6,529998	-3,738689	6,289016	2020-10-29T19:39:44:612
-6,505586	-3,809711	6,271669	2020-10-29T19:39:44:635
-6,478041	-3,860709	6,268995	2020-10-29T19:39:44:652
-6,445948	-3,901948	6,276539	2020-10-29T19:39:44:675
-6,412580	-3,940228	6,286796	2020-10-29T19:39:44:692
-6,381789	-3,969582	6,299649	2020-10-29T19:39:44:716
-6,358516	-3,984535	6,313726	2020-10-29T19:39:44:732
-6,345094	-3,984049	6,327522	2020-10-29T19:39:44:756
-6,341872	-3,968136	6,340737	2020-10-29T19:39:44:772
-6,343292	-3,961858	6,343241	2020-10-29T19:39:44:796
-6,343258	-3,963267	6,342395	2020-10-29T19:39:44:812
-6,341849	-3,974399	6,336836	2020-10-29T19:39:44:835
-6,341657	-3,984905	6,330426	2020-10-29T19:39:44:852
-6,340948	-3,992175	6,326556	2020-10-29T19:39:44:876
-6,339604	-3,999559	6,323236	2020-10-29T19:39:44:892
-6,335991	-4,002809	6,324802	2020-10-29T19:39:44:915
-6,330529	-4,007434	6,327342	2020-10-29T19:39:44:932
-6,324074	-4,009893	6,332237	2020-10-29T19:39:44:956
-6,319378	-4,014941	6,333726	2020-10-29T19:39:44:972
-6,314067	-4,016342	6,338134	2020-10-29T19:39:44:997
-6,311664	-4,025434	6,334758	2020-10-29T19:39:45:012
-6,310720	-4,036310	6,328775	2020-10-29T19:39:45:036
-6,310484	-4,048926	6,320947	2020-10-29T19:39:45:053
-6,308351	-4,057217	6,317759	2020-10-29T19:39:45:075
-6,304659	-4,064063	6,317044	2020-10-29T19:39:45:093
-6,303941	-4,062561	6,318727	2020-10-29T19:39:45:116
-6,301575	-4,060783	6,322228	2020-10-29T19:39:45:132
-6,300634	-4,058606	6,324564	2020-10-29T19:39:45:155
-6,300956	-4,054990	6,326563	2020-10-29T19:39:45:173
-6,301764	-4,052785	6,327171	2020-10-29T19:39:45:196
-6,303624	-4,049547	6,327392	2020-10-29T19:39:45:212
-6,304771	-4,047256	6,327713	2020-10-29T19:39:45:236
-6,306531	-4,048191	6,325362	2020-10-29T19:39:45:252
-6,307969	-4,054608	6,319815	2020-10-29T19:39:45:276
-6,308543	-4,061944	6,314529	2020-10-29T19:39:45:293
-6,304424	-4,072385	6,311918	2020-10-29T19:39:45:316
-6,303127	-4,078687	6,309144	2020-10-29T19:39:45:332
-6,301899	-4,081224	6,308729	2020-10-29T19:39:45:356
-6,301450	-4,082282	6,308493	2020-10-29T19:39:45:374
-6,296351	-4,087223	6,310384	2020-10-29T19:39:45:396
-6,293794	-4,093006	6,309188	2020-10-29T19:39:45:413
-6,308705	-4,108050	6,284469	2020-10-29T19:39:45:437
-6,298630	-4,097132	6,301678	2020-10-29T19:39:45:453
-6,342209	-3,999656	6,320563	2020-10-29T19:39:45:478
-6,344303	-3,974619	6,334241	2020-10-29T19:39:45:493
-6,348504	-3,972324	6,331471	2020-10-29T19:39:45:516
-6,350589	-3,975257	6,327538	2020-10-29T19:39:45:533
-6,349749	-3,976828	6,327394	2020-10-29T19:39:45:556
-6,348699	-3,981493	6,325514	2020-10-29T19:39:45:573
-6,347467	-3,985438	6,324265	2020-10-29T19:39:45:597
-6,343567	-3,991849	6,324135	2020-10-29T19:39:45:613
-6,340997	-3,995342	6,324507	2020-10-29T19:39:45:635
-6,338285	-3,999587	6,324542	2020-10-29T19:39:45:653
-6,334080	-4,006713	6,324244	2020-10-29T19:39:45:677
-6,330452	-4,009489	6,326117	2020-10-29T19:39:45:693
-6,329699	-4,011874	6,325359	2020-10-29T19:39:45:717
-6,330266	-4,012676	6,324282	2020-10-29T19:39:45:733
-6,327433	-4,017388	6,324126	2020-10-29T19:39:45:756
-6,328217	-4,019749	6,321841	2020-10-29T19:39:45:773
-6,327421	-4,022552	6,320854	2020-10-29T19:39:45:796
-6,325809	-4,021183	6,323339	2020-10-29T19:39:45:813
-6,324829	-4,019170	6,325599	2020-10-29T19:39:45:837
-6,322467	-4,020874	6,326877	2020-10-29T19:39:45:853
-6,322044	-4,019760	6,328007	2020-10-29T19:39:45:876
-6,321369	-4,023379	6,326382	2020-10-29T19:39:45:893
-6,318946	-4,029286	6,325042	2020-10-29T19:39:45:917
-6,317055	-4,032505	6,324880	2020-10-29T19:39:45:933
-6,315089	-4,031274	6,327627	2020-10-29T19:39:45:958
-6,313159	-4,030320	6,330161	2020-10-29T19:39:45:973
-6,311256	-4,030109	6,332192	2020-10-29T19:39:45:997
-6,309675	-4,028916	6,334526	2020-10-29T19:39:46:013
-6,305572	-4,033695	6,335570	2020-10-29T19:39:46:036
-6,303987	-4,036886	6,335115	2020-10-29T19:39:46:053
-6,301487	-4,037789	6,337026	2020-10-29T19:39:46:078
-6,298888	-4,039523	6,338506	2020-10-29T19:39:46:094
-6,297959	-4,040047	6,339094	2020-10-29T19:39:46:116
-6,294773	-4,045313	6,338901	2020-10-29T19:39:46:133
-6,292598	-4,047970	6,339364	2020-10-29T19:39:46:157
-6,289919	-4,050287	6,340542	2020-10-29T19:39:46:174
-6,285973	-4,052800	6,342850	2020-10-29T19:39:46:198
-6,283183	-4,055384	6,343962	2020-10-29T19:39:46:213
-6,279336	-4,057532	6,346397	2020-10-29T19:39:46:238
-6,273586	-4,062470	6,348924	2020-10-29T19:39:46:253
-6,270422	-4,066864	6,349236	2020-10-29T19:39:46:277
-6,266757	-4,070331	6,350633	2020-10-29T19:39:46:294
-6,261428	-4,074056	6,353500	2020-10-29T19:39:46:318
-6,256073	-4,080602	6,354575	2020-10-29T19:39:46:334
-6,253945	-4,084157	6,354386	2020-10-29T19:39:46:356
-6,251510	-4,084733	6,356411	2020-10-29T19:39:46:374
-6,248823	-4,088789	6,356445	2020-10-29T19:39:46:398
-6,241702	-4,095842	6,358900	2020-10-29T19:39:46:413
-6,236508	-4,096465	6,363594	2020-10-29T19:39:46:437
-6,221492	-4,102087	6,374661	2020-10-29T19:39:46:453
-6,190888	-4,116530	6,395113	2020-10-29T19:39:46:478
-6,153031	-4,135202	6,419556	2020-10-29T19:39:46:494
-6,105736	-4,158933	6,449314	2020-10-29T19:39:46:517
-6,053219	-4,201177	6,471402	2020-10-29T19:39:46:533
-5,999059	-4,257722	6,484865	2020-10-29T19:39:46:558
-5,947486	-4,324095	6,488451	2020-10-29T19:39:46:574
-5,897480	-4,392614	6,488071	2020-10-29T19:39:46:597
-5,859715	-4,452254	6,481633	2020-10-29T19:39:46:614
-5,834553	-4,496206	6,473987	2020-10-29T19:39:46:638
-5,827764	-4,512581	6,468707	2020-10-29T19:39:46:653
-5,860100	-4,469118	6,469667	2020-10-29T19:39:46:678
-5,890232	-4,423837	6,473424	2020-10-29T19:39:46:694
-5,933642	-4,363459	6,474759	2020-10-29T19:39:46:718
-5,982747	-4,293615	6,476264	2020-10-29T19:39:46:734
-6,018512	-4,284879	6,448853	2020-10-29T19:39:46:757
-6,048469	-4,297650	6,412223	2020-10-29T19:39:46:774
-6,056665	-4,358274	6,363382	2020-10-29T19:39:46:798
-6,051725	-4,490486	6,275551	2020-10-29T19:39:46:814
-6,045094	-4,661755	6,155914	2020-10-29T19:39:46:838
-6,012893	-4,802007	6,079164	2020-10-29T19:39:46:854
-5,973686	-4,854326	6,076263	2020-10-29T19:39:46:878
-5,934338	-4,877577	6,096168	2020-10-29T19:39:46:894
-5,894832	-4,889251	6,125078	2020-10-29T19:39:46:918
-5,866666	-4,908083	6,137046	2020-10-29T19:39:46:934
-5,840080	-4,932745	6,142627	2020-10-29T19:39:46:958
-5,830916	-4,957073	6,131739	2020-10-29T19:39:46:974
-5,809253	-4,994665	6,121788	2020-10-29T19:39:46:997
-5,788937	-5,017912	6,122022	2020-10-29T19:39:47:014
-5,761349	-5,018236	6,147727	2020-10-29T19:39:47:038
-5,729846	-4,982390	6,206048	2020-10-29T19:39:47:054
-5,744079	-4,905672	6,253826	2020-10-29T19:39:47:077
-5,771581	-4,821468	6,293861	2020-10-29T19:39:47:095
-5,820055	-4,735870	6,314181	2020-10-29T19:39:47:118
-6,697456	-2,816878	6,586323	2020-10-29T19:39:47:187
-6,745358	-2,840125	6,527190	2020-10-29T19:39:47:187
-7,153754	-3,559511	5,685426	2020-10-29T19:39:47:189
-7,155449	-3,668020	5,613872	2020-10-29T19:39:47:206
-7,107108	-3,831913	5,565594	2020-10-29T19:39:47:214
-7,046845	-3,972298	5,543754	2020-10-29T19:39:47:238
-6,995179	-4,076319	5,533668	2020-10-29T19:39:47:254
-6,943494	-4,184318	5,518130	2020-10-29T19:39:47:278
-6,899668	-4,273763	5,504536	2020-10-29T19:39:47:295
-6,850939	-4,365080	5,493732	2020-10-29T19:39:47:317
-6,794173	-4,472475	5,477825	2020-10-29T19:39:47:334
-6,729008	-4,596660	5,455416	2020-10-29T19:39:47:358
-6,656185	-4,722512	5,437229	2020-10-29T19:39:47:375
-6,548304	-4,875143	5,433514	2020-10-29T19:39:47:399
-6,466154	-4,983366	5,433719	2020-10-29T19:39:47:414
-6,374887	-5,071646	5,459817	2020-10-29T19:39:47:438
-6,279191	-5,133785	5,512385	2020-10-29T19:39:47:455
-6,214782	-5,132519	5,586064	2020-10-29T19:39:47:478
-6,182172	-5,101804	5,650020	2020-10-29T19:39:47:495
-6,169149	-5,041550	5,717932	2020-10-29T19:39:47:519
-6,170574	-4,982239	5,768162	2020-10-29T19:39:47:535
-6,235873	-4,877324	5,787571	2020-10-29T19:39:47:557
-6,339508	-4,751030	5,780030	2020-10-29T19:39:47:575
-6,442293	-4,671968	5,730617	2020-10-29T19:39:47:599
-6,525344	-4,648895	5,654913	2020-10-29T19:39:47:615
-5,996409	-5,354184	5,616598	2020-10-29T19:39:47:640
-7,248847	-4,609533	4,730413	2020-10-29T19:39:47:655
-7,377794	-4,524344	4,611816	2020-10-29T19:39:47:679
-7,516560	-4,467707	4,439742	2020-10-29T19:39:47:695
-7,671866	-4,430274	4,205416	2020-10-29T19:39:47:718
-7,841021	-4,397224	3,918316	2020-10-29T19:39:47:735
-7,708558	-5,454881	2,644390	2020-10-29T19:39:47:760
-9,239765	-3,166001	0,879520	2020-10-29T19:39:47:776
-6,043196	-7,444780	2,055580	2020-10-29T19:39:47:798
-6,085817	-7,378951	2,164325	2020-10-29T19:39:47:815
-6,165082	-7,299520	2,208882	2020-10-29T19:39:47:839
-6,232064	-7,244802	2,201046	2020-10-29T19:39:47:855
-6,263206	-7,226382	2,173024	2020-10-29T19:39:47:879
-6,268930	-7,229323	2,146576	2020-10-29T19:39:47:895
-6,323877	-7,193640	2,104875	2020-10-29T19:39:47:919
-6,467442	-7,095258	1,999974	2020-10-29T19:39:47:935
-6,625676	-7,000372	1,807096	2020-10-29T19:39:47:958
-6,699198	-6,977578	1,613859	2020-10-29T19:39:47:976
-6,755095	-6,943950	1,523364	2020-10-29T19:39:48:000
-6,788837	-6,910381	1,526009	2020-10-29T19:39:48:015
-6,818610	-6,867350	1,586330	2020-10-29T19:39:48:038
-6,910294	-6,755606	1,667335	2020-10-29T19:39:48:055
-6,986499	-6,666989	1,706010	2020-10-29T19:39:48:079
-7,068047	-6,569975	1,746003	2020-10-29T19:39:48:095
-9,111648	-3,007679	2,025373	2020-10-29T19:39:48:121
-9,047309	-2,948586	2,371165	2020-10-29T19:39:48:135
-9,046700	-2,909828	2,420844	2020-10-29T19:39:48:159
-9,053535	-2,846360	2,470245	2020-10-29T19:39:48:176
-9,068129	-2,765968	2,507758	2020-10-29T19:39:48:199
-9,086163	-2,687970	2,527220	2020-10-29T19:39:48:215
-9,105861	-2,618701	2,529051	2020-10-29T19:39:48:240
-9,130271	-2,547760	2,513453	2020-10-29T19:39:48:255
-9,160472	-2,472401	2,478583	2020-10-29T19:39:48:278
-9,190784	-2,404765	2,432487	2020-10-29T19:39:48:296
-9,146679	-3,321912	1,213901	2020-10-29T19:39:48:321
-9,242002	-3,030320	1,254166	2020-10-29T19:39:48:335
-8,997685	-3,693948	1,251719	2020-10-29T19:39:48:361
-9,112536	-3,438705	1,143402	2020-10-29T19:39:48:376
-9,111557	-3,443321	1,137301	2020-10-29T19:39:48:400
-9,112438	-3,443427	1,129892	2020-10-29T19:39:48:416
-9,117189	-3,434202	1,119594	2020-10-29T19:39:48:438
-9,130816	-3,400164	1,112411	2020-10-29T19:39:48:455
-9,157150	-3,329710	1,109057	2020-10-29T19:39:48:480
-9,201810	-3,202742	1,113339	2020-10-29T19:39:48:496
-9,246813	-3,069684	1,115290	2020-10-29T19:39:48:518
-9,281852	-2,966906	1,102305	2020-10-29T19:39:48:536
-9,308985	-2,887434	1,084396	2020-10-29T19:39:48:560
-9,332212	-2,818921	1,064836	2020-10-29T19:39:48:576
-9,362637	-2,721529	1,051048	2020-10-29T19:39:48:600
-9,394374	-2,617947	1,030765	2020-10-29T19:39:48:616
-9,222360	-2,941593	1,570192	2020-10-29T19:39:48:640
-9,393987	-2,496177	1,300961	2020-10-29T19:39:48:656
-9,406062	-2,458954	1,284494	2020-10-29T19:39:48:679
-9,417228	-2,418774	1,278957	2020-10-29T19:39:48:696
-9,423279	-2,390418	1,287672	2020-10-29T19:39:48:720
-9,427764	-2,366304	1,299327	2020-10-29T19:39:48:736
-9,074529	-2,563622	2,692797	2020-10-29T19:39:48:759
-9,121067	-2,431662	2,657732	2020-10-29T19:39:48:776
-9,114080	-2,423780	2,688721	2020-10-29T19:39:48:800
-9,100316	-2,413016	2,744445	2020-10-29T19:39:48:816
-9,090879	-2,392189	2,793514	2020-10-29T19:39:48:840
-9,080280	-2,385296	2,833596	2020-10-29T19:39:48:856
-9,069129	-2,377105	2,875875	2020-10-29T19:39:48:880
-9,051357	-2,371838	2,935592	2020-10-29T19:39:48:896
-9,027187	-2,373129	3,008079	2020-10-29T19:39:48:918
-8,994412	-2,395570	3,087421	2020-10-29T19:39:48:936
-8,957455	-2,413663	3,179407	2020-10-29T19:39:48:960
-8,903182	-2,451350	3,300699	2020-10-29T19:39:48:976
-8,833388	-2,491380	3,454658	2020-10-29T19:39:48:999
-8,747415	-2,528951	3,641090	2020-10-29T19:39:49:016
-9,161516	-1,090469	3,323835	2020-10-29T19:39:49:040
-7,689475	-1,824259	5,806414	2020-10-29T19:39:49:056
-7,567393	-1,855830	5,954901	2020-10-29T19:39:49:080
-7,511670	-1,869254	6,020888	2020-10-29T19:39:49:096
-7,490378	-1,878365	6,044532	2020-10-29T19:39:49:119
-7,467394	-1,931546	6,056198	2020-10-29T19:39:49:136
-7,476666	-1,996833	6,023496	2020-10-29T19:39:49:159
-7,507373	-2,073771	5,958961	2020-10-29T19:39:49:176
-7,540655	-2,153848	5,888111	2020-10-29T19:39:49:200
-7,553868	-2,230253	5,842554	2020-10-29T19:39:49:216
-7,531425	-2,296501	5,845861	2020-10-29T19:39:49:239
-7,524767	-2,341155	5,836717	2020-10-29T19:39:49:256
-7,499596	-2,374954	5,855428	2020-10-29T19:39:49:280
-7,424776	-2,410226	5,935815	2020-10-29T19:39:49:297
-9,401035	-1,085425	2,571530	2020-10-29T19:39:49:322
-8,673851	-1,597932	4,287344	2020-10-29T19:39:49:336
-8,622701	-1,603251	4,387369	2020-10-29T19:39:49:360
-8,607059	-1,586912	4,423872	2020-10-29T19:39:49:377
-8,632936	-1,550953	4,386040	2020-10-29T19:39:49:400
-8,703005	-1,505330	4,261699	2020-10-29T19:39:49:416
-8,814085	-1,452055	4,046458	2020-10-29T19:39:49:440
-8,952067	-1,383551	3,757214	2020-10-29T19:39:49:456
-9,102494	-1,287248	3,414377	2020-10-29T19:39:49:480
-9,254633	-1,159215	3,029584	2020-10-29T19:39:49:496
-9,398127	-1,000865	2,616079	2020-10-29T19:39:49:520
-9,525086	-0,823898	2,182728	2020-10-29T19:39:49:536
-9,627186	-0,625431	1,759692	2020-10-29T19:39:49:560
-9,713306	-0,359594	1,301062	2020-10-29T19:39:49:577
-9,767779	-0,096795	0,866889	2020-10-29T19:39:49:600
-9,793997	0,154301	0,473497	2020-10-29T19:39:49:617
-9,798554	0,363283	0,163522	2020-10-29T19:39:49:640
-9,789734	0,563259	-0,119337	2020-10-29T19:39:49:656
-9,770709	0,746187	-0,383199	2020-10-29T19:39:49:681
-9,747681	0,892421	-0,597242	2020-10-29T19:39:49:697
-9,724542	1,007330	-0,767440	2020-10-29T19:39:49:720
-9,700458	1,106898	-0,919934	2020-10-29T19:39:49:737
-9,681701	1,179895	-1,021229	2020-10-29T19:39:49:761
-8,695068	3,454417	-2,938225	2020-10-29T19:39:49:777
-8,718875	3,475065	-2,841746	2020-10-29T19:39:49:801
-8,770108	3,463617	-2,694244	2020-10-29T19:39:49:817
-9,696012	1,184658	-0,868508	2020-10-29T19:39:49:840
-9,737485	0,998716	-0,595268	2020-10-29T19:39:49:857
-9,772692	0,764232	-0,284294	2020-10-29T19:39:49:881
-9,793697	0,502376	0,038681	2020-10-29T19:39:49:899
-9,797701	0,249936	0,336128	2020-10-29T19:39:49:921
-9,788090	0,022677	0,602640	2020-10-29T19:39:49:937
-9,772005	-0,146430	0,810471	2020-10-29T19:39:49:960
-9,744988	-0,312761	1,052508	2020-10-29T19:39:49:978
-9,705091	-0,456605	1,331576	2020-10-29T19:39:50:001
-9,651556	-0,574268	1,639532	2020-10-29T19:39:50:017
-9,472706	0,972678	2,343528	2020-10-29T19:39:50:043
-9,460401	-0,138627	2,579144	2020-10-29T19:39:50:057
-9,324317	-0,835366	2,920560	2020-10-29T19:39:50:082
-8,030421	-2,551212	5,017373	2020-10-29T19:39:50:097
-7,904253	-2,675474	5,151214	2020-10-29T19:39:50:120
-7,778794	-2,773112	5,288723	2020-10-29T19:39:50:137
-7,665165	-2,848933	5,412874	2020-10-29T19:39:50:161
-7,560803	-2,894507	5,534119	2020-10-29T19:39:50:177
-7,475048	-2,885441	5,654050	2020-10-29T19:39:50:200
-7,402839	-2,841114	5,770306	2020-10-29T19:39:50:217
-7,352311	-2,783142	5,862426	2020-10-29T19:39:50:241
-7,334612	-2,737556	5,905899	2020-10-29T19:39:50:257
-9,622433	-1,022635	1,591661	2020-10-29T19:39:50:283
-9,143817	-1,878490	3,005374	2020-10-29T19:39:50:297
-9,103943	-1,943459	3,084084	2020-10-29T19:39:50:321
-9,069200	-2,019119	3,137382	2020-10-29T19:39:50:337
-9,042023	-2,092943	3,167302	2020-10-29T19:39:50:360
-9,022506	-2,157378	3,179700	2020-10-29T19:39:50:378
-9,012068	-2,203034	3,177996	2020-10-29T19:39:50:402
-9,013557	-2,227573	3,156594	2020-10-29T19:39:50:417
-9,442055	-1,650826	2,071898	2020-10-29T19:39:50:441
-9,420319	-1,765569	2,076236	2020-10-29T19:39:50:457
-9,425777	-1,758229	2,057603	2020-10-29T19:39:50:482
-9,451746	-1,694775	1,990632	2020-10-29T19:39:50:498
-9,488283	-1,617769	1,877680	2020-10-29T19:39:50:521
-9,533446	-1,506903	1,735809	2020-10-29T19:39:50:537
-9,581535	-1,370400	1,576885	2020-10-29T19:39:50:561
-9,635287	-1,192511	1,381863	2020-10-29T19:39:50:578
-9,680173	-0,988519	1,219621	2020-10-29T19:39:50:601
-9,719814	-0,784599	1,039233	2020-10-29T19:39:50:617
-9,759254	-0,575014	0,772475	2020-10-29T19:39:50:642
-9,785327	-0,369801	0,530099	2020-10-29T19:39:50:658
-9,801557	-0,175942	0,262529	2020-10-29T19:39:50:681
-9,806514	0,020619	-0,047432	2020-10-29T19:39:50:698
-9,792967	0,303002	-0,419961	2020-10-29T19:39:50:721
-9,760205	0,562526	-0,769644	2020-10-29T19:39:50:737
-9,710159	0,814545	-1,104401	2020-10-29T19:39:50:762
-9,648815	1,053172	-1,400564	2020-10-29T19:39:50:778
-9,537817	-0,444196	2,236765	2020-10-29T19:39:50:803
-9,797391	0,241637	0,350895	2020-10-29T19:39:50:818
-9,798037	0,275184	0,305185	2020-10-29T19:39:50:840
-9,797939	0,306297	0,277386	2020-10-29T19:39:50:858
-9,797420	0,290600	0,310663	2020-10-29T19:39:50:882
-9,796966	0,258635	0,350658	2020-10-29T19:39:50:898
-9,796514	0,210634	0,392857	2020-10-29T19:39:50:921
-9,796075	0,161304	0,425771	2020-10-29T19:39:50:938
-8,886665	-3,120794	2,730970	2020-10-29T19:39:50:962
-9,254148	-2,832468	1,583748	2020-10-29T19:39:50:978
-9,282902	-2,773122	1,519183	2020-10-29T19:39:51:002
-9,322462	-2,662566	1,474050	2020-10-29T19:39:51:017
-9,364689	-2,522148	1,453190	2020-10-29T19:39:51:042
-9,406859	-2,359921	1,453326	2020-10-29T19:39:51:058
-9,457474	-2,174243	1,413947	2020-10-29T19:39:51:081
-9,497009	-2,008199	1,394396	2020-10-29T19:39:51:098
-9,512409	-1,895045	1,446808	2020-10-29T19:39:51:122
-9,519717	-1,806611	1,510472	2020-10-29T19:39:51:138
-9,523725	-1,728348	1,575396	2020-10-29T19:39:51:161
-9,523447	-1,662478	1,646362	2020-10-29T19:39:51:178
-9,518886	-1,633256	1,701080	2020-10-29T19:39:51:202
-9,505334	-1,631856	1,776529	2020-10-29T19:39:51:218
-9,425136	-1,171376	2,442351	2020-10-29T19:39:51:244
-8,971701	-1,558433	3,640090	2020-10-29T19:39:51:258
-8,923162	-1,582011	3,747639	2020-10-29T19:39:51:282
-8,864250	-1,622363	3,868254	2020-10-29T19:39:51:299
-8,813040	-1,677414	3,960681	2020-10-29T19:39:51:321
-8,752838	-1,745350	4,063492	2020-10-29T19:39:51:338
-8,700388	-1,847468	4,130435	2020-10-29T19:39:51:362
-8,618253	-1,950175	4,253577	2020-10-29T19:39:51:379
-8,527939	-2,061699	4,381100	2020-10-29T19:39:51:402
-8,445449	-2,184213	4,480401	2020-10-29T19:39:51:418
-8,371026	-2,298469	4,562164	2020-10-29T19:39:51:442
-8,309934	-2,378299	4,632396	2020-10-29T19:39:51:458
-8,167888	-2,384691	4,875372	2020-10-29T19:39:51:482
-8,029393	-2,353387	5,114763	2020-10-29T19:39:51:499
-7,898630	-2,290536	5,341860	2020-10-29T19:39:51:522
-7,777606	-2,202222	5,552428	2020-10-29T19:39:51:538
-7,680647	-2,106402	5,721985	2020-10-29T19:39:51:561
-7,613959	-2,018870	5,841419	2020-10-29T19:39:51:579
-7,696367	-2,024862	5,730293	2020-10-29T19:39:51:603
-7,799822	-2,053318	5,578266	2020-10-29T19:39:51:618
-7,911584	-2,092992	5,403389	2020-10-29T19:39:51:641
-8,014714	-2,141609	5,229556	2020-10-29T19:39:51:659
-9,281481	-3,141151	0,397081	2020-10-29T19:39:51:685
-9,072349	-3,535419	1,167774	2020-10-29T19:39:51:699
-9,052979	-3,564397	1,228421	2020-10-29T19:39:51:724
-9,031624	-3,599031	1,283402	2020-10-29T19:39:51:738
-9,000896	-3,655007	1,339841	2020-10-29T19:39:51:764
-8,967931	-3,716704	1,390221	2020-10-29T19:39:51:779
-8,923509	-3,804827	1,436898	2020-10-29T19:39:51:803
-8,875609	-3,899397	1,479405	2020-10-29T19:39:51:818
-9,539017	-2,236687	0,418072	2020-10-29T19:39:51:845
-8,816489	-4,112365	1,236266	2020-10-29T19:39:51:859
-8,755372	-4,211339	1,333591	2020-10-29T19:39:51:882
-8,692829	-4,307539	1,431856	2020-10-29T19:39:51:899
-8,629001	-4,395877	1,544991	2020-10-29T19:39:51:923
-8,578272	-4,454445	1,655763	2020-10-29T19:39:51:938
-8,529926	-4,493413	1,794431	2020-10-29T19:39:51:963
-8,494715	-4,496726	1,946705	2020-10-29T19:39:51:979
-8,468948	-4,469417	2,114616	2020-10-29T19:39:52:004
-8,467154	-4,400305	2,261640	2020-10-29T19:39:52:019
-8,490184	-4,284035	2,394620	2020-10-29T19:39:52:042
-8,487947	-4,232900	2,491528	2020-10-29T19:39:52:059
-8,503293	-4,140321	2,592708	2020-10-29T19:39:52:083
-8,577910	-3,901562	2,714340	2020-10-29T19:39:52:100
-8,671854	-3,635790	2,783947	2020-10-29T19:39:52:122
-8,737250	-3,499812	2,753571	2020-10-29T19:39:52:139
-8,809701	-3,375729	2,676564	2020-10-29T19:39:52:163
-8,887745	-3,257828	2,562212	2020-10-29T19:39:52:179
-8,972766	-3,133207	2,417201	2020-10-29T19:39:52:203
-9,061315	-2,965694	2,295130	2020-10-29T19:39:52:219
-9,151403	-2,783486	2,162039	2020-10-29T19:39:52:244
-9,230104	-2,625771	2,020122	2020-10-29T19:39:52:259
-9,309160	-2,447816	1,875667	2020-10-29T19:39:52:282
-9,382295	-2,268369	1,731312	2020-10-29T19:39:52:299
-9,447420	-2,080324	1,609002	2020-10-29T19:39:52:327
-9,505290	-1,901761	1,484300	2020-10-29T19:39:52:339
-9,557077	-1,739858	1,343704	2020-10-29T19:39:52:362
-9,604536	-1,592602	1,177666	2020-10-29T19:39:52:380
-9,646533	-1,452814	1,002055	2020-10-29T19:39:52:404
-9,679462	-1,330950	0,840817	2020-10-29T19:39:52:419
-8,873625	-3,603305	2,108402	2020-10-29T19:39:52:443
-8,933044	-3,530140	1,977172	2020-10-29T19:39:52:459
-9,048745	-3,294159	1,854486	2020-10-29T19:39:52:483
-9,176512	-3,027180	1,672783	2020-10-29T19:39:52:500
-9,303061	-2,754843	1,426278	2020-10-29T19:39:52:522
-9,387810	-2,602115	1,126234	2020-10-29T19:39:52:539
-9,438983	-2,521118	0,848495	2020-10-29T19:39:52:563
-9,459659	-2,517317	0,590211	2020-10-29T19:39:52:579
-9,443428	-2,614935	0,392641	2020-10-29T19:39:52:603
-9,409875	-2,748222	0,268164	2020-10-29T19:39:52:620
-9,632483	-1,651806	-0,810665	2020-10-29T19:39:52:644
-9,403733	-1,995256	-1,938850	2020-10-29T19:39:52:659
-9,664626	-1,337257	-0,988501	2020-10-29T19:39:52:685
-9,292067	-1,926912	-2,472831	2020-10-29T19:39:52:700
-9,252311	-1,935752	-2,611129	2020-10-29T19:39:52:723
-9,211708	-1,927615	-2,756649	2020-10-29T19:39:52:739
-9,180854	-1,899797	-2,876297	2020-10-29T19:39:52:763
-9,160470	-1,833180	-2,982553	2020-10-29T19:39:52:780
-9,690489	0,017408	-1,504830	2020-10-29T19:39:52:805
-9,364739	0,332450	-2,891629	2020-10-29T19:39:52:819
-9,321162	0,300402	-3,032503	2020-10-29T19:39:52:842
-9,317666	0,307695	-3,042499	2020-10-29T19:39:52:860
-9,360373	0,333564	-2,905603	2020-10-29T19:39:52:884
-9,390413	0,351457	-2,804817	2020-10-29T19:39:52:900
-9,423390	0,356862	-2,691235	2020-10-29T19:39:52:924
-9,444789	0,400709	-2,608788	2020-10-29T19:39:52:939
-9,451689	0,455536	-2,574578	2020-10-29T19:39:52:963
-9,459531	0,495969	-2,538047	2020-10-29T19:39:52:980
-9,476662	0,506839	-2,471111	2020-10-29T19:39:53:003
-9,498116	0,492177	-2,390383	2020-10-29T19:39:53:020
-9,507700	0,506263	-2,348984	2020-10-29T19:39:53:044
-9,507884	0,539269	-2,340881	2020-10-29T19:39:53:060
-9,504092	0,576046	-2,347507	2020-10-29T19:39:53:083
-9,495708	0,617130	-2,370880	2020-10-29T19:39:53:100
-9,493346	0,648742	-2,371896	2020-10-29T19:39:53:124
-9,492012	0,679549	-2,368608	2020-10-29T19:39:53:140
-9,492637	0,701990	-2,359541	2020-10-29T19:39:53:164
-9,486579	0,712249	-2,380736	2020-10-29T19:39:53:180
-9,476881	0,721489	-2,416312	2020-10-29T19:39:53:204
-9,471878	0,713644	-2,438160	2020-10-29T19:39:53:220
-9,475817	0,673069	-2,434391	2020-10-29T19:39:53:244
-9,484131	0,631857	-2,412965	2020-10-29T19:39:53:260
-9,498432	0,583210	-2,368552	2020-10-29T19:39:53:284
-9,514473	0,537747	-2,314306	2020-10-29T19:39:53:300
-9,531722	0,493497	-2,252358	2020-10-29T19:39:53:323
-9,555015	0,435779	-2,163833	2020-10-29T19:39:53:340
-9,578373	0,383157	-2,068415	2020-10-29T19:39:53:364
-9,594801	0,368351	-1,993612	2020-10-29T19:39:53:380
-9,613465	0,340399	-1,906776	2020-10-29T19:39:53:404
-9,635392	0,298627	-1,800116	2020-10-29T19:39:53:420
-9,652982	0,284779	-1,705649	2020-10-29T19:39:53:444
-9,662856	0,316960	-1,642906	2020-10-29T19:39:53:460
-9,556779	1,294451	-1,778412	2020-10-29T19:39:53:485
-9,763761	0,648104	-0,647547	2020-10-29T19:39:53:500
-9,775942	0,546650	-0,550017	2020-10-29T19:39:53:525
-9,787582	0,427134	-0,437222	2020-10-29T19:39:53:540
-9,798404	0,260608	-0,306192	2020-10-29T19:39:53:563
-9,804790	0,081818	-0,172584	2020-10-29T19:39:53:580
-9,707846	1,298910	-0,490867	2020-10-29T19:39:53:606
-9,792062	-0,530658	-0,065593	2020-10-29T19:39:53:620
-9,783974	-0,664445	-0,052435	2020-10-29T19:39:53:645
-9,776484	-0,766868	-0,051382	2020-10-29T19:39:53:660
-9,773366	-0,804107	-0,071542	2020-10-29T19:39:53:685
-9,769743	-0,847829	-0,060688	2020-10-29T19:39:53:701
-9,769659	-0,849753	-0,045525	2020-10-29T19:39:53:724
-9,768540	-0,863281	-0,027498	2020-10-29T19:39:53:740
-9,768899	-0,859451	-0,018384	2020-10-29T19:39:53:765
-9,771552	-0,828761	-0,017756	2020-10-29T19:39:53:781
-9,770194	-0,844719	0,011927	2020-10-29T19:39:53:804
-9,766489	-0,884971	0,053906	2020-10-29T19:39:53:821
-9,764101	-0,907824	0,092557	2020-10-29T19:39:53:845
-9,763333	-0,912479	0,122863	2020-10-29T19:39:53:860
-9,763444	-0,908082	0,144702	2020-10-29T19:39:53:884
-9,762469	-0,914897	0,165961	2020-10-29T19:39:53:901
-9,759939	-0,935893	0,195120	2020-10-29T19:39:53:925
-9,756782	-0,960259	0,231305	2020-10-29T19:39:53:942
-9,752711	-0,989670	0,274865	2020-10-29T19:39:53:965
-9,747952	-1,018060	0,333728	2020-10-29T19:39:53:981
-9,255674	-2,921852	-1,402018	2020-10-29T19:39:54:006
-8,657660	-4,426317	-1,273980	2020-10-29T19:39:54:021
-8,526887	-4,683152	-1,237200	2020-10-29T19:39:54:044
-8,369773	-4,969398	-1,192635	2020-10-29T19:39:54:061
-8,145162	-5,346479	-1,114398	2020-10-29T19:39:54:085
-7,889155	-5,737226	-1,007890	2020-10-29T19:39:54:101
-7,634273	-6,092134	-0,879864	2020-10-29T19:39:54:125
-7,490302	-6,280753	-0,786068	2020-10-29T19:39:54:141
-7,382675	-6,416670	-0,702029	2020-10-29T19:39:54:165
-7,298584	-6,521033	-0,614156	2020-10-29T19:39:54:181
-7,241695	-6,592446	-0,517586	2020-10-29T19:39:54:205
-7,191969	-6,655342	-0,390377	2020-10-29T19:39:54:221
-7,165417	-6,692903	-0,179532	2020-10-29T19:39:54:246
-7,234114	-6,620718	0,063900	2020-10-29T19:39:54:261
-7,383301	-6,446127	0,323569	2020-10-29T19:39:54:284
-7,582240	-6,199583	0,495178	2020-10-29T19:39:54:301
-7,775995	-5,944615	0,604845	2020-10-29T19:39:54:325
-7,938051	-5,714594	0,707915	2020-10-29T19:39:54:341
-8,096848	-5,472709	0,812952	2020-10-29T19:39:54:365
-8,284068	-5,158144	0,968578	2020-10-29T19:39:54:381
-8,459220	-4,837958	1,098245	2020-10-29T19:39:54:406
-8,591254	-4,576123	1,191565	2020-10-29T19:39:54:421
-8,683666	-4,370735	1,288799	2020-10-29T19:39:54:444
-8,725962	-4,253183	1,392270	2020-10-29T19:39:54:461
-8,742554	-4,160964	1,557089	2020-10-29T19:39:54:486
-8,725971	-4,109369	1,772256	2020-10-29T19:39:54:502
-8,642761	-4,162194	2,036959	2020-10-29T19:39:54:526
-8,476418	-4,351279	2,321008	2020-10-29T19:39:54:542
-9,611779	-1,686414	0,969587	2020-10-29T19:39:54:565
-9,524652	-1,962488	1,264917	2020-10-29T19:39:54:581
-9,534246	-2,287732	0,186588	2020-10-29T19:39:54:608
-7,632446	-5,791654	2,091147	2020-10-29T19:39:54:622
-7,487289	-5,937570	2,203667	2020-10-29T19:39:54:645
-7,349665	-6,113166	2,186781	2020-10-29T19:39:54:661
-7,217078	-6,284357	2,142668	2020-10-29T19:39:54:685
-7,121556	-6,403316	2,109824	2020-10-29T19:39:54:702
-7,054295	-6,486709	2,080847	2020-10-29T19:39:54:725
-7,010807	-6,543008	2,051342	2020-10-29T19:39:54:741
-6,923142	-6,641041	2,033977	2020-10-29T19:39:54:765
-6,842673	-6,733677	2,001449	2020-10-29T19:39:54:782
-6,790441	-6,794622	1,973172	2020-10-29T19:39:54:806
-6,771227	-6,819929	1,951778	2020-10-29T19:39:54:822
-6,777328	-6,820533	1,928347	2020-10-29T19:39:54:846
-6,835633	-6,783466	1,851780	2020-10-29T19:39:54:861
-6,910388	-6,732807	1,756766	2020-10-29T19:39:54:885
-6,984769	-6,668306	1,707946	2020-10-29T19:39:54:902
-7,111588	-6,553813	1,625800	2020-10-29T19:39:54:925
-7,237775	-6,438547	1,526468	2020-10-29T19:39:54:941
-7,357407	-6,330495	1,401348	2020-10-29T19:39:54:966
-7,472710	-6,225122	1,255722	2020-10-29T19:39:54:982
-7,650263	-6,032104	1,121417	2020-10-29T19:39:55:005
-7,921933	-5,690663	1,014752	2020-10-29T19:39:55:022
-8,303746	-5,135573	0,918738	2020-10-29T19:39:55:046
-8,695398	-4,462610	0,803460	2020-10-29T19:39:55:061
-9,046890	-3,726724	0,660067	2020-10-29T19:39:55:086
-9,271247	-3,153319	0,520521	2020-10-29T19:39:55:102
-6,254580	-7,446719	1,263721	2020-10-29T19:39:55:125
-5,911320	-7,672583	1,535629	2020-10-29T19:39:55:142
-5,669500	-7,781037	1,866176	2020-10-29T19:39:55:165
-5,469058	-7,822452	2,251451	2020-10-29T19:39:55:182
-5,264774	-7,812944	2,722213	2020-10-29T19:39:55:206
-5,195249	-7,638930	3,290366	2020-10-29T19:39:55:222
-4,039806	5,811727	6,787797	2020-10-29T19:39:55:246
-6,749196	3,318944	6,293119	2020-10-29T19:39:55:262
-7,467683	2,989220	5,609692	2020-10-29T19:39:55:286
-7,925868	2,682600	5,114163	2020-10-29T19:39:55:302
-8,086592	2,542476	4,930845	2020-10-29T19:39:55:326
-8,181378	2,463640	4,813097	2020-10-29T19:39:55:341
-8,367997	2,336429	4,548419	2020-10-29T19:39:55:366
-8,545360	2,263362	4,245516	2020-10-29T19:39:55:382
-9,432266	-2,644334	-0,458513	2020-10-29T19:39:55:406
-9,781562	-0,678408	0,176598	2020-10-29T19:39:55:422
-9,787520	-0,579565	0,197325	2020-10-29T19:39:55:446
-9,793305	-0,464808	0,213343	2020-10-29T19:39:55:462
-9,798235	-0,336850	0,226968	2020-10-29T19:39:55:486
-9,800226	-0,257227	0,244502	2020-10-29T19:39:55:503
-9,799671	-0,256201	0,266798	2020-10-29T19:39:55:527
-9,795465	-0,362808	0,296006	2020-10-29T19:39:55:541
-9,780828	-0,631941	0,326245	2020-10-29T19:39:55:566
-9,721393	-1,242624	0,347549	2020-10-29T19:39:55:582
-9,443174	-2,623626	0,336785	2020-10-29T19:39:55:606
-8,671581	-4,573144	0,245801	2020-10-29T19:39:55:622
-8,340938	-5,154427	0,176141	2020-10-29T19:39:55:645
-8,239244	-5,315770	0,166842	2020-10-29T19:39:55:663
-8,407909	-5,042777	0,218740	2020-10-29T19:39:55:687
-9,030765	-3,812201	0,287737	2020-10-29T19:39:55:703
-9,481625	-2,484422	0,311173	2020-10-29T19:39:55:725
-9,644035	-1,752153	0,304849	2020-10-29T19:39:55:743
-9,703180	-1,390712	0,290867	2020-10-29T19:39:55:766
-9,730166	-1,191609	0,272597	2020-10-29T19:39:55:783
-9,745904	-1,060864	0,249632	2020-10-29T19:39:55:807
-9,755646	-0,973210	0,225003	2020-10-29T19:39:55:823
-9,760441	-0,924203	0,223667	2020-10-29T19:39:55:846
-9,483326	-2,430268	0,575077	2020-10-29T19:39:55:863
-9,546973	-2,177679	0,532356	2020-10-29T19:39:55:886
-9,581619	-2,035389	0,469189	2020-10-29T19:39:55:903
-9,572635	-2,083016	0,442832	2020-10-29T19:39:55:927
-9,570354	-2,092254	0,448519	2020-10-29T19:39:55:942
-9,780091	-0,701630	0,167056	2020-10-29T19:39:55:966
-9,774814	-0,757498	0,222702	2020-10-29T19:39:55:984
-9,768644	-0,812276	0,290147	2020-10-29T19:39:56:007
-9,756370	-0,904860	0,406045	2020-10-29T19:39:56:023
-9,743715	-0,975465	0,528071	2020-10-29T19:39:56:047
-9,730175	-1,031929	0,655130	2020-10-29T19:39:56:063
-9,714433	-1,084624	0,789794	2020-10-29T19:39:56:087
-9,698813	-1,124619	0,915770	2020-10-29T19:39:56:103
-9,683838	-1,154552	1,029890	2020-10-29T19:39:56:126
-9,668591	-1,185845	1,132474	2020-10-29T19:39:56:143
-9,651586	-1,223412	1,233101	2020-10-29T19:39:56:168
-9,632146	-1,269324	1,334525	2020-10-29T19:39:56:183
-9,610556	-1,324994	1,432480	2020-10-29T19:39:56:206
-9,588471	-1,385830	1,520222	2020-10-29T19:39:56:223
-9,566666	-1,441151	1,603864	2020-10-29T19:39:56:247
-9,546298	-1,494691	1,674657	2020-10-29T19:39:56:263
-9,531646	-1,540355	1,716223	2020-10-29T19:39:56:287
-9,520434	-1,558323	1,761632	2020-10-29T19:39:56:303
-9,510749	-1,570259	1,802867	2020-10-29T19:39:56:327
-9,498939	-1,586860	1,849979	2020-10-29T19:39:56:343
-9,483711	-1,645412	1,876760	2020-10-29T19:39:56:366
-9,462709	-1,730663	1,905865	2020-10-29T19:39:56:383
-9,438565	-1,825096	1,937239	2020-10-29T19:39:56:407
-9,408476	-1,925487	1,985815	2020-10-29T19:39:56:424
-9,370815	-2,043104	2,045466	2020-10-29T19:39:56:447
-9,326887	-2,171247	2,113113	2020-10-29T19:39:56:463
-9,270238	-2,294935	2,228529	2020-10-29T19:39:56:488
-9,215052	-2,422148	2,320863	2020-10-29T19:39:56:503
-9,152968	-2,545686	2,431673	2020-10-29T19:39:56:527
-9,087427	-2,665117	2,546803	2020-10-29T19:39:56:543
-9,017143	-2,784380	2,666222	2020-10-29T19:39:56:567
-8,949837	-2,897663	2,770263	2020-10-29T19:39:56:583
-8,887628	-3,009468	2,850185	2020-10-29T19:39:56:607
-8,831925	-3,121668	2,902184	2020-10-29T19:39:56:623
-8,781615	-3,231570	2,934377	2020-10-29T19:39:56:647
-8,740670	-3,325107	2,952074	2020-10-29T19:39:56:663
-8,701838	-3,395978	2,985921	2020-10-29T19:39:56:687
-8,664460	-3,438849	3,044968	2020-10-29T19:39:56:704
-8,627901	-3,457130	3,126972	2020-10-29T19:39:56:727
-8,590885	-3,460232	3,223954	2020-10-29T19:39:56:743
-8,537575	-3,446232	3,376935	2020-10-29T19:39:56:767
-8,459604	-3,406927	3,605319	2020-10-29T19:39:56:783
-8,372551	-3,335826	3,865623	2020-10-29T19:39:56:808
-8,285127	-3,236955	4,129065	2020-10-29T19:39:56:823
-8,196216	-3,115367	4,391688	2020-10-29T19:39:56:847
-8,114828	-2,973227	4,634637	2020-10-29T19:39:56:864
-9,144285	0,233912	3,535212	2020-10-29T19:39:56:888
-9,689122	-0,054284	1,512729	2020-10-29T19:39:56:904
-9,691607	-0,051475	1,496827	2020-10-29T19:39:56:927
-9,691191	-0,029076	1,500121	2020-10-29T19:39:56:944
-9,689654	0,002671	1,510291	2020-10-29T19:39:56:967
-9,687738	0,040838	1,521989	2020-10-29T19:39:56:984
-9,169497	-0,371913	3,457223	2020-10-29T19:39:57:009
-9,773185	0,126779	0,799481	2020-10-29T19:39:57:023
-9,784288	0,169968	0,639685	2020-10-29T19:39:57:048
-9,792003	0,215943	0,490343	2020-10-29T19:39:57:070
-9,796120	0,258025	0,373951	2020-10-29T19:39:57:087
-9,797527	0,285379	0,312092	2020-10-29T19:39:57:105
-9,799502	0,351505	0,128787	2020-10-29T19:39:57:128
-9,798455	0,400672	-0,010905	2020-10-29T19:39:57:144
-9,796281	0,433574	-0,123599	2020-10-29T19:39:57:168
-9,794031	0,449228	-0,213396	2020-10-29T19:39:57:184
-9,791999	0,451415	-0,288724	2020-10-29T19:39:57:208
-9,796285	0,396753	-0,213979	2020-10-29T19:39:57:224
-9,799376	0,343628	-0,156646	2020-10-29T19:39:57:248
-9,797167	0,348576	-0,253771	2020-10-29T19:39:57:264
-9,572915	-1,164713	1,781326	2020-10-29T19:39:57:289
-9,778895	-0,644226	0,358560	2020-10-29T19:39:57:304
-9,788347	-0,556751	0,220625	2020-10-29T19:39:57:327
-9,797554	-0,417799	0,061323	2020-10-29T19:39:57:344
-9,801765	-0,305227	-0,051082	2020-10-29T19:39:57:374
-9,800261	-0,352478	0,032160	2020-10-29T19:39:57:396
-8,490093	-2,908077	3,953707	2020-10-29T19:39:57:409
-8,699415	-2,541326	3,745961	2020-10-29T19:39:57:424
-8,702687	-2,509035	3,760102	2020-10-29T19:39:57:448
-8,686330	-2,481321	3,815902	2020-10-29T19:39:57:464
-8,653966	-2,447431	3,910158	2020-10-29T19:39:57:491
-8,611955	-2,410024	4,024475	2020-10-29T19:39:57:504
-8,562557	-2,375132	4,148704	2020-10-29T19:39:57:528
-8,507198	-2,348497	4,275807	2020-10-29T19:39:57:544
-8,473860	-2,327756	4,352659	2020-10-29T19:39:57:567
-8,435612	-2,330102	4,425095	2020-10-29T19:39:57:584
-8,396264	-2,362452	4,482405	2020-10-29T19:39:57:609
-8,363235	-2,434568	4,505505	2020-10-29T19:39:57:624
-8,336449	-2,544832	4,494201	2020-10-29T19:39:57:647
-8,315229	-2,675698	4,457352	2020-10-29T19:39:57:664
-8,291583	-2,815098	4,415344	2020-10-29T19:39:57:689
-8,270175	-2,943720	4,371396	2020-10-29T19:39:57:705
-8,254739	-3,050859	4,326884	2020-10-29T19:39:57:729
-8,246318	-3,133967	4,283324	2020-10-29T19:39:57:744
-8,241244	-3,187156	4,253741	2020-10-29T19:39:57:768
-8,245469	-3,212371	4,226499	2020-10-29T19:39:57:785
-8,268931	-3,211472	4,181101	2020-10-29T19:39:57:808
-8,309793	-3,201866	4,106795	2020-10-29T19:39:57:824
-8,357596	-3,195492	4,013701	2020-10-29T19:39:57:849
-8,408818	-3,183370	3,915140	2020-10-29T19:39:57:865
-9,515570	-2,007922	1,261969	2020-10-29T19:39:57:889
-9,406364	-2,294930	1,556913	2020-10-29T19:39:57:905
-9,439260	-2,049189	1,694573	2020-10-29T19:39:57:929
-9,369369	-2,243061	1,831389	2020-10-29T19:39:57:945
-9,366529	-2,246087	1,842181	2020-10-29T19:39:57:969
-9,364797	-2,240039	1,858277	2020-10-29T19:39:57:985
-9,366139	-2,220771	1,874566	2020-10-29T19:39:58:009
-9,369697	-2,190879	1,891884	2020-10-29T19:39:58:025
-9,575521	-1,100116	1,808182	2020-10-29T19:39:58:049
-9,682905	-0,880865	1,278985	2020-10-29T19:39:58:064
-9,694329	-0,840295	1,218307	2020-10-29T19:39:58:089
-9,710743	-0,771757	1,129713	2020-10-29T19:39:58:105
-9,733018	-0,664111	0,998855	2020-10-29T19:39:58:129
-9,750604	-0,550146	0,890761	2020-10-29T19:39:58:145
