x	y	z	ts
0,630000	0,910000	-1,190000	2020-10-29T19:38:42:496
-13,790000	-35,209999	4,690000	2020-10-29T19:38:42:497
-5,320000	0,070000	2,310000	2020-10-29T19:38:42:497
-6,020000	4,270000	2,240000	2020-10-29T19:38:42:500
-7,070000	4,060000	2,380000	2020-10-29T19:38:42:553
-7,490000	4,620000	2,450000	2020-10-29T19:38:42:557
-6,650000	6,160000	2,940000	2020-10-29T19:38:42:561
-5,810000	7,770000	3,360000	2020-10-29T19:38:42:582
-5,040000	8,260000	3,360000	2020-10-29T19:38:42:601
-5,950000	9,380000	4,130000	2020-10-29T19:38:42:621
-10,430000	10,920000	13,860000	2020-10-29T19:38:42:641
-14,700000	16,170000	18,760000	2020-10-29T19:38:42:661
-36,330002	11,410000	22,260000	2020-10-29T19:38:42:681
-42,070000	18,340000	30,940001	2020-10-29T19:38:42:702
-8,890000	23,870001	39,200001	2020-10-29T19:38:42:721
1,890000	29,469999	44,099998	2020-10-29T19:38:42:741
-10,710000	33,389999	46,340000	2020-10-29T19:38:42:761
-33,599998	37,450001	50,259998	2020-10-29T19:38:42:782
-61,040001	42,980000	54,320000	2020-10-29T19:38:42:801
-91,699997	49,349998	59,570000	2020-10-29T19:38:42:822
-117,809998	54,810001	66,360001	2020-10-29T19:38:42:841
-130,970001	61,740002	72,029999	2020-10-29T19:38:42:861
-132,440002	69,230003	78,400002	2020-10-29T19:38:42:881
-135,100006	75,599998	85,610001	2020-10-29T19:38:42:902
-143,850006	81,129997	96,250000	2020-10-29T19:38:42:922
-161,000000	86,730003	103,250000	2020-10-29T19:38:42:942
-186,059998	94,150002	106,680000	2020-10-29T19:38:42:961
-212,240005	104,300003	110,110001	2020-10-29T19:38:42:983
-239,259995	117,459999	111,020004	2020-10-29T19:38:43:001
-278,040009	129,850006	103,250000	2020-10-29T19:38:43:022
-288,329987	123,550003	97,930000	2020-10-29T19:38:43:041
-267,679993	117,110001	98,559998	2020-10-29T19:38:43:063
-223,020004	115,709999	108,010002	2020-10-29T19:38:43:082
-176,470001	115,360001	119,910004	2020-10-29T19:38:43:104
-154,419998	115,290001	130,830002	2020-10-29T19:38:43:122
-149,940002	114,029999	143,779999	2020-10-29T19:38:43:143
-165,339996	111,230003	156,449997	2020-10-29T19:38:43:161
-172,410004	105,419998	168,279999	2020-10-29T19:38:43:184
-202,720001	98,000000	174,369995	2020-10-29T19:38:43:201
-250,040009	92,750000	177,660004	2020-10-29T19:38:43:289
-284,269989	83,860001	179,270004	2020-10-29T19:38:43:291
-263,829987	73,220001	177,100006	2020-10-29T19:38:43:292
-196,419998	59,709999	170,800003	2020-10-29T19:38:43:295
-126,209999	44,730000	152,669998	2020-10-29T19:38:43:365
-73,989998	36,189999	132,369995	2020-10-29T19:38:43:365
-22,330000	40,250000	110,110001	2020-10-29T19:38:43:366
-5,950000	36,540001	84,419998	2020-10-29T19:38:43:367
-8,190000	35,840000	66,430000	2020-10-29T19:38:43:383
-10,430000	29,960001	56,630001	2020-10-29T19:38:43:402
-35,490002	24,430000	46,480000	2020-10-29T19:38:43:423
-54,459999	19,600000	39,480000	2020-10-29T19:38:43:441
-73,360001	11,760000	31,150000	2020-10-29T19:38:43:462
-84,980003	5,670000	24,639999	2020-10-29T19:38:43:482
-90,580002	0,070000	17,990000	2020-10-29T19:38:43:504
-74,059998	-4,550000	14,210000	2020-10-29T19:38:43:522
-53,200001	-11,480000	9,170000	2020-10-29T19:38:43:547
-25,129999	-13,860000	4,480000	2020-10-29T19:38:43:562
5,810000	-16,940001	-1,190000	2020-10-29T19:38:43:584
40,180000	-19,180000	-7,560000	2020-10-29T19:38:43:602
63,700001	-21,770000	-16,520000	2020-10-29T19:38:43:624
67,760002	-23,170000	-27,299999	2020-10-29T19:38:43:641
71,540001	-24,430000	-37,590000	2020-10-29T19:38:43:667
74,340004	-26,880001	-49,840000	2020-10-29T19:38:43:682
91,349998	-24,780001	-60,130001	2020-10-29T19:38:43:703
126,559998	-25,549999	-68,529999	2020-10-29T19:38:43:722
155,889999	-30,520000	-77,629997	2020-10-29T19:38:43:743
152,529999	-35,139999	-87,010002	2020-10-29T19:38:43:762
108,849998	-36,400002	-97,300003	2020-10-29T19:38:43:787
68,949997	-32,759998	-102,550003	2020-10-29T19:38:43:801
52,570000	-31,710001	-106,050003	2020-10-29T19:38:43:827
55,580002	-26,110001	-110,809998	2020-10-29T19:38:43:864
51,799999	-22,750000	-116,550003	2020-10-29T19:38:43:865
36,119999	-23,520000	-122,430000	2020-10-29T19:38:43:884
20,930000	-19,950001	-124,110001	2020-10-29T19:38:43:910
19,740000	-13,720000	-119,770004	2020-10-29T19:38:43:931
27,370001	-10,500000	-113,260002	2020-10-29T19:38:43:945
43,680000	-8,610000	-106,610001	2020-10-29T19:38:43:967
61,459999	-8,190000	-100,519997	2020-10-29T19:38:43:987
67,059998	-7,420000	-94,709999	2020-10-29T19:38:44:004
62,090000	-2,800000	-87,220001	2020-10-29T19:38:44:027
52,290001	2,800000	-77,769997	2020-10-29T19:38:44:044
45,779999	7,630000	-67,760002	2020-10-29T19:38:44:067
43,400002	9,660000	-57,049999	2020-10-29T19:38:44:085
44,590000	10,430000	-38,779999	2020-10-29T19:38:44:107
37,730000	14,350000	-23,100000	2020-10-29T19:38:44:124
20,090000	18,690001	-5,670000	2020-10-29T19:38:44:150
7,700000	23,940001	12,950000	2020-10-29T19:38:44:165
7,210000	28,000000	31,500000	2020-10-29T19:38:44:193
17,570000	-5,250000	0,420000	2020-10-29T19:38:52:126
13,090000	-3,990000	0,700000	2020-10-29T19:38:52:127
8,470000	-4,410000	-1,400000	2020-10-29T19:38:52:138
8,540000	-5,390000	-6,510000	2020-10-29T19:38:52:159
31,150000	-11,340000	-11,970000	2020-10-29T19:38:52:180
67,340004	-20,020000	-14,840000	2020-10-29T19:38:52:198
110,250000	-27,650000	-19,389999	2020-10-29T19:38:52:247
128,240005	-38,570000	-23,309999	2020-10-29T19:38:52:248
102,760002	-48,090000	-28,559999	2020-10-29T19:38:52:263
64,889999	-54,670002	-38,009998	2020-10-29T19:38:52:273
36,540001	-63,279999	-46,759998	2020-10-29T19:38:52:296
13,160000	-75,180000	-53,549999	2020-10-29T19:38:52:314
12,040000	-78,540001	-58,450001	2020-10-29T19:38:52:339
14,490000	-77,279999	-61,880001	2020-10-29T19:38:52:357
1,120000	-75,250000	-62,299999	2020-10-29T19:38:52:380
-23,590000	-72,099998	-57,540001	2020-10-29T19:38:52:406
-116,129997	7,350000	-4,270000	2020-10-29T19:38:52:902
-129,430008	18,969999	10,430000	2020-10-29T19:38:52:903
-97,019997	29,469999	20,860001	2020-10-29T19:38:52:916
-58,590000	40,320000	26,250000	2020-10-29T19:38:52:938
-61,950001	41,020000	26,740000	2020-10-29T19:38:52:956
-76,090004	36,820000	25,620001	2020-10-29T19:38:52:980
-56,980000	35,420002	20,510000	2020-10-29T19:38:52:996
-27,510000	36,470001	8,260000	2020-10-29T19:38:53:019
-23,730000	39,130001	0,210000	2020-10-29T19:38:53:035
-47,880001	39,410000	1,680000	2020-10-29T19:38:53:061
-44,170002	42,770000	6,930000	2020-10-29T19:38:53:075
-17,360001	46,200001	10,430000	2020-10-29T19:38:53:098
2,030000	48,369999	9,100000	2020-10-29T19:38:53:115
11,550000	49,070000	7,700000	2020-10-29T19:38:53:139
11,830000	51,380001	9,450000	2020-10-29T19:38:53:155
-5,110000	52,430000	12,250000	2020-10-29T19:38:53:178
-16,100000	50,680000	13,370000	2020-10-29T19:38:53:195
-15,540000	45,990002	13,930000	2020-10-29T19:38:53:219
-14,630000	41,930000	14,980000	2020-10-29T19:38:53:236
-24,430000	40,529999	16,660000	2020-10-29T19:38:53:259
-35,000000	40,529999	17,570000	2020-10-29T19:38:53:276
-29,049999	41,020000	18,969999	2020-10-29T19:38:53:300
-31,850000	42,630001	20,580000	2020-10-29T19:38:53:316
-39,619999	42,420002	21,840000	2020-10-29T19:38:53:339
-43,119999	41,369999	23,240000	2020-10-29T19:38:53:356
-34,230000	37,590000	24,850000	2020-10-29T19:38:53:380
-24,290001	36,119999	26,389999	2020-10-29T19:38:53:396
-29,820000	39,340000	26,880001	2020-10-29T19:38:53:419
-36,889999	43,680000	27,160000	2020-10-29T19:38:53:436
-29,680000	47,250000	28,770000	2020-10-29T19:38:53:460
-19,600000	49,490002	30,170000	2020-10-29T19:38:53:477
-10,080000	51,660000	30,660000	2020-10-29T19:38:53:499
1,260000	54,320000	33,110001	2020-10-29T19:38:53:516
7,980000	57,680000	36,820000	2020-10-29T19:38:53:541
7,000000	61,810001	39,759998	2020-10-29T19:38:53:557
6,650000	65,590004	40,670002	2020-10-29T19:38:53:579
10,080000	70,349998	40,880001	2020-10-29T19:38:53:596
13,580000	72,660004	43,119999	2020-10-29T19:38:53:620
21,980000	71,120003	50,750000	2020-10-29T19:38:53:636
25,340000	69,790001	55,790001	2020-10-29T19:38:53:660
19,040001	74,900002	60,340000	2020-10-29T19:38:53:676
12,320000	77,980003	72,379997	2020-10-29T19:38:53:700
1,260000	81,410004	78,050003	2020-10-29T19:38:53:716
-1,470000	85,330002	83,580002	2020-10-29T19:38:53:739
12,390000	96,739998	93,169998	2020-10-29T19:38:53:756
42,349998	112,000000	105,349998	2020-10-29T19:38:53:781
79,800003	125,300003	112,770004	2020-10-29T19:38:53:796
76,440002	108,220001	105,279999	2020-10-29T19:38:53:819
59,570000	67,199997	109,340004	2020-10-29T19:38:53:836
26,389999	24,500000	75,809998	2020-10-29T19:38:53:860
24,990000	14,000000	53,060001	2020-10-29T19:38:53:876
35,279999	-10,570000	33,110001	2020-10-29T19:38:53:899
41,650002	-34,930000	15,190001	2020-10-29T19:38:53:916
34,930000	-56,000000	-1,820000	2020-10-29T19:38:53:940
33,740002	-70,840004	-16,309999	2020-10-29T19:38:53:956
26,530001	-78,470001	-31,500000	2020-10-29T19:38:53:980
5,600000	-81,129997	-48,160000	2020-10-29T19:38:53:996
-12,670000	-84,699997	-62,790001	2020-10-29T19:38:54:021
-16,379999	-88,830002	-69,650002	2020-10-29T19:38:54:036
-12,810000	-90,230003	-69,720001	2020-10-29T19:38:54:059
-6,580000	-89,180000	-64,120003	2020-10-29T19:38:54:076
0,140000	-88,199997	-56,560001	2020-10-29T19:38:54:100
6,580000	-87,010002	-48,930000	2020-10-29T19:38:54:116
6,230000	-79,730003	-39,060001	2020-10-29T19:38:54:140
-6,230000	-68,879997	-27,020000	2020-10-29T19:38:54:157
-15,470000	-58,380001	-18,340000	2020-10-29T19:38:54:180
-21,280001	-47,040001	-9,030000	2020-10-29T19:38:54:196
-23,940001	-35,420002	2,030000	2020-10-29T19:38:54:220
-28,000000	-23,100000	12,950000	2020-10-29T19:38:54:236
-32,830002	-12,320000	24,219999	2020-10-29T19:38:54:262
-34,299999	-2,940000	35,349998	2020-10-29T19:38:54:276
-30,030001	5,880000	46,549999	2020-10-29T19:38:54:300
-21,770000	13,510000	54,529999	2020-10-29T19:38:54:317
-10,850000	22,680000	58,869999	2020-10-29T19:38:54:340
1,890000	32,270000	61,040001	2020-10-29T19:38:54:357
17,080000	40,740002	62,020000	2020-10-29T19:38:54:379
33,599998	48,650002	63,349998	2020-10-29T19:38:54:397
48,650002	55,580002	64,959999	2020-10-29T19:38:54:420
62,160000	59,920002	66,360001	2020-10-29T19:38:54:437
71,680000	62,860001	67,059998	2020-10-29T19:38:54:460
75,459999	63,840000	66,709999	2020-10-29T19:38:54:477
73,150002	60,689999	65,519997	2020-10-29T19:38:54:501
62,020000	58,799999	63,560001	2020-10-29T19:38:54:517
47,740002	58,730000	62,650002	2020-10-29T19:38:54:540
36,189999	53,619999	61,110001	2020-10-29T19:38:54:557
20,790001	46,130001	57,330002	2020-10-29T19:38:54:581
0,910000	43,540001	54,320000	2020-10-29T19:38:54:597
-19,950001	44,310001	54,459999	2020-10-29T19:38:54:621
-30,030001	45,430000	57,889999	2020-10-29T19:38:54:637
-42,420002	33,670002	61,459999	2020-10-29T19:38:54:661
-119,770004	14,000000	46,900002	2020-10-29T19:38:54:677
-217,490005	-2,940000	29,400000	2020-10-29T19:38:54:700
-191,589996	-13,650000	-3,220000	2020-10-29T19:38:54:717
-85,610001	-15,960000	-24,780001	2020-10-29T19:38:54:743
15,470000	-10,010000	-42,490002	2020-10-29T19:38:54:757
64,680000	-13,230000	-55,580002	2020-10-29T19:38:54:780
93,449997	-12,110000	-60,340000	2020-10-29T19:38:54:797
110,879997	-8,890000	-59,570000	2020-10-29T19:38:54:822
120,050003	-11,340000	-57,540001	2020-10-29T19:38:54:837
112,139999	-14,700000	-57,260002	2020-10-29T19:38:54:861
81,059998	-7,490000	-58,240002	2020-10-29T19:38:54:877
28,490000	4,480000	-55,930000	2020-10-29T19:38:54:901
-20,370001	18,270000	-47,810001	2020-10-29T19:38:54:917
-46,410000	32,480000	-35,349998	2020-10-29T19:38:54:940
-42,630001	37,380001	-26,180000	2020-10-29T19:38:54:957
-13,510000	39,619999	-24,010000	2020-10-29T19:38:54:983
38,709999	40,810001	-26,040001	2020-10-29T19:38:54:997
112,000000	38,849998	-31,080000	2020-10-29T19:38:55:020
178,710007	35,420002	-45,430000	2020-10-29T19:38:55:038
234,779999	34,720001	-59,779999	2020-10-29T19:38:55:062
291,269989	29,610001	-78,820000	2020-10-29T19:38:55:077
317,239990	23,799999	-98,139999	2020-10-29T19:38:55:100
276,500000	11,760000	-124,250000	2020-10-29T19:38:55:117
206,080002	6,720000	-140,699997	2020-10-29T19:38:55:141
146,930008	4,830000	-146,300003	2020-10-29T19:38:55:158
101,500000	1,330000	-143,009995	2020-10-29T19:38:55:181
64,820000	0,070000	-133,139999	2020-10-29T19:38:55:197
43,330002	-3,150000	-119,699997	2020-10-29T19:38:55:222
31,360001	-8,050000	-98,279999	2020-10-29T19:38:55:237
32,619999	-7,630000	-84,000000	2020-10-29T19:38:55:261
42,700001	-4,620000	-69,440002	2020-10-29T19:38:55:278
55,439999	-3,430000	-56,700001	2020-10-29T19:38:55:302
56,490002	-3,710000	-48,090000	2020-10-29T19:38:55:318
42,000000	-1,750000	-43,259998	2020-10-29T19:38:55:341
28,700001	5,880000	-37,099998	2020-10-29T19:38:55:360
25,059999	14,630000	-27,299999	2020-10-29T19:38:55:382
25,620001	18,620001	-17,850000	2020-10-29T19:38:55:398
31,010000	18,969999	-12,250000	2020-10-29T19:38:55:420
37,170002	21,000000	-8,400000	2020-10-29T19:38:55:438
40,110001	24,290001	-5,530000	2020-10-29T19:38:55:463
42,980000	29,120001	-3,430000	2020-10-29T19:38:55:478
41,650002	39,200001	1,050000	2020-10-29T19:38:55:501
35,349998	43,680000	8,680000	2020-10-29T19:38:55:518
29,680000	34,230000	17,780001	2020-10-29T19:38:55:542
29,190001	26,600000	28,559999	2020-10-29T19:38:55:558
27,510000	25,059999	33,810001	2020-10-29T19:38:55:581
26,250000	28,139999	29,190001	2020-10-29T19:38:55:598
29,610001	29,889999	17,570000	2020-10-29T19:38:55:622
38,290001	33,599998	8,610000	2020-10-29T19:38:55:638
43,959999	37,310001	6,930000	2020-10-29T19:38:55:661
48,369999	33,670002	12,880000	2020-10-29T19:38:55:678
52,779999	22,889999	23,870001	2020-10-29T19:38:55:703
49,630001	10,710000	37,590000	2020-10-29T19:38:55:718
34,930000	1,260000	50,189999	2020-10-29T19:38:55:741
5,390000	-1,260000	56,840000	2020-10-29T19:38:55:759
-26,180000	-3,920000	58,170002	2020-10-29T19:38:55:783
-45,150002	-4,480000	55,650002	2020-10-29T19:38:55:798
-53,970001	-2,170000	49,490002	2020-10-29T19:38:55:821
-59,220001	-1,890000	40,810001	2020-10-29T19:38:55:838
-58,310001	-0,700000	30,240000	2020-10-29T19:38:55:862
-42,630001	1,610000	19,530001	2020-10-29T19:38:55:879
-14,350000	4,620000	11,830000	2020-10-29T19:38:55:901
13,930000	5,320000	8,120000	2020-10-29T19:38:55:919
30,799999	2,660000	7,210000	2020-10-29T19:38:55:942
35,700001	-0,560000	9,380000	2020-10-29T19:38:55:959
28,000000	-4,410000	14,980000	2020-10-29T19:38:55:982
7,000000	-7,770000	21,980000	2020-10-29T19:38:55:999
-17,290001	-9,030000	29,190001	2020-10-29T19:38:56:023
-37,170002	-10,360000	34,439999	2020-10-29T19:38:56:038
-55,510002	-11,060000	36,820000	2020-10-29T19:38:56:062
-73,150002	-10,920000	37,869999	2020-10-29T19:38:56:078
-85,610001	-10,920000	39,270000	2020-10-29T19:38:56:102
-91,559998	-10,150000	41,020000	2020-10-29T19:38:56:119
-92,540001	-8,750000	43,820000	2020-10-29T19:38:56:142
-90,860001	-7,350000	46,900002	2020-10-29T19:38:56:159
-87,989998	-5,600000	51,029999	2020-10-29T19:38:56:184
-87,500000	-5,880000	56,139999	2020-10-29T19:38:56:198
-90,300003	-7,280000	60,619999	2020-10-29T19:38:56:222
-94,080002	-3,290000	64,750000	2020-10-29T19:38:56:239
-98,279999	1,330000	70,559998	2020-10-29T19:38:56:263
-102,340004	-2,450000	76,019997	2020-10-29T19:38:56:279
-107,590004	-8,890000	80,010002	2020-10-29T19:38:56:302
-117,110001	-12,740000	80,220001	2020-10-29T19:38:56:319
-126,139999	-13,440001	73,919998	2020-10-29T19:38:56:343
-121,800003	-12,670000	64,959999	2020-10-29T19:38:56:359
-112,489998	-11,690000	54,880001	2020-10-29T19:38:56:382
-101,360001	-10,990000	45,009998	2020-10-29T19:38:56:399
-90,720001	-10,430000	36,610001	2020-10-29T19:38:56:424
-85,889999	-12,040000	29,750000	2020-10-29T19:38:56:438
-92,470001	-15,680000	24,570000	2020-10-29T19:38:56:462
-108,989998	-18,270000	22,049999	2020-10-29T19:38:56:479
-132,020004	-18,620001	20,440001	2020-10-29T19:38:56:503
-152,110001	-17,850000	19,320000	2020-10-29T19:38:56:519
-164,500000	-16,940001	16,170000	2020-10-29T19:38:56:541
-165,130005	-14,070000	12,670000	2020-10-29T19:38:56:559
-154,630005	-8,960000	9,030000	2020-10-29T19:38:56:583
-135,940002	-2,870000	5,040000	2020-10-29T19:38:56:599
-112,559998	2,660000	1,750000	2020-10-29T19:38:56:623
-90,650002	8,820000	1,120000	2020-10-29T19:38:56:639
-75,320000	14,840000	4,690000	2020-10-29T19:38:56:664
-68,389999	21,280001	12,460000	2020-10-29T19:38:56:679
-70,139999	27,299999	22,889999	2020-10-29T19:38:56:702
-73,639999	33,389999	34,720001	2020-10-29T19:38:56:719
-73,290001	39,270000	45,150002	2020-10-29T19:38:56:743
-64,400002	45,150002	52,430000	2020-10-29T19:38:56:759
-44,450001	50,119999	54,599998	2020-10-29T19:38:56:783
-14,490000	54,110001	52,430000	2020-10-29T19:38:56:799
15,680000	56,490002	48,509998	2020-10-29T19:38:56:823
34,090000	55,790001	43,400002	2020-10-29T19:38:56:840
40,599998	53,549999	37,869999	2020-10-29T19:38:56:863
43,259998	47,320000	32,270000	2020-10-29T19:38:56:879
41,090000	42,770000	29,750000	2020-10-29T19:38:56:905
32,200001	38,920002	24,290001	2020-10-29T19:38:56:919
29,260000	32,549999	17,290001	2020-10-29T19:38:56:943
32,270000	25,340000	9,870000	2020-10-29T19:38:56:960
35,840000	19,950001	3,780000	2020-10-29T19:38:56:983
40,740002	15,960000	1,260000	2020-10-29T19:38:56:999
44,660000	-2,030000	-2,170000	2020-10-29T19:38:57:023
41,509998	-18,690001	-9,590000	2020-10-29T19:38:57:039
39,340000	-26,809999	-17,850000	2020-10-29T19:38:57:064
44,590000	-37,240002	-29,049999	2020-10-29T19:38:57:079
54,950001	-47,389999	-45,639999	2020-10-29T19:38:57:103
67,690002	-50,610001	-57,959999	2020-10-29T19:38:57:119
100,169998	-46,200001	-62,439999	2020-10-29T19:38:57:145
107,590004	-49,420002	-66,639999	2020-10-29T19:38:57:160
94,779999	-52,290001	-63,840000	2020-10-29T19:38:57:182
92,610001	-55,090000	-51,799999	2020-10-29T19:38:57:200
97,650002	-62,439999	-37,660000	2020-10-29T19:38:57:223
94,080002	-70,980003	-31,639999	2020-10-29T19:38:57:239
87,290001	-72,519997	-30,660000	2020-10-29T19:38:57:263
74,129997	-66,779999	-29,540001	2020-10-29T19:38:57:280
54,389999	-53,270000	-28,770000	2020-10-29T19:38:57:303
49,910000	-38,430000	-30,870001	2020-10-29T19:38:57:320
69,019997	-26,809999	-37,939999	2020-10-29T19:38:57:343
93,379997	-19,110001	-45,639999	2020-10-29T19:38:57:360
115,290001	-16,030001	-49,349998	2020-10-29T19:38:57:385
132,860001	-16,590000	-47,670002	2020-10-29T19:38:57:400
145,740005	-20,440001	-41,299999	2020-10-29T19:38:57:423
139,369995	-22,610001	-35,840000	2020-10-29T19:38:57:440
119,070000	-22,540001	-29,889999	2020-10-29T19:38:57:464
91,349998	-21,210001	-23,660000	2020-10-29T19:38:57:480
63,560001	-19,110001	-18,690001	2020-10-29T19:38:57:503
38,430000	-16,030001	-16,799999	2020-10-29T19:38:57:520
17,080000	-13,580000	-18,340000	2020-10-29T19:38:57:544
1,330000	-10,360000	-22,260000	2020-10-29T19:38:57:560
-4,970000	-7,070000	-25,900000	2020-10-29T19:38:57:584
-3,080000	-4,200000	-29,120001	2020-10-29T19:38:57:600
4,340000	-1,120000	-32,410000	2020-10-29T19:38:57:625
14,490000	2,590000	-36,470001	2020-10-29T19:38:57:640
22,120001	13,020000	-37,310001	2020-10-29T19:38:57:664
30,660000	19,740000	-34,650002	2020-10-29T19:38:57:680
46,130001	19,110001	-31,500000	2020-10-29T19:38:57:704
59,500000	25,690001	-27,650000	2020-10-29T19:38:57:720
67,199997	28,980000	-24,920000	2020-10-29T19:38:57:743
77,840004	25,059999	-28,070000	2020-10-29T19:38:57:760
89,599998	22,820000	-36,889999	2020-10-29T19:38:57:785
94,010002	24,710001	-44,240002	2020-10-29T19:38:57:800
96,389999	23,520000	-48,650002	2020-10-29T19:38:57:823
99,400002	18,760000	-50,959999	2020-10-29T19:38:57:840
99,610001	14,700000	-50,959999	2020-10-29T19:38:57:865
94,080002	9,520000	-48,090000	2020-10-29T19:38:57:880
83,300003	2,170000	-43,259998	2020-10-29T19:38:57:908
67,480003	-4,270000	-38,500000	2020-10-29T19:38:57:920
46,689999	-7,280000	-34,439999	2020-10-29T19:38:57:944
38,849998	-16,240000	-32,549999	2020-10-29T19:38:57:960
56,000000	-5,740000	-19,250000	2020-10-29T19:38:57:984
55,369999	13,230000	-6,510000	2020-10-29T19:38:58:000
42,490002	30,240000	4,480000	2020-10-29T19:38:58:024
43,610001	45,570000	18,480000	2020-10-29T19:38:58:040
54,740002	53,689999	29,540001	2020-10-29T19:38:58:064
60,760002	60,060001	34,860001	2020-10-29T19:38:58:080
60,340000	69,930000	35,840000	2020-10-29T19:38:58:107
59,290001	81,129997	36,119999	2020-10-29T19:38:58:120
63,279999	85,820000	34,860001	2020-10-29T19:38:58:144
78,610001	84,699997	31,500000	2020-10-29T19:38:58:161
97,860001	81,550003	25,900000	2020-10-29T19:38:58:185
111,440002	75,529999	19,600000	2020-10-29T19:38:58:201
110,949997	66,290001	13,720000	2020-10-29T19:38:58:224
95,760002	56,070000	8,540000	2020-10-29T19:38:58:240
69,510002	46,689999	4,760000	2020-10-29T19:38:58:265
38,220001	39,549999	1,610000	2020-10-29T19:38:58:281
5,740000	33,670002	-2,380000	2020-10-29T19:38:58:304
-18,690001	28,000000	-7,070000	2020-10-29T19:38:58:320
-36,259998	21,980000	-13,720000	2020-10-29T19:38:58:346
-50,119999	15,400000	-20,930000	2020-10-29T19:38:58:361
-55,160000	10,640000	-27,160000	2020-10-29T19:38:58:384
-48,720001	7,350000	-32,410000	2020-10-29T19:38:58:400
-40,459999	0,770000	-37,240002	2020-10-29T19:38:58:425
-45,360001	-4,060000	-42,349998	2020-10-29T19:38:58:441
-57,889999	1,960000	-41,439999	2020-10-29T19:38:58:464
-74,900002	4,130000	-38,779999	2020-10-29T19:38:58:481
-94,150002	7,210000	-38,150002	2020-10-29T19:38:58:505
-92,190002	6,440000	-38,639999	2020-10-29T19:38:58:521
-70,139999	2,380000	-47,180000	2020-10-29T19:38:58:544
-31,570000	7,000000	-63,490002	2020-10-29T19:38:58:561
9,100000	14,770000	-82,180000	2020-10-29T19:38:58:587
57,889999	19,530001	-94,080002	2020-10-29T19:38:58:600
106,820000	14,910000	-97,580002	2020-10-29T19:38:58:625
141,330002	6,300000	-91,000000	2020-10-29T19:38:58:641
157,430008	0,420000	-82,320000	2020-10-29T19:38:58:666
167,300003	-3,080000	-77,629997	2020-10-29T19:38:58:681
173,250000	-8,750000	-75,739998	2020-10-29T19:38:58:704
163,869995	-18,480000	-76,790001	2020-10-29T19:38:58:721
142,380005	-29,680000	-78,750000	2020-10-29T19:38:58:745
112,910004	-38,920002	-79,379997	2020-10-29T19:38:58:761
79,800003	-46,200001	-79,239998	2020-10-29T19:38:58:785
55,160000	-51,520000	-77,699997	2020-10-29T19:38:58:801
42,420002	-55,299999	-76,019997	2020-10-29T19:38:58:827
46,130001	-56,139999	-74,620003	2020-10-29T19:38:58:841
60,830002	-52,500000	-71,610001	2020-10-29T19:38:58:865
68,529999	-50,189999	-68,040001	2020-10-29T19:38:58:881
67,620003	-48,299999	-64,400002	2020-10-29T19:38:58:905
60,760002	-45,009998	-56,770000	2020-10-29T19:38:58:921
47,670002	-40,320000	-45,920002	2020-10-29T19:38:58:945
34,720001	-35,490002	-33,389999	2020-10-29T19:38:58:961
23,660000	-32,689999	-21,420000	2020-10-29T19:38:58:986
13,930000	-29,469999	-10,220000	2020-10-29T19:38:59:001
9,100000	-24,219999	2,030000	2020-10-29T19:38:59:024
10,080000	-18,620001	15,610000	2020-10-29T19:38:59:041
13,930000	-13,930000	28,840000	2020-10-29T19:38:59:067
15,610000	-10,220000	40,459999	2020-10-29T19:38:59:081
10,920000	-7,700000	52,849998	2020-10-29T19:38:59:105
-2,870000	-3,710000	64,959999	2020-10-29T19:38:59:121
-22,750000	0,770000	75,110001	2020-10-29T19:38:59:145
-40,389999	4,270000	82,669998	2020-10-29T19:38:59:162
-52,430000	9,660000	86,940002	2020-10-29T19:38:59:185
-55,439999	15,330000	89,669998	2020-10-29T19:38:59:201
-56,700001	24,150000	92,540001	2020-10-29T19:38:59:226
-49,980000	25,410000	97,090004	2020-10-29T19:38:59:242
-41,790001	19,040001	100,169998	2020-10-29T19:38:59:266
-51,310001	17,290001	99,330002	2020-10-29T19:38:59:282
-74,620003	20,370001	94,500000	2020-10-29T19:38:59:307
-86,800003	21,210001	85,190002	2020-10-29T19:38:59:322
-90,370003	23,309999	76,790001	2020-10-29T19:38:59:345
-93,239998	28,139999	67,830002	2020-10-29T19:38:59:362
-85,820000	32,549999	60,480000	2020-10-29T19:38:59:386
-68,110001	35,770000	55,510002	2020-10-29T19:38:59:401
-52,009998	36,470001	53,970001	2020-10-29T19:38:59:425
-39,410000	34,509998	54,599998	2020-10-29T19:38:59:442
-34,509998	31,500000	53,900002	2020-10-29T19:38:59:465
-41,860001	28,490000	50,189999	2020-10-29T19:38:59:482
-58,869999	24,710001	46,270000	2020-10-29T19:38:59:505
-81,410004	21,280001	41,580002	2020-10-29T19:38:59:522
-104,230003	17,430000	34,020000	2020-10-29T19:38:59:547
-131,460007	10,710000	23,450001	2020-10-29T19:38:59:562
-199,289993	-0,350000	5,250000	2020-10-29T19:38:59:585
-236,529999	3,360000	12,810000	2020-10-29T19:38:59:602
-208,740005	0,840000	28,910000	2020-10-29T19:38:59:627
-189,559998	5,460000	32,410000	2020-10-29T19:38:59:642
-186,479996	4,760000	53,060001	2020-10-29T19:38:59:666
-137,619995	9,520000	64,260002	2020-10-29T19:38:59:682
-79,099998	19,950001	71,750000	2020-10-29T19:38:59:705
-61,599998	30,799999	75,320000	2020-10-29T19:38:59:722
-61,950001	41,439999	79,449997	2020-10-29T19:38:59:745
-54,670002	48,230000	81,480003	2020-10-29T19:38:59:762
-39,340000	50,610001	81,129997	2020-10-29T19:38:59:787
-25,270000	50,889999	79,800003	2020-10-29T19:38:59:802
-17,150000	51,029999	78,260002	2020-10-29T19:38:59:825
-15,680000	50,049999	71,750000	2020-10-29T19:38:59:843
-15,750000	48,650002	60,619999	2020-10-29T19:38:59:866
-17,990000	48,720001	47,110001	2020-10-29T19:38:59:882
-23,379999	45,430000	32,270000	2020-10-29T19:38:59:906
-28,700001	41,509998	17,080000	2020-10-29T19:38:59:922
-32,130001	39,689999	7,070000	2020-10-29T19:38:59:946
-47,389999	36,610001	-1,190000	2020-10-29T19:38:59:963
-63,700001	34,160000	-4,480000	2020-10-29T19:38:59:985
-78,050003	35,980000	-3,710000	2020-10-29T19:39:00:002
-84,000000	33,250000	0,210000	2020-10-29T19:39:00:026
-76,300003	25,969999	7,770000	2020-10-29T19:39:00:042
-66,080002	26,320000	11,340000	2020-10-29T19:39:00:065
-46,060001	24,990000	10,430000	2020-10-29T19:39:00:082
-16,730000	22,049999	5,390000	2020-10-29T19:39:00:106
1,400000	17,639999	-2,730000	2020-10-29T19:39:00:122
7,770000	12,880000	-12,670000	2020-10-29T19:39:00:145
9,940000	9,170000	-24,430000	2020-10-29T19:39:00:162
8,750000	5,320000	-28,770000	2020-10-29T19:39:00:187
11,900000	2,520000	-25,129999	2020-10-29T19:39:00:203
13,230000	-3,500000	-20,230000	2020-10-29T19:39:00:225
10,430000	-12,180000	-13,510000	2020-10-29T19:39:00:242
21,210001	-16,030001	-3,710000	2020-10-29T19:39:00:269
25,200001	-13,720000	2,940000	2020-10-29T19:39:00:284
15,050000	-8,820000	3,640000	2020-10-29T19:39:00:305
-4,410000	-7,280000	3,640000	2020-10-29T19:39:00:324
-24,150000	-7,980000	1,960000	2020-10-29T19:39:00:346
-42,980000	-9,520000	-3,150000	2020-10-29T19:39:00:363
-59,709999	-10,570000	-6,370000	2020-10-29T19:39:00:386
-71,050003	-11,900000	-7,630000	2020-10-29T19:39:00:402
-79,519997	-13,860000	-8,260000	2020-10-29T19:39:00:425
-83,860001	-15,610000	-9,660000	2020-10-29T19:39:00:442
-86,309998	-16,870001	-10,500000	2020-10-29T19:39:00:467
-90,440002	-17,850000	-11,620000	2020-10-29T19:39:00:483
-93,800003	-18,059999	-12,740000	2020-10-29T19:39:00:508
-94,220001	-17,500000	-11,760000	2020-10-29T19:39:00:522
-93,449997	-16,940001	-10,850000	2020-10-29T19:39:00:545
-87,919998	-15,960000	-10,640000	2020-10-29T19:39:00:563
-76,510002	-15,890000	-10,150000	2020-10-29T19:39:00:588
-65,730003	-17,219999	-10,220000	2020-10-29T19:39:00:602
-56,349998	-17,080000	-11,130000	2020-10-29T19:39:00:627
-56,000000	-17,500000	-10,220000	2020-10-29T19:39:00:643
-66,779999	-16,590000	-12,880000	2020-10-29T19:39:00:667
-81,620003	-15,960000	-14,420000	2020-10-29T19:39:00:683
-89,040001	-17,920000	-15,330000	2020-10-29T19:39:00:707
-100,519997	-18,200001	-14,630000	2020-10-29T19:39:00:723
-107,730003	-21,000000	-13,230000	2020-10-29T19:39:00:748
-110,599998	-24,570000	-11,900000	2020-10-29T19:39:00:763
-112,000000	-28,559999	-10,920000	2020-10-29T19:39:00:787
-112,489998	-31,850000	-10,780000	2020-10-29T19:39:00:803
-113,260002	-34,650002	-13,020000	2020-10-29T19:39:00:827
-111,370003	-35,700001	-16,870001	2020-10-29T19:39:00:843
-114,029999	-36,049999	-19,389999	2020-10-29T19:39:00:867
-127,540001	-33,810001	-19,879999	2020-10-29T19:39:00:883
-136,149994	-34,230000	-19,809999	2020-10-29T19:39:00:907
-124,529999	-39,200001	-16,660000	2020-10-29T19:39:00:923
-109,340004	-35,700001	-18,200001	2020-10-29T19:39:00:946
-99,190002	-19,320000	-26,950001	2020-10-29T19:39:00:963
-65,870003	-5,320000	-37,240002	2020-10-29T19:39:00:987
-15,750000	-0,140000	-44,170002	2020-10-29T19:39:01:003
25,969999	3,990000	-45,990002	2020-10-29T19:39:01:026
45,009998	0,070000	-42,700001	2020-10-29T19:39:01:043
46,340000	-22,330000	-15,050000	2020-10-29T19:39:01:067
45,990002	-33,950001	13,370000	2020-10-29T19:39:01:083
5,950000	-44,310001	17,570000	2020-10-29T19:39:01:106
-29,540001	-47,180000	13,020000	2020-10-29T19:39:01:123
-34,090000	-40,670002	13,650000	2020-10-29T19:39:01:148
-57,330002	-36,750000	14,770000	2020-10-29T19:39:01:164
-101,500000	-35,910000	14,210000	2020-10-29T19:39:01:186
-128,380005	-39,130001	13,720000	2020-10-29T19:39:01:203
-132,160004	-43,259998	14,700000	2020-10-29T19:39:01:228
-137,550003	-45,360001	11,760000	2020-10-29T19:39:01:244
-144,899994	-44,799999	4,200000	2020-10-29T19:39:01:267
-140,419998	-40,880001	-2,870000	2020-10-29T19:39:01:283
-122,849998	-38,150002	-8,680000	2020-10-29T19:39:01:307
-107,099998	-34,230000	-13,930000	2020-10-29T19:39:01:323
-100,870003	-29,260000	-16,940001	2020-10-29T19:39:01:347
-98,070000	-27,090000	-17,430000	2020-10-29T19:39:01:364
-93,239998	-27,020000	-14,700000	2020-10-29T19:39:01:388
-91,769997	-27,230000	-9,100000	2020-10-29T19:39:01:404
-95,410004	-26,670000	-1,120000	2020-10-29T19:39:01:427
-98,559998	-25,969999	9,590000	2020-10-29T19:39:01:443
-90,510002	-25,200001	23,100000	2020-10-29T19:39:01:469
-97,300003	-27,790001	35,000000	2020-10-29T19:39:01:484
-111,020004	-26,389999	44,240002	2020-10-29T19:39:01:507
-131,949997	-23,030001	49,630001	2020-10-29T19:39:01:524
-145,039993	-20,020000	55,930000	2020-10-29T19:39:01:547
-149,169998	-18,480000	60,480000	2020-10-29T19:39:01:564
-157,850006	-14,420000	59,220001	2020-10-29T19:39:01:587
-177,380005	-11,410000	58,099998	2020-10-29T19:39:01:604
-173,809998	-11,130000	58,660000	2020-10-29T19:39:01:628
-146,860001	-13,580000	55,230000	2020-10-29T19:39:01:644
-118,230003	-12,530000	51,029999	2020-10-29T19:39:01:667
-94,639999	-10,850000	45,080002	2020-10-29T19:39:01:684
-69,510002	-10,430000	40,599998	2020-10-29T19:39:01:709
-46,830002	-7,490000	36,049999	2020-10-29T19:39:01:724
-29,330000	-3,080000	28,559999	2020-10-29T19:39:01:747
-8,890000	1,190000	19,389999	2020-10-29T19:39:01:764
-6,440000	-3,430000	18,690001	2020-10-29T19:39:01:788
-4,060000	-8,540000	14,350000	2020-10-29T19:39:01:804
-8,540000	-14,350000	10,570000	2020-10-29T19:39:01:827
-19,040001	-16,799999	1,540000	2020-10-29T19:39:01:844
-41,230000	-16,309999	-7,350000	2020-10-29T19:39:01:868
-65,590004	-16,660000	-15,050000	2020-10-29T19:39:01:885
-83,510002	-18,059999	-19,740000	2020-10-29T19:39:01:908
-94,849998	-20,790001	-20,440001	2020-10-29T19:39:01:924
-104,440002	-26,809999	-18,830000	2020-10-29T19:39:01:949
-112,840004	-32,619999	-17,570000	2020-10-29T19:39:01:964
-119,279999	-33,040001	-18,200001	2020-10-29T19:39:01:987
-123,199997	-30,170000	-20,510000	2020-10-29T19:39:02:004
-123,340004	-26,809999	-22,750000	2020-10-29T19:39:02:028
-119,770004	-24,219999	-23,240000	2020-10-29T19:39:02:044
-111,300003	-21,700001	-20,440001	2020-10-29T19:39:02:068
-97,580002	-20,510000	-14,630000	2020-10-29T19:39:02:084
-83,440002	-20,299999	-7,560000	2020-10-29T19:39:02:108
-75,250000	-21,629999	0,980000	2020-10-29T19:39:02:124
-74,900002	-21,629999	10,920000	2020-10-29T19:39:02:147
-79,029999	-20,790001	21,700001	2020-10-29T19:39:02:164
-85,610001	-20,580000	31,850000	2020-10-29T19:39:02:189
-94,570000	-20,230000	39,549999	2020-10-29T19:39:02:204
-102,129997	-20,299999	44,240002	2020-10-29T19:39:02:227
-106,750000	-20,650000	46,759998	2020-10-29T19:39:02:244
-110,110001	-20,020000	46,689999	2020-10-29T19:39:02:269
-112,209999	-18,270000	44,380001	2020-10-29T19:39:02:284
-112,489998	-16,379999	40,810001	2020-10-29T19:39:02:308
-110,250000	-14,210000	37,099998	2020-10-29T19:39:02:324
-105,419998	-12,320000	34,439999	2020-10-29T19:39:02:349
-98,419998	-11,410000	33,810001	2020-10-29T19:39:02:365
-90,440002	-11,410000	35,279999	2020-10-29T19:39:02:389
-84,699997	-12,180000	37,590000	2020-10-29T19:39:02:405
-82,180000	-12,950000	39,970001	2020-10-29T19:39:02:428
-82,669998	-13,930000	41,930000	2020-10-29T19:39:02:444
-85,330002	-15,330000	43,400002	2020-10-29T19:39:02:468
-90,230003	-17,290001	44,170002	2020-10-29T19:39:02:485
-94,639999	-18,620001	44,029999	2020-10-29T19:39:02:508
-97,580002	-20,650000	42,560001	2020-10-29T19:39:02:525
-98,489998	-22,260000	39,900002	2020-10-29T19:39:02:548
-97,160004	-23,870001	36,610001	2020-10-29T19:39:02:565
-93,940002	-25,480000	33,040001	2020-10-29T19:39:02:589
-91,699997	-24,430000	30,590000	2020-10-29T19:39:02:605
-89,459999	-24,290001	31,780001	2020-10-29T19:39:02:628
-85,540001	-33,810001	34,580002	2020-10-29T19:39:02:644
-92,750000	-35,139999	33,389999	2020-10-29T19:39:02:670
-118,300003	-33,180000	24,990000	2020-10-29T19:39:02:685
-142,380005	-31,360001	14,490000	2020-10-29T19:39:02:708
-152,669998	-26,320000	3,640000	2020-10-29T19:39:02:725
-148,539993	-18,690001	-6,580000	2020-10-29T19:39:02:748
-122,779999	-10,570000	-15,680000	2020-10-29T19:39:02:765
-80,989998	-6,090000	-23,660000	2020-10-29T19:39:02:789
-33,459999	-6,160000	-30,030001	2020-10-29T19:39:02:805
7,770000	-6,300000	-34,090000	2020-10-29T19:39:02:829
37,869999	-5,810000	-29,330000	2020-10-29T19:39:02:845
33,529999	-12,390000	-16,170000	2020-10-29T19:39:02:868
-30,730000	-21,770000	0,210000	2020-10-29T19:39:02:885
-78,260002	-23,660000	-3,150000	2020-10-29T19:39:02:915
-62,930000	-24,850000	1,050000	2020-10-29T19:39:02:925
-45,639999	-21,770000	4,690000	2020-10-29T19:39:02:952
-40,670002	-19,460001	5,320000	2020-10-29T19:39:02:966
-32,549999	-20,299999	2,100000	2020-10-29T19:39:02:989
-22,610001	-20,650000	-1,260000	2020-10-29T19:39:03:005
-15,610000	-19,950001	-2,800000	2020-10-29T19:39:03:028
-13,860000	-17,920000	-2,240000	2020-10-29T19:39:03:045
-11,550000	-14,910000	-2,240000	2020-10-29T19:39:03:069
-3,360000	-11,410000	2,030000	2020-10-29T19:39:03:085
2,450000	-8,890000	2,940000	2020-10-29T19:39:03:108
5,810000	-7,280000	1,260000	2020-10-29T19:39:03:125
8,820000	-7,630000	-1,890000	2020-10-29T19:39:03:151
12,180000	-10,500000	-4,970000	2020-10-29T19:39:03:165
12,600000	-14,280000	-8,330000	2020-10-29T19:39:03:189
8,050000	-17,639999	-12,180000	2020-10-29T19:39:03:206
6,930000	-18,200001	-13,510000	2020-10-29T19:39:03:229
18,059999	-17,920000	-12,600000	2020-10-29T19:39:03:245
19,460001	-19,320000	-15,470000	2020-10-29T19:39:03:269
18,480000	-22,889999	-17,639999	2020-10-29T19:39:03:286
18,059999	-29,190001	-18,270000	2020-10-29T19:39:03:309
15,750000	-37,380001	-21,700001	2020-10-29T19:39:03:325
11,690000	-41,439999	-31,430000	2020-10-29T19:39:03:349
11,130000	-47,250000	-47,110001	2020-10-29T19:39:03:366
27,370001	-56,910000	-66,010002	2020-10-29T19:39:03:391
47,670002	-59,570000	-72,870003	2020-10-29T19:39:03:405
53,270000	-62,790001	-74,340004	2020-10-29T19:39:03:429
54,529999	-68,389999	-80,220001	2020-10-29T19:39:03:446
72,590004	-70,840004	-83,370003	2020-10-29T19:39:03:470
73,220001	-74,550003	-88,830002	2020-10-29T19:39:03:486
38,500000	-80,500000	-98,840004	2020-10-29T19:39:03:509
-9,660000	-83,160004	-106,610001	2020-10-29T19:39:03:525
-47,040001	-84,559998	-110,879997	2020-10-29T19:39:03:549
-68,250000	-87,779999	-119,139999	2020-10-29T19:39:03:566
-71,470001	-90,650002	-130,690002	2020-10-29T19:39:03:589
-71,190002	-91,070000	-139,720001	2020-10-29T19:39:03:605
-73,360001	-92,750000	-144,059998	2020-10-29T19:39:03:631
-80,150002	-88,059998	-150,289993	2020-10-29T19:39:03:646
-74,199997	-80,849998	-147,839996	2020-10-29T19:39:03:669
-73,570000	-74,410004	-143,500000	2020-10-29T19:39:03:686
-93,029999	-69,160004	-146,789993	2020-10-29T19:39:03:710
-111,930000	-67,059998	-148,470001	2020-10-29T19:39:03:726
-120,120003	-53,900002	-148,330002	2020-10-29T19:39:03:749
-84,419998	-45,080002	-135,100006	2020-10-29T19:39:03:766
-30,799999	-48,790001	-126,279999	2020-10-29T19:39:03:790
2,450000	-47,670002	-120,540001	2020-10-29T19:39:03:806
5,670000	-40,389999	-115,989998	2020-10-29T19:39:03:829
5,810000	-33,250000	-106,470001	2020-10-29T19:39:03:846
11,900000	-28,980000	-89,949997	2020-10-29T19:39:03:871
20,860001	-21,700001	-78,120003	2020-10-29T19:39:03:886
22,260000	-12,600000	-69,160004	2020-10-29T19:39:03:909
-11,340000	-9,240000	-60,619999	2020-10-29T19:39:03:926
-51,380001	-12,250000	-60,689999	2020-10-29T19:39:03:950
-143,009995	-8,470000	-35,209999	2020-10-29T19:39:03:967
-215,110001	0,350000	-42,980000	2020-10-29T19:39:03:989
-283,989990	15,470000	-59,709999	2020-10-29T19:39:04:008
-305,130005	-12,250000	-62,580002	2020-10-29T19:39:04:031
-410,899994	16,940001	-32,130001	2020-10-29T19:39:04:056
-276,709991	-8,960000	-143,570007	2020-10-29T19:39:04:071
-172,059998	3,500000	-185,360001	2020-10-29T19:39:04:086
-86,730003	28,910000	-138,949997	2020-10-29T19:39:04:112
-14,420000	38,360001	-78,260002	2020-10-29T19:39:04:127
68,949997	38,080002	-14,700000	2020-10-29T19:39:04:236
102,480003	44,869999	21,490000	2020-10-29T19:39:04:239
107,800003	47,810001	23,799999	2020-10-29T19:39:04:240
81,550003	34,230000	24,500000	2020-10-29T19:39:04:241
36,750000	22,049999	17,850000	2020-10-29T19:39:04:284
8,120000	21,559999	16,799999	2020-10-29T19:39:04:285
10,710000	24,920000	27,790001	2020-10-29T19:39:04:285
20,580000	24,780001	41,439999	2020-10-29T19:39:04:352
10,220000	19,600000	46,970001	2020-10-29T19:39:04:353
-18,760000	14,980000	43,049999	2020-10-29T19:39:04:353
-36,750000	5,600000	35,000000	2020-10-29T19:39:04:354
-40,459999	2,730000	27,020000	2020-10-29T19:39:04:365
-26,950001	0,420000	15,750000	2020-10-29T19:39:04:388
-13,790000	2,870000	3,640000	2020-10-29T19:39:04:405
6,720000	5,950000	-3,220000	2020-10-29T19:39:04:430
25,200001	5,180000	-6,510000	2020-10-29T19:39:04:447
24,990000	6,510000	-7,210000	2020-10-29T19:39:04:470
18,200001	7,070000	-6,720000	2020-10-29T19:39:04:486
9,590000	8,400000	-7,280000	2020-10-29T19:39:04:510
10,640000	6,230000	-8,470000	2020-10-29T19:39:04:526
14,630000	6,300000	-8,400000	2020-10-29T19:39:04:550
17,850000	5,110000	-8,960000	2020-10-29T19:39:04:567
8,890000	4,970000	-9,730000	2020-10-29T19:39:04:592
4,550000	4,060000	-9,520000	2020-10-29T19:39:04:607
2,030000	3,360000	-8,470000	2020-10-29T19:39:04:630
1,400000	3,080000	-6,790000	2020-10-29T19:39:04:659
2,660000	2,940000	-4,480000	2020-10-29T19:39:04:674
4,130000	2,730000	-4,130000	2020-10-29T19:39:04:688
1,610000	2,940000	-3,850000	2020-10-29T19:39:04:710
0,490000	3,150000	-3,010000	2020-10-29T19:39:04:727
1,680000	2,730000	-2,450000	2020-10-29T19:39:04:750
4,130000	2,940000	-1,750000	2020-10-29T19:39:04:767
4,200000	2,590000	-1,470000	2020-10-29T19:39:04:790
3,220000	2,310000	-1,400000	2020-10-29T19:39:04:807
-2,590000	2,800000	-0,770000	2020-10-29T19:39:04:832
0,350000	2,170000	-1,260000	2020-10-29T19:39:04:847
-0,280000	1,750000	-0,280000	2020-10-29T19:39:04:869
-1,890000	0,980000	0,560000	2020-10-29T19:39:04:887
-2,030000	0,700000	0,700000	2020-10-29T19:39:04:911
-1,750000	0,840000	0,350000	2020-10-29T19:39:04:926
-2,730000	1,050000	0,140000	2020-10-29T19:39:04:951
-7,770000	1,890000	0,560000	2020-10-29T19:39:04:967
-5,180000	1,610000	0,210000	2020-10-29T19:39:05:002
71,050003	41,509998	3,850000	2020-10-29T19:39:27:125
47,250000	36,540001	3,010000	2020-10-29T19:39:27:126
25,830000	30,380001	2,520000	2020-10-29T19:39:27:127
6,580000	24,639999	3,290000	2020-10-29T19:39:27:140
-8,400000	20,370001	7,070000	2020-10-29T19:39:27:192
-17,219999	17,570000	13,020000	2020-10-29T19:39:27:194
-21,000000	14,000000	20,020000	2020-10-29T19:39:27:205
-22,680000	10,710000	27,580000	2020-10-29T19:39:27:218
-26,389999	6,720000	36,259998	2020-10-29T19:39:27:233
-32,900002	0,840000	44,590000	2020-10-29T19:39:27:258
-41,720001	-3,710000	49,700001	2020-10-29T19:39:27:275
-51,939999	-4,340000	51,029999	2020-10-29T19:39:27:299
-61,389999	0,210000	51,099998	2020-10-29T19:39:27:316
-70,840004	4,690000	51,520000	2020-10-29T19:39:27:340
-79,029999	5,320000	53,900002	2020-10-29T19:39:27:355
-83,440002	2,800000	58,380001	2020-10-29T19:39:27:379
-89,739998	-3,850000	63,209999	2020-10-29T19:39:27:395
-94,080002	-3,780000	59,779999	2020-10-29T19:39:27:419
-93,099998	-2,870000	51,029999	2020-10-29T19:39:27:435
-80,080002	-2,660000	39,619999	2020-10-29T19:39:27:460
-60,900002	0,210000	27,230000	2020-10-29T19:39:27:475
-43,680000	5,390000	15,050000	2020-10-29T19:39:27:499
-29,540001	8,680000	4,970000	2020-10-29T19:39:27:515
-17,360001	7,840000	-0,420000	2020-10-29T19:39:27:538
-9,170000	4,200000	-2,170000	2020-10-29T19:39:27:555
-7,420000	1,330000	-2,030000	2020-10-29T19:39:27:579
-10,640000	-1,750000	-2,170000	2020-10-29T19:39:27:595
-15,330000	-4,690000	-2,730000	2020-10-29T19:39:27:618
-20,719999	-5,880000	-3,850000	2020-10-29T19:39:27:635
-27,370001	-6,650000	-6,300000	2020-10-29T19:39:27:659
-31,639999	-7,490000	-9,800000	2020-10-29T19:39:27:676
-31,780001	-6,510000	-12,950000	2020-10-29T19:39:27:699
-30,030001	-4,060000	-14,770000	2020-10-29T19:39:27:715
-25,410000	-1,680000	-15,680000	2020-10-29T19:39:27:739
-16,590000	1,330000	-15,610000	2020-10-29T19:39:27:756
-5,320000	3,780000	-14,280000	2020-10-29T19:39:27:779
5,040000	5,320000	-12,530000	2020-10-29T19:39:27:795
14,210000	8,190000	-11,620000	2020-10-29T19:39:27:819
19,879999	10,640000	-11,970000	2020-10-29T19:39:27:835
20,510000	9,660000	-12,390000	2020-10-29T19:39:27:859
21,210001	9,450000	-12,740000	2020-10-29T19:39:27:875
24,290001	9,590000	-13,370000	2020-10-29T19:39:27:899
29,120001	8,820000	-13,580000	2020-10-29T19:39:27:915
34,020000	7,980000	-12,950000	2020-10-29T19:39:27:940
38,220001	6,300000	-11,550000	2020-10-29T19:39:27:956
41,230000	3,850000	-9,870000	2020-10-29T19:39:27:980
42,070000	1,890000	-8,330000	2020-10-29T19:39:27:996
40,180000	0,770000	-7,420000	2020-10-29T19:39:28:019
37,939999	0,140000	-6,790000	2020-10-29T19:39:28:036
37,099998	0,280000	-6,230000	2020-10-29T19:39:28:060
38,290001	0,910000	-6,160000	2020-10-29T19:39:28:076
42,700001	1,470000	-6,020000	2020-10-29T19:39:28:098
50,610001	2,520000	-6,370000	2020-10-29T19:39:28:116
60,270000	2,660000	-6,790000	2020-10-29T19:39:28:140
71,750000	2,240000	-6,720000	2020-10-29T19:39:28:156
82,879997	0,420000	-5,810000	2020-10-29T19:39:28:180
90,440002	-2,030000	-6,090000	2020-10-29T19:39:28:196
94,150002	-4,200000	-7,420000	2020-10-29T19:39:28:220
94,220001	-5,530000	-9,520000	2020-10-29T19:39:28:236
90,860001	-6,300000	-11,900000	2020-10-29T19:39:28:259
84,769997	-7,350000	-13,860000	2020-10-29T19:39:28:276
81,059998	-7,840000	-15,890000	2020-10-29T19:39:28:300
83,090004	-7,700000	-16,940001	2020-10-29T19:39:28:316
88,760002	-7,560000	-17,219999	2020-10-29T19:39:28:339
95,199997	-6,860000	-16,309999	2020-10-29T19:39:28:357
102,900002	-5,180000	-16,100000	2020-10-29T19:39:28:381
112,000000	-2,100000	-16,940001	2020-10-29T19:39:28:396
121,590004	0,980000	-17,500000	2020-10-29T19:39:28:420
130,550003	1,890000	-16,870001	2020-10-29T19:39:28:436
137,550003	0,140000	-16,030001	2020-10-29T19:39:28:461
138,389999	-2,450000	-13,930000	2020-10-29T19:39:28:476
133,979996	-3,290000	-10,570000	2020-10-29T19:39:28:499
129,360001	-4,620000	-6,510000	2020-10-29T19:39:28:516
123,620003	-6,300000	-3,150000	2020-10-29T19:39:28:540
113,400002	-8,610000	-0,490000	2020-10-29T19:39:28:557
101,360001	-9,380000	1,680000	2020-10-29T19:39:28:579
91,980003	-10,780000	3,710000	2020-10-29T19:39:28:596
85,400002	-13,440001	3,920000	2020-10-29T19:39:28:620
81,059998	-15,050000	3,080000	2020-10-29T19:39:28:636
79,029999	-17,219999	0,700000	2020-10-29T19:39:28:662
80,080002	-20,440001	-4,060000	2020-10-29T19:39:28:676
80,989998	-24,360001	-11,060000	2020-10-29T19:39:28:700
80,150002	-26,389999	-19,600000	2020-10-29T19:39:28:716
78,610001	-28,420000	-29,120001	2020-10-29T19:39:28:739
75,320000	-32,060001	-39,689999	2020-10-29T19:39:28:756
68,739998	-35,349998	-49,490002	2020-10-29T19:39:28:780
56,910000	-38,990002	-59,080002	2020-10-29T19:39:28:796
41,509998	-41,580002	-68,599998	2020-10-29T19:39:28:819
26,389999	-41,509998	-77,840004	2020-10-29T19:39:28:836
18,059999	-38,779999	-85,889999	2020-10-29T19:39:28:861
15,960000	-34,650002	-92,820000	2020-10-29T19:39:28:876
17,080000	-29,049999	-98,070000	2020-10-29T19:39:28:901
22,049999	-23,100000	-99,260002	2020-10-29T19:39:28:916
28,000000	-17,080000	-97,019997	2020-10-29T19:39:28:940
33,529999	-10,430000	-92,540001	2020-10-29T19:39:28:957
39,200001	-3,290000	-87,080002	2020-10-29T19:39:28:980
44,939999	5,670000	-81,340004	2020-10-29T19:39:28:996
49,700001	14,910000	-75,110001	2020-10-29T19:39:29:021
54,670002	21,490000	-68,110001	2020-10-29T19:39:29:037
59,290001	28,000000	-60,970001	2020-10-29T19:39:29:060
62,510002	36,049999	-54,529999	2020-10-29T19:39:29:077
66,290001	45,570000	-48,439999	2020-10-29T19:39:29:101
72,800003	55,510002	-41,439999	2020-10-29T19:39:29:117
83,510002	64,120003	-31,710001	2020-10-29T19:39:29:140
92,470001	71,050003	-18,410000	2020-10-29T19:39:29:157
92,680000	77,070000	-1,470000	2020-10-29T19:39:29:181
89,459999	80,150002	16,590000	2020-10-29T19:39:29:197
84,139999	80,080002	33,389999	2020-10-29T19:39:29:220
73,709999	79,379997	46,689999	2020-10-29T19:39:29:237
59,010002	80,010002	52,990002	2020-10-29T19:39:29:261
52,570000	78,680000	51,170002	2020-10-29T19:39:29:277
59,360001	76,790001	44,730000	2020-10-29T19:39:29:300
69,860001	76,510002	36,470001	2020-10-29T19:39:29:317
78,610001	73,150002	29,330000	2020-10-29T19:39:29:341
87,430000	66,709999	25,200001	2020-10-29T19:39:29:357
90,370003	56,770000	22,190001	2020-10-29T19:39:29:381
80,639999	44,099998	22,400000	2020-10-29T19:39:29:397
56,279999	32,900002	21,700001	2020-10-29T19:39:29:421
21,350000	26,110001	15,400000	2020-10-29T19:39:29:437
-5,250000	21,210001	6,020000	2020-10-29T19:39:29:462
-17,080000	15,260000	-4,060000	2020-10-29T19:39:29:477
-23,520000	10,150000	-13,230000	2020-10-29T19:39:29:500
-26,809999	8,540000	-20,930000	2020-10-29T19:39:29:517
-23,100000	8,960000	-25,760000	2020-10-29T19:39:29:540
-12,950000	9,660000	-27,930000	2020-10-29T19:39:29:557
6,230000	10,780000	-26,600000	2020-10-29T19:39:29:581
17,219999	10,780000	-23,940001	2020-10-29T19:39:29:597
25,900000	11,970000	-20,790001	2020-10-29T19:39:29:622
32,270000	12,880000	-17,639999	2020-10-29T19:39:29:637
35,980000	14,140000	-14,140000	2020-10-29T19:39:29:661
37,240002	16,379999	-10,500000	2020-10-29T19:39:29:677
37,590000	19,110001	-6,860000	2020-10-29T19:39:29:700
38,080002	21,280001	-2,940000	2020-10-29T19:39:29:717
39,759998	23,450001	1,120000	2020-10-29T19:39:29:741
42,209999	26,530001	5,460000	2020-10-29T19:39:29:758
45,009998	28,770000	10,360000	2020-10-29T19:39:29:780
46,759998	29,049999	15,400000	2020-10-29T19:39:29:797
45,990002	27,790001	20,580000	2020-10-29T19:39:29:821
43,189999	25,969999	26,530001	2020-10-29T19:39:29:837
38,990002	24,150000	32,619999	2020-10-29T19:39:29:861
35,840000	23,240000	38,500000	2020-10-29T19:39:29:886
35,000000	20,020000	43,680000	2020-10-29T19:39:29:911
35,139999	14,700000	48,090000	2020-10-29T19:39:29:920
32,970001	10,220000	51,590000	2020-10-29T19:39:29:940
30,030001	7,980000	53,760002	2020-10-29T19:39:29:957
26,670000	5,460000	54,880001	2020-10-29T19:39:29:982
22,400000	1,820000	54,320000	2020-10-29T19:39:29:997
17,010000	-1,330000	51,310001	2020-10-29T19:39:30:020
9,660000	-5,600000	44,029999	2020-10-29T19:39:30:038
2,310000	-6,790000	30,450001	2020-10-29T19:39:30:062
3,290000	-6,720000	13,860000	2020-10-29T19:39:30:078
16,240000	-7,700000	-3,850000	2020-10-29T19:39:30:101
37,380001	-8,540000	-22,680000	2020-10-29T19:39:30:117
62,580002	-11,340000	-39,549999	2020-10-29T19:39:30:142
88,550003	-16,030001	-53,480000	2020-10-29T19:39:30:158
107,099998	-20,860001	-64,750000	2020-10-29T19:39:30:181
113,889999	-27,580000	-72,660004	2020-10-29T19:39:30:197
111,580002	-35,279999	-76,300003	2020-10-29T19:39:30:222
99,540001	-41,160000	-75,669998	2020-10-29T19:39:30:237
80,779999	-44,939999	-70,699997	2020-10-29T19:39:30:261
60,970001	-48,230000	-62,930000	2020-10-29T19:39:30:278
44,310001	-53,619999	-54,529999	2020-10-29T19:39:30:302
31,570000	-60,900002	-47,459999	2020-10-29T19:39:30:317
21,139999	-62,930000	-41,650002	2020-10-29T19:39:30:342
10,010000	-60,760002	-37,869999	2020-10-29T19:39:30:358
-3,500000	-61,040001	-37,730000	2020-10-29T19:39:30:382
-16,520000	-68,040001	-42,000000	2020-10-29T19:39:30:398
-32,270000	-77,559998	-52,990002	2020-10-29T19:39:30:421
-54,459999	-85,540001	-72,029999	2020-10-29T19:39:30:437
-71,889999	-88,269997	-98,629997	2020-10-29T19:39:30:463
-76,090004	-82,459999	-126,209999	2020-10-29T19:39:30:478
-64,400002	-68,809998	-146,509995	2020-10-29T19:39:30:500
-38,709999	-56,910000	-156,169998	2020-10-29T19:39:30:518
-6,580000	-50,470001	-154,979996	2020-10-29T19:39:30:542
17,710001	-44,450001	-146,089996	2020-10-29T19:39:30:558
31,990000	-34,020000	-128,240005	2020-10-29T19:39:30:582
41,580002	-17,710001	-99,050003	2020-10-29T19:39:30:598
43,610001	3,220000	-60,060001	2020-10-29T19:39:30:622
39,900002	26,880001	-17,360001	2020-10-29T19:39:30:638
41,439999	57,260002	38,709999	2020-10-29T19:39:30:662
47,810001	67,129997	62,860001	2020-10-29T19:39:30:678
62,369999	74,620003	73,010002	2020-10-29T19:39:30:702
117,250000	84,769997	72,870003	2020-10-29T19:39:30:718
170,380005	93,730003	53,830002	2020-10-29T19:39:30:741
185,639999	100,379997	43,470001	2020-10-29T19:39:30:759
185,500000	94,150002	46,340000	2020-10-29T19:39:30:783
150,500000	85,260002	51,240002	2020-10-29T19:39:30:799
96,180000	78,959999	58,170002	2020-10-29T19:39:30:823
39,619999	75,040001	63,840000	2020-10-29T19:39:30:838
-13,650000	72,800003	68,180000	2020-10-29T19:39:30:863
-55,299999	68,599998	66,150002	2020-10-29T19:39:30:879
-59,430000	63,840000	60,480000	2020-10-29T19:39:30:901
-31,010000	58,099998	54,040001	2020-10-29T19:39:30:918
10,220000	50,119999	42,490002	2020-10-29T19:39:30:943
35,349998	42,420002	27,580000	2020-10-29T19:39:30:959
49,630001	36,330002	14,420000	2020-10-29T19:39:30:982
73,639999	30,870001	1,330000	2020-10-29T19:39:30:999
92,330002	28,910000	-13,580000	2020-10-29T19:39:31:023
82,949997	29,610001	-24,780001	2020-10-29T19:39:31:039
54,810001	32,970001	-26,670000	2020-10-29T19:39:31:063
30,030001	35,700001	-21,350000	2020-10-29T19:39:31:079
25,549999	32,410000	-15,260000	2020-10-29T19:39:31:103
27,650000	27,299999	-9,660000	2020-10-29T19:39:31:119
28,980000	26,809999	-7,070000	2020-10-29T19:39:31:142
38,290001	25,969999	-9,590000	2020-10-29T19:39:31:159
55,090000	24,430000	-17,920000	2020-10-29T19:39:31:183
73,290001	24,500000	-26,110001	2020-10-29T19:39:31:199
89,180000	24,080000	-29,889999	2020-10-29T19:39:31:222
100,590004	20,020000	-31,990000	2020-10-29T19:39:31:239
110,110001	15,050000	-35,000000	2020-10-29T19:39:31:263
112,629997	11,900000	-34,720001	2020-10-29T19:39:31:279
106,680000	7,350000	-33,110001	2020-10-29T19:39:31:303
94,150002	1,050000	-32,130001	2020-10-29T19:39:31:319
72,449997	-6,230000	-33,180000	2020-10-29T19:39:31:343
45,290001	-11,830000	-36,470001	2020-10-29T19:39:31:359
21,490000	-16,660000	-40,180000	2020-10-29T19:39:31:382
4,270000	-20,230000	-45,639999	2020-10-29T19:39:31:399
-7,070000	-19,740000	-52,360001	2020-10-29T19:39:31:423
-13,720000	-17,920000	-59,150002	2020-10-29T19:39:31:439
-17,290001	-15,120000	-64,400002	2020-10-29T19:39:31:462
-17,850000	-12,040000	-67,129997	2020-10-29T19:39:31:479
-15,400000	-8,960000	-67,199997	2020-10-29T19:39:31:503
-10,080000	-4,480000	-65,099998	2020-10-29T19:39:31:519
-1,610000	0,420000	-60,619999	2020-10-29T19:39:31:543
9,520000	5,530000	-54,740002	2020-10-29T19:39:31:560
19,180000	8,820000	-48,020000	2020-10-29T19:39:31:583
26,880001	12,180000	-41,439999	2020-10-29T19:39:31:599
35,630001	17,710001	-33,250000	2020-10-29T19:39:31:622
41,930000	19,389999	-24,290001	2020-10-29T19:39:31:639
43,959999	19,320000	-15,190001	2020-10-29T19:39:31:664
30,380001	24,010000	-10,640000	2020-10-29T19:39:31:679
11,550000	29,960001	0,630000	2020-10-29T19:39:31:702
-9,380000	31,850000	17,710001	2020-10-29T19:39:31:720
-50,959999	30,799999	33,320000	2020-10-29T19:39:31:743
1,960000	27,440001	46,970001	2020-10-29T19:39:31:760
56,349998	22,049999	40,740002	2020-10-29T19:39:31:784
75,459999	16,730000	31,639999	2020-10-29T19:39:31:799
74,690002	14,980000	24,080000	2020-10-29T19:39:31:823
74,410004	14,560000	19,110001	2020-10-29T19:39:31:840
62,369999	16,100000	11,900000	2020-10-29T19:39:31:862
28,910000	18,969999	0,350000	2020-10-29T19:39:31:880
-3,570000	23,660000	-5,180000	2020-10-29T19:39:31:903
-25,830000	22,889999	-8,050000	2020-10-29T19:39:31:919
-15,680000	15,820000	-11,060000	2020-10-29T19:39:31:942
32,549999	20,719999	-7,910000	2020-10-29T19:39:31:960
66,709999	29,120001	-10,150000	2020-10-29T19:39:31:984
64,540001	32,549999	-12,390000	2020-10-29T19:39:32:000
70,209999	31,710001	-11,690000	2020-10-29T19:39:32:024
120,750000	21,910000	-14,700000	2020-10-29T19:39:32:040
130,970001	1,260000	-33,740002	2020-10-29T19:39:32:064
-18,549999	-0,980000	-66,430000	2020-10-29T19:39:32:081
-33,320000	-15,190001	-67,830002	2020-10-29T19:39:32:103
-14,280000	-91,070000	-17,920000	2020-10-29T19:39:32:120
-44,170002	-61,320000	-32,060001	2020-10-29T19:39:32:148
-102,620003	-76,930000	-43,959999	2020-10-29T19:39:32:160
-105,279999	-75,879997	-59,360001	2020-10-29T19:39:32:184
-42,349998	-59,639999	-67,269997	2020-10-29T19:39:32:200
22,330000	-39,830002	-73,779999	2020-10-29T19:39:32:224
37,170002	-41,509998	-81,760002	2020-10-29T19:39:32:240
25,690001	-47,040001	-85,889999	2020-10-29T19:39:32:264
-1,960000	-42,070000	-81,199997	2020-10-29T19:39:32:280
-23,309999	-33,950001	-77,419998	2020-10-29T19:39:32:304
-23,030001	-28,980000	-75,250000	2020-10-29T19:39:32:320
-24,150000	-26,320000	-75,809998	2020-10-29T19:39:32:343
-30,100000	-21,420000	-69,160004	2020-10-29T19:39:32:360
-20,650000	-15,820000	-62,930000	2020-10-29T19:39:32:385
-0,490000	-14,910000	-62,299999	2020-10-29T19:39:32:400
16,379999	-16,730000	-64,330002	2020-10-29T19:39:32:423
27,160000	-21,559999	-61,529999	2020-10-29T19:39:32:441
23,240000	-26,250000	-58,869999	2020-10-29T19:39:32:465
25,690001	-33,180000	-54,950001	2020-10-29T19:39:32:481
27,580000	-42,770000	-50,610001	2020-10-29T19:39:32:504
25,900000	-52,500000	-46,970001	2020-10-29T19:39:32:520
21,700001	-62,020000	-44,869999	2020-10-29T19:39:32:544
18,830000	-74,129997	-45,570000	2020-10-29T19:39:32:561
22,330000	-86,940002	-48,299999	2020-10-29T19:39:32:584
28,070000	-95,410004	-55,299999	2020-10-29T19:39:32:600
34,930000	-104,370003	-61,389999	2020-10-29T19:39:32:624
36,540001	-115,150002	-67,199997	2020-10-29T19:39:32:641
38,990002	-128,100006	-69,510002	2020-10-29T19:39:32:664
37,450001	-140,070007	-71,540001	2020-10-29T19:39:32:681
46,340000	-144,970001	-70,279999	2020-10-29T19:39:32:705
61,880001	-145,949997	-62,930000	2020-10-29T19:39:32:721
62,720001	-144,339996	-52,150002	2020-10-29T19:39:32:744
55,090000	-139,300003	-41,160000	2020-10-29T19:39:32:761
46,130001	-132,300003	-34,090000	2020-10-29T19:39:32:785
40,950001	-121,590004	-31,920000	2020-10-29T19:39:32:801
27,719999	-106,330002	-29,120001	2020-10-29T19:39:32:824
15,890000	-82,320000	-30,170000	2020-10-29T19:39:32:841
18,340000	-65,379997	-32,830002	2020-10-29T19:39:32:865
28,350000	-51,939999	-36,750000	2020-10-29T19:39:32:881
44,029999	-43,680000	-37,590000	2020-10-29T19:39:32:903
40,810001	-35,420002	-39,619999	2020-10-29T19:39:32:921
29,610001	-33,389999	-42,770000	2020-10-29T19:39:32:945
29,960001	-37,170002	-45,709999	2020-10-29T19:39:32:961
26,180000	-43,750000	-43,610001	2020-10-29T19:39:32:985
18,059999	-47,459999	-35,279999	2020-10-29T19:39:33:001
-20,790001	-49,000000	-27,440001	2020-10-29T19:39:33:025
-74,059998	-48,230000	-23,450001	2020-10-29T19:39:33:041
-101,500000	-45,779999	-22,190001	2020-10-29T19:39:33:064
-84,000000	-39,970001	-25,410000	2020-10-29T19:39:33:081
-26,809999	-30,309999	-30,730000	2020-10-29T19:39:33:105
35,070000	-19,389999	-34,930000	2020-10-29T19:39:33:121
60,830002	-4,900000	-38,290001	2020-10-29T19:39:33:144
61,180000	5,530000	-38,709999	2020-10-29T19:39:33:161
49,349998	12,390000	-35,070000	2020-10-29T19:39:33:184
30,590000	16,240000	-27,230000	2020-10-29T19:39:33:201
12,740000	15,750000	-22,330000	2020-10-29T19:39:33:226
2,170000	18,200001	-14,910000	2020-10-29T19:39:33:241
-7,630000	18,620001	-13,790000	2020-10-29T19:39:33:264
8,330000	22,330000	-14,630000	2020-10-29T19:39:33:281
22,889999	27,580000	-14,210000	2020-10-29T19:39:33:304
19,040001	33,950001	-13,160000	2020-10-29T19:39:33:321
1,540000	39,689999	-13,510000	2020-10-29T19:39:33:345
-8,260000	43,470001	-12,390000	2020-10-29T19:39:33:361
4,620000	43,330002	-10,920000	2020-10-29T19:39:33:384
34,930000	42,000000	-10,780000	2020-10-29T19:39:33:401
50,750000	42,209999	-11,760000	2020-10-29T19:39:33:424
40,740002	41,439999	-10,010000	2020-10-29T19:39:33:441
26,460001	40,389999	-2,730000	2020-10-29T19:39:33:465
16,030001	38,849998	2,800000	2020-10-29T19:39:33:481
11,830000	37,939999	4,130000	2020-10-29T19:39:33:505
7,000000	38,430000	6,580000	2020-10-29T19:39:33:521
2,660000	42,420002	8,890000	2020-10-29T19:39:33:544
-5,950000	51,869999	14,560000	2020-10-29T19:39:33:561
-27,510000	64,750000	19,530001	2020-10-29T19:39:33:586
-58,170002	77,419998	24,710001	2020-10-29T19:39:33:601
-100,660004	85,190002	31,360001	2020-10-29T19:39:33:625
-126,070000	88,550003	38,849998	2020-10-29T19:39:33:641
-106,330002	91,559998	51,240002	2020-10-29T19:39:33:666
-94,989998	96,180000	63,700001	2020-10-29T19:39:33:682
-110,809998	104,160004	75,949997	2020-10-29T19:39:33:706
-70,279999	100,940002	63,279999	2020-10-29T19:39:33:722
-48,650002	66,290001	57,610001	2020-10-29T19:39:33:745
-58,099998	50,049999	73,290001	2020-10-29T19:39:33:761
-64,820000	22,750000	98,209999	2020-10-29T19:39:33:784
-80,989998	23,660000	101,709999	2020-10-29T19:39:33:802
-80,290001	57,119999	76,720001	2020-10-29T19:39:33:826
-24,990000	85,959999	59,150002	2020-10-29T19:39:33:842
-36,119999	79,590004	61,950001	2020-10-29T19:39:33:865
-63,000000	55,299999	68,879997	2020-10-29T19:39:33:882
-119,070000	50,540001	75,599998	2020-10-29T19:39:33:904
-56,700001	57,820000	77,489998	2020-10-29T19:39:33:921
-39,759998	44,520000	91,000000	2020-10-29T19:39:33:946
-63,349998	28,980000	100,239998	2020-10-29T19:39:33:961
-89,180000	25,830000	110,250000	2020-10-29T19:39:33:986
-32,340000	22,820000	117,320000	2020-10-29T19:39:34:002
-11,200000	28,070000	125,720001	2020-10-29T19:39:34:025
-30,660000	28,000000	131,250000	2020-10-29T19:39:34:042
-52,849998	29,889999	135,449997	2020-10-29T19:39:34:068
-73,709999	35,349998	140,210007	2020-10-29T19:39:34:082
-79,449997	39,130001	141,050003	2020-10-29T19:39:34:105
-76,230003	48,160000	143,779999	2020-10-29T19:39:34:122
-74,410004	56,560001	148,119995	2020-10-29T19:39:34:148
-54,740002	56,279999	148,119995	2020-10-29T19:39:34:162
-17,570000	48,509998	141,539993	2020-10-29T19:39:34:188
10,360000	35,630001	128,169998	2020-10-29T19:39:34:201
33,250000	17,219999	108,290001	2020-10-29T19:39:34:228
73,709999	1,540000	89,320000	2020-10-29T19:39:34:242
58,520000	-16,030001	58,170002	2020-10-29T19:39:34:266
19,110001	-34,439999	21,350000	2020-10-29T19:39:34:282
-6,650000	-53,410000	-11,690000	2020-10-29T19:39:34:307
-12,740000	-65,169998	-38,570000	2020-10-29T19:39:34:322
-18,410000	-81,059998	-52,570000	2020-10-29T19:39:34:346
-60,480000	-96,110001	-52,430000	2020-10-29T19:39:34:362
-122,010002	-102,059998	-40,320000	2020-10-29T19:39:34:387
-177,520004	-113,680000	-29,820000	2020-10-29T19:39:34:402
-226,449997	-119,699997	-21,280001	2020-10-29T19:39:34:427
-244,649994	-122,709999	-11,130000	2020-10-29T19:39:34:442
-241,850006	-123,830002	3,710000	2020-10-29T19:39:34:467
-232,960007	-121,239998	14,840000	2020-10-29T19:39:34:483
-204,539993	-121,169998	28,139999	2020-10-29T19:39:34:506
-172,550003	-120,470001	43,330002	2020-10-29T19:39:34:522
-150,850006	-115,430000	54,880001	2020-10-29T19:39:34:547
-124,389999	-107,870003	70,349998	2020-10-29T19:39:34:562
-104,860001	-95,059998	86,029999	2020-10-29T19:39:34:586
-95,620003	-84,419998	102,340004	2020-10-29T19:39:34:602
-90,790001	-70,910004	119,000000	2020-10-29T19:39:34:626
-85,190002	-54,599998	134,889999	2020-10-29T19:39:34:642
-84,489998	-36,680000	143,990005	2020-10-29T19:39:34:667
-94,849998	-17,570000	152,389999	2020-10-29T19:39:34:682
-109,620003	2,940000	163,589996	2020-10-29T19:39:34:706
-124,389999	16,309999	172,339996	2020-10-29T19:39:34:723
-132,229996	21,000000	175,910004	2020-10-29T19:39:34:745
-127,820000	26,740000	176,750000	2020-10-29T19:39:34:764
-107,590004	39,689999	176,889999	2020-10-29T19:39:34:787
-74,830002	45,080002	175,630005	2020-10-29T19:39:34:802
-37,939999	37,450001	171,850006	2020-10-29T19:39:34:824
-11,410000	21,210001	163,800003	2020-10-29T19:39:34:842
3,220000	13,860000	145,320007	2020-10-29T19:39:34:867
19,879999	12,740000	115,639999	2020-10-29T19:39:34:883
48,020000	16,030001	76,930000	2020-10-29T19:39:34:907
83,930000	24,780001	36,119999	2020-10-29T19:39:34:922
111,020004	29,260000	4,830000	2020-10-29T19:39:34:946
112,349998	24,150000	-17,990000	2020-10-29T19:39:34:963
99,400002	17,360001	-33,599998	2020-10-29T19:39:34:986
70,910004	11,060000	-43,540001	2020-10-29T19:39:35:002
50,959999	1,960000	-44,310001	2020-10-29T19:39:35:027
36,259998	-7,210000	-40,599998	2020-10-29T19:39:35:043
23,590000	-10,080000	-35,000000	2020-10-29T19:39:35:066
7,490000	-10,290000	-30,030001	2020-10-29T19:39:35:083
-5,880000	-10,430000	-26,740000	2020-10-29T19:39:35:107
-11,970000	-9,590000	-24,080000	2020-10-29T19:39:35:123
-13,160000	-8,960000	-21,980000	2020-10-29T19:39:35:147
-10,220000	-9,310000	-22,400000	2020-10-29T19:39:35:163
-2,100000	-9,520000	-27,160000	2020-10-29T19:39:35:187
10,710000	-9,030000	-35,420002	2020-10-29T19:39:35:203
26,530001	-8,260000	-45,080002	2020-10-29T19:39:35:226
43,540001	-8,400000	-55,090000	2020-10-29T19:39:35:243
58,660000	-10,360000	-63,070000	2020-10-29T19:39:35:269
69,790001	-13,580000	-69,090004	2020-10-29T19:39:35:283
75,320000	-17,150000	-72,590004	2020-10-29T19:39:35:306
76,440002	-20,580000	-73,779999	2020-10-29T19:39:35:323
75,180000	-23,940001	-72,940002	2020-10-29T19:39:35:346
69,440002	-24,990000	-69,090004	2020-10-29T19:39:35:363
60,130001	-24,430000	-65,519997	2020-10-29T19:39:35:387
51,170002	-23,450001	-59,010002	2020-10-29T19:39:35:403
41,369999	-21,490000	-50,400002	2020-10-29T19:39:35:427
32,340000	-18,410000	-40,459999	2020-10-29T19:39:35:443
25,129999	-16,520000	-30,520000	2020-10-29T19:39:35:466
21,210001	-15,750000	-22,120001	2020-10-29T19:39:35:483
20,299999	-15,680000	-15,330000	2020-10-29T19:39:35:507
22,469999	-15,120000	-10,360000	2020-10-29T19:39:35:523
22,120001	-11,690000	-6,300000	2020-10-29T19:39:35:546
17,710001	-3,010000	1,120000	2020-10-29T19:39:35:563
12,530000	-6,440000	9,100000	2020-10-29T19:39:35:588
4,340000	-11,830000	14,210000	2020-10-29T19:39:35:603
-4,410000	-5,810000	16,730000	2020-10-29T19:39:35:627
-9,450000	-2,940000	16,660000	2020-10-29T19:39:35:643
-21,629999	0,070000	26,250000	2020-10-29T19:39:35:667
-44,799999	-0,700000	27,299999	2020-10-29T19:39:35:684
-67,830002	1,680000	31,010000	2020-10-29T19:39:35:706
-73,010002	2,100000	33,459999	2020-10-29T19:39:35:723
-63,840000	1,680000	32,759998	2020-10-29T19:39:35:747
-44,099998	-3,150000	31,570000	2020-10-29T19:39:35:764
-19,600000	-8,400000	30,030001	2020-10-29T19:39:35:787
-10,010000	-14,350000	29,750000	2020-10-29T19:39:35:804
-15,400000	-19,809999	28,350000	2020-10-29T19:39:35:827
-29,400000	-22,049999	29,540001	2020-10-29T19:39:35:843
-54,459999	-22,610001	29,820000	2020-10-29T19:39:35:868
-86,940002	-21,770000	28,000000	2020-10-29T19:39:35:884
-109,059998	-16,660000	21,980000	2020-10-29T19:39:35:908
-116,620003	-8,120000	14,770000	2020-10-29T19:39:35:924
-111,160004	2,800000	9,520000	2020-10-29T19:39:35:946
-96,250000	12,180000	9,310000	2020-10-29T19:39:35:964
-76,860001	19,250000	14,350000	2020-10-29T19:39:35:988
-60,410000	25,410000	22,330000	2020-10-29T19:39:36:004
-50,750000	30,940001	32,549999	2020-10-29T19:39:36:027
-46,270000	35,139999	43,680000	2020-10-29T19:39:36:044
-49,349998	38,290001	53,970001	2020-10-29T19:39:36:068
-67,199997	46,480000	62,369999	2020-10-29T19:39:36:084
-76,720001	54,040001	63,000000	2020-10-29T19:39:36:108
-73,570000	61,110001	61,180000	2020-10-29T19:39:36:124
-63,420002	65,029999	56,420002	2020-10-29T19:39:36:147
-48,230000	66,080002	49,139999	2020-10-29T19:39:36:164
-28,139999	65,379997	41,369999	2020-10-29T19:39:36:188
-9,380000	61,880001	33,389999	2020-10-29T19:39:36:204
4,200000	57,330002	25,340000	2020-10-29T19:39:36:228
6,930000	52,500000	17,570000	2020-10-29T19:39:36:244
1,750000	46,340000	8,680000	2020-10-29T19:39:36:266
-4,550000	38,080002	1,050000	2020-10-29T19:39:36:284
-13,650000	33,529999	-4,900000	2020-10-29T19:39:36:308
-13,020000	29,540001	-9,590000	2020-10-29T19:39:36:324
-9,100000	17,219999	-8,540000	2020-10-29T19:39:36:348
-14,070000	10,010000	-7,000000	2020-10-29T19:39:36:364
-21,840000	-2,800000	-5,110000	2020-10-29T19:39:36:388
-25,200001	-25,969999	-13,580000	2020-10-29T19:39:36:404
-18,549999	-38,500000	-29,889999	2020-10-29T19:39:36:427
-5,040000	-41,860001	-43,889999	2020-10-29T19:39:36:444
11,760000	-45,849998	-54,950001	2020-10-29T19:39:36:468
25,059999	-55,720001	-63,070000	2020-10-29T19:39:36:485
28,280001	-70,840004	-64,750000	2020-10-29T19:39:36:507
28,559999	-88,410004	-64,540001	2020-10-29T19:39:36:524
14,140000	-106,190002	-63,279999	2020-10-29T19:39:36:548
-4,900000	-115,849998	-59,500000	2020-10-29T19:39:36:564
-24,639999	-117,879997	-58,939999	2020-10-29T19:39:36:588
-43,680000	-118,230003	-58,660000	2020-10-29T19:39:36:604
-55,090000	-114,099998	-62,580002	2020-10-29T19:39:36:628
-55,439999	-112,840004	-62,299999	2020-10-29T19:39:36:644
-56,070000	-111,300003	-62,160000	2020-10-29T19:39:36:666
-54,389999	-106,540001	-60,060001	2020-10-29T19:39:36:685
-44,029999	-99,190002	-54,810001	2020-10-29T19:39:36:709
-31,219999	-89,529999	-46,480000	2020-10-29T19:39:36:724
-22,400000	-81,620003	-34,369999	2020-10-29T19:39:36:747
-16,870001	-76,650002	-21,000000	2020-10-29T19:39:36:764
-18,129999	-71,750000	-8,960000	2020-10-29T19:39:36:789
-22,330000	-63,910000	1,680000	2020-10-29T19:39:36:804
-27,020000	-53,760002	10,990000	2020-10-29T19:39:36:828
-31,850000	-42,700001	15,820000	2020-10-29T19:39:36:844
-29,680000	-28,700001	22,750000	2020-10-29T19:39:36:869
-23,100000	-15,820000	30,870001	2020-10-29T19:39:36:887
-18,969999	-6,720000	40,670002	2020-10-29T19:39:36:911
-16,309999	2,030000	51,310001	2020-10-29T19:39:36:925
-14,490000	11,550000	62,930000	2020-10-29T19:39:36:950
-15,610000	21,280001	73,989998	2020-10-29T19:39:36:965
-18,620001	31,010000	84,419998	2020-10-29T19:39:36:987
-22,190001	40,250000	94,919998	2020-10-29T19:39:37:005
-26,809999	48,650002	105,980003	2020-10-29T19:39:37:029
-33,110001	54,389999	116,690002	2020-10-29T19:39:37:045
-42,209999	56,770000	126,699997	2020-10-29T19:39:37:069
-61,670002	68,739998	139,229996	2020-10-29T19:39:37:085
-87,639999	81,199997	154,910004	2020-10-29T19:39:37:109
-119,139999	70,070000	168,490005	2020-10-29T19:39:37:125
-152,389999	56,000000	175,279999	2020-10-29T19:39:37:153
-188,580002	49,980000	169,610001	2020-10-29T19:39:37:165
-189,699997	33,950001	146,649994	2020-10-29T19:39:37:189
-168,139999	29,540001	118,930000	2020-10-29T19:39:37:205
-138,110001	36,540001	95,340004	2020-10-29T19:39:37:228
-109,690002	35,700001	75,739998	2020-10-29T19:39:37:245
-84,000000	22,750000	59,080002	2020-10-29T19:39:37:268
-68,250000	9,870000	45,570000	2020-10-29T19:39:37:285
-70,980003	-1,820000	36,049999	2020-10-29T19:39:37:309
-101,500000	-15,050000	30,170000	2020-10-29T19:39:37:325
-146,649994	-28,070000	24,920000	2020-10-29T19:39:37:349
-189,910004	-43,119999	17,710001	2020-10-29T19:39:37:365
-223,300003	-56,770000	7,140000	2020-10-29T19:39:37:389
-245,139999	-71,610001	-3,780000	2020-10-29T19:39:37:405
-235,550003	-93,029999	-7,280000	2020-10-29T19:39:37:429
-230,020004	-101,010002	-8,540000	2020-10-29T19:39:37:470
-223,440002	-102,410004	-4,550000	2020-10-29T19:39:37:471
-207,619995	-95,830002	7,770000	2020-10-29T19:39:37:488
-184,309998	-83,090004	24,150000	2020-10-29T19:39:37:515
-159,320007	-68,320000	42,070000	2020-10-29T19:39:37:524
-130,199997	-54,110001	63,349998	2020-10-29T19:39:37:549
-91,980003	-42,630001	86,169998	2020-10-29T19:39:37:564
-58,799999	-34,020000	107,029999	2020-10-29T19:39:37:588
-44,869999	-23,450001	119,070000	2020-10-29T19:39:37:606
-35,980000	-12,180000	125,650002	2020-10-29T19:39:37:628
-24,850000	-0,140000	130,199997	2020-10-29T19:39:37:645
-16,940001	9,450000	130,690002	2020-10-29T19:39:37:669
-24,290001	15,470000	125,230003	2020-10-29T19:39:37:685
-43,889999	19,320000	115,500000	2020-10-29T19:39:37:708
-63,630001	21,350000	103,809998	2020-10-29T19:39:37:725
-70,070000	21,980000	87,849998	2020-10-29T19:39:37:749
-61,670002	22,190001	66,010002	2020-10-29T19:39:37:765
-45,220001	25,270000	42,490002	2020-10-29T19:39:37:790
-24,990000	30,170000	20,510000	2020-10-29T19:39:37:805
-4,410000	33,880001	0,560000	2020-10-29T19:39:37:829
13,230000	37,730000	-16,590000	2020-10-29T19:39:37:845
25,549999	49,490002	-29,400000	2020-10-29T19:39:37:869
41,230000	52,150002	-35,349998	2020-10-29T19:39:37:885
53,900002	44,310001	-40,670002	2020-10-29T19:39:37:909
61,320000	52,150002	-46,759998	2020-10-29T19:39:37:925
77,769997	52,360001	-53,130001	2020-10-29T19:39:37:948
106,400002	51,450001	-64,330002	2020-10-29T19:39:37:965
137,899994	60,060001	-77,070000	2020-10-29T19:39:37:989
179,199997	63,840000	-88,900002	2020-10-29T19:39:38:005
227,570007	62,650002	-103,669998	2020-10-29T19:39:38:028
269,640015	58,660000	-119,139999	2020-10-29T19:39:38:045
296,940002	47,880001	-136,919998	2020-10-29T19:39:38:069
322,000000	31,780001	-153,930008	2020-10-29T19:39:38:086
306,529999	4,900000	-176,750000	2020-10-29T19:39:38:108
234,430008	-24,430000	-196,699997	2020-10-29T19:39:38:125
149,100006	-34,439999	-201,740005	2020-10-29T19:39:38:149
71,330002	-19,530001	-201,669998	2020-10-29T19:39:38:165
22,540001	-3,430000	-202,440002	2020-10-29T19:39:38:188
11,760000	4,830000	-211,259995	2020-10-29T19:39:38:205
28,139999	12,390000	-212,100006	2020-10-29T19:39:38:229
48,090000	18,129999	-205,940002	2020-10-29T19:39:38:245
83,230003	24,570000	-198,520004	2020-10-29T19:39:38:270
110,739998	29,260000	-183,889999	2020-10-29T19:39:38:285
130,270004	33,599998	-165,550003	2020-10-29T19:39:38:309
136,360001	39,689999	-142,800003	2020-10-29T19:39:38:325
134,889999	45,430000	-116,760002	2020-10-29T19:39:38:348
134,610001	49,000000	-89,180000	2020-10-29T19:39:38:366
133,070007	49,770000	-60,060001	2020-10-29T19:39:38:390
128,660004	44,240002	-33,110001	2020-10-29T19:39:38:405
119,070000	34,580002	-8,820000	2020-10-29T19:39:38:428
99,120003	27,860001	13,580000	2020-10-29T19:39:38:446
70,629997	26,530001	35,139999	2020-10-29T19:39:38:470
41,790001	28,070000	53,830002	2020-10-29T19:39:38:486
22,190001	31,010000	67,900002	2020-10-29T19:39:38:509
14,210000	33,880001	75,739998	2020-10-29T19:39:38:525
14,070000	36,680000	80,430000	2020-10-29T19:39:38:550
13,160000	39,270000	84,629997	2020-10-29T19:39:38:566
9,800000	43,540001	89,459999	2020-10-29T19:39:38:589
4,900000	48,509998	94,639999	2020-10-29T19:39:38:606
-0,420000	52,360001	100,590004	2020-10-29T19:39:38:629
-6,860000	60,270000	108,779999	2020-10-29T19:39:38:646
-13,160000	66,570000	118,650002	2020-10-29T19:39:38:669
-15,680000	61,950001	126,980003	2020-10-29T19:39:38:686
-17,710001	60,270000	132,369995	2020-10-29T19:39:38:710
-19,460001	64,820000	134,610001	2020-10-29T19:39:38:726
-11,970000	60,689999	130,759995	2020-10-29T19:39:38:750
4,690000	51,450001	118,510002	2020-10-29T19:39:38:766
20,719999	46,830002	100,309998	2020-10-29T19:39:38:790
34,299999	44,590000	81,830002	2020-10-29T19:39:38:806
48,160000	46,060001	64,680000	2020-10-29T19:39:38:829
58,380001	48,580002	50,259998	2020-10-29T19:39:38:846
62,090000	47,040001	39,200001	2020-10-29T19:39:38:870
56,490002	37,520000	32,060001	2020-10-29T19:39:38:886
41,790001	27,230000	28,210001	2020-10-29T19:39:38:908
18,200001	18,340000	25,900000	2020-10-29T19:39:38:926
-13,020000	8,190000	21,770000	2020-10-29T19:39:38:950
-49,139999	-0,140000	14,560000	2020-10-29T19:39:38:966
-82,949997	-4,620000	5,180000	2020-10-29T19:39:38:990
-112,629997	-6,160000	-5,880000	2020-10-29T19:39:39:006
-134,960007	-4,060000	-17,080000	2020-10-29T19:39:39:030
-145,460007	1,470000	-27,090000	2020-10-29T19:39:39:046
-141,399994	8,610000	-34,580002	2020-10-29T19:39:39:069
-119,559998	15,680000	-39,130001	2020-10-29T19:39:39:086
-88,410004	22,049999	-41,299999	2020-10-29T19:39:39:110
-72,800003	25,690001	-42,279999	2020-10-29T19:39:39:126
-94,709999	26,040001	-43,119999	2020-10-29T19:39:39:149
-101,360001	35,000000	-36,470001	2020-10-29T19:39:39:166
-90,510002	41,090000	-43,400002	2020-10-29T19:39:39:191
-119,770004	42,279999	-66,709999	2020-10-29T19:39:39:206
-140,910004	43,470001	-74,970001	2020-10-29T19:39:39:231
-124,879997	46,970001	-69,019997	2020-10-29T19:39:39:246
-49,770000	49,700001	-38,500000	2020-10-29T19:39:39:271
22,820000	33,040001	-18,059999	2020-10-29T19:39:39:288
3,150000	16,030001	-12,110000	2020-10-29T19:39:39:310
-22,120001	18,480000	-11,340000	2020-10-29T19:39:39:326
16,170000	20,860001	-6,370000	2020-10-29T19:39:39:350
43,889999	22,750000	-5,390000	2020-10-29T19:39:39:367
76,019997	27,510000	-4,200000	2020-10-29T19:39:39:390
104,300003	33,529999	-4,970000	2020-10-29T19:39:39:407
132,649994	33,320000	-1,750000	2020-10-29T19:39:39:430
169,119995	20,160000	6,650000	2020-10-29T19:39:39:447
203,070007	7,630000	13,160000	2020-10-29T19:39:39:470
230,649994	2,450000	14,420000	2020-10-29T19:39:39:487
237,860001	-9,940000	9,590000	2020-10-29T19:39:39:510
235,899994	-17,500000	6,650000	2020-10-29T19:39:39:527
228,550003	-18,900000	3,920000	2020-10-29T19:39:39:549
219,309998	-19,530001	0,700000	2020-10-29T19:39:39:567
203,210007	-19,950001	-4,410000	2020-10-29T19:39:39:591
174,300003	-21,139999	-9,380000	2020-10-29T19:39:39:607
145,460007	-21,490000	-13,580000	2020-10-29T19:39:39:630
118,720001	-19,670000	-16,730000	2020-10-29T19:39:39:647
95,970001	-15,750000	-18,410000	2020-10-29T19:39:39:672
78,400002	-11,130000	-18,549999	2020-10-29T19:39:39:687
72,519997	-6,580000	-15,960000	2020-10-29T19:39:39:711
80,849998	-1,820000	-9,800000	2020-10-29T19:39:39:727
98,699997	3,010000	-1,400000	2020-10-29T19:39:39:750
119,209999	7,210000	7,280000	2020-10-29T19:39:39:767
137,059998	11,200000	15,330000	2020-10-29T19:39:39:790
150,500000	16,170000	21,770000	2020-10-29T19:39:39:807
158,550003	20,860001	25,690001	2020-10-29T19:39:39:831
160,369995	24,430000	25,760000	2020-10-29T19:39:39:847
159,949997	26,040001	24,219999	2020-10-29T19:39:39:869
159,250000	27,299999	21,629999	2020-10-29T19:39:39:891
155,330002	27,510000	16,940001	2020-10-29T19:39:39:911
149,869995	27,299999	10,220000	2020-10-29T19:39:39:927
147,979996	26,530001	2,660000	2020-10-29T19:39:39:951
148,259995	24,780001	-5,810000	2020-10-29T19:39:39:967
148,330002	23,590000	-15,470000	2020-10-29T19:39:39:992
147,000000	21,420000	-25,340000	2020-10-29T19:39:40:007
144,550003	19,180000	-35,910000	2020-10-29T19:39:40:030
140,490005	17,990000	-46,480000	2020-10-29T19:39:40:047
136,500000	15,120000	-56,560001	2020-10-29T19:39:40:072
133,910004	10,780000	-65,940002	2020-10-29T19:39:40:087
132,580002	7,350000	-74,760002	2020-10-29T19:39:40:110
132,020004	4,340000	-82,250000	2020-10-29T19:39:40:127
132,649994	0,560000	-88,129997	2020-10-29T19:39:40:151
133,979996	-2,030000	-91,349998	2020-10-29T19:39:40:168
132,229996	-1,820000	-89,459999	2020-10-29T19:39:40:191
131,809998	-5,530000	-67,410004	2020-10-29T19:39:40:207
142,729996	-11,620000	-32,759998	2020-10-29T19:39:40:232
163,169998	-15,120000	-23,940001	2020-10-29T19:39:40:247
159,460007	-16,100000	-2,030000	2020-10-29T19:39:40:271
146,369995	-7,350000	12,250000	2020-10-29T19:39:40:288
126,770004	2,940000	18,620001	2020-10-29T19:39:40:312
98,769997	8,680000	12,110000	2020-10-29T19:39:40:327
80,849998	12,110000	2,100000	2020-10-29T19:39:40:350
78,540001	14,350000	-8,750000	2020-10-29T19:39:40:368
94,430000	15,050000	-17,780001	2020-10-29T19:39:40:392
124,389999	15,680000	-24,360001	2020-10-29T19:39:40:408
156,800003	16,170000	-28,770000	2020-10-29T19:39:40:432
158,690002	15,120000	-29,400000	2020-10-29T19:39:40:447
147,139999	13,300000	-28,840000	2020-10-29T19:39:40:472
125,440002	12,110000	-28,420000	2020-10-29T19:39:40:488
103,669998	11,340000	-27,860001	2020-10-29T19:39:40:511
91,769997	11,270000	-26,600000	2020-10-29T19:39:40:527
89,110001	10,780000	-25,900000	2020-10-29T19:39:40:552
91,840004	8,890000	-26,180000	2020-10-29T19:39:40:568
98,419998	7,840000	-27,790001	2020-10-29T19:39:40:591
106,400002	6,930000	-30,940001	2020-10-29T19:39:40:608
116,550003	6,300000	-34,509998	2020-10-29T19:39:40:632
125,160004	4,830000	-37,450001	2020-10-29T19:39:40:647
128,940002	3,850000	-39,340000	2020-10-29T19:39:40:672
130,759995	2,800000	-40,950001	2020-10-29T19:39:40:688
130,270004	0,070000	-43,750000	2020-10-29T19:39:40:712
121,379997	-4,760000	-47,599998	2020-10-29T19:39:40:728
103,529999	-9,940000	-52,849998	2020-10-29T19:39:40:751
81,690002	-13,160000	-59,639999	2020-10-29T19:39:40:768
65,239998	-15,400000	-64,610001	2020-10-29T19:39:40:792
56,700001	-18,690001	-70,209999	2020-10-29T19:39:40:808
49,420002	-21,490000	-77,629997	2020-10-29T19:39:40:831
42,630001	-21,770000	-84,559998	2020-10-29T19:39:40:848
39,619999	-19,389999	-89,949997	2020-10-29T19:39:40:873
41,299999	-16,940001	-94,010002	2020-10-29T19:39:40:888
46,480000	-16,170000	-97,580002	2020-10-29T19:39:40:912
49,490002	-5,320000	-96,739998	2020-10-29T19:39:40:928
50,889999	16,590000	-81,129997	2020-10-29T19:39:40:952
56,980000	18,340000	-56,700001	2020-10-29T19:39:40:968
59,150002	19,460001	-34,650002	2020-10-29T19:39:40:991
55,020000	28,910000	-11,340000	2020-10-29T19:39:41:008
42,700001	33,950001	14,210000	2020-10-29T19:39:41:032
38,220001	37,520000	23,030001	2020-10-29T19:39:41:048
43,820000	39,689999	18,830000	2020-10-29T19:39:41:071
54,320000	41,160000	10,850000	2020-10-29T19:39:41:088
63,910000	44,310001	0,700000	2020-10-29T19:39:41:113
78,330002	48,090000	-12,390000	2020-10-29T19:39:41:128
105,209999	52,709999	-26,740000	2020-10-29T19:39:41:152
139,860001	56,630001	-37,029999	2020-10-29T19:39:41:168
169,190002	54,040001	-42,980000	2020-10-29T19:39:41:192
182,490005	49,420002	-44,590000	2020-10-29T19:39:41:208
180,320007	45,779999	-41,369999	2020-10-29T19:39:41:231
163,449997	42,910000	-35,070000	2020-10-29T19:39:41:248
135,309998	41,230000	-27,510000	2020-10-29T19:39:41:273
102,199997	39,130001	-20,650000	2020-10-29T19:39:41:288
54,740002	33,389999	-17,780001	2020-10-29T19:39:41:311
34,369999	27,020000	-9,800000	2020-10-29T19:39:41:328
-5,250000	15,190001	-2,730000	2020-10-29T19:39:41:352
-59,080002	6,230000	2,310000	2020-10-29T19:39:41:368
-84,559998	-1,610000	8,610000	2020-10-29T19:39:41:393
-90,860001	-4,200000	16,240000	2020-10-29T19:39:41:408
-83,370003	-6,160000	23,940001	2020-10-29T19:39:41:432
-76,930000	-9,380000	27,090000	2020-10-29T19:39:41:448
-76,160004	-11,970000	27,790001	2020-10-29T19:39:41:472
-73,779999	-14,560000	28,980000	2020-10-29T19:39:41:489
-65,730003	-17,080000	30,240000	2020-10-29T19:39:41:513
-63,420002	-16,240000	29,260000	2020-10-29T19:39:41:529
-63,209999	-10,710000	28,210001	2020-10-29T19:39:41:551
-65,029999	-5,390000	25,410000	2020-10-29T19:39:41:569
-61,950001	0,490000	24,780001	2020-10-29T19:39:41:592
-54,950001	5,390000	24,010000	2020-10-29T19:39:41:608
-44,029999	9,450000	25,480000	2020-10-29T19:39:41:632
-30,590000	12,810000	27,370001	2020-10-29T19:39:41:648
-19,879999	15,400000	28,000000	2020-10-29T19:39:41:673
-15,680000	15,540000	27,510000	2020-10-29T19:39:41:689
-9,870000	16,379999	26,040001	2020-10-29T19:39:41:714
-8,680000	16,170000	26,460001	2020-10-29T19:39:41:729
-14,350000	13,930000	23,170000	2020-10-29T19:39:41:753
-35,700001	14,000000	22,889999	2020-10-29T19:39:41:769
-71,540001	10,360000	19,040001	2020-10-29T19:39:41:792
-97,580002	8,120000	18,830000	2020-10-29T19:39:41:809
-108,570000	5,250000	17,150000	2020-10-29T19:39:41:832
-105,070000	3,360000	15,890000	2020-10-29T19:39:41:849
-85,260002	2,450000	13,790000	2020-10-29T19:39:41:876
-61,810001	1,190000	12,600000	2020-10-29T19:39:41:889
-42,139999	1,120000	8,470000	2020-10-29T19:39:41:913
-20,299999	0,420000	6,020000	2020-10-29T19:39:41:929
2,940000	0,280000	1,890000	2020-10-29T19:39:41:952
29,190001	-0,490000	-1,260000	2020-10-29T19:39:41:969
55,369999	-0,700000	-5,040000	2020-10-29T19:39:41:993
84,349998	-0,280000	-7,000000	2020-10-29T19:39:42:009
111,650002	-0,140000	-8,050000	2020-10-29T19:39:42:032
132,509995	-0,980000	-9,100000	2020-10-29T19:39:42:049
145,180008	-3,150000	-10,920000	2020-10-29T19:39:42:073
146,160004	-6,790000	-13,580000	2020-10-29T19:39:42:090
131,250000	-9,590000	-17,920000	2020-10-29T19:39:42:113
103,599998	-13,650000	-21,840000	2020-10-29T19:39:42:129
71,470001	-17,710001	-27,299999	2020-10-29T19:39:42:154
39,130001	-21,070000	-33,670002	2020-10-29T19:39:42:169
12,250000	-21,840000	-36,750000	2020-10-29T19:39:42:192
-4,900000	-22,260000	-36,540001	2020-10-29T19:39:42:209
-17,290001	-22,400000	-37,029999	2020-10-29T19:39:42:234
-25,969999	-21,910000	-37,730000	2020-10-29T19:39:42:249
-27,440001	-19,530001	-36,959999	2020-10-29T19:39:42:273
-24,010000	-16,379999	-35,209999	2020-10-29T19:39:42:289
-21,070000	-13,090000	-33,320000	2020-10-29T19:39:42:313
-19,740000	-10,290000	-31,500000	2020-10-29T19:39:42:329
-19,320000	-7,140000	-29,680000	2020-10-29T19:39:42:354
-19,530001	-3,220000	-28,210001	2020-10-29T19:39:42:369
-19,389999	0,770000	-27,790001	2020-10-29T19:39:42:394
-19,879999	6,580000	-27,230000	2020-10-29T19:39:42:410
-19,809999	15,610000	-24,080000	2020-10-29T19:39:42:432
-12,460000	21,629999	-20,370001	2020-10-29T19:39:42:449
-1,120000	25,340000	-19,530001	2020-10-29T19:39:42:473
9,800000	29,469999	-19,389999	2020-10-29T19:39:42:490
19,389999	34,230000	-18,410000	2020-10-29T19:39:42:513
29,960001	36,820000	-16,379999	2020-10-29T19:39:42:529
36,889999	36,400002	-13,790000	2020-10-29T19:39:42:554
36,049999	33,110001	-10,220000	2020-10-29T19:39:42:570
26,530001	27,299999	-7,280000	2020-10-29T19:39:42:594
0,910000	16,730000	-7,840000	2020-10-29T19:39:42:610
-22,190001	10,500000	-10,430000	2020-10-29T19:39:42:634
-49,209999	4,200000	-15,610000	2020-10-29T19:39:42:649
-67,690002	-6,860000	-23,730000	2020-10-29T19:39:42:673
-53,689999	-2,870000	-29,680000	2020-10-29T19:39:42:690
-5,810000	5,950000	-28,770000	2020-10-29T19:39:42:714
41,090000	8,820000	-20,370001	2020-10-29T19:39:42:730
39,970001	4,970000	-9,170000	2020-10-29T19:39:42:753
8,820000	1,540000	4,760000	2020-10-29T19:39:42:770
-32,689999	3,150000	18,969999	2020-10-29T19:39:42:794
-80,639999	3,990000	30,660000	2020-10-29T19:39:42:810
-144,550003	-3,570000	35,490002	2020-10-29T19:39:42:834
-212,660004	-12,320000	36,540001	2020-10-29T19:39:42:850
-237,300003	-17,010000	33,599998	2020-10-29T19:39:42:875
-226,169998	-18,760000	26,040001	2020-10-29T19:39:42:890
-210,559998	-23,590000	13,440001	2020-10-29T19:39:42:913
-210,070007	-36,119999	-3,220000	2020-10-29T19:39:42:931
-205,589996	-43,820000	-14,700000	2020-10-29T19:39:42:954
-213,500000	-55,510002	-37,450001	2020-10-29T19:39:42:971
-223,720001	-68,389999	-58,310001	2020-10-29T19:39:42:993
-213,779999	-62,720001	-64,470001	2020-10-29T19:39:43:012
-200,059998	-54,040001	-68,040001	2020-10-29T19:39:43:033
-150,990005	-37,869999	-17,710001	2020-10-29T19:39:43:051
-93,730003	-57,049999	-23,030001	2020-10-29T19:39:43:074
-36,330002	-83,019997	-115,849998	2020-10-29T19:39:43:092
2,170000	-75,389999	-190,610001	2020-10-29T19:39:43:114
30,590000	-48,930000	-176,889999	2020-10-29T19:39:43:131
50,189999	-62,580002	-173,320007	2020-10-29T19:39:43:153
36,400002	-48,020000	-148,190002	2020-10-29T19:39:43:171
-7,700000	-53,549999	-118,860001	2020-10-29T19:39:43:194
9,170000	-64,470001	-91,000000	2020-10-29T19:39:43:211
13,090000	-73,570000	-76,090004	2020-10-29T19:39:43:233
32,759998	-77,489998	-56,910000	2020-10-29T19:39:43:251
34,720001	-79,519997	-49,209999	2020-10-29T19:39:43:274
21,840000	-79,940002	-53,200001	2020-10-29T19:39:43:291
15,750000	-82,599998	-56,770000	2020-10-29T19:39:43:314
7,980000	-80,500000	-60,689999	2020-10-29T19:39:43:331
2,310000	-76,230003	-66,500000	2020-10-29T19:39:43:354
24,639999	-73,919998	-69,860001	2020-10-29T19:39:43:371
37,380001	-66,220001	-69,860001	2020-10-29T19:39:43:393
49,840000	-59,220001	-66,290001	2020-10-29T19:39:43:410
66,570000	-55,369999	-62,020000	2020-10-29T19:39:43:434
50,680000	-54,880001	-57,540001	2020-10-29T19:39:43:451
38,920002	-53,900002	-44,240002	2020-10-29T19:39:43:473
38,639999	-51,099998	-34,020000	2020-10-29T19:39:43:491
30,240000	-41,580002	-23,450001	2020-10-29T19:39:43:514
20,370001	-26,950001	-10,570000	2020-10-29T19:39:43:530
24,990000	-15,330000	2,870000	2020-10-29T19:39:43:555
32,200001	-5,040000	15,120000	2020-10-29T19:39:43:571
39,549999	2,240000	30,520000	2020-10-29T19:39:43:594
52,570000	5,810000	42,139999	2020-10-29T19:39:43:611
71,120003	9,800000	50,259998	2020-10-29T19:39:43:634
87,150002	13,440001	51,170002	2020-10-29T19:39:43:651
96,250000	15,820000	49,139999	2020-10-29T19:39:43:674
100,169998	21,070000	48,650002	2020-10-29T19:39:43:691
96,180000	24,500000	47,180000	2020-10-29T19:39:43:713
91,419998	25,690001	46,200001	2020-10-29T19:39:43:731
81,760002	25,200001	48,369999	2020-10-29T19:39:43:754
75,250000	23,520000	45,360001	2020-10-29T19:39:43:771
77,489998	24,010000	39,480000	2020-10-29T19:39:43:794
71,260002	31,080000	37,869999	2020-10-29T19:39:43:811
53,410000	33,599998	37,170002	2020-10-29T19:39:43:834
46,900002	26,460001	30,100000	2020-10-29T19:39:43:853
49,209999	27,160000	21,980000	2020-10-29T19:39:43:874
52,290001	27,719999	14,490000	2020-10-29T19:39:43:891
58,029999	20,860001	2,380000	2020-10-29T19:39:43:915
64,889999	18,969999	-8,120000	2020-10-29T19:39:43:931
61,950001	17,780001	-12,320000	2020-10-29T19:39:43:953
55,580002	14,280000	-18,900000	2020-10-29T19:39:43:971
50,400002	15,400000	-21,490000	2020-10-29T19:39:43:995
40,880001	17,360001	-21,629999	2020-10-29T19:39:44:011
28,840000	20,650000	-18,969999	2020-10-29T19:39:44:034
19,320000	26,530001	-15,820000	2020-10-29T19:39:44:051
14,000000	32,410000	-10,500000	2020-10-29T19:39:44:075
11,760000	37,240002	-2,240000	2020-10-29T19:39:44:092
13,230000	40,180000	6,020000	2020-10-29T19:39:44:114
17,920000	41,230000	13,720000	2020-10-29T19:39:44:132
21,980000	40,670002	18,270000	2020-10-29T19:39:44:155
30,450001	38,570000	19,670000	2020-10-29T19:39:44:172
31,570000	35,279999	19,740000	2020-10-29T19:39:44:194
20,860001	30,940001	19,460001	2020-10-29T19:39:44:211
9,310000	25,620001	16,799999	2020-10-29T19:39:44:236
-0,070000	19,460001	12,810000	2020-10-29T19:39:44:251
-7,420000	13,370000	7,490000	2020-10-29T19:39:44:276
-10,290000	8,750000	1,610000	2020-10-29T19:39:44:292
-9,030000	5,670000	-2,520000	2020-10-29T19:39:44:315
-7,770000	3,360000	-4,830000	2020-10-29T19:39:44:332
-12,110000	-0,910000	-9,380000	2020-10-29T19:39:44:354
-15,190001	-4,690000	-13,860000	2020-10-29T19:39:44:372
-11,060000	-4,410000	-16,940001	2020-10-29T19:39:44:395
-5,950000	-2,240000	-18,129999	2020-10-29T19:39:44:413
-1,470000	-1,120000	-16,379999	2020-10-29T19:39:44:435
4,200000	-0,700000	-12,250000	2020-10-29T19:39:44:452
14,840000	1,960000	-6,020000	2020-10-29T19:39:44:476
26,809999	4,200000	3,850000	2020-10-29T19:39:44:492
18,340000	4,690000	11,130000	2020-10-29T19:39:44:516
-14,000000	5,040000	11,410000	2020-10-29T19:39:44:532
-34,720001	3,640000	9,240000	2020-10-29T19:39:44:555
-37,240002	0,350000	5,390000	2020-10-29T19:39:44:572
-32,900002	-3,290000	0,630000	2020-10-29T19:39:44:595
-25,620001	-6,510000	-3,850000	2020-10-29T19:39:44:612
-16,660000	-9,100000	-6,930000	2020-10-29T19:39:44:635
-9,030000	-10,920000	-9,660000	2020-10-29T19:39:44:652
-6,090000	-11,340000	-11,270000	2020-10-29T19:39:44:676
-6,230000	-10,990000	-12,180000	2020-10-29T19:39:44:693
-4,270000	-9,800000	-11,410000	2020-10-29T19:39:44:716
-1,820000	-7,700000	-9,660000	2020-10-29T19:39:44:732
1,610000	-5,950000	-6,580000	2020-10-29T19:39:44:757
3,430000	-3,850000	-1,190000	2020-10-29T19:39:44:773
-1,540000	-3,360000	1,190000	2020-10-29T19:39:44:796
-4,900000	-2,800000	1,960000	2020-10-29T19:39:44:812
-5,250000	-2,730000	1,680000	2020-10-29T19:39:44:835
-3,920000	-2,450000	0,700000	2020-10-29T19:39:44:852
-2,170000	-2,100000	-0,560000	2020-10-29T19:39:44:876
-0,980000	-1,470000	-1,260000	2020-10-29T19:39:44:893
-0,280000	-1,190000	-1,890000	2020-10-29T19:39:44:915
0,700000	-0,630000	-2,170000	2020-10-29T19:39:44:933
0,980000	-0,140000	-1,610000	2020-10-29T19:39:44:956
0,140000	0,210000	-0,840000	2020-10-29T19:39:44:973
-1,400000	0,210000	-0,280000	2020-10-29T19:39:44:997
-2,590000	0,280000	0,210000	2020-10-29T19:39:45:013
-2,800000	0,280000	0,490000	2020-10-29T19:39:45:036
-1,960000	0,560000	0,560000	2020-10-29T19:39:45:053
-0,700000	0,840000	0,280000	2020-10-29T19:39:45:076
0,560000	1,330000	-0,350000	2020-10-29T19:39:45:093
1,400000	1,750000	-0,840000	2020-10-29T19:39:45:116
1,050000	1,890000	-0,980000	2020-10-29T19:39:45:132
0,070000	1,680000	-0,840000	2020-10-29T19:39:45:155
-0,420000	1,400000	-0,630000	2020-10-29T19:39:45:173
-0,070000	1,050000	-0,560000	2020-10-29T19:39:45:197
0,490000	1,050000	-0,910000	2020-10-29T19:39:45:213
-0,350000	1,190000	0,490000	2020-10-29T19:39:45:237
-2,310000	1,120000	0,630000	2020-10-29T19:39:45:253
-3,500000	1,330000	0,910000	2020-10-29T19:39:45:277
-3,640000	1,190000	0,630000	2020-10-29T19:39:45:293
-2,730000	1,120000	0,490000	2020-10-29T19:39:45:316
-1,330000	1,190000	0,490000	2020-10-29T19:39:45:333
-0,280000	1,120000	-0,560000	2020-10-29T19:39:45:356
-0,280000	1,330000	-0,350000	2020-10-29T19:39:45:374
-0,770000	0,910000	-0,630000	2020-10-29T19:39:45:396
-0,350000	1,120000	-0,630000	2020-10-29T19:39:45:413
0,140000	1,330000	-0,770000	2020-10-29T19:39:45:436
0,280000	1,400000	-0,350000	2020-10-29T19:39:45:453
0,560000	1,610000	0,140000	2020-10-29T19:39:45:476
0,840000	1,750000	0,210000	2020-10-29T19:39:45:493
0,420000	1,890000	0,840000	2020-10-29T19:39:45:516
-0,490000	1,680000	0,910000	2020-10-29T19:39:45:533
-0,840000	1,540000	0,700000	2020-10-29T19:39:45:556
-0,770000	1,400000	0,350000	2020-10-29T19:39:45:574
-0,840000	1,190000	-0,070000	2020-10-29T19:39:45:597
-0,980000	0,910000	-0,350000	2020-10-29T19:39:45:613
-0,840000	0,770000	-0,420000	2020-10-29T19:39:45:636
-0,560000	0,630000	-0,420000	2020-10-29T19:39:45:653
-0,560000	0,770000	-0,350000	2020-10-29T19:39:45:677
-0,560000	0,980000	-0,140000	2020-10-29T19:39:45:693
-0,350000	1,120000	0,070000	2020-10-29T19:39:45:717
-0,280000	1,330000	0,210000	2020-10-29T19:39:45:733
-0,420000	1,260000	0,280000	2020-10-29T19:39:45:757
-0,560000	1,190000	0,140000	2020-10-29T19:39:45:774
-0,420000	1,050000	0,140000	2020-10-29T19:39:45:797
-0,140000	1,050000	-0,210000	2020-10-29T19:39:45:814
-0,070000	0,910000	-0,210000	2020-10-29T19:39:45:837
-0,280000	0,910000	-0,210000	2020-10-29T19:39:45:853
-0,280000	1,050000	-0,210000	2020-10-29T19:39:45:876
-0,840000	0,910000	-0,420000	2020-10-29T19:39:45:893
-1,400000	0,910000	-0,630000	2020-10-29T19:39:45:917
-0,350000	1,120000	-0,700000	2020-10-29T19:39:45:933
0,630000	1,260000	-0,700000	2020-10-29T19:39:45:958
0,560000	1,330000	-0,490000	2020-10-29T19:39:45:973
-0,420000	0,980000	-0,350000	2020-10-29T19:39:45:997
-0,420000	1,050000	-0,280000	2020-10-29T19:39:46:014
-0,490000	0,910000	-0,210000	2020-10-29T19:39:46:036
-0,700000	0,700000	-0,280000	2020-10-29T19:39:46:054
-0,770000	0,490000	-0,350000	2020-10-29T19:39:46:078
-0,840000	0,490000	-0,420000	2020-10-29T19:39:46:094
-1,120000	0,420000	-0,420000	2020-10-29T19:39:46:116
-1,400000	0,070000	-0,560000	2020-10-29T19:39:46:134
-1,190000	-0,140000	-0,700000	2020-10-29T19:39:46:158
-0,980000	-0,420000	-0,840000	2020-10-29T19:39:46:174
-1,050000	-0,560000	-0,980000	2020-10-29T19:39:46:198
-1,260000	-0,560000	-0,910000	2020-10-29T19:39:46:213
-1,540000	-0,560000	-0,770000	2020-10-29T19:39:46:238
-1,610000	-0,420000	-0,560000	2020-10-29T19:39:46:254
-1,610000	-0,210000	-0,350000	2020-10-29T19:39:46:277
-1,470000	-0,140000	-0,210000	2020-10-29T19:39:46:294
-1,400000	-0,070000	-0,070000	2020-10-29T19:39:46:318
-1,260000	0,280000	-0,140000	2020-10-29T19:39:46:334
-0,980000	0,630000	-0,210000	2020-10-29T19:39:46:357
-0,910000	1,050000	-0,280000	2020-10-29T19:39:46:374
-0,840000	1,610000	-0,210000	2020-10-29T19:39:46:398
-0,140000	2,100000	-0,210000	2020-10-29T19:39:46:414
1,610000	2,170000	-0,070000	2020-10-29T19:39:46:437
1,820000	1,260000	-0,560000	2020-10-29T19:39:46:454
1,890000	-0,490000	-1,890000	2020-10-29T19:39:46:478
4,970000	-2,380000	-4,550000	2020-10-29T19:39:46:494
5,390000	-5,040000	-8,400000	2020-10-29T19:39:46:517
0,350000	-7,700000	-13,090000	2020-10-29T19:39:46:534
-5,600000	-9,660000	-17,920000	2020-10-29T19:39:46:558
-10,780000	-10,710000	-21,910000	2020-10-29T19:39:46:574
-14,770000	-10,920000	-24,219999	2020-10-29T19:39:46:597
-17,570000	-9,380000	-24,360001	2020-10-29T19:39:46:614
-16,450001	-6,580000	-22,120001	2020-10-29T19:39:46:638
-12,600000	-3,640000	-16,940001	2020-10-29T19:39:46:654
-10,920000	-1,540000	-9,660000	2020-10-29T19:39:46:678
-3,430000	1,260000	1,470000	2020-10-29T19:39:46:694
-1,050000	2,450000	10,500000	2020-10-29T19:39:46:718
-8,610000	2,730000	16,450001	2020-10-29T19:39:46:734
-22,400000	3,080000	15,610000	2020-10-29T19:39:46:757
-30,030001	1,470000	8,470000	2020-10-29T19:39:46:775
-44,029999	-5,390000	-0,140000	2020-10-29T19:39:46:799
-54,810001	-4,410000	-12,530000	2020-10-29T19:39:46:815
-42,490002	2,800000	-19,250000	2020-10-29T19:39:46:839
-13,930000	9,310000	-21,559999	2020-10-29T19:39:46:854
16,170000	15,820000	-21,559999	2020-10-29T19:39:46:878
29,469999	17,430000	-22,120001	2020-10-29T19:39:46:895
26,110001	16,940001	-20,370001	2020-10-29T19:39:46:918
13,650000	16,730000	-15,680000	2020-10-29T19:39:46:935
6,020000	12,600000	-7,560000	2020-10-29T19:39:46:958
2,450000	10,290000	-1,820000	2020-10-29T19:39:46:975
0,840000	6,580000	3,080000	2020-10-29T19:39:46:998
10,710000	3,220000	5,320000	2020-10-29T19:39:47:014
22,469999	1,260000	2,870000	2020-10-29T19:39:47:039
36,680000	1,330000	0,070000	2020-10-29T19:39:47:055
38,990002	3,780000	-3,990000	2020-10-29T19:39:47:078
28,910000	5,390000	-4,760000	2020-10-29T19:39:47:096
9,030000	8,610000	-0,210000	2020-10-29T19:39:47:118
-9,450000	10,710000	3,010000	2020-10-29T19:39:47:150
-31,360001	10,640000	6,370000	2020-10-29T19:39:47:188
-59,430000	10,150000	7,700000	2020-10-29T19:39:47:190
-72,730003	7,280000	2,940000	2020-10-29T19:39:47:206
-64,610001	3,430000	-1,190000	2020-10-29T19:39:47:215
-41,790001	-1,750000	-2,520000	2020-10-29T19:39:47:238
-26,320000	-4,620000	-3,150000	2020-10-29T19:39:47:255
-25,270000	-3,430000	-5,740000	2020-10-29T19:39:47:279
-25,690001	-1,050000	-5,950000	2020-10-29T19:39:47:295
-30,799999	-0,490000	-6,930000	2020-10-29T19:39:47:318
-37,099998	-1,260000	-7,210000	2020-10-29T19:39:47:335
-40,810001	-3,430000	-9,240000	2020-10-29T19:39:47:359
-33,180000	-6,230000	-11,480000	2020-10-29T19:39:47:375
-25,480000	-8,050000	-15,260000	2020-10-29T19:39:47:400
-16,870001	-8,050000	-20,230000	2020-10-29T19:39:47:415
2,100000	-6,440000	-25,900000	2020-10-29T19:39:47:439
23,730000	-5,320000	-30,799999	2020-10-29T19:39:47:455
39,270000	2,730000	-26,110001	2020-10-29T19:39:47:478
49,700001	14,140000	-12,460000	2020-10-29T19:39:47:495
56,000000	21,770000	1,400000	2020-10-29T19:39:47:519
49,420002	26,320000	10,080000	2020-10-29T19:39:47:535
46,759998	29,190001	15,120000	2020-10-29T19:39:47:558
35,209999	33,670002	19,110001	2020-10-29T19:39:47:575
15,610000	42,840000	24,290001	2020-10-29T19:39:47:599
1,540000	49,560001	28,070000	2020-10-29T19:39:47:615
-2,380000	56,490002	30,240000	2020-10-29T19:39:47:638
-1,470000	59,920002	30,100000	2020-10-29T19:39:47:655
-12,040000	63,560001	30,309999	2020-10-29T19:39:47:679
-27,580000	70,489998	33,529999	2020-10-29T19:39:47:695
-37,869999	77,699997	37,380001	2020-10-29T19:39:47:718
-45,920002	87,639999	42,349998	2020-10-29T19:39:47:735
-33,180000	98,980003	45,500000	2020-10-29T19:39:47:758
5,040000	103,599998	39,270000	2020-10-29T19:39:47:776
53,200001	98,769997	28,490000	2020-10-29T19:39:47:798
63,770000	78,330002	24,080000	2020-10-29T19:39:47:816
29,330000	59,709999	26,950001	2020-10-29T19:39:47:839
9,380000	52,080002	31,500000	2020-10-29T19:39:47:855
11,830000	59,849998	29,680000	2020-10-29T19:39:47:879
21,350000	78,400002	28,490000	2020-10-29T19:39:47:896
13,300000	95,059998	34,230000	2020-10-29T19:39:47:919
-21,070000	93,940002	49,279999	2020-10-29T19:39:47:935
-81,480003	82,180000	55,230000	2020-10-29T19:39:47:958
-119,559998	65,660004	38,080002	2020-10-29T19:39:47:976
-81,550003	51,660000	20,020000	2020-10-29T19:39:48:000
-28,559999	38,849998	2,660000	2020-10-29T19:39:48:016
8,330000	16,030001	-8,120000	2020-10-29T19:39:48:038
16,520000	3,010000	-8,610000	2020-10-29T19:39:48:056
13,440001	-4,130000	-5,880000	2020-10-29T19:39:48:080
10,850000	-7,420000	-5,390000	2020-10-29T19:39:48:096
15,470000	-10,150000	-1,960000	2020-10-29T19:39:48:118
28,070000	-12,040000	2,870000	2020-10-29T19:39:48:135
46,060001	-14,350000	9,240000	2020-10-29T19:39:48:159
52,080002	-14,630000	15,610000	2020-10-29T19:39:48:176
40,320000	-13,510000	23,170000	2020-10-29T19:39:48:199
22,680000	-14,840000	31,570000	2020-10-29T19:39:48:216
10,150000	-17,150000	38,430000	2020-10-29T19:39:48:240
1,260000	-18,549999	45,570000	2020-10-29T19:39:48:256
-8,680000	-19,460001	52,990002	2020-10-29T19:39:48:279
-20,370001	-19,950001	59,290001	2020-10-29T19:39:48:296
-31,010000	-19,110001	64,260002	2020-10-29T19:39:48:319
-38,430000	-17,500000	68,389999	2020-10-29T19:39:48:335
-43,189999	-15,190001	71,610001	2020-10-29T19:39:48:358
-44,310001	-12,810000	73,709999	2020-10-29T19:39:48:376
-41,650002	-11,410000	73,849998	2020-10-29T19:39:48:400
-36,330002	-10,430000	71,610001	2020-10-29T19:39:48:416
-28,420000	-9,030000	67,480003	2020-10-29T19:39:48:439
-18,270000	-6,650000	61,040001	2020-10-29T19:39:48:456
-6,160000	-2,940000	53,340000	2020-10-29T19:39:48:481
4,830000	0,280000	44,799999	2020-10-29T19:39:48:496
9,730000	2,100000	36,189999	2020-10-29T19:39:48:519
7,840000	3,780000	28,350000	2020-10-29T19:39:48:536
3,430000	6,860000	22,469999	2020-10-29T19:39:48:560
1,190000	10,360000	18,200001	2020-10-29T19:39:48:576
2,520000	13,930000	14,700000	2020-10-29T19:39:48:600
3,710000	17,290001	11,760000	2020-10-29T19:39:48:616
3,430000	18,969999	9,730000	2020-10-29T19:39:48:639
3,780000	20,790001	8,820000	2020-10-29T19:39:48:656
5,250000	24,430000	8,540000	2020-10-29T19:39:48:679
9,030000	26,320000	7,490000	2020-10-29T19:39:48:696
13,020000	25,620001	4,270000	2020-10-29T19:39:48:720
16,870001	25,340000	0,350000	2020-10-29T19:39:48:736
21,070000	24,570000	-4,200000	2020-10-29T19:39:48:758
27,440001	22,400000	-9,310000	2020-10-29T19:39:48:777
35,700001	20,090000	-15,540000	2020-10-29T19:39:48:800
44,029999	16,870001	-20,930000	2020-10-29T19:39:48:816
48,090000	12,810000	-25,129999	2020-10-29T19:39:48:840
43,049999	12,950000	-26,040001	2020-10-29T19:39:48:856
36,470001	10,080000	-23,590000	2020-10-29T19:39:48:880
29,260000	0,560000	-21,490000	2020-10-29T19:39:48:897
18,690001	-8,470000	-21,700001	2020-10-29T19:39:48:919
7,280000	-15,330000	-25,480000	2020-10-29T19:39:48:936
2,030000	-19,040001	-32,619999	2020-10-29T19:39:48:960
8,190000	-22,889999	-41,160000	2020-10-29T19:39:48:977
20,160000	-28,980000	-48,860001	2020-10-29T19:39:49:000
29,330000	-37,099998	-54,040001	2020-10-29T19:39:49:016
31,990000	-44,660000	-56,000000	2020-10-29T19:39:49:039
28,700001	-50,889999	-55,650002	2020-10-29T19:39:49:056
20,930000	-56,279999	-53,130001	2020-10-29T19:39:49:081
10,500000	-59,990002	-48,580002	2020-10-29T19:39:49:097
-7,910000	-62,020000	-39,270000	2020-10-29T19:39:49:120
-23,730000	-60,200001	-32,130001	2020-10-29T19:39:49:137
-37,380001	-59,150002	-24,920000	2020-10-29T19:39:49:159
-46,410000	-58,660000	-19,809999	2020-10-29T19:39:49:177
-51,380001	-55,439999	-18,760000	2020-10-29T19:39:49:201
-46,480000	-52,080002	-22,330000	2020-10-29T19:39:49:217
-31,430000	-49,420002	-29,750000	2020-10-29T19:39:49:240
-12,880000	-45,430000	-39,060001	2020-10-29T19:39:49:257
5,250000	-39,970001	-46,900002	2020-10-29T19:39:49:281
21,490000	-34,860001	-49,560001	2020-10-29T19:39:49:297
31,430000	-28,420000	-47,110001	2020-10-29T19:39:49:320
31,219999	-21,700001	-40,040001	2020-10-29T19:39:49:336
23,030001	-14,700000	-28,070000	2020-10-29T19:39:49:360
10,290000	-5,670000	-12,950000	2020-10-29T19:39:49:377
-3,850000	3,710000	3,640000	2020-10-29T19:39:49:400
-19,530001	11,620000	19,250000	2020-10-29T19:39:49:416
-33,180000	20,370001	34,020000	2020-10-29T19:39:49:441
-41,580002	30,170000	47,740002	2020-10-29T19:39:49:457
-45,009998	41,090000	60,480000	2020-10-29T19:39:49:480
-45,430000	52,920002	72,239998	2020-10-29T19:39:49:497
-43,750000	63,840000	84,000000	2020-10-29T19:39:49:520
-40,529999	72,449997	95,970001	2020-10-29T19:39:49:537
-36,259998	79,800003	106,610001	2020-10-29T19:39:49:561
-30,730000	85,190002	114,239998	2020-10-29T19:39:49:577
-31,219999	86,169998	116,970001	2020-10-29T19:39:49:601
-49,770000	82,809998	118,580002	2020-10-29T19:39:49:617
-50,400002	79,519997	107,800003	2020-10-29T19:39:49:640
-23,730000	75,809998	101,500000	2020-10-29T19:39:49:657
-4,620000	73,500000	91,349998	2020-10-29T19:39:49:681
-10,290000	69,090004	77,279999	2020-10-29T19:39:49:697
-21,210001	65,730003	63,910000	2020-10-29T19:39:49:720
-25,059999	65,660004	55,160000	2020-10-29T19:39:49:737
-30,100000	54,320000	47,459999	2020-10-29T19:39:49:761
-44,869999	39,759998	39,549999	2020-10-29T19:39:49:777
-60,060001	33,459999	33,529999	2020-10-29T19:39:49:802
-66,220001	21,559999	25,969999	2020-10-29T19:39:49:817
-64,750000	8,820000	14,840000	2020-10-29T19:39:49:841
-56,209999	0,560000	3,080000	2020-10-29T19:39:49:857
-41,160000	-7,910000	-9,590000	2020-10-29T19:39:49:882
-20,370001	-16,100000	-23,379999	2020-10-29T19:39:49:899
6,230000	-21,770000	-35,279999	2020-10-29T19:39:49:921
31,990000	-26,740000	-43,330002	2020-10-29T19:39:49:937
50,119999	-34,650002	-48,299999	2020-10-29T19:39:49:960
62,580002	-46,060001	-49,490002	2020-10-29T19:39:49:978
72,660004	-63,420002	-49,279999	2020-10-29T19:39:50:001
66,220001	-86,590004	-49,209999	2020-10-29T19:39:50:018
19,950001	-96,739998	-51,520000	2020-10-29T19:39:50:040
-34,230000	-102,269997	-50,820000	2020-10-29T19:39:50:058
-65,940002	-104,370003	-53,060001	2020-10-29T19:39:50:081
-63,420002	-101,919998	-60,270000	2020-10-29T19:39:50:098
-36,540001	-97,090004	-68,110001	2020-10-29T19:39:50:121
-2,730000	-95,690002	-68,809998	2020-10-29T19:39:50:137
23,730000	-97,440002	-64,750000	2020-10-29T19:39:50:161
42,490002	-97,090004	-59,150002	2020-10-29T19:39:50:178
60,410000	-92,959999	-49,770000	2020-10-29T19:39:50:201
59,779999	-85,680000	-43,680000	2020-10-29T19:39:50:218
49,420002	-79,029999	-36,750000	2020-10-29T19:39:50:242
32,130001	-71,400002	-31,080000	2020-10-29T19:39:50:257
12,810000	-63,000000	-25,900000	2020-10-29T19:39:50:281
-5,810000	-54,180000	-21,420000	2020-10-29T19:39:50:298
-20,370001	-46,270000	-18,200001	2020-10-29T19:39:50:322
-28,840000	-38,639999	-16,730000	2020-10-29T19:39:50:338
-29,469999	-29,889999	-15,820000	2020-10-29T19:39:50:361
-24,010000	-20,580000	-14,700000	2020-10-29T19:39:50:378
-16,240000	-9,940000	-14,350000	2020-10-29T19:39:50:402
-7,000000	0,490000	-14,210000	2020-10-29T19:39:50:418
-7,000000	5,530000	-14,350000	2020-10-29T19:39:50:440
3,360000	12,950000	-14,280000	2020-10-29T19:39:50:458
6,510000	23,450001	-12,600000	2020-10-29T19:39:50:482
6,510000	37,520000	-7,700000	2020-10-29T19:39:50:498
3,710000	56,070000	4,200000	2020-10-29T19:39:50:522
0,140000	64,400002	18,969999	2020-10-29T19:39:50:538
-3,640000	68,739998	33,250000	2020-10-29T19:39:50:562
-3,500000	75,459999	48,369999	2020-10-29T19:39:50:578
-7,070000	77,559998	60,970001	2020-10-29T19:39:50:601
-15,890000	78,330002	67,760002	2020-10-29T19:39:50:618
-24,920000	83,440002	72,730003	2020-10-29T19:39:50:642
-32,480000	94,220001	76,580002	2020-10-29T19:39:50:658
-32,619999	103,320000	77,840004	2020-10-29T19:39:50:681
-24,430000	103,599998	76,160004	2020-10-29T19:39:50:698
-7,630000	96,110001	71,120003	2020-10-29T19:39:50:722
9,030000	86,309998	64,260002	2020-10-29T19:39:50:738
12,460000	72,800003	58,170002	2020-10-29T19:39:50:763
-0,910000	55,510002	52,080002	2020-10-29T19:39:50:779
-26,110001	40,040001	45,920002	2020-10-29T19:39:50:801
-58,520000	30,170000	40,110001	2020-10-29T19:39:50:818
-94,639999	24,150000	35,209999	2020-10-29T19:39:50:841
-128,309998	22,889999	31,570000	2020-10-29T19:39:50:858
-154,279999	25,900000	30,940001	2020-10-29T19:39:50:883
-171,639999	28,070000	32,759998	2020-10-29T19:39:50:899
-179,759995	29,260000	36,750000	2020-10-29T19:39:50:921
-175,839996	31,360001	42,840000	2020-10-29T19:39:50:939
-157,500000	32,410000	49,630001	2020-10-29T19:39:50:961
-127,260002	32,480000	55,020000	2020-10-29T19:39:50:978
-93,309998	34,509998	57,189999	2020-10-29T19:39:51:002
-61,740002	39,200001	55,439999	2020-10-29T19:39:51:018
-28,700001	44,799999	50,049999	2020-10-29T19:39:51:042
6,370000	48,720001	41,930000	2020-10-29T19:39:51:058
38,779999	48,930000	31,710001	2020-10-29T19:39:51:082
64,680000	43,750000	21,629999	2020-10-29T19:39:51:099
82,599998	36,680000	12,180000	2020-10-29T19:39:51:122
92,400002	29,540001	3,290000	2020-10-29T19:39:51:138
95,059998	22,680000	-4,270000	2020-10-29T19:39:51:161
89,879997	15,260000	-9,940000	2020-10-29T19:39:51:179
77,699997	6,510000	-14,140000	2020-10-29T19:39:51:203
64,260002	-2,870000	-17,850000	2020-10-29T19:39:51:218
51,590000	-11,970000	-23,379999	2020-10-29T19:39:51:242
39,970001	-11,690000	-27,299999	2020-10-29T19:39:51:258
39,130001	-11,900000	-26,180000	2020-10-29T19:39:51:283
32,830002	-32,130001	-28,139999	2020-10-29T19:39:51:299
26,530001	-31,290001	-29,260000	2020-10-29T19:39:51:321
31,920000	-35,980000	-30,309999	2020-10-29T19:39:51:338
47,040001	-41,439999	-38,150002	2020-10-29T19:39:51:363
67,970001	-41,020000	-49,070000	2020-10-29T19:39:51:379
88,900002	-41,580002	-58,799999	2020-10-29T19:39:51:403
107,730003	-43,750000	-66,290001	2020-10-29T19:39:51:418
131,460007	-41,860001	-71,750000	2020-10-29T19:39:51:443
152,460007	-39,410000	-70,279999	2020-10-29T19:39:51:458
168,070007	-39,759998	-62,650002	2020-10-29T19:39:51:483
176,259995	-41,930000	-52,570000	2020-10-29T19:39:51:499
178,289993	-41,930000	-39,900002	2020-10-29T19:39:51:523
171,360001	-41,860001	-24,710001	2020-10-29T19:39:51:539
154,839996	-41,230000	-9,240000	2020-10-29T19:39:51:562
130,410004	-39,340000	2,660000	2020-10-29T19:39:51:579
105,209999	-40,599998	9,380000	2020-10-29T19:39:51:603
84,840004	-38,500000	10,990000	2020-10-29T19:39:51:619
72,309998	-35,139999	8,820000	2020-10-29T19:39:51:642
66,849998	-34,230000	4,060000	2020-10-29T19:39:51:659
68,389999	-35,910000	-1,610000	2020-10-29T19:39:51:684
72,379997	-37,869999	-7,280000	2020-10-29T19:39:51:699
74,550003	-39,549999	-13,160000	2020-10-29T19:39:51:724
74,199997	-41,230000	-20,160000	2020-10-29T19:39:51:739
70,699997	-41,860001	-28,350000	2020-10-29T19:39:51:764
62,720001	-40,950001	-36,959999	2020-10-29T19:39:51:779
52,009998	-39,830002	-46,060001	2020-10-29T19:39:51:803
39,200001	-38,220001	-55,860001	2020-10-29T19:39:51:818
27,020000	-35,070000	-66,150002	2020-10-29T19:39:51:843
18,830000	-31,360001	-75,879997	2020-10-29T19:39:51:859
16,870001	-29,120001	-84,209999	2020-10-29T19:39:51:883
17,150000	-29,049999	-91,000000	2020-10-29T19:39:51:900
17,990000	-26,880001	-95,129997	2020-10-29T19:39:51:924
21,840000	-22,260000	-96,110001	2020-10-29T19:39:51:939
28,700001	-17,780001	-95,199997	2020-10-29T19:39:51:964
40,599998	-14,280000	-93,169998	2020-10-29T19:39:51:979
52,080002	-12,810000	-89,599998	2020-10-29T19:39:52:004
57,400002	-8,540000	-83,790001	2020-10-29T19:39:52:019
56,420002	4,900000	-72,449997	2020-10-29T19:39:52:043
55,439999	12,810000	-56,000000	2020-10-29T19:39:52:059
53,480000	14,070000	-38,990002	2020-10-29T19:39:52:084
37,799999	18,480000	-20,160000	2020-10-29T19:39:52:100
3,010000	19,670000	-0,980000	2020-10-29T19:39:52:122
-43,610001	20,510000	11,060000	2020-10-29T19:39:52:140
-75,739998	28,420000	18,200001	2020-10-29T19:39:52:167
-84,769997	41,160000	24,010000	2020-10-29T19:39:52:180
-78,470001	53,340000	26,880001	2020-10-29T19:39:52:204
-59,150002	58,380001	28,630001	2020-10-29T19:39:52:220
-31,710001	59,360001	30,799999	2020-10-29T19:39:52:244
-4,340000	59,639999	35,070000	2020-10-29T19:39:52:259
12,320000	59,849998	40,110001	2020-10-29T19:39:52:283
16,940001	61,250000	45,220001	2020-10-29T19:39:52:300
14,910000	62,439999	47,459999	2020-10-29T19:39:52:328
10,990000	66,639999	46,830002	2020-10-29T19:39:52:339
6,580000	71,959999	44,799999	2020-10-29T19:39:52:362
3,920000	80,919998	40,320000	2020-10-29T19:39:52:380
7,140000	86,169998	38,990002	2020-10-29T19:39:52:405
12,810000	84,559998	38,990002	2020-10-29T19:39:52:420
19,110001	81,620003	38,920002	2020-10-29T19:39:52:443
23,170000	77,910004	37,730000	2020-10-29T19:39:52:459
19,740000	74,620003	39,480000	2020-10-29T19:39:52:484
-6,930000	72,309998	46,759998	2020-10-29T19:39:52:500
-47,740002	77,699997	49,420002	2020-10-29T19:39:52:523
-75,879997	75,180000	53,270000	2020-10-29T19:39:52:539
-87,919998	63,980000	53,760002	2020-10-29T19:39:52:563
-91,559998	54,320000	52,080002	2020-10-29T19:39:52:580
-90,160004	50,259998	43,959999	2020-10-29T19:39:52:603
-90,720001	47,320000	35,279999	2020-10-29T19:39:52:620
-85,680000	49,420002	19,809999	2020-10-29T19:39:52:643
-53,970001	52,990002	8,890000	2020-10-29T19:39:52:660
-14,070000	58,310001	-1,960000	2020-10-29T19:39:52:683
6,300000	62,720001	-8,330000	2020-10-29T19:39:52:700
0,140000	66,570000	-9,450000	2020-10-29T19:39:52:724
-19,040001	73,570000	-9,100000	2020-10-29T19:39:52:740
-33,110001	66,709999	-2,940000	2020-10-29T19:39:52:763
-48,790001	59,500000	4,690000	2020-10-29T19:39:52:780
-65,660004	58,310001	12,110000	2020-10-29T19:39:52:803
-67,900002	54,950001	13,440001	2020-10-29T19:39:52:820
-56,910000	45,080002	9,520000	2020-10-29T19:39:52:843
-39,200001	36,470001	4,130000	2020-10-29T19:39:52:860
-26,389999	31,780001	-6,090000	2020-10-29T19:39:52:884
-23,100000	33,110001	-16,100000	2020-10-29T19:39:52:900
-29,120001	32,689999	-22,820000	2020-10-29T19:39:52:925
-33,459999	26,740000	-23,520000	2020-10-29T19:39:52:940
-40,950001	16,590000	-19,250000	2020-10-29T19:39:52:964
-60,760002	9,520000	-17,010000	2020-10-29T19:39:52:980
-76,300003	5,460000	-14,910000	2020-10-29T19:39:53:003
-69,230003	3,780000	-13,020000	2020-10-29T19:39:53:020
-49,560001	2,730000	-12,110000	2020-10-29T19:39:53:044
-43,259998	-0,980000	-12,530000	2020-10-29T19:39:53:060
-47,389999	-3,920000	-14,490000	2020-10-29T19:39:53:084
-48,299999	-0,910000	-15,120000	2020-10-29T19:39:53:101
-42,139999	4,410000	-9,240000	2020-10-29T19:39:53:124
-30,870001	8,470000	-3,080000	2020-10-29T19:39:53:140
-20,510000	8,820000	1,820000	2020-10-29T19:39:53:164
-15,820000	3,360000	9,310000	2020-10-29T19:39:53:181
-14,490000	-3,290000	14,700000	2020-10-29T19:39:53:205
-9,520000	-4,760000	14,490000	2020-10-29T19:39:53:220
-4,550000	-1,190000	10,360000	2020-10-29T19:39:53:244
-5,670000	-0,980000	4,620000	2020-10-29T19:39:53:260
-13,020000	-4,900000	0,140000	2020-10-29T19:39:53:285
-15,750000	-6,790000	-3,290000	2020-10-29T19:39:53:301
-21,490000	-7,630000	-4,830000	2020-10-29T19:39:53:323
-35,000000	-8,890000	-5,530000	2020-10-29T19:39:53:340
-39,830002	-11,480000	-4,690000	2020-10-29T19:39:53:365
-37,099998	-13,930000	-0,980000	2020-10-29T19:39:53:381
-37,869999	-16,240000	-0,280000	2020-10-29T19:39:53:405
-38,639999	-19,250000	-1,750000	2020-10-29T19:39:53:420
-35,279999	-24,010000	-3,570000	2020-10-29T19:39:53:445
-45,360001	-30,170000	-10,150000	2020-10-29T19:39:53:461
-80,430000	-27,719999	-15,260000	2020-10-29T19:39:53:484
-118,510002	-25,410000	-20,790001	2020-10-29T19:39:53:501
-130,199997	-31,219999	-22,750000	2020-10-29T19:39:53:525
-108,919998	-39,480000	-21,490000	2020-10-29T19:39:53:541
-91,070000	-42,490002	-31,710001	2020-10-29T19:39:53:564
-67,480003	-34,509998	-52,639999	2020-10-29T19:39:53:581
-50,049999	-25,549999	-70,139999	2020-10-29T19:39:53:605
-43,259998	-16,590000	-79,940002	2020-10-29T19:39:53:621
-36,540001	-8,680000	-80,570000	2020-10-29T19:39:53:645
-9,590000	-2,870000	-74,970001	2020-10-29T19:39:53:661
13,650000	-0,140000	-63,560001	2020-10-29T19:39:53:685
32,200001	-2,450000	-50,540001	2020-10-29T19:39:53:701
26,740000	-8,610000	-37,170002	2020-10-29T19:39:53:724
11,130000	-7,560000	-21,280001	2020-10-29T19:39:53:741
-5,740000	-6,790000	-12,740000	2020-10-29T19:39:53:765
-17,010000	-10,080000	-11,690000	2020-10-29T19:39:53:781
-12,390000	-11,340000	-10,500000	2020-10-29T19:39:53:804
6,930000	-7,980000	-11,130000	2020-10-29T19:39:53:821
31,500000	-2,800000	-10,500000	2020-10-29T19:39:53:845
45,080002	2,940000	-9,590000	2020-10-29T19:39:53:861
45,430000	6,650000	-8,470000	2020-10-29T19:39:53:885
39,619999	8,470000	-7,420000	2020-10-29T19:39:53:901
38,920002	8,680000	-5,180000	2020-10-29T19:39:53:925
35,630001	7,000000	-3,360000	2020-10-29T19:39:53:942
37,939999	7,840000	0,350000	2020-10-29T19:39:53:965
53,480000	10,010000	3,500000	2020-10-29T19:39:53:981
71,680000	12,880000	4,480000	2020-10-29T19:39:54:005
97,650002	17,639999	6,090000	2020-10-29T19:39:54:021
128,660004	20,930000	8,260000	2020-10-29T19:39:54:044
150,009995	22,260000	10,220000	2020-10-29T19:39:54:061
167,369995	23,730000	14,210000	2020-10-29T19:39:54:086
186,619995	23,450001	17,990000	2020-10-29T19:39:54:102
199,360001	21,420000	20,230000	2020-10-29T19:39:54:126
202,160004	17,500000	20,580000	2020-10-29T19:39:54:141
185,500000	15,400000	18,969999	2020-10-29T19:39:54:166
179,270004	17,150000	18,690001	2020-10-29T19:39:54:182
180,389999	16,940001	17,710001	2020-10-29T19:39:54:205
186,130005	16,870001	15,190001	2020-10-29T19:39:54:221
206,009995	16,870001	15,470000	2020-10-29T19:39:54:246
237,229996	15,540000	18,549999	2020-10-29T19:39:54:261
279,720001	13,300000	22,889999	2020-10-29T19:39:54:285
297,220001	6,090000	23,660000	2020-10-29T19:39:54:302
270,760010	-0,770000	23,170000	2020-10-29T19:39:54:326
243,320007	-1,050000	26,740000	2020-10-29T19:39:54:341
236,809998	-3,010000	32,480000	2020-10-29T19:39:54:366
249,339996	-7,280000	32,410000	2020-10-29T19:39:54:381
234,360001	-19,809999	26,110001	2020-10-29T19:39:54:406
183,750000	-35,139999	17,780001	2020-10-29T19:39:54:422
146,089996	-38,500000	10,850000	2020-10-29T19:39:54:445
129,570007	-45,430000	0,560000	2020-10-29T19:39:54:461
119,070000	-54,389999	-14,420000	2020-10-29T19:39:54:486
111,370003	-59,990002	-32,270000	2020-10-29T19:39:54:502
89,949997	-67,199997	-51,660000	2020-10-29T19:39:54:526
61,459999	-77,769997	-76,160004	2020-10-29T19:39:54:542
36,750000	-87,010002	-85,680000	2020-10-29T19:39:54:566
37,660000	-91,419998	-90,580002	2020-10-29T19:39:54:582
51,029999	-94,849998	-90,930000	2020-10-29T19:39:54:605
60,900002	-99,680000	-86,379997	2020-10-29T19:39:54:622
48,160000	-101,849998	-78,889999	2020-10-29T19:39:54:646
20,370001	-99,330002	-69,440002	2020-10-29T19:39:54:662
1,330000	-89,879997	-59,150002	2020-10-29T19:39:54:685
-7,980000	-78,680000	-50,959999	2020-10-29T19:39:54:702
-11,200000	-67,620003	-45,360001	2020-10-29T19:39:54:726
-11,130000	-58,029999	-42,349998	2020-10-29T19:39:54:742
-11,760000	-49,840000	-42,139999	2020-10-29T19:39:54:765
-8,470000	-40,950001	-41,160000	2020-10-29T19:39:54:782
-0,630000	-31,430000	-37,380001	2020-10-29T19:39:54:806
5,460000	-21,559999	-32,410000	2020-10-29T19:39:54:822
7,000000	-11,970000	-26,250000	2020-10-29T19:39:54:847
6,930000	-2,590000	-19,110001	2020-10-29T19:39:54:862
6,510000	6,580000	-9,380000	2020-10-29T19:39:54:886
7,840000	17,639999	1,260000	2020-10-29T19:39:54:902
12,740000	21,070000	11,130000	2020-10-29T19:39:54:925
15,400000	28,700001	15,050000	2020-10-29T19:39:54:941
12,810000	41,439999	12,110000	2020-10-29T19:39:54:966
11,270000	54,110001	6,020000	2020-10-29T19:39:54:982
12,600000	69,090004	6,020000	2020-10-29T19:39:55:005
19,809999	85,820000	-5,530000	2020-10-29T19:39:55:022
33,389999	99,750000	-10,640000	2020-10-29T19:39:55:046
54,389999	111,160004	-17,290001	2020-10-29T19:39:55:062
92,260002	122,639999	-20,510000	2020-10-29T19:39:55:087
137,690002	130,130005	-17,500000	2020-10-29T19:39:55:102
188,369995	132,440002	-17,080000	2020-10-29T19:39:55:126
222,250000	136,149994	-24,010000	2020-10-29T19:39:55:142
239,190002	137,199997	-33,950001	2020-10-29T19:39:55:166
246,259995	136,080002	-40,040001	2020-10-29T19:39:55:182
249,970001	130,830002	-46,759998	2020-10-29T19:39:55:207
253,750000	91,769997	-33,040001	2020-10-29T19:39:55:222
56,209999	-26,809999	53,689999	2020-10-29T19:39:55:245
-210,139999	-49,490002	-21,210001	2020-10-29T19:39:55:262
-220,430008	-16,870001	-26,809999	2020-10-29T19:39:55:286
-145,529999	-3,850000	-12,320000	2020-10-29T19:39:55:303
-60,060001	-0,560000	5,950000	2020-10-29T19:39:55:326
16,450001	-14,840000	16,799999	2020-10-29T19:39:55:342
93,029999	-26,320000	24,990000	2020-10-29T19:39:55:366
151,479996	-24,219999	33,740002	2020-10-29T19:39:55:383
181,020004	-22,049999	46,689999	2020-10-29T19:39:55:405
172,550003	-21,070000	56,070000	2020-10-29T19:39:55:422
134,399994	-19,670000	64,470001	2020-10-29T19:39:55:447
77,209999	-18,900000	69,790001	2020-10-29T19:39:55:462
8,120000	-17,639999	71,050003	2020-10-29T19:39:55:486
-66,919998	-14,140000	66,500000	2020-10-29T19:39:55:503
-133,630005	-10,920000	58,380001	2020-10-29T19:39:55:528
-184,169998	-9,940000	47,810001	2020-10-29T19:39:55:542
-217,630005	-9,170000	36,959999	2020-10-29T19:39:55:567
-230,720001	-7,210000	26,250000	2020-10-29T19:39:55:583
-217,910004	-4,550000	16,100000	2020-10-29T19:39:55:606
-182,210007	0,070000	7,140000	2020-10-29T19:39:55:622
-105,070000	9,520000	-4,130000	2020-10-29T19:39:55:645
-49,070000	15,680000	-8,890000	2020-10-29T19:39:55:663
0,630000	22,260000	-10,850000	2020-10-29T19:39:55:687
38,150002	27,440001	-11,130000	2020-10-29T19:39:55:703
65,730003	32,410000	-9,800000	2020-10-29T19:39:55:726
82,529999	37,450001	-7,770000	2020-10-29T19:39:55:743
87,849998	42,070000	-5,880000	2020-10-29T19:39:55:767
86,800003	46,270000	-3,920000	2020-10-29T19:39:55:783
84,489998	50,889999	-0,560000	2020-10-29T19:39:55:807
78,470001	55,020000	2,520000	2020-10-29T19:39:55:823
75,529999	56,630001	6,650000	2020-10-29T19:39:55:847
73,779999	52,430000	16,870001	2020-10-29T19:39:55:864
12,390000	42,630001	29,400000	2020-10-29T19:39:55:886
-87,080002	35,630001	30,030001	2020-10-29T19:39:55:903
-115,500000	26,460001	16,870001	2020-10-29T19:39:55:927
-53,619999	17,360001	17,010000	2020-10-29T19:39:55:943
40,529999	13,440001	16,379999	2020-10-29T19:39:55:966
116,480003	11,340000	10,430000	2020-10-29T19:39:55:984
162,539993	6,720000	2,310000	2020-10-29T19:39:56:008
188,720001	2,030000	-4,760000	2020-10-29T19:39:56:024
197,750000	-1,820000	-8,680000	2020-10-29T19:39:56:047
190,680008	-5,460000	-10,080000	2020-10-29T19:39:56:063
172,059998	-8,960000	-9,450000	2020-10-29T19:39:56:087
147,490005	-12,320000	-7,910000	2020-10-29T19:39:56:104
122,430000	-15,750000	-5,950000	2020-10-29T19:39:56:126
101,989998	-19,389999	-4,900000	2020-10-29T19:39:56:143
84,910004	-20,650000	-5,040000	2020-10-29T19:39:56:168
67,760002	-20,650000	-4,200000	2020-10-29T19:39:56:184
56,980000	-20,930000	-2,660000	2020-10-29T19:39:56:206
57,330002	-22,610001	-0,840000	2020-10-29T19:39:56:223
64,610001	-25,059999	0,630000	2020-10-29T19:39:56:248
66,360001	-26,110001	0,560000	2020-10-29T19:39:56:263
63,840000	-23,309999	-0,280000	2020-10-29T19:39:56:288
62,510002	-19,040001	-0,140000	2020-10-29T19:39:56:304
60,970001	-18,900000	1,470000	2020-10-29T19:39:56:327
55,580002	-23,590000	2,800000	2020-10-29T19:39:56:344
45,500000	-25,690001	0,420000	2020-10-29T19:39:56:366
37,730000	-21,700001	-7,770000	2020-10-29T19:39:56:383
38,360001	-15,820000	-18,270000	2020-10-29T19:39:56:408
46,130001	-13,160000	-30,660000	2020-10-29T19:39:56:424
