light_intensity	ts
2097152,000000	2020-10-29T19:38:42:500
2097152,000000	2020-10-29T19:38:42:557
2097152,000000	2020-10-29T19:38:42:582
2759054,000000	2020-10-29T19:38:42:622
2759398,000000	2020-10-29T19:38:42:661
2758887,000000	2020-10-29T19:38:42:703
2756038,000000	2020-10-29T19:38:42:741
2753617,000000	2020-10-29T19:38:42:782
2751630,000000	2020-10-29T19:38:42:822
2750394,000000	2020-10-29T19:38:42:861
2749347,000000	2020-10-29T19:38:42:902
2748209,000000	2020-10-29T19:38:42:943
2151965,000000	2020-10-29T19:38:42:984
2151965,000000	2020-10-29T19:38:43:022
2143826,000000	2020-10-29T19:38:43:063
2140157,000000	2020-10-29T19:38:43:104
2079496,000000	2020-10-29T19:38:43:143
2068633,000000	2020-10-29T19:38:43:184
2057007,000000	2020-10-29T19:38:43:289
2043706,000000	2020-10-29T19:38:43:291
2028930,000000	2020-10-29T19:38:43:365
1947658,000000	2020-10-29T19:38:43:366
1883770,000000	2020-10-29T19:38:43:383
1826957,000000	2020-10-29T19:38:43:424
1782816,000000	2020-10-29T19:38:43:463
1749439,000000	2020-10-29T19:38:43:504
1967872,000000	2020-10-29T19:38:43:547
1939340,000000	2020-10-29T19:38:43:584
1909674,000000	2020-10-29T19:38:43:624
1879296,000000	2020-10-29T19:38:43:668
1851395,000000	2020-10-29T19:38:43:704
1826398,000000	2020-10-29T19:38:43:744
1803675,000000	2020-10-29T19:38:43:787
1783955,000000	2020-10-29T19:38:43:827
1765591,000000	2020-10-29T19:38:43:865
1749651,000000	2020-10-29T19:38:43:910
1730075,000000	2020-10-29T19:38:43:945
1697112,000000	2020-10-29T19:38:43:987
1663430,000000	2020-10-29T19:38:44:027
1639164,000000	2020-10-29T19:38:44:067
1625502,000000	2020-10-29T19:38:44:107
1619284,000000	2020-10-29T19:38:44:151
1615527,000000	2020-10-29T19:38:44:194
2444968,000000	2020-10-29T19:38:52:127
2447162,000000	2020-10-29T19:38:52:147
2450272,000000	2020-10-29T19:38:52:181
2452897,000000	2020-10-29T19:38:52:247
2455788,000000	2020-10-29T19:38:52:264
2460605,000000	2020-10-29T19:38:52:296
2464258,000000	2020-10-29T19:38:52:340
2466019,000000	2020-10-29T19:38:52:381
2538073,000000	2020-10-29T19:38:52:905
2544299,000000	2020-10-29T19:38:52:939
2549250,000000	2020-10-29T19:38:52:980
2550214,000000	2020-10-29T19:38:53:018
2552178,000000	2020-10-29T19:38:53:062
2555791,000000	2020-10-29T19:38:53:098
2560768,000000	2020-10-29T19:38:53:140
2567510,000000	2020-10-29T19:38:53:179
2575701,000000	2020-10-29T19:38:53:220
2582227,000000	2020-10-29T19:38:53:259
2588675,000000	2020-10-29T19:38:53:301
2594729,000000	2020-10-29T19:38:53:339
2599856,000000	2020-10-29T19:38:53:380
2604252,000000	2020-10-29T19:38:53:419
2609262,000000	2020-10-29T19:38:53:461
2614831,000000	2020-10-29T19:38:53:499
2619553,000000	2020-10-29T19:38:53:541
2624170,000000	2020-10-29T19:38:53:580
2627788,000000	2020-10-29T19:38:53:621
2630564,000000	2020-10-29T19:38:53:660
2631700,000000	2020-10-29T19:38:53:700
2629279,000000	2020-10-29T19:38:53:739
2621554,000000	2020-10-29T19:38:53:782
2607551,000000	2020-10-29T19:38:53:819
2597664,000000	2020-10-29T19:38:53:861
2589738,000000	2020-10-29T19:38:53:900
2582833,000000	2020-10-29T19:38:53:940
2575919,000000	2020-10-29T19:38:53:980
2568992,000000	2020-10-29T19:38:54:022
2561040,000000	2020-10-29T19:38:54:060
2553340,000000	2020-10-29T19:38:54:100
2546034,000000	2020-10-29T19:38:54:140
2539017,000000	2020-10-29T19:38:54:181
2532002,000000	2020-10-29T19:38:54:220
2516257,000000	2020-10-29T19:38:54:263
2486106,000000	2020-10-29T19:38:54:300
2451278,000000	2020-10-29T19:38:54:341
2421714,000000	2020-10-29T19:38:54:380
2398901,000000	2020-10-29T19:38:54:421
2382073,000000	2020-10-29T19:38:54:460
2368638,000000	2020-10-29T19:38:54:503
2358132,000000	2020-10-29T19:38:54:540
2347296,000000	2020-10-29T19:38:54:581
2335717,000000	2020-10-29T19:38:54:621
2321509,000000	2020-10-29T19:38:54:661
2307473,000000	2020-10-29T19:38:54:700
2295520,000000	2020-10-29T19:38:54:744
2284977,000000	2020-10-29T19:38:54:781
2275184,000000	2020-10-29T19:38:54:821
2265598,000000	2020-10-29T19:38:54:861
2248568,000000	2020-10-29T19:38:54:901
2210160,000000	2020-10-29T19:38:54:940
2162702,000000	2020-10-29T19:38:54:984
2116758,000000	2020-10-29T19:38:55:021
2079235,000000	2020-10-29T19:38:55:062
2050120,000000	2020-10-29T19:38:55:101
2029218,000000	2020-10-29T19:38:55:141
2012779,000000	2020-10-29T19:38:55:181
1997052,000000	2020-10-29T19:38:55:223
1980082,000000	2020-10-29T19:38:55:261
1963924,000000	2020-10-29T19:38:55:302
1949922,000000	2020-10-29T19:38:55:341
1939955,000000	2020-10-29T19:38:55:383
1932498,000000	2020-10-29T19:38:55:421
1926665,000000	2020-10-29T19:38:55:464
1923015,000000	2020-10-29T19:38:55:502
1911881,000000	2020-10-29T19:38:55:542
1883228,000000	2020-10-29T19:38:55:582
1850836,000000	2020-10-29T19:38:55:622
1825140,000000	2020-10-29T19:38:55:662
1807663,000000	2020-10-29T19:38:55:704
1795970,000000	2020-10-29T19:38:55:741
1789381,000000	2020-10-29T19:38:55:783
1785769,000000	2020-10-29T19:38:55:822
1784552,000000	2020-10-29T19:38:55:863
1783473,000000	2020-10-29T19:38:55:902
1781146,000000	2020-10-29T19:38:55:943
1778423,000000	2020-10-29T19:38:55:982
1777202,000000	2020-10-29T19:38:56:023
1777356,000000	2020-10-29T19:38:56:062
1778840,000000	2020-10-29T19:38:56:103
1781528,000000	2020-10-29T19:38:56:142
1780536,000000	2020-10-29T19:38:56:184
1762080,000000	2020-10-29T19:38:56:222
1737394,000000	2020-10-29T19:38:56:264
1715408,000000	2020-10-29T19:38:56:302
1704723,000000	2020-10-29T19:38:56:343
1702965,000000	2020-10-29T19:38:56:383
1707497,000000	2020-10-29T19:38:56:424
1714827,000000	2020-10-29T19:38:56:462
1722009,000000	2020-10-29T19:38:56:503
1727680,000000	2020-10-29T19:38:56:542
1733356,000000	2020-10-29T19:38:56:583
1739304,000000	2020-10-29T19:38:56:623
1745656,000000	2020-10-29T19:38:56:665
1752720,000000	2020-10-29T19:38:56:703
1759945,000000	2020-10-29T19:38:56:743
1767589,000000	2020-10-29T19:38:56:783
1772105,000000	2020-10-29T19:38:56:824
1763512,000000	2020-10-29T19:38:56:863
1750815,000000	2020-10-29T19:38:56:906
1742122,000000	2020-10-29T19:38:56:942
1739033,000000	2020-10-29T19:38:56:983
1739520,000000	2020-10-29T19:38:57:023
1741511,000000	2020-10-29T19:38:57:064
1747478,000000	2020-10-29T19:38:57:103
1757035,000000	2020-10-29T19:38:57:145
1765342,000000	2020-10-29T19:38:57:183
1772494,000000	2020-10-29T19:38:57:224
1778781,000000	2020-10-29T19:38:57:263
1786065,000000	2020-10-29T19:38:57:304
1793997,000000	2020-10-29T19:38:57:343
1802829,000000	2020-10-29T19:38:57:384
1812092,000000	2020-10-29T19:38:57:423
1820729,000000	2020-10-29T19:38:57:464
1819382,000000	2020-10-29T19:38:57:503
1809793,000000	2020-10-29T19:38:57:544
1801513,000000	2020-10-29T19:38:57:584
1799742,000000	2020-10-29T19:38:57:626
1803753,000000	2020-10-29T19:38:57:663
1809710,000000	2020-10-29T19:38:57:704
1818409,000000	2020-10-29T19:38:57:743
1829574,000000	2020-10-29T19:38:57:785
1842287,000000	2020-10-29T19:38:57:823
1853608,000000	2020-10-29T19:38:57:866
1865213,000000	2020-10-29T19:38:57:909
1876365,000000	2020-10-29T19:38:57:945
1887389,000000	2020-10-29T19:38:57:984
1902012,000000	2020-10-29T19:38:58:024
1916149,000000	2020-10-29T19:38:58:064
1928702,000000	2020-10-29T19:38:58:107
1935161,000000	2020-10-29T19:38:58:144
1933461,000000	2020-10-29T19:38:58:185
1931211,000000	2020-10-29T19:38:58:224
1933604,000000	2020-10-29T19:38:58:265
1939571,000000	2020-10-29T19:38:58:304
1947722,000000	2020-10-29T19:38:58:347
1956722,000000	2020-10-29T19:38:58:384
1966646,000000	2020-10-29T19:38:58:425
1975657,000000	2020-10-29T19:38:58:465
1981690,000000	2020-10-29T19:38:58:505
1986780,000000	2020-10-29T19:38:58:544
1992360,000000	2020-10-29T19:38:58:588
1997419,000000	2020-10-29T19:38:58:625
2001810,000000	2020-10-29T19:38:58:666
2007595,000000	2020-10-29T19:38:58:704
2011872,000000	2020-10-29T19:38:58:745
2010306,000000	2020-10-29T19:38:58:785
2007561,000000	2020-10-29T19:38:58:828
2007324,000000	2020-10-29T19:38:58:865
2010747,000000	2020-10-29T19:38:58:905
2017222,000000	2020-10-29T19:38:58:945
2025305,000000	2020-10-29T19:38:58:986
2034808,000000	2020-10-29T19:38:59:025
2043686,000000	2020-10-29T19:38:59:068
2051364,000000	2020-10-29T19:38:59:105
2058068,000000	2020-10-29T19:38:59:146
2064467,000000	2020-10-29T19:38:59:185
2071590,000000	2020-10-29T19:38:59:226
2077762,000000	2020-10-29T19:38:59:265
2085291,000000	2020-10-29T19:38:59:308
2092770,000000	2020-10-29T19:38:59:345
2097644,000000	2020-10-29T19:38:59:387
2097235,000000	2020-10-29T19:38:59:425
2096021,000000	2020-10-29T19:38:59:466
2097885,000000	2020-10-29T19:38:59:506
2103142,000000	2020-10-29T19:38:59:548
2112211,000000	2020-10-29T19:38:59:586
2127272,000000	2020-10-29T19:38:59:627
2147571,000000	2020-10-29T19:38:59:666
2162736,000000	2020-10-29T19:38:59:705
2169950,000000	2020-10-29T19:38:59:745
2172014,000000	2020-10-29T19:38:59:789
2172956,000000	2020-10-29T19:38:59:825
2174878,000000	2020-10-29T19:38:59:867
2178357,000000	2020-10-29T19:38:59:906
2183627,000000	2020-10-29T19:38:59:947
2188929,000000	2020-10-29T19:38:59:986
2187493,000000	2020-10-29T19:39:00:027
2179954,000000	2020-10-29T19:39:00:066
2173376,000000	2020-10-29T19:39:00:106
2169285,000000	2020-10-29T19:39:00:146
2168983,000000	2020-10-29T19:39:00:187
2169980,000000	2020-10-29T19:39:00:226
2171723,000000	2020-10-29T19:39:00:269
2174706,000000	2020-10-29T19:39:00:305
2177887,000000	2020-10-29T19:39:00:346
2179914,000000	2020-10-29T19:39:00:386
2182536,000000	2020-10-29T19:39:00:426
2186967,000000	2020-10-29T19:39:00:468
2186967,000000	2020-10-29T19:39:00:508
2189158,000000	2020-10-29T19:39:00:546
2190071,000000	2020-10-29T19:39:00:588
2184163,000000	2020-10-29T19:39:00:627
2178105,000000	2020-10-29T19:39:00:668
2175644,000000	2020-10-29T19:39:00:707
2176448,000000	2020-10-29T19:39:00:750
2178865,000000	2020-10-29T19:39:00:787
2182337,000000	2020-10-29T19:39:00:828
2184946,000000	2020-10-29T19:39:00:867
2185352,000000	2020-10-29T19:39:00:907
2185327,000000	2020-10-29T19:39:00:947
2184687,000000	2020-10-29T19:39:00:989
2187178,000000	2020-10-29T19:39:01:027
2191296,000000	2020-10-29T19:39:01:068
2197815,000000	2020-10-29T19:39:01:107
2205694,000000	2020-10-29T19:39:01:148
2206982,000000	2020-10-29T19:39:01:187
2201488,000000	2020-10-29T19:39:01:229
2194751,000000	2020-10-29T19:39:01:267
2191802,000000	2020-10-29T19:39:01:308
2192154,000000	2020-10-29T19:39:01:347
2195178,000000	2020-10-29T19:39:01:388
2199174,000000	2020-10-29T19:39:01:427
2202059,000000	2020-10-29T19:39:01:469
2204575,000000	2020-10-29T19:39:01:507
2206019,000000	2020-10-29T19:39:01:548
2207099,000000	2020-10-29T19:39:01:588
2207292,000000	2020-10-29T19:39:01:628
2208640,000000	2020-10-29T19:39:01:668
2210389,000000	2020-10-29T19:39:01:710
2212680,000000	2020-10-29T19:39:01:747
2208319,000000	2020-10-29T19:39:01:788
2199814,000000	2020-10-29T19:39:01:827
2192766,000000	2020-10-29T19:39:01:868
2188880,000000	2020-10-29T19:39:01:907
2187148,000000	2020-10-29T19:39:01:949
2188234,000000	2020-10-29T19:39:01:988
2190132,000000	2020-10-29T19:39:02:028
2192601,000000	2020-10-29T19:39:02:068
2193438,000000	2020-10-29T19:39:02:108
2192886,000000	2020-10-29T19:39:02:148
2191671,000000	2020-10-29T19:39:02:190
2190498,000000	2020-10-29T19:39:02:227
2189924,000000	2020-10-29T19:39:02:269
2190753,000000	2020-10-29T19:39:02:308
2188885,000000	2020-10-29T19:39:02:349
2177992,000000	2020-10-29T19:39:02:388
2164267,000000	2020-10-29T19:39:02:429
2153950,000000	2020-10-29T19:39:02:468
2148758,000000	2020-10-29T19:39:02:509
2147505,000000	2020-10-29T19:39:02:548
2148399,000000	2020-10-29T19:39:02:589
2148165,000000	2020-10-29T19:39:02:629
2147615,000000	2020-10-29T19:39:02:671
2145795,000000	2020-10-29T19:39:02:708
2146542,000000	2020-10-29T19:39:02:749
2148985,000000	2020-10-29T19:39:02:789
2152697,000000	2020-10-29T19:39:02:829
2156608,000000	2020-10-29T19:39:02:868
2160631,000000	2020-10-29T19:39:02:916
2160710,000000	2020-10-29T19:39:02:953
2151040,000000	2020-10-29T19:39:02:990
2139408,000000	2020-10-29T19:39:03:028
2131988,000000	2020-10-29T19:39:03:070
2129707,000000	2020-10-29T19:39:03:109
2132093,000000	2020-10-29T19:39:03:151
2136644,000000	2020-10-29T19:39:03:189
2141253,000000	2020-10-29T19:39:03:230
2143533,000000	2020-10-29T19:39:03:269
2146022,000000	2020-10-29T19:39:03:310
2149702,000000	2020-10-29T19:39:03:349
2152955,000000	2020-10-29T19:39:03:392
2156901,000000	2020-10-29T19:39:03:429
2160435,000000	2020-10-29T19:39:03:470
2166984,000000	2020-10-29T19:39:03:509
2170557,000000	2020-10-29T19:39:03:550
2166303,000000	2020-10-29T19:39:03:589
2160633,000000	2020-10-29T19:39:03:632
2156698,000000	2020-10-29T19:39:03:669
2155484,000000	2020-10-29T19:39:03:710
2156003,000000	2020-10-29T19:39:03:749
2157765,000000	2020-10-29T19:39:03:791
2156920,000000	2020-10-29T19:39:03:829
2154669,000000	2020-10-29T19:39:03:872
2151398,000000	2020-10-29T19:39:03:910
2148410,000000	2020-10-29T19:39:03:950
2144584,000000	2020-10-29T19:39:03:989
2132013,000000	2020-10-29T19:39:04:031
2100023,000000	2020-10-29T19:39:04:071
2080203,000000	2020-10-29T19:39:04:113
2068910,000000	2020-10-29T19:39:04:236
2021816,000000	2020-10-29T19:39:04:240
1952516,000000	2020-10-29T19:39:04:284
1914944,000000	2020-10-29T19:39:04:285
1899884,000000	2020-10-29T19:39:04:352
1892738,000000	2020-10-29T19:39:04:354
1889704,000000	2020-10-29T19:39:04:388
1886459,000000	2020-10-29T19:39:04:431
1885405,000000	2020-10-29T19:39:04:470
1886795,000000	2020-10-29T19:39:04:511
1890401,000000	2020-10-29T19:39:04:551
1894498,000000	2020-10-29T19:39:04:592
1897897,000000	2020-10-29T19:39:04:630
1901598,000000	2020-10-29T19:39:04:675
1902132,000000	2020-10-29T19:39:04:711
1901331,000000	2020-10-29T19:39:04:751
1899129,000000	2020-10-29T19:39:04:790
1897359,000000	2020-10-29T19:39:04:833
1897828,000000	2020-10-29T19:39:04:870
1898937,000000	2020-10-29T19:39:04:911
1899652,000000	2020-10-29T19:39:04:950
1900025,000000	2020-10-29T19:39:05:002
1908401,000000	2020-10-29T19:39:27:126
1919884,000000	2020-10-29T19:39:27:142
1930716,000000	2020-10-29T19:39:27:193
1940467,000000	2020-10-29T19:39:27:218
1947784,000000	2020-10-29T19:39:27:258
1955577,000000	2020-10-29T19:39:27:299
1963167,000000	2020-10-29T19:39:27:341
1968570,000000	2020-10-29T19:39:27:379
1974902,000000	2020-10-29T19:39:27:419
1979328,000000	2020-10-29T19:39:27:461
1976278,000000	2020-10-29T19:39:27:500
1970298,000000	2020-10-29T19:39:27:538
1967166,000000	2020-10-29T19:39:27:580
1968524,000000	2020-10-29T19:39:27:618
1973558,000000	2020-10-29T19:39:27:660
1980522,000000	2020-10-29T19:39:27:700
1987407,000000	2020-10-29T19:39:27:739
1994041,000000	2020-10-29T19:39:27:779
1999619,000000	2020-10-29T19:39:27:820
2005147,000000	2020-10-29T19:39:27:859
2011069,000000	2020-10-29T19:39:27:900
2016792,000000	2020-10-29T19:39:27:940
2024048,000000	2020-10-29T19:39:27:980
2030540,000000	2020-10-29T19:39:28:019
2031556,000000	2020-10-29T19:39:28:060
2025472,000000	2020-10-29T19:39:28:099
2019490,000000	2020-10-29T19:39:28:140
2017444,000000	2020-10-29T19:39:28:181
2019258,000000	2020-10-29T19:39:28:220
2023856,000000	2020-10-29T19:39:28:259
2030528,000000	2020-10-29T19:39:28:300
2037827,000000	2020-10-29T19:39:28:339
2044167,000000	2020-10-29T19:39:28:381
2050417,000000	2020-10-29T19:39:28:420
2056270,000000	2020-10-29T19:39:28:461
2062602,000000	2020-10-29T19:39:28:499
2070193,000000	2020-10-29T19:39:28:541
2077931,000000	2020-10-29T19:39:28:579
2084855,000000	2020-10-29T19:39:28:620
2086635,000000	2020-10-29T19:39:28:661
2082182,000000	2020-10-29T19:39:28:700
2078312,000000	2020-10-29T19:39:28:739
2079316,000000	2020-10-29T19:39:28:781
2083720,000000	2020-10-29T19:39:28:819
2090702,000000	2020-10-29T19:39:28:860
2098898,000000	2020-10-29T19:39:28:900
2107139,000000	2020-10-29T19:39:28:941
2115430,000000	2020-10-29T19:39:28:980
2123217,000000	2020-10-29T19:39:29:021
2130170,000000	2020-10-29T19:39:29:060
2137651,000000	2020-10-29T19:39:29:101
2145098,000000	2020-10-29T19:39:29:141
2152330,000000	2020-10-29T19:39:29:181
2157952,000000	2020-10-29T19:39:29:220
2161545,000000	2020-10-29T19:39:29:261
2156513,000000	2020-10-29T19:39:29:300
2149079,000000	2020-10-29T19:39:29:341
2143686,000000	2020-10-29T19:39:29:382
2141624,000000	2020-10-29T19:39:29:421
2142485,000000	2020-10-29T19:39:29:461
2145527,000000	2020-10-29T19:39:29:501
2149467,000000	2020-10-29T19:39:29:540
2150710,000000	2020-10-29T19:39:29:582
2149637,000000	2020-10-29T19:39:29:623
2147788,000000	2020-10-29T19:39:29:662
2146711,000000	2020-10-29T19:39:29:700
2147705,000000	2020-10-29T19:39:29:742
2149773,000000	2020-10-29T19:39:29:781
2152811,000000	2020-10-29T19:39:29:822
2153810,000000	2020-10-29T19:39:29:862
2144722,000000	2020-10-29T19:39:29:917
2131212,000000	2020-10-29T19:39:29:941
2120602,000000	2020-10-29T19:39:29:982
2113814,000000	2020-10-29T19:39:30:021
2110542,000000	2020-10-29T19:39:30:062
2110564,000000	2020-10-29T19:39:30:103
2113662,000000	2020-10-29T19:39:30:142
2118474,000000	2020-10-29T19:39:30:181
2123213,000000	2020-10-29T19:39:30:223
2128422,000000	2020-10-29T19:39:30:261
2133259,000000	2020-10-29T19:39:30:302
2137579,000000	2020-10-29T19:39:30:342
2139879,000000	2020-10-29T19:39:30:383
2139117,000000	2020-10-29T19:39:30:421
2139480,000000	2020-10-29T19:39:30:463
2133519,000000	2020-10-29T19:39:30:501
2122258,000000	2020-10-29T19:39:30:543
2113894,000000	2020-10-29T19:39:30:583
2109658,000000	2020-10-29T19:39:30:622
2106726,000000	2020-10-29T19:39:30:662
2107188,000000	2020-10-29T19:39:30:702
2111394,000000	2020-10-29T19:39:30:742
2119313,000000	2020-10-29T19:39:30:783
2130076,000000	2020-10-29T19:39:30:823
2140405,000000	2020-10-29T19:39:30:863
2151457,000000	2020-10-29T19:39:30:902
2165821,000000	2020-10-29T19:39:30:943
2179832,000000	2020-10-29T19:39:30:982
2191187,000000	2020-10-29T19:39:31:023
2197492,000000	2020-10-29T19:39:31:064
2196361,000000	2020-10-29T19:39:31:103
2182424,000000	2020-10-29T19:39:31:142
2164438,000000	2020-10-29T19:39:31:184
2150708,000000	2020-10-29T19:39:31:222
2143236,000000	2020-10-29T19:39:31:263
2139858,000000	2020-10-29T19:39:31:304
2138946,000000	2020-10-29T19:39:31:343
2138068,000000	2020-10-29T19:39:31:383
2137616,000000	2020-10-29T19:39:31:423
2135984,000000	2020-10-29T19:39:31:463
2132929,000000	2020-10-29T19:39:31:503
2129427,000000	2020-10-29T19:39:31:544
2127517,000000	2020-10-29T19:39:31:584
2126672,000000	2020-10-29T19:39:31:623
2126840,000000	2020-10-29T19:39:31:664
2127747,000000	2020-10-29T19:39:31:702
2122383,000000	2020-10-29T19:39:31:744
2105665,000000	2020-10-29T19:39:31:785
2094812,000000	2020-10-29T19:39:31:824
2096375,000000	2020-10-29T19:39:31:862
2096674,000000	2020-10-29T19:39:31:903
2097015,000000	2020-10-29T19:39:31:942
2102914,000000	2020-10-29T19:39:31:984
2111342,000000	2020-10-29T19:39:32:025
2114753,000000	2020-10-29T19:39:32:064
2116802,000000	2020-10-29T19:39:32:103
2129327,000000	2020-10-29T19:39:32:148
2149969,000000	2020-10-29T19:39:32:183
2175636,000000	2020-10-29T19:39:32:224
2196960,000000	2020-10-29T19:39:32:265
2218640,000000	2020-10-29T19:39:32:304
2243022,000000	2020-10-29T19:39:32:343
2264175,000000	2020-10-29T19:39:32:386
2275139,000000	2020-10-29T19:39:32:423
2282993,000000	2020-10-29T19:39:32:465
2292058,000000	2020-10-29T19:39:32:505
2301594,000000	2020-10-29T19:39:32:545
2311546,000000	2020-10-29T19:39:32:584
2320546,000000	2020-10-29T19:39:32:625
2328337,000000	2020-10-29T19:39:32:663
2333855,000000	2020-10-29T19:39:32:705
2338012,000000	2020-10-29T19:39:32:744
2340010,000000	2020-10-29T19:39:32:785
2339560,000000	2020-10-29T19:39:32:824
2339287,000000	2020-10-29T19:39:32:865
2340827,000000	2020-10-29T19:39:32:903
2339606,000000	2020-10-29T19:39:32:945
2336770,000000	2020-10-29T19:39:32:986
2335206,000000	2020-10-29T19:39:33:025
2334721,000000	2020-10-29T19:39:33:064
2335031,000000	2020-10-29T19:39:33:105
2335951,000000	2020-10-29T19:39:33:144
2338527,000000	2020-10-29T19:39:33:185
2340714,000000	2020-10-29T19:39:33:227
2342412,000000	2020-10-29T19:39:33:265
2343834,000000	2020-10-29T19:39:33:304
2344561,000000	2020-10-29T19:39:33:346
2344644,000000	2020-10-29T19:39:33:385
2343953,000000	2020-10-29T19:39:33:425
2342150,000000	2020-10-29T19:39:33:466
2340294,000000	2020-10-29T19:39:33:505
2340200,000000	2020-10-29T19:39:33:545
2342096,000000	2020-10-29T19:39:33:586
2339683,000000	2020-10-29T19:39:33:624
2334300,000000	2020-10-29T19:39:33:666
2332061,000000	2020-10-29T19:39:33:707
2335442,000000	2020-10-29T19:39:33:746
2344738,000000	2020-10-29T19:39:33:784
2348666,000000	2020-10-29T19:39:33:826
2352957,000000	2020-10-29T19:39:33:865
2364756,000000	2020-10-29T19:39:33:905
2380613,000000	2020-10-29T19:39:33:946
2389290,000000	2020-10-29T19:39:33:987
2400678,000000	2020-10-29T19:39:34:025
2420637,000000	2020-10-29T19:39:34:068
2420637,000000	2020-10-29T19:39:34:105
2423300,000000	2020-10-29T19:39:34:148
2418763,000000	2020-10-29T19:39:34:188
2403576,000000	2020-10-29T19:39:34:228
2377567,000000	2020-10-29T19:39:34:267
2352232,000000	2020-10-29T19:39:34:307
2333226,000000	2020-10-29T19:39:34:346
2322279,000000	2020-10-29T19:39:34:387
2317542,000000	2020-10-29T19:39:34:428
2313172,000000	2020-10-29T19:39:34:467
2309621,000000	2020-10-29T19:39:34:506
2306470,000000	2020-10-29T19:39:34:547
2300570,000000	2020-10-29T19:39:34:586
2291533,000000	2020-10-29T19:39:34:627
2281397,000000	2020-10-29T19:39:34:669
2269091,000000	2020-10-29T19:39:34:707
2257013,000000	2020-10-29T19:39:34:745
2240724,000000	2020-10-29T19:39:34:787
2205460,000000	2020-10-29T19:39:34:825
2158375,000000	2020-10-29T19:39:34:867
2114736,000000	2020-10-29T19:39:34:907
2082573,000000	2020-10-29T19:39:34:947
2059510,000000	2020-10-29T19:39:34:986
2042462,000000	2020-10-29T19:39:35:027
2030299,000000	2020-10-29T19:39:35:066
2018916,000000	2020-10-29T19:39:35:107
2006331,000000	2020-10-29T19:39:35:147
1991648,000000	2020-10-29T19:39:35:187
1976473,000000	2020-10-29T19:39:35:227
1961891,000000	2020-10-29T19:39:35:269
1950845,000000	2020-10-29T19:39:35:306
1942246,000000	2020-10-29T19:39:35:347
1936501,000000	2020-10-29T19:39:35:388
1919554,000000	2020-10-29T19:39:35:427
1886506,000000	2020-10-29T19:39:35:467
1852954,000000	2020-10-29T19:39:35:508
1828862,000000	2020-10-29T19:39:35:546
1812764,000000	2020-10-29T19:39:35:588
1805807,000000	2020-10-29T19:39:35:628
1804043,000000	2020-10-29T19:39:35:667
1808314,000000	2020-10-29T19:39:35:707
1810907,000000	2020-10-29T19:39:35:747
1808454,000000	2020-10-29T19:39:35:787
1804791,000000	2020-10-29T19:39:35:828
1802987,000000	2020-10-29T19:39:35:868
1804237,000000	2020-10-29T19:39:35:908
1806656,000000	2020-10-29T19:39:35:946
1807974,000000	2020-10-29T19:39:35:988
1793855,000000	2020-10-29T19:39:36:027
1765491,000000	2020-10-29T19:39:36:068
1738809,000000	2020-10-29T19:39:36:108
1722859,000000	2020-10-29T19:39:36:148
1715966,000000	2020-10-29T19:39:36:188
1714927,000000	2020-10-29T19:39:36:229
1718159,000000	2020-10-29T19:39:36:267
1721861,000000	2020-10-29T19:39:36:308
1724064,000000	2020-10-29T19:39:36:349
1726140,000000	2020-10-29T19:39:36:388
1730018,000000	2020-10-29T19:39:36:427
1733208,000000	2020-10-29T19:39:36:469
1733640,000000	2020-10-29T19:39:36:507
1734427,000000	2020-10-29T19:39:36:548
1738222,000000	2020-10-29T19:39:36:589
1731079,000000	2020-10-29T19:39:36:628
1713863,000000	2020-10-29T19:39:36:667
1698744,000000	2020-10-29T19:39:36:709
1691819,000000	2020-10-29T19:39:36:747
1693420,000000	2020-10-29T19:39:36:789
1700869,000000	2020-10-29T19:39:36:829
1712104,000000	2020-10-29T19:39:36:869
1724079,000000	2020-10-29T19:39:36:912
1736592,000000	2020-10-29T19:39:36:950
1747276,000000	2020-10-29T19:39:36:988
1755750,000000	2020-10-29T19:39:37:029
1763324,000000	2020-10-29T19:39:37:070
1766995,000000	2020-10-29T19:39:37:110
1773311,000000	2020-10-29T19:39:37:154
1784706,000000	2020-10-29T19:39:37:190
1787257,000000	2020-10-29T19:39:37:228
1777579,000000	2020-10-29T19:39:37:269
1769740,000000	2020-10-29T19:39:37:310
1767422,000000	2020-10-29T19:39:37:349
1771420,000000	2020-10-29T19:39:37:390
1780926,000000	2020-10-29T19:39:37:429
1795829,000000	2020-10-29T19:39:37:471
1812484,000000	2020-10-29T19:39:37:515
1827558,000000	2020-10-29T19:39:37:550
1840005,000000	2020-10-29T19:39:37:589
1850606,000000	2020-10-29T19:39:37:628
1859857,000000	2020-10-29T19:39:37:670
1869206,000000	2020-10-29T19:39:37:708
1879203,000000	2020-10-29T19:39:37:749
1887107,000000	2020-10-29T19:39:37:791
1883874,000000	2020-10-29T19:39:37:829
1875814,000000	2020-10-29T19:39:37:868
1867789,000000	2020-10-29T19:39:37:910
1864427,000000	2020-10-29T19:39:37:948
1866504,000000	2020-10-29T19:39:37:989
1870904,000000	2020-10-29T19:39:38:029
1875313,000000	2020-10-29T19:39:38:069
1879440,000000	2020-10-29T19:39:38:108
1885824,000000	2020-10-29T19:39:38:149
1893211,000000	2020-10-29T19:39:38:189
1900515,000000	2020-10-29T19:39:38:230
1909367,000000	2020-10-29T19:39:38:271
1919345,000000	2020-10-29T19:39:38:309
1928967,000000	2020-10-29T19:39:38:349
1930689,000000	2020-10-29T19:39:38:390
1927150,000000	2020-10-29T19:39:38:429
1924927,000000	2020-10-29T19:39:38:470
1927096,000000	2020-10-29T19:39:38:510
1932929,000000	2020-10-29T19:39:38:550
1941317,000000	2020-10-29T19:39:38:589
1951254,000000	2020-10-29T19:39:38:630
1960335,000000	2020-10-29T19:39:38:670
1968823,000000	2020-10-29T19:39:38:710
1977970,000000	2020-10-29T19:39:38:751
1988951,000000	2020-10-29T19:39:38:791
1999954,000000	2020-10-29T19:39:38:829
2009621,000000	2020-10-29T19:39:38:871
2019421,000000	2020-10-29T19:39:38:909
2024229,000000	2020-10-29T19:39:38:950
2023222,000000	2020-10-29T19:39:38:991
2021173,000000	2020-10-29T19:39:39:030
2022877,000000	2020-10-29T19:39:39:070
2027387,000000	2020-10-29T19:39:39:110
2032592,000000	2020-10-29T19:39:39:150
2039185,000000	2020-10-29T19:39:39:191
2045131,000000	2020-10-29T19:39:39:231
2048171,000000	2020-10-29T19:39:39:271
2049613,000000	2020-10-29T19:39:39:309
2053454,000000	2020-10-29T19:39:39:351
2057993,000000	2020-10-29T19:39:39:390
2062403,000000	2020-10-29T19:39:39:430
2068130,000000	2020-10-29T19:39:39:471
2073416,000000	2020-10-29T19:39:39:511
2072211,000000	2020-10-29T19:39:39:550
2069603,000000	2020-10-29T19:39:39:591
2070424,000000	2020-10-29T19:39:39:630
2075850,000000	2020-10-29T19:39:39:671
2083887,000000	2020-10-29T19:39:39:712
2093129,000000	2020-10-29T19:39:39:751
2101540,000000	2020-10-29T19:39:39:791
2109190,000000	2020-10-29T19:39:39:831
2115514,000000	2020-10-29T19:39:39:870
2122166,000000	2020-10-29T19:39:39:911
2128056,000000	2020-10-29T19:39:39:952
2134294,000000	2020-10-29T19:39:39:992
2141122,000000	2020-10-29T19:39:40:031
2147286,000000	2020-10-29T19:39:40:071
2147706,000000	2020-10-29T19:39:40:111
2146113,000000	2020-10-29T19:39:40:152
2147260,000000	2020-10-29T19:39:40:192
2149705,000000	2020-10-29T19:39:40:232
2155473,000000	2020-10-29T19:39:40:271
2164471,000000	2020-10-29T19:39:40:312
2174474,000000	2020-10-29T19:39:40:351
2183604,000000	2020-10-29T19:39:40:392
2191894,000000	2020-10-29T19:39:40:432
2198782,000000	2020-10-29T19:39:40:472
2204792,000000	2020-10-29T19:39:40:511
2211491,000000	2020-10-29T19:39:40:552
2218814,000000	2020-10-29T19:39:40:591
2224414,000000	2020-10-29T19:39:40:632
2223519,000000	2020-10-29T19:39:40:673
2220671,000000	2020-10-29T19:39:40:712
2220071,000000	2020-10-29T19:39:40:751
2222127,000000	2020-10-29T19:39:40:793
2227113,000000	2020-10-29T19:39:40:831
2234122,000000	2020-10-29T19:39:40:874
2241838,000000	2020-10-29T19:39:40:913
2248435,000000	2020-10-29T19:39:40:953
2252013,000000	2020-10-29T19:39:40:991
2254553,000000	2020-10-29T19:39:41:033
2257706,000000	2020-10-29T19:39:41:072
2262513,000000	2020-10-29T19:39:41:113
2268950,000000	2020-10-29T19:39:41:153
2274350,000000	2020-10-29T19:39:41:192
2274236,000000	2020-10-29T19:39:41:232
2272195,000000	2020-10-29T19:39:41:273
2271935,000000	2020-10-29T19:39:41:311
2274400,000000	2020-10-29T19:39:41:353
2278669,000000	2020-10-29T19:39:41:394
2284622,000000	2020-10-29T19:39:41:433
2289918,000000	2020-10-29T19:39:41:472
2295248,000000	2020-10-29T19:39:41:513
2299401,000000	2020-10-29T19:39:41:552
2301553,000000	2020-10-29T19:39:41:593
2304339,000000	2020-10-29T19:39:41:633
2307248,000000	2020-10-29T19:39:41:673
2310137,000000	2020-10-29T19:39:41:712
2313567,000000	2020-10-29T19:39:41:753
2312184,000000	2020-10-29T19:39:41:792
2305118,000000	2020-10-29T19:39:41:833
2297680,000000	2020-10-29T19:39:41:877
2294226,000000	2020-10-29T19:39:41:913
2293413,000000	2020-10-29T19:39:41:953
2294544,000000	2020-10-29T19:39:41:994
2296740,000000	2020-10-29T19:39:42:032
2298887,000000	2020-10-29T19:39:42:074
2300683,000000	2020-10-29T19:39:42:114
2302612,000000	2020-10-29T19:39:42:155
2305526,000000	2020-10-29T19:39:42:193
2308623,000000	2020-10-29T19:39:42:234
2311446,000000	2020-10-29T19:39:42:273
2314768,000000	2020-10-29T19:39:42:314
2313568,000000	2020-10-29T19:39:42:355
2305979,000000	2020-10-29T19:39:42:395
2297851,000000	2020-10-29T19:39:42:433
2293300,000000	2020-10-29T19:39:42:474
2292160,000000	2020-10-29T19:39:42:513
2293141,000000	2020-10-29T19:39:42:554
2294874,000000	2020-10-29T19:39:42:595
2296103,000000	2020-10-29T19:39:42:634
2297275,000000	2020-10-29T19:39:42:673
2299083,000000	2020-10-29T19:39:42:714
2300458,000000	2020-10-29T19:39:42:753
2301381,000000	2020-10-29T19:39:42:795
2303801,000000	2020-10-29T19:39:42:835
2305990,000000	2020-10-29T19:39:42:875
2303502,000000	2020-10-29T19:39:42:913
2289410,000000	2020-10-29T19:39:42:954
2273687,000000	2020-10-29T19:39:42:994
2262023,000000	2020-10-29T19:39:43:034
2253559,000000	2020-10-29T19:39:43:075
2253412,000000	2020-10-29T19:39:43:115
2250677,000000	2020-10-29T19:39:43:152
2248043,000000	2020-10-29T19:39:43:195
2244736,000000	2020-10-29T19:39:43:234
2241970,000000	2020-10-29T19:39:43:274
2241399,000000	2020-10-29T19:39:43:315
2243093,000000	2020-10-29T19:39:43:354
2246820,000000	2020-10-29T19:39:43:394
2250473,000000	2020-10-29T19:39:43:434
2252298,000000	2020-10-29T19:39:43:474
2245919,000000	2020-10-29T19:39:43:514
2233681,000000	2020-10-29T19:39:43:555
2217705,000000	2020-10-29T19:39:43:595
2202346,000000	2020-10-29T19:39:43:634
2190423,000000	2020-10-29T19:39:43:675
2180851,000000	2020-10-29T19:39:43:714
2174306,000000	2020-10-29T19:39:43:755
2170401,000000	2020-10-29T19:39:43:795
2170978,000000	2020-10-29T19:39:43:835
2174018,000000	2020-10-29T19:39:43:875
2179972,000000	2020-10-29T19:39:43:915
2187886,000000	2020-10-29T19:39:43:954
2196154,000000	2020-10-29T19:39:43:995
2204668,000000	2020-10-29T19:39:44:035
2211739,000000	2020-10-29T19:39:44:075
2217133,000000	2020-10-29T19:39:44:114
2214854,000000	2020-10-29T19:39:44:156
2206113,000000	2020-10-29T19:39:44:194
2197073,000000	2020-10-29T19:39:44:236
2193921,000000	2020-10-29T19:39:44:276
2195390,000000	2020-10-29T19:39:44:316
2198754,000000	2020-10-29T19:39:44:355
2202945,000000	2020-10-29T19:39:44:396
2206747,000000	2020-10-29T19:39:44:434
2207990,000000	2020-10-29T19:39:44:476
2208170,000000	2020-10-29T19:39:44:516
2209519,000000	2020-10-29T19:39:44:556
2211926,000000	2020-10-29T19:39:44:595
2215309,000000	2020-10-29T19:39:44:635
2218989,000000	2020-10-29T19:39:44:676
2223231,000000	2020-10-29T19:39:44:716
2224709,000000	2020-10-29T19:39:44:758
2216902,000000	2020-10-29T19:39:44:797
2203679,000000	2020-10-29T19:39:44:835
2193602,000000	2020-10-29T19:39:44:877
2189092,000000	2020-10-29T19:39:44:916
2187562,000000	2020-10-29T19:39:44:957
2188869,000000	2020-10-29T19:39:44:998
2189916,000000	2020-10-29T19:39:45:037
2190920,000000	2020-10-29T19:39:45:076
2190629,000000	2020-10-29T19:39:45:117
2190654,000000	2020-10-29T19:39:45:155
2190536,000000	2020-10-29T19:39:45:197
2191865,000000	2020-10-29T19:39:45:239
2193824,000000	2020-10-29T19:39:45:277
2196044,000000	2020-10-29T19:39:45:316
2198117,000000	2020-10-29T19:39:45:357
2191220,000000	2020-10-29T19:39:45:396
2174789,000000	2020-10-29T19:39:45:436
2159937,000000	2020-10-29T19:39:45:477
2151669,000000	2020-10-29T19:39:45:517
2147551,000000	2020-10-29T19:39:45:557
2146285,000000	2020-10-29T19:39:45:597
2146159,000000	2020-10-29T19:39:45:636
2146607,000000	2020-10-29T19:39:45:678
2146043,000000	2020-10-29T19:39:45:718
2144657,000000	2020-10-29T19:39:45:757
2143194,000000	2020-10-29T19:39:45:797
2143680,000000	2020-10-29T19:39:45:837
2144677,000000	2020-10-29T19:39:45:877
2146717,000000	2020-10-29T19:39:45:917
2148921,000000	2020-10-29T19:39:45:959
2150812,000000	2020-10-29T19:39:45:998
2145405,000000	2020-10-29T19:39:46:037
2128205,000000	2020-10-29T19:39:46:077
2111563,000000	2020-10-29T19:39:46:116
2101222,000000	2020-10-29T19:39:46:158
2095808,000000	2020-10-29T19:39:46:199
2094187,000000	2020-10-29T19:39:46:238
2093747,000000	2020-10-29T19:39:46:277
2094234,000000	2020-10-29T19:39:46:319
2094117,000000	2020-10-29T19:39:46:357
2092749,000000	2020-10-29T19:39:46:399
2092138,000000	2020-10-29T19:39:46:438
2092212,000000	2020-10-29T19:39:46:479
2094052,000000	2020-10-29T19:39:46:517
2097562,000000	2020-10-29T19:39:46:558
2102139,000000	2020-10-29T19:39:46:598
2106165,000000	2020-10-29T19:39:46:638
2109705,000000	2020-10-29T19:39:46:679
2114706,000000	2020-10-29T19:39:46:718
2119855,000000	2020-10-29T19:39:46:757
2120083,000000	2020-10-29T19:39:46:799
2117115,000000	2020-10-29T19:39:46:839
2115904,000000	2020-10-29T19:39:46:879
2116577,000000	2020-10-29T19:39:46:919
2119884,000000	2020-10-29T19:39:46:959
2123784,000000	2020-10-29T19:39:46:998
2128658,000000	2020-10-29T19:39:47:039
2135106,000000	2020-10-29T19:39:47:078
2144634,000000	2020-10-29T19:39:47:119
2155197,000000	2020-10-29T19:39:47:189
2166793,000000	2020-10-29T19:39:47:202
2172835,000000	2020-10-29T19:39:47:238
2177386,000000	2020-10-29T19:39:47:279
2183477,000000	2020-10-29T19:39:47:318
2193268,000000	2020-10-29T19:39:47:359
2205888,000000	2020-10-29T19:39:47:400
2221374,000000	2020-10-29T19:39:47:439
2237191,000000	2020-10-29T19:39:47:479
2251736,000000	2020-10-29T19:39:47:519
2270672,000000	2020-10-29T19:39:47:558
2298880,000000	2020-10-29T19:39:47:599
2330976,000000	2020-10-29T19:39:47:639
2358388,000000	2020-10-29T19:39:47:680
2384152,000000	2020-10-29T19:39:47:719
2402463,000000	2020-10-29T19:39:47:759
2414370,000000	2020-10-29T19:39:47:799
2420009,000000	2020-10-29T19:39:47:840
2429296,000000	2020-10-29T19:39:47:880
2434697,000000	2020-10-29T19:39:47:920
2433224,000000	2020-10-29T19:39:47:959
2435017,000000	2020-10-29T19:39:48:000
2438298,000000	2020-10-29T19:39:48:039
2437077,000000	2020-10-29T19:39:48:080
2434510,000000	2020-10-29T19:39:48:120
2430385,000000	2020-10-29T19:39:48:159
2417450,000000	2020-10-29T19:39:48:199
2399160,000000	2020-10-29T19:39:48:241
2379822,000000	2020-10-29T19:39:48:279
2363938,000000	2020-10-29T19:39:48:319
2351820,000000	2020-10-29T19:39:48:359
2343102,000000	2020-10-29T19:39:48:401
2335856,000000	2020-10-29T19:39:48:439
2329586,000000	2020-10-29T19:39:48:481
2321839,000000	2020-10-29T19:39:48:519
2312433,000000	2020-10-29T19:39:48:560
2303145,000000	2020-10-29T19:39:48:601
2294308,000000	2020-10-29T19:39:48:640
2287437,000000	2020-10-29T19:39:48:680
2282128,000000	2020-10-29T19:39:48:720
2277583,000000	2020-10-29T19:39:48:759
2274196,000000	2020-10-29T19:39:48:801
2265207,000000	2020-10-29T19:39:48:841
2243504,000000	2020-10-29T19:39:48:881
2217379,000000	2020-10-29T19:39:48:919
2198765,000000	2020-10-29T19:39:48:961
2187891,000000	2020-10-29T19:39:49:000
2183237,000000	2020-10-29T19:39:49:040
2182796,000000	2020-10-29T19:39:49:082
2183049,000000	2020-10-29T19:39:49:120
2181979,000000	2020-10-29T19:39:49:160
2177946,000000	2020-10-29T19:39:49:201
2172880,000000	2020-10-29T19:39:49:240
2169202,000000	2020-10-29T19:39:49:281
2168768,000000	2020-10-29T19:39:49:321
2169474,000000	2020-10-29T19:39:49:361
2171860,000000	2020-10-29T19:39:49:401
2172569,000000	2020-10-29T19:39:49:441
2160102,000000	2020-10-29T19:39:49:480
2140374,000000	2020-10-29T19:39:49:521
2122118,000000	2020-10-29T19:39:49:562
2111006,000000	2020-10-29T19:39:49:601
2104526,000000	2020-10-29T19:39:49:640
2101566,000000	2020-10-29T19:39:49:681
2101298,000000	2020-10-29T19:39:49:721
2100971,000000	2020-10-29T19:39:49:761
2097798,000000	2020-10-29T19:39:49:803
2095374,000000	2020-10-29T19:39:49:841
2094800,000000	2020-10-29T19:39:49:883
2096006,000000	2020-10-29T19:39:49:921
2096349,000000	2020-10-29T19:39:49:961
2094167,000000	2020-10-29T19:39:50:001
2092154,000000	2020-10-29T19:39:50:041
2085499,000000	2020-10-29T19:39:50:082
2068954,000000	2020-10-29T19:39:50:121
2046713,000000	2020-10-29T19:39:50:162
2030794,000000	2020-10-29T19:39:50:201
2022814,000000	2020-10-29T19:39:50:242
2020696,000000	2020-10-29T19:39:50:282
2022387,000000	2020-10-29T19:39:50:322
2025699,000000	2020-10-29T19:39:50:361
2029115,000000	2020-10-29T19:39:50:403
2030957,000000	2020-10-29T19:39:50:441
2030474,000000	2020-10-29T19:39:50:483
2030482,000000	2020-10-29T19:39:50:523
2029178,000000	2020-10-29T19:39:50:562
2029663,000000	2020-10-29T19:39:50:601
2033530,000000	2020-10-29T19:39:50:642
2038710,000000	2020-10-29T19:39:50:682
2032568,000000	2020-10-29T19:39:50:722
2017011,000000	2020-10-29T19:39:50:763
2002174,000000	2020-10-29T19:39:50:802
1994969,000000	2020-10-29T19:39:50:841
1994964,000000	2020-10-29T19:39:50:883
1998906,000000	2020-10-29T19:39:50:921
2004229,000000	2020-10-29T19:39:50:962
2009265,000000	2020-10-29T19:39:51:003
2013545,000000	2020-10-29T19:39:51:043
2016094,000000	2020-10-29T19:39:51:082
2017844,000000	2020-10-29T19:39:51:122
2020751,000000	2020-10-29T19:39:51:161
2024123,000000	2020-10-29T19:39:51:203
2027277,000000	2020-10-29T19:39:51:243
2029995,000000	2020-10-29T19:39:51:283
2024429,000000	2020-10-29T19:39:51:322
2009289,000000	2020-10-29T19:39:51:363
1988204,000000	2020-10-29T19:39:51:403
1973228,000000	2020-10-29T19:39:51:443
1967051,000000	2020-10-29T19:39:51:484
1965767,000000	2020-10-29T19:39:51:523
1967713,000000	2020-10-29T19:39:51:562
1970758,000000	2020-10-29T19:39:51:603
1974062,000000	2020-10-29T19:39:51:642
1974387,000000	2020-10-29T19:39:51:684
1974576,000000	2020-10-29T19:39:51:725
1975065,000000	2020-10-29T19:39:51:764
1977428,000000	2020-10-29T19:39:51:803
1980429,000000	2020-10-29T19:39:51:844
1975416,000000	2020-10-29T19:39:51:883
1957538,000000	2020-10-29T19:39:51:924
1939861,000000	2020-10-29T19:39:51:966
1929827,000000	2020-10-29T19:39:52:004
1927679,000000	2020-10-29T19:39:52:043
1931036,000000	2020-10-29T19:39:52:084
1940338,000000	2020-10-29T19:39:52:122
1952181,000000	2020-10-29T19:39:52:167
1962098,000000	2020-10-29T19:39:52:204
1968604,000000	2020-10-29T19:39:52:244
1974575,000000	2020-10-29T19:39:52:283
1982242,000000	2020-10-29T19:39:52:328
1990766,000000	2020-10-29T19:39:52:363
1999823,000000	2020-10-29T19:39:52:405
2008624,000000	2020-10-29T19:39:52:444
2014991,000000	2020-10-29T19:39:52:484
2008684,000000	2020-10-29T19:39:52:523
1994915,000000	2020-10-29T19:39:52:564
1983059,000000	2020-10-29T19:39:52:603
1976703,000000	2020-10-29T19:39:52:643
1975450,000000	2020-10-29T19:39:52:684
1976504,000000	2020-10-29T19:39:52:724
1977156,000000	2020-10-29T19:39:52:763
1979033,000000	2020-10-29T19:39:52:804
1978669,000000	2020-10-29T19:39:52:843
1979744,000000	2020-10-29T19:39:52:885
1979978,000000	2020-10-29T19:39:52:925
1980257,000000	2020-10-29T19:39:52:964
1981141,000000	2020-10-29T19:39:53:004
1982345,000000	2020-10-29T19:39:53:045
1978180,000000	2020-10-29T19:39:53:084
1962350,000000	2020-10-29T19:39:53:124
1945092,000000	2020-10-29T19:39:53:165
1933349,000000	2020-10-29T19:39:53:205
1928026,000000	2020-10-29T19:39:53:244
1927247,000000	2020-10-29T19:39:53:285
1930102,000000	2020-10-29T19:39:53:324
1933247,000000	2020-10-29T19:39:53:365
1934727,000000	2020-10-29T19:39:53:406
1934387,000000	2020-10-29T19:39:53:445
1932635,000000	2020-10-29T19:39:53:484
1929828,000000	2020-10-29T19:39:53:525
1928374,000000	2020-10-29T19:39:53:564
1929527,000000	2020-10-29T19:39:53:605
1932355,000000	2020-10-29T19:39:53:646
1926811,000000	2020-10-29T19:39:53:686
1917980,000000	2020-10-29T19:39:53:724
1912842,000000	2020-10-29T19:39:53:766
1909057,000000	2020-10-29T19:39:53:805
1907581,000000	2020-10-29T19:39:53:846
1906883,000000	2020-10-29T19:39:53:887
1906769,000000	2020-10-29T19:39:53:926
1906541,000000	2020-10-29T19:39:53:964
1904994,000000	2020-10-29T19:39:54:006
1902785,000000	2020-10-29T19:39:54:045
1901518,000000	2020-10-29T19:39:54:086
1902722,000000	2020-10-29T19:39:54:126
1905873,000000	2020-10-29T19:39:54:166
1910099,000000	2020-10-29T19:39:54:205
1907351,000000	2020-10-29T19:39:54:247
1900021,000000	2020-10-29T19:39:54:285
1897050,000000	2020-10-29T19:39:54:326
1900400,000000	2020-10-29T19:39:54:366
1904832,000000	2020-10-29T19:39:54:406
1912963,000000	2020-10-29T19:39:54:445
1923960,000000	2020-10-29T19:39:54:487
1934797,000000	2020-10-29T19:39:54:527
1945148,000000	2020-10-29T19:39:54:566
1952977,000000	2020-10-29T19:39:54:606
1959244,000000	2020-10-29T19:39:54:646
1966180,000000	2020-10-29T19:39:54:686
1972662,000000	2020-10-29T19:39:54:726
1978570,000000	2020-10-29T19:39:54:764
1984378,000000	2020-10-29T19:39:54:806
1984208,000000	2020-10-29T19:39:54:847
1976496,000000	2020-10-29T19:39:54:886
1968834,000000	2020-10-29T19:39:54:925
1966729,000000	2020-10-29T19:39:54:966
1969368,000000	2020-10-29T19:39:55:006
1975326,000000	2020-10-29T19:39:55:047
1983941,000000	2020-10-29T19:39:55:087
1994611,000000	2020-10-29T19:39:55:126
2005994,000000	2020-10-29T19:39:55:166
2017254,000000	2020-10-29T19:39:55:207
2033246,000000	2020-10-29T19:39:55:246
2052027,000000	2020-10-29T19:39:55:287
2057315,000000	2020-10-29T19:39:55:327
2063803,000000	2020-10-29T19:39:55:367
2071063,000000	2020-10-29T19:39:55:406
2071122,000000	2020-10-29T19:39:55:447
2065155,000000	2020-10-29T19:39:55:487
2060008,000000	2020-10-29T19:39:55:528
2058621,000000	2020-10-29T19:39:55:567
2059562,000000	2020-10-29T19:39:55:607
2061957,000000	2020-10-29T19:39:55:646
2065726,000000	2020-10-29T19:39:55:687
2069707,000000	2020-10-29T19:39:55:726
2073284,000000	2020-10-29T19:39:55:767
2077575,000000	2020-10-29T19:39:55:808
2082353,000000	2020-10-29T19:39:55:847
2087856,000000	2020-10-29T19:39:55:886
2092342,000000	2020-10-29T19:39:55:927
2095022,000000	2020-10-29T19:39:55:966
2096975,000000	2020-10-29T19:39:56:008
2090159,000000	2020-10-29T19:39:56:048
2081953,000000	2020-10-29T19:39:56:087
2077784,000000	2020-10-29T19:39:56:127
2077915,000000	2020-10-29T19:39:56:168
2080126,000000	2020-10-29T19:39:56:207
2084259,000000	2020-10-29T19:39:56:248
2088389,000000	2020-10-29T19:39:56:288
2091305,000000	2020-10-29T19:39:56:327
2093596,000000	2020-10-29T19:39:56:367
2094302,000000	2020-10-29T19:39:56:408
2096025,000000	2020-10-29T19:39:56:446
2098679,000000	2020-10-29T19:39:56:489
2101757,000000	2020-10-29T19:39:56:528
2105263,000000	2020-10-29T19:39:56:568
2109737,000000	2020-10-29T19:39:56:607
2105739,000000	2020-10-29T19:39:56:648
2095771,000000	2020-10-29T19:39:56:687
2087509,000000	2020-10-29T19:39:56:728
2085933,000000	2020-10-29T19:39:56:768
2090640,000000	2020-10-29T19:39:56:808
2100040,000000	2020-10-29T19:39:56:847
2112216,000000	2020-10-29T19:39:56:888
2123436,000000	2020-10-29T19:39:56:927
2131992,000000	2020-10-29T19:39:56:968
2138803,000000	2020-10-29T19:39:57:009
2143523,000000	2020-10-29T19:39:57:053
2146675,000000	2020-10-29T19:39:57:088
2150484,000000	2020-10-29T19:39:57:128
2153856,000000	2020-10-29T19:39:57:169
2158205,000000	2020-10-29T19:39:57:209
2159409,000000	2020-10-29T19:39:57:250
2151458,000000	2020-10-29T19:39:57:289
2140969,000000	2020-10-29T19:39:57:328
2133799,000000	2020-10-29T19:39:57:379
2133399,000000	2020-10-29T19:39:57:409
2136360,000000	2020-10-29T19:39:57:449
2141949,000000	2020-10-29T19:39:57:492
2146897,000000	2020-10-29T19:39:57:529
2149671,000000	2020-10-29T19:39:57:568
2152516,000000	2020-10-29T19:39:57:610
2153617,000000	2020-10-29T19:39:57:648
2154386,000000	2020-10-29T19:39:57:689
2155099,000000	2020-10-29T19:39:57:730
2155672,000000	2020-10-29T19:39:57:769
2156740,000000	2020-10-29T19:39:57:809
2151959,000000	2020-10-29T19:39:57:849
2139518,000000	2020-10-29T19:39:57:888
2128211,000000	2020-10-29T19:39:57:929
2121583,000000	2020-10-29T19:39:57:970
2120388,000000	2020-10-29T19:39:58:010
2122738,000000	2020-10-29T19:39:58:048
2127210,000000	2020-10-29T19:39:58:090
2131680,000000	2020-10-29T19:39:58:128
2133510,000000	2020-10-29T19:39:58:170
2134827,000000	2020-10-29T19:39:58:211
2136484,000000	2020-10-29T19:39:58:250
2139168,000000	2020-10-29T19:39:58:289
2141985,000000	2020-10-29T19:39:58:330
2144565,000000	2020-10-29T19:39:58:368
2145332,000000	2020-10-29T19:39:58:411
2134562,000000	2020-10-29T19:39:58:451
2114960,000000	2020-10-29T19:39:58:491
2097820,000000	2020-10-29T19:39:58:529
2088257,000000	2020-10-29T19:39:58:570
2084864,000000	2020-10-29T19:39:58:609
2084546,000000	2020-10-29T19:39:58:650
2085084,000000	2020-10-29T19:39:58:691
2085508,000000	2020-10-29T19:39:58:730
2084006,000000	2020-10-29T19:39:58:769
2081089,000000	2020-10-29T19:39:58:811
2079020,000000	2020-10-29T19:39:58:849
2078743,000000	2020-10-29T19:39:58:891
2079527,000000	2020-10-29T19:39:58:931
2080409,000000	2020-10-29T19:39:58:971
2082342,000000	2020-10-29T19:39:59:010
2078496,000000	2020-10-29T19:39:59:050
2058526,000000	2020-10-29T19:39:59:090
2041698,000000	2020-10-29T19:39:59:130
2037088,000000	2020-10-29T19:39:59:170
2036282,000000	2020-10-29T19:39:59:211
2036335,000000	2020-10-29T19:39:59:250
2041432,000000	2020-10-29T19:39:59:291
2048418,000000	2020-10-29T19:39:59:330
2049394,000000	2020-10-29T19:39:59:371
2047169,000000	2020-10-29T19:39:59:412
2043639,000000	2020-10-29T19:39:59:451
2041293,000000	2020-10-29T19:39:59:490
2040862,000000	2020-10-29T19:39:59:531
2041789,000000	2020-10-29T19:39:59:570
2043455,000000	2020-10-29T19:39:59:610
2041540,000000	2020-10-29T19:39:59:652
2026788,000000	2020-10-29T19:39:59:691
2008311,000000	2020-10-29T19:39:59:730
1996184,000000	2020-10-29T19:39:59:771
1991374,000000	2020-10-29T19:39:59:811
1991539,000000	2020-10-29T19:39:59:851
1993227,000000	2020-10-29T19:39:59:899
1995143,000000	2020-10-29T19:39:59:931
1995267,000000	2020-10-29T19:39:59:970
1991752,000000	2020-10-29T19:40:00:012
1987518,000000	2020-10-29T19:40:00:050
1984453,000000	2020-10-29T19:40:00:092
1984779,000000	2020-10-29T19:40:00:131
1987200,000000	2020-10-29T19:40:00:171
1990309,000000	2020-10-29T19:40:00:210
1988376,000000	2020-10-29T19:40:00:252
1971665,000000	2020-10-29T19:40:00:291
1951775,000000	2020-10-29T19:40:00:332
1936445,000000	2020-10-29T19:40:00:372
1925393,000000	2020-10-29T19:40:00:412
1917821,000000	2020-10-29T19:40:00:450
1913786,000000	2020-10-29T19:40:00:493
1909143,000000	2020-10-29T19:40:00:531
1901544,000000	2020-10-29T19:40:00:572
1892546,000000	2020-10-29T19:40:00:613
1885966,000000	2020-10-29T19:40:00:652
1881862,000000	2020-10-29T19:40:00:691
1878397,000000	2020-10-29T19:40:00:732
1875967,000000	2020-10-29T19:40:00:771
1873857,000000	2020-10-29T19:40:00:813
1872417,000000	2020-10-29T19:40:00:852
1859916,000000	2020-10-29T19:40:00:893
1839340,000000	2020-10-29T19:40:00:931
1821803,000000	2020-10-29T19:40:00:972
1811744,000000	2020-10-29T19:40:01:013
1808137,000000	2020-10-29T19:40:01:072
1807492,000000	2020-10-29T19:40:01:098
1807333,000000	2020-10-29T19:40:01:169
1806304,000000	2020-10-29T19:40:01:176
1806750,000000	2020-10-29T19:40:01:214
1807558,000000	2020-10-29T19:40:01:249
1810515,000000	2020-10-29T19:40:01:291
1816445,000000	2020-10-29T19:40:01:331
1818037,000000	2020-10-29T19:40:01:371
1820633,000000	2020-10-29T19:40:01:408
1822557,000000	2020-10-29T19:40:01:449
1824915,000000	2020-10-29T19:40:01:490
1819176,000000	2020-10-29T19:40:01:531
2329607,000000	2020-10-29T19:40:05:224
2341680,000000	2020-10-29T19:40:05:225
2352266,000000	2020-10-29T19:40:05:226
2360097,000000	2020-10-29T19:40:05:229
2363643,000000	2020-10-29T19:40:05:242
2363133,000000	2020-10-29T19:40:05:283
2362241,000000	2020-10-29T19:40:05:322
2362205,000000	2020-10-29T19:40:05:362
2363647,000000	2020-10-29T19:40:05:403
2368549,000000	2020-10-29T19:40:05:444
2370286,000000	2020-10-29T19:40:05:484
2373159,000000	2020-10-29T19:40:05:524
2377230,000000	2020-10-29T19:40:05:565
2380229,000000	2020-10-29T19:40:05:605
2384422,000000	2020-10-29T19:40:05:643
2390639,000000	2020-10-29T19:40:05:684
2396738,000000	2020-10-29T19:40:05:723
2403967,000000	2020-10-29T19:40:05:764
2410420,000000	2020-10-29T19:40:05:805
2416647,000000	2020-10-29T19:40:05:844
2421852,000000	2020-10-29T19:40:05:883
2423728,000000	2020-10-29T19:40:05:925
2425962,000000	2020-10-29T19:40:05:963
2428793,000000	2020-10-29T19:40:06:004
2432474,000000	2020-10-29T19:40:06:045
2437049,000000	2020-10-29T19:40:06:084
2443027,000000	2020-10-29T19:40:06:127
2448960,000000	2020-10-29T19:40:06:199
2454552,000000	2020-10-29T19:40:06:218
2460516,000000	2020-10-29T19:40:06:245
2466050,000000	2020-10-29T19:40:06:287
2470979,000000	2020-10-29T19:40:06:327
2476807,000000	2020-10-29T19:40:06:364
2483059,000000	2020-10-29T19:40:06:406
2490110,000000	2020-10-29T19:40:06:444
2495117,000000	2020-10-29T19:40:06:484
2496363,000000	2020-10-29T19:40:06:530
2495524,000000	2020-10-29T19:40:06:566
2490444,000000	2020-10-29T19:40:06:606
2483836,000000	2020-10-29T19:40:06:647
2474810,000000	2020-10-29T19:40:06:685
2464868,000000	2020-10-29T19:40:06:727
2454193,000000	2020-10-29T19:40:06:766
2443458,000000	2020-10-29T19:40:06:807
2431195,000000	2020-10-29T19:40:06:845
2420054,000000	2020-10-29T19:40:06:887
2411961,000000	2020-10-29T19:40:06:926
2406966,000000	2020-10-29T19:40:06:967
2404093,000000	2020-10-29T19:40:07:008
2402716,000000	2020-10-29T19:40:07:055
2398968,000000	2020-10-29T19:40:07:089
2389783,000000	2020-10-29T19:40:07:127
2377948,000000	2020-10-29T19:40:07:165
2364237,000000	2020-10-29T19:40:07:207
2349807,000000	2020-10-29T19:40:07:248
2336979,000000	2020-10-29T19:40:07:287
2327705,000000	2020-10-29T19:40:07:327
2318478,000000	2020-10-29T19:40:07:367
2311702,000000	2020-10-29T19:40:07:407
2307711,000000	2020-10-29T19:40:07:447
2300608,000000	2020-10-29T19:40:07:488
2292251,000000	2020-10-29T19:40:07:527
2283169,000000	2020-10-29T19:40:07:566
2274238,000000	2020-10-29T19:40:07:609
2271987,000000	2020-10-29T19:40:07:648
2275496,000000	2020-10-29T19:40:07:688
2277058,000000	2020-10-29T19:40:07:728
2270205,000000	2020-10-29T19:40:07:768
2257622,000000	2020-10-29T19:40:07:807
2251650,000000	2020-10-29T19:40:07:848
2244170,000000	2020-10-29T19:40:07:887
2247284,000000	2020-10-29T19:40:07:929
2250027,000000	2020-10-29T19:40:07:969
2247270,000000	2020-10-29T19:40:08:009
2242035,000000	2020-10-29T19:40:08:047
2235889,000000	2020-10-29T19:40:08:088
2231282,000000	2020-10-29T19:40:08:127
2221807,000000	2020-10-29T19:40:08:169
2204970,000000	2020-10-29T19:40:08:213
2201310,000000	2020-10-29T19:40:08:266
2204358,000000	2020-10-29T19:40:08:290
2206076,000000	2020-10-29T19:40:08:329
2195180,000000	2020-10-29T19:40:08:367
2152444,000000	2020-10-29T19:40:08:410
2152444,000000	2020-10-29T19:40:08:452
2137008,000000	2020-10-29T19:40:08:491
2113349,000000	2020-10-29T19:40:08:576
2102607,000000	2020-10-29T19:40:08:617
2088249,000000	2020-10-29T19:40:08:649
2073529,000000	2020-10-29T19:40:08:690
2060586,000000	2020-10-29T19:40:08:729
2049997,000000	2020-10-29T19:40:08:768
2043267,000000	2020-10-29T19:40:08:809
2036170,000000	2020-10-29T19:40:08:848
2028103,000000	2020-10-29T19:40:08:889
2007325,000000	2020-10-29T19:40:08:930
1986605,000000	2020-10-29T19:40:08:969
1970671,000000	2020-10-29T19:40:09:009
1958787,000000	2020-10-29T19:40:09:049
1951325,000000	2020-10-29T19:40:09:088
1947223,000000	2020-10-29T19:40:09:129
1947459,000000	2020-10-29T19:40:09:170
1947845,000000	2020-10-29T19:40:09:210
1945514,000000	2020-10-29T19:40:09:248
1940610,000000	2020-10-29T19:40:09:289
1935829,000000	2020-10-29T19:40:09:329
1933555,000000	2020-10-29T19:40:09:369
1933855,000000	2020-10-29T19:40:09:411
1935345,000000	2020-10-29T19:40:09:449
1936641,000000	2020-10-29T19:40:09:489
1923946,000000	2020-10-29T19:40:09:530
1902172,000000	2020-10-29T19:40:09:569
1881690,000000	2020-10-29T19:40:09:615
1867313,000000	2020-10-29T19:40:09:651
1858797,000000	2020-10-29T19:40:09:690
1857760,000000	2020-10-29T19:40:09:728
1859844,000000	2020-10-29T19:40:09:770
1859566,000000	2020-10-29T19:40:09:810
1856753,000000	2020-10-29T19:40:09:850
1853568,000000	2020-10-29T19:40:09:891
1852642,000000	2020-10-29T19:40:09:930
1854281,000000	2020-10-29T19:40:09:969
1857319,000000	2020-10-29T19:40:10:011
1860540,000000	2020-10-29T19:40:10:049
1864374,000000	2020-10-29T19:40:10:090
1859852,000000	2020-10-29T19:40:10:133
1842826,000000	2020-10-29T19:40:10:170
1826743,000000	2020-10-29T19:40:10:210
1818076,000000	2020-10-29T19:40:10:250
1815805,000000	2020-10-29T19:40:10:289
1817887,000000	2020-10-29T19:40:10:330
1822533,000000	2020-10-29T19:40:10:371
1825937,000000	2020-10-29T19:40:10:411
1825651,000000	2020-10-29T19:40:10:450
1824932,000000	2020-10-29T19:40:10:491
1823858,000000	2020-10-29T19:40:10:530
1826647,000000	2020-10-29T19:40:10:577
2226012,000000	2020-10-29T19:40:16:105
2208818,000000	2020-10-29T19:40:16:118
2188230,000000	2020-10-29T19:40:16:149
2170685,000000	2020-10-29T19:40:16:189
2188972,000000	2020-10-29T19:40:16:230
2251002,000000	2020-10-29T19:40:16:269
2315707,000000	2020-10-29T19:40:16:312
2361800,000000	2020-10-29T19:40:16:352
2391252,000000	2020-10-29T19:40:16:390
2410611,000000	2020-10-29T19:40:16:429
2424652,000000	2020-10-29T19:40:16:471
2436484,000000	2020-10-29T19:40:16:509
2454595,000000	2020-10-29T19:40:16:551
2466129,000000	2020-10-29T19:40:16:591
2473940,000000	2020-10-29T19:40:16:631
2463095,000000	2020-10-29T19:40:16:670
2484152,000000	2020-10-29T19:40:16:711
2483963,000000	2020-10-29T19:40:16:750
2481047,000000	2020-10-29T19:40:16:791
2494077,000000	2020-10-29T19:40:16:832
2512780,000000	2020-10-29T19:40:16:871
2529693,000000	2020-10-29T19:40:16:910
2549300,000000	2020-10-29T19:40:16:951
2554816,000000	2020-10-29T19:40:16:989
2556307,000000	2020-10-29T19:40:17:030
2558802,000000	2020-10-29T19:40:17:071
2572293,000000	2020-10-29T19:40:17:111
2580764,000000	2020-10-29T19:40:17:149
2582533,000000	2020-10-29T19:40:17:191
2583962,000000	2020-10-29T19:40:17:230
2590546,000000	2020-10-29T19:40:17:271
2606934,000000	2020-10-29T19:40:17:312
2629115,000000	2020-10-29T19:40:17:351
2643908,000000	2020-10-29T19:40:17:390
2637922,000000	2020-10-29T19:40:17:431
2609084,000000	2020-10-29T19:40:17:470
2582179,000000	2020-10-29T19:40:17:511
2557482,000000	2020-10-29T19:40:17:553
2535574,000000	2020-10-29T19:40:17:591
2519784,000000	2020-10-29T19:40:17:631
2506995,000000	2020-10-29T19:40:17:671
2496898,000000	2020-10-29T19:40:17:710
2486251,000000	2020-10-29T19:40:17:751
2473584,000000	2020-10-29T19:40:17:792
2459575,000000	2020-10-29T19:40:17:831
2444756,000000	2020-10-29T19:40:17:871
2430036,000000	2020-10-29T19:40:17:912
2415486,000000	2020-10-29T19:40:17:951
2401008,000000	2020-10-29T19:40:17:992
2387924,000000	2020-10-29T19:40:18:032
2375992,000000	2020-10-29T19:40:18:072
2364543,000000	2020-10-29T19:40:18:111
2352572,000000	2020-10-29T19:40:18:152
2324019,000000	2020-10-29T19:40:18:190
2283758,000000	2020-10-29T19:40:18:231
2249032,000000	2020-10-29T19:40:18:273
2224908,000000	2020-10-29T19:40:18:311
2208191,000000	2020-10-29T19:40:18:351
2195680,000000	2020-10-29T19:40:18:392
2185626,000000	2020-10-29T19:40:18:431
2177048,000000	2020-10-29T19:40:18:472
2165888,000000	2020-10-29T19:40:18:513
2152025,000000	2020-10-29T19:40:18:552
2138076,000000	2020-10-29T19:40:18:591
2126194,000000	2020-10-29T19:40:18:632
2117074,000000	2020-10-29T19:40:18:673
2109748,000000	2020-10-29T19:40:18:712
2104506,000000	2020-10-29T19:40:18:753
2100867,000000	2020-10-29T19:40:18:792
2098195,000000	2020-10-29T19:40:18:831
2096443,000000	2020-10-29T19:40:18:873
2094723,000000	2020-10-29T19:40:18:912
2082182,000000	2020-10-29T19:40:18:951
2059323,000000	2020-10-29T19:40:18:992
2035119,000000	2020-10-29T19:40:19:032
2020056,000000	2020-10-29T19:40:19:072
2013285,000000	2020-10-29T19:40:19:113
2013011,000000	2020-10-29T19:40:19:151
2013745,000000	2020-10-29T19:40:19:192
2014934,000000	2020-10-29T19:40:19:233
2017762,000000	2020-10-29T19:40:19:273
2020385,000000	2020-10-29T19:40:19:312
2022668,000000	2020-10-29T19:40:19:352
2024473,000000	2020-10-29T19:40:19:390
2027057,000000	2020-10-29T19:40:19:433
2031211,000000	2020-10-29T19:40:19:474
2035709,000000	2020-10-29T19:40:19:513
2040521,000000	2020-10-29T19:40:19:552
2045104,000000	2020-10-29T19:40:19:593
2050459,000000	2020-10-29T19:40:19:632
2054457,000000	2020-10-29T19:40:19:674
2049697,000000	2020-10-29T19:40:19:714
2040651,000000	2020-10-29T19:40:19:753
2031857,000000	2020-10-29T19:40:19:792
2028795,000000	2020-10-29T19:40:19:833
2027296,000000	2020-10-29T19:40:19:872
2030296,000000	2020-10-29T19:40:19:914
2036271,000000	2020-10-29T19:40:19:953
2043569,000000	2020-10-29T19:40:19:993
2052118,000000	2020-10-29T19:40:20:032
2060120,000000	2020-10-29T19:40:20:074
2066140,000000	2020-10-29T19:40:20:113
2072474,000000	2020-10-29T19:40:20:154
2079275,000000	2020-10-29T19:40:20:194
2086469,000000	2020-10-29T19:40:20:234
2094595,000000	2020-10-29T19:40:20:273
2102919,000000	2020-10-29T19:40:20:314
2111602,000000	2020-10-29T19:40:20:353
2119164,000000	2020-10-29T19:40:20:394
2122644,000000	2020-10-29T19:40:20:435
2119963,000000	2020-10-29T19:40:20:475
2117371,000000	2020-10-29T19:40:20:513
2118160,000000	2020-10-29T19:40:20:554
2124190,000000	2020-10-29T19:40:20:593
2130203,000000	2020-10-29T19:40:20:635
2137795,000000	2020-10-29T19:40:20:675
2146230,000000	2020-10-29T19:40:20:714
2154393,000000	2020-10-29T19:40:20:753
2162867,000000	2020-10-29T19:40:20:795
2170386,000000	2020-10-29T19:40:20:833
2176927,000000	2020-10-29T19:40:20:875
2182684,000000	2020-10-29T19:40:20:915
2189304,000000	2020-10-29T19:40:20:954
2196396,000000	2020-10-29T19:40:20:993
2204644,000000	2020-10-29T19:40:21:034
2213145,000000	2020-10-29T19:40:21:074
2222945,000000	2020-10-29T19:40:21:188
2229794,000000	2020-10-29T19:40:21:193
2233948,000000	2020-10-29T19:40:21:196
2235048,000000	2020-10-29T19:40:21:234
2237490,000000	2020-10-29T19:40:21:275
2242348,000000	2020-10-29T19:40:21:315
2246793,000000	2020-10-29T19:40:21:355
2253355,000000	2020-10-29T19:40:21:396
2260050,000000	2020-10-29T19:40:21:435
2266629,000000	2020-10-29T19:40:21:474
2272664,000000	2020-10-29T19:40:21:516
2277189,000000	2020-10-29T19:40:21:554
2280325,000000	2020-10-29T19:40:21:595
2284054,000000	2020-10-29T19:40:21:636
2287715,000000	2020-10-29T19:40:21:675
2292557,000000	2020-10-29T19:40:21:714
2297835,000000	2020-10-29T19:40:21:755
2303224,000000	2020-10-29T19:40:21:794
2303923,000000	2020-10-29T19:40:21:835
2303119,000000	2020-10-29T19:40:21:876
2303538,000000	2020-10-29T19:40:21:915
2306001,000000	2020-10-29T19:40:21:955
2310701,000000	2020-10-29T19:40:21:996
2316795,000000	2020-10-29T19:40:22:034
2323544,000000	2020-10-29T19:40:22:076
2328831,000000	2020-10-29T19:40:22:117
2334573,000000	2020-10-29T19:40:22:155
2339369,000000	2020-10-29T19:40:22:194
2344835,000000	2020-10-29T19:40:22:235
2349393,000000	2020-10-29T19:40:22:275
2354116,000000	2020-10-29T19:40:22:316
2358479,000000	2020-10-29T19:40:22:357
2362247,000000	2020-10-29T19:40:22:396
2366108,000000	2020-10-29T19:40:22:434
2366272,000000	2020-10-29T19:40:22:476
2362139,000000	2020-10-29T19:40:22:515
2357357,000000	2020-10-29T19:40:22:556
2353872,000000	2020-10-29T19:40:22:595
2353516,000000	2020-10-29T19:40:22:637
2354008,000000	2020-10-29T19:40:22:675
2355759,000000	2020-10-29T19:40:22:717
2357585,000000	2020-10-29T19:40:22:755
2358489,000000	2020-10-29T19:40:22:797
2358726,000000	2020-10-29T19:40:22:836
2359294,000000	2020-10-29T19:40:22:877
2360120,000000	2020-10-29T19:40:22:916
2361424,000000	2020-10-29T19:40:22:957
2362181,000000	2020-10-29T19:40:22:995
2363541,000000	2020-10-29T19:40:23:037
2364772,000000	2020-10-29T19:40:23:079
2364431,000000	2020-10-29T19:40:23:117
2357236,000000	2020-10-29T19:40:23:155
2348799,000000	2020-10-29T19:40:23:196
2343076,000000	2020-10-29T19:40:23:235
2340755,000000	2020-10-29T19:40:23:277
2341867,000000	2020-10-29T19:40:23:316
2345856,000000	2020-10-29T19:40:23:356
2351457,000000	2020-10-29T19:40:23:396
2356435,000000	2020-10-29T19:40:23:437
2360228,000000	2020-10-29T19:40:23:476
2363556,000000	2020-10-29T19:40:23:516
2365837,000000	2020-10-29T19:40:23:556
2367220,000000	2020-10-29T19:40:23:596
2368523,000000	2020-10-29T19:40:23:636
2369565,000000	2020-10-29T19:40:23:677
2371180,000000	2020-10-29T19:40:23:716
2369661,000000	2020-10-29T19:40:23:757
2361286,000000	2020-10-29T19:40:23:797
2350591,000000	2020-10-29T19:40:23:837
2343617,000000	2020-10-29T19:40:23:876
2342018,000000	2020-10-29T19:40:23:917
2343411,000000	2020-10-29T19:40:23:956
2345753,000000	2020-10-29T19:40:23:997
2348695,000000	2020-10-29T19:40:24:037
2351113,000000	2020-10-29T19:40:24:077
2353451,000000	2020-10-29T19:40:24:116
2354975,000000	2020-10-29T19:40:24:157
2356001,000000	2020-10-29T19:40:24:196
2356202,000000	2020-10-29T19:40:24:237
2357136,000000	2020-10-29T19:40:24:278
2356227,000000	2020-10-29T19:40:24:318
2353688,000000	2020-10-29T19:40:24:356
2343122,000000	2020-10-29T19:40:24:397
2327097,000000	2020-10-29T19:40:24:437
2313031,000000	2020-10-29T19:40:24:478
2303981,000000	2020-10-29T19:40:24:519
2298624,000000	2020-10-29T19:40:24:557
2295876,000000	2020-10-29T19:40:24:597
2294859,000000	2020-10-29T19:40:24:638
2294259,000000	2020-10-29T19:40:24:677
2292493,000000	2020-10-29T19:40:24:717
2288578,000000	2020-10-29T19:40:24:759
2283739,000000	2020-10-29T19:40:24:799
2279364,000000	2020-10-29T19:40:24:837
2276201,000000	2020-10-29T19:40:24:878
2273660,000000	2020-10-29T19:40:24:917
2273748,000000	2020-10-29T19:40:24:958
2273006,000000	2020-10-29T19:40:24:998
2261018,000000	2020-10-29T19:40:25:038
2242836,000000	2020-10-29T19:40:25:077
2226282,000000	2020-10-29T19:40:25:118
2215733,000000	2020-10-29T19:40:25:157
2209986,000000	2020-10-29T19:40:25:198
2208034,000000	2020-10-29T19:40:25:239
2207141,000000	2020-10-29T19:40:25:278
2207113,000000	2020-10-29T19:40:25:317
2204751,000000	2020-10-29T19:40:25:358
2200851,000000	2020-10-29T19:40:25:397
2196030,000000	2020-10-29T19:40:25:438
2191697,000000	2020-10-29T19:40:25:480
2188689,000000	2020-10-29T19:40:25:519
2186619,000000	2020-10-29T19:40:25:558
2185576,000000	2020-10-29T19:40:25:599
2184672,000000	2020-10-29T19:40:25:639
2173195,000000	2020-10-29T19:40:25:679
2153347,000000	2020-10-29T19:40:25:720
2135251,000000	2020-10-29T19:40:25:759
2126029,000000	2020-10-29T19:40:25:798
2125251,000000	2020-10-29T19:40:25:839
2140627,000000	2020-10-29T19:40:25:879
2145046,000000	2020-10-29T19:40:25:920
2145446,000000	2020-10-29T19:40:25:963
2144377,000000	2020-10-29T19:40:26:001
2141293,000000	2020-10-29T19:40:26:040
2141613,000000	2020-10-29T19:40:26:080
2147544,000000	2020-10-29T19:40:26:122
2153849,000000	2020-10-29T19:40:26:160
2161930,000000	2020-10-29T19:40:26:201
2170500,000000	2020-10-29T19:40:26:240
2166960,000000	2020-10-29T19:40:26:279
2156814,000000	2020-10-29T19:40:26:320
2149386,000000	2020-10-29T19:40:26:359
2147962,000000	2020-10-29T19:40:26:399
2151403,000000	2020-10-29T19:40:26:440
2158477,000000	2020-10-29T19:40:26:480
2166813,000000	2020-10-29T19:40:26:520
2173248,000000	2020-10-29T19:40:26:560
2179603,000000	2020-10-29T19:40:26:599
2185273,000000	2020-10-29T19:40:26:640
2189751,000000	2020-10-29T19:40:26:682
2192767,000000	2020-10-29T19:40:26:720
2195053,000000	2020-10-29T19:40:26:759
2198392,000000	2020-10-29T19:40:26:800
2202652,000000	2020-10-29T19:40:26:839
2203317,000000	2020-10-29T19:40:26:881
2198994,000000	2020-10-29T19:40:26:922
2192538,000000	2020-10-29T19:40:26:960
2188462,000000	2020-10-29T19:40:26:999
2188130,000000	2020-10-29T19:40:27:040
2189977,000000	2020-10-29T19:40:27:079
2193786,000000	2020-10-29T19:40:27:121
2197802,000000	2020-10-29T19:40:27:160
2202303,000000	2020-10-29T19:40:27:200
2205859,000000	2020-10-29T19:40:27:239
2209453,000000	2020-10-29T19:40:27:281
2211855,000000	2020-10-29T19:40:27:320
2214179,000000	2020-10-29T19:40:27:361
2215900,000000	2020-10-29T19:40:27:401
2218122,000000	2020-10-29T19:40:27:440
2221069,000000	2020-10-29T19:40:27:480
2223776,000000	2020-10-29T19:40:27:520
2219207,000000	2020-10-29T19:40:27:561
2208915,000000	2020-10-29T19:40:27:601
2199377,000000	2020-10-29T19:40:27:641
2194597,000000	2020-10-29T19:40:27:681
2192749,000000	2020-10-29T19:40:27:720
2193183,000000	2020-10-29T19:40:27:761
2194204,000000	2020-10-29T19:40:27:801
2195717,000000	2020-10-29T19:40:27:841
2196737,000000	2020-10-29T19:40:27:882
2197796,000000	2020-10-29T19:40:27:921
2199612,000000	2020-10-29T19:40:27:960
2202784,000000	2020-10-29T19:40:28:005
2207225,000000	2020-10-29T19:40:28:041
2212200,000000	2020-10-29T19:40:28:081
2218310,000000	2020-10-29T19:40:28:141
2221058,000000	2020-10-29T19:40:28:161
2214970,000000	2020-10-29T19:40:28:200
2206650,000000	2020-10-29T19:40:28:242
2203139,000000	2020-10-29T19:40:28:281
2206991,000000	2020-10-29T19:40:28:322
2213944,000000	2020-10-29T19:40:28:363
2221789,000000	2020-10-29T19:40:28:401
2229311,000000	2020-10-29T19:40:28:441
2236753,000000	2020-10-29T19:40:28:482
2243499,000000	2020-10-29T19:40:28:521
2249837,000000	2020-10-29T19:40:28:562
2258579,000000	2020-10-29T19:40:28:603
2267367,000000	2020-10-29T19:40:28:642
2275912,000000	2020-10-29T19:40:28:682
2286369,000000	2020-10-29T19:40:28:722
2292180,000000	2020-10-29T19:40:28:761
2287266,000000	2020-10-29T19:40:28:802
2272989,000000	2020-10-29T19:40:28:845
2253218,000000	2020-10-29T19:40:28:883
2233337,000000	2020-10-29T19:40:28:921
2213142,000000	2020-10-29T19:40:28:962
2195027,000000	2020-10-29T19:40:29:001
2182477,000000	2020-10-29T19:40:29:042
2169299,000000	2020-10-29T19:40:29:085
2155928,000000	2020-10-29T19:40:29:123
2144342,000000	2020-10-29T19:40:29:162
2134768,000000	2020-10-29T19:40:29:203
2124944,000000	2020-10-29T19:40:29:241
2119632,000000	2020-10-29T19:40:29:283
2113380,000000	2020-10-29T19:40:29:323
2105338,000000	2020-10-29T19:40:29:363
2084331,000000	2020-10-29T19:40:29:402
2054855,000000	2020-10-29T19:40:29:443
2021224,000000	2020-10-29T19:40:29:482
1996077,000000	2020-10-29T19:40:29:523
1978435,000000	2020-10-29T19:40:29:563
1964784,000000	2020-10-29T19:40:29:603
1952882,000000	2020-10-29T19:40:29:642
1939032,000000	2020-10-29T19:40:29:683
1923103,000000	2020-10-29T19:40:29:722
1906471,000000	2020-10-29T19:40:29:763
1889733,000000	2020-10-29T19:40:29:804
1873908,000000	2020-10-29T19:40:29:843
1859654,000000	2020-10-29T19:40:29:883
1847464,000000	2020-10-29T19:40:29:923
1835915,000000	2020-10-29T19:40:29:962
1825853,000000	2020-10-29T19:40:30:003
1817477,000000	2020-10-29T19:40:30:044
1810665,000000	2020-10-29T19:40:30:083
1791013,000000	2020-10-29T19:40:30:123
1758381,000000	2020-10-29T19:40:30:163
1727021,000000	2020-10-29T19:40:30:202
1707147,000000	2020-10-29T19:40:30:243
1697140,000000	2020-10-29T19:40:30:284
1693233,000000	2020-10-29T19:40:30:323
1692739,000000	2020-10-29T19:40:30:362
1691819,000000	2020-10-29T19:40:30:404
1686490,000000	2020-10-29T19:40:30:443
1679446,000000	2020-10-29T19:40:30:484
1673267,000000	2020-10-29T19:40:30:526
1670355,000000	2020-10-29T19:40:30:564
1671639,000000	2020-10-29T19:40:30:603
1675368,000000	2020-10-29T19:40:30:644
1680599,000000	2020-10-29T19:40:30:683
1686389,000000	2020-10-29T19:40:30:725
1692649,000000	2020-10-29T19:40:30:765
1690943,000000	2020-10-29T19:40:30:805
1671375,000000	2020-10-29T19:40:30:843
1650897,000000	2020-10-29T19:40:30:885
1641437,000000	2020-10-29T19:40:30:923
1640824,000000	2020-10-29T19:40:30:964
1646097,000000	2020-10-29T19:40:31:005
1654118,000000	2020-10-29T19:40:31:045
1661958,000000	2020-10-29T19:40:31:084
1668077,000000	2020-10-29T19:40:31:127
1672231,000000	2020-10-29T19:40:31:163
1676660,000000	2020-10-29T19:40:31:204
1682089,000000	2020-10-29T19:40:31:245
1688853,000000	2020-10-29T19:40:31:285
1694062,000000	2020-10-29T19:40:31:324
1702165,000000	2020-10-29T19:40:31:365
1709560,000000	2020-10-29T19:40:31:404
1720477,000000	2020-10-29T19:40:31:445
1732302,000000	2020-10-29T19:40:31:486
1728146,000000	2020-10-29T19:40:31:525
1710482,000000	2020-10-29T19:40:31:564
1699159,000000	2020-10-29T19:40:31:605
1699690,000000	2020-10-29T19:40:31:644
1707166,000000	2020-10-29T19:40:31:686
1717172,000000	2020-10-29T19:40:31:726
1728128,000000	2020-10-29T19:40:31:765
1737545,000000	2020-10-29T19:40:31:804
1745203,000000	2020-10-29T19:40:31:845
1750978,000000	2020-10-29T19:40:31:884
1756521,000000	2020-10-29T19:40:31:926
1764664,000000	2020-10-29T19:40:31:966
1773994,000000	2020-10-29T19:40:32:005
1784775,000000	2020-10-29T19:40:32:044
1795860,000000	2020-10-29T19:40:32:086
1809146,000000	2020-10-29T19:40:32:124
1824007,000000	2020-10-29T19:40:32:166
1836377,000000	2020-10-29T19:40:32:206
1838609,000000	2020-10-29T19:40:32:246
1834579,000000	2020-10-29T19:40:32:285
1832426,000000	2020-10-29T19:40:32:326
1836034,000000	2020-10-29T19:40:32:365
1844668,000000	2020-10-29T19:40:32:406
1856277,000000	2020-10-29T19:40:32:447
1869680,000000	2020-10-29T19:40:32:486
1881950,000000	2020-10-29T19:40:32:525
1891374,000000	2020-10-29T19:40:32:566
1899186,000000	2020-10-29T19:40:32:605
1906344,000000	2020-10-29T19:40:32:646
1914934,000000	2020-10-29T19:40:32:687
1925927,000000	2020-10-29T19:40:32:728
1937970,000000	2020-10-29T19:40:32:765
1949881,000000	2020-10-29T19:40:32:807
1961703,000000	2020-10-29T19:40:32:845
1971401,000000	2020-10-29T19:40:32:887
1971481,000000	2020-10-29T19:40:32:927
1967205,000000	2020-10-29T19:40:32:966
1966146,000000	2020-10-29T19:40:33:006
1971856,000000	2020-10-29T19:40:33:048
1980452,000000	2020-10-29T19:40:33:085
1988147,000000	2020-10-29T19:40:33:127
1995920,000000	2020-10-29T19:40:33:168
2003222,000000	2020-10-29T19:40:33:207
2009613,000000	2020-10-29T19:40:33:246
2016028,000000	2020-10-29T19:40:33:287
2021423,000000	2020-10-29T19:40:33:327
2026616,000000	2020-10-29T19:40:33:367
2032240,000000	2020-10-29T19:40:33:408
2038472,000000	2020-10-29T19:40:33:447
2046099,000000	2020-10-29T19:40:33:486
2053144,000000	2020-10-29T19:40:33:527
2052612,000000	2020-10-29T19:40:33:566
2050720,000000	2020-10-29T19:40:33:607
2052950,000000	2020-10-29T19:40:33:648
2060110,000000	2020-10-29T19:40:33:686
2072225,000000	2020-10-29T19:40:33:726
2085971,000000	2020-10-29T19:40:33:767
2101245,000000	2020-10-29T19:40:33:806
2115313,000000	2020-10-29T19:40:33:847
2124988,000000	2020-10-29T19:40:33:888
2131693,000000	2020-10-29T19:40:33:927
2139569,000000	2020-10-29T19:40:33:966
2147273,000000	2020-10-29T19:40:34:007
2154708,000000	2020-10-29T19:40:34:046
2162572,000000	2020-10-29T19:40:34:088
2169494,000000	2020-10-29T19:40:34:128
2176224,000000	2020-10-29T19:40:34:167
2177876,000000	2020-10-29T19:40:34:206
2175889,000000	2020-10-29T19:40:34:247
2175537,000000	2020-10-29T19:40:34:286
2177843,000000	2020-10-29T19:40:34:328
2181294,000000	2020-10-29T19:40:34:368
2185443,000000	2020-10-29T19:40:34:407
2189313,000000	2020-10-29T19:40:34:447
2192476,000000	2020-10-29T19:40:34:487
2194797,000000	2020-10-29T19:40:34:527
2197997,000000	2020-10-29T19:40:34:568
2202199,000000	2020-10-29T19:40:34:609
2206103,000000	2020-10-29T19:40:34:648
2209349,000000	2020-10-29T19:40:34:687
2212749,000000	2020-10-29T19:40:34:728
2216626,000000	2020-10-29T19:40:34:766
2222148,000000	2020-10-29T19:40:34:808
2224341,000000	2020-10-29T19:40:34:849
2220555,000000	2020-10-29T19:40:34:888
2216623,000000	2020-10-29T19:40:34:927
2216165,000000	2020-10-29T19:40:34:968
2219593,000000	2020-10-29T19:40:35:007
2225676,000000	2020-10-29T19:40:35:048
2232489,000000	2020-10-29T19:40:35:089
2237259,000000	2020-10-29T19:40:35:128
2239804,000000	2020-10-29T19:40:35:167
2240725,000000	2020-10-29T19:40:35:209
2242068,000000	2020-10-29T19:40:35:246
2244560,000000	2020-10-29T19:40:35:289
2247804,000000	2020-10-29T19:40:35:329
2251690,000000	2020-10-29T19:40:35:368
2254113,000000	2020-10-29T19:40:35:407
2255058,000000	2020-10-29T19:40:35:449
2247278,000000	2020-10-29T19:40:35:486
2234221,000000	2020-10-29T19:40:35:529
2223101,000000	2020-10-29T19:40:35:569
2216976,000000	2020-10-29T19:40:35:608
2214312,000000	2020-10-29T19:40:35:647
2213914,000000	2020-10-29T19:40:35:689
2213906,000000	2020-10-29T19:40:35:727
2213937,000000	2020-10-29T19:40:35:768
2212610,000000	2020-10-29T19:40:35:810
2211929,000000	2020-10-29T19:40:35:848
2211917,000000	2020-10-29T19:40:35:888
2212753,000000	2020-10-29T19:40:35:929
2214785,000000	2020-10-29T19:40:35:967
2216669,000000	2020-10-29T19:40:36:009
2218427,000000	2020-10-29T19:40:36:048
2212986,000000	2020-10-29T19:40:36:089
2200435,000000	2020-10-29T19:40:36:130
2187242,000000	2020-10-29T19:40:36:169
2180300,000000	2020-10-29T19:40:36:208
2175678,000000	2020-10-29T19:40:36:248
2173709,000000	2020-10-29T19:40:36:290
2173464,000000	2020-10-29T19:40:36:329
2173903,000000	2020-10-29T19:40:36:369
2175003,000000	2020-10-29T19:40:36:409
2176485,000000	2020-10-29T19:40:36:449
2177888,000000	2020-10-29T19:40:36:489
2179372,000000	2020-10-29T19:40:36:530
2181165,000000	2020-10-29T19:40:36:570
2182726,000000	2020-10-29T19:40:36:608
2185071,000000	2020-10-29T19:40:36:650
2188251,000000	2020-10-29T19:40:36:689
2189599,000000	2020-10-29T19:40:36:741
2182013,000000	2020-10-29T19:40:36:770
2171716,000000	2020-10-29T19:40:36:810
2165070,000000	2020-10-29T19:40:36:849
2164378,000000	2020-10-29T19:40:36:890
2167213,000000	2020-10-29T19:40:36:929
2168999,000000	2020-10-29T19:40:36:970
2177417,000000	2020-10-29T19:40:37:010
2185479,000000	2020-10-29T19:40:37:049
2186823,000000	2020-10-29T19:40:37:089
2180968,000000	2020-10-29T19:40:37:130
2182903,000000	2020-10-29T19:40:37:169
2184892,000000	2020-10-29T19:40:37:211
2189042,000000	2020-10-29T19:40:37:251
2192966,000000	2020-10-29T19:40:37:291
2195361,000000	2020-10-29T19:40:37:330
2194812,000000	2020-10-29T19:40:37:370
2183359,000000	2020-10-29T19:40:37:409
2162265,000000	2020-10-29T19:40:37:450
2142220,000000	2020-10-29T19:40:37:490
2125870,000000	2020-10-29T19:40:37:531
2115904,000000	2020-10-29T19:40:37:569
2110066,000000	2020-10-29T19:40:37:610
2109251,000000	2020-10-29T19:40:37:650
2109069,000000	2020-10-29T19:40:37:690
2108612,000000	2020-10-29T19:40:37:731
2109389,000000	2020-10-29T19:40:37:770
2110944,000000	2020-10-29T19:40:37:811
2111984,000000	2020-10-29T19:40:37:851
2111953,000000	2020-10-29T19:40:37:891
2112070,000000	2020-10-29T19:40:37:931
2112289,000000	2020-10-29T19:40:37:971
2112445,000000	2020-10-29T19:40:38:011
2111775,000000	2020-10-29T19:40:38:049
2105746,000000	2020-10-29T19:40:38:091
2091203,000000	2020-10-29T19:40:38:130
2078339,000000	2020-10-29T19:40:38:171
2072145,000000	2020-10-29T19:40:38:212
2070652,000000	2020-10-29T19:40:38:251
2071243,000000	2020-10-29T19:40:38:290
2072581,000000	2020-10-29T19:40:38:331
2074962,000000	2020-10-29T19:40:38:370
2077052,000000	2020-10-29T19:40:38:411
2079361,000000	2020-10-29T19:40:38:452
2083405,000000	2020-10-29T19:40:38:491
2087635,000000	2020-10-29T19:40:38:530
2093493,000000	2020-10-29T19:40:38:571
2098023,000000	2020-10-29T19:40:38:610
2102102,000000	2020-10-29T19:40:38:651
2106158,000000	2020-10-29T19:40:38:692
2109102,000000	2020-10-29T19:40:38:731
2109247,000000	2020-10-29T19:40:38:770
2099553,000000	2020-10-29T19:40:38:811
2086741,000000	2020-10-29T19:40:38:850
2079711,000000	2020-10-29T19:40:38:892
2078180,000000	2020-10-29T19:40:38:932
2081236,000000	2020-10-29T19:40:38:971
2086519,000000	2020-10-29T19:40:39:010
2092345,000000	2020-10-29T19:40:39:052
2097240,000000	2020-10-29T19:40:39:091
2099844,000000	2020-10-29T19:40:39:132
2101718,000000	2020-10-29T19:40:39:172
2102852,000000	2020-10-29T19:40:39:212
2103718,000000	2020-10-29T19:40:39:251
2105177,000000	2020-10-29T19:40:39:292
2106618,000000	2020-10-29T19:40:39:331
2108628,000000	2020-10-29T19:40:39:372
2111773,000000	2020-10-29T19:40:39:413
2114068,000000	2020-10-29T19:40:39:452
2105840,000000	2020-10-29T19:40:39:492
2091756,000000	2020-10-29T19:40:39:532
2080868,000000	2020-10-29T19:40:39:571
2077756,000000	2020-10-29T19:40:39:612
2080057,000000	2020-10-29T19:40:39:653
2085119,000000	2020-10-29T19:40:39:693
2090939,000000	2020-10-29T19:40:39:731
2096649,000000	2020-10-29T19:40:39:773
2099245,000000	2020-10-29T19:40:39:811
2099788,000000	2020-10-29T19:40:39:852
2099027,000000	2020-10-29T19:40:39:892
2098793,000000	2020-10-29T19:40:39:934
2098920,000000	2020-10-29T19:40:39:971
2100997,000000	2020-10-29T19:40:40:013
2104629,000000	2020-10-29T19:40:40:051
2108905,000000	2020-10-29T19:40:40:093
2114721,000000	2020-10-29T19:40:40:133
2117278,000000	2020-10-29T19:40:40:173
2113274,000000	2020-10-29T19:40:40:212
2105960,000000	2020-10-29T19:40:40:253
2101885,000000	2020-10-29T19:40:40:292
2101992,000000	2020-10-29T19:40:40:333
2104544,000000	2020-10-29T19:40:40:374
2108270,000000	2020-10-29T19:40:40:414
2111449,000000	2020-10-29T19:40:40:451
2114511,000000	2020-10-29T19:40:40:493
2116475,000000	2020-10-29T19:40:40:532
2118558,000000	2020-10-29T19:40:40:573
2120213,000000	2020-10-29T19:40:40:615
2123000,000000	2020-10-29T19:40:40:654
2128292,000000	2020-10-29T19:40:40:693
2136294,000000	2020-10-29T19:40:40:734
2145688,000000	2020-10-29T19:40:40:772
2155442,000000	2020-10-29T19:40:40:814
2160334,000000	2020-10-29T19:40:40:855
2158137,000000	2020-10-29T19:40:40:894
2155051,000000	2020-10-29T19:40:40:933
2155133,000000	2020-10-29T19:40:40:974
2159206,000000	2020-10-29T19:40:41:014
2166362,000000	2020-10-29T19:40:41:054
2174599,000000	2020-10-29T19:40:41:095
2183697,000000	2020-10-29T19:40:41:137
2192023,000000	2020-10-29T19:40:41:173
2199188,000000	2020-10-29T19:40:41:214
2205275,000000	2020-10-29T19:40:41:253
2209466,000000	2020-10-29T19:40:41:294
2209245,000000	2020-10-29T19:40:41:335
2210201,000000	2020-10-29T19:40:41:374
2212013,000000	2020-10-29T19:40:41:413
2210150,000000	2020-10-29T19:40:41:454
2199322,000000	2020-10-29T19:40:41:493
2186491,000000	2020-10-29T19:40:41:535
2177011,000000	2020-10-29T19:40:41:575
2173575,000000	2020-10-29T19:40:41:614
2173843,000000	2020-10-29T19:40:41:654
2177644,000000	2020-10-29T19:40:41:695
2182122,000000	2020-10-29T19:40:41:734
2186358,000000	2020-10-29T19:40:41:775
2187954,000000	2020-10-29T19:40:41:815
2187906,000000	2020-10-29T19:40:41:855
2187578,000000	2020-10-29T19:40:41:894
2186880,000000	2020-10-29T19:40:41:935
2187120,000000	2020-10-29T19:40:41:974
2188559,000000	2020-10-29T19:40:42:015
2186576,000000	2020-10-29T19:40:42:055
2176668,000000	2020-10-29T19:40:42:095
2165011,000000	2020-10-29T19:40:42:134
2157181,000000	2020-10-29T19:40:42:176
2154666,000000	2020-10-29T19:40:42:214
2156013,000000	2020-10-29T19:40:42:255
2161531,000000	2020-10-29T19:40:42:296
2168742,000000	2020-10-29T19:40:42:335
2174764,000000	2020-10-29T19:40:42:374
2179928,000000	2020-10-29T19:40:42:416
2185870,000000	2020-10-29T19:40:42:454
2195282,000000	2020-10-29T19:40:42:496
2207884,000000	2020-10-29T19:40:42:536
2221708,000000	2020-10-29T19:40:42:575
2234810,000000	2020-10-29T19:40:42:615
2242469,000000	2020-10-29T19:40:42:656
2247734,000000	2020-10-29T19:40:42:695
2253165,000000	2020-10-29T19:40:43:149
2261307,000000	2020-10-29T19:40:43:149
2270750,000000	2020-10-29T19:40:43:175
2281217,000000	2020-10-29T19:40:43:176
2299754,000000	2020-10-29T19:40:43:177
2299754,000000	2020-10-29T19:40:43:177
2311034,000000	2020-10-29T19:40:43:205
2316203,000000	2020-10-29T19:40:43:211
2320950,000000	2020-10-29T19:40:43:250
2326998,000000	2020-10-29T19:40:43:251
2335290,000000	2020-10-29T19:40:43:251
2343578,000000	2020-10-29T19:40:43:255
2352236,000000	2020-10-29T19:40:43:257
2360857,000000	2020-10-29T19:40:43:261
2369349,000000	2020-10-29T19:40:43:297
2377069,000000	2020-10-29T19:40:43:402
2382586,000000	2020-10-29T19:40:43:402
2386347,000000	2020-10-29T19:40:43:415
2389416,000000	2020-10-29T19:40:43:475
2395992,000000	2020-10-29T19:40:43:515
2401824,000000	2020-10-29T19:40:43:538
2412007,000000	2020-10-29T19:40:43:574
2424528,000000	2020-10-29T19:40:43:614
2436646,000000	2020-10-29T19:40:43:658
2446274,000000	2020-10-29T19:40:43:695
2447717,000000	2020-10-29T19:40:43:735
2448154,000000	2020-10-29T19:40:43:774
2455178,000000	2020-10-29T19:40:43:878
2465755,000000	2020-10-29T19:40:43:878
2487045,000000	2020-10-29T19:40:43:895
2519068,000000	2020-10-29T19:40:43:934
2556168,000000	2020-10-29T19:40:43:979
2583657,000000	2020-10-29T19:40:44:052
2609187,000000	2020-10-29T19:40:44:072
2628409,000000	2020-10-29T19:40:44:114
2645273,000000	2020-10-29T19:40:44:134
2662702,000000	2020-10-29T19:40:44:177
2679537,000000	2020-10-29T19:40:44:216
2694747,000000	2020-10-29T19:40:44:258
2705351,000000	2020-10-29T19:40:44:304
2715734,000000	2020-10-29T19:40:44:340
2726587,000000	2020-10-29T19:40:44:385
2737937,000000	2020-10-29T19:40:44:418
2753911,000000	2020-10-29T19:40:44:459
2767343,000000	2020-10-29T19:40:44:496
2782788,000000	2020-10-29T19:40:44:535
2795765,000000	2020-10-29T19:40:44:576
2805977,000000	2020-10-29T19:40:44:614
2817287,000000	2020-10-29T19:40:44:658
2822617,000000	2020-10-29T19:40:44:698
2828114,000000	2020-10-29T19:40:44:737
2834938,000000	2020-10-29T19:40:44:777
2839535,000000	2020-10-29T19:40:44:819
2837113,000000	2020-10-29T19:40:44:856
2830099,000000	2020-10-29T19:40:44:897
2823284,000000	2020-10-29T19:40:44:944
2821229,000000	2020-10-29T19:40:44:977
2822129,000000	2020-10-29T19:40:45:020
2825090,000000	2020-10-29T19:40:45:061
2827900,000000	2020-10-29T19:40:45:097
2831562,000000	2020-10-29T19:40:45:138
2833464,000000	2020-10-29T19:40:45:183
2836191,000000	2020-10-29T19:40:45:220
2839458,000000	2020-10-29T19:40:45:257
2841676,000000	2020-10-29T19:40:45:298
2844955,000000	2020-10-29T19:40:45:339
2847818,000000	2020-10-29T19:40:45:379
2850176,000000	2020-10-29T19:40:45:443
2859391,000000	2020-10-29T19:40:45:473
2886829,000000	2020-10-29T19:40:45:496
2915650,000000	2020-10-29T19:40:45:538
2917116,000000	2020-10-29T19:40:45:577
2908611,000000	2020-10-29T19:40:45:618
2887319,000000	2020-10-29T19:40:45:659
2868045,000000	2020-10-29T19:40:45:698
2854231,000000	2020-10-29T19:40:45:738
2841547,000000	2020-10-29T19:40:45:778
2834843,000000	2020-10-29T19:40:45:817
2828658,000000	2020-10-29T19:40:45:861
2822830,000000	2020-10-29T19:40:45:899
2816020,000000	2020-10-29T19:40:45:939
2802693,000000	2020-10-29T19:40:45:977
2811618,000000	2020-10-29T19:40:46:018
2808929,000000	2020-10-29T19:40:46:083
2803863,000000	2020-10-29T19:40:46:100
2790976,000000	2020-10-29T19:40:46:142
2777559,000000	2020-10-29T19:40:46:177
2770554,000000	2020-10-29T19:40:46:216
2767964,000000	2020-10-29T19:40:46:264
2764965,000000	2020-10-29T19:40:46:298
2766170,000000	2020-10-29T19:40:46:367
2767695,000000	2020-10-29T19:40:46:392
2774406,000000	2020-10-29T19:40:46:418
2788812,000000	2020-10-29T19:40:46:529
2798680,000000	2020-10-29T19:40:46:530
2797809,000000	2020-10-29T19:40:46:548
2798058,000000	2020-10-29T19:40:46:597
2804493,000000	2020-10-29T19:40:46:617
2818245,000000	2020-10-29T19:40:46:667
2826902,000000	2020-10-29T19:40:46:701
2819260,000000	2020-10-29T19:40:46:739
2807761,000000	2020-10-29T19:40:46:780
2798425,000000	2020-10-29T19:40:46:819
2792606,000000	2020-10-29T19:40:46:862
2785889,000000	2020-10-29T19:40:46:899
2779976,000000	2020-10-29T19:40:46:939
2772294,000000	2020-10-29T19:40:46:996
2763894,000000	2020-10-29T19:40:47:021
2754779,000000	2020-10-29T19:40:47:267
2747933,000000	2020-10-29T19:40:47:268
2741523,000000	2020-10-29T19:40:47:268
2738095,000000	2020-10-29T19:40:47:287
2734536,000000	2020-10-29T19:40:47:303
2731454,000000	2020-10-29T19:40:47:304
2730118,000000	2020-10-29T19:40:47:312
2727027,000000	2020-10-29T19:40:47:339
2712302,000000	2020-10-29T19:40:47:403
2688472,000000	2020-10-29T19:40:47:491
2667101,000000	2020-10-29T19:40:47:491
2654028,000000	2020-10-29T19:40:47:530
2647518,000000	2020-10-29T19:40:47:566
2644004,000000	2020-10-29T19:40:47:590
2642414,000000	2020-10-29T19:40:47:624
2640064,000000	2020-10-29T19:40:47:664
2635566,000000	2020-10-29T19:40:47:699
2630906,000000	2020-10-29T19:40:47:738
2626991,000000	2020-10-29T19:40:47:784
2623882,000000	2020-10-29T19:40:47:829
2621674,000000	2020-10-29T19:40:47:859
2620004,000000	2020-10-29T19:40:47:898
2619659,000000	2020-10-29T19:40:47:939
2619065,000000	2020-10-29T19:40:47:979
2611307,000000	2020-10-29T19:40:48:020
2589683,000000	2020-10-29T19:40:48:064
2568560,000000	2020-10-29T19:40:48:101
2554583,000000	2020-10-29T19:40:48:141
2547145,000000	2020-10-29T19:40:48:181
2544095,000000	2020-10-29T19:40:48:219
2542665,000000	2020-10-29T19:40:48:261
2539784,000000	2020-10-29T19:40:48:302
2536541,000000	2020-10-29T19:40:48:342
2532002,000000	2020-10-29T19:40:48:381
2528603,000000	2020-10-29T19:40:48:422
2525626,000000	2020-10-29T19:40:48:464
2523416,000000	2020-10-29T19:40:48:531
2522556,000000	2020-10-29T19:40:48:544
2522400,000000	2020-10-29T19:40:48:580
2523489,000000	2020-10-29T19:40:48:620
2520830,000000	2020-10-29T19:40:48:662
2504836,000000	2020-10-29T19:40:48:702
2483919,000000	2020-10-29T19:40:48:742
2468547,000000	2020-10-29T19:40:48:785
2460266,000000	2020-10-29T19:40:48:822
2456529,000000	2020-10-29T19:40:48:862
2456500,000000	2020-10-29T19:40:48:903
2455440,000000	2020-10-29T19:40:48:941
2453204,000000	2020-10-29T19:40:48:982
2449088,000000	2020-10-29T19:40:49:023
2444327,000000	2020-10-29T19:40:49:062
2445004,000000	2020-10-29T19:40:49:101
2443079,000000	2020-10-29T19:40:49:141
2442954,000000	2020-10-29T19:40:49:181
2442917,000000	2020-10-29T19:40:49:448
2443654,000000	2020-10-29T19:40:49:449
2444504,000000	2020-10-29T19:40:49:453
2445508,000000	2020-10-29T19:40:49:454
2438983,000000	2020-10-29T19:40:49:454
2420228,000000	2020-10-29T19:40:49:455
2400000,000000	2020-10-29T19:40:49:460
2387367,000000	2020-10-29T19:40:49:500
2381131,000000	2020-10-29T19:40:49:541
2379004,000000	2020-10-29T19:40:49:583
2379921,000000	2020-10-29T19:40:49:620
2379156,000000	2020-10-29T19:40:49:670
2378181,000000	2020-10-29T19:40:49:708
2376008,000000	2020-10-29T19:40:49:753
2373613,000000	2020-10-29T19:40:49:780
2372564,000000	2020-10-29T19:40:49:820
2371829,000000	2020-10-29T19:40:49:862
2371821,000000	2020-10-29T19:40:49:912
2372268,000000	2020-10-29T19:40:49:941
2374838,000000	2020-10-29T19:40:49:983
2378700,000000	2020-10-29T19:40:50:021
2382381,000000	2020-10-29T19:40:50:065
2384773,000000	2020-10-29T19:40:50:120
2378294,000000	2020-10-29T19:40:50:148
2363724,000000	2020-10-29T19:40:50:182
2350991,000000	2020-10-29T19:40:50:221
2344551,000000	2020-10-29T19:40:50:260
2343879,000000	2020-10-29T19:40:50:303
2346424,000000	2020-10-29T19:40:50:342
2349829,000000	2020-10-29T19:40:50:383
2351605,000000	2020-10-29T19:40:50:423
2351987,000000	2020-10-29T19:40:50:465
2351341,000000	2020-10-29T19:40:50:503
2352521,000000	2020-10-29T19:40:50:543
2355383,000000	2020-10-29T19:40:50:584
2358726,000000	2020-10-29T19:40:50:623
2363160,000000	2020-10-29T19:40:50:664
2367349,000000	2020-10-29T19:40:50:709
2371015,000000	2020-10-29T19:40:50:744
2376770,000000	2020-10-29T19:40:50:783
2375219,000000	2020-10-29T19:40:50:823
2363872,000000	2020-10-29T19:40:50:863
2351492,000000	2020-10-29T19:40:50:905
2344817,000000	2020-10-29T19:40:50:945
2339931,000000	2020-10-29T19:40:50:986
2341290,000000	2020-10-29T19:40:51:021
2344420,000000	2020-10-29T19:40:51:062
2346720,000000	2020-10-29T19:40:51:102
2347421,000000	2020-10-29T19:40:51:143
