1605792136.00
64.000000
-0.00
-0.00
-0.00
-0.00
-0.00
-0.00
-0.00
-0.00
-0.00
-0.00
0.00
0.01
0.01
-0.00
-0.03
-0.05
-0.05
0.00
0.13
0.36
0.66
1.01
1.37
1.72
2.06
2.40
2.79
3.24
3.80
4.42
5.06
5.66
6.20
6.68
7.15
7.68
8.31
9.14
10.09
11.04
11.88
12.56
13.14
13.76
14.65
15.96
17.91
20.32
22.90
25.38
27.58
29.57
31.68
34.32
37.81
42.54
48.15
54.10
59.83
64.97
69.58
74.14
79.34
85.71
93.76
103.00
112.62
121.73
129.77
136.75
143.30
150.75
157.77
166.64
177.95
191.79
206.97
220.57
228.25
225.36
208.53
176.87
132.76
80.05
23.07
-34.94
-92.44
-149.16
-205.23
-260.37
-313.74
-363.87
-409.83
-450.91
-486.50
-515.74
-537.23
-549.22
-549.96
-538.37
-514.21
-478.67
-433.88
-382.45
-327.02
-269.84
-212.63
-156.66
-102.95
-52.37
-5.90
35.58
71.43
101.35
125.50
144.38
158.69
169.15
176.37
180.75
182.57
182.07
179.51
175.23
169.65
163.18
156.15
148.81
141.30
133.69
126.02
118.33
110.69
103.16
95.80
88.68
81.83
75.25
68.95
62.95
57.25
51.86
46.78
42.03
37.59
33.45
29.61
26.07
22.81
19.83
17.11
14.67
12.48
10.54
8.83
7.35
6.07
4.97
4.05
3.27
2.62
2.09
1.65
1.30
1.01
0.79
0.61
0.47
0.37
0.29
0.23
0.19
0.16
0.14
0.13
0.14
0.17
0.21
0.25
0.28
0.29
0.26
0.20
0.13
0.09
0.08
0.11
0.17
0.24
0.28
0.27
0.24
0.20
0.18
0.22
0.31
0.43
0.54
0.57
0.53
0.41
0.30
0.29
0.42
0.72
1.09
1.42
1.57
1.48
1.18
0.86
0.72
0.91
1.46
2.20
2.84
3.11
2.86
2.19
1.44
0.99
1.15
1.95
3.11
4.14
4.57
4.18
3.13
1.90
1.05
0.89
1.40
2.11
2.37
1.58
-0.70
-4.78
-10.75
-18.38
-26.78
-34.23
-38.51
-37.81
-31.58
-21.08
-9.06
1.38
8.01
10.28
9.17
6.38
3.27
0.46
-2.09
-4.42
-6.15
-6.45
-4.54
-0.25
5.75
12.13
17.45
20.66
21.47
20.28
17.85
14.86
11.67
8.29
4.57
0.47
-3.70
-7.38
-9.94
-10.96
-10.48
-8.90
-6.98
-5.45
-4.79
-5.06
-5.87
-6.59
-6.61
-5.66
-4.03
-2.51
-2.02
-3.19
-6.14
-10.35
-15.07
-19.57
-23.56
-27.09
-30.56
-34.32
-38.42
-42.59
-46.28
-48.83
-49.54
-47.81
-42.92
-34.69
-23.53
-10.38
3.46
16.61
28.02
37.04
43.43
47.21
48.47
47.33
44.09
39.23
33.51
27.80
22.90
19.33
17.17
16.12
15.66
15.44
15.28
15.30
15.64
16.33
17.12
17.55
17.02
15.14
11.81
7.23
1.86
-3.81
-9.42
-14.75
-19.79
-24.66
-29.56
-34.77
-40.54
-46.98
-53.85
-60.50
-65.81
-68.47
-67.30
-61.62
-51.54
-37.94
-22.24
-6.01
9.36
22.89
34.02
42.51
48.31
51.46
52.09
50.50
47.24
43.03
38.70
34.98
32.32
30.86
30.40
30.62
31.16
31.79
32.37
32.80
32.99
32.80
32.06
30.60
28.31
25.16
21.21
16.61
11.59
6.44
1.37
-3.47
-8.13
-12.77
-17.62
-22.97
-29.03
-35.83
-43.10
-50.17
-56.02
-59.40
-59.19
-54.72
-46.02
-33.90
-19.74
-5.15
8.50
20.20
29.52
36.32
40.68
42.71
42.52
40.36
36.66
32.05
27.35
23.28
20.34
18.68
18.09
18.23
18.72
19.33
20.00
20.76
21.59
22.33
22.65
22.16
20.58
17.86
14.23
10.10
5.89
1.81
-2.15
-6.14
-10.37
-14.95
-19.93
-25.30
-31.07
-37.11
-43.06
-48.17
-51.34
-51.40
-47.55
-39.64
-28.37
-15.01
-1.08
12.06
23.46
32.64
39.44
43.85
45.94
45.83
43.76
40.15
35.56
30.73
26.37
23.04
21.04
20.40
20.84
21.97
23.34
24.59
25.46
25.84
25.64
24.85
23.48
21.49
18.87
15.59
11.71
7.34
2.73
-1.89
-6.30
-10.42
-14.37
-18.37
-22.75
-27.77
-33.54
-39.97
-46.69
-53.00
-57.92
-60.37
-59.39
-54.48
-45.79
-34.12
-20.77
-7.16
5.46
16.25
24.79
31.06
35.23
37.55
38.22
37.41
35.35
32.36
28.92
25.61
22.92
21.19
20.42
20.45
20.96
21.67
22.38
22.98
23.40
23.54
23.30
22.52
21.14
19.15
16.62
13.65
10.34
6.77
2.96
-1.02
-5.13
-9.25
-13.26
-17.07
-20.69
-24.28
-28.13
-32.54
-37.62
-43.08
-48.20
-51.97
-53.28
-51.36
-46.01
-37.68
-27.27
-15.94
-4.72
5.56
14.31
21.18
25.99
28.74
29.58
28.86
27.00
24.42
21.52
18.62
15.99
13.87
12.46
11.79
11.76
12.15
12.71
13.25
13.68
13.96
14.03
13.72
12.86
11.33
9.11
6.35
3.28
0.09
-3.15
-6.44
-9.82
-13.30
-16.81
-20.30
-23.83
-27.54
-31.62
-36.07
-40.59
-44.48
-46.82
-46.75
-43.75
-37.86
-29.64
-20.03
-10.04
-0.49
8.06
15.29
20.97
24.90
26.92
27.00
25.37
22.48
18.99
15.52
12.52
10.20
8.55
7.50
7.00
7.05
7.63
8.61
9.75
10.69
11.15
10.99
10.23
9.02
7.47
5.60
3.36
0.71
-2.33
-5.57
-8.81
-11.85
-14.67
-17.42
-20.38
-23.85
-28.04
-32.91
-38.09
-42.84
-46.22
-47.31
-45.44
-40.49
-32.92
-23.66
-13.82
-4.45
3.69
10.23
15.04
18.20
19.86
20.18
19.36
17.64
15.27
12.53
9.69
7.02
4.76
3.15
2.33
2.33
3.01
4.16
5.49
6.73
7.71
8.30
8.42
7.99
6.97
5.33
3.15
0.58
-2.21
-5.03
-7.81
-10.55
-13.36
-16.35
-19.63
-23.24
-27.17
-31.37
-35.67
-39.76
-43.08
-44.94
-44.64
-41.69
-36.07
-28.22
-19.01
-9.42
-0.35
7.55
13.88
18.45
21.22
22.26
21.84
20.33
18.18
15.79
13.46
11.34
9.47
7.89
6.65
5.88
5.64
5.96
6.74
7.78
8.86
9.77
10.41
10.66
10.43
9.56
7.90
5.38
2.16
-1.42
-4.94
-8.08
-10.75
-13.14
-15.61
-18.50
-21.98
-26.09
-30.63
-35.29
-39.66
-43.13
-45.07
-44.80
-41.91
-36.37
-28.62
-19.47
-9.90
-0.83
7.08
13.43
18.08
21.08
22.52
22.50
21.19
18.80
15.66
12.22
8.99
6.40
4.74
4.03
4.09
4.65
5.45
6.35
7.29
8.22
9.05
9.62
9.75
9.30
8.21
6.50
4.24
1.55
-1.41
-4.46
-7.40
-10.09
-12.52
-14.89
-17.54
-20.81
-24.83
-29.38
-33.85
-37.36
-39.03
-38.21
-34.65
-28.60
-20.62
-11.57
-2.32
6.36
13.88
19.86
24.07
26.49
27.19
26.36
24.32
21.41
18.02
14.48
11.06
8.03
5.62
4.05
3.40
3.64
4.54
5.77
6.99
7.94
8.51
8.64
8.31
7.43
5.93
3.74
0.91
-2.40
-5.91
-9.37
-12.61
-15.58
-18.44
-21.48
-24.99
-29.19
-34.07
-39.34
-44.39
-48.43
-50.58
-50.14
-46.74
-40.46
-31.82
-21.68
-11.06
-0.91
8.00
15.18
20.45
23.82
25.46
25.62
24.54
22.48
19.72
16.62
13.59
11.05
9.32
8.51
8.55
9.23
10.32
11.60
12.90
14.05
14.85
15.07
14.54
13.22
11.26
8.90
6.38
3.85
1.27
-1.45
-4.41
-7.62
-11.01
-14.51
-18.13
-21.97
-26.21
-30.96
-36.07
-41.09
-45.28
-47.71
-47.60
-44.51
-38.48
-30.01
-19.93
-9.20
1.26
10.70
18.54
24.41
28.15
29.82
29.65
28.05
25.45
22.26
18.84
15.50
12.60
10.50
9.50
9.68
10.95
12.93
15.19
17.28
18.89
19.90
20.27
20.02
19.12
17.50
15.11
11.99
8.32
4.37
0.44
-3.29
-6.80
-10.23
-13.77
-17.58
-21.77
-26.38
-31.40
-36.73
-41.99
-46.53
-49.45
-49.83
-47.06
-41.06
-32.34
-21.84
-10.64
0.25
10.09
18.37
24.77
29.08
31.24
31.34
29.65
26.63
22.82
18.82
15.17
12.31
10.51
9.88
10.33
11.67
13.53
15.59
17.46
18.89
19.77
20.02
19.67
18.68
16.97
14.44
11.12
7.17
2.99
-1.04
-4.61
-7.69
-10.52
-13.53
-17.17
-21.73
-27.27
-33.52
-39.92
-45.66
-49.75
-51.23
-49.37
-43.92
-35.21
-24.13
-11.92
0.18
11.09
20.12
26.94
31.50
33.94
34.46
33.32
30.86
27.50
23.80
20.32
17.55
15.80
15.14
15.46
16.51
18.00
19.68
21.34
22.77
23.80
24.25
23.97
22.87
20.93
18.22
14.89
11.09
6.96
2.62
-1.88
-6.47
-11.07
-15.55
-19.86
-24.11
-28.60
-33.75
-39.81
-46.64
-53.58
-59.45
-62.89
-62.74
-58.40
-50.00
-38.30
-24.52
-10.01
3.96
16.41
26.65
34.35
39.45
42.12
42.69
41.58
39.26
36.23
32.97
29.90
27.41
25.75
25.09
25.37
26.43
27.96
29.60
31.10
32.24
32.93
33.07
32.57
31.31
29.22
26.33
22.77
18.72
14.34
9.69
4.78
-0.33
-5.47
-10.35
-14.76
-18.72
-22.58
-26.97
-32.42
-39.09
-46.49
-53.46
-58.53
-60.31
-57.95
-51.38
-41.22
-28.56
-14.65
-0.66
12.43
23.86
33.03
39.56
43.27
44.29
43.01
40.06
36.16
31.96
28.02
24.71
22.27
20.83
20.46
21.11
22.61
24.61
26.64
28.27
29.18
29.26
28.60
27.38
25.69
23.48
20.63
17.04
12.75
7.98
3.02
-1.82
-6.40
-10.76
-15.06
-19.51
-24.33
-29.63
-35.44
-41.55
-47.42
-52.19
-54.77
-54.17
-49.75
-41.52
-30.14
-16.74
-2.67
10.81
22.70
32.32
39.30
43.56
45.21
44.59
42.19
38.59
34.40
30.16
26.32
23.22
21.06
19.92
19.74
20.32
21.40
22.67
23.84
24.67
24.96
24.58
23.44
21.50
18.78
15.32
11.21
6.61
1.71
-3.26
-8.10
-12.67
-17.00
-21.27
-25.82
-31.03
-37.12
-44.04
-51.26
-57.83
-62.53
-64.12
-61.77
-55.23
-45.00
-32.11
-17.89
-3.70
9.37
20.50
29.25
35.42
39.06
40.39
39.78
37.71
34.64
31.05
27.33
23.89
21.07
19.18
18.46
18.91
20.36
22.38
24.47
26.15
27.11
27.26
26.70
25.59
24.04
22.07
19.54
16.32
12.32
7.63
2.48
-2.83
-8.01
-12.89
-17.40
-21.60
-25.66
-29.82
-34.34
-39.45
-45.15
-51.05
-56.28
-59.63
-59.82
-55.96
-47.89
-36.31
-22.53
-8.15
5.41
17.15
26.55
33.46
37.92
40.09
40.18
38.49
35.49
31.67
27.60
23.80
20.69
18.54
17.50
17.53
18.45
19.97
21.72
23.38
24.62
25.29
25.27
24.54
23.09
20.94
18.12
14.71
10.87
6.79
2.73
-1.14
-4.77
-8.25
-11.78
-15.55
-19.71
-24.33
-29.45
-35.04
-40.94
-46.80
-51.86
-55.12
-55.47
-52.08
-44.77
-34.14
-21.46
-8.28
4.00
14.43
22.59
28.42
32.01
33.43
32.78
30.26
26.33
21.64
16.95
12.93
10.00
8.30
7.74
8.14
9.28
10.97
12.99
15.10
17.01
18.45
19.20
19.15
18.25
16.54
14.03
10.78
6.90
2.58
-1.93
-6.39
-10.59
-14.47
-18.08
-21.60
-25.26
-29.35
-34.08
-39.41
-45.02
-50.15
-53.73
-54.65
-52.09
-45.78
-36.13
-24.11
-11.03
1.85
13.48
23.14
30.43
35.22
37.59
37.79
36.16
33.16
29.30
25.07
20.94
17.31
14.52
12.79
12.16
12.52
13.59
15.02
16.45
17.59
18.27
18.43
18.03
17.09
15.63
13.65
11.18
8.19
4.70
0.74
-3.58
-8.06
-12.48
-16.63
-20.46
-24.02
-27.53
-31.23
-35.41
-40.22
-45.62
-51.24
-56.29
-59.74
-60.47
-57.73
-51.29
-41.63
-29.73
-16.82
-4.07
7.58
17.47
25.21
30.57
33.55
34.29
33.14
30.58
27.13
23.34
19.67
16.52
14.20
12.89
12.68
13.47
15.09
17.22
19.52
21.62
23.17
23.91
23.72
22.66
20.90
18.67
16.12
13.33
10.31
7.01
3.43
-0.39
-4.38
-8.49
-12.63
-16.73
-20.69
-24.51
-28.28
-32.30
-36.90
-42.21
-47.94
-53.28
-57.01
-57.89
-55.07
-48.41
-38.48
-26.44
-13.63
-1.25
9.79
18.93
25.87
30.50
32.84
33.08
31.58
28.85
25.44
21.82
18.38
15.33
12.83
11.04
10.07
10.02
10.88
12.45
14.38
16.22
17.56
18.11
17.81
16.73
15.11
13.15
11.06
8.85
6.43
3.64
0.35
-3.41
-7.47
-11.53
-15.30
-18.65
-21.67
-24.66
-28.01
-32.03
-36.76
-41.83
-46.46
-49.64
-50.38
-47.99
-42.33
-33.82
-23.35
-12.05
-0.97
9.04
17.49
24.08
28.69
31.27
31.89
30.71
28.10
24.53
20.53
16.60
13.15
10.50
8.82
8.18
8.52
9.65
11.23
12.86
14.16
14.88
14.94
14.42
13.44
12.10
10.42
8.38
5.90
2.98
-0.32
-3.89
-7.55
-11.15
-14.59
-17.84
-20.98
-24.17
-27.61
-31.55
-36.13
-41.27
-46.56
-51.20
-54.15
-54.40
-51.29
-44.71
-35.19
-23.77
-11.67
-0.07
10.12
18.37
24.48
28.46
30.49
30.81
29.69
27.42
24.33
20.81
17.27
14.11
11.65
10.07
9.41
9.58
10.43
11.75
13.31
14.79
15.91
16.43
16.24
15.38
13.92
11.96
9.57
6.77
3.60
0.16
-3.45
-7.08
-10.65
-14.13
-17.54
-20.95
-24.46
-28.24
-32.46
-37.28
-42.58
-47.90
-52.35
-54.85
-54.43
-50.55
-43.34
-33.48
-22.11
-10.38
0.67
10.30
18.08
23.84
27.65
29.76
30.57
30.46
29.77
28.67
27.22
25.46
23.43
21.30
19.32
17.81
17.01
17.01
17.70
18.69
19.55
19.89
19.54
18.60
17.34
16.03
14.72
13.24
11.26
8.52
4.95
0.75
-3.68
-7.96
-11.84
-15.31
-18.49
-21.66
-25.06
-28.93
-33.42
-38.48
-43.82
-48.75
-52.35
-53.56
-51.63
-46.28
-37.88
-27.34
-15.78
-4.32
6.17
15.10
22.10
26.95
29.61
30.21
29.04
26.55
23.23
19.56
15.95
12.71
10.08
8.23
7.31
7.35
8.29
9.91
11.86
13.76
15.25
16.07
16.09
15.31
13.84
11.79
9.30
6.48
3.40
0.13
-3.27
-6.79
-10.37
-13.98
-17.59
-21.21
-24.94
-28.92
-33.28
-37.99
-42.70
-46.72
-49.08
-48.82
-45.29
-38.44
-28.84
-17.58
-5.93
4.99
14.41
21.93
27.42
30.92
32.48
32.21
30.30
27.07
22.99
18.63
14.56
11.28
9.11
8.14
8.25
9.17
10.57
12.14
13.61
14.81
15.61
15.93
15.71
14.87
13.35
11.12
8.27
4.92
1.27
-2.50
-6.30
-10.12
-14.02
-18.05
-22.23
-26.62
-31.30
-36.44
-42.07
-48.00
-53.57
-57.72
-59.26
-57.24
-51.34
-41.98
-30.22
-17.37
-4.66
6.97
16.96
24.98
30.77
34.18
35.15
33.89
30.80
26.55
21.82
17.25
13.31
10.28
8.30
7.38
7.45
8.30
9.69
11.29
12.82
14.07
14.87
15.07
14.52
13.12
10.80
7.64
3.84
-0.34
-4.63
-8.89
-13.03
-17.06
-20.96
-24.75
-28.54
-32.57
-37.16
-42.47
-48.32
-53.94
-58.10
-59.44
-56.93
-50.27
-39.97
-27.22
-13.45
0.02
12.23
22.58
30.72
36.45
39.63
40.31
38.77
35.50
31.10
26.25
21.55
17.47
14.35
12.35
11.54
11.76
12.80
14.36
16.12
17.81
19.19
20.08
20.28
19.67
18.20
15.93
13.00
9.57
5.82
1.82
-2.33
-6.56
-10.78
-14.91
-18.99
-23.19
-27.86
-33.30
-39.60
-46.34
-52.59
-57.04
-58.37
-55.69
-48.82
-38.35
-25.41
-11.40
2.35
14.83
25.35
33.52
39.23
42.49
43.46
42.38
39.62
35.68
31.19
26.77
23.02
20.30
18.71
18.15
18.37
19.14
20.28
21.68
23.20
24.64
25.71
26.16
25.76
24.42
22.15
19.04
15.21
10.86
6.20
1.45
-3.21
-7.66
-11.95
-16.21
-20.64
-25.46
-30.83
-36.78
-43.14
-49.40
-54.72
-57.97
-58.07
-54.32
-46.67
-35.76
-22.79
-9.08
4.13
15.99
25.92
33.58
38.74
41.32
41.40
39.36
35.82
31.49
27.12
23.28
20.34
18.45
17.65
17.87
19.00
20.85
23.15
25.52
27.55
28.90
29.37
28.99
27.86
26.11
23.78
20.81
17.17
12.89
8.16
3.27
-1.50
-5.99
-10.23
-14.40
-18.75
-23.57
-29.07
-35.24
-41.82
-48.13
-53.21
-55.92
-55.25
-50.65
-42.22
-30.74
-17.49
-3.88
8.78
19.57
28.02
33.96
37.41
38.47
37.27
34.09
29.41
23.98
18.67
14.28
11.29
9.82
9.62
10.32
11.55
13.11
14.87
16.73
18.51
19.95
20.75
20.66
19.59
17.53
14.65
11.17
7.40
3.62
0.01
-3.38
-6.65
-10.04
-13.84
-18.28
-23.49
-29.33
-35.38
-40.85
-44.76
-46.10
-44.11
-38.54
-29.73
-18.54
-6.09
6.46
18.16
28.30
36.32
41.88
44.76
44.98
42.85
38.94
33.95
28.59
23.46
18.97
15.42
13.00
11.79
11.76
12.68
14.20
15.89
17.40
18.46
18.97
18.90
18.22
16.86
14.74
11.83
8.17
3.99
-0.47
-4.94
-9.22
-13.26
-17.13
-20.99
-25.08
-29.62
-34.76
-40.50
-46.53
-52.18
-56.45
-58.14
-56.28
-50.41
-40.78
-28.35
-14.51
-0.76
11.71
22.07
29.98
35.35
38.28
38.98
37.75
34.99
31.20
26.98
22.85
19.28
16.61
14.98
14.43
14.86
16.09
17.83
19.71
21.36
22.45
22.84
22.52
21.59
20.15
18.24
15.82
12.84
9.35
5.50
1.53
-2.37
-6.12
-9.76
-13.47
-17.42
-21.78
-26.61
-31.91
-37.51
-42.99
-47.69
-50.68
-51.02
-47.98
-41.35
-31.56
-19.59
-6.77
5.59
16.45
25.19
31.61
35.76
37.83
38.00
36.47
33.45
29.33
24.63
20.01
16.12
13.45
12.16
12.10
12.86
14.01
15.20
16.26
17.15
17.86
18.29
18.32
17.83
16.73
15.02
12.79
10.11
7.04
3.62
-0.11
-4.05
-8.05
-11.94
-15.61
-19.09
-22.58
-26.40
-30.78
-35.71
-40.80
-45.27
-48.16
-48.56
-45.89
-40.07
-31.51
-21.04
-9.69
1.45
11.45
19.60
25.51
29.13
30.60
30.29
28.56
25.81
22.39
18.65
14.96
11.67
9.10
7.47
6.84
7.14
8.13
9.50
10.97
12.30
13.30
13.87
13.93
13.44
12.33
10.63
8.38
5.69
2.70
-0.43
-3.55
-6.56
-9.37
-12.01
-14.55
-17.10
-19.92
-23.20
-27.08
-31.44
-35.81
-39.39
-41.22
-40.47
-36.72
-30.17
-21.51
-11.77
-1.96
7.14
14.96
21.19
25.59
28.01
28.40
26.95
24.09
20.39
16.45
12.73
9.52
6.92
5.03
3.90
3.62
4.21
5.51
7.20
8.85
10.09
10.69
10.64
10.04
8.98
7.52
5.63
3.28
0.50
-2.58
-5.80
-8.99
-12.08
-15.12
-18.16
-21.30
-24.60
-28.12
-31.88
-35.85
-39.85
-43.48
-46.13
-47.05
-45.60
-41.40
-34.56
-25.69
-15.73
-5.75
3.32
10.87
16.62
20.58
22.94
23.88
23.55
22.09
19.67
16.59
13.22
10.02
7.39
5.59
4.79
5.00
6.11
7.89
10.02
12.08
13.67
14.47
14.37
13.47
12.01
10.28
8.44
6.52
4.41
1.99
-0.82
-4.00
-7.43
-10.99
-14.53
-17.98
-21.33
-24.64
-28.05
-31.67
-35.55
-39.48
-43.00
-45.35
-45.69
-43.38
-38.23
-30.61
-21.35
-11.49
-1.98
6.48
13.44
18.66
21.99
23.45
23.18
21.55
19.06
16.23
13.50
11.13
9.24
7.86
6.99
6.63
6.77
7.35
8.34
9.62
11.08
12.52
13.70
14.36
14.28
13.40
11.75
9.52
6.86
3.94
0.88
-2.20
-5.16
-7.87
-10.24
-12.37
-14.46
-16.79
-19.61
-23.05
-27.06
-31.40
-35.68
-39.33
-41.67
-42.06
-40.02
-35.42
-28.57
-20.13
-10.99
-2.06
5.93
12.48
17.32
20.35
21.60
21.25
19.59
16.99
13.86
10.58
7.49
4.85
2.89
1.73
1.44
1.95
3.07
4.53
6.02
7.36
8.42
9.18
9.61
9.62
9.12
8.02
6.35
4.26
1.96
-0.37
-2.69
-5.07
-7.60
-10.31
-13.21
-16.28
-19.59
-23.25
-27.38
-31.83
-36.19
-39.75
-41.65
-41.21
-38.05
-32.28
-24.40
-15.24
-5.73
3.23
10.90
16.85
20.90
23.12
23.69
22.87
20.93
18.17
14.93
11.55
8.43
5.85
4.02
3.03
2.86
3.38
4.41
5.68
6.93
7.94
8.60
8.86
8.75
8.23
7.18
5.45
2.96
-0.24
-3.87
-7.60
-11.13
-14.35
-17.33
-20.28
-23.42
-26.96
-30.98
-35.49
-40.37
-45.26
-49.53
-52.30
-52.65
-49.90
-43.92
-35.18
-24.67
-13.59
-3.03
6.23
13.74
19.33
23.02
24.88
25.08
23.84
21.52
18.52
15.32
12.40
10.19
8.96
8.73
9.38
10.60
12.04
13.46
14.70
15.72
16.46
16.82
16.62
15.71
14.00
11.60
8.72
5.61
2.45
-0.75
-4.03
-7.51
-11.24
-15.21
-19.38
-23.74
-28.34
-33.25
-38.46
-43.70
-48.43
-51.86
-53.13
-51.61
-47.05
-39.67
-30.06
-19.11
-7.80
2.97
12.41
19.96
25.35
28.58
29.88
29.63
28.22
26.00
23.31
20.50
17.91
15.83
14.48
13.94
14.16
15.01
16.32
17.90
19.53
20.94
21.92
22.26
21.85
20.65
18.65
15.88
12.39
8.29
3.69
-1.19
-6.14
-10.88
-15.24
-19.12
-22.58
-25.89
-29.40
-33.49
-38.34
-43.77
-49.17
-53.59
-55.91
-55.25
-51.14
-43.69
-33.57
-21.80
-9.52
2.23
12.61
21.05
27.22
31.01
32.52
32.00
29.85
26.62
22.87
19.19
16.10
14.00
13.10
13.40
14.74
16.79
19.18
21.55
23.58
25.07
25.89
25.98
25.36
24.05
22.04
19.35
16.06
12.28
8.23
4.10
0.05
-3.90
-7.84
-11.87
-16.16
-20.82
-25.98
-31.67
-37.73
-43.64
-48.49
-51.16
-50.56
-46.12
-37.94
-26.82
-14.03
-0.88
11.53
22.43
31.31
37.85
41.81
43.09
41.84
38.59
34.09
29.27
24.95
21.68
19.64
18.76
18.79
19.49
20.66
22.15
23.77
25.32
26.51
27.12
26.97
25.99
24.15
21.53
18.19
14.31
10.09
5.77
1.49
-2.71
-6.96
-11.42
-16.30
-21.70
-27.63
-33.85
-39.84
-44.85
-47.92
-48.21
-45.11
-38.59
-29.12
-17.65
-5.31
6.77
17.67
26.73
33.45
37.58
39.07
38.14
35.31
31.31
26.92
22.76
19.24
16.45
14.36
12.85
11.92
11.69
12.39
14.14
16.89
20.28
23.64
26.24
27.40
26.68
24.07
19.90
14.77
9.35
4.14
-0.59
-4.86
-8.83
-12.85
-17.21
-22.14
-27.71
-33.71
-39.54
-44.28
-46.80
-46.06
-41.40
-32.84
-21.08
-7.37
6.83
20.18
31.64
40.51
46.45
49.36
49.37
46.86
42.47
37.01
31.36
26.27
22.31
19.70
18.46
18.35
19.06
20.23
21.55
22.76
23.70
24.26
24.31
23.68
22.19
19.73
16.35
12.30
7.92
3.56
-0.58
-4.54
-8.55
-12.92
-17.95
-23.75
-30.24
-37.04
-43.45
-48.56
-51.33
-50.87
-46.64
-38.68
-27.61
-14.51
-0.70
12.53
24.12
33.35
39.88
43.67
44.93
43.99
41.32
37.44
32.94
28.44
24.52
21.59
19.84
19.19
19.35
19.98
20.78
21.63
22.45
23.18
23.63
23.50
22.45
20.29
17.05
12.99
8.53
4.05
-0.21
-4.21
-8.08
-12.03
-16.25
-20.93
-26.14
-31.78
-37.51
-42.61
-46.12
-47.01
-44.48
-38.31
-28.94
-17.37
-4.92
7.19
18.02
27.03
33.90
38.49
40.70
40.57
38.35
34.58
30.03
25.52
21.73
19.02
17.43
16.70
16.53
16.65
16.91
17.27
17.69
18.13
18.40
18.29
17.55
16.01
13.62
10.47
6.77
2.79
-1.21
-5.08
-8.78
-12.36
-15.97
-19.80
-24.07
-28.85
-34.04
-39.19
-43.56
-46.17
-46.15
-42.97
-36.62
-27.67
-17.10
-6.03
4.45
13.52
20.62
25.49
28.05
28.45
26.99
24.13
20.45
16.53
12.89
9.88
7.67
6.22
5.44
5.18
5.38
6.00
6.96
8.17
9.40
10.39
10.90
10.70
9.68
7.79
5.14
1.92
-1.57
-5.02
-8.23
-11.20
-14.12
-17.34
-21.15
-25.66
-30.58
-35.29
-38.93
-40.66
-39.87
-36.33
-30.24
-22.15
-12.83
-3.12
6.13
14.20
20.56
24.91
27.18
27.56
26.37
24.04
20.97
17.55
14.11
10.98
8.43
6.68
5.76
5.60
5.96
6.61
7.33
7.97
8.45
8.65
8.41
7.55
5.95
3.62
0.70
-2.54
-5.85
-9.03
-12.03
-14.90
-17.80
-20.93
-24.49
-28.59
-33.14
-37.78
-41.86
-44.58
-45.14
-43.00
-38.05
-30.68
-21.73
-12.19
-2.99
5.18
11.98
17.27
21.00
23.14
23.63
22.54
20.10
16.76
13.11
9.74
7.11
5.45
4.75
4.78
5.27
5.93
6.60
7.23
7.88
8.55
9.07
9.13
8.37
6.60
3.92
0.70
-2.60
-5.63
-8.28
-10.69
-13.04
-15.53
-18.26
-21.29
-24.73
-28.61
-32.84
-36.99
-40.32
-41.92
-41.04
-37.33
-31.03
-22.86
-13.85
-5.03
2.85
9.32
14.23
17.56
19.39
19.88
19.23
17.74
15.76
13.64
11.67
10.03
8.82
8.10
7.87
8.11
8.74
9.61
10.56
11.39
11.94
12.10
11.78
10.94
9.55
7.62
5.25
2.60
-0.11
-2.69
-5.03
-7.17
-9.23
-11.41
-13.86
-16.67
-19.83
-23.30
-27.04
-30.88
-34.51
-37.38
-38.79
-38.04
-34.75
-29.01
-21.45
-12.99
-4.55
3.09
9.51
14.49
17.96
19.93
20.42
19.60
17.74
15.27
12.62
10.19
8.26
6.93
6.19
5.93
6.06
6.50
7.26
8.33
9.64
11.00
12.10
12.58
12.12
10.67
8.35
5.46
2.35
-0.75
-3.73
-6.57
-9.31
-11.96
-14.50
-16.98
-19.51
-22.32
-25.56
-29.24
-33.08
-36.47
-38.67
-38.95
-36.90
-32.50
-26.14
-18.48
-10.27
-2.19
5.17
11.38
16.07
19.02
20.17
19.70
17.99
15.55
12.91
10.48
8.48
7.03
6.11
5.69
5.72
6.17
6.96
7.97
9.04
9.99
10.68
11.00
10.89
10.30
9.22
7.65
5.61
3.17
0.39
-2.58
-5.63
-8.64
-11.53
-14.25
-16.88
-19.52
-22.37
-25.60
-29.27
-33.18
-36.86
-39.57
-40.53
-39.16
-35.25
-29.08
-21.28
-12.70
-4.17
3.68
10.40
15.73
19.50
21.58
21.97
20.81
18.52
15.57
12.55
9.92
7.95
6.74
6.26
6.41
7.06
8.07
9.23
10.30
11.09
11.44
11.29
10.64
9.53
8.02
6.18
4.10
1.83
-0.56
-3.04
-5.59
-8.13
-10.61
-12.99
-15.36
-17.93
-21.01
-24.82
-29.31
-34.05
-38.27
-41.07
-41.65
-39.58
-34.91
-28.07
-19.81
-10.95
-2.24
5.70
12.46
17.76
21.48
23.57
24.10
23.29
21.48
19.08
16.50
14.07
11.96
10.29
9.13
8.53
8.50
9.00
9.88
10.87
11.74
12.28
12.47
12.32
11.84
10.96
9.57
7.60
5.09
2.22
-0.78
-3.71
-6.52
-9.27
-12.11
-15.17
-18.54
-22.27
-26.37
-30.80
-35.33
-39.51
-42.60
-43.79
-42.42
-38.25
-31.57
-23.13
-13.92
-4.82
3.48
10.58
16.23
20.25
22.50
22.91
21.61
18.94
15.39
11.58
8.01
5.07
2.95
1.72
1.32
1.64
2.50
3.71
5.11
6.50
7.78
8.81
9.47
9.58
9.00
7.66
5.63
3.06
0.20
-2.73
-5.61
-8.45
-11.36
-14.51
-18.09
-22.22
-26.85
-31.72
-36.26
-39.72
-41.26
-40.27
-36.50
-30.14
-21.81
-12.31
-2.48
6.87
15.13
21.84
26.72
29.61
30.55
29.71
27.36
23.93
19.91
15.87
12.30
9.56
7.84
7.07
7.05
7.47
8.08
8.70
9.27
9.73
10.05
10.09
9.67
8.58
6.67
3.94
0.57
-3.14
-6.84
-10.29
-13.47
-16.61
-20.10
-24.33
-29.50
-35.46
-41.68
-47.30
-51.37
-53.01
-51.65
-47.11
-39.64
-29.84
-18.60
-6.98
4.01
13.50
20.93
26.07
28.99
29.94
29.22
27.15
24.08
20.48
16.87
13.77
11.57
10.42
10.21
10.66
11.44
12.36
13.33
14.36
15.38
16.19
16.46
15.86
14.17
11.42
7.86
3.88
-0.15
-3.96
-7.51
-10.97
-14.63
-18.81
-23.76
-29.53
-35.90
-42.37
-48.16
-52.29
-53.81
-51.99
-46.56
-37.82
-26.64
-14.17
-1.65
9.89
19.75
27.57
33.19
36.60
37.83
37.07
34.64
31.07
27.00
23.07
19.77
17.39
15.96
15.40
15.54
16.26
17.43
18.95
20.59
22.04
22.92
22.84
21.60
19.18
15.78
11.70
7.33
2.96
-1.25
-5.29
-9.27
-13.42
-18.03
-23.34
-29.47
-36.19
-42.93
-48.71
-52.41
-52.97
-49.77
-42.78
-32.61
-20.35
-7.26
5.48
17.01
26.73
34.26
39.33
41.73
41.45
38.80
34.44
29.29
24.29
20.23
17.45
15.91
15.33
15.40
15.90
16.77
18.04
19.59
21.22
22.53
23.06
22.45
20.51
17.34
13.25
8.70
4.11
-0.25
-4.38
-8.49
-12.92
-18.06
-24.09
-30.94
-38.12
-44.79
-49.82
-52.10
-50.76
-45.42
-36.37
-24.46
-10.93
2.90
15.87
27.07
35.91
42.03
45.33
45.88
44.06
40.44
35.78
30.84
26.25
22.44
19.60
17.74
16.79
16.63
17.10
17.98
19.05
20.04
20.81
21.18
21.05
20.23
18.57
15.90
12.22
7.72
2.75
-2.27
-7.04
-11.49
-15.79
-20.37
-25.61
-31.75
-38.57
-45.41
-51.16
-54.62
-54.74
-50.99
-43.50
-33.00
-20.59
-7.46
5.32
16.90
26.68
34.29
39.47
42.21
42.61
41.02
37.91
33.89
29.58
25.58
22.39
20.28
19.31
19.35
20.11
21.29
22.64
23.98
25.16
26.01
26.29
25.65
23.80
20.60
16.14
10.80
5.09
-0.48
-5.60
-10.19
-14.42
-18.57
-22.97
-27.87
-33.43
-39.55
-45.87
-51.59
-55.67
-56.86
-54.17
-47.10
-35.96
-21.83
-6.33
8.82
22.14
32.75
40.33
44.98
47.02
46.80
44.68
41.08
36.54
31.72
27.34
23.88
21.60
20.39
19.97
20.04
20.38
20.89
21.55
22.27
22.89
23.13
22.70
21.38
19.12
16.00
12.28
8.20
4.03
-0.07
-4.00
-7.76
-11.37
-14.90
-18.54
-22.51
-27.06
-32.19
-37.58
-42.40
-45.53
-45.78
-42.40
-35.33
-25.23
-13.30
-0.86
11.01
21.58
30.41
37.19
41.56
43.18
41.98
38.28
32.87
26.81
21.11
16.48
13.12
10.91
9.51
8.69
8.33
8.41
8.92
9.67
10.40
10.75
10.41
9.22
7.17
4.35
0.95
-2.77
-6.61
-10.35
-13.86
-17.09
-20.15
-23.23
-26.64
-30.64
-35.36
-40.58
-45.70
-49.74
-51.56
-50.25
-45.39
-37.25
-26.68
-14.88
-3.01
8.04
17.67
25.51
31.32
34.85
36.02
34.99
32.18
28.32
24.21
20.53
17.74
15.99
15.18
15.09
15.44
15.99
16.55
17.00
17.28
17.36
17.15
16.54
15.32
13.30
10.39
6.65
2.34
-2.21
-6.65
-10.77
-14.53
-18.04
-21.51
-25.19
-29.34
-34.07
-39.27
-44.41
-48.64
-50.89
-50.25
-46.23
-38.98
-29.20
-17.99
-6.46
4.40
13.84
21.39
26.78
29.98
31.17
30.72
29.14
26.91
24.47
22.12
20.07
18.52
17.56
17.20
17.34
17.81
18.40
19.00
19.55
20.03
20.33
20.22
19.36
17.45
14.39
10.35
5.76
1.16
-3.02
-6.62
-9.72
-12.62
-15.69
-19.28
-23.60
-28.65
-34.12
-39.39
-43.58
-45.73
-45.06
-41.24
-34.48
-25.52
-15.37
-5.11
4.38
12.54
19.07
23.89
27.04
28.62
28.80
27.80
25.94
23.60
21.21
19.17
17.75
17.04
17.00
17.44
18.18
19.05
19.90
20.58
20.91
20.69
19.80
18.24
16.12
13.61
10.84
7.83
4.56
0.98
-2.83
-6.77
-10.63
-14.31
-17.84
-21.41
-25.28
-29.65
-34.50
-39.46
-43.83
-46.70
-47.23
-44.85
-39.48
-31.60
-22.08
-11.98
-2.30
6.22
13.18
18.38
21.84
23.63
23.87
22.81
20.77
18.20
15.58
13.35
11.76
10.93
10.80
11.20
11.94
12.79
13.63
14.31
14.77
14.92
14.68
14.00
12.81
11.10
8.89
6.30
3.42
0.36
-2.77
-5.91
-8.98
-11.99
-14.94
-17.96
-21.22
-24.89
-29.00
-33.32
-37.33
-40.26
-41.31
-39.83
-35.56
-28.73
-20.01
-10.40
-0.93
7.50
14.35
19.39
22.69
24.43
24.82
24.04
22.28
19.85
17.13
14.62
12.71
11.61
11.26
11.40
11.76
12.14
12.49
12.86
13.25
13.57
13.64
13.24
12.23
10.60
8.42
5.82
2.91
-0.22
-3.47
-6.74
-9.94
-13.03
-16.00
-18.91
-21.88
-25.02
-28.43
-32.13
-35.98
-39.58
-42.32
-43.48
-42.42
-38.88
-33.01
-25.39
-16.80
-8.04
0.23
7.52
13.44
17.67
20.03
20.53
19.46
17.31
14.67
12.03
9.69
7.81
6.44
5.65
5.52
6.08
7.21
8.67
10.08
11.13
11.67
11.71
11.42
10.88
10.07
8.84
7.02
4.54
1.50
-1.87
-5.27
-8.51
-11.50
-14.33
-17.13
-20.07
-23.31
-26.99
-31.15
-35.66
-40.10
-43.73
-45.63
-44.97
-41.33
-34.93
-26.54
-17.21
-7.99
0.42
7.69
13.69
18.35
21.51
23.01
22.83
21.24
18.80
16.17
13.92
12.33
11.36
10.82
10.53
10.45
10.64
11.19
12.06
13.05
13.84
14.13
13.75
12.77
11.35
9.67
7.76
5.55
2.95
-0.05
-3.25
-6.38
-9.23
-11.81
-14.36
-17.26
-20.85
-25.18
-30.07
-35.09
-39.72
-43.43
-45.72
-46.16
-44.40
-40.26
-33.85
-25.63
-16.38
-7.02
1.55
8.72
14.21
18.04
20.44
21.63
21.82
21.07
19.51
17.33
14.87
12.55
10.75
9.67
9.29
9.45
9.92
10.52
11.13
11.70
12.18
12.46
12.41
11.90
10.92
9.55
7.91
6.06
3.97
1.56
-1.27
-4.47
-7.92
-11.43
-14.83
-18.13
-21.43
-24.99
-28.98
-33.37
-37.79
-41.60
-44.05
-44.43
-42.28
-37.52
-30.46
-21.74
-12.23
-2.83
5.64
12.63
17.84
21.27
23.09
23.51
22.74
20.98
18.44
15.45
12.44
9.92
8.23
7.57
7.80
8.64
9.72
10.74
11.57
12.22
12.72
13.05
13.05
12.49
11.14
8.95
6.06
2.77
-0.58
-3.72
-6.62
-9.36
-12.13
-15.11
-18.41
-22.07
-26.08
-30.37
-34.71
-38.66
-41.55
-42.63
-41.26
-37.18
-30.60
-22.18
-12.84
-3.44
5.29
12.91
19.14
23.77
26.66
27.71
27.00
24.82
21.61
17.90
14.21
10.94
8.37
6.65
5.82
5.81
6.45
7.49
8.59
9.52
10.05
10.09
9.66
8.80
7.57
5.99
4.08
1.80
-0.86
-3.87
-7.10
-10.40
-13.61
-16.68
-19.74
-22.96
-26.60
-30.75
-35.36
-40.17
-44.68
-48.25
-50.18
-49.82
-46.71
-40.77
-32.37
-22.28
-11.56
-1.28
7.72
14.94
20.26
23.78
25.66
26.05
25.06
22.80
19.54
15.76
12.11
9.27
7.70
7.52
8.44
9.96
11.57
12.98
14.14
15.16
16.11
16.86
17.17
16.70
15.28
12.94
9.93
6.57
3.10
-0.34
-3.80
-7.35
-11.02
-14.79
-18.63
-22.58
-26.78
-31.45
-36.70
-42.36
-47.84
-52.22
-54.46
-53.69
-49.55
-42.21
-32.38
-21.08
-9.41
1.62
11.22
18.88
24.40
27.76
29.14
28.78
27.02
24.28
21.04
17.82
15.10
13.22
12.33
12.39
13.22
14.60
16.28
18.02
19.62
20.90
21.71
21.97
21.59
20.52
18.69
16.15
13.01
9.45
5.70
1.89
-1.93
-5.82
-9.85
-14.13
-18.73
-23.74
-29.21
-35.05
-40.93
-46.14
-49.76
-50.78
-48.51
-42.70
-33.77
-22.61
-10.37
1.82
13.04
22.67
30.31
35.67
38.62
39.12
37.39
33.95
29.53
24.97
21.02
18.14
16.48
15.91
16.15
16.91
17.93
19.04
20.15
21.16
21.97
22.43
22.33
21.48
19.81
17.36
14.27
10.70
6.72
2.35
-2.40
-7.42
-12.52
-17.49
-22.20
-26.82
-31.67
-37.18
-43.51
-50.38
-56.93
-61.94
-64.12
-62.52
-56.84
-47.47
-35.33
-21.62
-7.55
5.82
17.64
27.25
34.21
38.31
39.69
38.79
36.28
32.86
29.22
25.82
23.02
21.01
19.92
19.76
20.43
21.76
23.46
25.20
26.70
27.76
28.29
28.25
27.62
26.33
24.31
21.51
17.95
13.80
9.32
4.76
0.29
-4.10
-8.55
-13.20
-18.12
-23.32
-28.77
-34.51
-40.51
-46.58
-52.14
-56.21
-57.58
-55.22
-48.74
-38.51
-25.65
-11.66
2.04
14.37
24.71
32.81
38.58
41.99
43.07
41.97
39.08
35.03
30.57
26.47
23.22
21.06
19.90
19.53
19.66
20.15
20.95
22.05
23.33
24.51
25.25
25.18
24.11
22.05
19.15
15.63
11.66
7.37
2.86
-1.74
-6.25
-10.51
-14.48
-18.32
-22.33
-26.86
-32.08
-37.78
-43.37
-47.93
-50.49
-50.23
-46.79
-40.25
-31.14
-20.19
-8.22
4.01
15.81
26.40
35.05
41.10
44.13
44.14
41.58
37.27
32.15
27.13
22.88
19.88
18.30
18.13
19.11
20.85
22.85
24.64
25.93
26.60
26.68
26.22
25.24
23.67
21.41
18.47
14.92
10.95
6.79
2.58
-1.57
-5.69
-9.82
-14.06
-18.54
-23.46
-28.96
-35.04
-41.35
-47.12
-51.25
-52.56
-50.18
-43.84
-33.99
-21.75
-8.51
4.33
15.76
25.17
32.29
37.09
39.58
39.86
38.16
34.94
30.85
26.64
22.96
20.21
18.51
17.76
17.78
18.41
19.46
20.79
22.15
23.28
23.91
23.85
23.00
21.34
18.95
15.90
12.31
8.33
4.09
-0.25
-4.60
-8.87
-13.05
-17.13
-21.16
-25.22
-29.44
-33.97
-38.96
-44.35
-49.74
-54.37
-57.20
-57.21
-53.67
-46.41
-35.95
-23.29
-9.73
3.45
15.22
24.89
32.11
36.80
39.12
39.36
37.94
35.34
32.08
28.66
25.51
22.94
21.15
20.23
20.16
20.82
22.04
23.50
24.90
25.95
26.44
26.25
25.36
23.77
21.54
18.76
15.56
12.11
8.50
4.80
0.96
-3.04
-7.18
-11.31
-15.25
-18.88
-22.25
-25.61
-29.35
-33.75
-38.81
-44.12
-48.90
-52.15
-52.93
-50.62
-45.11
-36.82
-26.58
-15.40
-4.21
6.16
15.17
22.37
27.51
30.45
31.27
30.27
27.90
24.73
21.29
18.10
15.50
13.77
13.03
13.21
14.13
15.51
17.05
18.52
19.79
20.75
21.29
21.28
20.60
19.17
17.01
14.22
10.91
7.19
3.17
-1.01
-5.16
-9.10
-12.69
-15.97
-19.10
-22.34
-25.96
-30.13
-34.76
-39.48
-43.60
-46.22
-46.44
-43.64
-37.68
-29.07
-18.78
-8.01
2.21
11.15
18.50
24.15
28.08
30.22
30.54
29.15
26.44
22.99
19.47
16.42
14.13
12.69
12.00
11.96
12.48
13.46
14.74
16.06
17.14
17.73
17.69
17.04
15.82
14.10
11.87
9.12
5.83
2.08
-1.97
-6.08
-10.04
-13.70
-17.09
-20.36
-23.72
-27.39
-31.51
-36.12
-41.05
-45.93
-50.11
-52.80
-53.16
-50.58
-44.85
-36.34
-25.88
-14.60
-3.66
6.06
14.00
20.03
24.20
26.69
27.71
27.41
25.99
23.74
21.08
18.45
16.27
14.76
13.96
13.77
14.04
14.70
15.69
16.94
18.27
19.37
19.92
19.66
18.54
16.67
14.28
11.59
8.71
5.65
2.38
-1.12
-4.78
-8.48
-12.02
-15.33
-18.43
-21.55
-25.01
-29.10
-33.95
-39.33
-44.72
-49.29
-52.14
-52.47
-49.80
-44.05
-35.63
-25.34
-14.20
-3.28
6.51
14.55
20.58
24.59
26.73
27.23
26.38
24.52
22.03
19.30
16.73
14.61
13.11
12.30
12.17
12.66
13.66
15.00
16.43
17.65
18.39
18.47
17.85
16.62
14.90
12.80
10.40
7.69
4.73
1.55
-1.78
-5.18
-8.60
-11.98
-15.28
-18.44
-21.50
-24.56
-27.87
-31.60
-35.78
-40.10
-43.84
-46.08
-45.93
-42.87
-36.84
-28.36
-18.32
-7.73
2.44
11.43
18.69
23.91
26.95
27.92
27.10
24.95
22.01
18.76
15.65
12.99
11.03
9.92
9.69
10.22
11.22
12.36
13.35
14.05
14.51
14.81
15.04
15.10
14.75
13.67
11.65
8.64
4.87
0.71
-3.43
-7.22
-10.55
-13.50
-16.34
-19.37
-22.89
-27.03
-31.74
-36.77
-41.67
-45.85
-48.61
-49.23
-47.14
-42.09
-34.30
-24.48
-13.71
-3.16
6.15
13.58
18.96
22.42
24.26
24.76
24.12
22.52
20.18
17.43
14.66
12.25
10.39
9.16
8.48
8.27
8.46
9.02
9.91
10.97
12.01
12.72
12.90
12.43
11.32
9.67
7.57
5.14
2.41
-0.53
-3.70
-6.99
-10.34
-13.67
-16.97
-20.33
-23.97
-28.18
-33.11
-38.65
-44.22
-48.90
-51.61
-51.46
-48.06
-41.59
-32.73
-22.41
-11.62
-1.23
8.06
15.71
21.41
25.03
26.71
26.73
25.50
23.42
20.88
18.17
15.55
13.28
11.54
10.46
10.09
10.36
11.15
12.28
13.58
14.85
15.89
16.54
16.65
16.16
15.04
13.35
11.15
8.44
5.28
1.71
-2.16
-6.16
-10.06
-13.74
-17.16
-20.47
-23.90
-27.71
-32.04
-36.84
-41.76
-46.11
-49.02
-49.63
-47.31
-41.92
-33.86
-23.96
-13.24
-2.66
7.08
15.49
22.24
27.08
29.79
30.30
28.76
25.60
21.51
17.22
13.38
10.44
8.55
7.66
7.56
8.04
8.89
9.95
11.10
12.21
13.16
13.83
14.10
13.87
13.08
11.68
9.64
7.03
3.90
0.41
-3.30
-7.03
-10.67
-14.14
-17.52
-21.03
-24.92
-29.42
-34.42
-39.49
-43.77
-46.25
-46.03
-42.59
-36.03
-26.92
-16.22
-5.01
5.72
15.17
22.79
28.31
31.67
33.01
32.62
30.80
27.92
24.35
20.49
16.80
13.75
11.72
10.89
11.20
12.37
14.02
15.74
17.23
18.24
18.64
18.36
17.39
15.83
13.76
11.29
8.51
5.39
1.91
-2.00
-6.27
-10.82
-15.48
-20.10
-24.66
-29.21
-33.97
-39.09
-44.66
-50.39
-55.64
-59.42
-60.68
-58.61
-52.92
-43.93
-32.50
-19.80
-7.05
4.71
14.69
22.40
27.65
30.49
31.19
30.18
27.93
24.92
21.53
18.11
14.98
12.43
10.79
10.29
10.98
12.68
15.00
17.44
19.54
21.03
21.77
21.78
21.07
19.59
17.29
14.17
10.31
5.93
1.33
-3.24
-7.60
-11.70
-15.64
-19.55
-23.67
-28.22
-33.41
-39.22
-45.36
-51.17
-55.63
-57.69
-56.49
-51.63
-43.35
-32.41
-19.96
-7.18
4.89
15.49
24.12
30.57
34.77
36.83
36.93
35.37
32.56
28.97
25.11
21.48
18.52
16.48
15.49
15.52
16.41
17.93
19.78
21.63
23.17
24.11
24.26
23.52
21.92
19.59
16.71
13.44
9.89
6.10
2.07
-2.16
-6.53
-10.90
-15.18
-19.37
-23.62
-28.16
-33.24
-38.87
-44.74
-50.13
-54.01
-55.32
-53.25
-47.48
-38.34
-26.71
-13.79
-0.85
11.03
21.05
28.78
34.03
36.78
37.19
35.52
32.19
27.82
23.11
18.79
15.42
13.35
12.63
13.07
14.36
16.14
18.14
20.12
21.89
23.28
24.11
24.23
23.49
21.81
19.18
15.69
11.57
7.08
2.54
-1.84
-5.97
-9.93
-13.94
-18.32
-23.36
-29.24
-35.80
-42.53
-48.53
-52.65
-53.76
-51.09
-44.44
-34.29
-21.68
-7.93
5.61
17.85
28.00
35.66
40.63
42.98
42.87
40.66
36.84
32.06
27.03
22.39
18.66
16.10
14.79
14.65
15.48
17.03
19.03
21.14
23.02
24.36
24.89
24.45
22.98
20.48
17.07
12.90
8.20
3.20
-1.84
-6.70
-11.29
-15.61
-19.80
-24.07
-28.74
-34.08
-40.21
-46.93
-53.62
-59.24
-62.52
-62.31
-57.94
-49.46
-37.63
-23.70
-9.10
4.90
17.32
27.53
35.16
40.07
42.29
42.09
39.96
36.51
32.44
28.38
24.85
22.17
20.50
19.86
20.14
21.14
22.55
24.06
25.31
26.08
26.24
25.81
24.86
23.42
21.43
18.75
15.23
10.90
5.95
0.74
-4.33
-9.02
-13.29
-17.35
-21.63
-26.52
-32.29
-38.90
-45.84
-52.23
-56.94
-58.80
-56.98
-51.15
-41.63
-29.27
-15.30
-1.07
12.20
23.55
32.36
38.34
41.53
42.17
40.68
37.55
33.31
28.55
23.87
19.85
16.96
15.43
15.24
16.08
17.53
19.17
20.69
21.96
22.93
23.58
23.76
23.32
22.00
19.69
16.38
12.29
7.75
3.14
-1.25
-5.30
-9.11
-12.84
-16.75
-21.01
-25.78
-31.08
-36.84
-42.70
-47.97
-51.64
-52.57
-49.83
-43.07
-32.73
-19.92
-6.17
7.09
18.78
28.28
35.41
40.12
42.48
42.53
40.47
36.71
31.90
26.89
22.45
19.14
17.19
16.48
16.73
17.66
19.04
20.69
22.42
23.89
24.74
24.69
23.62
21.65
19.01
15.91
12.41
8.44
3.97
-0.93
-6.00
-10.93
-15.40
-19.35
-22.92
-26.45
-30.40
-35.13
-40.78
-47.12
-53.43
-58.60
-61.36
-60.61
-55.79
-47.09
-35.37
-21.89
-7.99
5.14
16.65
25.99
32.84
37.05
38.72
38.18
35.91
32.58
28.78
25.02
21.62
18.85
16.89
15.91
15.98
17.05
18.85
20.95
22.89
24.25
24.78
24.46
23.39
21.79
19.82
17.56
15.02
12.13
8.79
5.00
0.81
-3.60
-8.02
-12.25
-16.18
-19.85
-23.42
-27.16
-31.39
-36.27
-41.73
-47.31
-52.15
-55.20
-55.40
-52.05
-45.02
-34.81
-22.41
-9.11
3.80
15.25
24.48
31.10
35.00
36.33
35.45
32.84
29.11
24.89
20.80
17.31
14.73
13.16
12.56
12.76
13.57
14.77
16.18
17.61
18.87
19.77
20.20
20.08
19.38
18.10
16.26
13.91
11.10
7.93
4.52
0.96
-2.62
-6.16
-9.62
-13.00
-16.37
-19.87
-23.69
-28.01
-32.87
-38.01
-42.82
-46.37
-47.73
-46.18
-41.53
-34.12
-24.73
-14.35
-3.93
5.78
14.20
20.89
25.53
27.91
28.03
26.11
22.62
18.19
13.48
9.13
5.56
3.07
1.70
1.36
1.81
2.83
4.21
5.81
7.51
9.18
10.58
11.45
11.54
10.71
8.97
6.51
3.58
0.46
-2.66
-5.71
-8.69
-11.73
-14.94
-18.48
-22.45
-26.92
-31.78
-36.72
-41.15
-44.24
-45.15
-43.24
-38.29
-30.58
-20.85
-10.13
0.58
10.38
18.61
24.84
28.87
30.74
30.64
28.95
26.09
22.53
18.64
14.82
11.43
8.75
6.96
6.09
5.99
6.43
7.16
7.95
8.69
9.27
9.58
9.45
8.70
7.16
4.76
1.60
-2.08
-5.94
-9.63
-12.91
-15.72
-18.18
-20.57
-23.28
-26.63
-30.83
-35.82
-41.18
-46.06
-49.39
-50.04
-47.25
-40.91
-31.60
-20.51
-9.03
1.59
10.52
17.44
22.35
25.43
26.82
26.64
25.06
22.35
19.03
15.65
12.77
10.68
9.40
8.73
8.40
8.24
8.21
8.40
8.87
9.52
10.15
10.45
10.16
9.11
7.33
4.94
2.14
-0.86
-3.90
-6.86
-9.74
-12.60
-15.59
-18.87
-22.61
-26.89
-31.72
-36.92
-42.04
-46.34
-48.91
-48.88
-45.71
-39.42
-30.61
-20.31
-9.68
0.33
9.09
16.28
21.82
25.67
27.75
28.05
26.64
23.81
20.07
16.03
12.33
9.41
7.46
6.47
6.25
6.55
7.19
8.06
9.07
10.19
11.28
12.15
12.54
12.24
11.11
9.18
6.62
3.69
0.62
-2.41
-5.41
-8.44
-11.58
-14.88
-18.36
-22.08
-26.16
-30.68
-35.53
-40.26
-44.06
-45.96
-45.11
-41.14
-34.31
-25.43
-15.61
-5.89
2.94
10.42
16.31
20.43
22.66
22.94
21.38
18.33
14.39
10.27
6.62
3.90
2.24
1.57
1.64
2.20
3.06
4.17
5.50
7.03
8.58
9.87
10.54
10.33
9.14
7.09
4.43
1.46
-1.59
-4.59
-7.48
-10.30
-13.14
-16.24
-19.92
-24.39
-29.60
-35.04
-39.74
-42.58
-42.61
-39.37
-33.11
-24.53
-14.65
-4.45
5.31
14.06
21.41
27.04
30.67
32.11
31.40
28.85
25.05
20.74
16.66
13.35
11.05
9.72
9.14
9.06
9.27
9.69
10.29
10.98
11.67
12.15
12.20
11.61
10.20
7.92
4.82
1.12
-2.84
-6.71
-10.22
-13.33
-16.26
-19.46
-23.44
-28.59
-34.95
-42.08
-49.13
-54.93
-58.36
-58.56
-55.16
-48.32
-38.70
-27.24
-15.02
-3.10
7.61
16.42
22.88
26.86
28.49
28.12
26.20
23.25
19.75
16.19
13.00
10.59
9.21
8.92
9.58
10.87
12.44
14.01
15.44
16.69
17.68
18.24
18.07
16.88
14.51
11.07
6.90
2.46
-1.87
-5.95
-9.80
-13.66
-17.75
-22.32
-27.51
-33.35
-39.60
-45.67
-50.70
-53.63
-53.54
-49.94
-42.91
-33.05
-21.35
-8.92
3.17
13.97
22.74
29.01
32.62
33.75
32.82
30.38
27.04
23.35
19.84
16.94
14.98
14.09
14.20
15.02
16.25
17.61
18.96
20.23
21.34
22.09
22.19
21.35
19.43
16.49
12.75
8.55
4.21
-0.03
-4.09
-8.04
-12.10
-16.60
-21.87
-28.07
-35.00
-41.98
-47.99
-51.86
-52.61
-49.72
-43.26
-33.83
-22.34
-9.86
2.58
13.99
23.57
30.67
34.95
36.40
35.41
32.65
28.89
24.90
21.20
18.12
15.81
14.28
13.53
13.52
14.22
15.49
17.13
18.86
20.38
21.32
21.42
20.47
18.44
15.45
11.75
7.65
3.44
-0.68
-4.62
-8.51
-12.61
-17.31
-22.89
-29.34
-36.20
-42.50
-46.95
-48.33
-45.86
-39.39
-29.55
-17.48
-4.55
7.94
19.01
28.02
34.72
39.07
41.16
41.18
39.41
36.25
32.28
28.14
24.43
21.53
19.54
18.38
17.83
17.76
18.11
18.83
19.84
20.92
21.75
21.99
21.34
19.61
16.78
12.98
8.46
3.63
-1.14
-5.61
-9.75
-13.78
-18.05
-22.95
-28.68
-35.14
-41.87
-48.02
-52.61
-54.59
-53.19
-48.07
-39.50
-28.27
-15.60
-2.77
9.13
19.35
27.55
33.59
37.49
39.26
39.03
37.07
33.85
30.03
26.27
23.13
20.90
19.65
19.26
19.56
20.35
21.45
22.72
23.98
25.05
25.71
25.71
24.79
22.79
19.69
15.69
11.19
6.65
2.42
-1.36
-4.79
-8.20
-12.04
-16.62
-22.11
-28.37
-34.97
-41.19
-46.14
-48.84
-48.49
-44.66
-37.45
-27.52
-15.94
-3.92
7.40
17.19
24.99
30.61
34.11
35.61
35.31
33.44
30.35
26.50
22.48
18.91
16.32
15.02
15.00
15.94
17.34
18.76
19.91
20.72
21.31
21.75
21.97
21.74
20.74
18.76
15.84
12.26
8.44
4.71
1.23
-2.05
-5.27
-8.56
-11.96
-15.52
-19.34
-23.58
-28.38
-33.55
-38.52
-42.29
-43.73
-41.96
-36.74
-28.52
-18.32
-7.39
3.19
12.68
20.66
26.94
31.38
33.80
34.09
32.32
28.83
24.31
19.58
15.47
12.52
10.96
10.65
11.24
12.34
13.64
14.96
16.25
17.46
18.50
19.20
19.32
18.65
17.11
14.68
11.51
7.78
3.72
-0.46
-4.60
-8.54
-12.27
-15.85
-19.46
-23.38
-27.84
-32.90
-38.26
-43.27
-47.00
-48.52
-47.07
-42.40
-34.73
-24.78
-13.58
-2.27
8.12
16.79
23.32
27.60
29.83
30.31
29.39
27.36
24.50
21.12
17.67
14.61
12.33
11.04
10.70
11.08
11.87
12.85
13.90
14.94
15.90
16.56
16.69
16.06
14.57
12.27
9.36
6.07
2.59
-0.97
-4.54
-8.06
-11.50
-14.84
-18.15
-21.63
-25.51
-29.98
-34.99
-40.15
-44.72
-47.75
-48.33
-45.80
-40.05
-31.50
-21.06
-9.88
0.94
10.53
18.35
24.20
28.04
29.96
30.09
28.63
25.88
22.27
18.33
14.58
11.45
9.16
7.77
7.19
7.27
7.87
8.86
10.07
11.32
12.38
12.96
12.87
12.02
10.46
8.33
5.83
3.09
0.19
-2.83
-5.96
-9.08
-12.07
-14.85
-17.45
-20.09
-23.10
-26.76
-31.12
-35.87
-40.33
-43.65
-45.01
-43.83
-39.95
-33.60
-25.33
-15.88
-6.10
3.24
11.44
18.01
22.60
25.11
25.58
24.28
21.59
18.02
14.08
10.28
7.02
4.57
3.04
2.41
2.56
3.30
4.41
5.67
6.90
7.97
8.78
9.25
9.28
8.74
7.52
5.62
3.14
0.28
-2.75
-5.76
-8.69
-11.50
-14.31
-17.25
-20.51
-24.26
-28.56
-33.25
-37.86
-41.61
-43.57
-42.89
-39.13
-32.37
-23.29
-12.96
-2.56
6.90
14.78
20.79
24.92
27.28
28.05
27.33
25.29
22.20
18.43
14.47
10.80
7.78
5.61
4.33
3.84
4.04
4.81
5.99
7.38
8.70
9.62
9.83
9.12
7.47
5.02
2.09
-1.05
-4.15
-7.15
-10.10
-13.13
-16.36
-19.82
-23.54
-27.56
-31.96
-36.77
-41.83
-46.63
-50.34
-51.97
-50.72
-46.26
-38.88
-29.38
-18.79
-8.19
1.59
10.00
16.72
21.59
24.54
25.62
24.93
22.79
19.64
16.05
12.60
9.74
7.69
6.46
5.90
5.85
6.19
6.87
7.82
8.95
10.06
10.93
11.34
11.08
10.07
8.25
5.70
2.57
-0.92
-4.50
-7.93
-11.07
-13.95
-16.74
-19.76
-23.29
-27.56
-32.55
-37.97
-43.18
-47.31
-49.48
-48.92
-45.26
-38.57
-29.37
-18.54
-7.09
3.90
13.54
21.14
26.31
28.97
29.31
27.70
24.65
20.73
16.51
12.57
9.38
7.27
6.32
6.35
7.03
7.95
8.88
9.69
10.45
11.23
11.99
12.55
12.63
11.93
10.25
7.60
4.15
0.23
-3.80
-7.68
-11.30
-14.75
-18.26
-22.12
-26.52
-31.47
-36.74
-41.79
-45.94
-48.41
-48.47
-45.65
-39.83
-31.34
-20.93
-9.62
1.57
11.70
20.11
26.39
30.35
31.98
31.44
29.11
25.53
21.40
17.38
13.98
11.47
9.87
9.03
8.77
8.95
9.52
10.48
11.77
13.23
14.54
15.28
15.03
13.54
10.83
7.15
3.01
-1.13
-4.94
-8.34
-11.49
-14.73
-18.44
-22.97
-28.47
-34.84
-41.57
-47.72
-52.12
-53.54
-51.17
-44.79
-34.99
-22.89
-9.92
2.59
13.66
22.72
29.53
34.00
36.21
36.28
34.49
31.31
27.31
23.16
19.44
16.54
14.60
13.53
13.15
13.26
13.71
14.44
15.41
16.50
17.47
17.97
17.63
16.21
13.63
10.06
5.78
1.14
-3.57
-8.16
-12.56
-16.80
-21.02
-25.43
-30.32
-35.91
-42.17
-48.66
-54.48
-58.43
-59.34
-56.38
-49.39
-38.91
-26.02
-12.07
1.62
13.98
24.29
32.18
37.52
40.41
41.09
39.92
37.36
33.94
30.22
26.70
23.77
21.63
20.36
19.87
20.07
20.77
21.80
22.98
24.09
24.94
25.34
25.11
24.10
22.18
19.27
15.44
10.91
6.11
1.45
-2.78
-6.60
-10.25
-14.13
-18.59
-23.76
-29.57
-35.77
-41.91
-47.36
-51.32
-52.87
-51.17
-45.77
-36.85
-25.22
-12.18
0.87
12.77
22.74
30.43
35.74
38.72
39.49
38.27
35.47
31.68
27.57
23.77
20.74
18.69
17.65
17.46
17.95
18.91
20.19
21.68
23.23
24.69
25.75
26.13
25.51
23.76
20.94
17.29
13.17
8.94
4.82
0.87
-2.95
-6.75
-10.61
-14.60
-18.86
-23.51
-28.65
-34.07
-39.21
-43.09
-44.56
-42.70
-37.15
-28.31
-17.24
-5.26
6.41
16.87
25.56
32.19
36.54
38.54
38.26
36.07
32.60
28.65
24.95
22.05
20.17
19.30
19.26
19.81
20.72
21.78
22.82
23.66
24.15
24.19
23.69
22.63
20.99
18.76
15.95
12.61
8.86
4.89
0.88
-3.02
-6.79
-10.50
-14.35
-18.57
-23.38
-28.88
-34.91
-41.00
-46.36
-49.96
-50.85
-48.41
-42.55
-33.74
-22.90
-11.13
0.45
10.91
19.60
26.11
30.39
32.59
33.06
32.18
30.33
27.84
25.02
22.25
19.92
18.41
17.90
18.32
19.41
20.84
22.35
23.77
25.01
25.94
26.37
26.02
24.71
22.44
19.41
15.91
12.20
8.45
4.66
0.84
-2.96
-6.64
-10.11
-13.38
-16.64
-20.23
-24.48
-29.53
-35.20
-40.87
-45.63
-48.44
-48.43
-45.13
-38.59
-29.43
-18.63
-7.31
3.48
12.95
20.62
26.26
29.86
31.53
31.50
30.11
27.80
25.01
22.20
19.71
17.74
16.39
15.67
15.54
15.95
16.78
17.85
18.96
19.90
20.52
20.70
20.37
19.48
17.99
15.85
13.09
9.83
6.28
2.67
-0.83
-4.12
-7.24
-10.30
-13.43
-16.71
-20.25
-24.14
-28.43
-33.05
-37.70
-41.76
-44.37
-44.67
-42.08
-36.50
-28.40
-18.67
-8.39
1.47
10.17
17.27
22.57
25.97
27.48
27.19
25.39
22.47
19.04
15.65
12.79
10.78
9.71
9.58
10.26
11.61
13.36
15.25
16.94
18.12
18.64
18.45
17.68
16.44
14.83
12.84
10.43
7.60
4.42
1.05
-2.32
-5.53
-8.50
-11.26
-13.99
-16.97
-20.46
-24.65
-29.50
-34.68
-39.53
-43.20
-44.81
-43.71
-39.66
-32.89
-24.07
-14.12
-4.01
5.39
13.42
19.67
23.95
26.31
26.90
26.03
24.02
21.26
18.14
15.02
12.26
10.11
8.75
8.17
8.27
8.86
9.72
10.61
11.34
11.73
11.70
11.21
10.26
8.85
6.97
4.64
1.94
-1.01
-3.99
-6.89
-9.66
-12.39
-15.20
-18.18
-21.34
-24.68
-28.24
-32.09
-36.28
-40.64
-44.66
-47.58
-48.51
-46.82
-42.27
-35.16
-26.18
-16.28
-6.40
2.63
10.24
16.12
20.16
22.44
23.15
22.53
20.88
18.52
15.80
13.12
10.79
9.10
8.20
8.13
8.81
10.04
11.57
13.04
14.14
14.67
14.62
14.07
13.23
12.17
10.84
9.08
6.70
3.68
0.20
-3.43
-6.94
-10.14
-13.07
-15.86
-18.73
-21.85
-25.34
-29.24
-33.42
-37.60
-41.24
-43.64
-44.11
-42.16
-37.67
-30.93
-22.65
-13.66
-4.82
3.16
9.82
14.89
18.27
20.00
20.19
19.03
16.86
14.06
11.09
8.40
6.24
4.74
3.82
3.38
3.36
3.75
4.57
5.79
7.22
8.58
9.54
9.85
9.41
8.28
6.61
4.58
2.33
-0.06
-2.55
-5.08
-7.58
-10.06
-12.55
-15.23
-18.33
-22.04
-26.33
-30.87
-34.93
-37.64
-38.19
-36.10
-31.46
-24.77
-16.84
-8.47
-0.31
7.16
13.58
18.60
21.95
23.44
23.12
21.28
18.44
15.19
12.04
9.39
7.43
6.22
5.64
5.57
5.83
6.25
6.72
7.18
7.61
7.93
8.05
7.81
7.05
5.76
4.00
1.96
-0.24
-2.55
-5.02
-7.78
-10.92
-14.44
-18.32
-22.53
-27.07
-31.91
-36.86
-41.50
-45.13
-46.96
-46.33
-42.91
-36.85
-28.75
-19.45
-9.88
-0.87
6.95
13.20
17.70
20.45
21.57
21.21
19.61
17.02
13.83
10.50
7.57
5.44
4.34
4.19
4.70
5.53
6.37
7.10
7.70
8.16
8.39
8.25
7.56
6.21
4.22
1.68
-1.19
-4.20
-7.17
-10.02
-12.76
-15.54
-18.58
-22.12
-26.33
-31.18
-36.37
-41.31
-45.19
-47.14
-46.48
-42.88
-36.50
-27.91
-18.01
-7.80
1.83
10.22
16.97
21.86
24.87
26.08
25.69
23.98
21.33
18.17
14.97
12.18
10.17
9.09
8.88
9.27
9.92
10.57
11.09
11.52
11.95
12.39
12.67
12.47
11.47
9.52
6.69
3.28
-0.34
-3.89
-7.28
-10.56
-13.86
-17.32
-21.02
-25.05
-29.46
-34.23
-39.12
-43.56
-46.72
-47.72
-45.92
-41.14
-33.72
-24.33
-13.83
-3.08
7.18
16.24
23.49
28.38
30.65
30.40
28.09
24.45
20.25
16.14
12.58
9.80
7.84
6.64
6.10
6.09
6.52
7.28
8.28
9.39
10.44
11.23
11.52
11.12
9.91
7.90
5.22
2.11
-1.20
-4.55
-7.87
-11.27
-14.93
-19.06
-23.84
-29.26
-35.02
-40.51
-44.90
-47.23
-46.72
-42.97
-36.07
-26.67
-15.71
-4.30
6.62
16.29
24.23
30.10
33.72
35.02
34.08
31.29
27.20
22.60
18.24
14.72
12.34
11.11
10.84
11.23
12.05
13.11
14.28
15.45
16.42
16.95
16.75
15.56
13.26
9.94
5.85
1.36
-3.21
-7.66
-11.93
-16.15
-20.45
-25.04
-30.12
-35.84
-42.16
-48.74
-54.88
-59.50
-61.48
-59.88
-54.33
-45.14
-33.23
-19.85
-6.29
6.35
17.31
26.11
32.48
36.29
37.56
36.52
33.60
29.52
25.11
21.21
18.45
17.09
17.06
18.02
19.59
21.36
23.08
24.52
25.54
25.99
25.74
24.74
22.98
20.52
17.46
13.92
9.98
5.75
1.32
-3.22
-7.80
-12.41
-17.11
-22.12
-27.70
-34.05
-41.05
-48.14
-54.26
-58.11
-58.47
-54.65
-46.74
-35.53
-22.31
-8.41
5.02
17.20
27.59
35.82
41.60
44.75
45.28
43.54
40.17
35.99
31.85
28.41
26.04
24.84
24.67
25.30
26.49
28.02
29.64
31.10
32.14
32.50
32.04
30.75
28.74
26.16
23.10
19.59
15.61
11.18
6.46
1.70
-2.86
-7.09
-11.11
-15.26
-19.94
-25.45
-31.76
-38.42
-44.53
-48.99
-50.72
-48.94
-43.47
-34.66
-23.40
-10.89
1.64
13.13
22.92
30.73
36.59
40.67
43.08
43.82
42.89
40.39
36.74
32.66
28.98
26.39
25.17
25.19
26.06
27.37
28.85
30.33
31.73
32.85
33.41
33.09
31.68
29.14
25.64
21.45
16.88
12.18
7.52
2.99
-1.38
-5.61
-9.75
-13.95
-18.38
-23.29
-28.87
-35.16
-41.86
-48.29
-53.38
-55.93
-54.90
-49.71
-40.54
-28.21
-14.12
0.24
13.51
24.76
33.49
39.56
43.03
44.07
42.98
40.23
36.38
32.13
28.06
24.65
22.13
20.61
20.08
20.48
21.67
23.41
25.38
27.22
28.63
29.36
29.30
28.40
26.65
24.11
20.82
16.95
12.65
8.12
3.56
-0.94
-5.30
-9.56
-13.78
-18.04
-22.47
-27.24
-32.50
-38.29
-44.38
-50.17
-54.74
-56.99
-55.97
-51.23
-42.94
-31.90
-19.25
-6.21
6.16
17.08
26.01
32.57
36.57
38.02
37.19
34.63
31.03
27.12
23.50
20.51
18.32
16.97
16.47
16.77
17.75
19.19
20.74
22.04
22.77
22.80
22.15
20.99
19.45
17.64
15.56
13.14
10.31
7.09
3.52
-0.27
-4.19
-8.16
-12.19
-16.41
-20.97
-26.01
-31.53
-37.28
-42.70
-47.02
-49.38
-49.06
-45.66
-39.20
-30.10
-19.19
-7.51
3.83
13.80
21.64
26.96
29.78
30.39
29.23
26.73
23.31
19.39
15.41
11.85
9.15
7.60
7.24
7.89
9.22
10.86
12.48
13.88
14.91
15.49
15.54
15.02
13.86
12.04
9.61
6.70
3.55
0.32
-2.84
-5.91
-8.97
-12.14
-15.56
-19.33
-23.58
-28.35
-33.60
-39.00
-43.90
-47.41
-48.54
-46.60
-41.33
-33.13
-22.87
-11.70
-0.73
9.18
17.43
23.76
28.08
30.42
30.92
29.79
27.39
24.14
20.54
17.07
14.11
11.88
10.49
9.89
9.97
10.57
11.47
12.43
13.24
13.75
13.88
13.58
12.81
11.45
9.39
6.58
3.12
-0.70
-4.53
-8.09
-11.32
-14.37
-17.46
-20.74
-24.25
-27.94
-31.80
-35.91
-40.33
-44.93
-49.18
-52.19
-52.92
-50.55
-44.87
-36.34
-25.99
-15.04
-4.57
4.72
12.50
18.68
23.22
26.00
26.96
26.14
23.87
20.70
17.36
14.40
12.16
10.74
10.01
9.84
10.12
10.78
11.76
12.87
13.89
14.49
14.48
13.75
12.36
10.45
8.18
5.68
2.98
0.10
-2.97
-6.19
-9.53
-12.93
-16.39
-19.99
-23.85
-28.12
-32.87
-38.03
-43.27
-48.02
-51.60
-53.29
-52.56
-49.15
-43.20
-35.18
-25.82
-15.98
-6.53
1.76
8.29
12.55
14.30
13.61
10.98
7.42
4.26
2.81
3.89
7.54
12.97
18.91
24.07
27.58
29.11
28.81
27.02
24.14
20.55
16.68
13.04
10.11
8.25
7.51
7.67
8.34
9.13
9.77
10.17
10.38
10.48
10.51
10.42
10.08
9.27
7.80
5.58
2.68
-0.67
-4.19
-7.60
-10.76
-13.70
-16.64
-19.90
-23.76
-28.28
-33.17
-37.76
-41.14
-42.39
-40.91
-36.57
-29.77
-21.28
-11.99
-2.70
5.93
13.43
19.45
23.78
26.28
27.00
26.13
24.03
21.15
17.98
14.93
12.31
10.27
8.81
7.87
7.36
7.22
7.39
7.85
8.55
9.37
10.13
10.61
10.58
9.82
8.22
5.77
2.57
-1.13
-5.05
-8.87
-12.38
-15.52
-18.38
-21.22
-24.34
-28.05
-32.49
-37.50
-42.60
-46.95
-49.58
-49.56
-46.38
-40.10
-31.37
-21.23
-10.85
-1.18
7.15
13.86
18.88
22.28
24.12
24.52
23.60
21.59
18.81
15.64
12.52
9.87
8.05
7.21
7.37
8.30
9.71
11.25
12.70
13.92
14.82
15.34
15.35
14.69
13.24
10.98
8.07
4.76
1.32
-2.12
-5.50
-8.91
-12.38
-15.96
-19.66
-23.51
-27.64
-32.17
-37.10
-42.12
-46.64
-49.78
-50.69
-48.79
-43.93
-36.48
-27.13
-16.77
-6.30
3.49
11.94
18.60
23.20
25.73
26.37
25.50
23.56
20.97
18.12
15.30
12.80
10.86
9.72
9.45
9.99
11.07
12.36
13.56
14.44
14.97
15.17
15.07
14.67
13.84
12.42
10.33
7.58
4.33
0.81
-2.74
-6.18
-9.49
-12.77
-16.12
-19.71
-23.65
-28.02
-32.78
-37.66
-42.13
-45.35
-46.41
-44.52
-39.40
-31.34
-21.16
-10.02
0.94
10.83
19.09
25.44
29.78
32.13
32.60
31.42
28.94
25.58
21.83
18.19
15.09
12.86
11.64
11.40
11.92
12.92
14.07
15.15
15.99
16.50
16.57
16.10
14.96
13.07
10.47
7.30
3.82
0.26
-3.20
-6.53
-9.76
-13.06
-16.57
-20.42
-24.75
-29.62
-35.03
-40.78
-46.33
-50.86
-53.36
-52.95
-49.17
-42.15
-32.60
-21.59
-10.19
0.73
10.53
18.81
25.28
29.76
32.12
32.45
31.03
28.30
24.80
21.06
17.56
14.65
12.54
11.33
10.99
11.36
12.22
13.32
14.44
15.42
16.16
16.59
16.62
16.14
15.02
13.13
10.41
6.97
2.97
-1.30
-5.59
-9.70
-13.58
-17.30
-21.01
-24.96
-29.38
-34.45
-40.07
-45.84
-50.95
-54.36
-55.00
-52.16
-45.64
-35.90
-23.95
-11.08
1.41
12.49
21.53
28.29
32.84
35.37
36.08
35.17
32.84
29.42
25.36
21.24
17.61
14.92
13.41
13.08
13.77
15.24
17.17
19.23
21.07
22.31
22.71
22.15
20.69
18.54
15.96
13.17
10.24
7.18
3.88
0.33
-3.43
-7.24
-10.97
-14.55
-18.05
-21.71
-25.80
-30.54
-35.91
-41.59
-46.90
-50.93
-52.70
-51.39
-46.64
-38.62
-28.00
-15.84
-3.28
8.62
19.02
27.33
33.21
36.58
37.53
36.40
33.64
29.79
25.40
21.00
17.13
14.21
12.60
12.38
13.42
15.35
17.74
20.15
22.32
24.04
25.18
25.61
25.18
23.84
21.64
18.79
15.52
12.03
8.45
4.75
0.92
-3.08
-7.20
-11.35
-15.46
-19.56
-23.83
-28.54
-33.93
-39.91
-45.94
-51.05
-54.06
-53.87
-49.93
-42.36
-31.91
-19.75
-7.09
5.01
15.76
24.65
31.35
35.68
37.61
37.30
35.15
31.75
27.77
23.87
20.55
18.04
16.41
15.57
15.43
15.94
17.04
18.63
20.47
22.20
23.43
23.89
23.49
22.31
20.50
18.22
15.53
12.47
9.11
5.52
1.82
-1.92
-5.68
-9.49
-13.34
-17.21
-21.04
-24.86
-28.84
-33.24
-38.29
-43.89
-49.50
-54.11
-56.49
-55.57
-50.84
-42.51
-31.44
-18.87
-6.10
5.82
16.17
24.54
30.75
34.73
36.54
36.35
34.46
31.34
27.51
23.60
20.15
17.54
15.93
15.29
15.45
16.24
17.50
19.11
20.93
22.71
24.17
25.03
25.17
24.55
23.27
21.49
19.26
16.61
13.56
10.13
6.40
2.51
-1.43
-5.30
-9.02
-12.55
-15.89
-19.15
-22.53
-26.33
-30.80
-35.96
-41.50
-46.74
-50.76
-52.64
-51.68
-47.61
-40.58
-31.15
-20.15
-8.49
2.88
13.14
21.59
27.80
31.54
32.91
32.21
29.96
26.74
23.11
19.58
16.44
13.88
12.00
10.87
10.60
11.23
12.72
14.82
17.08
19.00
20.19
20.49
19.99
18.95
17.65
16.20
14.52
12.45
9.81
6.57
2.87
-1.08
-5.05
-8.95
-12.77
-16.61
-20.54
-24.64
-28.98
-33.55
-38.23
-42.60
-45.96
-47.41
-46.07
-41.46
-33.67
-23.43
-11.88
-0.26
10.41
19.45
26.53
31.53
34.41
35.22
34.11
31.39
27.55
23.20
18.97
15.35
12.65
10.92
10.11
10.03
10.53
11.47
12.71
14.11
15.45
16.51
17.05
16.89
15.90
14.06
11.46
8.23
4.56
0.65
-3.34
-7.27
-11.09
-14.85
-18.63
-22.57
-26.84
-31.61
-36.93
-42.64
-48.24
-52.92
-55.67
-55.54
-51.97
-44.96
-35.10
-23.42
-11.09
0.84
11.59
20.69
27.84
32.88
35.67
36.24
34.79
31.74
27.71
23.34
19.21
15.74
13.16
11.56
10.89
11.07
11.92
13.24
14.80
16.33
17.61
18.39
18.52
17.87
16.46
14.35
11.71
8.67
5.35
1.77
-2.03
-6.00
-10.04
-14.01
-17.86
-21.65
-25.62
-30.09
-35.19
-40.78
-46.22
-50.51
-52.55
-51.52
-47.11
-39.65
-29.98
-19.13
-8.09
2.38
11.74
19.64
25.82
30.06
32.26
32.41
30.73
27.59
23.58
19.33
15.44
12.37
10.30
9.23
9.01
9.42
10.31
11.52
12.93
14.37
15.60
16.38
16.55
16.06
14.96
13.35
11.27
8.72
5.67
2.14
-1.73
-5.71
-9.57
-13.18
-16.60
-20.05
-23.81
-28.12
-33.00
-38.19
-43.13
-47.08
-49.20
-48.75
-45.31
-38.88
-29.93
-19.34
-8.12
2.70
12.34
20.28
26.23
30.07
31.77
31.44
29.36
25.99
21.90
17.69
13.90
10.84
8.71
7.53
7.24
7.77
8.96
10.61
12.47
14.22
15.58
16.34
16.35
15.54
13.95
11.64
8.72
5.32
1.61
-2.26
-6.14
-9.91
-13.52
-17.01
-20.55
-24.35
-28.64
-33.53
-38.94
-44.43
-49.31
-52.65
-53.55
-51.38
-45.93
-37.53
-26.94
-15.21
-3.43
7.43
16.65
23.77
28.62
31.26
31.95
31.05
28.98
26.16
22.95
19.67
16.64
14.19
12.60
12.03
12.46
13.63
15.16
16.67
17.89
18.73
19.19
19.30
19.03
18.25
16.78
14.51
11.50
7.96
4.20
0.51
-2.97
-6.28
-9.61
-13.20
-17.24
-21.81
-26.86
-32.28
-37.83
-43.15
-47.66
-50.58
-51.06
-48.42
-42.41
-33.36
-22.19
-10.15
1.51
11.81
20.18
26.40
30.49
32.50
32.58
30.90
27.89
24.10
20.22
16.86
14.38
12.87
12.16
12.07
12.39
13.07
14.09
15.35
16.69
17.81
18.42
18.33
17.49
16.01
14.01
11.61
8.83
5.68
2.14
-1.68
-5.68
-9.69
-13.62
-17.52
-21.48
-25.65
-30.05
-34.52
-38.61
-41.68
-43.00
-41.98
-38.31
-32.08
-23.76
-14.08
-3.88
6.02
14.95
22.34
27.80
31.06
32.09
31.08
28.40
24.61
20.25
15.87
11.92
8.77
6.60
5.48
5.33
5.93
7.05
8.43
9.86
11.15
12.12
12.59
12.42
11.49
9.81
7.47
4.64
1.54
-1.62
-4.72
-7.68
-10.59
-13.61
-16.99
-20.95
-25.63
-30.88
-36.26
-41.09
-44.47
-45.55
-43.73
-38.78
-31.00
-21.12
-10.07
1.10
11.53
20.56
27.76
32.88
35.82
36.59
35.37
32.50
28.47
23.89
19.34
15.36
12.32
10.37
9.50
9.51
10.15
11.17
12.33
13.43
14.30
14.77
14.68
13.88
12.29
9.91
6.85
3.34
-0.43
-4.25
-8.03
-11.74
-15.47
-19.31
-23.42
-27.96
-33.09
-38.84
-44.96
-50.83
-55.44
-57.63
-56.46
-51.49
-43.03
-32.04
-19.86
-7.72
3.40
13.00
20.84
26.78
30.70
32.50
32.22
30.12
26.75
22.80
18.93
15.62
13.10
11.39
10.39
9.99
10.12
10.72
11.74
13.04
14.43
15.64
16.36
16.30
15.26
13.23
10.35
6.90
3.18
-0.58
-4.26
-7.88
-11.58
-15.60
-20.17
-25.48
-31.57
-38.17
-44.66
-50.13
-53.52
-53.88
-50.67
-43.91
-34.16
-22.40
-9.78
2.57
13.71
22.96
29.92
34.42
36.50
36.41
34.54
31.40
27.55
23.54
19.84
16.78
14.57
13.28
12.88
13.20
14.06
15.23
16.50
17.68
18.60
19.06
18.86
17.80
15.75
12.79
9.15
5.23
1.42
-2.05
-5.21
-8.32
-11.71
-15.73
-20.58
-26.29
-32.67
-39.27
-45.38
-50.08
-52.39
-51.48
-47.00
-39.16
-28.73
-16.81
-4.58
6.90
16.86
24.79
30.40
33.60
34.46
33.27
30.43
26.50
22.08
17.77
14.07
11.29
9.61
9.02
9.39
10.47
12.00
13.70
15.32
16.70
17.69
18.16
17.94
16.87
14.85
11.90
8.22
4.14
-0.01
-4.01
-7.83
-11.64
-15.74
-20.39
-25.73
-31.65
-37.71
-43.16
-47.03
-48.32
-46.30
-40.73
-31.98
-20.94
-8.81
3.18
14.06
23.18
30.21
35.03
37.63
38.04
36.42
33.09
28.55
23.55
18.84
15.10
12.77
11.91
12.30
13.49
15.01
16.44
17.55
18.24
18.49
18.29
17.59
16.30
14.31
11.58
8.17
4.27
0.18
-3.85
-7.68
-11.37
-15.14
-19.34
-24.25
-30.01
-36.54
-43.37
-49.78
-54.77
-57.30
-56.54
-52.07
-44.07
-33.31
-20.94
-8.20
3.84
14.43
23.14
29.71
34.03
36.07
35.95
34.00
30.75
26.84
22.94
19.57
17.05
15.50
14.87
14.98
15.63
16.62
17.73
18.76
19.57
20.03
20.03
19.49
18.29
16.32
13.50
9.88
5.67
1.20
-3.16
-7.15
-10.75
-14.20
-17.90
-22.28
-27.57
-33.69
-40.21
-46.31
-51.00
-53.26
-52.31
-47.79
-39.91
-29.35
-17.18
-4.63
7.19
17.37
25.38
31.02
34.37
35.69
35.28
33.50
30.70
27.26
23.63
20.29
17.72
16.19
15.75
16.20
17.17
18.28
19.26
19.99
20.46
20.64
20.44
19.71
18.28
16.06
13.14
9.68
5.94
2.11
-1.69
-5.44
-9.21
-13.06
-17.12
-21.52
-26.43
-31.88
-37.66
-43.21
-47.62
-49.83
-48.96
-44.60
-36.98
-26.92
-15.55
-4.04
6.68
15.94
23.35
28.66
31.74
32.60
31.42
28.66
24.93
20.95
17.40
14.70
13.02
12.29
12.27
12.73
13.48
14.45
15.56
16.73
17.80
18.51
18.61
17.87
16.17
13.53
10.14
6.21
2.08
-2.03
-5.92
-9.57
-13.06
-16.59
-20.46
-24.91
-30.02
-35.57
-40.96
-45.25
-47.42
-46.62
-42.43
-35.01
-25.04
-13.57
-1.70
9.51
19.27
27.02
32.47
35.56
36.40
35.29
32.66
29.04
24.98
20.99
17.51
14.82
13.06
12.21
12.15
12.66
13.51
14.44
15.22
15.73
15.89
15.71
15.16
14.12
12.43
9.93
6.53
2.36
-2.24
-6.87
-11.14
-14.85
-18.10
-21.20
-24.60
-28.71
-33.71
-39.47
-45.44
-50.80
-54.55
-55.79
-53.87
-48.55
-40.09
-29.16
-16.78
-4.14
7.63
17.59
25.15
30.10
32.58
32.92
31.57
28.98
25.63
22.00
18.59
15.80
13.91
12.98
12.87
13.32
14.07
14.91
15.72
16.44
17.05
17.48
17.58
17.12
15.91
13.83
10.92
7.40
3.56
-0.34
-4.10
-7.72
-11.27
-14.93
-18.88
-23.32
-28.38
-34.07
-40.12
-45.90
-50.53
-52.95
-52.33
-48.31
-41.09
-31.40
-20.29
-8.89
1.87
11.33
19.08
24.93
28.76
30.54
30.37
28.50
25.36
21.55
17.70
14.38
11.92
10.41
9.76
9.79
10.31
11.14
12.16
13.25
14.26
15.02
15.34
15.02
13.87
11.80
8.83
5.14
1.05
-3.09
-6.97
-10.47
-13.60
-16.63
-19.90
-23.78
-28.47
-33.86
-39.41
-44.24
-47.22
-47.40
-44.25
-37.83
-28.82
-18.26
-7.27
3.18
12.39
19.90
25.47
28.95
30.38
29.94
27.97
24.95
21.39
17.74
14.38
11.57
9.48
8.17
7.68
7.93
8.81
10.15
11.69
13.18
14.37
15.04
14.98
14.07
12.19
9.33
5.61
1.29
-3.22
-7.59
-11.57
-15.22
-18.85
-22.90
-27.69
-33.19
-38.92
-44.03
-47.53
-48.55
-46.57
-41.53
-33.80
-24.09
-13.26
-2.28
8.02
16.89
23.84
28.58
31.08
31.51
30.20
27.59
24.10
20.22
16.35
12.88
10.13
8.26
7.34
7.28
7.91
8.99
10.30
11.63
12.79
13.53
13.62
12.81
10.96
8.11
4.50
0.47
-3.56
-7.37
-10.89
-14.29
-17.79
-21.63
-25.96
-30.80
-36.14
-41.75
-47.24
-51.85
-54.63
-54.58
-51.07
-44.03
-34.13
-22.50
-10.45
0.92
10.90
19.16
25.55
30.02
32.50
33.03
31.79
29.21
25.82
22.22
18.90
16.21
14.30
13.13
12.63
12.68
13.21
14.11
15.28
16.54
17.61
18.18
17.96
16.76
14.53
11.39
7.54
3.23
-1.28
-5.77
-10.04
-13.95
-17.47
-20.76
-24.21
-28.24
-33.22
-39.15
-45.56
-51.45
-55.63
-56.96
-54.77
-49.04
-40.28
-29.42
-17.45
-5.32
6.15
16.24
24.34
30.00
33.01
33.51
31.94
28.94
25.21
21.29
17.54
14.18
11.37
9.26
8.03
7.74
8.30
9.42
10.72
11.94
12.93
13.66
14.09
14.05
13.24
11.44
8.62
5.06
1.20
-2.54
-5.95
-9.10
-12.27
-15.77
-19.81
-24.50
-29.80
-35.44
-40.94
-45.51
-48.19
-48.09
-44.66
-37.91
-28.42
-17.18
-5.29
6.23
16.60
25.28
31.88
36.13
37.91
37.31
34.64
30.45
25.43
20.34
15.82
12.34
10.11
9.12
9.15
9.93
11.14
12.51
13.85
15.02
15.93
16.40
16.26
15.33
13.45
10.63
7.04
3.00
-1.16
-5.18
-8.98
-12.65
-16.42
-20.57
-25.32
-30.80
-36.95
-43.46
-49.66
-54.60
-57.17
-56.41
-51.85
-43.65
-32.64
-20.06
-7.20
4.90
15.54
24.29
30.85
34.99
36.56
35.64
32.64
28.29
23.44
18.94
15.33
12.85
11.45
10.94
11.12
11.83
12.93
14.25
15.60
16.78
17.62
17.99
17.81
17.03
15.59
13.46
10.61
7.12
3.11
-1.26
-5.81
-10.40
-14.96
-19.55
-24.31
-29.46
-35.16
-41.36
-47.66
-53.27
-57.13
-58.15
-55.57
-49.17
-39.39
-27.18
-13.79
-0.51
11.55
21.56
29.04
33.84
36.05
36.00
34.11
30.88
26.85
22.56
18.53
15.21
12.88
11.62
11.33
11.72
12.53
13.59
14.85
16.28
17.79
19.15
19.99
19.92
18.67
16.25
12.91
9.06
5.10
1.21
-2.59
-6.50
-10.69
-15.29
-20.35
-25.83
-31.68
-37.74
-43.63
-48.64
-51.78
-52.01
-48.57
-41.33
-30.91
-18.49
-5.45
6.91
17.75
26.56
33.13
37.35
39.15
38.53
35.68
31.17
25.83
20.61
16.37
13.55
12.17
11.88
12.25
12.95
13.87
15.05
16.49
18.00
19.15
19.45
18.48
16.15
12.71
8.65
4.49
0.59
-2.96
-6.33
-9.81
-13.68
-18.12
-23.23
-29.04
-35.44
-42.14
-48.47
-53.44
-55.89
-54.83
-49.76
-40.93
-29.23
-16.01
-2.65
9.71
20.32
28.74
34.77
38.27
39.20
37.71
34.20
29.37
24.12
19.31
15.59
13.16
11.86
11.32
11.24
11.50
12.19
13.46
15.23
17.11
18.48
18.66
17.24
14.23
10.06
5.33
0.61
-3.81
-7.92
-11.93
-16.09
-20.59
-25.58
-31.13
-37.26
-43.77
-50.14
-55.45
-58.53
-58.29
-54.06
-45.91
-34.63
-21.49
-7.92
4.88
16.03
25.01
31.54
35.49
36.87
35.90
33.04
28.96
24.45
20.22
16.75
14.25
12.70
11.92
11.77
12.10
12.83
13.82
14.82
15.53
15.58
14.71
12.79
9.88
6.19
2.04
-2.27
-6.50
-10.58
-14.64
-18.96
-23.87
-29.54
-35.84
-42.28
-47.99
-51.98
-53.30
-51.29
-45.72
-36.88
-25.41
-12.31
1.33
14.40
25.88
35.01
41.23
44.39
44.68
42.63
39.02
34.67
30.26
26.23
22.75
19.80
17.38
15.58
14.53
14.37
15.00
16.08
17.03
17.25
16.32
14.16
11.02
7.32
3.49
-0.25
-3.91
-7.70
-11.94
-16.95
-22.91
-29.73
-36.95
-43.67
-48.74
-50.94
-49.41
-43.86
-34.76
-23.18
-10.49
1.95
13.06
22.07
28.64
32.62
34.12
33.41
30.93
27.27
23.05
18.84
15.09
12.07
9.85
8.36
7.43
6.85
6.42
6.00
5.57
5.14
4.70
4.21
3.48
2.28
0.34
-2.49
-6.28
-11.02
-16.62
-22.86
-29.25
-34.97
-38.84
-39.64
-36.45
-29.04
-18.04
-4.79
8.98
21.74
32.38
40.42
45.80
48.69
49.29
47.76
44.32
39.31
33.26
26.80
20.55
15.01
10.47
7.09
4.85
3.70
3.45
3.84
4.57
5.24
5.49
4.97
3.48
0.86
-2.95
-7.99
-14.21
-21.44
-29.24
-36.75
-42.83
-46.22
-45.91
-41.43
-33.01
-21.57
-8.42
5.01
17.50
28.11
36.27
41.69
44.36
44.50
42.59
39.23
35.05
30.59
26.25
22.26
18.75
15.79
13.45
11.75
10.65
9.97
9.43
8.74
7.65
6.02
3.77
0.96
-2.39
-6.21
-10.45
-15.05
-20.06
-25.57
-31.70
-38.39
-45.26
-51.46
-55.81
-57.04
-54.22
-47.09
-36.24
-22.93
-8.72
4.89
16.82
26.48
33.69
38.54
41.25
42.12
41.52
39.85
37.50
34.77
31.87
28.96
26.19
23.78
21.93
20.77
20.26
20.20
20.27
20.18
19.69
18.63
16.83
14.12
10.34
5.41
-0.61
-7.56
-15.22
-23.32
-31.50
-39.21
-45.70
-49.97
-51.08
-48.35
-41.65
-31.49
-18.95
-5.36
7.91
19.76
29.50
36.81
41.63
44.10
44.45
42.97
40.06
36.21
31.98
27.94
24.49
21.86
20.03
18.90
18.26
17.96
17.80
17.58
17.03
15.82
13.72
10.60
6.55
1.82
-3.24
-8.32
-13.20
-17.91
-22.71
-28.02
-34.22
-41.39
-49.10
-56.34
-61.72
-63.80
-61.61
-54.88
-44.18
-30.66
-15.76
-0.86
12.88
24.68
34.03
40.71
44.70
46.18
45.49
43.10
39.56
35.44
31.34
27.73
24.92
23.02
21.90
21.32
20.99
20.70
20.38
20.07
19.82
19.58
19.13
18.10
16.16
13.11
9.04
4.30
-0.64
-5.32
-9.55
-13.41
-17.22
-21.41
-26.38
-32.30
-39.01
-45.93
-52.15
-56.50
-57.85
-55.38
-48.82
-38.58
-25.70
-11.60
2.23
14.57
24.67
32.21
37.25
40.00
40.71
39.62
37.05
33.41
29.24
25.13
21.57
18.87
17.05
15.97
15.36
14.99
14.72
14.52
14.41
14.35
14.25
13.84
12.89
11.22
8.80
5.77
2.35
-1.25
-4.94
-8.68
-12.46
-16.22
-19.86
-23.37
-26.87
-30.62
-34.90
-39.81
-45.04
-49.90
-53.37
-54.43
-52.37
-46.96
-38.55
-27.90
-16.02
-3.97
7.32
17.06
24.73
30.02
32.91
33.64
32.63
30.37
27.30
23.77
20.06
16.39
13.04
10.26
8.32
7.34
7.29
7.93
8.91
9.85
10.47
10.59
10.20
9.40
8.31
7.00
5.45
3.55
1.17
-1.73
-5.05
-8.60
-12.11
-15.42
-18.49
-21.44
-24.48
-27.86
-31.72
-36.08
-40.71
-45.06
-48.36
-49.73
-48.40
-43.93
-36.41
-26.44
-14.98
-3.19
7.86
17.29
24.55
29.37
31.78
32.02
30.52
27.79
24.33
20.57
16.86
13.43
10.41
7.90
5.96
4.67
4.07
4.11
4.59
5.22
5.68
5.76
5.39
4.70
3.82
2.84
1.69
0.21
-1.78
-4.32
-7.33
-10.60
-13.92
-17.18
-20.34
-23.44
-26.57
-29.80
-33.27
-37.04
-41.05
-44.93
-48.03
-49.45
-48.32
-44.09
-36.81
-27.10
-16.05
-4.92
5.19
13.51
19.69
23.72
25.80
26.24
25.35
23.41
20.73
17.63
14.46
11.53
9.07
7.19
5.87
5.03
4.54
4.35
4.47
4.90
5.60
6.39
6.95
6.96
6.16
4.52
2.22
-0.46
-3.26
-6.08
-8.96
-11.96
-15.08
-18.22
-21.25
-24.17
-27.20
-30.66
-34.77
-39.37
-43.86
-47.26
-48.57
-47.04
-42.49
-35.28
-26.16
-16.10
-6.01
3.29
11.23
17.44
21.72
24.08
24.70
23.84
21.82
18.98
15.63
12.09
8.65
5.57
3.05
1.17
-0.07
-0.77
-1.02
-0.89
-0.42
0.37
1.31
2.16
2.54
2.14
0.82
-1.33
-4.00
-6.84
-9.55
-12.06
-14.44
-16.93
-19.78
-23.18
-27.17
-31.57
-35.91
-39.48
-41.50
-41.24
-38.35
-32.83
-25.13
-15.99
-6.27
3.16
11.56
18.34
23.18
25.96
26.82
26.04
23.99
21.05
17.56
13.88
10.35
7.29
4.91
3.31
2.43
2.13
2.24
2.62
3.17
3.75
4.22
4.35
3.88
2.64
0.60
-2.05
-5.01
-7.95
-10.70
-13.35
-16.23
-19.76
-24.26
-29.74
-35.73
-41.37
-45.66
-47.65
-46.81
-43.04
-36.69
-28.39
-18.85
-8.81
1.04
10.00
17.44
22.86
26.05
27.11
26.42
24.46
21.68
18.40
14.81
11.13
7.60
4.53
2.23
0.85
0.38
0.62
1.25
1.92
2.32
2.22
1.54
0.26
-1.57
-3.86
-6.57
-9.60
-12.90
-16.43
-20.21
-24.35
-29.07
-34.52
-40.58
-46.75
-52.12
-55.54
-56.01
-52.98
-46.53
-37.28
-26.21
-14.39
-2.77
7.87
16.92
23.95
28.64
30.88
30.79
28.75
25.32
21.13
16.78
12.71
9.18
6.28
4.00
2.27
1.04
0.28
-0.05
-0.02
0.24
0.47
0.33
-0.55
-2.49
-5.57
-9.59
-14.14
-18.74
-23.05
-27.04
-30.99
-35.41
-40.72
-47.04
-54.05
-60.92
-66.40
-69.05
-67.54
-60.99
-49.32
-33.40
-14.91
4.00
21.23
35.15
44.94
50.53
52.45
51.58
48.88
45.14
40.96
36.70
32.54
28.56
24.85
21.56
18.89
17.03
16.06
15.83
15.94
15.84
14.94
12.80
9.21
4.20
-2.02
-9.20
-17.01
-25.13
-33.23
-40.97
-48.17
-54.88
-61.34
-67.85
-74.53
-81.06
-86.68
-90.33
-91.00
-88.06
-81.46
-71.76
-59.95
-47.20
-34.65
-23.16
-13.17
-4.70
2.56
9.09
15.25
21.13
26.52
31.09
34.60
37.13
39.10
41.12
43.70
47.13
51.33
55.96
60.52
64.56
67.70
69.72
70.59
70.37
69.17
66.98
63.70
59.16
53.40
46.71
39.56
32.41
25.36
18.20
10.57
2.43
-5.59
-12.23
-16.02
-15.92
-11.70
-4.02
6.03
17.32
28.92
40.04
49.90
57.58
62.16
63.08
60.36
54.73
47.47
39.96
33.44
28.74
26.24
25.92
27.43
30.23
33.59
36.79
39.23
40.50
40.45
39.18
36.92
33.93
30.36
26.17
21.28
15.54
8.85
1.16
-7.62
-17.66
-29.06
-41.63
-54.59
-66.56
-75.77
-80.62
-80.23
-74.74
-65.15
-52.91
-39.46
-25.86
-12.66
-0.12
11.68
22.68
32.75
41.73
49.42
55.67
60.37
63.65
65.98
68.25
71.58
77.05
85.30
96.21
108.89
121.83
133.38
142.13
147.09
147.69
143.62
134.66
120.75
102.26
80.11
55.86
31.45
8.65
-11.33
-28.16
-42.31
-54.74
-66.51
-78.39
-90.65
-102.85
-113.94
-122.42
-126.74
-125.75
-119.04
-107.13
-91.29
-73.30
-54.94
-37.78
-22.94
-11.18
-2.87
1.96
3.59
2.60
-0.24
-4.06
-8.01
-11.42
-13.87
-15.26
-15.73
-15.64
-15.34
-15.09
-14.95
-14.83
-14.66
-14.49
-14.60
-15.20
-16.36
-17.70
-18.58
-18.34
-16.76
-14.28
-11.81
-10.35
-10.49
-12.25
-15.22
-18.85
-22.71
-26.29
-28.82
-29.06
-25.56
-17.23
-3.85
13.61
33.27
52.87
70.58
85.27
96.66
104.97
110.62
113.94
115.04
113.79
109.84
102.70
91.92
77.32
59.23
38.52
16.53
-5.23
-25.19
-41.95
-54.17
-60.64
-60.46
-53.43
-40.42
-23.39
-4.88
12.76
28.04
40.40
49.74
55.82
57.90
55.14
47.33
35.43
21.43
7.60
-4.65
-15.29
-25.49
-36.67
-49.44
-63.13
-76.02
-86.19
-92.21
-93.56
-90.50
-83.74
-74.02
-62.12
-48.70
-34.50
-20.31
-6.88
5.09
15.06
22.68
27.88
30.92
32.40
33.12
33.88
35.23
37.36
40.19
43.53
47.33
51.60
56.31
61.13
65.34
68.00
68.14
65.23
59.37
51.36
42.39
33.70
26.07
19.54
13.37
6.29
-2.95
-15.04
-29.76
-45.97
-62.03
-76.41
-88.16
-97.13
-103.78
-108.85
-112.92
-116.25
-118.76
-120.12
-119.92
-117.70
-112.93
-105.16
-94.10
-79.91
-63.18
-44.80
-25.69
-6.55
12.04
29.52
45.07
57.69
66.54
71.26
72.17
70.08
65.89
60.30
53.79
46.91
40.63
36.32
35.34
38.43
45.24
54.28
63.33
70.12
72.89
70.95
64.74
55.69
45.68
36.44
28.92
23.08
18.04
12.61
5.96
-2.02
-10.82
-19.76
-28.47
-37.07
-45.93
-55.25
-64.71
-73.46
-80.45
-84.86
-86.39
-85.18
-81.55
-75.80
-68.08
-58.52
-47.45
-35.42
-23.18
-11.45
-0.79
8.51
16.26
22.38
26.79
29.45
30.49
30.20
29.04
27.63
26.60
26.61
28.10
31.25
35.84
41.25
46.59
50.83
53.09
52.77
49.89
44.97
39.05
33.26
28.53
25.17
22.88
20.95
18.54
15.15
10.71
5.56
0.17
-5.09
-10.08
-14.94
-19.91
-25.25
-31.13
-37.54
-44.24
-50.69
-56.18
-59.84
-60.90
-58.87
-53.67
-45.66
-35.54
-24.23
-12.69
-1.82
7.63
15.03
20.05
22.63
23.07
22.01
20.20
18.37
17.02
16.39
16.54
17.41
18.97
21.19
24.01
27.32
31.08
35.48
40.92
47.89
56.49
66.12
75.28
81.99
84.42
81.69
74.19
63.47
51.62
40.47
31.19
24.02
18.67
14.52
10.95
7.29
2.76
-3.46
-12.03
-23.07
-35.94
-49.37
-61.84
-72.19
-79.90
-85.06
-87.98
-88.86
-87.45
-83.30
-76.08
-65.99
-53.89
-41.14
-29.23
-19.37
-12.19
-7.73
-5.54
-4.89
-4.93
-4.75
-3.50
-0.42
4.92
12.45
21.51
30.96
39.47
45.90
49.53
50.23
48.21
43.92
37.86
30.59
22.72
14.92
7.81
1.79
-3.04
-6.87
-10.13
-13.31
-16.79
-20.71
-24.91
-29.01
-32.58
-35.37
-37.37
-38.90
-40.36
-42.15
-44.46
-47.33
-50.68
-54.31
-57.89
-60.81
-62.33
-61.60
-58.08
-51.73
-43.17
-33.50
-23.94
-15.49
-8.66
-3.43
0.50
3.43
5.43
6.26
5.60
3.34
-0.28
-4.53
-8.55
-11.65
-13.52
-14.29
-14.42
-14.30
-14.18
-14.05
-13.79
-13.34
-12.79
-12.37
-12.31
-12.70
-13.38
-14.04
-14.24
-13.73
-12.51
-10.92
-9.55
-8.94
-9.42
-10.86
-12.82
-14.74
-16.23
-17.28
-18.19
-19.43
-21.38
-24.13
-27.48
-30.97
-33.99
-35.81
-35.69
-32.99
-27.41
-19.00
-8.19
4.44
18.39
33.34
49.00
64.84
79.83
92.36
100.74
103.71
101.09
94.02
84.55
75.06
67.25
61.69
57.72
53.85
48.43
40.41
29.73
17.28
4.67
-6.43
-14.68
-19.44
-20.94
-20.11
-18.28
-16.78
-16.59
-18.09
-21.17
-25.40
-30.34
-35.80
-41.65
-47.81
-53.92
-59.43
-63.73
-66.39
-67.46
-67.41
-66.99
-66.97
-67.99
-70.41
-74.28
-79.25
-84.52
-88.91
-91.05
-89.73
-84.28
-74.70
-61.67
-46.21
-29.58
-13.11
1.81
13.88
21.98
25.58
25.01
21.45
16.71
12.68
10.74
11.46
14.59
19.28
24.51
29.51
33.84
37.48
40.53
43.15
45.35
47.00
47.99
48.28
47.97
47.20
46.10
44.63
42.56
39.53
35.14
29.26
22.09
14.21
6.34
-0.78
-6.72
-11.51
-15.51
-19.30
-23.40
-28.07
-33.19
-38.29
-42.64
-45.47
-46.17
-44.34
-39.88
-32.93
-23.79
-12.89
-0.78
11.82
24.01
34.82
43.30
48.74
50.80
49.60
45.65
39.71
32.66
25.33
18.42
12.42
7.64
4.17
1.97
0.93
0.94
1.87
3.59
5.89
8.42
10.73
12.34
12.87
12.04
9.82
6.31
1.76
-3.48
-9.02
-14.44
-19.43
-23.78
-27.48
-30.70
-33.80
-37.26
-41.53
-46.87
-53.19
-59.90
-65.96
-70.04
-70.93
-67.81
-60.51
-49.50
-35.66
-19.99
-3.44
13.16
28.90
42.78
53.67
60.51
62.67
60.12
53.54
44.16
33.45
22.91
13.81
7.10
3.33
2.49
3.92
6.24
7.55
5.84
-0.42
-11.59
-26.61
-43.08
-58.01
-68.75
-73.84
-73.45
-69.08
-62.94
-57.13
-53.08
-51.39
-51.99
-54.55
-58.86
-64.92
-72.90
-82.85
-94.35
-106.33
-117.15
-125.08
-128.92
-128.41
-124.38
-118.26
-111.60
-105.68
-101.44
-99.61
-100.35
-103.10
-106.35
-108.17
-107.11
-102.94
-96.81
