1603996501.00
64.000000
-0.00
-0.00
-0.00
-0.00
-0.00
-0.00
-0.00
-0.00
-0.00
-0.00
0.00
0.01
0.01
-0.00
-0.03
-0.05
-0.05
0.00
0.13
0.36
0.66
1.01
1.37
1.72
2.06
2.40
2.79
3.24
3.80
4.42
5.06
5.66
6.20
6.68
7.15
7.68
8.31
9.14
10.09
11.04
11.88
12.56
13.14
13.76
14.65
15.96
17.91
20.32
22.90
25.38
27.58
29.57
31.68
34.32
37.81
42.54
48.15
54.10
59.83
64.97
69.58
74.14
79.34
85.71
93.76
103.00
112.62
121.73
129.77
136.75
143.30
150.75
157.77
166.64
177.95
191.79
206.97
220.57
228.25
225.36
208.53
176.87
132.76
80.05
23.07
-34.94
-92.44
-149.16
-205.23
-260.37
-313.74
-363.87
-409.83
-450.91
-486.50
-515.74
-537.23
-549.22
-549.96
-538.37
-514.21
-478.67
-433.88
-382.45
-327.02
-269.84
-212.63
-156.66
-102.95
-52.37
-5.90
35.58
71.43
101.35
125.50
144.38
158.69
169.15
176.37
180.75
182.57
182.07
179.51
175.23
169.65
163.18
156.15
148.81
141.30
133.69
126.02
118.33
110.69
103.16
95.80
88.68
81.83
75.25
68.95
62.95
57.25
51.86
46.78
42.03
37.59
33.45
29.61
26.07
22.81
19.83
17.11
14.67
12.48
10.54
8.83
7.35
6.07
4.97
4.05
3.27
2.62
2.09
1.65
1.30
1.02
0.81
0.64
0.52
0.43
0.37
0.33
0.31
0.31
0.32
0.33
0.36
0.39
0.42
0.46
0.50
0.54
0.59
0.64
0.69
0.76
0.82
0.90
0.98
1.07
1.17
1.29
1.41
1.56
1.72
1.90
2.10
2.32
2.56
2.83
3.12
3.44
3.80
4.18
4.60
5.04
5.52
6.04
6.59
7.19
7.82
8.50
9.23
10.00
10.82
11.68
12.60
13.57
14.61
15.72
16.89
18.13
19.39
20.66
21.88
22.97
23.84
24.39
24.51
24.11
23.11
21.50
19.30
16.57
13.39
9.92
6.36
2.87
-0.38
-3.25
-5.62
-7.45
-8.71
-9.45
-9.71
-9.60
-9.23
-8.70
-8.09
-7.48
-6.89
-6.35
-5.88
-5.44
-5.07
-4.76
-4.51
-4.30
-4.13
-3.98
-3.78
-3.46
-2.88
-2.03
-0.87
0.70
2.77
5.43
8.77
12.85
17.69
23.34
29.48
35.88
42.32
48.66
54.79
60.73
66.53
72.36
78.46
84.66
90.93
97.37
104.08
111.18
118.73
126.73
135.08
143.71
151.86
158.90
164.31
167.69
168.69
166.89
161.60
151.46
138.88
124.57
109.06
92.94
76.95
61.91
48.55
37.38
28.45
21.45
15.16
8.52
0.86
-7.92
-17.42
-26.97
-35.98
-44.28
-52.09
-60.35
-69.77
-80.49
-91.95
-103.23
-113.43
-122.19
-129.89
-137.55
-146.69
-158.63
-174.43
-194.91
-220.42
-250.29
-282.02
-311.22
-332.36
-340.78
-334.31
-314.09
-283.84
-248.08
-210.35
-172.65
-136.20
-102.67
-74.81
-55.69
-47.16
-48.43
-56.02
-64.89
-70.21
-68.77
-59.67
-44.12
-25.03
-6.11
9.06
17.80
19.05
13.34
2.23
-12.56
-29.87
-49.22
-70.29
-92.20
-113.26
-131.21
-143.93
-150.01
-148.94
-140.84
-126.00
-104.73
-77.33
-44.30
-6.59
34.34
76.44
117.21
153.94
184.17
206.04
218.78
222.79
219.53
211.07
199.54
186.66
173.52
160.87
149.38
139.73
132.48
127.56
123.95
119.67
112.33
99.80
81.07
56.51
27.91
-2.07
-30.59
-55.29
-74.95
-89.72
-101.16
-111.60
-123.41
-137.97
-155.10
-173.08
-189.12
-200.45
-204.97
-201.68
-190.74
-173.36
-151.64
-128.28
-106.27
-88.26
-75.99
-69.66
-67.69
-66.69
-62.08
-48.98
-23.42
16.38
69.33
131.23
195.50
254.40
300.45
327.64
332.21
313.00
271.65
212.79
143.61
72.87
8.94
-42.43
-79.49
-104.31
-121.17
-134.09
-145.13
-154.13
-159.80
-161.34
-159.31
-155.32
-150.87
-146.24
-140.38
-131.76
-119.76
-105.63
-92.17
-82.66
-79.27
-81.83
-87.57
-91.92
-90.03
-78.51
-56.72
-27.09
5.75
36.75
62.37
81.69
96.55
110.61
127.86
151.34
182.22
219.27
258.95
295.85
323.40
335.07
325.81
293.68
240.78
173.31
100.12
30.59
-27.63
-69.99
-95.18
-104.47
-100.56
-86.77
-66.46
-42.92
-19.22
1.91
18.30
28.75
33.14
32.46
28.68
24.40
22.31
24.44
31.40
42.01
53.69
63.40
68.67
68.44
63.11
54.15
43.40
32.74
23.71
17.50
14.72
15.22
18.07
21.83
25.13
27.39
29.25
32.44
38.93
49.98
65.21
82.56
98.84
110.90
116.61
115.34
107.80
95.37
79.40
60.65
39.09
14.10
-15.14
-49.08
-87.26
-127.77
-167.40
-201.99
-227.52
-241.18
-242.10
-231.50
-212.16
-187.47
-160.62
-134.13
-109.67
-88.16
-69.73
-53.74
-38.88
-23.49
-6.11
14.02
36.77
61.30
86.60
111.86
136.59
160.44
182.96
203.55
221.62
236.89
249.49
259.83
268.20
274.60
278.66
280.08
279.05
276.37
273.28
270.77
268.87
266.35
260.91
250.17
232.63
208.43
179.38
148.28
117.84
89.79
64.52
41.26
18.78
-4.15
-28.58
-55.45
-85.60
-119.47
-156.51
-194.78
-231.15
-262.09
-284.91
-298.55
-303.71
-302.06
-295.22
-284.08
-268.67
-248.82
-224.70
-197.16
-167.52
-137.11
-106.72
-76.19
-44.37
-9.11
32.24
81.84
140.03
204.27
268.88
326.38
369.75
394.73
401.11
392.20
372.97
347.69
318.40
284.77
245.16
198.18
143.74
83.31
19.46
-45.14
-108.19
-168.21
-224.29
-275.86
-322.84
-365.87
-406.76
-448.36
-493.42
-542.64
-593.23
-638.82
-671.49
-684.99
-677.56
-652.84
-618.36
-582.32
-550.51
-524.96
-504.50
-486.63
-469.23
-451.23
-432.16
-411.49
-388.37
-361.90
-331.92
-299.26
-265.60
-232.87
-202.33
-174.19
-147.70
-121.56
-94.75
-66.96
-38.73
-11.09
15.07
39.40
62.30
84.61
107.16
130.27
153.69
176.72
198.68
219.29
238.87
258.36
279.12
302.68
330.06
361.17
394.05
424.84
448.68
461.22
460.47
447.70
427.09
404.04
383.08
366.42
353.69
343.01
332.34
320.49
307.27
292.98
277.87
261.89
244.92
227.14
209.20
192.12
176.91
164.12
153.48
144.02
134.31
122.89
108.78
91.73
72.25
51.42
30.56
10.97
-6.30
-20.57
-31.58
-39.52
-44.92
-48.63
-51.52
-54.37
-57.75
-61.94
-66.93
-72.53
-78.45
-84.35
-90.02
-95.46
-100.90
-106.93
-114.16
-123.00
-133.19
-143.56
-152.10
-156.44
-154.53
-145.37
-129.41
-108.40
-84.77
-60.94
-38.69
-18.99
-2.20
11.58
22.32
29.99
34.79
37.27
38.30
38.81
39.43
40.17
40.51
39.64
36.97
32.41
26.46
19.92
13.59
7.88
2.79
-2.00
-6.95
-12.48
-18.97
-26.79
-36.19
-47.05
-58.62
-69.37
-77.25
-80.23
-77.00
-67.45
-52.67
-34.63
-15.52
2.80
19.16
33.01
44.26
52.99
59.29
63.19
64.77
64.27
62.13
58.98
55.48
52.16
49.20
46.42
43.40
39.71
35.13
29.77
24.00
18.18
12.49
6.81
0.84
-5.86
-13.68
-22.93
-33.88
-46.54
-60.50
-74.66
-87.23
-96.00
-98.95
-94.95
-84.17
-68.16
-49.30
-30.15
-12.75
1.72
12.89
20.91
26.10
28.72
28.92
26.82
22.67
16.84
9.91
2.47
-4.94
-11.97
-18.53
-24.72
-30.71
-36.63
-42.45
-48.02
-53.12
-57.65
-61.63
-65.07
-67.75
-69.12
-68.34
-64.62
-57.65
-47.77
-35.82
-22.68
-8.99
4.93
18.68
31.30
41.15
46.29
45.41
38.65
27.93
16.40
7.42
3.47
5.63
13.63
26.20
41.64
57.86
72.37
82.35
85.29
79.90
66.91
49.35
31.76
18.95
14.34
18.88
30.67
45.47
57.82
62.38
55.42
35.57
4.22
-35.04
-77.17
-116.75
-148.84
-169.66
-177.10
-170.82
-152.14
-123.27
-86.45
-43.02
6.70
62.62
123.67
186.87
247.39
299.67
339.26
363.94
374.01
371.55
359.18
339.31
313.83
284.49
253.14
221.75
192.18
165.70
142.82
123.26
106.27
90.91
76.38
62.22
48.31
34.75
21.69
9.25
-2.66
-14.17
-25.48
-36.71
-47.83
-58.68
-68.89
-77.80
-84.43
-87.69
-86.56
-80.57
-70.05
-56.06
-40.11
-23.66
-7.84
6.64
19.30
29.61
37.04
41.25
42.37
41.16
38.83
36.57
35.00
34.00
32.82
30.53
26.53
20.86
14.15
7.21
0.65
-5.45
-11.47
-18.04
-25.72
-34.74
-44.97
-55.97
-66.96
-76.88
-84.54
-88.97
-90.02
-88.71
-87.21
-88.15
-93.52
-103.62
-116.70
-129.50
-138.34
-140.45
-134.74
-121.84
-103.59
-82.34
-60.38
-39.66
-21.77
-7.75
2.08
8.19
11.88
14.84
18.65
24.22
31.54
39.73
47.37
52.97
55.39
54.05
49.15
41.55
32.69
24.22
17.61
13.68
12.39
12.85
13.74
13.82
12.42
9.63
6.14
2.79
0.14
-1.74
-3.13
-4.53
-6.34
-8.79
-11.89
-15.42
-18.86
-21.25
-21.28
-17.66
-9.68
2.23
16.30
29.88
40.22
45.28
44.08
36.48
22.65
2.63
-23.46
-54.90
-89.82
-125.03
-156.64
-181.11
-196.31
-201.99
-199.68
-191.84
-180.99
-169.03
-156.97
-145.22
-133.88
-123.17
-113.52
-105.54
-99.68
-96.10
-94.58
-94.75
-96.41
-99.72
-105.29
-113.89
-126.07
-141.66
-159.44
-176.93
-190.65
-196.95
-193.00
-177.87
-153.03
-122.00
-89.41
-59.56
-35.43
-18.16
-7.34
-1.66
0.36
-0.04
-1.84
-4.20
-6.30
-7.52
-7.44
-6.00
-3.14
1.47
8.80
20.15
36.62
58.16
83.04
107.98
129.27
144.11
151.70
153.32
151.53
148.70
146.03
143.29
139.30
132.86
123.27
110.54
95.03
77.08
57.03
35.41
13.30
-7.61
-25.24
-37.93
-44.96
-46.88
-45.16
-41.56
-37.61
-34.28
-32.12
-31.42
-32.49
-35.51
-40.40
-46.81
-54.16
-61.93
-69.75
-77.45
-84.75
-91.23
-96.33
-99.68
-101.34
-101.81
-101.81
-101.77
-101.62
-100.73
-98.23
-93.38
-85.84
-75.92
-64.35
-52.09
-39.93
-28.18
-16.63
-4.81
7.51
19.96
31.55
41.19
48.41
53.84
59.16
66.35
76.76
90.45
106.18
121.94
135.82
146.54
153.68
157.52
158.61
157.53
154.76
150.68
145.66
140.08
134.41
129.05
124.21
119.80
115.36
110.25
103.89
96.02
86.78
76.60
65.88
54.80
43.25
30.90
17.53
3.15
-11.89
-27.03
-41.58
-55.04
-67.13
-77.73
-86.64
-93.37
-97.03
-96.45
-90.67
-79.36
-63.17
-43.64
-22.89
-2.90
14.97
30.24
43.21
54.55
64.90
74.54
83.34
90.83
96.53
100.11
101.62
101.46
100.12
97.94
94.85
90.40
83.97
74.96
63.05
48.22
30.70
10.96
-10.40
-32.77
-55.55
-78.32
-100.79
-122.72
-143.68
-162.78
-178.67
-189.70
-194.34
-191.66
-181.59
-164.89
-142.99
-117.58
-90.44
-63.16
-37.13
-13.38
7.38
24.80
38.87
49.81
58.02
63.96
68.08
70.74
72.14
72.25
70.69
66.83
60.10
50.45
38.78
26.93
17.24
11.47
10.02
11.47
13.25
12.68
8.19
-0.28
-11.67
-24.78
-39.11
-54.80
-72.03
-90.02
-106.77
-119.47
-125.57
-123.83
-114.69
-99.92
-81.70
-61.94
-41.86
-22.11
-3.12
14.70
30.85
44.85
56.19
64.38
68.94
69.64
66.70
60.92
53.65
46.36
40.06
34.99
30.50
25.44
18.69
9.60
-1.81
-15.06
-29.46
-44.35
-59.19
-73.52
-86.95
-99.17
-109.87
-118.73
-125.14
-128.14
-126.51
-119.15
-105.61
-86.49
-63.56
-39.32
-16.36
3.36
18.76
29.72
36.64
40.05
40.49
38.45
34.62
29.94
25.54
22.46
21.32
22.12
24.32
27.05
29.48
31.09
31.65
31.14
29.56
26.76
22.51
16.60
9.03
-0.01
-10.20
-21.19
-32.55
-43.63
-53.38
-60.23
-62.44
-58.64
-48.46
-32.81
-13.69
6.39
25.19
41.28
54.06
63.48
69.55
72.07
70.74
65.40
56.55
45.45
33.99
24.14
17.34
14.04
13.63
14.82
16.15
16.57
15.63
13.40
10.13
5.93
0.67
-5.90
-14.00
-23.73
-34.94
-47.26
-60.02
-72.02
-81.62
-86.82
-85.87
-77.79
-62.84
-42.48
-19.03
5.03
27.53
46.92
62.24
73.03
79.22
81.07
79.10
74.06
66.79
58.15
49.00
40.19
32.41
25.98
20.72
15.99
11.08
5.68
0.24
-4.19
-6.43
-5.98
-3.40
-0.27
1.37
-0.22
-5.92
-15.60
-28.27
-42.32
-55.73
-66.28
-71.82
-70.64
-62.03
-46.57
-26.13
-3.43
18.71
38.05
53.34
64.24
71.02
74.19
74.15
71.27
65.97
58.97
51.22
43.79
37.56
32.92
29.65
27.09
24.46
21.22
17.27
12.89
8.56
4.65
1.23
-1.90
-5.16
-9.08
-14.22
-21.09
-30.05
-40.92
-52.74
-63.62
-71.01
-72.42
-66.23
-52.43
-32.72
-9.99
12.58
32.43
48.19
59.58
67.00
71.00
71.93
69.97
65.40
58.88
51.57
44.88
40.16
38.22
39.15
42.37
46.84
51.47
55.37
57.98
59.13
58.95
57.78
56.02
54.02
51.92
49.50
46.19
41.19
33.76
23.65
11.54
-0.81
-10.72
-15.30
-12.32
-1.13
17.02
39.28
62.09
82.31
98.06
108.91
115.50
118.88
119.95
119.20
116.89
113.27
108.70
103.57
98.06
92.08
85.39
77.91
69.94
62.11
55.05
49.02
43.63
38.01
31.22
22.68
12.46
1.10
-10.78
-22.86
-35.28
-48.48
-62.80
-78.19
-94.09
-109.45
-122.99
-133.34
-139.12
-139.04
-132.04
-117.71
-96.73
-71.14
-44.13
-19.33
0.23
12.94
18.84
19.24
15.99
10.79
4.90
-0.76
-5.25
-7.40
-5.91
0.20
11.13
25.95
42.66
58.53
70.70
76.89
75.95
68.19
55.17
39.30
23.10
8.53
-3.41
-12.82
-20.65
-28.36
-37.27
-47.98
-59.90
-71.23
-79.42
-82.00
-77.64
-66.69
-51.10
-33.62
-16.72
-1.83
10.84
21.70
31.08
38.75
44.04
46.47
46.28
44.70
43.54
44.51
48.46
55.14
63.30
71.34
77.78
81.59
82.14
78.98
71.76
60.30
44.87
26.34
6.08
-14.47
-34.26
-52.93
-70.83
-88.55
-106.56
-124.93
-143.21
-160.44
-175.02
-184.68
-186.68
-178.51
-159.02
-129.18
-92.39
-53.50
-17.45
12.27
34.29
49.12
58.27
63.17
64.77
63.51
59.83
54.47
48.51
43.00
38.61
35.56
33.73
32.97
33.37
35.12
38.19
42.04
45.49
47.02
45.40
40.09
31.49
20.66
8.87
-2.99
-14.67
-26.54
-39.39
-54.06
-71.14
-90.62
-111.50
-131.57
-147.57
-155.83
-153.27
-138.61
-113.03
-80.11
-44.96
-12.73
12.84
30.30
40.58
46.16
49.90
53.91
58.99
64.72
70.21
74.78
78.52
82.21
86.82
92.92
100.19
107.55
113.47
116.60
116.24
112.47
106.11
98.35
90.35
82.90
76.26
70.04
63.40
55.12
43.93
28.85
9.63
-12.96
-36.95
-59.41
-77.06
-87.17
-88.26
-80.62
-66.13
-47.69
-28.36
-10.67
3.79
14.31
20.74
23.12
21.38
15.33
4.93
-9.33
-26.03
-42.65
-55.82
-62.09
-58.78
-44.92
-21.50
8.78
42.27
75.26
104.52
127.52
142.39
147.88
143.51
129.93
108.85
82.98
55.42
29.23
7.00
-9.25
-18.27
-19.90
-15.37
-7.48
-0.15
2.70
-1.46
-12.74
-28.78
-45.72
-59.81
-68.83
-72.63
-72.63
-70.74
-68.29
-65.43
-61.45
-55.57
-47.69
-38.80
-30.64
-25.02
-23.09
-24.97
-29.81
-36.19
-42.70
-48.19
-52.02
-54.12
-54.92
-55.36
-56.61
-59.42
-63.51
-67.13
-67.42
-61.32
-47.02
-24.95
2.08
29.76
53.74
70.98
80.33
82.31
78.39
70.22
59.22
46.49
33.05
20.01
8.64
0.22
-4.24
-4.36
-0.69
5.32
11.55
15.80
16.45
12.97
6.01
-3.04
-12.68
-22.00
-30.92
-39.97
-49.83
-60.89
-73.00
-85.72
-98.47
-110.77
-122.04
-131.46
-137.88
-140.07
-137.30
-129.74
-118.36
-104.37
-88.42
-70.27
-49.17
-24.79
1.66
27.17
47.63
59.23
60.09
51.05
35.41
17.91
3.15
-5.49
-6.58
-0.48
11.07
25.63
40.62
53.85
63.76
69.66
71.68
70.59
67.49
63.47
59.23
54.88
50.02
44.05
36.63
28.24
20.21
14.45
12.87
16.61
25.59
38.44
52.79
65.88
75.22
79.18
77.43
70.99
61.93
52.77
45.73
42.21
42.50
46.11
52.11
59.51
67.37
74.69
80.39
83.31
82.55
77.83
69.75
59.79
49.87
41.89
37.13
35.90
37.46
40.15
41.90
40.84
36.03
27.84
18.11
9.58
5.11
6.68
14.81
28.39
45.15
62.40
77.80
89.84
97.95
102.26
103.31
101.75
98.17
93.07
86.94
80.33
73.92
68.48
64.60
62.34
61.03
59.31
55.53
48.33
37.03
21.65
2.60
-19.59
-44.43
-71.33
-99.53
-128.28
-157.45
-187.86
-220.98
-257.92
-298.18
-338.87
-375.20
-401.95
-415.55
-415.59
-404.78
-387.28
-366.38
-342.57
-313.31
-274.52
-223.04
-158.68
-85.32
-9.93
60.06
119.43
166.76
204.08
234.79
261.58
285.37
304.60
316.37
318.44
310.35
293.43
270.00
241.80
210.08
176.73
143.59
112.74
86.85
68.43
58.56
56.32
58.07
59.60
59.10
55.98
50.67
44.66
39.03
33.08
24.10
7.60
-19.12
-53.30
-89.34
-120.93
-142.45
-151.40
-149.16
-133.44
-106.30
-82.80
-69.90
-66.66
-72.76
-87.36
-108.83
-134.40
-160.35
-183.83
-202.58
-213.81
-217.02
-213.82
-205.70
-193.63
-177.92
-158.65
-136.97
-114.34
-90.80
-66.86
-43.54
-21.44
-0.91
17.60
33.43
45.41
52.90
56.93
58.61
58.45
56.41
51.94
44.31
33.42
20.04
6.13
-5.28
-11.69
-12.17
-7.51
0.05
7.40
11.51
10.06
2.15
-11.34
-28.15
-45.21
-59.43
-68.56
-71.99
-70.89
-67.69
-65.02
-64.52
-66.09
-67.93
-67.39
-62.07
-50.85
-34.33
-14.51
5.92
24.46
39.45
50.28
57.33
61.67
64.64
67.44
70.66
74.12
76.92
77.79
75.58
69.71
60.30
48.10
34.29
20.23
7.27
-3.46
-11.28
-16.15
-18.81
-20.62
-23.21
-28.08
-36.21
-47.84
-62.45
-78.61
-94.10
-106.08
-111.71
-108.94
-97.23
-77.78
-53.12
-26.31
-0.04
23.87
44.42
61.15
73.78
82.16
86.49
87.54
86.61
85.30
84.83
85.57
86.76
86.71
83.40
75.05
60.67
40.27
14.73
-14.30
-44.74
-74.26
-100.60
-121.77
-136.37
-143.76
-144.08
-138.18
-127.40
-113.35
-97.65
-81.62
-65.98
-50.81
-35.68
-20.18
-4.40
10.75
23.70
32.96
37.80
38.68
37.03
34.54
32.30
30.27
27.53
22.87
15.70
6.54
-3.05
-11.04
-15.70
-16.15
-12.49
-5.54
3.65
14.24
25.79
38.30
51.93
66.62
81.68
95.58
106.18
111.23
109.19
99.87
84.59
65.77
46.12
27.79
12.13
-0.17
-8.55
-12.23
-10.34
-2.45
10.94
28.15
46.68
63.91
77.80
87.26
92.11
92.69
89.40
82.51
72.25
59.00
43.42
26.39
8.91
-8.12
-23.96
-38.02
-49.71
-58.37
-63.34
-64.11
-60.63
-53.53
-44.25
-34.74
-26.97
-22.25
-20.55
-20.26
-18.44
-11.67
2.93
26.58
57.94
92.75
124.14
144.17
146.14
127.10
89.42
40.58
-9.06
-49.36
-73.57
-80.07
-72.30
-57.29
-43.28
-37.43
-44.06
-63.59
-92.47
-124.49
-152.82
-172.11
-180.04
-177.32
-166.80
-152.15
-136.66
-122.64
-111.78
-105.46
-104.44
-108.24
-114.71
-120.35
-121.32
-114.64
-98.16
-72.02
-38.72
-2.09
34.38
68.91
101.79
134.46
168.27
205.67
247.61
293.02
339.29
383.57
423.81
458.78
487.37
508.44
524.35
537.67
549.55
558.78
562.44
557.46
541.81
515.10
479.05
441.63
411.28
393.24
387.46
389.84
395.09
399.07
399.60
367.46
287.23
162.58
16.20
-123.54
-237.69
-321.12
-377.86
-415.05
-436.84
-445.63
-441.83
-427.20
-406.32
-384.94
-367.29
-354.92
-347.46
-342.85
-336.63
-325.63
-309.80
-291.94
-275.51
-262.36
-252.18
-243.49
-234.93
-224.45
-211.29
-197.10
-185.46
-180.17
-183.38
-194.80
-212.14
-232.26
-251.61
-267.74
-280.01
-288.85
-294.28
-294.77
-287.37
-269.01
-238.13
-195.12
-142.00
-81.58
-16.63
49.93
114.25
170.69
212.37
233.25
230.78
207.80
171.93
132.85
98.90
74.69
60.84
55.41
55.94
60.75
68.94
79.65
91.48
102.51
111.09
116.64
119.93
122.76
126.92
133.23
141.04
148.41
152.98
153.01
148.16
139.65
129.78
120.93
114.75
111.52
110.26
109.17
106.45
100.99
92.90
83.48
74.98
69.85
70.01
76.13
87.31
101.13
114.34
123.69
126.81
122.61
111.24
93.65
71.01
44.43
14.78
-17.12
-50.31
-83.37
-114.16
-139.76
-156.75
-161.82
-152.74
-129.28
-93.78
-50.96
-6.93
32.19
61.58
78.55
82.65
75.23
58.83
36.65
12.20
-11.10
-30.46
-44.22
-52.44
-56.88
-60.39
-65.92
-75.32
-88.72
-104.66
-120.93
-135.62
-147.76
-157.36
-164.91
-170.79
-174.97
-177.21
-177.48
-176.30
-174.70
-173.78
-174.12
-175.27
-175.72
-173.49
-166.85
-154.90
-137.82
-116.56
-92.34
-66.33
-39.60
-13.39
10.71
30.92
45.79
54.83
58.76
59.28
58.31
57.18
56.25
55.07
52.98
49.64
45.31
40.59
36.05
31.91
27.98
23.95
19.63
15.18
10.96
7.26
4.03
0.74
-3.58
-10.03
-19.33
-31.35
-44.85
-57.55
-66.71
-69.87
-65.80
-54.82
-38.81
-20.44
-2.21
14.17
28.14
39.94
49.97
58.39
64.87
68.83
69.74
67.44
62.26
54.84
46.11
37.23
29.64
24.98
24.70
29.45
38.46
49.50
59.44
65.28
65.14
58.82
47.39
32.41
15.11
-3.87
-24.09
-44.55
-63.30
-77.63
-84.96
-83.85
-74.58
-59.10
-40.33
-21.20
-3.94
10.17
20.64
27.36
30.32
29.61
25.51
18.70
10.27
1.56
-6.19
-12.19
-16.33
-19.05
-21.15
-23.30
-25.85
-28.63
-31.15
-32.89
-33.66
-33.78
-34.15
-35.89
-39.99
-46.87
-56.10
-66.34
-75.52
-81.31
-81.76
-75.90
-64.03
-47.56
-28.59
-9.27
8.59
23.81
35.78
44.26
49.03
50.00
47.39
41.86
34.48
26.49
18.98
12.57
7.33
2.26
-3.79
-11.46
-20.53
-30.00
-38.55
-45.17
-49.58
-52.27
-55.65
-62.26
-73.66
-89.62
-107.99
-125.54
-138.92
-145.79
-145.14
-139.80
-133.60
-129.98
-130.74
-135.82
-144.09
-153.85
-163.17
-169.33
-172.11
-171.44
-167.73
-162.21
-157.26
-156.36
-162.68
-177.63
-184.54
-169.68
-126.23
-59.63
15.91
85.91
141.45
179.83
199.90
206.02
198.28
175.98
140.26
96.20
52.47
18.60
4.83
16.14
51.74
103.33
160.94
216.85
267.99
315.09
359.64
401.07
435.69
458.96
466.33
457.00
434.51
405.17
375.51
349.85
329.49
312.85
297.74
281.42
262.27
239.96
215.01
188.02
159.14
127.98
94.24
59.22
25.94
-1.17
-17.89
-21.98
-14.18
2.17
22.40
41.87
56.86
64.50
62.49
49.25
24.39
-10.51
-51.86
-94.93
-135.22
-169.75
-197.50
-219.06
-235.66
-248.34
-257.12
-260.80
-257.32
-244.57
-221.81
-190.80
-155.80
-122.66
-96.98
-82.35
-79.58
-87.14
-102.39
-122.87
-146.82
-172.85
-199.31
-223.73
-243.08
-254.51
-256.30
-248.35
-232.23
-210.41
-185.38
-158.88
-131.70
-103.85
-75.16
-45.80
-16.71
10.52
34.06
52.40
64.80
71.47
73.34
71.67
67.56
61.79
54.85
47.15
39.28
31.92
25.67
20.76
16.89
13.38
9.41
4.37
-2.05
-9.92
-19.07
-29.10
-39.20
-48.09
-54.19
-55.99
-52.55
-43.82
-30.54
-13.83
5.16
25.42
45.96
65.54
82.66
95.79
103.85
106.51
104.30
98.29
89.74
79.80
69.35
59.00
49.08
39.73
30.88
22.37
13.94
5.37
-3.59
-13.21
-23.87
-35.99
-49.86
-65.57
-82.73
-100.34
-116.78
-130.00
-137.96
-139.23
-133.51
-121.65
-105.40
-86.60
-66.53
-45.61
-23.65
-0.59
23.00
45.61
65.07
79.12
86.04
84.96
76.01
60.22
39.39
16.02
-7.03
-26.91
-41.35
-49.18
-50.62
-47.25
-41.54
-36.21
-33.62
-35.34
-42.04
-53.50
-68.78
-86.39
-104.33
-120.12
-131.12
-134.78
-129.20
-113.43
-87.75
-53.47
-12.63
32.57
79.95
127.42
172.76
213.50
247.00
270.99
284.17
286.83
280.92
269.44
255.50
241.21
226.99
211.73
193.56
171.01
143.92
113.66
82.68
53.69
28.79
9.08
-5.35
-15.14
-21.38
-25.49
-29.13
-33.92
-41.03
-50.58
-61.35
-70.96
-76.43
-75.27
-66.24
-49.81
-27.90
-3.24
21.49
44.35
64.45
81.89
97.34
111.54
124.95
137.60
149.10
158.78
165.70
168.74
166.79
159.17
146.06
128.74
109.28
89.61
70.54
51.22
29.52
3.21
-28.72
-65.35
-104.14
-141.94
-176.10
-204.92
-227.51
-243.27
-251.51
-251.72
-244.08
-229.81
-211.11
-190.54
-170.37
-152.12
-136.58
-124.00
-114.39
-107.47
-102.63
-98.70
-93.96
-86.45
-74.41
-56.88
-34.14
-7.86
19.20
44.08
64.54
79.95
91.31
100.48
108.88
116.41
121.05
119.49
108.51
86.42
54.14
15.48
-23.46
-55.68
-74.86
-77.11
-61.90
-32.20
6.34
47.00
83.61
111.83
129.39
135.85
131.93
118.92
98.59
73.07
44.91
16.78
-8.92
-30.56
-47.56
-60.31
-69.84
-77.37
-83.92
-89.92
-95.06
-98.29
-98.23
-93.77
-84.70
-72.08
-57.81
-43.80
-31.05
-19.16
-6.83
7.22
23.20
39.85
55.00
66.65
73.89
77.09
77.43
75.91
72.78
67.51
59.38
48.18
34.67
20.52
7.79
-1.70
-6.95
-8.08
-6.10
-2.51
1.27
4.32
6.30
7.27
7.41
6.69
4.83
1.44
-3.81
-11.00
-20.01
-30.51
-42.15
-54.53
-67.16
-79.35
-90.06
-97.90
-101.16
-98.07
-87.18
-67.79
-40.42
-7.06
28.83
62.88
90.53
108.14
113.71
107.42
91.50
69.62
45.93
24.05
6.31
-6.45
-14.65
-19.46
-22.14
-23.69
-24.75
-25.70
-26.93
-28.88
-32.04
-36.70
-42.85
-50.16
-58.06
-65.89
-72.73
-77.28
-77.80
-72.51
-60.26
-41.43
-18.21
5.81
26.78
41.94
50.43
53.30
52.61
50.34
47.62
44.54
40.62
35.35
28.55
20.43
11.30
1.46
-8.92
-19.46
-29.40
-37.34
-41.53
-40.50
-33.78
-22.50
-9.31
2.42
9.90
11.96
9.53
5.02
1.12
-0.39
0.74
3.43
6.14
7.79
8.19
7.98
8.03
8.95
10.74
12.82
14.35
14.50
12.76
9.01
3.59
-2.86
-9.47
-15.35
-19.81
-22.48
-23.48
-23.50
-23.68
-25.50
-30.33
-39.07
-51.61
-66.57
-81.28
-92.29
-96.22
-90.72
-75.21
-51.00
-20.95
11.34
42.35
69.16
89.76
103.01
108.62
107.17
100.11
89.66
78.34
68.45
61.49
57.91
57.26
58.58
60.87
63.30
65.37
66.83
67.57
67.49
66.43
63.98
59.49
52.16
41.35
26.94
9.52
-9.75
-29.60
-49.10
-68.07
-86.91
-106.29
-126.64
-147.79
-169.01
-189.22
-207.32
-222.56
-234.62
-243.62
-249.89
-253.81
-255.64
-255.41
-252.87
-247.54
-238.82
-226.11
-209.09
-187.79
-162.80
-135.08
-105.84
-76.21
-47.11
-19.23
6.79
30.31
50.70
67.52
80.73
90.79
98.61
105.30
111.95
119.53
128.71
139.72
152.06
164.36
174.47
179.98
178.93
170.50
155.28
134.99
111.87
88.10
65.40
44.94
27.51
13.58
3.29
-3.66
-8.03
-10.85
-13.15
-15.67
-18.80
-22.69
-27.46
-33.18
-39.81
-46.83
-53.15
-57.18
-57.24
-52.23
-42.03
-27.58
-10.54
7.26
24.29
39.55
52.45
62.60
69.71
73.59
74.34
72.36
68.20
62.23
54.46
44.62
32.70
19.38
6.34
-4.07
-9.60
-9.03
-2.76
7.06
17.25
24.56
26.71
23.13
15.07
5.07
-3.91
-9.51
-10.60
-7.50
-1.52
5.67
12.62
18.45
22.71
25.18
25.67
24.04
20.27
14.63
7.60
-0.24
-8.38
-16.42
-24.04
-30.89
-36.52
-40.45
-42.26
-41.82
-39.37
-35.58
-31.42
-28.05
-26.46
-27.21
-30.13
-34.16
-37.53
-38.27
-34.84
-26.77
-15.02
-1.72
10.44
19.15
23.16
22.56
18.46
12.36
5.52
-1.28
-7.50
-12.58
-15.60
-15.58
-11.90
-4.79
4.58
14.39
22.77
28.38
30.56
29.21
24.51
16.73
6.16
-6.78
-21.47
-37.02
-52.22
-65.53
-75.03
-78.76
-75.29
-64.32
-47.24
-26.95
-7.18
8.55
17.92
20.22
16.21
7.50
-4.12
-17.07
-30.11
-42.21
-52.50
-60.20
-64.76
-65.95
-63.89
-58.90
-51.33
-41.44
-29.33
-15.12
0.94
18.27
35.98
52.95
68.00
80.11
88.63
93.50
95.38
95.64
96.13
98.65
104.35
113.39
124.79
136.86
147.70
155.72
159.87
159.62
154.77
145.27
131.30
113.28
92.02
68.63
44.26
19.93
-3.66
-26.10
-47.18
-66.73
-84.51
-100.25
-113.72
-124.85
-133.81
-141.03
-147.13
-152.79
-158.67
-165.24
-172.58
-180.15
-186.67
-190.26
-188.84
-180.70
-165.13
-142.65
-114.80
-83.55
-50.61
-16.98
17.00
51.11
84.67
116.26
143.94
165.80
180.56
187.81
187.86
181.32
168.87
151.21
129.30
104.63
79.13
54.88
33.59
16.15
2.56
-7.96
-16.62
-24.59
-32.60
-40.43
-46.91
-50.07
-47.89
-38.96
-23.06
-1.28
24.33
51.14
76.42
97.58
112.46
119.62
118.72
110.80
98.19
84.01
71.39
62.64
58.80
59.55
63.69
69.69
76.13
81.98
86.60
89.53
90.43
89.04
85.36
79.77
72.99
65.83
58.77
51.71
43.99
34.77
23.70
11.33
-0.72
-10.20
-15.01
-13.98
-7.46
2.80
14.06
23.65
29.75
31.89
30.84
27.93
24.39
20.78
17.02
12.79
7.96
2.91
-1.66
-5.01
-6.76
-6.89
-5.58
-3.00
0.78
5.71
11.63
18.36
25.84
34.39
44.49
56.26
69.00
80.85
89.21
91.68
87.03
75.80
60.13
42.90
26.87
13.88
4.77
-0.54
-2.77
-2.98
-2.21
-1.17
0.13
2.40
6.72
13.98
24.25
36.71
49.96
62.81
74.84
86.31
97.63
108.61
118.10
124.38
126.00
122.49
114.58
103.57
90.33
74.55
54.68
28.66
-4.83
-45.46
-90.95
-137.71
-182.03
-221.12
-253.46
-278.46
-295.58
-303.72
-301.18
-286.43
-259.19
-221.19
-176.19
-128.93
-83.93
-44.29
-11.28
15.26
36.19
52.33
64.11
71.68
75.24
75.24
72.41
67.62
61.63
55.14
48.83
43.36
39.44
37.54
37.69
39.34
41.45
42.71
41.86
37.89
30.10
18.20
2.33
-16.90
-38.38
-60.64
-82.12
-101.49
-117.83
-130.63
-139.50
-143.84
-142.77
-135.24
-120.57
-98.86
-71.33
-40.16
-8.08
22.31
49.06
71.05
87.99
100.04
107.59
111.05
110.88
107.62
102.04
94.96
87.19
79.41
72.10
65.55
59.98
55.46
51.80
48.45
44.50
38.81
30.35
18.44
2.99
-15.52
-36.10
-57.49
-78.40
-97.81
-115.18
-130.54
-144.45
-157.41
-169.42
-179.50
-185.81
-186.24
-179.39
-165.29
-145.56
-122.94
-100.24
-79.50
-61.50
-46.07
-32.55
-20.41
-9.32
1.02
11.13
21.76
33.57
46.79
60.95
75.06
87.89
98.35
105.66
109.39
109.31
105.43
98.05
87.90
76.08
63.92
52.69
43.36
36.41
31.77
28.89
26.83
24.47
20.72
14.81
6.56
-3.53
-14.29
-24.10
-31.28
-34.49
-33.16
-27.61
-18.98
-8.89
0.98
9.25
14.98
17.86
18.22
17.03
15.74
15.84
18.29
23.09
29.24
35.31
40.26
44.10
47.84
52.92
60.13
68.98
77.71
84.05
86.23
83.67
77.02
67.56
56.49
44.45
31.61
18.09
4.39
-8.52
-19.61
-28.35
-35.12
-41.03
-47.39
-54.84
-62.98
-70.37
-75.18
-76.05
-72.70
-66.12
-58.18
-50.95
-46.10
-44.55
-46.36
-50.90
-57.08
-63.53
-68.79
-71.52
-70.73
-65.99
-57.49
-46.09
-33.05
-19.75
-7.38
3.36
12.25
19.48
25.36
29.99
33.05
33.79
31.29
24.96
15.27
4.05
-5.67
-10.66
-8.84
-0.22
12.94
27.30
40.04
50.28
59.27
69.43
82.60
98.73
115.60
129.82
138.34
139.70
134.26
123.56
109.30
92.58
73.86
53.43
32.06
11.25
-6.97
-20.66
-28.71
-31.22
-29.47
-25.44
-21.20
-18.33
-17.70
-19.45
-23.31
-28.94
-36.33
-45.93
-58.53
-74.88
-95.09
-118.22
-142.23
-164.31
-181.56
-191.64
-193.25
-186.23
-171.38
-150.19
-124.82
-98.09
-73.37
-53.79
-41.30
-35.60
-33.99
-32.26
-26.37
-14.22
3.65
24.54
45.08
62.76
76.61
86.89
94.06
97.92
97.53
91.90
80.88
65.63
48.50
32.11
18.55
8.75
2.53
-1.03
-2.89
-3.73
-3.89
-3.54
-2.89
-2.28
-1.92
-1.72
-1.10
0.81
4.74
10.88
18.51
26.16
32.03
34.53
32.83
27.03
18.01
7.15
-4.12
-14.51
-23.10
-29.25
-32.63
-33.22
-31.43
-28.09
-24.36
-21.42
-20.11
-20.76
-23.11
-26.57
-30.43
-34.13
-37.32
-39.85
-41.58
-42.34
-41.84
-39.76
-35.76
-29.77
-22.15
-14.06
-7.35
-4.22
-6.37
-14.03
-25.43
-36.94
-44.13
-43.14
-31.93
-10.71
18.35
51.77
85.17
113.42
131.14
133.90
120.08
92.31
57.50
24.93
2.90
-4.19
2.94
19.44
38.97
56.15
67.91
73.28
72.39
65.62
53.58
37.44
19.25
1.60
-13.19
-23.90
-30.82
-35.52
-40.20
-46.58
-55.09
-64.58
-72.69
-76.73
-74.74
-66.18
-51.95
-33.88
-13.93
6.35
25.92
44.04
59.92
72.57
80.89
84.05
81.82
74.71
63.99
51.40
38.67
27.10
17.29
9.01
1.60
-5.56
-12.57
-18.79
-23.19
-24.89
-23.70
-20.36
-16.22
-12.82
-11.45
-13.03
-18.09
-26.61
-37.65
-48.89
-56.74
-57.47
-48.91
-31.97
-10.62
9.79
25.22
34.93
41.43
48.58
58.97
72.39
86.36
98.10
106.50
112.84
119.68
129.11
141.37
154.75
166.61
174.64
177.55
174.88
166.48
152.16
131.73
105.39
74.19
40.25
6.72
-22.74
-44.87
-57.85
-62.00
-59.84
-55.07
-51.11
-49.76
-50.59
-51.40
-49.51
-43.07
-31.84
-17.24
-1.59
12.78
24.20
31.67
34.92
34.16
30.13
24.08
17.76
13.04
11.49
13.92
20.15
29.00
38.63
47.05
52.41
53.37
49.20
39.85
25.87
8.40
-11.05
-30.91
-49.87
-67.02
-81.86
-93.99
-102.96
-108.10
-108.87
-105.23
-97.88
-87.91
-76.02
-61.66
-42.64
-16.08
20.00
64.42
112.16
155.05
184.36
193.61
180.35
146.75
98.95
46.05
-1.50
-34.19
-46.28
-38.56
-18.84
0.46
7.49
-3.68
-30.29
-62.75
-89.86
-104.49
-106.53
-101.36
-95.70
-93.58
-95.00
-97.69
-100.13
-103.43
-110.63
-124.37
-144.12
-165.44
-181.25
-184.90
-172.87
-145.89
-108.43
-66.63
-26.20
8.98
37.15
58.25
73.33
83.98
92.03
99.15
106.27
113.20
118.69
120.99
118.57
110.88
98.52
83.05
66.50
50.61
36.40
24.03
12.94
2.13
-9.65
-23.71
-41.36
-63.59
-90.71
-121.90
-155.05
-187.02
-214.40
-234.40
-245.57
-247.92
-242.45
-230.57
-213.61
-192.90
-170.10
-147.37
-127.02
-110.91
-99.75
-92.74
-87.93
-82.98
-76.02
-66.18
-53.60
-39.12
-23.79
-8.59
5.66
18.18
28.12
34.74
37.66
37.09
33.82
28.83
22.99
16.70
10.03
3.13
-3.44
-8.58
-10.98
-9.61
-4.17
4.74
16.00
28.30
40.49
51.63
60.99
67.97
72.25
73.93
73.64
72.38
71.27
71.11
72.10
73.79
75.21
75.19
72.77
67.44
59.22
48.61
36.37
23.21
9.67
-3.96
-17.65
-31.59
-46.24
-62.28
-80.38
-100.83
-123.03
-145.26
-164.81
-178.76
-184.81
-182.00
-171.02
-153.76
-132.60
-109.77
-86.86
-64.90
-44.54
-26.36
-11.01
0.82
8.66
12.54
13.17
11.99
10.84
11.49
14.96
21.12
28.76
36.04
41.24
43.47
42.83
40.17
36.44
32.22
27.46
21.74
14.65
6.02
-4.01
-15.16
-26.96
-38.63
-48.82
-55.62
-56.91
-51.08
-37.79
-18.28
4.92
28.97
51.83
72.94
93.24
114.28
137.05
161.12
184.32
203.40
215.16
217.60
210.63
195.83
175.67
152.38
127.35
101.00
73.46
45.23
17.59
-7.60
-28.56
-44.29
-54.99
-61.79
-66.24
-69.62
-72.62
-75.42
-78.08
-80.89
-84.50
-89.57
-96.32
-104.11
-111.38
-116.02
-116.07
-110.45
-99.29
-83.87
-66.01
-47.44
-29.20
-11.64
5.32
21.66
37.01
50.65
61.92
70.62
77.06
81.97
85.87
88.75
89.88
88.13
82.62
73.18
60.66
46.61
32.79
20.63
10.94
3.93
-0.60
-3.04
-3.79
-3.37
-2.50
-2.02
-2.83
-5.57
-10.29
-16.29
-22.21
-26.44
-27.62
-25.21
-19.73
-12.62
-5.72
-0.52
2.33
3.14
2.90
2.61
2.78
3.34
3.87
4.07
4.11
4.57
6.12
9.07
13.12
17.46
21.10
23.33
23.94
23.20
21.64
19.71
17.64
15.39
12.76
9.50
5.41
0.32
-5.81
-12.86
-20.36
-27.39
-32.63
-34.63
-32.28
-25.32
-14.50
-1.44
11.85
23.63
32.74
38.74
41.73
42.00
39.86
35.67
29.85
23.02
15.95
9.48
4.24
0.61
-1.41
-2.10
-1.92
-1.35
-0.82
-0.66
-1.09
-2.28
-4.31
-7.25
-11.15
-15.99
-21.74
-28.30
-35.55
-43.17
-50.62
-57.00
-61.21
-62.07
-58.66
-50.65
-38.36
-22.77
-5.28
12.60
29.40
43.88
55.09
62.39
65.54
64.82
61.04
55.52
49.72
44.89
41.58
39.53
37.73
34.89
29.92
22.40
12.67
1.66
-9.55
-20.12
-29.63
-38.16
-46.01
-53.55
-61.10
-68.88
-77.03
-85.47
-93.63
-100.44
-104.35
-103.65
-97.14
-84.59
-66.96
-46.19
-24.68
-4.60
12.58
26.19
36.36
43.64
48.84
52.80
56.27
59.64
62.93
65.74
67.47
67.57
65.78
62.23
57.33
51.56
45.31
38.76
31.94
24.74
17.07
8.92
0.45
-8.07
-16.32
-23.95
-30.68
-36.09
-39.62
-40.44
-37.67
-30.77
-19.93
-6.26
8.44
22.16
33.38
41.39
46.33
48.73
49.04
47.33
43.22
36.27
26.22
13.29
-1.75
-17.72
-33.27
-47.07
-57.96
-64.97
-67.38
-64.79
-57.28
-45.48
-30.70
-14.77
0.28
12.60
20.89
24.59
23.79
19.00
10.99
0.77
-10.36
-20.74
-28.56
-32.33
-31.31
-25.83
-17.18
-7.10
2.78
11.46
18.58
24.21
28.47
31.27
32.36
31.45
28.56
24.00
18.30
11.95
5.21
-1.87
-9.30
-16.87
-24.04
-30.00
-33.95
-35.42
-34.57
-32.23
-29.68
-28.19
-28.67
-31.35
-35.69
-40.65
-45.06
-48.04
-49.18
-48.47
-46.02
-41.82
-35.65
-27.32
-16.71
-3.95
10.77
27.18
44.84
62.87
79.80
93.81
103.36
107.98
108.61
107.28
106.11
106.30
107.43
107.68
104.70
96.63
82.87
64.18
42.32
19.33
-2.95
-23.25
-40.84
-55.38
-66.80
-75.27
-81.21
-85.26
-88.04
-89.78
-90.11
-87.99
-82.21
-71.97
-57.35
-39.43
-19.91
-0.58
17.08
32.02
43.42
50.61
53.09
50.77
44.28
34.91
24.22
13.61
3.76
-5.50
-15.01
-25.88
-38.92
-54.30
-71.32
-88.64
-104.55
-117.41
-125.94
-129.35
-127.45
-120.61
-109.82
-96.58
-82.63
-69.58
-58.25
-48.39
-38.73
-27.57
-13.64
3.25
22.10
41.13
58.41
72.48
82.60
88.83
91.80
92.63
92.73
93.46
95.71
99.34
103.11
104.95
102.72
95.00
81.70
63.98
43.80
23.30
4.29
-11.89
-24.35
-32.61
-36.66
-37.15
-35.44
-33.39
-32.89
-35.11
-40.03
-46.34
-51.87
-54.42
-52.58
-46.17
-36.25
-24.45
-12.34
-0.81
9.96
20.20
30.09
39.28
46.95
52.06
53.79
51.98
47.27
40.96
34.72
30.08
27.98
28.49
30.84
33.67
35.53
35.42
32.93
28.32
22.25
15.41
8.27
0.94
-6.77
-15.18
-24.36
-33.95
-42.97
-49.98
-53.41
-52.03
-45.36
-33.88
-18.75
-1.48
16.47
33.85
49.52
62.32
71.01
74.39
71.77
63.34
50.25
34.40
17.90
2.44
-11.01
-22.29
-31.65
-39.26
-44.87
-47.76
-47.00
-41.93
-32.59
-19.98
-5.96
6.99
16.31
19.96
16.91
7.56
-6.29
-21.83
-36.00
-46.31
-51.34
-50.93
-45.86
-37.17
-25.87
-12.65
1.83
16.81
31.24
44.01
54.09
60.89
64.35
64.84
63.01
59.54
55.01
49.80
44.11
38.11
31.97
26.00
20.56
16.04
12.59
10.06
8.03
5.89
3.05
-0.97
-6.36
-13.07
-20.69
-28.46
-35.35
-40.13
-41.76
-39.59
-33.56
-24.17
-12.36
0.64
13.58
25.11
34.07
39.53
41.12
39.13
34.59
28.99
23.91
20.60
19.63
20.79
23.11
25.15
25.34
22.43
15.92
6.30
-5.03
-16.17
-25.26
-31.07
-33.29
-32.62
-30.48
-28.51
-28.08
-29.83
-33.48
-37.83
-41.29
-42.40
-40.41
-35.46
-28.47
-20.68
-13.23
-6.93
-2.32
0.14
0.05
-2.85
-8.36
-15.57
-22.98
-28.89
-32.02
-31.97
-29.36
-25.42
-21.47
-18.38
-16.31
-15.00
-14.17
-13.87
-14.55
-16.62
-20.01
-23.74
-26.17
-25.48
-20.37
-10.42
3.86
21.48
41.30
62.37
84.04
105.89
127.86
150.19
173.34
197.59
222.45
246.33
266.70
280.82
286.76
284.29
275.11
262.38
249.63
239.63
233.54
230.74
229.30
226.90
221.77
213.20
201.60
187.92
173.01
157.16
140.07
121.25
100.49
78.10
54.77
31.29
8.31
-13.64
-33.96
-51.82
-66.25
-76.52
-82.56
-85.14
-85.70
-85.87
-87.00
-89.86
-94.72
-101.45
-109.68
-118.82
-128.00
-136.28
-143.08
-148.70
-154.40
-162.07
-173.26
-188.24
-205.51
-222.12
-234.77
-240.96
-239.81
-232.11
-219.84
-205.37
-190.83
-177.72
-166.81
-158.15
-151.13
-144.68
-137.57
-128.87
-118.22
-105.88
-92.38
-78.11
-62.87
-45.90
-26.25
-3.44
21.77
47.23
69.72
86.08
94.58
95.85
92.69
88.79
86.78
86.83
86.70
83.19
74.33
60.96
46.63
35.91
32.12
35.76
44.60
55.19
64.51
71.08
74.62
75.15
72.00
63.81
49.31
28.35
2.45
-25.57
-52.66
-76.61
-96.56
-112.63
-125.19
-134.12
-138.72
-138.11
-131.96
-121.00
-106.95
-92.06
-78.49
-67.74
-60.49
-56.86
-56.57
-59.27
-64.50
-71.82
-80.69
-90.53
-100.74
-110.74
-119.95
-127.89
-134.15
-138.48
-140.86
-141.48
-140.72
-139.15
-137.45
-136.40
-136.70
-138.73
-142.16
-145.64
-146.71
-142.28
-129.55
-106.90
-74.69
-35.16
8.27
52.17
94.08
132.94
168.76
201.92
232.32
259.11
280.76
295.59
302.37
300.67
290.91
274.22
252.12
226.30
198.43
170.09
142.68
117.42
95.18
76.37
60.88
48.12
37.17
27.15
17.47
7.96
-1.05
-8.96
-15.08
-18.87
-20.13
-19.02
-16.06
-12.02
-7.79
-4.22
-2.03
-1.67
-3.33
-6.84
-11.71
-17.08
-21.91
-25.11
-25.84
-23.68
-18.77
-11.73
-3.58
4.56
11.63
16.86
19.90
20.83
20.11
18.40
16.27
14.06
11.74
9.00
5.53
1.18
-3.87
-9.22
-14.42
-19.14
-23.25
-26.85
-30.11
-33.23
-36.27
-39.22
-41.96
-44.36
-46.23
-47.38
-47.64
-46.89
-45.13
-42.41
-38.68
-33.62
-26.57
-16.73
-3.54
12.86
31.37
49.94
66.17
77.95
84.23
85.20
82.05
76.29
69.16
61.30
52.70
43.11
32.39
20.75
8.74
-2.86
-13.41
-22.43
-29.75
-35.46
-39.75
-42.96
-45.43
-47.55
-49.72
-52.37
-55.87
-60.54
-66.56
-73.94
-82.49
-91.80
-101.16
-109.55
-115.68
-118.16
-115.81
-108.01
-94.92
-77.56
-57.54
-36.69
-16.59
1.75
18.00
32.40
45.43
57.53
68.76
78.78
86.92
92.42
94.78
93.88
90.07
83.99
76.34
67.77
58.77
49.81
41.40
34.09
28.29
24.06
20.93
17.99
14.11
8.34
0.17
-10.31
-22.50
-35.38
-47.71
-58.15
-65.42
-68.48
-66.89
-60.93
-51.64
-40.57
-29.34
-19.21
-10.87
-4.40
0.46
4.03
6.54
8.08
8.80
9.03
9.30
10.25
12.36
15.69
19.75
23.63
26.33
27.09
25.59
22.05
17.02
11.13
4.87
-1.45
-7.75
-14.00
-20.25
-26.59
-33.13
-39.92
-46.67
-52.63
-56.47
-56.69
-52.00
-41.97
-27.34
-9.95
7.75
23.43
35.46
43.17
46.77
46.90
44.31
39.59
33.24
25.73
17.72
9.95
3.18
-2.04
-5.51
-7.40
-8.11
-8.16
-8.08
-8.28
-9.14
-10.96
-14.00
-18.49
-24.50
-31.92
-40.45
-49.65
-59.09
-68.33
-76.90
-84.18
-89.27
-91.09
-88.58
-81.11
-68.80
-52.64
-34.26
-15.57
1.74
16.51
28.21
36.78
42.48
45.67
46.78
46.28
44.71
42.62
40.50
38.58
36.82
34.85
32.29
28.85
24.60
19.92
15.37
11.48
8.54
6.58
5.38
4.62
3.95
2.98
1.33
-1.28
-4.82
-8.72
-11.83
-12.70
-10.02
-3.18
7.46
20.57
34.34
46.93
57.00
63.82
67.21
67.33
64.46
58.89
50.97
41.13
29.98
18.23
6.57
-4.52
-14.83
-24.46
-33.71
-42.85
-51.86
-60.45
-68.00
-73.79
-77.22
-77.98
-76.14
-72.23
-67.02
-61.45
-56.27
-51.81
-47.81
-43.54
-37.87
-29.70
-18.30
-3.60
13.61
31.84
49.17
63.79
74.42
80.64
82.81
81.82
78.59
73.79
67.79
60.77
53.07
45.21
37.88
31.65
26.78
23.24
20.74
19.08
18.11
17.77
17.90
18.19
18.12
17.12
14.74
10.72
4.96
-2.52
-11.40
-20.89
-29.56
-35.39
-36.32
-30.98
-19.35
-3.01
15.34
32.71
46.77
56.33
61.43
62.73
61.01
56.67
49.77
40.26
28.26
14.26
-1.04
-16.92
-32.94
-48.98
-65.04
-80.93
-96.03
-109.27
-119.46
-125.74
-127.98
-126.86
-123.56
-119.33
-115.12
-111.43
-108.47
-106.28
-104.80
-103.63
-101.86
-98.13
-91.00
-79.61
-64.14
-45.86
-26.67
-8.34
8.08
22.44
35.17
46.82
57.61
67.41
75.97
83.24
89.54
95.48
101.61
108.09
114.42
119.68
122.79
123.06
120.40
115.34
108.72
101.19
92.92
83.60
72.63
59.51
44.09
26.57
7.47
-12.48
-32.32
-50.71
-65.99
-76.37
-80.41
-77.46
-67.91
-53.12
-35.03
-15.65
3.25
20.32
34.57
45.26
51.97
54.68
53.85
50.53
46.13
42.18
39.89
39.89
42.04
45.52
49.07
51.38
51.39
48.48
42.53
33.85
23.08
11.10
-0.99
-12.06
-21.14
-27.60
-31.36
-32.79
-32.55
-31.21
-29.05
-25.92
-21.47
-15.42
-7.90
0.45
8.48
14.94
18.80
19.57
17.34
12.77
6.84
0.59
-5.12
-9.69
-12.82
-14.38
-14.29
-12.58
-9.47
-5.53
-1.60
1.41
2.96
3.11
2.56
2.27
3.04
5.26
8.96
14.00
20.22
27.23
34.04
38.97
39.99
35.71
26.35
14.10
2.60
-4.39
-4.56
2.12
13.49
26.30
37.37
44.61
47.24
45.46
39.95
31.43
20.61
8.29
-4.54
-16.66
-26.96
-34.65
-39.55
-41.97
-42.54
-41.91
-40.46
-38.35
-35.60
-32.34
-28.91
-25.82
-23.61
-22.62
-22.91
-24.22
-26.13
-28.15
-29.93
-31.26
-32.08
-32.37
-32.08
-31.03
-29.00
-25.85
-21.71
-17.03
-12.53
-9.05
-7.20
-7.16
-8.60
-10.93
-13.56
-16.21
-18.92
-21.81
-24.75
-27.12
-28.00
-26.50
-22.31
-15.96
-8.71
-2.11
2.49
4.29
3.09
-0.82
-6.93
-14.45
-22.35
-29.34
-34.14
-35.91
-34.60
-31.06
-26.61
-22.39
-18.74
-14.98
-9.87
-2.26
8.12
20.41
32.93
43.89
52.07
57.21
59.87
60.96
61.25
61.15
60.71
59.78
58.13
55.52
51.61
46.08
38.87
30.48
22.08
15.32
11.82
12.51
17.26
24.93
33.76
41.95
48.06
51.17
50.77
46.58
38.38
26.13
10.14
-8.68
-28.80
-48.15
-64.50
-75.96
-81.41
-80.73
-74.75
-64.92
-52.81
-39.76
-26.73
-14.35
-3.07
6.66
14.45
19.99
23.23
24.41
24.03
22.76
21.28
20.09
19.50
19.48
19.79
19.98
19.58
18.20
15.56
11.71
7.14
2.89
0.46
1.33
6.29
14.80
24.98
34.06
39.46
39.69
34.89
26.59
16.97
8.05
1.14
-3.13
-4.64
-3.58
-0.43
3.94
8.23
10.99
11.06
8.00
2.21
-5.19
-12.82
-19.45
-24.38
-27.43
-28.87
-29.12
-28.58
-27.49
-25.99
-24.15
-22.15
-20.27
-18.87
-18.32
-18.90
-20.73
-23.69
-27.44
-31.39
-34.90
-37.41
-38.67
-38.86
-38.53
-38.29
-38.49
-38.92
-38.80
-37.15
-33.21
-26.94
-19.03
-10.65
-2.94
3.46
8.40
12.07
14.70
16.37
17.03
16.83
16.16
15.77
16.50
19.02
23.61
30.07
37.87
46.27
54.49
61.67
67.06
70.05
70.31
67.89
63.18
56.94
50.05
43.46
37.94
33.94
31.48
30.03
28.55
25.65
19.89
10.08
-4.26
-22.55
-43.05
-63.08
-79.62
-90.17
-93.49
-89.92
-81.24
-69.91
-58.26
-47.73
-38.77
-31.08
-24.17
-17.89
-12.58
-8.92
-7.41
-7.91
-9.62
-11.21
-11.39
-9.35
-4.85
1.93
10.54
20.06
28.67
33.65
32.16
22.56
5.69
-14.83
-33.81
-46.63
-51.22
-48.75
-42.56
-36.08
-31.11
-27.24
-22.80
-16.42
-8.07
0.94
8.92
14.93
19.29
23.24
28.12
34.43
41.35
47.16
49.99
48.78
43.72
36.20
28.12
21.07
15.79
11.98
8.73
5.08
0.63
-4.26
-8.57
-11.16
-11.27
-8.91
-4.92
-0.62
2.61
3.80
2.69
-0.19
-3.46
-5.06
-2.59
6.03
21.82
44.05
70.09
95.90
117.12
130.37
134.01
128.39
115.17
96.60
74.80
51.56
28.51
7.28
-10.50
-23.58
-31.55
-35.01
-35.33
-34.16
-32.72
-31.40
-29.86
-27.36
-23.33
-17.75
-11.20
-4.72
0.55
3.69
4.19
1.94
-2.88
-9.93
-18.84
-29.24
-40.83
-53.13
-65.35
-76.07
-83.35
-85.12
-79.87
-67.42
-49.27
-28.25
-7.74
9.40
21.48
27.99
29.19
25.46
17.11
4.64
-10.89
-27.65
-43.42
-56.22
-65.02
-69.88
-71.55
-70.92
-68.44
-64.12
-57.78
-49.55
-40.12
-30.71
-22.75
-17.52
-15.81
-17.69
-22.48
-28.74
-34.56
-37.99
-37.58
-32.77
-24.04
-12.66
-0.17
12.04
23.02
32.19
39.25
43.96
46.21
46.10
44.04
40.62
36.39
31.66
26.25
19.70
11.46
1.23
-10.75
-23.72
-36.54
-47.94
-56.83
-62.36
-64.08
-61.96
-56.45
-48.58
-39.87
-31.98
-26.21
-22.98
-21.63
-20.65
-18.30
-13.36
-5.56
4.31
14.75
24.07
30.77
33.74
32.28
26.10
15.31
0.36
-17.88
-38.33
-59.79
-81.13
-101.39
-119.86
-136.00
-149.35
-159.48
-165.98
-168.58
-167.28
-162.46
-154.92
-145.72
-135.80
-125.63
-114.90
-102.61
-87.43
-68.37
-45.31
-19.28
7.86
33.91
57.05
76.22
91.19
102.14
109.36
112.89
112.63
108.53
100.92
90.67
79.08
67.65
57.74
50.28
45.64
43.57
43.40
44.33
45.72
47.28
49.10
51.56
55.11
60.06
66.50
74.18
82.67
91.45
100.10
108.41
116.39
124.02
131.13
137.11
141.05
141.97
139.37
133.54
125.71
117.74
111.56
108.55
109.07
112.38
116.82
120.21
120.53
116.45
107.70
95.16
80.46
65.32
50.91
37.57
24.88
12.12
-1.34
-15.80
-31.24
-47.26
-62.93
-76.60
-85.89
-88.39
-82.45
-68.12
-47.32
-23.35
0.22
20.59
36.14
46.32
51.06
50.57
45.20
35.82
23.78
10.70
-2.04
-13.73
-24.30
-34.00
-42.80
-50.28
-55.74
-58.67
-59.18
-58.07
-56.55
-55.67
-55.96
-57.22
-58.79
-59.93
-60.26
-59.91
-59.40
-59.42
-60.38
-62.18
-64.12
-64.98
-63.34
-57.87
-47.78
-32.95
-14.06
7.63
30.52
53.04
73.90
92.12
107.02
118.08
124.84
126.94
124.34
117.41
107.10
94.80
82.11
70.31
59.93
50.51
40.66
28.58
12.84
-7.01
-30.13
-54.68
-78.56
-100.13
-118.64
-134.14
-147.07
-157.81
-166.43
-172.93
-177.37
-179.98
-180.80
-179.42
-174.75
-165.40
-150.23
-128.87
-101.78
-70.01
-34.77
2.83
41.59
80.10
116.62
149.26
176.30
196.48
208.91
213.03
208.63
196.10
176.94
153.90
130.52
110.18
94.96
85.07
78.94
74.34
69.39
63.36
56.64
50.14
44.45
39.43
34.32
28.22
20.58
11.35
0.79
-10.80
-23.08
-35.29
-45.78
-52.00
-51.25
-41.97
-24.98
-3.67
16.87
31.67
37.49
33.67
21.67
3.97
-17.07
-39.62
-62.21
-83.21
-100.68
-112.79
-118.54
-118.34
-113.97
-107.91
-102.27
-97.95
-94.31
-89.41
-80.70
-65.83
-43.31
-12.80
24.67
66.72
109.77
149.20
179.95
197.36
198.45
183.08
154.59
119.28
84.65
57.03
39.63
31.95
30.85
32.69
35.08
37.50
40.48
44.15
47.31
47.70
43.16
32.91
18.10
1.19
-15.28
-29.73
-41.71
-51.29
-58.41
-62.40
-62.24
-57.10
-46.70
-31.42
-12.15
9.88
33.23
56.38
77.95
96.92
112.75
125.19
133.74
137.31
134.36
123.84
106.39
85.08
64.76
50.29
44.29
45.81
50.76
53.76
50.52
39.27
20.82
-2.66
-28.81
-55.71
-81.66
-104.79
-122.78
-133.59
-136.45
-132.45
-124.53
-116.39
-111.05
-109.61
-110.73
-111.23
-107.52
-97.37
-81.22
-62.45
-46.13
-36.94
-36.91
-44.37
-54.60
-61.83
-61.72
-52.91
-37.01
-17.24
3.32
22.99
41.52
59.22
75.83
89.79
98.42
98.92
89.61
71.01
45.99
19.04
-5.28
-23.82
-35.72
-42.38
-46.27
-49.66
-53.59
-57.77
-61.19
-62.92
-62.59
-60.44
-57.00
-52.69
-47.86
-42.85
-38.21
-34.74
-33.29
-34.44
-38.25
-44.20
-51.32
-58.46
-64.56
-68.89
-71.11
-71.16
-69.14
-65.25
-59.79
-53.35
-46.92
-41.74
-38.97
-39.27
-42.51
-47.83
-53.95
-59.61
-63.94
-66.61
-67.70
-67.54
-66.50
-64.93
-63.19
-61.64
-60.57
-60.18
-60.44
-61.15
-61.99
-62.76
-63.46
-64.27
-65.44
-66.92
-68.20
-68.31
-66.10
-60.68
-51.75
-39.82
-26.01
-11.71
1.82
13.69
23.46
30.96
36.17
39.16
40.04
39.10
36.85
33.92
30.88
28.12
25.70
23.33
20.60
17.18
13.03
8.42
3.85
-0.26
-3.69
-6.58
-9.34
-12.51
-16.53
-21.61
-27.60
-33.88
-39.40
-42.82
-42.89
-38.85
-30.75
-19.61
-7.11
4.94
15.16
22.88
28.20
31.62
33.68
34.70
34.78
33.94
32.32
30.29
28.29
26.61
25.30
24.06
22.44
20.05
16.81
12.99
9.06
5.49
2.54
0.16
-2.00
-4.43
-7.62
-11.98
-17.76
-24.91
-33.02
-41.13
-47.87
-51.71
-51.50
-46.79
-38.10
-26.69
-14.17
-1.93
9.17
18.88
27.27
34.47
40.43
44.92
47.66
48.58
47.85
45.90
43.23
40.27
37.18
33.89
30.20
25.94
21.19
16.25
11.58
7.61
4.52
2.20
0.23
-1.92
-4.75
-8.64
-13.80
-20.17
-27.39
-34.69
-40.87
-44.55
-44.53
-40.16
-31.68
-20.14
-7.11
5.84
17.51
27.29
35.09
41.10
45.56
48.58
50.18
50.32
49.03
46.48
42.94
38.82
34.55
30.51
26.96
23.95
21.40
19.07
16.70
14.14
11.37
8.49
5.64
2.90
0.23
-2.49
-5.50
-8.99
-13.17
-18.12
-23.70
-29.37
-34.18
-36.88
-36.25
-31.55
-22.81
-10.94
2.53
15.91
27.85
37.65
45.27
51.16
55.83
59.66
62.70
64.78
65.71
65.44
64.24
62.64
61.26
60.61
60.88
61.89
63.24
64.48
65.36
65.96
66.62
67.81
69.84
72.77
76.28
79.89
83.09
85.54
87.15
88.09
88.85
90.39
94.16
101.99
115.58
135.81
162.05
191.96
221.95
248.20
267.75
279.19
282.60
279.00
269.68
255.79
238.42
218.72
198.01
177.26
156.72
135.53
112.10
84.94
53.69
19.73
-13.96
-43.45
-64.97
-75.95
-75.88
-66.78
-53.07
-40.73
-35.73
-42.16
-60.65
-87.99
-118.07
-144.08
-160.97
-166.97
-163.84
-155.50
-146.17
-138.83
-134.57
-133.04
-133.15
-133.78
-133.87
-132.21
-127.29
-117.51
-101.96
-81.11
-57.08
-33.13
-12.68
1.57
8.19
6.89
-1.80
-16.97
-37.59
-62.58
-90.76
-120.80
-151.20
-180.27
-206.23
-227.35
-242.17
-249.81
-250.10
-243.49
-230.85
-213.27
-192.03
-168.70
-145.18
-123.46
-105.12
-90.94
-80.76
-73.89
-69.62
-67.46
-67.18
-68.42
-70.32
-71.49
-70.32
-65.56
-56.64
-43.83
-27.89
-9.88
9.02
27.52
44.17
57.57
66.61
70.81
70.43
66.30
59.59
51.56
43.44
36.45
31.66
29.77
30.83
34.08
38.13
41.43
42.84
42.02
39.50
36.42
33.96
32.91
33.32
34.57
35.53
34.97
31.84
25.61
16.36
4.75
-8.05
-20.53
-31.08
-38.24
-40.87
-38.44
-31.12
-19.79
-5.97
8.56
21.99
32.82
40.12
43.64
43.84
41.82
38.98
36.62
35.49
35.59
36.11
35.88
33.82
29.41
22.89
15.15
7.41
0.72
-4.33
-7.76
-10.09
-12.04
-14.21
-16.70
-18.98
-19.93
-18.22
-12.89
-3.93
7.40
18.61
26.53
28.16
21.66
7.04
-13.56
-36.24
-56.26
-69.18
-72.07
-64.10
-46.68
-22.92
3.34
28.46
49.81
66.08
77.22
83.85
86.60
85.67
80.95
72.59
61.51
49.34
37.71
27.16
16.64
3.82
-13.54
-36.07
-62.03
-87.73
-108.98
-122.84
-128.71
-128.14
-123.94
-118.77
-114.41
-111.55
-110.26
-110.54
-112.67
-117.19
-124.42
-133.99
-144.60
-154.14
-160.37
-161.65
-157.48
-148.51
-136.25
-122.40
-108.42
-95.21
-83.13
-72.15
-62.06
-52.74
-44.20
-36.64
-30.25
-25.05
-20.80
-16.94
-12.83
-7.90
-1.84
5.25
12.87
20.29
26.67
31.26
33.61
33.58
31.42
27.76
23.29
18.64
14.08
9.49
4.50
-0.99
-6.55
-11.02
-12.72
-9.90
-1.23
14.04
35.96
63.70
95.23
127.13
155.06
174.94
184.51
184.56
178.68
171.75
167.70
167.78
170.53
173.07
173.03
169.57
163.27
154.88
144.35
130.68
112.81
90.89
66.77
43.59
24.47
11.31
4.06
0.94
-0.62
-3.15
-8.32
-16.70
-27.85
-40.49
-52.91
-63.29
-70.27
-73.29
-72.80
-69.91
-65.82
-61.13
-55.46
-47.77
-36.95
-22.76
-6.20
10.62
25.25
35.78
41.45
42.70
40.73
36.82
31.91
26.43
20.43
13.84
6.64
-1.00
-8.65
-15.66
-21.16
-24.30
-24.55
-22.04
-17.75
-13.42
-11.03
-12.18
-17.38
-25.76
-35.30
-43.40
-47.82
-47.39
-42.29
-33.84
-23.97
-14.49
-6.62
-0.82
3.17
6.05
8.67
11.80
15.94
21.16
27.01
32.66
37.15
39.87
40.90
41.10
41.80
44.14
48.45
53.91
58.73
60.78
58.42
51.02
39.24
24.60
9.05
-5.70
-18.52
-29.02
-37.37
-44.00
-49.19
-52.88
-54.65
-53.95
-50.59
-44.96
-38.05
-31.11
-25.21
-20.95
-18.33
-17.08
-16.82
-17.22
-17.95
-18.52
-18.37
-17.09
-14.68
-11.58
-8.56
-6.21
-4.64
-3.40
-1.68
1.12
5.03
9.30
12.69
13.95
12.49
8.54
3.20
-2.04
-5.81
-7.25
-6.22
-3.32
0.30
3.05
3.31
-0.07
-7.15
-16.49
-25.21
-29.77
-27.05
-15.59
3.87
28.42
53.70
75.03
88.41
91.31
83.07
65.00
40.01
12.05
-14.64
-36.36
-50.49
-55.82
-52.46
-41.66
-25.61
-7.17
10.41
24.05
31.48
31.83
25.86
15.62
3.71
-7.61
-16.93
-23.70
-27.98
-29.95
-29.82
-27.86
-24.43
-20.09
-15.36
-10.54
-5.72
-0.89
3.80
7.93
10.95
12.40
12.20
10.66
8.34
5.78
3.39
1.36
-0.14
-0.86
-0.33
2.11
7.15
15.17
25.87
38.07
49.84
58.90
63.23
61.66
54.25
42.38
28.50
15.59
6.47
3.08
5.94
14.05
25.15
36.35
44.94
49.17
48.55
43.91
36.82
28.90
21.00
12.90
3.51
-8.50
-23.79
-41.68
-60.12
-76.23
-87.18
-91.14
-87.62
-77.48
-62.49
-44.74
-26.39
-9.37
4.67
14.57
19.81
20.77
18.67
15.41
13.22
14.20
19.87
30.91
47.07
67.25
89.82
113.06
135.67
157.14
177.79
198.36
219.24
239.72
257.74
270.32
274.60
269.05
254.31
233.06
209.27
186.81
168.44
155.27
146.93
142.12
139.17
136.41
132.22
125.03
113.45
96.60
74.49
48.34
20.59
-5.60
-26.98
-40.98
-46.34
-43.36
-33.74
-20.16
-5.54
7.57
17.39
23.11
24.67
22.50
17.23
9.45
-0.17
-10.90
-21.75
-31.64
-39.78
-46.12
-51.64
-58.08
-67.18
-79.72
-94.70
-109.33
-119.67
-122.13
-115.14
-100.28
-82.13
-67.01
-60.64
-65.86
-81.57
-103.30
-125.13
-141.98
-151.41
-153.86
-151.62
-147.43
-143.38
-140.44
-138.46
-136.21
-131.50
-121.72
-104.81
-80.71
-52.26
-24.95
-5.17
2.27
-3.95
-21.38
-45.17
-70.15
-92.85
-112.09
-128.61
-144.17
-160.64
-179.37
-200.44
-222.07
