1603997346.000000, 1603997346.000000, 1603997346.000000
32.000000, 32.000000, 32.000000
-42,-64,16
-45,-68,18
-34,-65,18
-25,-61,25
-21,-61,34
15,-55,48
24,-55,59
-1,-54,44
-20,-43,63
-1,-32,70
-7,-47,73
-13,-43,63
-5,-25,53
10,-19,55
15,-16,57
-1,-13,52
-9,-16,53
-17,-28,61
-3,-37,61
0,-37,57
1,-33,58
1,-32,61
0,-25,62
-3,-21,61
-8,-17,57
-6,-18,61
-4,-20,62
-2,-24,61
-3,-25,61
-8,-25,61
-8,-21,61
-7,-20,61
-7,-20,62
-7,-20,62
-6,-20,60
-7,-19,61
-9,-19,61
-10,-19,62
-10,-19,61
-10,-20,61
-9,-20,62
-7,-20,62
-6,-21,63
-6,-22,63
-6,-24,65
-5,-25,63
-1,-24,67
13,-27,81
15,-32,87
-16,-54,78
-29,-53,73
-47,-37,68
-59,2,71
-31,7,74
-20,15,68
-30,19,52
-27,24,42
-26,26,33
-23,29,29
-28,34,17
-29,40,13
-25,39,18
-20,40,20
-27,35,24
-25,26,36
-22,24,39
-20,22,35
-32,17,40
-39,24,30
-55,23,32
-59,26,30
-59,29,30
-64,32,26
-60,36,18
-64,33,25
-61,31,29
-64,34,12
-60,37,10
-49,41,3
-38,40,6
-36,32,22
-22,15,48
-41,10,45
-28,-2,75
-24,-7,88
-48,-9,82
-50,-15,72
-46,-17,68
-60,-24,66
-59,-24,65
-60,-24,59
-67,-23,56
-67,-21,48
-62,-19,38
-65,-18,37
-57,-19,40
-53,-12,34
-54,-10,26
-51,-9,20
-41,-7,20
-29,-5,14
-37,-1,10
-41,2,11
-42,4,18
-49,5,17
-60,0,20
-57,-4,24
-62,-15,33
-57,-24,33
-61,-25,25
-77,-26,27
-74,-25,33
-62,-24,29
-52,-18,30
-49,-16,29
-47,-16,28
-49,-16,27
-53,-15,23
-55,-11,24
-56,-11,22
-49,-11,26
-53,-12,26
-52,-14,29
-53,-14,28
-51,-12,29
-53,-10,30
-54,-13,31
-52,-12,33
-44,-11,35
-43,-9,35
-39,-7,32
-46,-7,31
-50,-12,32
-54,-14,31
-64,-22,31
-72,-13,28
-79,-16,28
-79,-15,30
-79,-16,27
-77,-8,30
-77,-8,30
-71,-10,29
-58,-14,34
-57,-11,33
-55,-5,29
-54,-3,29
-53,-2,29
-46,0,24
-46,-2,21
-36,-2,24
-34,-3,29
-44,-3,38
-49,-6,45
-47,-6,49
-56,-7,47
-59,-4,52
-74,-14,55
-69,-21,48
-53,-19,54
-60,-16,46
-47,-17,32
-48,-14,32
-44,-14,35
-38,-12,35
-40,-6,24
-36,-3,21
-37,4,17
-40,7,19
-49,12,31
-57,16,37
-52,16,43
-67,14,46
-63,12,52
-64,11,54
-74,4,48
-80,-1,51
-56,-6,46
-55,2,38
-64,-2,30
-65,-2,30
-66,-3,33
-53,2,33
-51,4,29
-44,2,27
-31,3,36
-34,8,32
-40,7,25
-44,5,28
-47,4,35
-45,3,37
-43,3,44
-50,5,49
-60,9,51
-84,-2,46
-79,-5,49
-50,-10,49
-42,-11,55
-48,-11,53
-53,-9,39
-58,-6,33
-49,-5,33
-33,-4,39
-31,-4,37
-35,0,34
-37,1,35
-44,5,34
-36,6,38
-41,9,47
-57,16,40
-56,18,42
-55,14,59
-67,17,60
-79,6,50
-73,6,43
-61,6,41
-58,6,28
-68,3,18
-66,2,15
-58,3,12
-55,4,13
-46,7,22
-43,8,24
-36,8,30
-45,3,33
-48,2,35
-50,3,42
-49,1,47
-59,-3,50
-68,-5,50
-85,-15,53
-61,-17,56
-48,-14,54
-43,-11,44
-40,-10,42
-35,-11,40
-37,-9,36
-37,-7,36
-30,-4,34
-27,-1,35
-23,5,37
-27,8,42
-32,10,41
-40,11,41
-45,9,43
-52,5,48
-43,11,50
-43,7,54
-61,-15,59
-62,-27,63
-47,-25,57
-46,-19,54
-43,-18,53
-39,-17,43
-37,-17,37
-30,-20,30
-26,-22,28
-22,-29,28
-22,-41,27
-17,-46,28
-10,-52,24
-13,-57,22
-17,-74,22
-16,-85,22
-12,-102,23
-15,-109,20
-16,-90,18
-19,-69,18
-28,-78,18
-27,-79,17
-18,-71,7
-15,-71,8
-12,-66,11
-11,-59,12
-11,-44,15
-13,-41,12
-18,-42,12
-19,-42,16
-20,-46,16
-30,-63,18
-25,-75,24
-20,-78,27
-17,-80,26
-20,-101,25
-11,-75,30
-11,-69,20
-15,-75,16
-23,-79,13
-24,-84,10
-18,-90,5
-12,-86,5
-4,-74,8
-2,-64,8
-4,-63,7
-9,-57,4
-10,-54,4
-7,-46,8
-4,-45,10
-4,-47,10
-1,-46,15
-3,-54,14
1,-70,23
-1,-57,28
3,-41,31
-3,-60,23
-1,-68,28
-1,-80,30
-3,-84,24
-4,-82,22
-5,-69,22
-5,-62,22
-6,-54,19
-7,-53,17
-11,-51,19
-15,-54,20
-16,-58,21
-26,-68,31
-24,-73,36
-17,-75,33
-19,-97,34
-17,-79,33
-11,-71,27
-12,-63,23
-15,-68,18
-17,-82,18
-15,-89,17
-12,-92,9
-10,-88,8
-9,-76,6
-10,-69,4
-10,-65,4
-9,-59,2
-10,-56,3
-10,-53,4
-9,-54,5
-7,-61,8
-6,-70,13
-6,-79,13
-4,-68,17
0,-50,26
8,-40,29
9,-57,31
9,-57,31
6,-63,26
5,-65,21
-5,-66,16
-12,-60,18
-14,-61,17
-15,-63,15
-16,-62,17
-22,-63,21
-21,-63,24
-15,-67,29
-13,-68,29
-13,-70,28
-18,-84,25
-21,-94,23
-16,-61,22
-14,-48,17
-16,-60,18
-15,-79,14
-14,-85,8
-10,-86,11
-3,-76,15
-4,-68,14
-4,-56,12
-5,-53,12
-4,-53,15
0,-56,16
2,-55,17
-4,-73,16
-7,-75,20
-6,-73,27
-11,-69,29
-22,-59,31
-34,-56,36
-35,-53,33
-35,-46,24
-35,-44,22
-45,-38,17
-36,-34,16
-39,-35,13
-36,-41,12
-35,-45,10
-40,-52,3
-41,-55,-3
-41,-56,-3
-41,-54,-2
-41,-54,0
-40,-53,-1
-41,-54,-3
-42,-54,-5
-42,-53,-4
-43,-51,-5
-47,-43,-2
-47,-41,0
-51,-43,0
-53,-43,2
-55,-44,1
-51,-47,3
-51,-49,6
-54,-50,-2
-53,-49,-14
-41,-52,-9
-37,-46,-16
-32,-49,-12
-15,-53,-7
-23,-54,-1
-29,-51,2
-29,-49,15
-29,-49,19
-39,-52,18
-45,-50,8
-45,-52,11
-41,-58,16
-37,-61,15
-32,-62,23
-28,-62,24
-22,-64,31
-17,-60,30
-17,-60,28
-17,-59,30
-16,-57,28
-15,-55,25
-14,-53,24
-15,-54,23
-18,-58,22
-18,-59,22
-14,-60,24
-9,-59,25
-7,-58,26
-6,-58,27
-6,-58,27
-7,-60,28
-7,-60,29
-6,-59,30
-5,-59,31
-3,-58,30
-1,-55,28
-2,-54,26
-5,-52,21
-10,-51,17
-11,-52,15
-15,-71,13
-19,-78,15
-19,-61,15
-18,-73,10
-16,-82,8
-13,-86,5
-8,-74,6
-8,-68,6
-11,-59,9
-14,-56,9
-17,-57,7
-18,-60,3
-17,-62,2
-15,-61,4
-13,-60,8
-12,-60,8
-12,-60,7
-12,-59,7
-12,-60,6
-12,-63,2
-14,-66,1
-15,-66,2
-17,-85,-4
-19,-104,-9
-35,-88,-7
-41,-56,9
-28,-49,14
1,-52,24
7,-50,23
-2,-61,26
-12,-63,24
-10,-61,12
-8,-52,13
-13,-54,22
-24,-65,30
-15,-67,30
-5,-62,28
-8,-53,23
-9,-52,20
-21,-56,15
-28,-56,15
-44,-76,12
-63,-91,16
-25,-90,23
12,-78,47
7,-87,46
-7,-98,41
-38,-93,24
-37,-85,20
-5,-80,31
-2,-74,31
-5,-62,27
-4,-60,22
4,-50,8
15,-41,13
21,-33,12
20,-26,19
12,-29,24
-1,-36,23
13,-40,14
19,-44,6
24,-52,-11
20,-55,-18
-4,-66,-12
-34,-70,-18
-41,-73,-19
-54,-83,-11
-51,-101,-5
-48,-128,-5
-57,-125,7
-43,-113,12
13,-92,25
18,-91,27
6,-96,16
-8,-95,10
-35,-81,-2
-52,-62,-13
-57,-53,-14
-64,-47,-12
-67,-48,-10
-71,-59,-6
-60,-72,-1
-48,-80,-2
-32,-84,2
-28,-85,2
-35,-113,-2
-18,-128,-4
-12,-128,-7
-3,-128,-3
3,-128,-1
6,-109,1
-2,-85,0
-6,-75,-1
-10,-59,-4
-12,-52,-4
-14,-45,-1
-10,-39,5
-7,-36,6
-1,-26,10
1,-22,14
4,-26,12
3,-25,11
-2,-35,11
-9,-52,18
-11,-71,19
-22,-128,6
-29,-128,-5
-61,-128,-20
7,-108,2
42,-103,21
38,-85,29
26,-87,27
-21,-87,13
-34,-79,-6
-49,-62,-13
-52,-54,-6
-50,-50,0
-57,-52,9
-57,-59,14
-33,-65,18
-36,-85,18
-29,-93,20
-6,-105,19
-6,-106,14
-11,-88,5
-20,-98,-1
-23,-114,-6
-23,-125,-14
-17,-115,-14
-6,-94,-11
-1,-72,-8
-3,-64,-7
-10,-53,-8
-12,-50,-9
-16,-46,-9
-17,-48,-8
-13,-44,-4
-7,-46,0
-6,-48,2
-6,-53,7
-7,-57,10
-5,-82,7
-8,-84,5
-8,-94,6
-13,-93,11
-14,-87,14
-10,-92,17
-4,-96,6
-7,-96,1
-19,-98,3
-23,-90,10
-18,-65,16
-15,-52,14
-19,-51,13
-24,-54,11
-27,-56,11
-22,-63,13
-10,-64,17
-6,-66,22
4,-73,34
3,-77,33
-17,-69,8
-28,-65,0
-38,-79,-7
-35,-83,-5
-33,-84,-1
-30,-72,3
-28,-75,1
-38,-86,-24
-32,-103,-26
-16,-105,-17
-15,-92,-16
-5,-84,-12
2,-66,5
4,-59,8
-3,-51,6
-13,-41,7
-16,-36,7
-21,-32,3
-23,-37,2
-23,-48,1
-21,-51,6
-20,-53,9
-11,-74,15
-11,-67,21
-2,-60,41
-1,-72,44
-12,-83,31
-39,-86,10
-45,-79,9
-15,-74,17
-9,-67,11
-13,-63,9
-19,-55,7
-20,-53,4
-14,-52,-3
-16,-52,-5
-21,-54,-5
-24,-60,-2
-28,-63,1
-49,-68,6
-68,-73,9
-47,-66,15
-40,-92,7
-38,-89,9
-28,-80,16
-27,-81,16
-32,-66,16
-38,-91,5
-38,-101,2
-28,-114,0
-21,-117,0
-4,-108,5
6,-89,10
6,-81,11
2,-67,8
0,-60,7
-6,-49,5
-11,-41,4
-12,-39,4
-13,-41,6
-11,-41,8
-6,-42,6
-4,-49,5
-6,-44,8
-10,-46,10
-11,-50,8
-20,-82,6
-26,-101,4
-64,-112,1
-1,-80,1
21,-79,6
19,-77,16
18,-79,21
-8,-88,16
-19,-78,-3
-31,-72,-11
-42,-61,-13
-46,-59,-11
-54,-67,0
-53,-71,5
-43,-79,6
-42,-71,8
-39,-73,6
-35,-71,7
-33,-66,9
-28,-73,3
-26,-91,1
-22,-100,2
-9,-109,2
-4,-101,3
1,-91,6
2,-84,3
-1,-79,2
-6,-72,-2
-9,-63,-5
-14,-49,-5
-15,-46,-5
-15,-48,-6
-13,-49,-2
-13,-47,0
-9,-59,1
-11,-59,11
-11,-55,18
-8,-47,21
-5,-45,15
-12,-61,12
-20,-81,15
-36,-106,13
-48,-102,18
-21,-84,23
4,-66,24
-5,-65,22
-7,-63,31
-16,-63,19
-21,-62,15
-27,-59,13
-29,-59,12
-31,-58,13
-31,-67,12
-28,-69,12
-25,-71,8
-29,-86,7
-25,-87,11
-20,-80,12
-22,-67,12
-20,-82,-2
-20,-90,-6
-19,-96,-6
-15,-93,-3
-9,-74,0
-8,-61,2
-8,-58,2
-14,-51,4
-17,-52,5
-20,-50,2
-22,-43,4
-24,-40,6
-24,-35,13
-27,-32,17
-38,-24,25
-45,-19,26
-53,-20,16
-52,-25,5
-49,-27,2
-55,-31,-1
-58,-33,-2
-66,-65,-6
-72,-61,12
-64,-57,20
-41,-72,8
-35,-76,1
-29,-78,-6
-23,-82,-8
-16,-78,-6
-6,-65,0
-4,-61,2
-11,-54,0
-17,-54,-3
-25,-56,-2
-22,-53,3
-19,-49,4
-17,-45,2
-17,-43,1
-19,-40,-3
-23,-42,-9
-27,-43,-9
-37,-48,-3
-34,-54,4
-26,-55,-1
-25,-50,-16
-26,-54,-22
-35,-60,-28
-43,-62,-27
-54,-63,-23
-54,-60,-16
-52,-57,-14
-57,-50,-16
-63,-51,-17
-71,-51,-24
-82,-51,-28
-95,-40,-46
-102,-43,-49
-77,-46,-21
-53,-40,13
-54,-33,12
-63,-21,-2
-67,-14,-9
-68,-13,-9
-35,11,2
-35,31,0
-43,60,-19
-30,71,-1
-34,66,6
-47,80,0
-44,75,9
-26,66,2
-12,58,3
-11,56,8
-11,67,8
-8,73,15
-14,73,22
-15,70,26
-14,68,22
-13,56,24
-19,51,28
-30,39,17
-31,31,17
-18,12,13
-16,-6,1
-5,-19,2
31,-44,-3
56,-47,-6
84,-37,6
96,-22,35
108,-16,49
86,-23,43
24,-38,7
54,13,-16
69,37,-21
21,57,-2
0,62,5
-10,64,5
-47,58,-8
-44,52,-17
-45,28,-47
-70,30,-85
-74,29,-83
-84,-6,-26
-47,-21,1
-18,-51,9
-30,-120,31
-40,-120,35
-56,-127,41
-52,-120,35
-34,-113,17
-32,-125,5
-40,-126,-1
-38,-109,-7
-82,-94,-16
-22,-78,-5
-12,-80,-9
-18,-67,-6
-18,-54,12
-18,-55,11
-19,-59,3
-19,-63,-1
-22,-62,-5
-25,-55,-3
-29,-47,-5
-5,-40,9
-5,-39,9
8,-41,15
1,-50,11
-2,-54,9
-10,-59,4
-8,-60,5
-17,-61,10
-28,-55,16
-30,-51,15
-22,-45,16
-18,-43,18
-16,-44,13
-17,-44,7
-19,-47,6
-21,-56,1
-23,-77,-6
-45,-92,-7
-52,-75,-4
-42,-58,-3
-27,-49,-2
-21,-58,-2
-16,-76,-4
-14,-79,-5
-12,-68,-3
-12,-64,1
-14,-61,0
-18,-59,-1
-19,-58,-3
-16,-57,-3
-14,-56,-1
-16,-56,-1
-17,-57,-2
-19,-58,-3
-25,-63,-3
-28,-65,-2
-32,-73,-1
-31,-83,-2
-29,-81,-1
-18,-72,8
-13,-67,11
-13,-58,10
-16,-53,7
-19,-52,6
-22,-50,3
-24,-53,3
-25,-57,6
-17,-62,13
-15,-62,16
-17,-62,20
-17,-62,20
-19,-66,19
-16,-66,20
-7,-63,22
-5,-60,19
-7,-60,17
-10,-59,14
-12,-59,11
-17,-59,10
-20,-59,10
-20,-59,11
-16,-59,15
-16,-59,15
-19,-60,15
-24,-62,16
-26,-62,16
-23,-61,16
-22,-61,16
-22,-61,14
-23,-61,12
-23,-61,12
-21,-61,12
-21,-61,12
-20,-61,12
-19,-62,14
-18,-61,14
-17,-61,15
-17,-61,16
-14,-61,19
-13,-61,20
-14,-62,18
-15,-61,17
-15,-62,16
-15,-62,16
-15,-64,15
-14,-62,15
-13,-58,15
-14,-58,14
-15,-57,15
-15,-59,15
-14,-62,17
-15,-63,17
-18,-66,18
-16,-65,20
-15,-65,20
-11,-64,19
-11,-64,18
-12,-63,17
-12,-60,15
-13,-59,14
-14,-58,12
-15,-57,11
-17,-59,9
-19,-60,8
-20,-61,8
-21,-59,9
-20,-58,9
-20,-60,10
-20,-63,11
-19,-64,13
-18,-65,14
-16,-65,14
-13,-64,15
-13,-64,15
-15,-65,14
-13,-65,13
-13,-63,14
-11,-62,14
-11,-61,14
-12,-61,13
-13,-68,11
-12,-70,10
-10,-69,9
-10,-69,8
-12,-68,5
-16,-66,3
-17,-65,2
-17,-64,1
-16,-63,0
-16,-63,-2
-17,-64,-3
-19,-64,-4
-21,-64,-5
-22,-64,-5
-24,-63,-5
-26,-64,-4
-26,-62,-3
-25,-63,-2
-24,-62,-1
-22,-61,1
-21,-62,2
-22,-64,1
-25,-68,1
-26,-68,2
-27,-68,3
-28,-67,5
-30,-71,9
-31,-73,16
-28,-66,19
-23,-58,20
-25,-56,20
-36,-63,17
-40,-71,20
-38,-78,21
-20,-74,22
-9,-74,24
-2,-76,25
1,-82,24
3,-94,19
0,-101,11
-2,-100,8
-8,-84,5
-11,-74,5
-14,-48,5
-13,-32,6
-11,-27,7
-9,-21,10
-8,-17,12
-7,-12,14
-16,-16,12
-24,-23,13
-35,-41,17
-32,-52,18
-23,-72,21
-20,-86,30
-22,-85,34
-30,-73,38
-30,-69,35
-27,-102,19
-21,-108,39
-14,-89,36
-8,-65,35
-6,-54,34
-10,-63,22
-13,-69,15
-19,-79,3
-15,-92,2
-17,-92,0
-20,-86,-2
-21,-84,-5
-25,-76,-9
-25,-68,-11
-24,-62,-9
-22,-51,-3
-20,-46,2
-11,-32,11
-4,-26,17
-2,-26,20
2,-29,18
1,-34,15
-2,-53,11
0,-86,6
-15,-105,-2
-34,-102,0
-48,-107,1
-107,-105,2
-2,-71,3
35,-79,17
30,-74,16
10,-67,18
-16,-66,6
-19,-61,-4
-26,-49,-18
-26,-50,-11
-27,-51,-8
-26,-50,-4
-24,-49,-3
-25,-53,3
-27,-59,4
-38,-74,4
-71,-105,8
-84,-117,11
-16,-83,27
-6,-62,38
-13,-38,46
-25,-69,29
-29,-84,16
-27,-108,-4
-18,-109,1
3,-103,19
8,-94,22
7,-89,23
0,-79,14
-3,-73,7
-8,-58,-2
-15,-47,-3
-17,-45,-1
-17,-49,11
-15,-46,15
-3,-59,16
0,-56,19
1,-38,26
-3,-17,20
-4,-18,16
-18,-58,16
-25,-85,14
-38,-111,0
-36,-95,-1
-5,-84,5
16,-75,14
15,-75,17
1,-83,16
-25,-82,-3
-28,-78,-13
-37,-74,-24
-43,-76,-21
-44,-70,-7
-36,-88,-2
-35,-78,4
-32,-80,4
-32,-82,8
-21,-78,25
-11,-75,23
-14,-73,12
28,-71,7
45,-50,12
15,-40,16
13,-53,3
9,-54,-14
17,-56,-15
10,-65,-11
0,-67,-4
2,-67,-2
-3,-67,-5
-10,-73,-12
-15,-75,-10
-5,-80,-13
-4,-95,-21
-11,-60,-4
-8,-50,4
11,-55,5
18,-68,-5
18,-70,-9
10,-68,-3
6,-69,3
7,-64,7
1,-58,4
-2,-57,1
-6,-56,-3
-7,-54,-2
-12,-53,0
-10,-51,7
-10,-54,9
-14,-62,11
-18,-73,11
-24,-89,2
-25,-79,1
-27,-89,2
-26,-82,6
-26,-82,4
-23,-71,1
-25,-72,3
-34,-81,-4
-42,-98,-12
-46,-102,-15
-39,-107,-14
-33,-105,-7
-28,-98,3
-25,-86,11
-27,-78,12
-28,-65,12
-26,-62,12
-5,-46,14
18,-41,17
29,-38,24
33,-24,25
32,-22,27
32,-19,36
22,-13,30
27,-11,28
28,-14,20
22,-18,19
14,-26,28
10,-31,29
0,-39,23
-5,-54,19
-9,-61,13
-17,-70,9
-18,-79,10
-23,-86,5
-24,-98,3
-30,-105,3
-61,-106,-1
-75,-107,-4
-69,-108,-12
0,-94,-4
7,-106,3
1,-78,20
-1,-77,25
-2,-65,27
-8,-53,-10
-23,-63,-26
13,-74,-8
44,-57,1
0,-56,-34
-7,-69,-49
11,-54,-43
26,-63,-10
17,-62,0
6,-54,0
0,-58,-5
-13,-57,-14
-18,-59,-24
-15,-63,-31
-20,-64,-41
-14,-76,-45
-12,-85,-27
-24,-59,-14
-24,-49,-12
13,-52,-6
25,-53,-6
32,-60,-12
38,-73,-5
16,-73,-13
17,-71,0
11,-66,1
-16,-53,-11
-28,-48,-16
-27,-47,-11
-23,-49,-5
-23,-54,-2
-21,-63,10
-20,-69,14
-21,-81,18
-26,-91,12
-31,-95,11
-24,-83,7
-17,-84,4
-14,-72,4
-21,-72,5
-26,-77,5
-37,-87,-1
-40,-91,-11
-38,-86,-21
-32,-81,-21
-24,-70,-15
-19,-64,-8
-20,-63,-7
-17,-55,-3
-22,-51,-3
-14,-50,0
-3,-53,8
1,-51,12
7,-61,9
8,-67,11
1,-61,23
-6,-34,21
-7,-25,15
-23,-45,12
-35,-65,14
-32,-83,9
-20,-93,4
-3,-89,10
-1,-73,18
-3,-66,17
-7,-68,15
-10,-72,15
-23,-71,14
-24,-67,9
-23,-68,3
-24,-70,5
-26,-72,7
-39,-70,9
-64,-68,-3
-88,-79,-10
-75,-77,-5
-53,-80,-4
-30,-69,1
-27,-66,-2
-23,-76,-3
-27,-89,-12
-5,-99,-33
-31,-103,-22
-22,-108,-20
-29,-90,-21
-31,-82,-19
-26,-73,-15
-21,-60,-6
-19,-46,-5
-17,-44,-5
-13,-49,0
-10,-55,2
8,-65,7
15,-74,5
2,-80,-3
-8,-82,-1
-1,-69,2
7,-39,6
5,-27,7
-4,-36,17
-13,-42,23
-17,-44,23
-20,-60,17
-21,-71,16
-16,-94,11
-13,-107,9
-16,-96,10
-6,-80,15
-10,-72,13
-24,-56,0
-26,-47,-4
-23,-44,-10
-17,-61,-16
-17,-69,-19
-23,-81,-15
-27,-87,-15
-30,-102,-11
-14,-81,5
-13,-69,11
-8,-32,0
-11,-17,-7
-42,-30,-20
-66,-46,-19
-83,-94,-20
-50,-128,7
15,-128,23
43,-78,38
30,-99,17
-42,-69,-4
-52,-36,-15
-43,-28,-9
-28,-29,1
-22,-32,2
-19,-39,-6
-11,-54,-6
-14,-79,-7
-3,-105,24
-1,-93,33
18,-92,23
3,-67,51
10,-62,77
5,-56,90
5,-48,87
10,-46,64
9,-49,59
-1,-44,57
-17,-44,51
-22,-45,48
-22,-43,43
-14,-46,38
-8,-39,11
-24,-27,5
-30,-17,8
-61,-20,2
-75,-29,-2
-56,-62,5
-46,-66,-7
-54,-56,-21
-79,-54,-34
-78,-53,-29
-55,-56,-20
-55,-61,-28
-56,-62,-30
-51,-60,-27
-53,-58,-27
-46,-57,-21
-41,-52,-20
-32,-46,-8
-24,-43,21
-19,-43,28
-14,-46,8
-38,-92,19
-56,-57,102
-58,-73,40
-64,-78,21
-82,-74,18
-76,-78,29
-58,-76,44
-63,-74,24
-61,-67,22
-45,-54,29
-38,-47,30
-28,-36,25
-33,-27,14
-25,-26,10
-12,-25,5
-10,-25,5
-27,-40,-3
-44,-47,-14
-61,-54,-27
-55,-62,-6
-61,-67,3
-76,-64,1
-75,-55,-1
-70,-35,-11
-74,-29,-8
-72,-30,-5
-65,-26,0
-62,-27,3
-59,-29,6
-63,-34,7
-67,-37,11
-62,-36,14
-58,-38,17
-58,-39,20
-61,-38,19
-57,-32,14
-46,-26,14
-41,-22,14
-27,-14,12
-25,-13,11
-21,-21,11
-21,-33,16
-33,-43,25
-42,-69,36
-36,-70,34
-33,-57,39
-36,-46,55
-43,-44,54
-44,-45,41
-50,-46,36
-44,-51,41
-34,-54,40
-30,-53,37
-28,-46,25
-21,-41,21
-4,-38,8
-7,-42,3
-16,-58,-7
-23,-72,-11
-14,-72,-8
1,-80,1
3,-97,5
-2,-128,1
-17,-116,-3
-14,-97,1
-23,-60,14
-24,-42,17
-20,-26,15
-25,-21,6
-28,-24,4
-25,-34,1
-20,-43,-1
-17,-74,-13
-15,-103,-22
-23,-128,-27
-27,-128,-19
-35,-128,-18
-42,-126,-18
-41,-114,-16
-3,-77,10
5,-28,31
-10,-12,24
-34,-17,5
-29,-19,5
-37,-26,17
-39,-48,14
-33,-46,9
-27,-37,1
-26,-37,0
-23,-59,5
-12,-89,4
-8,-76,0
-6,-73,-9
-7,-70,-8
7,-68,10
0,-72,12
-38,-96,-6
-106,-120,-11
-123,-123,10
-128,-111,26
-128,-87,41
-117,-17,52
-59,48,53
-50,48,44
-27,30,31
-16,17,34
6,-2,28
0,-4,14
2,-1,10
-1,-2,5
-6,-4,-2
-11,-23,2
-15,-65,-1
-32,-80,-13
-52,-74,-15
-60,-86,-14
-92,-76,-14
-108,-80,-15
-114,-77,1
-128,-59,-9
-128,-49,3
-128,-10,26
-127,7,41
-107,14,50
-79,10,50
-73,10,48
-88,28,40
-91,16,37
-60,6,23
-19,11,12
3,26,3
34,40,1
25,40,6
17,30,16
14,19,10
11,13,9
-1,-9,13
-15,-19,16
-49,-24,20
-39,-12,42
-12,44,62
13,94,49
21,95,38
44,93,11
58,86,-6
76,67,-40
80,60,-69
89,56,-68
75,49,-57
65,43,-46
47,32,-24
29,17,-8
18,9,-2
5,-9,19
-10,-26,32
-26,-22,37
-22,-1,38
-2,28,25
13,49,15
21,61,9
48,87,4
59,93,-4
80,96,-33
93,91,-50
92,87,-53
76,71,-48
70,67,-45
55,58,-35
40,44,-21
33,39,-14
18,25,-1
13,17,1
5,2,-5
-10,-5,18
-10,-4,28
5,5,42
-4,4,38
-19,6,23
-16,1,27
-1,8,38
1,20,36
4,22,42
-14,8,42
-27,0,47
-26,-14,59
-53,-48,48
-70,-73,47
-35,-106,68
-12,-115,67
8,-123,51
-11,-127,35
-30,-128,31
-65,-106,24
-74,-84,16
-65,-62,9
-53,-59,16
-38,-67,28
-37,-84,37
-38,-98,39
-27,-82,35
-19,-77,28
-11,-73,15
-20,-70,14
-23,-67,10
-31,-76,-10
-26,-106,-16
-27,-104,-20
-22,-81,-25
-21,-73,-23
-18,-60,-16
-16,-54,-13
-14,-48,-9
-10,-47,-5
-11,-45,-2
-11,-45,3
-10,-50,4
-7,-65,5
-9,-69,3
-13,-90,1
-21,-80,14
-24,-75,19
-32,-63,25
-39,-57,31
-24,-52,34
13,-66,25
18,-73,29
-1,-74,27
-8,-75,24
-21,-71,17
-25,-62,9
-19,-61,7
-10,-57,5
-7,-54,5
-8,-48,2
-12,-48,-2
-18,-48,-4
-26,-48,-7
-27,-50,-8
-27,-56,-5
-26,-63,-4
-27,-74,4
-21,-71,10
-17,-80,12
-18,-93,24
-15,-82,29
-15,-70,68
-22,-57,28
-22,-49,14
-32,-57,-6
-29,-66,-12
-24,-93,4
-24,-87,12
-19,-78,14
-9,-59,16
-12,-53,10
-17,-51,-1
-19,-50,-3
-21,-50,-5
-16,-53,1
-15,-56,3
-12,-64,7
-12,-69,5
-13,-85,11
-9,-74,19
-9,-67,21
-20,-42,19
-27,-34,19
-41,-49,17
-34,-68,20
-18,-73,22
6,-83,23
9,-82,22
2,-68,20
-15,-54,11
-23,-50,4
-32,-48,-10
-33,-48,-15
-37,-45,-18
-37,-46,-13
-30,-55,-4
-34,-67,-1
-39,-75,-1
-44,-93,-2
-42,-98,1
-22,-66,12
-9,-44,18
-14,-38,16
-26,-52,16
-37,-82,11
-24,-71,-3
-10,-102,12
4,-97,16
14,-58,26
1,-58,17
-4,-61,6
-18,-56,-2
-24,-55,-2
-22,-54,0
-19,-60,2
-14,-66,7
-11,-64,9
-6,-96,8
-13,-60,18
-15,-44,23
-24,-22,26
-27,-30,23
-26,-52,12
-16,-68,4
-7,-81,5
-3,-85,13
-6,-71,14
-12,-56,14
-20,-48,8
-23,-47,4
-28,-49,-3
-30,-54,-5
-31,-60,-2
-33,-64,2
-40,-70,10
-46,-86,11
-46,-95,13
-27,-74,18
-18,-70,20
-15,-55,21
-25,-53,11
-32,-63,6
-36,-80,0
-28,-85,3
-13,-79,8
-5,-69,13
-6,-67,12
-11,-64,8
-13,-63,5
-16,-60,1
-16,-58,0
-16,-59,2
-13,-67,3
-11,-68,3
-7,-67,3
-7,-74,5
-8,-65,11
-10,-48,14
-13,-37,16
-21,-22,20
-24,-29,19
-32,-65,13
-37,-94,11
-28,-97,13
3,-86,27
9,-73,32
6,-56,27
-10,-51,11
-21,-51,3
-36,-55,-6
-39,-56,-8
-38,-58,-4
-35,-63,7
-36,-64,12
-35,-63,17
-29,-60,16
-29,-80,15
-32,-83,17
-22,-70,18
-12,-73,16
-11,-69,17
-12,-64,14
-17,-70,10
-17,-83,7
-18,-85,10
-13,-80,11
-6,-70,11
-5,-65,11
-5,-59,11
-5,-52,12
-5,-48,12
-5,-49,11
-5,-50,10
-6,-60,7
-8,-78,3
-11,-74,3
-12,-63,4
-12,-61,4
-14,-69,3
-17,-77,2
-23,-91,1
-18,-88,0
-11,-83,1
-5,-76,4
-8,-73,4
-10,-68,1
-11,-63,-3
-13,-61,-6
-15,-61,-9
-16,-61,-10
-19,-58,-10
-22,-54,-5
-22,-54,-3
-21,-56,0
-22,-58,2
-22,-60,4
-21,-61,5
-21,-63,9
-19,-66,15
-18,-66,18
-19,-68,21
-21,-69,21
-26,-73,20
-24,-67,19
-20,-64,20
-18,-59,23
-21,-58,22
-27,-67,18
-29,-80,18
-28,-81,19
-17,-76,22
-12,-73,24
-5,-69,23
-7,-66,17
-9,-65,16
-13,-59,13
-13,-56,13
-13,-55,12
-12,-55,12
-11,-56,11
-10,-57,11
-9,-63,11
-8,-65,8
-8,-72,5
-14,-73,5
-17,-67,12
-16,-54,15
-15,-40,15
-14,-49,13
-19,-62,8
-19,-72,5
-17,-79,7
-8,-79,14
-6,-72,15
-10,-55,15
-12,-51,11
-20,-50,7
-26,-54,4
-28,-56,3
-30,-58,8
-33,-61,11
-41,-73,17
-37,-88,15
-27,-95,16
-13,-71,19
-12,-77,18
-17,-68,16
-19,-65,10
-19,-72,6
-18,-85,6
-19,-89,5
-17,-81,1
-14,-73,0
-14,-68,-1
-15,-62,-3
-15,-58,-4
-15,-52,-3
-14,-47,0
-12,-47,3
-12,-56,6
-12,-62,6
-9,-65,6
-6,-72,6
-7,-63,17
-7,-50,17
-9,-44,17
-19,-41,16
-24,-50,14
-33,-77,11
-34,-84,10
-21,-83,10
1,-82,17
2,-76,21
-4,-63,19
-19,-57,9
-26,-57,5
-36,-60,-1
-37,-60,0
-35,-62,5
-35,-63,9
-40,-65,16
-41,-73,15
-38,-77,12
-33,-91,12
-26,-81,14
-17,-75,12
-18,-68,9
-19,-69,6
-20,-83,4
-18,-94,8
-20,-95,0
-13,-78,-12
-19,-70,-19
-27,-62,-23
-30,-58,-22
-26,-55,-14
-21,-53,-9
-19,-46,3
-12,-42,8
-10,-46,8
-9,-55,14
-9,-57,15
-5,-76,17
-6,-62,25
-6,-59,21
-12,-57,17
-19,-63,19
-28,-81,20
-12,-76,19
-4,-77,13
-2,-78,6
-8,-73,3
-24,-65,-6
-34,-60,-9
-34,-58,-10
-29,-54,-8
-27,-55,-4
-25,-61,0
-28,-65,2
-43,-77,6
-58,-79,14
-43,-76,13
-39,-91,16
-41,-76,18
-27,-65,20
-21,-55,15
-24,-64,9
-29,-76,3
-29,-84,3
-16,-97,5
-8,-88,8
-7,-85,7
-14,-78,0
-17,-76,-4
-19,-71,-7
-17,-64,-6
-15,-60,-5
-12,-56,-1
-12,-59,1
-14,-58,6
-12,-55,13
-6,-60,16
-8,-43,24
-11,-35,31
-9,-15,34
-5,-19,28
-5,-55,12
-25,-96,3
-48,-104,8
-34,-82,14
12,-72,17
20,-64,27
8,-60,26
-7,-61,16
-24,-64,-6
-31,-66,-13
-43,-65,-16
-45,-64,-10
-47,-73,6
-45,-75,19
-33,-75,20
-23,-83,27
-20,-77,29
-12,-73,28
-20,-58,20
-26,-58,15
-32,-70,8
-29,-81,5
-13,-89,12
-6,-81,16
-5,-76,15
-4,-70,10
-7,-68,6
-13,-63,0
-14,-56,3
-12,-52,5
-10,-49,9
-10,-51,10
-10,-55,13
-9,-53,15
-5,-69,13
-6,-55,15
-8,-55,12
-13,-59,10
-17,-61,9
-23,-72,9
-21,-76,9
-14,-76,9
-2,-71,13
-2,-69,16
-7,-65,14
-15,-63,5
-21,-64,0
-31,-64,-3
-34,-66,-3
-35,-67,3
-34,-66,5
-39,-63,8
-51,-75,8
-48,-75,8
-44,-77,4
-45,-77,9
-35,-77,13
-21,-71,15
-22,-67,13
-27,-81,5
-28,-89,4
-17,-107,3
-7,-92,5
-6,-84,6
-9,-72,2
-11,-68,-1
-16,-62,-5
-17,-55,-5
-16,-53,-4
-11,-48,0
-10,-49,2
-9,-52,6
-8,-51,9
-6,-64,7
-10,-50,17
-12,-38,23
-15,-34,24
-15,-49,22
-22,-87,19
-50,-96,19
-10,-78,16
12,-83,9
7,-79,11
-6,-74,21
-24,-69,17
-28,-65,12
-26,-57,4
-27,-57,2
-27,-59,4
-29,-65,9
-32,-69,11
-37,-71,15
-36,-65,12
-54,-86,12
-53,-78,16
-30,-71,17
-20,-60,15
-25,-64,10
-30,-85,8
-28,-90,6
-17,-98,5
-5,-92,8
3,-88,14
0,-75,16
-2,-73,14
-2,-64,10
-7,-58,7
-7,-53,8
-10,-53,10
-10,-57,10
-6,-58,15
-1,-67,13
0,-61,16
-4,-50,18
-6,-48,15
-7,-55,11
-9,-60,10
-14,-78,10
-17,-97,5
-19,-102,-1
-22,-98,1
-13,-93,7
1,-87,9
-3,-86,-2
-11,-84,-10
-18,-78,-22
-20,-74,-24
-21,-65,-22
-19,-60,-17
-18,-59,-15
-8,-57,-18
-8,-56,-22
-22,-65,-23
-21,-63,-30
-25,-61,-43
-36,-65,-42
-36,-68,-38
-32,-69,-24
-29,-70,-16
-28,-69,-4
-25,-70,4
-25,-72,8
-38,-80,14
-41,-82,18
-17,-70,27
-3,-61,26
-6,-63,22
-21,-68,17
-25,-68,15
-25,-67,13
-19,-69,12
-15,-71,13
-18,-72,13
-16,-71,12
-17,-70,8
-16,-69,5
-14,-66,3
-12,-64,0
-12,-65,0
-11,-71,2
-11,-80,-1
-10,-66,4
-11,-59,12
-12,-58,12
-15,-48,18
-16,-46,21
-10,-57,22
-2,-67,19
0,-68,18
2,-66,20
1,-63,22
-4,-55,20
-6,-52,19
-11,-52,14
-17,-56,9
-21,-58,8
-28,-64,7
-33,-68,8
-44,-78,11
-36,-76,15
-24,-76,14
-26,-82,17
-29,-65,18
-32,-70,11
-35,-57,12
-31,-54,11
-21,-65,4
-19,-71,3
-19,-80,4
-16,-83,3
-12,-78,4
-8,-73,3
-9,-71,3
-12,-66,1
-14,-65,0
-16,-60,-1
-15,-56,2
-11,-55,3
-8,-56,6
-7,-66,8
-6,-67,8
-7,-75,5
-11,-68,9
-15,-55,16
-16,-49,17
-22,-47,20
-25,-66,18
-25,-68,17
-3,-70,15
6,-70,15
2,-66,14
-6,-62,15
-13,-61,11
-21,-58,3
-23,-58,2
-25,-59,0
-25,-61,0
-28,-61,5
-45,-69,11
-50,-75,14
-23,-68,13
-23,-81,12
-29,-77,24
-17,-74,29
-15,-65,28
-31,-58,19
-41,-72,11
-52,-90,-3
-56,-98,4
-65,-90,-18
-112,-86,-48
-89,-90,-39
-10,-61,-14
-11,-43,-8
-13,-31,-6
-6,-28,-2
-4,-28,3
-8,-37,10
-10,-41,11
-9,-49,9
1,-60,5
3,-63,7
-4,-59,17
-6,-54,24
-14,-75,23
-34,-115,16
-80,-119,22
14,-70,17
33,-79,16
27,-75,22
-5,-79,22
-20,-80,12
-38,-71,-2
-41,-67,-5
-44,-62,-6
-43,-60,-3
-40,-66,2
-38,-80,8
-29,-77,9
-15,-79,2
-18,-87,-2
-12,-96,-4
-1,-77,-15
53,-63,8
76,-66,1
31,-63,-8
-6,-92,-18
-20,-66,-30
-9,-63,-18
-25,-56,-28
-14,-46,-29
14,-48,-25
31,-47,-22
22,-51,-23
8,-58,-22
-4,-62,-25
9,-72,-22
21,-83,-25
9,-82,-18
6,-66,-13
-5,-52,-8
-2,-36,-3
6,-42,0
24,-53,2
27,-71,10
21,-73,8
-3,-67,-4
-6,-64,-4
-7,-59,1
-11,-58,-2
-15,-58,-4
-18,-59,-4
-23,-59,-4
-14,-57,0
-17,-60,-2
-29,-68,-4
-38,-83,-14
-41,-86,-14
-41,-82,-16
-40,-77,-18
-28,-65,-19
-14,-71,-18
-9,-75,-15
-4,-81,-4
-6,-83,-2
-11,-74,-1
-14,-61,-4
-15,-58,-5
-17,-55,-5
-17,-56,-5
-16,-54,0
-13,-52,4
-11,-56,3
-9,-69,6
-6,-71,5
-5,-90,3
-8,-84,8
-15,-67,20
-18,-30,30
-19,-25,32
-17,-51,26
-10,-61,20
0,-74,11
5,-80,13
5,-73,16
-4,-62,17
-8,-59,16
-17,-60,9
-21,-59,2
-22,-60,-1
-27,-69,-5
-30,-69,-3
-34,-73,3
-44,-88,4
-54,-106,9
-31,-69,17
-19,-64,18
-18,-44,24
-23,-43,23
-39,-65,9
-37,-86,-1
-24,-91,-1
1,-90,5
10,-84,11
8,-71,18
-3,-68,11
-6,-65,6
-15,-59,-3
-18,-56,-6
-20,-54,-5
-16,-68,-1
-14,-70,1
-7,-70,4
-4,-76,5
-2,-74,11
-4,-64,16
-7,-42,23
-12,-27,24
-15,-35,24
-16,-58,19
-16,-67,13
-14,-88,10
-8,-74,18
-2,-65,20
1,-63,21
-1,-61,19
-12,-60,10
-22,-61,-1
-25,-60,-4
-28,-58,0
-28,-58,3
-25,-63,13
-25,-70,18
-28,-86,21
-32,-89,35
-11,-74,33
9,-65,25
8,-55,22
-11,-56,8
-23,-80,10
-33,-91,5
-13,-100,11
-5,-96,13
5,-74,15
2,-68,10
-1,-65,8
-7,-60,5
-8,-59,3
-8,-54,2
-8,-49,3
-7,-49,4
-5,-51,5
-5,-52,5
-3,-76,0
-13,-83,-6
-15,-83,-6
-16,-82,-5
-15,-81,-3
-15,-82,1
-18,-87,0
-22,-93,-5
-19,-87,-6
-14,-80,-5
-10,-70,-2
-13,-68,-2
-17,-62,-6
-19,-57,-10
-19,-56,-12
-19,-59,-12
-19,-60,-11
-19,-59,-8
-20,-57,-7
-19,-56,-6
-20,-59,-4
-21,-61,-2
-23,-66,4
-22,-68,5
-16,-72,7
-10,-75,12
-7,-76,15
-8,-81,18
-10,-79,14
-25,-73,15
-37,-63,19
-33,-57,20
-30,-57,17
-29,-61,15
-28,-66,14
-26,-70,12
-26,-73,11
-28,-80,10
-29,-82,9
-22,-81,6
-15,-76,3
-8,-75,9
-2,-67,13
-2,-62,12
-8,-58,5
-11,-57,3
-14,-55,0
-15,-53,1
-15,-52,2
-13,-55,5
-12,-64,5
-11,-79,5
-9,-96,3
-10,-86,6
-16,-60,14
-18,-46,19
-25,-33,26
-28,-56,21
-30,-65,17
-3,-76,13
12,-75,14
14,-66,14
4,-58,16
-6,-55,14
-22,-52,4
-25,-52,0
-23,-50,-3
-22,-50,-3
-21,-49,-1
-20,-54,3
-22,-61,4
-31,-81,0
-39,-98,1
-52,-90,6
-9,-70,16
0,-55,27
-12,-63,18
-17,-76,9
-20,-81,10
-8,-73,12
-8,-68,11
-10,-60,11
-10,-58,10
-16,-55,4
-19,-55,1
-19,-57,-1
-16,-63,1
-13,-70,3
-7,-79,3
-5,-75,4
-5,-91,0
-11,-66,7
-15,-47,11
-15,-14,15
-18,-26,18
-18,-40,17
-18,-63,10
-17,-77,6
-15,-84,8
-13,-73,13
-7,-56,21
-12,-53,19
-17,-57,17
-29,-62,12
-36,-63,10
-44,-62,12
-45,-64,15
-38,-74,16
-30,-72,17
-33,-79,15
-33,-89,10
-30,-83,9
-25,-68,5
-29,-57,1
-26,-64,4
-36,-80,-13
-29,-81,-10
-27,-92,-11
-11,-81,-4
-6,-74,1
-2,-62,7
-1,-57,8
-8,-51,7
-14,-46,6
-16,-47,5
-11,-56,9
-9,-57,10
-3,-69,7
-3,-76,9
-8,-65,12
-15,-50,16
-17,-43,16
-19,-57,13
-20,-69,10
-14,-84,5
-7,-88,10
-6,-82,12
-7,-71,13
-7,-65,10
-15,-60,3
-24,-63,-4
-28,-63,-6
-36,-63,-7
-39,-64,-5
-52,-71,3
-54,-78,11
-34,-84,20
-36,-81,27
-31,-78,29
-20,-67,28
-21,-55,24
-25,-58,10
-20,-75,-13
-8,-86,-1
-7,-105,1
-1,-101,6
-4,-79,8
-6,-69,0
-9,-66,-5
-18,-62,-11
-20,-59,-12
-18,-56,-9
-13,-60,-1
-10,-65,3
-2,-68,4
-1,-75,3
-7,-73,6
-11,-66,12
-14,-40,23
-11,-18,25
-10,-19,27
-9,-51,25
-6,-69,20
0,-103,9
-8,-96,16
-14,-86,22
-11,-65,25
-1,-59,22
2,-58,13
-6,-63,2
-12,-64,-4
-23,-63,-10
-28,-63,-9
-31,-63,-7
-31,-84,-4
-36,-84,6
-27,-59,14
-9,-52,19
3,-47,22
-8,-59,16
-28,-94,8
-20,-102,9
-13,-99,13
-1,-82,23
-1,-76,20
-3,-72,14
-5,-63,12
-5,-59,12
-4,-53,12
-3,-54,10
1,-60,4
-4,-62,-4
-8,-63,-7
-12,-59,-11
-14,-57,-9
-19,-56,3
-24,-65,7
-29,-75,-3
-34,-83,-12
-39,-79,-14
-38,-63,-20
-41,-74,-18
-39,-66,-6
-28,-51,4
-24,-49,8
-23,-48,8
-25,-48,5
-28,-51,2
-33,-64,0
-36,-69,2
-37,-65,10
-36,-57,16
-35,-50,25
-37,-88,42
-37,-81,33
-24,-63,11
-23,-68,5
-12,-70,16
-8,-73,20
-14,-70,16
-16,-66,11
-18,-65,9
-20,-60,4
-20,-59,2
-18,-58,3
-14,-56,7
-14,-55,8
-11,-55,9
-11,-55,9
-11,-56,10
-11,-59,10
-11,-62,11
-10,-71,10
-10,-79,10
-11,-79,14
-11,-70,19
-11,-67,21
-14,-56,27
-14,-47,27
-11,-42,21
-11,-49,16
-14,-64,11
-15,-69,12
-13,-67,14
-12,-60,14
-12,-55,15
-13,-52,12
-18,-51,9
-21,-53,8
-25,-56,7
-27,-59,10
-35,-64,15
-44,-64,23
-36,-63,24
-17,-84,21
-16,-86,22
-13,-77,25
-16,-74,22
-18,-66,15
-19,-62,10
-25,-64,3
-21,-69,-2
-26,-72,-6
-30,-72,-9
-31,-67,-8
-24,-62,-3
-16,-56,3
-12,-54,6
-11,-50,12
-11,-47,13
-13,-46,13
-14,-49,14
-15,-56,14
-16,-69,14
-18,-88,15
-17,-90,15
-17,-75,15
-22,-72,11
-28,-58,7
-26,-50,7
-11,-45,8
-7,-58,11
-8,-63,10
-16,-74,7
-20,-75,4
-19,-74,-1
-19,-60,-4
-20,-52,-5
-21,-45,-5
-22,-45,-4
-24,-48,-3
-25,-54,0
-28,-56,5
-44,-64,13
-57,-75,19
-47,-88,28
8,-75,35
9,-97,37
-6,-76,30
-6,-78,24
-10,-70,18
-6,-65,21
-9,-55,20
-18,-52,9
-21,-56,2
-27,-66,-3
-29,-76,-6
-22,-93,-15
-21,-85,-13
-19,-78,-11
-11,-64,-8
-12,-60,-6
-28,-52,-19
-50,-53,-27
-34,-61,-16
-8,-67,1
-2,-71,9
12,-80,27
8,-82,26
-4,-85,26
1,-64,46
8,-51,49
22,-32,49
22,-29,45
4,-32,33
-28,-40,31
-33,-46,33
-15,-51,37
-5,-52,39
-3,-53,42
-13,-54,42
-15,-54,45
-24,-64,47
-23,-68,49
-11,-68,47
9,-71,49
15,-68,51
18,-55,54
13,-47,53
-3,-40,48
-13,-37,41
-12,-37,37
-7,-37,29
-3,-39,28
-5,-43,27
-8,-45,24
-11,-47,21
-24,-53,20
-34,-60,22
-41,-70,17
-30,-66,14
-22,-48,11
-23,-59,12
-26,-54,12
-34,-49,14
-35,-53,15
-33,-54,15
-32,-56,13
-29,-63,9
-27,-72,5
-29,-77,3
-36,-81,3
-38,-81,0
-29,-75,-4
-20,-74,-1
-20,-75,1
-26,-75,-2
-29,-75,-4
-32,-75,-2
-27,-73,-7
-24,-73,-8
-22,-65,-6
-20,-63,-6
-18,-61,-7
-15,-53,-12
-14,-48,-15
-15,-45,-16
-12,-46,-19
-12,-71,-26
-27,-104,-29
-33,-96,-23
-13,-72,-6
-1,-65,8
9,-46,90
-36,-64,56
-53,-54,13
-57,-73,-16
-15,-75,1
-22,-72,4
-26,-69,0
-11,-66,-2
2,-64,1
10,-66,4
1,-63,9
-8,-62,7
-20,-64,3
-32,-69,-1
-31,-71,-3
-40,-76,-17
-43,-72,-25
-51,-69,-34
-33,-65,-25
-28,-59,-21
-21,-48,-13
-21,-44,-12
-23,-45,-12
-24,-47,-12
-23,-50,-9
-23,-53,-8
-19,-55,-8
3,-60,3
17,-67,13
-3,-102,-20
5,-86,-10
-4,-89,-4
4,-77,7
3,-75,11
-6,-71,11
-8,-64,14
-8,-61,20
-12,-64,18
-16,-63,16
-27,-60,6
-33,-60,9
-28,-60,8
-23,-54,12
-25,-57,9
-28,-60,4
-30,-63,2
-29,-68,3
-23,-65,6
-23,-64,7
-23,-61,8
-25,-60,9
-27,-58,9
-24,-57,6
-20,-56,7
-22,-61,6
-20,-64,6
-14,-74,2
-8,-79,1
-4,-81,0
-5,-82,-3
-10,-82,-1
-11,-89,1
-8,-95,-1
0,-90,6
-3,-78,15
-4,-65,11
-9,-46,18
-2,-42,19
7,-43,16
-13,-50,-2
-23,-52,-7
-21,-62,-8
-17,-68,-7
-6,-74,-13
-6,-72,-15
-10,-72,-15
-21,-68,-9
-27,-65,-3
-30,-57,6
-18,-54,12
-10,-55,16
0,-66,19
-9,-68,12
-25,-69,6
-27,-66,5
-25,-57,12
-22,-50,20
-25,-49,23
-24,-51,25
-25,-55,23
-29,-64,21
-27,-62,23
-29,-61,20
-30,-55,16
-27,-50,14
-27,-47,11
-28,-53,9
-31,-77,6
-27,-62,4
-25,-65,2
-24,-63,3
-24,-62,2
-26,-64,-1
-27,-67,-1
-26,-67,-1
-22,-67,3
-17,-64,6
-9,-68,12
-4,-62,15
-5,-61,16
-10,-59,13
-12,-58,13
-15,-56,11
-17,-55,9
-20,-57,9
-24,-60,9
-25,-59,11
-29,-59,13
-29,-62,12
-24,-72,14
-24,-98,12
-23,-106,17
-34,-74,21
-37,-68,18
-29,-64,11
-9,-54,12
-9,-55,10
-2,-64,5
-4,-67,4
-10,-70,2
-15,-72,1
-16,-70,5
-19,-49,-6
-16,-43,-8
-18,-36,-6
-24,-36,-7
-32,-40,-7
-39,-43,-16
-38,-46,-16
-81,-70,14
-76,-107,78
-25,-66,27
-28,-57,-16
-23,-44,-20
-24,-49,-17
-30,-54,-19
-38,-57,-25
-46,-62,-24
-47,-60,-20
-38,-55,-16
-32,-52,-11
-26,-50,-5
-23,-57,6
-19,-64,10
-6,-71,15
3,-79,16
17,-77,22
17,-74,23
7,-77,18
-6,-73,13
-12,-68,9
-15,-58,3
-15,-54,0
-12,-62,-3
-15,-67,-3
-18,-68,-1
-17,-68,0
-16,-62,0
-16,-52,-4
-18,-50,-5
-20,-51,-5
-22,-55,-6
-23,-58,-5
-21,-63,-1
-25,-70,4
-28,-74,6
-27,-85,15
-18,-70,21
-7,-80,21
-20,-74,22
-25,-67,22
-17,-61,24
-11,-49,21
-10,-47,15
-16,-60,15
-20,-82,10
-11,-90,7
-6,-87,8
-3,-77,11
-4,-75,11
-9,-74,7
-11,-69,2
-12,-67,1
-12,-59,2
-11,-56,5
-7,-56,10
-1,-57,10
0,-56,10
1,-54,10
0,-66,5
-7,-68,1
-11,-76,-3
-18,-82,-4
-19,-81,-5
-21,-79,-6
-24,-75,-3
-28,-78,-1
-41,-81,-2
-26,-73,-1
-16,-67,2
-14,-54,6
-15,-51,6
-19,-60,0
-19,-69,0
-18,-67,2
-13,-60,12
-12,-56,15
-17,-51,18
-23,-53,19
-28,-57,20
-25,-62,23
-21,-62,26
-11,-63,28
-7,-63,28
-4,-65,21
-13,-75,13
-22,-75,12
-39,-59,12
-41,-53,13
-36,-55,17
-18,-62,18
-10,-65,17
-10,-72,14
-12,-73,14
-17,-71,16
-18,-66,16
-16,-64,16
-12,-66,15
-10,-68,14
-10,-85,15
-8,-64,24
-7,-50,25
-5,-44,20
-4,-45,17
-4,-48,12
-5,-51,9
-6,-54,7
-11,-62,2
-14,-61,2
-21,-57,9
-21,-56,13
-19,-62,20
-8,-65,19
1,-66,16
0,-68,19
-6,-67,23
-15,-65,24
-18,-65,24
-17,-67,27
-12,-68,27
-7,-69,29
-9,-69,18
-15,-67,13
-11,-64,16
-8,-63,17
-9,-63,15
-10,-60,13
-11,-61,12
-13,-60,13
-11,-59,13
-10,-60,13
-9,-61,14
-9,-61,14
-9,-64,15
-8,-61,15
-8,-59,16
-7,-60,16
-8,-61,15
-9,-63,14
-10,-66,16
-11,-67,16
-12,-67,16
-12,-66,16
-9,-63,15
-9,-62,13
-10,-68,9
-13,-74,3
-14,-73,1
-16,-68,-1
-17,-63,-1
-18,-59,0
-20,-59,3
-19,-59,3
-19,-62,2
-18,-62,4
-16,-62,7
-15,-63,12
-15,-62,14
-16,-64,15
-18,-65,14
-22,-65,10
-24,-66,7
-23,-73,5
-18,-75,10
-19,-69,13
-16,-63,14
-13,-58,14
-17,-49,5
-22,-50,5
-23,-48,5
-18,-54,10
-16,-59,14
-10,-64,19
-6,-57,19
-11,-59,15
-16,-60,11
-22,-58,9
-34,-57,4
-38,-59,4
-32,-59,5
-23,-61,10
-19,-63,12
-19,-64,17
-22,-63,18
-31,-61,16
-33,-60,15
-32,-61,14
-26,-60,16
-24,-59,18
-21,-57,16
-32,-83,10
-33,-79,11
-28,-77,5
-24,-75,4
-19,-72,3
-15,-67,2
-14,-62,1
-10,-60,-3
-11,-58,-1
-19,-69,10
-29,-70,17
-38,-71,22
-37,-69,21
-36,-68,13
-35,-67,2
-34,-65,4
-30,-60,13
-28,-53,16
-28,-51,15
-27,-52,17
-25,-51,18
-21,-47,16
-14,-42,18
-5,-38,19
1,-19,18
-7,-19,19
-30,-38,25
-32,-52,19
-22,-58,15
15,-67,18
28,-72,25
40,-71,33
34,-72,26
27,-74,22
29,-75,5
25,-72,-11
6,-69,-34
-10,-69,-36
-46,-76,-29
-58,-64,-24
-58,-60,-20
-51,-55,-10
-46,-56,-9
-36,-63,-5
-27,-73,3
-23,-80,25
15,-71,32
9,-75,29
-13,-66,28
-34,-65,17
-40,-64,11
-42,-59,-1
-44,-65,-6
-60,-74,-6
-61,-75,-2
-53,-69,-2
-36,-80,-5
-32,-90,-7
-21,-103,-8
-16,-108,-5
-7,-106,2
-3,-86,4
-3,-77,5
-7,-65,3
-9,-62,1
-12,-57,1
-13,-51,0
-13,-47,3
-11,-47,8
-10,-49,11
-5,-40,13
-2,-56,8
-6,-54,8
-9,-58,8
-12,-58,8
-17,-59,9
-19,-63,9
-31,-85,6
-46,-94,2
-7,-86,3
9,-96,15
6,-88,20
-4,-67,17
-15,-64,0
-20,-62,-6
-33,-59,-11
-38,-58,-11
-37,-60,0
-32,-64,12
-31,-66,17
-36,-63,21
-44,-69,17
-52,-84,17
-40,-79,17
-25,-81,17
-18,-74,18
-20,-71,14
-17,-81,10
-14,-89,8
-12,-99,7
-8,-94,6
-6,-89,5
-5,-77,2
-6,-71,1
-9,-63,-1
-12,-55,-3
-13,-51,-4
-14,-46,-1
-13,-45,0
-9,-48,5
-7,-52,8
-6,-51,9
-7,-69,11
-8,-71,14
-8,-63,11
-11,-60,9
-25,-58,11
-57,-81,19
-82,-84,16
0,-73,5
9,-89,12
8,-92,30
-6,-82,28
-11,-75,19
-26,-58,5
-33,-52,0
-35,-46,-5
-34,-49,-3
-32,-52,0
-26,-57,7
-24,-58,11
-22,-61,17
-25,-65,20
-24,-65,19
-17,-70,12
-20,-85,11
-17,-77,17
-15,-71,16
-13,-72,16
-12,-63,14
-13,-71,11
-11,-88,7
-9,-94,6
-5,-87,8
-4,-71,9
-4,-65,9
-6,-59,7
-7,-57,7
-6,-53,6
-5,-48,6
-5,-47,6
-7,-52,4
-8,-57,3
-9,-63,0
-8,-71,-2
-10,-76,-6
-15,-73,-4
-16,-79,-4
-20,-89,-5
-23,-90,-7
-31,-87,-6
-17,-78,-5
-10,-74,-4
-15,-68,-5
-18,-65,-6
-23,-59,-10
-24,-53,-10
-24,-53,-9
-20,-57,-4
-20,-60,-1
-18,-66,3
-13,-63,11
-10,-60,12
-7,-56,15
-8,-56,15
-15,-62,13
-18,-65,13
-23,-70,13
-24,-72,15
-24,-72,16
-22,-70,19
-21,-67,20
-21,-65,20
-17,-65,18
-14,-65,16
-12,-66,13
-11,-67,11
-11,-66,10
-16,-66,8
-19,-67,7
-22,-67,5
-21,-65,5
-17,-66,6
-15,-68,7
-12,-66,7
-12,-64,7
-11,-64,7
-11,-62,7
-10,-62,7
-9,-59,8
-10,-59,7
-11,-57,6
-12,-58,6
-13,-58,7
-12,-57,8
-11,-55,9
-11,-59,9
-12,-72,8
-14,-75,8
-18,-97,7
-25,-82,13
-28,-78,17
-21,-64,22
-12,-60,24
2,-53,22
3,-47,19
-2,-57,11
-9,-65,8
-12,-70,8
-13,-72,10
-13,-70,12
-12,-60,16
-10,-55,17
-4,-54,19
1,-47,17
0,-45,15
-2,-43,13
-8,-45,10
-12,-47,10
-23,-56,10
-27,-63,10
-28,-72,8
-29,-98,5
-36,-110,10
-32,-86,22
-8,-79,25
1,-52,31
-2,-45,29
-31,-65,17
-42,-82,8
-31,-86,6
-11,-77,8
-2,-77,12
-1,-72,16
-9,-70,10
-13,-68,5
-28,-67,-5
-32,-68,-7
-39,-72,-3
-32,-74,9
-35,-86,9
-27,-71,18
-25,-80,21
-13,-70,43
-7,-64,51
5,-42,49
9,-23,34
7,-23,33
13,-18,40
12,-15,43
8,-12,45
9,-11,52
14,-11,55
18,-13,59
17,-11,59
16,-6,58
21,0,62
23,3,62
15,5,58
17,5,60
25,3,68
12,-3,63
11,1,64
-6,2,63
-8,-1,62
5,1,60
9,5,53
0,18,54
-20,13,66
-24,7,73
2,-4,77
10,-7,74
2,-6,66
-6,0,52
2,3,64
17,-9,58
12,-1,61
3,6,61
2,4,59
-2,3,61
11,9,81
2,0,76
3,4,69
2,-1,67
5,-6,72
-15,-6,78
-14,-1,77
6,-2,53
15,-2,54
21,-1,60
17,6,69
7,-3,65
-2,-3,68
4,1,66
5,4,56
25,11,63
33,10,59
23,8,55
17,8,52
8,12,54
9,14,62
3,13,64
18,16,73
10,17,77
-1,17,79
3,16,77
2,16,69
12,15,59
9,15,58
-3,16,67
-10,11,65
-8,8,59
3,11,57
11,12,56
19,10,56
