v1	v2	v3	v4	ts
0,000000	0,000000	0,000000	0,000000	2020-10-29T19:52:02:285
0,000000	0,000000	0,000000	0,000000	2020-10-29T19:52:02:286
0,000000	0,000000	0,000000	0,000000	2020-10-29T19:52:02:323
0,000000	0,000000	0,000000	0,000000	2020-10-29T19:52:02:364
0,000000	0,000000	0,000000	0,000000	2020-10-29T19:52:02:404
0,000000	0,000000	0,000000	0,000000	2020-10-29T19:52:02:443
0,000000	0,000000	0,000000	0,000000	2020-10-29T19:52:02:483
0,000000	0,000000	0,000000	0,000000	2020-10-29T19:52:02:523
0,000000	0,000000	0,000000	0,000000	2020-10-29T19:52:02:563
0,000000	0,000000	0,000000	0,000000	2020-10-29T19:52:02:604
0,000000	0,000000	0,000000	0,000000	2020-10-29T19:52:02:644
0,000000	0,000000	0,000000	0,000000	2020-10-29T19:52:02:684
0,000000	0,000000	0,000000	0,000000	2020-10-29T19:52:02:723
0,000000	0,000000	0,000000	0,000000	2020-10-29T19:52:02:764
0,000000	0,000000	0,000000	0,000000	2020-10-29T19:52:02:803
0,000000	0,000000	0,000000	0,000000	2020-10-29T19:52:02:844
0,000000	0,000000	0,000000	0,000000	2020-10-29T19:52:02:884
0,000000	0,000000	0,000000	0,000000	2020-10-29T19:52:02:924
0,000000	0,000000	0,000000	0,000000	2020-10-29T19:52:02:964
0,000000	0,000000	0,000000	0,000000	2020-10-29T19:52:03:004
0,000000	0,000000	0,000000	0,000000	2020-10-29T19:52:03:044
0,000000	0,000000	0,000000	0,000000	2020-10-29T19:52:03:084
0,000000	0,000000	0,000000	0,000000	2020-10-29T19:52:03:124
0,000000	0,000000	0,000000	0,000000	2020-10-29T19:52:03:164
0,000000	0,000000	0,000000	0,000000	2020-10-29T19:52:03:204
0,000000	0,000000	0,000000	0,000000	2020-10-29T19:52:03:244
0,000000	0,000000	0,000000	0,000000	2020-10-29T19:52:03:284
0,000000	0,000000	0,000000	0,000000	2020-10-29T19:52:03:324
0,000000	0,000000	0,000000	0,000000	2020-10-29T19:52:03:365
0,000000	0,000000	0,000000	0,000000	2020-10-29T19:52:03:405
0,000000	0,000000	0,000000	0,000000	2020-10-29T19:52:03:444
0,000000	0,000000	0,000000	0,000000	2020-10-29T19:52:03:485
0,000000	0,000000	0,000000	0,000000	2020-10-29T19:52:03:524
0,000000	0,000000	0,000000	0,000000	2020-10-29T19:52:03:566
0,000000	0,000000	0,000000	0,000000	2020-10-29T19:52:03:769
0,000000	0,000000	0,000000	0,000000	2020-10-29T19:52:03:770
0,000000	0,000000	0,000000	0,000000	2020-10-29T19:52:03:771
0,000000	0,000000	0,000000	0,000000	2020-10-29T19:52:03:774
0,000000	0,000000	0,000000	0,000000	2020-10-29T19:52:03:776
0,000000	0,000000	0,000000	0,000000	2020-10-29T19:52:03:825
0,000000	0,000000	0,000000	0,000000	2020-10-29T19:52:03:847
0,000000	0,000000	0,000000	0,000000	2020-10-29T19:52:03:886
0,000000	0,000000	0,000000	0,000000	2020-10-29T19:52:03:928
0,000000	0,000000	0,000000	0,000000	2020-10-29T19:52:03:967
0,000000	0,000000	0,000000	0,000000	2020-10-29T19:52:04:008
0,000000	0,000000	0,000000	0,000000	2020-10-29T19:52:04:047
0,000000	0,000000	0,000000	0,000000	2020-10-29T19:52:04:088
0,000000	0,000000	0,000000	0,000000	2020-10-29T19:52:04:127
0,000000	0,000000	0,000000	0,000000	2020-10-29T19:52:04:176
0,000000	0,000000	0,000000	0,000000	2020-10-29T19:52:04:210
0,000000	0,000000	0,000000	0,000000	2020-10-29T19:52:04:274
0,000000	0,000000	0,000000	0,000000	2020-10-29T19:52:04:286
0,000000	0,000000	0,000000	0,000000	2020-10-29T19:52:04:327
0,000000	0,000000	0,000000	0,000000	2020-10-29T19:52:04:368
0,000000	0,000000	0,000000	0,000000	2020-10-29T19:52:04:409
0,000000	0,000000	0,000000	0,000000	2020-10-29T19:52:04:448
0,000000	0,000000	0,000000	0,000000	2020-10-29T19:52:04:489
0,000000	0,000000	0,000000	0,000000	2020-10-29T19:52:04:528
0,000000	0,000000	0,000000	0,000000	2020-10-29T19:52:04:572
0,000000	0,000000	0,000000	0,000000	2020-10-29T19:52:17:150
0,000000	0,000000	0,000000	0,000000	2020-10-29T19:52:17:152
0,000000	0,000000	0,000000	0,000000	2020-10-29T19:52:17:176
0,000000	0,000000	0,000000	0,000000	2020-10-29T19:52:17:217
0,000000	0,000000	0,000000	0,000000	2020-10-29T19:52:17:258
0,000000	0,000000	0,000000	0,000000	2020-10-29T19:52:17:298
0,000000	0,000000	0,000000	0,000000	2020-10-29T19:52:17:337
0,000000	0,000000	0,000000	0,000000	2020-10-29T19:52:17:377
0,000000	0,000000	0,000000	0,000000	2020-10-29T19:52:17:417
0,000000	0,000000	0,000000	0,000000	2020-10-29T19:52:17:457
0,000000	0,000000	0,000000	0,000000	2020-10-29T19:52:17:498
0,000000	0,000000	0,000000	0,000000	2020-10-29T19:52:17:536
0,000000	0,000000	0,000000	0,000000	2020-10-29T19:52:17:577
0,000000	0,000000	0,000000	0,000000	2020-10-29T19:52:17:616
0,000000	0,000000	0,000000	0,000000	2020-10-29T19:52:17:657
0,000000	0,000000	0,000000	0,000000	2020-10-29T19:52:17:696
0,000000	0,000000	0,000000	0,000000	2020-10-29T19:52:17:736
0,000000	0,000000	0,000000	0,000000	2020-10-29T19:52:17:776
0,000000	0,000000	0,000000	0,000000	2020-10-29T19:52:17:817
0,000000	0,000000	0,000000	0,000000	2020-10-29T19:52:17:855
0,000000	0,000000	0,000000	0,000000	2020-10-29T19:52:17:897
0,000000	0,000000	0,000000	0,000000	2020-10-29T19:52:17:936
0,000000	0,000000	0,000000	0,000000	2020-10-29T19:52:17:978
0,000000	0,000000	0,000000	0,000000	2020-10-29T19:52:18:015
0,000000	0,000000	0,000000	0,000000	2020-10-29T19:52:18:057
0,000000	0,000000	0,000000	0,000000	2020-10-29T19:52:18:096
0,000000	0,000000	0,000000	0,000000	2020-10-29T19:52:18:137
0,000000	0,000000	0,000000	0,000000	2020-10-29T19:52:18:177
0,000000	0,000000	0,000000	0,000000	2020-10-29T19:52:18:217
0,000000	0,000000	0,000000	0,000000	2020-10-29T19:52:18:256
0,000000	0,000000	0,000000	0,000000	2020-10-29T19:52:18:298
0,000000	0,000000	0,000000	0,000000	2020-10-29T19:52:18:336
0,000000	0,000000	0,000000	0,000000	2020-10-29T19:52:18:378
0,000000	0,000000	0,000000	0,000000	2020-10-29T19:52:18:417
0,000000	0,000000	0,000000	0,000000	2020-10-29T19:52:18:457
0,000000	0,000000	0,000000	0,000000	2020-10-29T19:52:18:497
0,000000	0,000000	0,000000	0,000000	2020-10-29T19:52:18:537
0,000000	0,000000	0,000000	0,000000	2020-10-29T19:52:18:577
0,000000	0,000000	0,000000	0,000000	2020-10-29T19:52:18:617
0,000000	0,000000	0,000000	0,000000	2020-10-29T19:52:18:657
0,000000	0,000000	0,000000	0,000000	2020-10-29T19:52:18:698
0,000000	0,000000	0,000000	0,000000	2020-10-29T19:52:18:737
0,000000	0,000000	0,000000	0,000000	2020-10-29T19:52:18:778
0,000000	0,000000	0,000000	0,000000	2020-10-29T19:52:18:817
0,000000	0,000000	0,000000	0,000000	2020-10-29T19:52:18:857
0,000000	0,000000	0,000000	0,000000	2020-10-29T19:52:18:897
0,000000	0,000000	0,000000	0,000000	2020-10-29T19:52:18:937
0,000000	0,000000	0,000000	0,000000	2020-10-29T19:52:18:977
0,000000	0,000000	0,000000	0,000000	2020-10-29T19:52:19:018
0,000000	0,000000	0,000000	0,000000	2020-10-29T19:52:19:057
0,000000	0,000000	0,000000	0,000000	2020-10-29T19:52:19:098
0,000000	0,000000	0,000000	0,000000	2020-10-29T19:52:19:138
0,000000	0,000000	0,000000	0,000000	2020-10-29T19:52:19:178
0,000000	0,000000	0,000000	0,000000	2020-10-29T19:52:19:217
0,000000	0,000000	0,000000	0,000000	2020-10-29T19:52:19:258
0,000000	0,000000	0,000000	0,000000	2020-10-29T19:52:19:298
0,000000	0,000000	0,000000	0,000000	2020-10-29T19:52:19:338
0,000000	0,000000	0,000000	0,000000	2020-10-29T19:52:19:393
0,000000	0,000000	0,000000	0,000000	2020-10-29T19:52:19:418
0,000000	0,000000	0,000000	0,000000	2020-10-29T19:52:19:457
0,000000	0,000000	0,000000	0,000000	2020-10-29T19:52:19:499
0,000000	0,000000	0,000000	0,000000	2020-10-29T19:52:19:537
0,000000	0,000000	0,000000	0,000000	2020-10-29T19:52:19:579
0,000000	0,000000	0,000000	0,000000	2020-10-29T19:52:19:617
0,000000	0,000000	0,000000	0,000000	2020-10-29T19:52:19:658
0,000000	0,000000	0,000000	0,000000	2020-10-29T19:52:19:698
0,000000	0,000000	0,000000	0,000000	2020-10-29T19:52:19:738
0,000000	0,000000	0,000000	0,000000	2020-10-29T19:52:19:778
0,000000	0,000000	0,000000	0,000000	2020-10-29T19:52:19:818
0,000000	0,000000	0,000000	0,000000	2020-10-29T19:52:19:858
0,000000	0,000000	0,000000	0,000000	2020-10-29T19:52:19:899
0,000000	0,000000	0,000000	0,000000	2020-10-29T19:52:19:938
0,000000	0,000000	0,000000	0,000000	2020-10-29T19:52:19:981
0,000000	0,000000	0,000000	0,000000	2020-10-29T19:52:20:018
0,000000	0,000000	0,000000	0,000000	2020-10-29T19:52:20:059
0,000000	0,000000	0,000000	0,000000	2020-10-29T19:52:20:099
0,000000	0,000000	0,000000	0,000000	2020-10-29T19:52:20:139
0,000000	0,000000	0,000000	0,000000	2020-10-29T19:52:20:179
0,000000	0,000000	0,000000	0,000000	2020-10-29T19:52:20:219
0,000000	0,000000	0,000000	0,000000	2020-10-29T19:52:20:259
0,000000	0,000000	0,000000	0,000000	2020-10-29T19:52:20:300
0,000000	0,000000	0,000000	0,000000	2020-10-29T19:52:20:339
0,000000	0,000000	0,000000	0,000000	2020-10-29T19:52:20:380
0,000000	0,000000	0,000000	0,000000	2020-10-29T19:52:20:418
0,000000	0,000000	0,000000	0,000000	2020-10-29T19:52:20:459
0,000000	0,000000	0,000000	0,000000	2020-10-29T19:52:20:499
0,000000	0,000000	0,000000	0,000000	2020-10-29T19:52:20:539
0,000000	0,000000	0,000000	0,000000	2020-10-29T19:52:20:579
0,000000	0,000000	0,000000	0,000000	2020-10-29T19:52:20:619
0,000000	0,000000	0,000000	0,000000	2020-10-29T19:52:20:659
0,000000	0,000000	0,000000	0,000000	2020-10-29T19:52:20:700
0,000000	0,000000	0,000000	0,000000	2020-10-29T19:52:20:738
0,000000	0,000000	0,000000	0,000000	2020-10-29T19:52:20:781
0,000000	0,000000	0,000000	0,000000	2020-10-29T19:52:20:819
0,000000	0,000000	0,000000	0,000000	2020-10-29T19:52:20:860
0,000000	0,000000	0,000000	0,000000	2020-10-29T19:52:20:899
0,000000	0,000000	0,000000	0,000000	2020-10-29T19:52:20:940
0,000000	0,000000	0,000000	0,000000	2020-10-29T19:52:20:979
0,000000	0,000000	0,000000	0,000000	2020-10-29T19:52:21:019
0,000000	0,000000	0,000000	0,000000	2020-10-29T19:52:21:059
0,000000	0,000000	0,000000	0,000000	2020-10-29T19:52:21:100
0,000000	0,000000	0,000000	0,000000	2020-10-29T19:52:21:139
0,000000	0,000000	0,000000	0,000000	2020-10-29T19:52:21:180
0,000000	0,000000	0,000000	0,000000	2020-10-29T19:52:21:219
0,000000	0,000000	0,000000	0,000000	2020-10-29T19:52:21:260
0,000000	0,000000	0,000000	0,000000	2020-10-29T19:52:21:300
0,000000	0,000000	0,000000	0,000000	2020-10-29T19:52:21:340
0,000000	0,000000	0,000000	0,000000	2020-10-29T19:52:21:381
0,000000	0,000000	0,000000	0,000000	2020-10-29T19:52:21:420
0,000000	0,000000	0,000000	0,000000	2020-10-29T19:52:21:460
0,000000	0,000000	0,000000	0,000000	2020-10-29T19:52:21:501
0,000000	0,000000	0,000000	0,000000	2020-10-29T19:52:21:539
0,000000	0,000000	0,000000	0,000000	2020-10-29T19:52:21:580
0,000000	0,000000	0,000000	0,000000	2020-10-29T19:52:21:620
0,000000	0,000000	0,000000	0,000000	2020-10-29T19:52:21:661
0,000000	0,000000	0,000000	0,000000	2020-10-29T19:52:21:700
0,000000	0,000000	0,000000	0,000000	2020-10-29T19:52:21:740
0,000000	0,000000	0,000000	0,000000	2020-10-29T19:52:21:780
0,000000	0,000000	0,000000	0,000000	2020-10-29T19:52:21:820
0,000000	0,000000	0,000000	0,000000	2020-10-29T19:52:21:860
0,000000	0,000000	0,000000	0,000000	2020-10-29T19:52:21:901
0,000000	0,000000	0,000000	0,000000	2020-10-29T19:52:21:940
0,000000	0,000000	0,000000	0,000000	2020-10-29T19:52:21:981
0,000000	0,000000	0,000000	0,000000	2020-10-29T19:52:22:020
0,000000	0,000000	0,000000	0,000000	2020-10-29T19:52:22:060
0,000000	0,000000	0,000000	0,000000	2020-10-29T19:52:22:102
0,000000	0,000000	0,000000	0,000000	2020-10-29T19:52:22:141
0,000000	0,000000	0,000000	0,000000	2020-10-29T19:52:22:180
0,000000	0,000000	0,000000	0,000000	2020-10-29T19:52:22:221
0,000000	0,000000	0,000000	0,000000	2020-10-29T19:52:22:260
0,000000	0,000000	0,000000	0,000000	2020-10-29T19:52:22:301
0,000000	0,000000	0,000000	0,000000	2020-10-29T19:52:22:340
0,000000	0,000000	0,000000	0,000000	2020-10-29T19:52:22:381
0,000000	0,000000	0,000000	0,000000	2020-10-29T19:52:22:420
0,000000	0,000000	0,000000	0,000000	2020-10-29T19:52:22:461
0,000000	0,000000	0,000000	0,000000	2020-10-29T19:52:22:501
0,000000	0,000000	0,000000	0,000000	2020-10-29T19:52:22:541
0,000000	0,000000	0,000000	0,000000	2020-10-29T19:52:22:581
0,000000	0,000000	0,000000	0,000000	2020-10-29T19:52:22:621
0,000000	0,000000	0,000000	0,000000	2020-10-29T19:52:22:661
0,000000	0,000000	0,000000	0,000000	2020-10-29T19:52:22:702
0,000000	0,000000	0,000000	0,000000	2020-10-29T19:52:22:741
0,000000	0,000000	0,000000	0,000000	2020-10-29T19:52:22:782
0,000000	0,000000	0,000000	0,000000	2020-10-29T19:52:22:821
0,000000	0,000000	0,000000	0,000000	2020-10-29T19:52:22:862
0,000000	0,000000	0,000000	0,000000	2020-10-29T19:52:22:901
0,000000	0,000000	0,000000	0,000000	2020-10-29T19:52:22:942
0,000000	0,000000	0,000000	0,000000	2020-10-29T19:52:22:982
0,000000	0,000000	0,000000	0,000000	2020-10-29T19:52:23:022
0,000000	0,000000	0,000000	0,000000	2020-10-29T19:52:23:061
0,000000	0,000000	0,000000	0,000000	2020-10-29T19:52:23:102
0,000000	0,000000	0,000000	0,000000	2020-10-29T19:52:23:142
0,000000	0,000000	0,000000	0,000000	2020-10-29T19:52:23:182
0,000000	0,000000	0,000000	0,000000	2020-10-29T19:52:23:222
0,000000	0,000000	0,000000	0,000000	2020-10-29T19:52:23:263
0,000000	0,000000	0,000000	0,000000	2020-10-29T19:52:23:302
0,000000	0,000000	0,000000	0,000000	2020-10-29T19:52:23:343
0,000000	0,000000	0,000000	0,000000	2020-10-29T19:52:23:386
0,000000	0,000000	0,000000	0,000000	2020-10-29T19:52:23:422
0,000000	0,000000	0,000000	0,000000	2020-10-29T19:52:23:477
0,000000	0,000000	0,000000	0,000000	2020-10-29T19:52:23:501
0,000000	0,000000	0,000000	0,000000	2020-10-29T19:52:23:540
0,000000	0,000000	0,000000	0,000000	2020-10-29T19:52:23:581
0,000000	0,000000	0,000000	0,000000	2020-10-29T19:52:23:622
0,000000	0,000000	0,000000	0,000000	2020-10-29T19:52:23:661
0,000000	0,000000	0,000000	0,000000	2020-10-29T19:52:23:702
0,000000	0,000000	0,000000	0,000000	2020-10-29T19:52:23:742
0,000000	0,000000	0,000000	0,000000	2020-10-29T19:52:23:782
0,000000	0,000000	0,000000	0,000000	2020-10-29T19:52:23:823
0,000000	0,000000	0,000000	0,000000	2020-10-29T19:52:23:862
0,000000	0,000000	0,000000	0,000000	2020-10-29T19:52:23:903
0,000000	0,000000	0,000000	0,000000	2020-10-29T19:52:23:942
0,000000	0,000000	0,000000	0,000000	2020-10-29T19:52:23:983
0,000000	0,000000	0,000000	0,000000	2020-10-29T19:52:24:023
0,000000	0,000000	0,000000	0,000000	2020-10-29T19:52:24:067
0,000000	0,000000	0,000000	0,000000	2020-10-29T19:52:24:104
0,000000	0,000000	0,000000	0,000000	2020-10-29T19:52:24:182
0,000000	0,000000	0,000000	0,000000	2020-10-29T19:52:24:183
0,000000	0,000000	0,000000	0,000000	2020-10-29T19:52:24:244
0,000000	0,000000	0,000000	0,000000	2020-10-29T19:52:24:262
0,000000	0,000000	0,000000	0,000000	2020-10-29T19:52:24:309
0,000000	0,000000	0,000000	0,000000	2020-10-29T19:52:24:340
0,000000	0,000000	0,000000	0,000000	2020-10-29T19:52:24:383
0,000000	0,000000	0,000000	0,000000	2020-10-29T19:52:24:422
0,000000	0,000000	0,000000	0,000000	2020-10-29T19:52:24:463
0,000000	0,000000	0,000000	0,000000	2020-10-29T19:52:24:503
0,000000	0,000000	0,000000	0,000000	2020-10-29T19:52:24:543
0,000000	0,000000	0,000000	0,000000	2020-10-29T19:52:24:583
0,000000	0,000000	0,000000	0,000000	2020-10-29T19:52:24:624
0,000000	0,000000	0,000000	0,000000	2020-10-29T19:52:24:663
0,000000	0,000000	0,000000	0,000000	2020-10-29T19:52:24:703
0,000000	0,000000	0,000000	0,000000	2020-10-29T19:52:24:743
0,000000	0,000000	0,000000	0,000000	2020-10-29T19:52:24:784
0,000000	0,000000	0,000000	0,000000	2020-10-29T19:52:24:822
0,000000	0,000000	0,000000	0,000000	2020-10-29T19:52:24:864
0,000000	0,000000	0,000000	0,000000	2020-10-29T19:52:24:903
0,000000	0,000000	0,000000	0,000000	2020-10-29T19:52:24:946
0,000000	0,000000	0,000000	0,000000	2020-10-29T19:52:25:700
0,000000	0,000000	0,000000	0,000000	2020-10-29T19:52:25:719
0,000000	0,000000	0,000000	0,000000	2020-10-29T19:52:25:719
0,000000	0,000000	0,000000	0,000000	2020-10-29T19:52:25:720
0,000000	0,000000	0,000000	0,000000	2020-10-29T19:52:26:044
0,000000	0,000000	0,000000	0,000000	2020-10-29T19:52:26:044
0,000000	0,000000	0,000000	0,000000	2020-10-29T19:52:26:058
0,000000	0,000000	0,000000	0,000000	2020-10-29T19:52:26:059
0,000000	0,000000	0,000000	0,000000	2020-10-29T19:52:26:070
0,000000	0,000000	0,000000	0,000000	2020-10-29T19:52:26:071
0,000000	0,000000	0,000000	0,000000	2020-10-29T19:52:26:071
0,000000	0,000000	0,000000	0,000000	2020-10-29T19:52:26:072
0,000000	0,000000	0,000000	0,000000	2020-10-29T19:52:26:083
0,000000	0,000000	0,000000	0,000000	2020-10-29T19:52:26:162
0,000000	0,000000	0,000000	0,000000	2020-10-29T19:52:26:165
0,000000	0,000000	0,000000	0,000000	2020-10-29T19:52:26:183
0,000000	0,000000	0,000000	0,000000	2020-10-29T19:52:26:223
0,000000	0,000000	0,000000	0,000000	2020-10-29T19:52:26:313
0,000000	0,000000	0,000000	0,000000	2020-10-29T19:52:26:314
0,000000	0,000000	0,000000	0,000000	2020-10-29T19:52:26:343
0,000000	0,000000	0,000000	0,000000	2020-10-29T19:52:26:382
0,000000	0,000000	0,000000	0,000000	2020-10-29T19:52:26:431
0,000000	0,000000	0,000000	0,000000	2020-10-29T19:52:26:473
0,000000	0,000000	0,000000	0,000000	2020-10-29T19:52:26:531
0,000000	0,000000	0,000000	0,000000	2020-10-29T19:52:26:572
0,000000	0,000000	0,000000	0,000000	2020-10-29T19:52:26:643
0,000000	0,000000	0,000000	0,000000	2020-10-29T19:52:26:644
0,000000	0,000000	0,000000	0,000000	2020-10-29T19:52:26:672
0,000000	0,000000	0,000000	0,000000	2020-10-29T19:52:26:703
0,000000	0,000000	0,000000	0,000000	2020-10-29T19:52:26:745
0,000000	0,000000	0,000000	0,000000	2020-10-29T19:52:26:785
0,000000	0,000000	0,000000	0,000000	2020-10-29T19:52:26:825
0,000000	0,000000	0,000000	0,000000	2020-10-29T19:52:26:865
0,000000	0,000000	0,000000	0,000000	2020-10-29T19:52:26:905
0,000000	0,000000	0,000000	0,000000	2020-10-29T19:52:26:945
0,000000	0,000000	0,000000	0,000000	2020-10-29T19:52:26:985
0,000000	0,000000	0,000000	0,000000	2020-10-29T19:52:27:026
0,000000	0,000000	0,000000	0,000000	2020-10-29T19:52:27:065
0,000000	0,000000	0,000000	0,000000	2020-10-29T19:52:27:118
0,000000	0,000000	0,000000	0,000000	2020-10-29T19:52:27:147
0,000000	0,000000	0,000000	0,000000	2020-10-29T19:52:27:200
0,000000	0,000000	0,000000	0,000000	2020-10-29T19:52:27:223
0,000000	0,000000	0,000000	0,000000	2020-10-29T19:52:27:265
0,000000	0,000000	0,000000	0,000000	2020-10-29T19:52:27:305
0,000000	0,000000	0,000000	0,000000	2020-10-29T19:52:27:346
0,000000	0,000000	0,000000	0,000000	2020-10-29T19:52:27:388
0,000000	0,000000	0,000000	0,000000	2020-10-29T19:52:27:425
0,000000	0,000000	0,000000	0,000000	2020-10-29T19:52:27:465
0,000000	0,000000	0,000000	0,000000	2020-10-29T19:52:27:507
0,000000	0,000000	0,000000	0,000000	2020-10-29T19:52:27:547
0,000000	0,000000	0,000000	0,000000	2020-10-29T19:52:27:587
0,000000	0,000000	0,000000	0,000000	2020-10-29T19:52:27:626
0,000000	0,000000	0,000000	0,000000	2020-10-29T19:52:27:668
0,000000	0,000000	0,000000	0,000000	2020-10-29T19:52:27:707
0,000000	0,000000	0,000000	0,000000	2020-10-29T19:52:27:747
0,000000	0,000000	0,000000	0,000000	2020-10-29T19:52:27:787
0,000000	0,000000	0,000000	0,000000	2020-10-29T19:52:27:827
0,000000	0,000000	0,000000	0,000000	2020-10-29T19:52:27:866
0,000000	0,000000	0,000000	0,000000	2020-10-29T19:52:27:907
0,000000	0,000000	0,000000	0,000000	2020-10-29T19:52:27:946
0,000000	0,000000	0,000000	0,000000	2020-10-29T19:52:27:988
0,000000	0,000000	0,000000	0,000000	2020-10-29T19:52:28:026
95,000000	0,000000	0,000000	0,000000	2020-10-29T19:52:28:067
95,000000	0,000000	0,000000	0,000000	2020-10-29T19:52:28:105
95,000000	0,000000	0,000000	0,000000	2020-10-29T19:52:28:147
95,000000	0,000000	0,000000	0,000000	2020-10-29T19:52:28:248
95,000000	0,000000	0,000000	0,000000	2020-10-29T19:52:28:251
94,000000	0,000000	0,000000	0,000000	2020-10-29T19:52:28:269
94,000000	0,000000	0,000000	0,000000	2020-10-29T19:52:28:306
95,000000	0,000000	0,000000	0,000000	2020-10-29T19:52:28:347
95,000000	0,000000	0,000000	0,000000	2020-10-29T19:52:28:386
94,000000	0,000000	0,000000	0,000000	2020-10-29T19:52:28:426
94,000000	0,000000	0,000000	0,000000	2020-10-29T19:52:28:466
95,000000	0,000000	0,000000	0,000000	2020-10-29T19:52:28:507
94,000000	0,000000	0,000000	0,000000	2020-10-29T19:52:28:546
94,000000	0,000000	0,000000	0,000000	2020-10-29T19:52:28:587
94,000000	0,000000	0,000000	0,000000	2020-10-29T19:52:28:627
95,000000	0,000000	0,000000	0,000000	2020-10-29T19:52:28:667
95,000000	0,000000	0,000000	0,000000	2020-10-29T19:52:28:707
94,000000	0,000000	0,000000	0,000000	2020-10-29T19:52:28:747
94,000000	0,000000	0,000000	0,000000	2020-10-29T19:52:28:787
94,000000	0,000000	0,000000	0,000000	2020-10-29T19:52:28:827
94,000000	0,000000	0,000000	0,000000	2020-10-29T19:52:28:867
94,000000	0,000000	0,000000	0,000000	2020-10-29T19:52:28:907
95,000000	0,000000	0,000000	0,000000	2020-10-29T19:52:28:947
95,000000	0,000000	0,000000	0,000000	2020-10-29T19:52:28:987
95,000000	0,000000	0,000000	0,000000	2020-10-29T19:52:29:027
95,000000	0,000000	0,000000	0,000000	2020-10-29T19:52:29:067
95,000000	0,000000	0,000000	0,000000	2020-10-29T19:52:29:107
95,000000	0,000000	0,000000	0,000000	2020-10-29T19:52:29:147
95,000000	0,000000	0,000000	0,000000	2020-10-29T19:52:29:188
95,000000	0,000000	0,000000	0,000000	2020-10-29T19:52:29:243
95,000000	0,000000	0,000000	0,000000	2020-10-29T19:52:29:266
95,000000	0,000000	0,000000	0,000000	2020-10-29T19:52:29:310
95,000000	0,000000	0,000000	0,000000	2020-10-29T19:52:29:347
95,000000	0,000000	0,000000	0,000000	2020-10-29T19:52:29:392
95,000000	0,000000	0,000000	0,000000	2020-10-29T19:52:29:427
95,000000	0,000000	0,000000	0,000000	2020-10-29T19:52:29:467
95,000000	0,000000	0,000000	0,000000	2020-10-29T19:52:29:507
95,000000	0,000000	0,000000	0,000000	2020-10-29T19:52:29:548
95,000000	0,000000	0,000000	0,000000	2020-10-29T19:52:29:588
95,000000	0,000000	0,000000	0,000000	2020-10-29T19:52:29:629
100,000000	0,000000	0,000000	0,000000	2020-10-29T19:52:32:247
100,000000	0,000000	0,000000	0,000000	2020-10-29T19:52:32:253
100,000000	0,000000	0,000000	0,000000	2020-10-29T19:52:32:253
100,000000	0,000000	0,000000	0,000000	2020-10-29T19:52:32:254
100,000000	0,000000	0,000000	0,000000	2020-10-29T19:52:32:444
100,000000	0,000000	0,000000	0,000000	2020-10-29T19:52:32:444
100,000000	0,000000	0,000000	0,000000	2020-10-29T19:52:32:447
100,000000	0,000000	0,000000	0,000000	2020-10-29T19:52:32:448
100,000000	0,000000	0,000000	0,000000	2020-10-29T19:52:32:450
100,000000	0,000000	0,000000	0,000000	2020-10-29T19:52:32:460
101,000000	0,000000	0,000000	0,000000	2020-10-29T19:52:32:461
101,000000	0,000000	0,000000	0,000000	2020-10-29T19:52:32:568
100,000000	0,000000	0,000000	0,000000	2020-10-29T19:52:32:607
100,000000	0,000000	0,000000	0,000000	2020-10-29T19:52:32:609
101,000000	0,000000	0,000000	0,000000	2020-10-29T19:52:32:612
101,000000	0,000000	0,000000	0,000000	2020-10-29T19:52:32:637
101,000000	0,000000	0,000000	0,000000	2020-10-29T19:52:32:684
101,000000	0,000000	0,000000	0,000000	2020-10-29T19:52:32:720
100,000000	0,000000	0,000000	0,000000	2020-10-29T19:52:32:799
101,000000	0,000000	0,000000	0,000000	2020-10-29T19:52:32:815
101,000000	0,000000	0,000000	0,000000	2020-10-29T19:52:32:835
101,000000	0,000000	0,000000	0,000000	2020-10-29T19:52:32:877
101,000000	0,000000	0,000000	0,000000	2020-10-29T19:52:32:917
101,000000	0,000000	0,000000	0,000000	2020-10-29T19:52:32:967
100,000000	0,000000	0,000000	0,000000	2020-10-29T19:52:33:020
100,000000	0,000000	0,000000	0,000000	2020-10-29T19:52:33:083
100,000000	0,000000	0,000000	0,000000	2020-10-29T19:52:33:083
101,000000	0,000000	0,000000	0,000000	2020-10-29T19:52:33:123
101,000000	0,000000	0,000000	0,000000	2020-10-29T19:52:33:156
101,000000	0,000000	0,000000	0,000000	2020-10-29T19:52:33:197
100,000000	0,000000	0,000000	0,000000	2020-10-29T19:52:33:238
101,000000	0,000000	0,000000	0,000000	2020-10-29T19:52:33:279
101,000000	0,000000	0,000000	0,000000	2020-10-29T19:52:33:318
101,000000	0,000000	0,000000	0,000000	2020-10-29T19:52:33:359
101,000000	0,000000	0,000000	0,000000	2020-10-29T19:52:33:398
101,000000	0,000000	0,000000	0,000000	2020-10-29T19:52:33:439
101,000000	0,000000	0,000000	0,000000	2020-10-29T19:52:33:478
101,000000	0,000000	0,000000	0,000000	2020-10-29T19:52:33:519
101,000000	0,000000	0,000000	0,000000	2020-10-29T19:52:33:559
101,000000	0,000000	0,000000	0,000000	2020-10-29T19:52:33:599
101,000000	0,000000	0,000000	0,000000	2020-10-29T19:52:33:639
101,000000	0,000000	0,000000	0,000000	2020-10-29T19:52:33:679
101,000000	0,000000	0,000000	0,000000	2020-10-29T19:52:33:719
101,000000	0,000000	0,000000	0,000000	2020-10-29T19:52:33:759
101,000000	0,000000	0,000000	0,000000	2020-10-29T19:52:33:798
101,000000	0,000000	0,000000	0,000000	2020-10-29T19:52:33:839
102,000000	0,000000	0,000000	0,000000	2020-10-29T19:52:33:878
102,000000	0,000000	0,000000	0,000000	2020-10-29T19:52:33:918
101,000000	0,000000	0,000000	0,000000	2020-10-29T19:52:33:960
101,000000	0,000000	0,000000	0,000000	2020-10-29T19:52:33:999
101,000000	0,000000	0,000000	0,000000	2020-10-29T19:52:34:039
102,000000	0,000000	0,000000	0,000000	2020-10-29T19:52:34:080
102,000000	0,000000	0,000000	0,000000	2020-10-29T19:52:34:119
101,000000	0,000000	0,000000	0,000000	2020-10-29T19:52:34:161
101,000000	0,000000	0,000000	0,000000	2020-10-29T19:52:34:200
101,000000	0,000000	0,000000	0,000000	2020-10-29T19:52:34:240
100,000000	0,000000	0,000000	0,000000	2020-10-29T19:52:34:279
101,000000	0,000000	0,000000	0,000000	2020-10-29T19:52:34:320
101,000000	0,000000	0,000000	0,000000	2020-10-29T19:52:34:359
101,000000	0,000000	0,000000	0,000000	2020-10-29T19:52:34:399
101,000000	0,000000	0,000000	0,000000	2020-10-29T19:52:34:440
100,000000	0,000000	0,000000	0,000000	2020-10-29T19:52:34:479
100,000000	0,000000	0,000000	0,000000	2020-10-29T19:52:34:520
100,000000	0,000000	0,000000	0,000000	2020-10-29T19:52:34:560
100,000000	0,000000	0,000000	0,000000	2020-10-29T19:52:34:600
100,000000	0,000000	0,000000	0,000000	2020-10-29T19:52:34:667
100,000000	0,000000	0,000000	0,000000	2020-10-29T19:52:34:686
100,000000	0,000000	0,000000	0,000000	2020-10-29T19:52:34:722
100,000000	0,000000	0,000000	0,000000	2020-10-29T19:52:34:760
100,000000	0,000000	0,000000	0,000000	2020-10-29T19:52:34:802
100,000000	0,000000	0,000000	0,000000	2020-10-29T19:52:34:840
100,000000	0,000000	0,000000	0,000000	2020-10-29T19:52:34:880
100,000000	0,000000	0,000000	0,000000	2020-10-29T19:52:34:920
100,000000	0,000000	0,000000	0,000000	2020-10-29T19:52:34:960
100,000000	0,000000	0,000000	0,000000	2020-10-29T19:52:35:000
100,000000	0,000000	0,000000	0,000000	2020-10-29T19:52:35:041
100,000000	0,000000	0,000000	0,000000	2020-10-29T19:52:35:080
100,000000	0,000000	0,000000	0,000000	2020-10-29T19:52:35:120
99,000000	0,000000	0,000000	0,000000	2020-10-29T19:52:35:161
99,000000	0,000000	0,000000	0,000000	2020-10-29T19:52:35:200
99,000000	0,000000	0,000000	0,000000	2020-10-29T19:52:35:241
99,000000	0,000000	0,000000	0,000000	2020-10-29T19:52:35:281
99,000000	0,000000	0,000000	0,000000	2020-10-29T19:52:35:320
99,000000	0,000000	0,000000	0,000000	2020-10-29T19:52:35:360
99,000000	0,000000	0,000000	0,000000	2020-10-29T19:52:35:401
99,000000	0,000000	0,000000	0,000000	2020-10-29T19:52:35:441
99,000000	0,000000	0,000000	0,000000	2020-10-29T19:52:35:481
99,000000	0,000000	0,000000	0,000000	2020-10-29T19:52:35:521
99,000000	0,000000	0,000000	0,000000	2020-10-29T19:52:35:561
99,000000	0,000000	0,000000	0,000000	2020-10-29T19:52:35:601
99,000000	0,000000	0,000000	0,000000	2020-10-29T19:52:35:641
99,000000	0,000000	0,000000	0,000000	2020-10-29T19:52:35:695
99,000000	0,000000	0,000000	0,000000	2020-10-29T19:52:35:721
99,000000	0,000000	0,000000	0,000000	2020-10-29T19:52:35:783
100,000000	0,000000	0,000000	0,000000	2020-10-29T19:52:35:801
100,000000	0,000000	0,000000	0,000000	2020-10-29T19:52:35:841
99,000000	0,000000	0,000000	0,000000	2020-10-29T19:52:35:881
99,000000	0,000000	0,000000	0,000000	2020-10-29T19:52:35:921
99,000000	0,000000	0,000000	0,000000	2020-10-29T19:52:35:961
99,000000	0,000000	0,000000	0,000000	2020-10-29T19:52:36:001
99,000000	0,000000	0,000000	0,000000	2020-10-29T19:52:36:041
99,000000	0,000000	0,000000	0,000000	2020-10-29T19:52:36:081
98,000000	0,000000	0,000000	0,000000	2020-10-29T19:52:36:121
91,000000	0,000000	645,000000	0,000000	2020-10-29T19:53:01:282
91,000000	0,000000	645,000000	0,000000	2020-10-29T19:53:01:283
91,000000	0,000000	645,000000	0,000000	2020-10-29T19:53:01:288
91,000000	0,000000	645,000000	0,000000	2020-10-29T19:53:01:289
91,000000	0,000000	645,000000	0,000000	2020-10-29T19:53:01:290
91,000000	0,000000	645,000000	0,000000	2020-10-29T19:53:01:304
92,000000	0,000000	645,000000	0,000000	2020-10-29T19:53:01:341
92,000000	0,000000	645,000000	0,000000	2020-10-29T19:53:01:382
91,000000	0,000000	645,000000	0,000000	2020-10-29T19:53:01:434
92,000000	0,000000	645,000000	0,000000	2020-10-29T19:53:01:945
92,000000	0,000000	645,000000	0,000000	2020-10-29T19:53:01:986
92,000000	0,000000	645,000000	0,000000	2020-10-29T19:53:02:025
92,000000	0,000000	645,000000	0,000000	2020-10-29T19:53:02:064
92,000000	0,000000	645,000000	0,000000	2020-10-29T19:53:02:104
92,000000	0,000000	645,000000	0,000000	2020-10-29T19:53:02:145
91,000000	0,000000	645,000000	0,000000	2020-10-29T19:53:02:183
91,000000	0,000000	645,000000	0,000000	2020-10-29T19:53:02:225
91,000000	0,000000	645,000000	0,000000	2020-10-29T19:53:02:264
92,000000	0,000000	645,000000	0,000000	2020-10-29T19:53:02:304
92,000000	0,000000	645,000000	0,000000	2020-10-29T19:53:02:344
91,000000	0,000000	645,000000	0,000000	2020-10-29T19:53:02:385
91,000000	0,000000	645,000000	0,000000	2020-10-29T19:53:02:423
91,000000	0,000000	645,000000	0,000000	2020-10-29T19:53:02:465
92,000000	0,000000	645,000000	0,000000	2020-10-29T19:53:02:504
91,000000	0,000000	645,000000	0,000000	2020-10-29T19:53:02:544
91,000000	0,000000	645,000000	0,000000	2020-10-29T19:53:02:584
91,000000	0,000000	645,000000	0,000000	2020-10-29T19:53:02:625
91,000000	0,000000	645,000000	0,000000	2020-10-29T19:53:02:663
91,000000	0,000000	645,000000	0,000000	2020-10-29T19:53:02:704
91,000000	0,000000	645,000000	0,000000	2020-10-29T19:53:02:744
91,000000	0,000000	645,000000	0,000000	2020-10-29T19:53:02:786
91,000000	0,000000	645,000000	0,000000	2020-10-29T19:53:02:824
91,000000	0,000000	645,000000	0,000000	2020-10-29T19:53:02:865
91,000000	0,000000	645,000000	0,000000	2020-10-29T19:53:02:904
91,000000	0,000000	645,000000	0,000000	2020-10-29T19:53:02:946
91,000000	0,000000	645,000000	0,000000	2020-10-29T19:53:02:984
91,000000	0,000000	645,000000	0,000000	2020-10-29T19:53:03:025
91,000000	0,000000	645,000000	0,000000	2020-10-29T19:53:03:064
91,000000	0,000000	645,000000	0,000000	2020-10-29T19:53:03:106
91,000000	0,000000	645,000000	0,000000	2020-10-29T19:53:03:144
91,000000	0,000000	645,000000	0,000000	2020-10-29T19:53:03:185
91,000000	0,000000	645,000000	0,000000	2020-10-29T19:53:03:225
91,000000	0,000000	645,000000	0,000000	2020-10-29T19:53:03:265
91,000000	0,000000	645,000000	0,000000	2020-10-29T19:53:03:305
91,000000	0,000000	645,000000	0,000000	2020-10-29T19:53:03:347
91,000000	0,000000	645,000000	0,000000	2020-10-29T19:53:03:384
91,000000	0,000000	645,000000	0,000000	2020-10-29T19:53:03:425
91,000000	0,000000	645,000000	0,000000	2020-10-29T19:53:03:465
91,000000	0,000000	645,000000	0,000000	2020-10-29T19:53:03:506
91,000000	0,000000	645,000000	0,000000	2020-10-29T19:53:03:544
91,000000	0,000000	645,000000	0,000000	2020-10-29T19:53:03:586
91,000000	0,000000	645,000000	0,000000	2020-10-29T19:53:03:625
91,000000	0,000000	645,000000	0,000000	2020-10-29T19:53:03:666
91,000000	0,000000	645,000000	0,000000	2020-10-29T19:53:03:705
91,000000	0,000000	645,000000	0,000000	2020-10-29T19:53:03:746
91,000000	0,000000	645,000000	0,000000	2020-10-29T19:53:03:785
91,000000	0,000000	645,000000	0,000000	2020-10-29T19:53:03:826
91,000000	0,000000	645,000000	0,000000	2020-10-29T19:53:03:865
91,000000	0,000000	645,000000	0,000000	2020-10-29T19:53:03:906
91,000000	0,000000	645,000000	0,000000	2020-10-29T19:53:03:946
92,000000	0,000000	645,000000	0,000000	2020-10-29T19:53:03:986
92,000000	0,000000	645,000000	0,000000	2020-10-29T19:53:04:025
91,000000	0,000000	645,000000	0,000000	2020-10-29T19:53:04:066
91,000000	0,000000	645,000000	0,000000	2020-10-29T19:53:04:106
91,000000	0,000000	645,000000	0,000000	2020-10-29T19:53:04:147
92,000000	0,000000	645,000000	0,000000	2020-10-29T19:53:04:186
91,000000	0,000000	645,000000	0,000000	2020-10-29T19:53:04:226
91,000000	0,000000	645,000000	0,000000	2020-10-29T19:53:04:265
92,000000	0,000000	645,000000	0,000000	2020-10-29T19:53:04:307
92,000000	0,000000	645,000000	0,000000	2020-10-29T19:53:04:345
92,000000	0,000000	645,000000	0,000000	2020-10-29T19:53:04:387
91,000000	0,000000	645,000000	0,000000	2020-10-29T19:53:04:426
92,000000	0,000000	645,000000	0,000000	2020-10-29T19:53:04:467
92,000000	0,000000	645,000000	0,000000	2020-10-29T19:53:04:506
92,000000	0,000000	645,000000	0,000000	2020-10-29T19:53:04:547
91,000000	0,000000	645,000000	0,000000	2020-10-29T19:53:04:586
91,000000	0,000000	645,000000	0,000000	2020-10-29T19:53:04:627
92,000000	0,000000	645,000000	0,000000	2020-10-29T19:53:04:666
92,000000	0,000000	645,000000	0,000000	2020-10-29T19:53:04:707
92,000000	0,000000	645,000000	0,000000	2020-10-29T19:53:04:746
91,000000	0,000000	645,000000	0,000000	2020-10-29T19:53:04:787
92,000000	0,000000	645,000000	0,000000	2020-10-29T19:53:04:826
92,000000	0,000000	645,000000	0,000000	2020-10-29T19:53:04:867
91,000000	0,000000	645,000000	0,000000	2020-10-29T19:53:04:906
91,000000	0,000000	645,000000	0,000000	2020-10-29T19:53:04:948
92,000000	0,000000	645,000000	0,000000	2020-10-29T19:53:04:986
92,000000	0,000000	645,000000	0,000000	2020-10-29T19:53:05:027
92,000000	0,000000	645,000000	0,000000	2020-10-29T19:53:05:067
92,000000	0,000000	645,000000	0,000000	2020-10-29T19:53:05:107
92,000000	0,000000	645,000000	0,000000	2020-10-29T19:53:05:147
92,000000	0,000000	645,000000	0,000000	2020-10-29T19:53:05:188
92,000000	0,000000	645,000000	0,000000	2020-10-29T19:53:05:226
92,000000	0,000000	645,000000	0,000000	2020-10-29T19:53:05:268
92,000000	0,000000	645,000000	0,000000	2020-10-29T19:53:05:307
92,000000	0,000000	645,000000	0,000000	2020-10-29T19:53:05:348
92,000000	0,000000	645,000000	0,000000	2020-10-29T19:53:05:388
92,000000	0,000000	645,000000	0,000000	2020-10-29T19:53:05:427
92,000000	0,000000	645,000000	0,000000	2020-10-29T19:53:05:467
92,000000	0,000000	645,000000	0,000000	2020-10-29T19:53:05:508
92,000000	0,000000	645,000000	0,000000	2020-10-29T19:53:05:547
91,000000	0,000000	645,000000	0,000000	2020-10-29T19:53:05:588
92,000000	0,000000	645,000000	0,000000	2020-10-29T19:53:05:627
92,000000	0,000000	598,000000	0,000000	2020-10-29T19:53:05:668
92,000000	0,000000	598,000000	0,000000	2020-10-29T19:53:05:707
92,000000	0,000000	598,000000	0,000000	2020-10-29T19:53:05:749
92,000000	0,000000	598,000000	0,000000	2020-10-29T19:53:05:787
92,000000	0,000000	598,000000	0,000000	2020-10-29T19:53:05:828
92,000000	0,000000	598,000000	0,000000	2020-10-29T19:53:05:869
92,000000	0,000000	598,000000	0,000000	2020-10-29T19:53:05:908
92,000000	0,000000	598,000000	0,000000	2020-10-29T19:53:05:948
91,000000	0,000000	598,000000	0,000000	2020-10-29T19:53:05:989
91,000000	0,000000	598,000000	0,000000	2020-10-29T19:53:06:027
92,000000	0,000000	598,000000	0,000000	2020-10-29T19:53:06:068
92,000000	0,000000	598,000000	0,000000	2020-10-29T19:53:06:108
92,000000	0,000000	598,000000	0,000000	2020-10-29T19:53:06:148
92,000000	0,000000	598,000000	0,000000	2020-10-29T19:53:06:188
92,000000	0,000000	598,000000	0,000000	2020-10-29T19:53:06:229
91,000000	0,000000	649,000000	0,000000	2020-10-29T19:53:06:267
91,000000	0,000000	649,000000	0,000000	2020-10-29T19:53:06:309
91,000000	0,000000	649,000000	0,000000	2020-10-29T19:53:06:348
91,000000	0,000000	649,000000	0,000000	2020-10-29T19:53:06:389
91,000000	0,000000	649,000000	0,000000	2020-10-29T19:53:06:427
91,000000	0,000000	649,000000	0,000000	2020-10-29T19:53:06:469
91,000000	0,000000	649,000000	0,000000	2020-10-29T19:53:06:507
91,000000	0,000000	649,000000	0,000000	2020-10-29T19:53:06:549
91,000000	0,000000	649,000000	0,000000	2020-10-29T19:53:06:589
91,000000	0,000000	649,000000	0,000000	2020-10-29T19:53:06:628
91,000000	0,000000	649,000000	0,000000	2020-10-29T19:53:06:668
91,000000	0,000000	649,000000	0,000000	2020-10-29T19:53:06:709
91,000000	0,000000	649,000000	0,000000	2020-10-29T19:53:06:747
91,000000	0,000000	649,000000	0,000000	2020-10-29T19:53:06:789
91,000000	0,000000	649,000000	0,000000	2020-10-29T19:53:06:828
91,000000	0,000000	640,000000	0,000000	2020-10-29T19:53:06:868
91,000000	0,000000	640,000000	0,000000	2020-10-29T19:53:06:908
91,000000	0,000000	640,000000	0,000000	2020-10-29T19:53:06:952
92,000000	0,000000	640,000000	0,000000	2020-10-29T19:53:06:988
92,000000	0,000000	640,000000	0,000000	2020-10-29T19:53:07:030
92,000000	0,000000	640,000000	0,000000	2020-10-29T19:53:07:068
92,000000	0,000000	640,000000	0,000000	2020-10-29T19:53:07:108
92,000000	0,000000	640,000000	0,000000	2020-10-29T19:53:07:148
92,000000	0,000000	640,000000	0,000000	2020-10-29T19:53:07:189
92,000000	0,000000	640,000000	0,000000	2020-10-29T19:53:07:228
92,000000	0,000000	640,000000	0,000000	2020-10-29T19:53:07:269
92,000000	0,000000	640,000000	0,000000	2020-10-29T19:53:07:309
92,000000	0,000000	640,000000	0,000000	2020-10-29T19:53:07:350
92,000000	0,000000	640,000000	0,000000	2020-10-29T19:53:07:388
92,000000	0,000000	640,000000	0,000000	2020-10-29T19:53:07:430
92,000000	0,000000	640,000000	0,000000	2020-10-29T19:53:07:468
92,000000	0,000000	640,000000	0,000000	2020-10-29T19:53:07:509
92,000000	0,000000	640,000000	0,000000	2020-10-29T19:53:07:549
92,000000	0,000000	640,000000	0,000000	2020-10-29T19:53:07:589
92,000000	0,000000	640,000000	0,000000	2020-10-29T19:53:07:629
92,000000	0,000000	640,000000	0,000000	2020-10-29T19:53:07:669
92,000000	0,000000	640,000000	0,000000	2020-10-29T19:53:07:709
92,000000	0,000000	640,000000	0,000000	2020-10-29T19:53:07:750
92,000000	0,000000	640,000000	0,000000	2020-10-29T19:53:07:790
92,000000	0,000000	640,000000	0,000000	2020-10-29T19:53:07:830
92,000000	0,000000	640,000000	0,000000	2020-10-29T19:53:07:869
92,000000	0,000000	640,000000	0,000000	2020-10-29T19:53:07:910
92,000000	0,000000	640,000000	0,000000	2020-10-29T19:53:07:949
92,000000	0,000000	640,000000	0,000000	2020-10-29T19:53:07:990
92,000000	0,000000	640,000000	0,000000	2020-10-29T19:53:08:029
92,000000	0,000000	574,000000	0,000000	2020-10-29T19:53:08:070
92,000000	0,000000	574,000000	0,000000	2020-10-29T19:53:08:109
92,000000	0,000000	574,000000	0,000000	2020-10-29T19:53:08:150
92,000000	0,000000	574,000000	0,000000	2020-10-29T19:53:08:189
92,000000	0,000000	574,000000	0,000000	2020-10-29T19:53:08:230
92,000000	0,000000	574,000000	0,000000	2020-10-29T19:53:08:269
92,000000	0,000000	574,000000	0,000000	2020-10-29T19:53:08:310
92,000000	0,000000	574,000000	0,000000	2020-10-29T19:53:08:350
92,000000	0,000000	574,000000	0,000000	2020-10-29T19:53:08:391
92,000000	0,000000	574,000000	0,000000	2020-10-29T19:53:08:429
92,000000	0,000000	574,000000	0,000000	2020-10-29T19:53:08:471
92,000000	0,000000	574,000000	0,000000	2020-10-29T19:53:08:510
92,000000	0,000000	574,000000	0,000000	2020-10-29T19:53:08:551
92,000000	0,000000	574,000000	0,000000	2020-10-29T19:53:08:589
93,000000	0,000000	574,000000	0,000000	2020-10-29T19:53:08:631
92,000000	0,000000	574,000000	0,000000	2020-10-29T19:53:08:670
92,000000	0,000000	574,000000	0,000000	2020-10-29T19:53:08:711
93,000000	0,000000	574,000000	0,000000	2020-10-29T19:53:08:750
93,000000	0,000000	574,000000	0,000000	2020-10-29T19:53:08:792
93,000000	0,000000	574,000000	0,000000	2020-10-29T19:53:08:830
93,000000	0,000000	574,000000	0,000000	2020-10-29T19:53:08:871
93,000000	0,000000	574,000000	0,000000	2020-10-29T19:53:08:910
93,000000	0,000000	574,000000	0,000000	2020-10-29T19:53:08:952
93,000000	0,000000	574,000000	0,000000	2020-10-29T19:53:08:990
93,000000	0,000000	574,000000	0,000000	2020-10-29T19:53:09:031
93,000000	0,000000	574,000000	0,000000	2020-10-29T19:53:09:070
93,000000	0,000000	574,000000	0,000000	2020-10-29T19:53:09:111
93,000000	0,000000	574,000000	0,000000	2020-10-29T19:53:09:150
93,000000	0,000000	574,000000	0,000000	2020-10-29T19:53:09:192
93,000000	0,000000	574,000000	0,000000	2020-10-29T19:53:09:230
93,000000	0,000000	673,000000	0,000000	2020-10-29T19:53:09:271
93,000000	0,000000	673,000000	0,000000	2020-10-29T19:53:09:311
93,000000	0,000000	673,000000	0,000000	2020-10-29T19:53:09:352
93,000000	0,000000	673,000000	0,000000	2020-10-29T19:53:09:390
93,000000	0,000000	673,000000	0,000000	2020-10-29T19:53:09:432
93,000000	0,000000	673,000000	0,000000	2020-10-29T19:53:09:470
93,000000	0,000000	673,000000	0,000000	2020-10-29T19:53:09:511
93,000000	0,000000	673,000000	0,000000	2020-10-29T19:53:09:550
93,000000	0,000000	673,000000	0,000000	2020-10-29T19:53:09:592
93,000000	0,000000	673,000000	0,000000	2020-10-29T19:53:09:630
93,000000	0,000000	673,000000	0,000000	2020-10-29T19:53:09:672
93,000000	0,000000	673,000000	0,000000	2020-10-29T19:53:09:711
93,000000	0,000000	673,000000	0,000000	2020-10-29T19:53:09:752
93,000000	0,000000	673,000000	0,000000	2020-10-29T19:53:09:790
93,000000	0,000000	673,000000	0,000000	2020-10-29T19:53:09:832
93,000000	0,000000	673,000000	0,000000	2020-10-29T19:53:09:871
93,000000	0,000000	673,000000	0,000000	2020-10-29T19:53:09:912
93,000000	0,000000	673,000000	0,000000	2020-10-29T19:53:09:952
93,000000	0,000000	673,000000	0,000000	2020-10-29T19:53:09:992
93,000000	0,000000	673,000000	0,000000	2020-10-29T19:53:10:031
93,000000	0,000000	617,000000	0,000000	2020-10-29T19:53:10:073
93,000000	0,000000	617,000000	0,000000	2020-10-29T19:53:10:111
93,000000	0,000000	617,000000	0,000000	2020-10-29T19:53:10:152
93,000000	0,000000	617,000000	0,000000	2020-10-29T19:53:10:192
93,000000	0,000000	617,000000	0,000000	2020-10-29T19:53:10:232
93,000000	0,000000	617,000000	0,000000	2020-10-29T19:53:10:271
94,000000	0,000000	617,000000	0,000000	2020-10-29T19:53:10:312
93,000000	0,000000	617,000000	0,000000	2020-10-29T19:53:10:351
93,000000	0,000000	617,000000	0,000000	2020-10-29T19:53:10:393
93,000000	0,000000	617,000000	0,000000	2020-10-29T19:53:10:432
93,000000	0,000000	617,000000	0,000000	2020-10-29T19:53:10:473
93,000000	0,000000	617,000000	0,000000	2020-10-29T19:53:10:512
93,000000	0,000000	617,000000	0,000000	2020-10-29T19:53:10:553
93,000000	0,000000	617,000000	0,000000	2020-10-29T19:53:10:593
94,000000	0,000000	617,000000	0,000000	2020-10-29T19:53:10:633
94,000000	0,000000	617,000000	0,000000	2020-10-29T19:53:10:672
94,000000	0,000000	617,000000	0,000000	2020-10-29T19:53:10:712
94,000000	0,000000	617,000000	0,000000	2020-10-29T19:53:10:752
94,000000	0,000000	617,000000	0,000000	2020-10-29T19:53:10:793
94,000000	0,000000	617,000000	0,000000	2020-10-29T19:53:10:832
94,000000	0,000000	617,000000	0,000000	2020-10-29T19:53:10:873
94,000000	0,000000	617,000000	0,000000	2020-10-29T19:53:10:912
94,000000	0,000000	617,000000	0,000000	2020-10-29T19:53:10:954
94,000000	0,000000	617,000000	0,000000	2020-10-29T19:53:10:992
94,000000	0,000000	617,000000	0,000000	2020-10-29T19:53:11:033
94,000000	0,000000	617,000000	0,000000	2020-10-29T19:53:11:072
94,000000	0,000000	617,000000	0,000000	2020-10-29T19:53:11:113
94,000000	0,000000	617,000000	0,000000	2020-10-29T19:53:11:153
94,000000	0,000000	617,000000	0,000000	2020-10-29T19:53:11:193
94,000000	0,000000	617,000000	0,000000	2020-10-29T19:53:11:232
94,000000	0,000000	617,000000	0,000000	2020-10-29T19:53:11:274
94,000000	0,000000	617,000000	0,000000	2020-10-29T19:53:11:313
94,000000	0,000000	617,000000	0,000000	2020-10-29T19:53:11:353
94,000000	0,000000	617,000000	0,000000	2020-10-29T19:53:11:393
94,000000	0,000000	617,000000	0,000000	2020-10-29T19:53:11:434
94,000000	0,000000	617,000000	0,000000	2020-10-29T19:53:11:473
94,000000	0,000000	617,000000	0,000000	2020-10-29T19:53:11:514
94,000000	0,000000	617,000000	0,000000	2020-10-29T19:53:11:553
94,000000	0,000000	617,000000	0,000000	2020-10-29T19:53:11:594
94,000000	0,000000	617,000000	0,000000	2020-10-29T19:53:11:633
94,000000	0,000000	617,000000	0,000000	2020-10-29T19:53:11:674
94,000000	0,000000	617,000000	0,000000	2020-10-29T19:53:11:713
94,000000	0,000000	617,000000	0,000000	2020-10-29T19:53:11:755
94,000000	0,000000	617,000000	0,000000	2020-10-29T19:53:11:793
94,000000	0,000000	617,000000	0,000000	2020-10-29T19:53:11:834
94,000000	0,000000	617,000000	0,000000	2020-10-29T19:53:11:873
94,000000	0,000000	617,000000	0,000000	2020-10-29T19:53:11:914
94,000000	0,000000	617,000000	0,000000	2020-10-29T19:53:11:955
94,000000	0,000000	617,000000	0,000000	2020-10-29T19:53:11:998
94,000000	0,000000	617,000000	0,000000	2020-10-29T19:53:12:033
94,000000	0,000000	617,000000	0,000000	2020-10-29T19:53:12:075
94,000000	0,000000	617,000000	0,000000	2020-10-29T19:53:12:113
94,000000	0,000000	617,000000	0,000000	2020-10-29T19:53:12:154
94,000000	0,000000	617,000000	0,000000	2020-10-29T19:53:12:194
94,000000	0,000000	617,000000	0,000000	2020-10-29T19:53:12:235
94,000000	0,000000	617,000000	0,000000	2020-10-29T19:53:12:274
94,000000	0,000000	617,000000	0,000000	2020-10-29T19:53:12:315
94,000000	0,000000	617,000000	0,000000	2020-10-29T19:53:12:353
94,000000	0,000000	617,000000	0,000000	2020-10-29T19:53:12:395
94,000000	0,000000	617,000000	0,000000	2020-10-29T19:53:12:477
94,000000	0,000000	617,000000	0,000000	2020-10-29T19:53:12:887
94,000000	0,000000	617,000000	0,000000	2020-10-29T19:53:12:889
94,000000	0,000000	617,000000	0,000000	2020-10-29T19:53:12:890
94,000000	0,000000	617,000000	0,000000	2020-10-29T19:53:12:890
94,000000	0,000000	617,000000	0,000000	2020-10-29T19:53:12:892
94,000000	0,000000	617,000000	0,000000	2020-10-29T19:53:12:922
94,000000	0,000000	617,000000	0,000000	2020-10-29T19:53:12:923
94,000000	0,000000	617,000000	0,000000	2020-10-29T19:53:12:924
94,000000	0,000000	617,000000	0,000000	2020-10-29T19:53:12:957
94,000000	0,000000	617,000000	0,000000	2020-10-29T19:53:12:969
94,000000	0,000000	617,000000	0,000000	2020-10-29T19:53:12:970
94,000000	0,000000	617,000000	0,000000	2020-10-29T19:53:12:976
94,000000	0,000000	617,000000	0,000000	2020-10-29T19:53:13:068
94,000000	0,000000	617,000000	0,000000	2020-10-29T19:53:13:069
94,000000	0,000000	617,000000	0,000000	2020-10-29T19:53:13:071
94,000000	0,000000	591,000000	0,000000	2020-10-29T19:53:13:073
94,000000	0,000000	591,000000	0,000000	2020-10-29T19:53:13:114
94,000000	0,000000	591,000000	0,000000	2020-10-29T19:53:13:159
94,000000	0,000000	591,000000	0,000000	2020-10-29T19:53:13:229
94,000000	0,000000	591,000000	0,000000	2020-10-29T19:53:13:243
94,000000	0,000000	591,000000	0,000000	2020-10-29T19:53:13:290
94,000000	0,000000	591,000000	0,000000	2020-10-29T19:53:13:338
94,000000	0,000000	591,000000	0,000000	2020-10-29T19:53:13:359
94,000000	0,000000	591,000000	0,000000	2020-10-29T19:53:13:531
94,000000	0,000000	591,000000	0,000000	2020-10-29T19:53:13:599
94,000000	0,000000	591,000000	0,000000	2020-10-29T19:53:13:600
94,000000	0,000000	591,000000	0,000000	2020-10-29T19:53:13:607
94,000000	0,000000	591,000000	0,000000	2020-10-29T19:53:13:608
94,000000	0,000000	591,000000	0,000000	2020-10-29T19:53:13:608
94,000000	0,000000	591,000000	0,000000	2020-10-29T19:53:13:632
95,000000	0,000000	591,000000	0,000000	2020-10-29T19:53:13:673
95,000000	0,000000	591,000000	0,000000	2020-10-29T19:53:13:712
95,000000	0,000000	591,000000	0,000000	2020-10-29T19:53:13:758
95,000000	0,000000	591,000000	0,000000	2020-10-29T19:53:13:798
95,000000	0,000000	591,000000	0,000000	2020-10-29T19:53:13:840
95,000000	0,000000	591,000000	0,000000	2020-10-29T19:53:13:875
95,000000	0,000000	591,000000	0,000000	2020-10-29T19:53:13:913
95,000000	0,000000	591,000000	0,000000	2020-10-29T19:53:13:955
95,000000	0,000000	591,000000	0,000000	2020-10-29T19:53:13:996
95,000000	0,000000	591,000000	0,000000	2020-10-29T19:53:14:053
95,000000	0,000000	591,000000	0,000000	2020-10-29T19:53:14:077
95,000000	0,000000	591,000000	0,000000	2020-10-29T19:53:14:163
95,000000	0,000000	591,000000	0,000000	2020-10-29T19:53:14:164
95,000000	0,000000	591,000000	0,000000	2020-10-29T19:53:14:198
95,000000	0,000000	591,000000	0,000000	2020-10-29T19:53:14:238
95,000000	0,000000	591,000000	0,000000	2020-10-29T19:53:14:275
95,000000	0,000000	591,000000	0,000000	2020-10-29T19:53:14:316
95,000000	0,000000	591,000000	0,000000	2020-10-29T19:53:14:354
95,000000	0,000000	591,000000	0,000000	2020-10-29T19:53:14:396
95,000000	0,000000	591,000000	0,000000	2020-10-29T19:53:14:435
95,000000	0,000000	591,000000	0,000000	2020-10-29T19:53:14:476
95,000000	0,000000	591,000000	0,000000	2020-10-29T19:53:14:515
95,000000	0,000000	591,000000	0,000000	2020-10-29T19:53:14:556
95,000000	0,000000	591,000000	0,000000	2020-10-29T19:53:14:596
95,000000	0,000000	591,000000	0,000000	2020-10-29T19:53:14:637
95,000000	0,000000	591,000000	0,000000	2020-10-29T19:53:14:675
95,000000	0,000000	591,000000	0,000000	2020-10-29T19:53:14:716
95,000000	0,000000	591,000000	0,000000	2020-10-29T19:53:14:756
95,000000	0,000000	591,000000	0,000000	2020-10-29T19:53:14:798
95,000000	0,000000	591,000000	0,000000	2020-10-29T19:53:14:835
95,000000	0,000000	591,000000	0,000000	2020-10-29T19:53:14:877
95,000000	0,000000	591,000000	0,000000	2020-10-29T19:53:14:916
95,000000	0,000000	591,000000	0,000000	2020-10-29T19:53:14:957
95,000000	0,000000	591,000000	0,000000	2020-10-29T19:53:14:996
95,000000	0,000000	591,000000	0,000000	2020-10-29T19:53:15:037
95,000000	0,000000	591,000000	0,000000	2020-10-29T19:53:15:078
95,000000	0,000000	591,000000	0,000000	2020-10-29T19:53:15:118
95,000000	0,000000	591,000000	0,000000	2020-10-29T19:53:15:157
95,000000	0,000000	591,000000	0,000000	2020-10-29T19:53:15:212
95,000000	0,000000	591,000000	0,000000	2020-10-29T19:53:15:243
95,000000	0,000000	591,000000	0,000000	2020-10-29T19:53:15:284
95,000000	0,000000	591,000000	0,000000	2020-10-29T19:53:15:318
95,000000	0,000000	591,000000	0,000000	2020-10-29T19:53:15:357
95,000000	0,000000	591,000000	0,000000	2020-10-29T19:53:15:399
95,000000	0,000000	591,000000	0,000000	2020-10-29T19:53:15:437
95,000000	0,000000	591,000000	0,000000	2020-10-29T19:53:15:477
95,000000	0,000000	591,000000	0,000000	2020-10-29T19:53:15:517
95,000000	0,000000	591,000000	0,000000	2020-10-29T19:53:15:556
95,000000	0,000000	591,000000	0,000000	2020-10-29T19:53:15:598
95,000000	0,000000	591,000000	0,000000	2020-10-29T19:53:15:636
95,000000	0,000000	591,000000	0,000000	2020-10-29T19:53:15:678
95,000000	0,000000	591,000000	0,000000	2020-10-29T19:53:15:717
95,000000	0,000000	591,000000	0,000000	2020-10-29T19:53:15:757
95,000000	0,000000	591,000000	0,000000	2020-10-29T19:53:15:797
96,000000	0,000000	591,000000	0,000000	2020-10-29T19:53:15:838
95,000000	0,000000	591,000000	0,000000	2020-10-29T19:53:15:877
95,000000	0,000000	591,000000	0,000000	2020-10-29T19:53:15:918
96,000000	0,000000	591,000000	0,000000	2020-10-29T19:53:15:957
96,000000	0,000000	591,000000	0,000000	2020-10-29T19:53:15:998
96,000000	0,000000	591,000000	0,000000	2020-10-29T19:53:16:037
96,000000	0,000000	591,000000	0,000000	2020-10-29T19:53:16:078
96,000000	0,000000	591,000000	0,000000	2020-10-29T19:53:16:117
96,000000	0,000000	591,000000	0,000000	2020-10-29T19:53:16:158
96,000000	0,000000	591,000000	0,000000	2020-10-29T19:53:16:238
96,000000	0,000000	591,000000	0,000000	2020-10-29T19:53:16:240
96,000000	0,000000	591,000000	0,000000	2020-10-29T19:53:16:290
96,000000	0,000000	591,000000	0,000000	2020-10-29T19:53:16:321
96,000000	0,000000	591,000000	0,000000	2020-10-29T19:53:16:357
96,000000	0,000000	591,000000	0,000000	2020-10-29T19:53:16:399
96,000000	0,000000	591,000000	0,000000	2020-10-29T19:53:16:438
96,000000	0,000000	609,000000	0,000000	2020-10-29T19:53:16:478
96,000000	0,000000	609,000000	0,000000	2020-10-29T19:53:16:517
96,000000	0,000000	609,000000	0,000000	2020-10-29T19:53:16:559
96,000000	0,000000	609,000000	0,000000	2020-10-29T19:53:16:597
96,000000	0,000000	609,000000	0,000000	2020-10-29T19:53:16:640
94,000000	0,000000	633,000000	0,000000	2020-10-29T19:53:55:148
94,000000	0,000000	633,000000	0,000000	2020-10-29T19:53:55:151
95,000000	0,000000	633,000000	0,000000	2020-10-29T19:53:55:189
95,000000	0,000000	633,000000	0,000000	2020-10-29T19:53:55:224
95,000000	0,000000	633,000000	0,000000	2020-10-29T19:53:55:284
95,000000	0,000000	633,000000	0,000000	2020-10-29T19:53:55:303
95,000000	0,000000	633,000000	0,000000	2020-10-29T19:53:55:342
95,000000	0,000000	633,000000	0,000000	2020-10-29T19:53:55:385
95,000000	0,000000	633,000000	0,000000	2020-10-29T19:53:55:424
95,000000	0,000000	633,000000	0,000000	2020-10-29T19:53:55:465
95,000000	0,000000	633,000000	0,000000	2020-10-29T19:53:55:504
95,000000	0,000000	633,000000	0,000000	2020-10-29T19:53:55:545
95,000000	0,000000	633,000000	0,000000	2020-10-29T19:53:55:584
95,000000	0,000000	633,000000	0,000000	2020-10-29T19:53:55:625
95,000000	0,000000	633,000000	0,000000	2020-10-29T19:53:55:664
95,000000	0,000000	633,000000	0,000000	2020-10-29T19:53:55:706
95,000000	0,000000	633,000000	0,000000	2020-10-29T19:53:55:744
95,000000	0,000000	633,000000	0,000000	2020-10-29T19:53:55:786
95,000000	0,000000	633,000000	0,000000	2020-10-29T19:53:55:825
95,000000	0,000000	633,000000	0,000000	2020-10-29T19:53:55:866
95,000000	0,000000	633,000000	0,000000	2020-10-29T19:53:55:905
95,000000	0,000000	633,000000	0,000000	2020-10-29T19:53:55:946
95,000000	0,000000	633,000000	0,000000	2020-10-29T19:53:55:984
95,000000	0,000000	633,000000	0,000000	2020-10-29T19:53:56:026
95,000000	0,000000	633,000000	0,000000	2020-10-29T19:53:56:065
96,000000	0,000000	633,000000	0,000000	2020-10-29T19:53:56:106
96,000000	0,000000	633,000000	0,000000	2020-10-29T19:53:56:145
96,000000	0,000000	633,000000	0,000000	2020-10-29T19:53:56:186
96,000000	0,000000	633,000000	0,000000	2020-10-29T19:53:56:224
96,000000	0,000000	633,000000	0,000000	2020-10-29T19:53:56:266
96,000000	0,000000	633,000000	0,000000	2020-10-29T19:53:56:305
96,000000	0,000000	633,000000	0,000000	2020-10-29T19:53:56:346
96,000000	0,000000	633,000000	0,000000	2020-10-29T19:53:56:385
96,000000	0,000000	633,000000	0,000000	2020-10-29T19:53:56:426
96,000000	0,000000	633,000000	0,000000	2020-10-29T19:53:56:465
96,000000	0,000000	633,000000	0,000000	2020-10-29T19:53:56:506
96,000000	0,000000	633,000000	0,000000	2020-10-29T19:53:56:545
96,000000	0,000000	633,000000	0,000000	2020-10-29T19:53:56:585
95,000000	0,000000	633,000000	0,000000	2020-10-29T19:53:56:625
96,000000	0,000000	633,000000	0,000000	2020-10-29T19:53:56:666
96,000000	0,000000	633,000000	0,000000	2020-10-29T19:53:56:706
96,000000	0,000000	633,000000	0,000000	2020-10-29T19:53:56:746
96,000000	0,000000	633,000000	0,000000	2020-10-29T19:53:56:785
96,000000	0,000000	633,000000	0,000000	2020-10-29T19:53:56:826
96,000000	0,000000	633,000000	0,000000	2020-10-29T19:53:56:866
96,000000	0,000000	633,000000	0,000000	2020-10-29T19:53:56:906
95,000000	0,000000	633,000000	0,000000	2020-10-29T19:53:56:945
96,000000	0,000000	633,000000	0,000000	2020-10-29T19:53:56:986
96,000000	0,000000	633,000000	0,000000	2020-10-29T19:53:57:025
96,000000	0,000000	633,000000	0,000000	2020-10-29T19:53:57:066
96,000000	0,000000	633,000000	0,000000	2020-10-29T19:53:57:106
96,000000	0,000000	633,000000	0,000000	2020-10-29T19:53:57:146
96,000000	0,000000	633,000000	0,000000	2020-10-29T19:53:57:186
95,000000	0,000000	633,000000	0,000000	2020-10-29T19:53:57:226
95,000000	0,000000	633,000000	0,000000	2020-10-29T19:53:57:266
95,000000	0,000000	633,000000	0,000000	2020-10-29T19:53:57:307
96,000000	0,000000	633,000000	0,000000	2020-10-29T19:53:57:345
96,000000	0,000000	633,000000	0,000000	2020-10-29T19:53:57:386
95,000000	0,000000	633,000000	0,000000	2020-10-29T19:53:57:425
95,000000	0,000000	633,000000	0,000000	2020-10-29T19:53:57:468
96,000000	0,000000	633,000000	0,000000	2020-10-29T19:53:57:506
96,000000	0,000000	633,000000	0,000000	2020-10-29T19:53:57:547
96,000000	0,000000	633,000000	0,000000	2020-10-29T19:53:57:586
96,000000	0,000000	633,000000	0,000000	2020-10-29T19:53:57:626
96,000000	0,000000	633,000000	0,000000	2020-10-29T19:53:57:667
95,000000	0,000000	633,000000	0,000000	2020-10-29T19:53:57:708
95,000000	0,000000	633,000000	0,000000	2020-10-29T19:53:57:746
95,000000	0,000000	633,000000	0,000000	2020-10-29T19:53:57:787
95,000000	0,000000	633,000000	0,000000	2020-10-29T19:53:57:826
95,000000	0,000000	633,000000	0,000000	2020-10-29T19:53:57:866
95,000000	0,000000	633,000000	0,000000	2020-10-29T19:53:57:906
95,000000	0,000000	633,000000	0,000000	2020-10-29T19:53:57:947
95,000000	0,000000	633,000000	0,000000	2020-10-29T19:53:57:986
95,000000	0,000000	633,000000	0,000000	2020-10-29T19:53:58:028
95,000000	0,000000	633,000000	0,000000	2020-10-29T19:53:58:067
95,000000	0,000000	633,000000	0,000000	2020-10-29T19:53:58:107
95,000000	0,000000	633,000000	0,000000	2020-10-29T19:53:58:146
95,000000	0,000000	633,000000	0,000000	2020-10-29T19:53:58:188
95,000000	0,000000	633,000000	0,000000	2020-10-29T19:53:58:226
95,000000	0,000000	633,000000	0,000000	2020-10-29T19:53:58:268
95,000000	0,000000	633,000000	0,000000	2020-10-29T19:53:58:306
95,000000	0,000000	633,000000	0,000000	2020-10-29T19:53:58:347
95,000000	0,000000	633,000000	0,000000	2020-10-29T19:53:58:386
95,000000	0,000000	633,000000	0,000000	2020-10-29T19:53:58:427
95,000000	0,000000	633,000000	0,000000	2020-10-29T19:53:58:467
95,000000	0,000000	633,000000	0,000000	2020-10-29T19:53:58:508
95,000000	0,000000	633,000000	0,000000	2020-10-29T19:53:58:546
95,000000	0,000000	633,000000	0,000000	2020-10-29T19:53:58:588
95,000000	0,000000	633,000000	0,000000	2020-10-29T19:53:58:626
95,000000	0,000000	633,000000	0,000000	2020-10-29T19:53:58:668
95,000000	0,000000	633,000000	0,000000	2020-10-29T19:53:58:707
95,000000	0,000000	633,000000	0,000000	2020-10-29T19:53:58:748
95,000000	0,000000	633,000000	0,000000	2020-10-29T19:53:58:788
95,000000	0,000000	633,000000	0,000000	2020-10-29T19:53:58:828
95,000000	0,000000	633,000000	0,000000	2020-10-29T19:53:58:867
95,000000	0,000000	633,000000	0,000000	2020-10-29T19:53:58:908
95,000000	0,000000	633,000000	0,000000	2020-10-29T19:53:58:946
95,000000	0,000000	633,000000	0,000000	2020-10-29T19:53:58:988
95,000000	0,000000	633,000000	0,000000	2020-10-29T19:53:59:027
95,000000	0,000000	633,000000	0,000000	2020-10-29T19:53:59:069
95,000000	0,000000	633,000000	0,000000	2020-10-29T19:53:59:107
95,000000	0,000000	633,000000	0,000000	2020-10-29T19:53:59:148
95,000000	0,000000	633,000000	0,000000	2020-10-29T19:53:59:186
95,000000	0,000000	633,000000	0,000000	2020-10-29T19:53:59:228
95,000000	0,000000	633,000000	0,000000	2020-10-29T19:53:59:269
95,000000	0,000000	633,000000	0,000000	2020-10-29T19:53:59:308
95,000000	0,000000	633,000000	0,000000	2020-10-29T19:53:59:347
95,000000	0,000000	633,000000	0,000000	2020-10-29T19:53:59:388
95,000000	0,000000	633,000000	0,000000	2020-10-29T19:53:59:427
95,000000	0,000000	633,000000	0,000000	2020-10-29T19:53:59:469
95,000000	0,000000	633,000000	0,000000	2020-10-29T19:53:59:510
95,000000	0,000000	633,000000	0,000000	2020-10-29T19:53:59:549
95,000000	0,000000	633,000000	0,000000	2020-10-29T19:53:59:588
95,000000	0,000000	633,000000	0,000000	2020-10-29T19:53:59:629
95,000000	0,000000	633,000000	0,000000	2020-10-29T19:53:59:668
95,000000	0,000000	633,000000	0,000000	2020-10-29T19:53:59:709
95,000000	0,000000	633,000000	0,000000	2020-10-29T19:53:59:748
95,000000	0,000000	633,000000	0,000000	2020-10-29T19:53:59:788
95,000000	0,000000	633,000000	0,000000	2020-10-29T19:53:59:828
95,000000	0,000000	633,000000	0,000000	2020-10-29T19:53:59:869
95,000000	0,000000	633,000000	0,000000	2020-10-29T19:53:59:908
95,000000	0,000000	633,000000	0,000000	2020-10-29T19:53:59:950
95,000000	0,000000	633,000000	0,000000	2020-10-29T19:53:59:988
95,000000	0,000000	633,000000	0,000000	2020-10-29T19:54:00:029
95,000000	0,000000	633,000000	0,000000	2020-10-29T19:54:00:070
95,000000	0,000000	633,000000	0,000000	2020-10-29T19:54:00:109
95,000000	0,000000	633,000000	0,000000	2020-10-29T19:54:00:148
95,000000	0,000000	633,000000	0,000000	2020-10-29T19:54:00:189
95,000000	0,000000	633,000000	0,000000	2020-10-29T19:54:00:228
95,000000	0,000000	633,000000	0,000000	2020-10-29T19:54:00:269
95,000000	0,000000	633,000000	0,000000	2020-10-29T19:54:00:309
95,000000	0,000000	633,000000	0,000000	2020-10-29T19:54:00:350
95,000000	0,000000	633,000000	0,000000	2020-10-29T19:54:00:389
95,000000	0,000000	633,000000	0,000000	2020-10-29T19:54:00:429
95,000000	0,000000	633,000000	0,000000	2020-10-29T19:54:00:470
95,000000	0,000000	633,000000	0,000000	2020-10-29T19:54:00:509
95,000000	0,000000	633,000000	0,000000	2020-10-29T19:54:00:548
95,000000	0,000000	633,000000	0,000000	2020-10-29T19:54:00:590
95,000000	0,000000	633,000000	0,000000	2020-10-29T19:54:00:629
95,000000	0,000000	633,000000	0,000000	2020-10-29T19:54:00:670
95,000000	0,000000	633,000000	0,000000	2020-10-29T19:54:00:710
95,000000	0,000000	633,000000	0,000000	2020-10-29T19:54:00:750
95,000000	0,000000	633,000000	0,000000	2020-10-29T19:54:00:789
95,000000	0,000000	633,000000	0,000000	2020-10-29T19:54:00:830
95,000000	0,000000	633,000000	0,000000	2020-10-29T19:54:00:869
95,000000	0,000000	633,000000	0,000000	2020-10-29T19:54:00:910
95,000000	0,000000	633,000000	0,000000	2020-10-29T19:54:00:949
95,000000	0,000000	633,000000	0,000000	2020-10-29T19:54:00:990
95,000000	0,000000	633,000000	0,000000	2020-10-29T19:54:01:029
95,000000	0,000000	633,000000	0,000000	2020-10-29T19:54:01:071
95,000000	0,000000	633,000000	0,000000	2020-10-29T19:54:01:109
96,000000	0,000000	633,000000	0,000000	2020-10-29T19:54:01:150
96,000000	0,000000	633,000000	0,000000	2020-10-29T19:54:01:190
96,000000	0,000000	633,000000	0,000000	2020-10-29T19:54:01:230
96,000000	0,000000	633,000000	0,000000	2020-10-29T19:54:01:270
96,000000	0,000000	633,000000	0,000000	2020-10-29T19:54:01:311
96,000000	0,000000	633,000000	0,000000	2020-10-29T19:54:01:350
96,000000	0,000000	633,000000	0,000000	2020-10-29T19:54:01:390
96,000000	0,000000	633,000000	0,000000	2020-10-29T19:54:01:430
96,000000	0,000000	633,000000	0,000000	2020-10-29T19:54:01:471
96,000000	0,000000	633,000000	0,000000	2020-10-29T19:54:01:510
96,000000	0,000000	633,000000	0,000000	2020-10-29T19:54:01:551
96,000000	0,000000	633,000000	0,000000	2020-10-29T19:54:01:590
96,000000	0,000000	633,000000	0,000000	2020-10-29T19:54:01:666
96,000000	0,000000	633,000000	0,000000	2020-10-29T19:54:01:828
96,000000	0,000000	633,000000	0,000000	2020-10-29T19:54:01:830
96,000000	0,000000	633,000000	0,000000	2020-10-29T19:54:01:830
95,000000	0,000000	633,000000	0,000000	2020-10-29T19:54:01:831
95,000000	0,000000	633,000000	0,000000	2020-10-29T19:54:01:833
96,000000	0,000000	633,000000	0,000000	2020-10-29T19:54:01:899
96,000000	0,000000	633,000000	0,000000	2020-10-29T19:54:02:002
95,000000	0,000000	633,000000	0,000000	2020-10-29T19:54:02:003
95,000000	0,000000	633,000000	0,000000	2020-10-29T19:54:02:095
95,000000	0,000000	633,000000	0,000000	2020-10-29T19:54:02:096
95,000000	0,000000	633,000000	0,000000	2020-10-29T19:54:02:097
95,000000	0,000000	633,000000	0,000000	2020-10-29T19:54:02:163
96,000000	0,000000	633,000000	0,000000	2020-10-29T19:54:02:164
96,000000	0,000000	633,000000	0,000000	2020-10-29T19:54:02:192
95,000000	0,000000	633,000000	0,000000	2020-10-29T19:54:02:278
95,000000	0,000000	633,000000	0,000000	2020-10-29T19:54:02:279
95,000000	0,000000	633,000000	0,000000	2020-10-29T19:54:02:370
95,000000	0,000000	633,000000	0,000000	2020-10-29T19:54:02:370
95,000000	0,000000	633,000000	0,000000	2020-10-29T19:54:02:387
95,000000	0,000000	633,000000	0,000000	2020-10-29T19:54:02:436
96,000000	0,000000	633,000000	0,000000	2020-10-29T19:54:02:469
96,000000	0,000000	633,000000	0,000000	2020-10-29T19:54:02:510
95,000000	0,000000	633,000000	0,000000	2020-10-29T19:54:02:562
95,000000	0,000000	633,000000	0,000000	2020-10-29T19:54:02:596
95,000000	0,000000	633,000000	0,000000	2020-10-29T19:54:02:657
95,000000	0,000000	633,000000	0,000000	2020-10-29T19:54:02:686
96,000000	0,000000	633,000000	0,000000	2020-10-29T19:54:02:718
96,000000	0,000000	633,000000	0,000000	2020-10-29T19:54:02:750
96,000000	0,000000	633,000000	0,000000	2020-10-29T19:54:02:790
96,000000	0,000000	633,000000	0,000000	2020-10-29T19:54:02:851
96,000000	0,000000	633,000000	0,000000	2020-10-29T19:54:02:897
96,000000	0,000000	633,000000	0,000000	2020-10-29T19:54:02:912
96,000000	0,000000	633,000000	0,000000	2020-10-29T19:54:02:949
96,000000	0,000000	633,000000	0,000000	2020-10-29T19:54:02:993
96,000000	0,000000	633,000000	0,000000	2020-10-29T19:54:03:029
96,000000	0,000000	633,000000	0,000000	2020-10-29T19:54:03:072
96,000000	0,000000	633,000000	0,000000	2020-10-29T19:54:03:111
96,000000	0,000000	633,000000	0,000000	2020-10-29T19:54:03:151
96,000000	0,000000	633,000000	0,000000	2020-10-29T19:54:03:192
96,000000	0,000000	633,000000	0,000000	2020-10-29T19:54:03:232
96,000000	0,000000	633,000000	0,000000	2020-10-29T19:54:03:271
96,000000	0,000000	633,000000	0,000000	2020-10-29T19:54:03:312
96,000000	0,000000	633,000000	0,000000	2020-10-29T19:54:03:352
96,000000	0,000000	633,000000	0,000000	2020-10-29T19:54:03:392
96,000000	0,000000	633,000000	0,000000	2020-10-29T19:54:03:431
96,000000	0,000000	633,000000	0,000000	2020-10-29T19:54:03:473
96,000000	0,000000	633,000000	0,000000	2020-10-29T19:54:03:511
96,000000	0,000000	633,000000	0,000000	2020-10-29T19:54:03:553
96,000000	0,000000	633,000000	0,000000	2020-10-29T19:54:03:592
96,000000	0,000000	633,000000	0,000000	2020-10-29T19:54:03:632
96,000000	0,000000	633,000000	0,000000	2020-10-29T19:54:03:672
96,000000	0,000000	633,000000	0,000000	2020-10-29T19:54:03:713
96,000000	0,000000	633,000000	0,000000	2020-10-29T19:54:03:752
96,000000	0,000000	633,000000	0,000000	2020-10-29T19:54:03:793
96,000000	0,000000	633,000000	0,000000	2020-10-29T19:54:03:833
96,000000	0,000000	633,000000	0,000000	2020-10-29T19:54:03:873
97,000000	0,000000	633,000000	0,000000	2020-10-29T19:54:03:912
97,000000	0,000000	633,000000	0,000000	2020-10-29T19:54:03:953
97,000000	0,000000	633,000000	0,000000	2020-10-29T19:54:03:992
97,000000	0,000000	633,000000	0,000000	2020-10-29T19:54:04:033
97,000000	0,000000	633,000000	0,000000	2020-10-29T19:54:04:073
97,000000	0,000000	633,000000	0,000000	2020-10-29T19:54:04:113
97,000000	0,000000	633,000000	0,000000	2020-10-29T19:54:04:157
97,000000	0,000000	633,000000	0,000000	2020-10-29T19:54:04:203
97,000000	0,000000	633,000000	0,000000	2020-10-29T19:54:04:233
97,000000	0,000000	633,000000	0,000000	2020-10-29T19:54:04:276
97,000000	0,000000	633,000000	0,000000	2020-10-29T19:54:04:341
97,000000	0,000000	633,000000	0,000000	2020-10-29T19:54:04:382
97,000000	0,000000	633,000000	0,000000	2020-10-29T19:54:04:484
97,000000	0,000000	633,000000	0,000000	2020-10-29T19:54:04:562
97,000000	0,000000	633,000000	0,000000	2020-10-29T19:54:04:563
97,000000	0,000000	633,000000	0,000000	2020-10-29T19:54:04:564
97,000000	0,000000	633,000000	0,000000	2020-10-29T19:54:04:564
97,000000	0,000000	633,000000	0,000000	2020-10-29T19:54:04:626
97,000000	0,000000	633,000000	0,000000	2020-10-29T19:54:04:653
97,000000	0,000000	633,000000	0,000000	2020-10-29T19:54:04:692
97,000000	0,000000	633,000000	0,000000	2020-10-29T19:54:04:714
97,000000	0,000000	633,000000	0,000000	2020-10-29T19:54:04:752
97,000000	0,000000	633,000000	0,000000	2020-10-29T19:54:04:813
97,000000	0,000000	633,000000	0,000000	2020-10-29T19:54:04:832
97,000000	0,000000	633,000000	0,000000	2020-10-29T19:54:04:896
98,000000	0,000000	633,000000	0,000000	2020-10-29T19:54:04:920
97,000000	0,000000	633,000000	0,000000	2020-10-29T19:54:04:957
97,000000	0,000000	633,000000	0,000000	2020-10-29T19:54:04:994
97,000000	0,000000	633,000000	0,000000	2020-10-29T19:54:05:031
98,000000	0,000000	633,000000	0,000000	2020-10-29T19:54:05:075
98,000000	0,000000	633,000000	0,000000	2020-10-29T19:54:05:154
98,000000	0,000000	633,000000	0,000000	2020-10-29T19:54:05:162
98,000000	0,000000	633,000000	0,000000	2020-10-29T19:54:05:198
98,000000	0,000000	633,000000	0,000000	2020-10-29T19:54:05:262
98,000000	0,000000	633,000000	0,000000	2020-10-29T19:54:05:280
98,000000	0,000000	633,000000	0,000000	2020-10-29T19:54:05:446
98,000000	0,000000	633,000000	0,000000	2020-10-29T19:54:05:448
98,000000	0,000000	633,000000	0,000000	2020-10-29T19:54:05:449
98,000000	0,000000	633,000000	0,000000	2020-10-29T19:54:05:469
98,000000	0,000000	633,000000	0,000000	2020-10-29T19:54:05:479
98,000000	0,000000	633,000000	0,000000	2020-10-29T19:54:05:512
98,000000	0,000000	633,000000	0,000000	2020-10-29T19:54:05:552
98,000000	0,000000	633,000000	0,000000	2020-10-29T19:54:05:642
98,000000	0,000000	633,000000	0,000000	2020-10-29T19:54:05:643
98,000000	0,000000	633,000000	0,000000	2020-10-29T19:54:05:736
98,000000	0,000000	633,000000	0,000000	2020-10-29T19:54:05:737
98,000000	0,000000	633,000000	0,000000	2020-10-29T19:54:05:760
98,000000	0,000000	633,000000	0,000000	2020-10-29T19:54:05:796
98,000000	0,000000	633,000000	0,000000	2020-10-29T19:54:05:833
98,000000	0,000000	633,000000	0,000000	2020-10-29T19:54:05:920
98,000000	0,000000	633,000000	0,000000	2020-10-29T19:54:05:923
98,000000	0,000000	633,000000	0,000000	2020-10-29T19:54:05:967
98,000000	0,000000	633,000000	0,000000	2020-10-29T19:54:05:999
98,000000	0,000000	633,000000	0,000000	2020-10-29T19:54:06:043
98,000000	0,000000	633,000000	0,000000	2020-10-29T19:54:06:074
98,000000	0,000000	633,000000	0,000000	2020-10-29T19:54:06:114
98,000000	0,000000	633,000000	0,000000	2020-10-29T19:54:06:154
98,000000	0,000000	633,000000	0,000000	2020-10-29T19:54:06:194
98,000000	0,000000	633,000000	0,000000	2020-10-29T19:54:06:234
98,000000	0,000000	633,000000	0,000000	2020-10-29T19:54:06:275
98,000000	0,000000	633,000000	0,000000	2020-10-29T19:54:06:314
98,000000	0,000000	633,000000	0,000000	2020-10-29T19:54:06:355
98,000000	0,000000	633,000000	0,000000	2020-10-29T19:54:06:394
98,000000	0,000000	633,000000	0,000000	2020-10-29T19:54:06:435
98,000000	0,000000	633,000000	0,000000	2020-10-29T19:54:06:475
98,000000	0,000000	633,000000	0,000000	2020-10-29T19:54:06:515
98,000000	0,000000	633,000000	0,000000	2020-10-29T19:54:06:554
98,000000	0,000000	633,000000	0,000000	2020-10-29T19:54:06:595
98,000000	0,000000	633,000000	0,000000	2020-10-29T19:54:06:634
97,000000	0,000000	633,000000	0,000000	2020-10-29T19:54:06:709
97,000000	0,000000	633,000000	0,000000	2020-10-29T19:54:06:717
98,000000	0,000000	633,000000	0,000000	2020-10-29T19:54:06:755
98,000000	0,000000	633,000000	0,000000	2020-10-29T19:54:06:795
98,000000	0,000000	633,000000	0,000000	2020-10-29T19:54:06:840
98,000000	0,000000	633,000000	0,000000	2020-10-29T19:54:06:875
98,000000	0,000000	633,000000	0,000000	2020-10-29T19:54:06:915
98,000000	0,000000	633,000000	0,000000	2020-10-29T19:54:06:955
98,000000	0,000000	633,000000	0,000000	2020-10-29T19:54:06:996
98,000000	0,000000	633,000000	0,000000	2020-10-29T19:54:07:034
98,000000	0,000000	633,000000	0,000000	2020-10-29T19:54:07:076
98,000000	0,000000	633,000000	0,000000	2020-10-29T19:54:07:115
98,000000	0,000000	633,000000	0,000000	2020-10-29T19:54:07:172
98,000000	0,000000	687,000000	0,000000	2020-10-29T19:54:08:252
98,000000	0,000000	687,000000	0,000000	2020-10-29T19:54:08:252
98,000000	0,000000	687,000000	0,000000	2020-10-29T19:54:08:255
98,000000	0,000000	687,000000	0,000000	2020-10-29T19:54:08:256
98,000000	0,000000	687,000000	0,000000	2020-10-29T19:54:08:262
98,000000	0,000000	687,000000	0,000000	2020-10-29T19:54:08:403
98,000000	0,000000	687,000000	0,000000	2020-10-29T19:54:08:404
98,000000	0,000000	687,000000	0,000000	2020-10-29T19:54:08:404
98,000000	0,000000	687,000000	0,000000	2020-10-29T19:54:08:416
98,000000	0,000000	687,000000	0,000000	2020-10-29T19:54:08:453
98,000000	0,000000	687,000000	0,000000	2020-10-29T19:54:08:617
98,000000	0,000000	687,000000	0,000000	2020-10-29T19:54:08:618
98,000000	0,000000	687,000000	0,000000	2020-10-29T19:54:08:619
98,000000	0,000000	687,000000	0,000000	2020-10-29T19:54:08:623
98,000000	0,000000	687,000000	0,000000	2020-10-29T19:54:08:658
98,000000	0,000000	687,000000	0,000000	2020-10-29T19:54:08:707
98,000000	0,000000	687,000000	0,000000	2020-10-29T19:54:08:770
98,000000	0,000000	687,000000	0,000000	2020-10-29T19:54:08:773
98,000000	0,000000	687,000000	0,000000	2020-10-29T19:54:08:814
98,000000	0,000000	687,000000	0,000000	2020-10-29T19:54:08:857
98,000000	0,000000	687,000000	0,000000	2020-10-29T19:54:08:897
98,000000	0,000000	687,000000	0,000000	2020-10-29T19:54:08:935
98,000000	0,000000	687,000000	0,000000	2020-10-29T19:54:08:982
98,000000	0,000000	687,000000	0,000000	2020-10-29T19:54:09:016
98,000000	0,000000	687,000000	0,000000	2020-10-29T19:54:09:058
98,000000	0,000000	687,000000	0,000000	2020-10-29T19:54:09:096
98,000000	0,000000	687,000000	0,000000	2020-10-29T19:54:09:143
97,000000	0,000000	687,000000	0,000000	2020-10-29T19:54:09:179
98,000000	0,000000	687,000000	0,000000	2020-10-29T19:54:09:215
98,000000	0,000000	687,000000	0,000000	2020-10-29T19:54:09:270
98,000000	0,000000	687,000000	0,000000	2020-10-29T19:54:09:306
98,000000	0,000000	687,000000	0,000000	2020-10-29T19:54:09:339
97,000000	0,000000	687,000000	0,000000	2020-10-29T19:54:09:487
97,000000	0,000000	687,000000	0,000000	2020-10-29T19:54:09:498
98,000000	0,000000	687,000000	0,000000	2020-10-29T19:54:09:507
98,000000	0,000000	687,000000	0,000000	2020-10-29T19:54:09:509
98,000000	0,000000	687,000000	0,000000	2020-10-29T19:54:09:536
98,000000	0,000000	687,000000	0,000000	2020-10-29T19:54:09:576
97,000000	0,000000	687,000000	0,000000	2020-10-29T19:54:09:617
98,000000	0,000000	687,000000	0,000000	2020-10-29T19:54:09:656
98,000000	0,000000	687,000000	0,000000	2020-10-29T19:54:09:699
97,000000	0,000000	687,000000	0,000000	2020-10-29T19:54:09:736
97,000000	0,000000	687,000000	0,000000	2020-10-29T19:54:09:776
97,000000	0,000000	687,000000	0,000000	2020-10-29T19:54:09:817
97,000000	0,000000	687,000000	0,000000	2020-10-29T19:54:09:856
97,000000	0,000000	687,000000	0,000000	2020-10-29T19:54:09:896
97,000000	0,000000	687,000000	0,000000	2020-10-29T19:54:09:938
97,000000	0,000000	687,000000	0,000000	2020-10-29T19:54:09:979
97,000000	0,000000	687,000000	0,000000	2020-10-29T19:54:10:018
97,000000	0,000000	687,000000	0,000000	2020-10-29T19:54:10:163
97,000000	0,000000	687,000000	0,000000	2020-10-29T19:54:10:395
97,000000	0,000000	687,000000	0,000000	2020-10-29T19:54:10:396
97,000000	0,000000	687,000000	0,000000	2020-10-29T19:54:10:397
97,000000	0,000000	687,000000	0,000000	2020-10-29T19:54:10:397
97,000000	0,000000	687,000000	0,000000	2020-10-29T19:54:10:419
97,000000	0,000000	687,000000	0,000000	2020-10-29T19:54:10:531
97,000000	0,000000	687,000000	0,000000	2020-10-29T19:54:10:531
97,000000	0,000000	687,000000	0,000000	2020-10-29T19:54:10:533
97,000000	0,000000	687,000000	0,000000	2020-10-29T19:54:10:535
97,000000	0,000000	687,000000	0,000000	2020-10-29T19:54:10:536
97,000000	0,000000	687,000000	0,000000	2020-10-29T19:54:10:536
97,000000	0,000000	687,000000	0,000000	2020-10-29T19:54:10:591
97,000000	0,000000	687,000000	0,000000	2020-10-29T19:54:10:591
97,000000	0,000000	687,000000	0,000000	2020-10-29T19:54:10:616
97,000000	0,000000	687,000000	0,000000	2020-10-29T19:54:10:666
97,000000	0,000000	687,000000	0,000000	2020-10-29T19:54:10:705
97,000000	0,000000	663,000000	0,000000	2020-10-29T19:54:10:771
97,000000	0,000000	663,000000	0,000000	2020-10-29T19:54:10:871
97,000000	0,000000	663,000000	0,000000	2020-10-29T19:54:10:871
96,000000	0,000000	663,000000	0,000000	2020-10-29T19:54:10:872
96,000000	0,000000	663,000000	0,000000	2020-10-29T19:54:11:049
97,000000	0,000000	663,000000	0,000000	2020-10-29T19:54:11:101
97,000000	0,000000	663,000000	0,000000	2020-10-29T19:54:11:412
97,000000	0,000000	663,000000	0,000000	2020-10-29T19:54:11:468
96,000000	0,000000	663,000000	0,000000	2020-10-29T19:54:11:476
97,000000	0,000000	663,000000	0,000000	2020-10-29T19:54:11:477
96,000000	0,000000	663,000000	0,000000	2020-10-29T19:54:11:479
96,000000	0,000000	663,000000	0,000000	2020-10-29T19:54:11:480
96,000000	0,000000	663,000000	0,000000	2020-10-29T19:54:11:480
96,000000	0,000000	663,000000	0,000000	2020-10-29T19:54:11:481
96,000000	0,000000	663,000000	0,000000	2020-10-29T19:54:11:481
96,000000	0,000000	663,000000	0,000000	2020-10-29T19:54:11:543
96,000000	0,000000	663,000000	0,000000	2020-10-29T19:54:11:544
96,000000	0,000000	663,000000	0,000000	2020-10-29T19:54:11:545
96,000000	0,000000	663,000000	0,000000	2020-10-29T19:54:11:547
96,000000	0,000000	663,000000	0,000000	2020-10-29T19:54:11:562
96,000000	0,000000	663,000000	0,000000	2020-10-29T19:54:11:565
96,000000	0,000000	663,000000	0,000000	2020-10-29T19:54:11:578
96,000000	0,000000	663,000000	0,000000	2020-10-29T19:54:11:620
96,000000	0,000000	663,000000	0,000000	2020-10-29T19:54:11:656
96,000000	0,000000	663,000000	0,000000	2020-10-29T19:54:11:697
96,000000	0,000000	663,000000	0,000000	2020-10-29T19:54:11:736
96,000000	0,000000	663,000000	0,000000	2020-10-29T19:54:11:777
96,000000	0,000000	663,000000	0,000000	2020-10-29T19:54:11:816
96,000000	0,000000	663,000000	0,000000	2020-10-29T19:54:11:858
96,000000	0,000000	663,000000	0,000000	2020-10-29T19:54:11:896
96,000000	0,000000	663,000000	0,000000	2020-10-29T19:54:11:938
96,000000	0,000000	663,000000	0,000000	2020-10-29T19:54:11:977
96,000000	0,000000	663,000000	0,000000	2020-10-29T19:54:12:022
96,000000	0,000000	663,000000	0,000000	2020-10-29T19:54:12:069
96,000000	0,000000	663,000000	0,000000	2020-10-29T19:54:12:118
96,000000	0,000000	663,000000	0,000000	2020-10-29T19:54:12:286
96,000000	0,000000	663,000000	0,000000	2020-10-29T19:54:12:287
96,000000	0,000000	663,000000	0,000000	2020-10-29T19:54:12:301
96,000000	0,000000	663,000000	0,000000	2020-10-29T19:54:12:302
96,000000	0,000000	663,000000	0,000000	2020-10-29T19:54:12:303
96,000000	0,000000	663,000000	0,000000	2020-10-29T19:54:12:352
96,000000	0,000000	663,000000	0,000000	2020-10-29T19:54:12:377
96,000000	0,000000	663,000000	0,000000	2020-10-29T19:54:12:418
96,000000	0,000000	663,000000	0,000000	2020-10-29T19:54:12:458
96,000000	0,000000	663,000000	0,000000	2020-10-29T19:54:12:500
96,000000	0,000000	663,000000	0,000000	2020-10-29T19:54:12:539
96,000000	0,000000	663,000000	0,000000	2020-10-29T19:54:12:632
96,000000	0,000000	663,000000	0,000000	2020-10-29T19:54:12:634
96,000000	0,000000	663,000000	0,000000	2020-10-29T19:54:12:705
96,000000	0,000000	663,000000	0,000000	2020-10-29T19:54:12:711
96,000000	0,000000	663,000000	0,000000	2020-10-29T19:54:12:743
96,000000	0,000000	663,000000	0,000000	2020-10-29T19:54:12:777
96,000000	0,000000	663,000000	0,000000	2020-10-29T19:54:12:819
96,000000	0,000000	663,000000	0,000000	2020-10-29T19:54:12:857
96,000000	0,000000	663,000000	0,000000	2020-10-29T19:54:12:899
96,000000	0,000000	663,000000	0,000000	2020-10-29T19:54:12:972
96,000000	0,000000	663,000000	0,000000	2020-10-29T19:54:13:021
96,000000	0,000000	663,000000	0,000000	2020-10-29T19:54:13:022
96,000000	0,000000	663,000000	0,000000	2020-10-29T19:54:13:071
96,000000	0,000000	663,000000	0,000000	2020-10-29T19:54:13:097
96,000000	0,000000	663,000000	0,000000	2020-10-29T19:54:13:150
96,000000	0,000000	663,000000	0,000000	2020-10-29T19:54:13:180
96,000000	0,000000	663,000000	0,000000	2020-10-29T19:54:13:219
96,000000	0,000000	663,000000	0,000000	2020-10-29T19:54:13:260
96,000000	0,000000	663,000000	0,000000	2020-10-29T19:54:13:300
96,000000	0,000000	663,000000	0,000000	2020-10-29T19:54:13:340
96,000000	0,000000	663,000000	0,000000	2020-10-29T19:54:13:381
96,000000	0,000000	663,000000	0,000000	2020-10-29T19:54:13:427
96,000000	0,000000	663,000000	0,000000	2020-10-29T19:54:13:460
96,000000	0,000000	663,000000	0,000000	2020-10-29T19:54:13:499
96,000000	0,000000	663,000000	0,000000	2020-10-29T19:54:13:782
96,000000	0,000000	663,000000	0,000000	2020-10-29T19:54:13:783
96,000000	0,000000	663,000000	0,000000	2020-10-29T19:54:13:783
96,000000	0,000000	663,000000	0,000000	2020-10-29T19:54:13:785
96,000000	0,000000	663,000000	0,000000	2020-10-29T19:54:13:785
96,000000	0,000000	663,000000	0,000000	2020-10-29T19:54:13:786
96,000000	0,000000	663,000000	0,000000	2020-10-29T19:54:13:787
96,000000	0,000000	663,000000	0,000000	2020-10-29T19:54:13:842
96,000000	0,000000	663,000000	0,000000	2020-10-29T19:54:13:859
96,000000	0,000000	663,000000	0,000000	2020-10-29T19:54:13:899
96,000000	0,000000	663,000000	0,000000	2020-10-29T19:54:13:939
96,000000	0,000000	663,000000	0,000000	2020-10-29T19:54:14:011
96,000000	0,000000	663,000000	0,000000	2020-10-29T19:54:14:030
97,000000	0,000000	663,000000	0,000000	2020-10-29T19:54:14:061
97,000000	0,000000	663,000000	0,000000	2020-10-29T19:54:14:101
96,000000	0,000000	663,000000	0,000000	2020-10-29T19:54:14:140
96,000000	0,000000	663,000000	0,000000	2020-10-29T19:54:14:182
96,000000	0,000000	663,000000	0,000000	2020-10-29T19:54:14:222
96,000000	0,000000	663,000000	0,000000	2020-10-29T19:54:14:264
96,000000	0,000000	663,000000	0,000000	2020-10-29T19:54:14:302
96,000000	0,000000	663,000000	0,000000	2020-10-29T19:54:14:340
97,000000	0,000000	663,000000	0,000000	2020-10-29T19:54:14:380
97,000000	0,000000	663,000000	0,000000	2020-10-29T19:54:14:425
96,000000	0,000000	663,000000	0,000000	2020-10-29T19:54:14:470
96,000000	0,000000	663,000000	0,000000	2020-10-29T19:54:14:502
96,000000	0,000000	610,000000	0,000000	2020-10-29T19:54:14:540
96,000000	0,000000	610,000000	0,000000	2020-10-29T19:54:14:585
96,000000	0,000000	610,000000	0,000000	2020-10-29T19:54:14:620
96,000000	0,000000	610,000000	0,000000	2020-10-29T19:54:14:672
96,000000	0,000000	610,000000	0,000000	2020-10-29T19:54:14:702
96,000000	0,000000	610,000000	0,000000	2020-10-29T19:54:14:741
96,000000	0,000000	610,000000	0,000000	2020-10-29T19:54:14:781
96,000000	0,000000	610,000000	0,000000	2020-10-29T19:54:14:822
96,000000	0,000000	610,000000	0,000000	2020-10-29T19:54:14:863
96,000000	0,000000	610,000000	0,000000	2020-10-29T19:54:14:902
96,000000	0,000000	610,000000	0,000000	2020-10-29T19:54:14:942
96,000000	0,000000	610,000000	0,000000	2020-10-29T19:54:14:986
96,000000	0,000000	610,000000	0,000000	2020-10-29T19:54:15:022
96,000000	0,000000	610,000000	0,000000	2020-10-29T19:54:15:064
96,000000	0,000000	610,000000	0,000000	2020-10-29T19:54:15:102
96,000000	0,000000	675,000000	0,000000	2020-10-29T19:54:15:141
96,000000	0,000000	675,000000	0,000000	2020-10-29T19:54:15:181
96,000000	0,000000	675,000000	0,000000	2020-10-29T19:54:15:222
96,000000	0,000000	675,000000	0,000000	2020-10-29T19:54:15:262
