x	y	z	ts
-1,846637	-0,991727	0,194354	2020-10-29T19:52:02:284
0,070213	-0,033648	-0,184048	2020-10-29T19:52:02:284
-0,071357	-0,031396	-0,043728	2020-10-29T19:52:02:285
-0,262482	-0,039790	0,024924	2020-10-29T19:52:02:285
-0,027321	0,094243	0,221803	2020-10-29T19:52:02:286
-0,108677	0,089457	0,324695	2020-10-29T19:52:02:302
0,013138	0,182302	0,435362	2020-10-29T19:52:02:323
-0,633469	0,021473	0,725188	2020-10-29T19:52:02:341
-0,296693	-0,075459	0,751217	2020-10-29T19:52:02:363
-0,223242	-0,635368	0,737798	2020-10-29T19:52:02:382
-0,283034	-0,890157	0,892809	2020-10-29T19:52:02:403
-0,250599	-1,086920	0,697725	2020-10-29T19:52:02:421
-0,144515	-1,204005	0,381269	2020-10-29T19:52:02:443
-0,052790	-1,414266	0,219709	2020-10-29T19:52:02:462
0,078074	-1,418938	0,338104	2020-10-29T19:52:02:483
0,065359	-1,485182	0,304785	2020-10-29T19:52:02:502
-0,136236	-1,384068	0,107368	2020-10-29T19:52:02:523
-0,268616	-1,418130	0,172944	2020-10-29T19:52:02:541
-0,493052	-1,570974	0,170960	2020-10-29T19:52:02:563
-0,639845	-1,814904	0,044839	2020-10-29T19:52:02:582
-0,620283	-1,954990	-0,174565	2020-10-29T19:52:02:604
-0,270203	-1,819081	-0,553446	2020-10-29T19:52:02:622
0,086297	-2,023036	-0,296834	2020-10-29T19:52:02:643
0,272904	-2,036158	0,073640	2020-10-29T19:52:02:662
0,417141	-1,493170	0,141818	2020-10-29T19:52:02:683
0,278604	-1,233444	0,148740	2020-10-29T19:52:02:703
0,319521	-1,161015	0,121942	2020-10-29T19:52:02:723
0,390325	-1,199613	0,436609	2020-10-29T19:52:02:742
0,296844	-1,057095	0,296311	2020-10-29T19:52:02:764
0,026611	-0,696738	-0,150968	2020-10-29T19:52:02:785
0,110627	-0,540276	-0,616123	2020-10-29T19:52:02:803
0,018709	-0,571584	-0,817048	2020-10-29T19:52:02:822
0,133383	-0,622328	-0,965427	2020-10-29T19:52:02:844
0,194911	-0,672627	-1,311021	2020-10-29T19:52:02:862
0,126663	-0,787698	-1,282228	2020-10-29T19:52:02:884
0,094235	-0,788405	-1,427886	2020-10-29T19:52:02:902
-0,049719	-0,760903	-1,491282	2020-10-29T19:52:02:923
-0,286248	-0,948103	-1,708320	2020-10-29T19:52:02:943
-0,356229	-0,724569	-2,094532	2020-10-29T19:52:02:964
-0,413783	-0,818939	-2,501634	2020-10-29T19:52:02:982
-0,494043	-1,193805	-2,744560	2020-10-29T19:52:03:004
-0,838000	-1,291710	-2,717087	2020-10-29T19:52:03:022
-0,945349	-1,081944	-2,819769	2020-10-29T19:52:03:044
-1,128600	-1,035679	-3,090610	2020-10-29T19:52:03:062
-1,330207	-0,949736	-3,126535	2020-10-29T19:52:03:084
1,209517	-4,205078	-1,058607	2020-10-29T19:52:03:103
1,484377	-4,585062	-1,229062	2020-10-29T19:52:03:124
1,233759	-5,400988	-1,419118	2020-10-29T19:52:03:142
1,022552	-6,658634	-1,537743	2020-10-29T19:52:03:164
0,480251	-7,992432	-1,260941	2020-10-29T19:52:03:183
-0,565394	-9,848728	-0,383401	2020-10-29T19:52:03:204
-1,956333	-11,782831	0,989017	2020-10-29T19:52:03:222
-4,432913	-14,497072	3,857818	2020-10-29T19:52:03:244
-6,106642	0,788660	4,631769	2020-10-29T19:52:03:262
-7,322544	-1,717608	5,022558	2020-10-29T19:52:03:284
-8,845936	-3,053336	5,261513	2020-10-29T19:52:03:303
-9,650513	-1,327710	4,244842	2020-10-29T19:52:03:324
-8,807440	1,520526	1,929704	2020-10-29T19:52:03:342
-8,953182	1,553810	-0,364682	2020-10-29T19:52:03:365
-7,418251	1,307771	-3,972030	2020-10-29T19:52:03:383
-8,826448	9,090130	0,408127	2020-10-29T19:52:03:405
-9,783272	3,667372	-1,778561	2020-10-29T19:52:03:423
-8,978963	-4,865119	-1,535650	2020-10-29T19:52:03:444
-7,885943	-3,111793	-1,604622	2020-10-29T19:52:03:462
-6,658373	1,919703	-2,348144	2020-10-29T19:52:03:485
-4,441926	2,686221	-2,796837	2020-10-29T19:52:03:503
-2,341664	2,198065	-2,461002	2020-10-29T19:52:03:524
-1,303059	2,857274	-1,571136	2020-10-29T19:52:03:544
-0,656007	3,103436	-0,589070	2020-10-29T19:52:03:566
-0,192639	2,456849	0,001053	2020-10-29T19:52:03:593
-0,688043	1,454551	0,124174	2020-10-29T19:52:03:768
-1,727380	0,665812	0,548178	2020-10-29T19:52:03:769
-2,586980	0,255384	0,829468	2020-10-29T19:52:03:770
-3,260355	0,179320	1,029785	2020-10-29T19:52:03:771
-3,188472	0,034818	1,256849	2020-10-29T19:52:03:772
-2,398592	-0,204126	1,611197	2020-10-29T19:52:03:773
-1,509545	-1,056081	2,292004	2020-10-29T19:52:03:774
-0,993225	0,151885	1,966233	2020-10-29T19:52:03:775
-1,149761	1,715236	1,915555	2020-10-29T19:52:03:775
-1,387205	1,662698	2,249226	2020-10-29T19:52:03:825
-1,714447	-0,611960	0,502521	2020-10-29T19:52:03:825
-2,219333	-0,011362	0,725053	2020-10-29T19:52:03:826
-2,470445	-0,716202	0,269616	2020-10-29T19:52:03:847
-0,631350	-1,357002	-3,030091	2020-10-29T19:52:03:863
-3,391010	-2,837096	-4,351120	2020-10-29T19:52:03:885
-2,455438	1,583713	0,284678	2020-10-29T19:52:03:908
-1,613164	1,143434	-0,220208	2020-10-29T19:52:03:928
-2,117315	-7,270101	2,267114	2020-10-29T19:52:03:945
-2,377260	-7,178845	1,917886	2020-10-29T19:52:03:967
-2,312620	-8,796404	1,033688	2020-10-29T19:52:03:985
-1,276564	-9,409704	-0,421144	2020-10-29T19:52:04:007
-0,946239	-10,418629	-1,067153	2020-10-29T19:52:04:025
-0,948460	-10,554983	-0,676031	2020-10-29T19:52:04:047
-1,503683	-8,428865	-0,317648	2020-10-29T19:52:04:065
-1,546103	-6,768151	-0,169242	2020-10-29T19:52:04:087
-1,177656	-5,850636	0,308467	2020-10-29T19:52:04:105
-1,145417	-4,790252	0,249331	2020-10-29T19:52:04:127
-1,946329	-3,657098	-0,379141	2020-10-29T19:52:04:146
-3,109294	-3,208104	-0,195405	2020-10-29T19:52:04:176
-1,912793	-3,040676	0,559431	2020-10-29T19:52:04:185
0,075850	0,010654	-0,065848	2020-10-29T19:52:04:211
0,549629	-0,295627	0,192577	2020-10-29T19:52:04:227
1,005344	0,193249	-0,422848	2020-10-29T19:52:04:273
2,266361	-0,287708	-0,322349	2020-10-29T19:52:04:274
2,592968	0,947251	-1,548652	2020-10-29T19:52:04:287
2,894463	0,798896	-1,723329	2020-10-29T19:52:04:311
2,265948	0,924828	-1,127463	2020-10-29T19:52:04:328
0,933146	0,987041	-0,991072	2020-10-29T19:52:04:344
0,363526	0,815861	-0,444418	2020-10-29T19:52:04:367
-0,112000	1,262068	-0,342671	2020-10-29T19:52:04:386
-0,468362	1,588779	-0,467813	2020-10-29T19:52:04:408
-0,482596	1,538028	-0,566243	2020-10-29T19:52:04:425
-0,067756	1,126138	-0,914453	2020-10-29T19:52:04:448
0,359034	0,550904	-1,353884	2020-10-29T19:52:04:465
0,685063	0,135193	-1,614395	2020-10-29T19:52:04:488
0,916893	-0,204240	-1,688865	2020-10-29T19:52:04:506
0,771069	-0,734037	-1,216968	2020-10-29T19:52:04:528
0,445791	-1,493386	-0,708801	2020-10-29T19:52:04:546
0,093147	-2,345940	-0,109634	2020-10-29T19:52:04:571
-0,046235	-2,993690	0,684430	2020-10-29T19:52:04:592
0,386508	-0,262961	2,255074	2020-10-29T19:52:17:089
-0,157311	-0,765310	2,671432	2020-10-29T19:52:17:150
-0,129140	-0,999310	3,359055	2020-10-29T19:52:17:151
-0,003321	-0,952130	3,861947	2020-10-29T19:52:17:153
0,230557	-0,551437	3,339713	2020-10-29T19:52:17:158
0,748731	-0,207839	2,649228	2020-10-29T19:52:17:175
1,327157	-0,347807	2,220890	2020-10-29T19:52:17:191
1,310966	0,033419	-0,302816	2020-10-29T19:52:17:218
0,717546	-0,342254	0,297783	2020-10-29T19:52:17:232
-0,301067	-0,245626	1,130423	2020-10-29T19:52:17:258
-0,840551	-0,564053	2,212374	2020-10-29T19:52:17:274
-1,741795	-0,314052	0,743667	2020-10-29T19:52:17:297
-1,806402	-1,639676	0,332101	2020-10-29T19:52:17:313
-1,709091	-1,658371	0,380116	2020-10-29T19:52:17:336
-1,234577	-2,321615	0,430336	2020-10-29T19:52:17:353
-0,725756	-2,679972	0,649211	2020-10-29T19:52:17:376
-0,152279	-2,907576	1,036350	2020-10-29T19:52:17:394
0,366646	-3,063427	1,535964	2020-10-29T19:52:17:417
0,864905	-2,669796	1,697029	2020-10-29T19:52:17:432
0,904107	-1,929681	1,448119	2020-10-29T19:52:17:456
1,090700	-1,516108	1,561204	2020-10-29T19:52:17:473
1,301549	-1,234054	1,985835	2020-10-29T19:52:17:497
0,799494	-1,199728	2,102945	2020-10-29T19:52:17:512
-1,205650	-1,582502	1,476801	2020-10-29T19:52:17:535
-4,835381	-1,917188	1,566468	2020-10-29T19:52:17:552
-4,433621	-2,970037	1,528341	2020-10-29T19:52:17:577
-3,318493	-3,514481	0,965399	2020-10-29T19:52:17:592
-1,276923	-4,805163	0,589646	2020-10-29T19:52:17:615
-0,287499	-4,815680	0,257896	2020-10-29T19:52:17:633
-1,149282	-3,855851	0,103293	2020-10-29T19:52:17:656
-2,159575	-3,169272	0,148727	2020-10-29T19:52:17:672
-2,804879	-2,136209	-0,207337	2020-10-29T19:52:17:696
-3,317887	-1,102543	-0,579251	2020-10-29T19:52:17:712
-3,284158	-0,602780	-1,132403	2020-10-29T19:52:17:736
-3,277962	-0,361405	-1,318076	2020-10-29T19:52:17:753
-2,850992	0,218964	-1,700724	2020-10-29T19:52:17:776
-2,595332	0,883523	-1,577112	2020-10-29T19:52:17:793
-2,387621	1,099976	-0,929103	2020-10-29T19:52:17:817
-2,085330	1,385336	-0,156339	2020-10-29T19:52:17:833
-0,988232	-0,410650	0,164238	2020-10-29T19:52:17:856
-1,429519	0,444960	-0,174717	2020-10-29T19:52:17:875
-1,525231	0,523923	-0,062254	2020-10-29T19:52:17:897
-0,665806	-0,472440	0,152050	2020-10-29T19:52:17:913
-0,134029	-0,357340	0,015381	2020-10-29T19:52:17:936
0,054914	0,355483	-0,026328	2020-10-29T19:52:17:953
0,185646	1,136190	0,450907	2020-10-29T19:52:17:977
0,508529	1,505667	0,488564	2020-10-29T19:52:17:993
1,262572	0,278876	-0,446952	2020-10-29T19:52:18:016
1,810529	0,400910	-0,698198	2020-10-29T19:52:18:033
2,339930	0,502064	-0,785916	2020-10-29T19:52:18:057
2,369232	0,662609	-0,989773	2020-10-29T19:52:18:073
2,286522	0,448889	-0,748431	2020-10-29T19:52:18:097
2,281736	0,357962	-0,781930	2020-10-29T19:52:18:115
2,202186	0,583619	-0,900491	2020-10-29T19:52:18:137
2,194461	0,367880	-0,934981	2020-10-29T19:52:18:153
2,190284	0,004237	-0,940061	2020-10-29T19:52:18:176
0,953726	-0,002961	-1,737388	2020-10-29T19:52:18:193
-1,272905	-0,210809	0,105701	2020-10-29T19:52:18:218
-2,529137	-0,904728	-0,219723	2020-10-29T19:52:18:233
-3,595940	-0,617474	0,074646	2020-10-29T19:52:18:256
-2,899882	-1,584630	0,562922	2020-10-29T19:52:18:273
-1,584406	-2,882567	0,959179	2020-10-29T19:52:18:298
-1,960784	-3,077056	1,327217	2020-10-29T19:52:18:313
-2,699888	-3,706881	2,269274	2020-10-29T19:52:18:336
-2,986100	-4,366690	3,060400	2020-10-29T19:52:18:354
-2,869491	-4,929186	3,411848	2020-10-29T19:52:18:377
-1,993267	-5,487674	3,273962	2020-10-29T19:52:18:394
-0,699029	-5,735737	2,851771	2020-10-29T19:52:18:416
0,236559	-5,361434	2,233302	2020-10-29T19:52:18:433
0,492351	-4,366961	1,536068	2020-10-29T19:52:18:457
0,590052	-3,453463	0,654238	2020-10-29T19:52:18:474
0,405949	-3,129772	0,232522	2020-10-29T19:52:18:497
-1,635000	-7,584975	0,556327	2020-10-29T19:52:18:513
-1,535497	-7,543999	0,979120	2020-10-29T19:52:18:537
-0,836322	-7,438342	1,485583	2020-10-29T19:52:18:553
-0,196345	-7,341470	1,732354	2020-10-29T19:52:18:576
0,641112	-6,366650	1,872084	2020-10-29T19:52:18:595
1,047758	-1,463586	1,771744	2020-10-29T19:52:18:617
1,291554	-4,683489	1,631073	2020-10-29T19:52:18:633
1,271092	-4,775881	1,590108	2020-10-29T19:52:18:656
1,515347	-4,775891	1,518744	2020-10-29T19:52:18:675
1,735250	-4,509863	1,465295	2020-10-29T19:52:18:697
1,919622	-4,056017	1,659594	2020-10-29T19:52:18:715
1,731138	-3,878848	2,188672	2020-10-29T19:52:18:736
1,409358	-3,885464	2,489974	2020-10-29T19:52:18:755
0,678032	-3,768235	2,814332	2020-10-29T19:52:18:778
0,169873	-4,055062	3,154678	2020-10-29T19:52:18:795
-0,119399	-4,462775	3,726017	2020-10-29T19:52:18:816
-0,767303	-4,578093	4,297859	2020-10-29T19:52:18:836
-3,804476	-4,524086	5,520805	2020-10-29T19:52:18:857
-5,058581	-4,472218	6,100273	2020-10-29T19:52:18:875
-5,403800	-1,438697	2,043014	2020-10-29T19:52:18:898
-3,456041	-0,885956	1,700841	2020-10-29T19:52:18:914
-1,002872	-0,327043	0,458984	2020-10-29T19:52:18:938
-0,411844	-0,049475	-0,007616	2020-10-29T19:52:18:955
-1,254384	0,180798	0,217533	2020-10-29T19:52:18:977
-2,465604	0,224101	-0,112014	2020-10-29T19:52:18:995
-2,672771	-0,539315	0,645933	2020-10-29T19:52:19:019
-2,629700	-0,496244	-0,028843	2020-10-29T19:52:19:035
-2,215218	-0,499792	0,256160	2020-10-29T19:52:19:056
-2,427433	0,161123	-0,035273	2020-10-29T19:52:19:076
-2,536046	1,039259	-0,048509	2020-10-29T19:52:19:097
-2,576928	1,650740	-0,262874	2020-10-29T19:52:19:115
-2,053076	1,861656	-0,527575	2020-10-29T19:52:19:137
-1,744899	1,833212	-1,077000	2020-10-29T19:52:19:154
-1,617114	1,811709	-1,821834	2020-10-29T19:52:19:178
-1,860446	2,067679	-2,477926	2020-10-29T19:52:19:195
-0,505525	-0,091225	0,040391	2020-10-29T19:52:19:217
-0,421776	-0,282651	-0,162999	2020-10-29T19:52:19:235
-0,482342	-0,077342	0,142073	2020-10-29T19:52:19:258
-0,315798	0,486216	0,124017	2020-10-29T19:52:19:274
-0,367759	0,811145	0,338923	2020-10-29T19:52:19:297
-0,520657	0,816955	0,343916	2020-10-29T19:52:19:316
-0,320251	1,121504	0,046674	2020-10-29T19:52:19:338
0,091227	1,229441	-0,406807	2020-10-29T19:52:19:354
0,946920	0,226139	-0,125271	2020-10-29T19:52:19:392
1,265166	-0,049036	0,317401	2020-10-29T19:52:19:399
1,507683	0,066275	0,558058	2020-10-29T19:52:19:418
1,898999	-0,366327	1,239058	2020-10-29T19:52:19:435
1,033323	0,549024	-0,589370	2020-10-29T19:52:19:458
1,739206	0,539453	-0,859758	2020-10-29T19:52:19:475
0,983363	0,580203	-1,427639	2020-10-29T19:52:19:498
-0,296482	0,008535	-1,602224	2020-10-29T19:52:19:514
-0,951947	-0,025287	-1,246069	2020-10-29T19:52:19:537
-0,323360	0,060671	-1,133816	2020-10-29T19:52:19:555
0,023647	-0,512718	-0,764670	2020-10-29T19:52:19:578
0,054102	-1,481754	-0,427315	2020-10-29T19:52:19:595
-0,771562	-0,544081	0,327387	2020-10-29T19:52:19:618
-0,934274	-1,010681	0,466170	2020-10-29T19:52:19:634
-1,040775	-0,994423	0,719141	2020-10-29T19:52:19:658
-0,987474	-1,111297	0,938124	2020-10-29T19:52:19:675
-0,855626	-0,692704	0,982512	2020-10-29T19:52:19:698
-0,463592	-0,214474	0,755602	2020-10-29T19:52:19:715
-0,000188	-0,010465	0,006347	2020-10-29T19:52:19:739
0,217558	1,085447	-0,103723	2020-10-29T19:52:19:755
0,491594	0,699626	-0,662629	2020-10-29T19:52:19:778
0,835838	0,308864	-0,339171	2020-10-29T19:52:19:797
0,722277	0,247245	-0,250903	2020-10-29T19:52:19:819
0,124071	0,024713	-0,435150	2020-10-29T19:52:19:835
-0,659144	-0,238019	0,215992	2020-10-29T19:52:19:858
0,051523	-0,252375	0,261456	2020-10-29T19:52:19:875
0,656265	0,255222	-0,278835	2020-10-29T19:52:19:899
1,532038	0,468184	-0,364977	2020-10-29T19:52:19:915
1,061495	0,715654	-0,936437	2020-10-29T19:52:19:937
-0,045842	0,922118	-0,598362	2020-10-29T19:52:19:955
0,308177	0,987668	-0,106097	2020-10-29T19:52:19:980
1,430650	1,162996	-0,643905	2020-10-29T19:52:19:995
1,455147	0,835619	-1,297546	2020-10-29T19:52:20:018
1,269870	0,344010	-1,126679	2020-10-29T19:52:20:036
1,091752	0,418603	-0,826161	2020-10-29T19:52:20:059
1,394100	0,548982	-1,017929	2020-10-29T19:52:20:075
1,937854	-0,135643	-1,007314	2020-10-29T19:52:20:098
1,920177	-0,940668	-0,716969	2020-10-29T19:52:20:115
1,780311	-0,470278	0,025204	2020-10-29T19:52:20:139
1,401321	0,761681	0,561931	2020-10-29T19:52:20:155
1,277723	1,172812	0,888891	2020-10-29T19:52:20:178
1,517544	0,038886	1,272498	2020-10-29T19:52:20:195
2,038621	-0,326915	1,226216	2020-10-29T19:52:20:219
2,176348	-0,671792	1,639414	2020-10-29T19:52:20:236
2,524112	-2,961882	1,263500	2020-10-29T19:52:20:259
2,354388	-3,352265	1,448612	2020-10-29T19:52:20:277
1,525066	-3,250379	1,548176	2020-10-29T19:52:20:299
-0,668742	-3,137864	1,576934	2020-10-29T19:52:20:315
-0,916280	-3,492839	0,770291	2020-10-29T19:52:20:339
-1,292952	-2,696839	0,244869	2020-10-29T19:52:20:355
-2,240281	-0,573558	-0,302347	2020-10-29T19:52:20:380
-2,011234	0,682922	-0,339502	2020-10-29T19:52:20:396
-0,955269	-2,101810	2,080853	2020-10-29T19:52:20:418
-3,396488	-2,479562	5,170144	2020-10-29T19:52:20:435
-2,851794	-2,833377	3,173176	2020-10-29T19:52:20:459
-0,548607	-1,562823	-0,684209	2020-10-29T19:52:20:476
0,166247	0,924051	-1,635073	2020-10-29T19:52:20:498
-0,814457	1,434146	-0,507716	2020-10-29T19:52:20:516
-0,065965	0,947260	-0,651556	2020-10-29T19:52:20:539
0,355584	-0,013044	-2,141837	2020-10-29T19:52:20:555
0,708508	-0,492613	-1,841973	2020-10-29T19:52:20:579
-0,022264	-1,133103	0,771506	2020-10-29T19:52:20:596
0,127402	-1,406395	1,024912	2020-10-29T19:52:20:619
0,838275	-1,677742	-1,034781	2020-10-29T19:52:20:635
0,291512	-0,959745	-1,019326	2020-10-29T19:52:20:658
-0,859654	-0,631299	0,162302	2020-10-29T19:52:20:676
-1,356551	-0,187859	0,012089	2020-10-29T19:52:20:699
-0,853097	0,428497	-1,206672	2020-10-29T19:52:20:716
-0,322092	1,263048	-1,453069	2020-10-29T19:52:20:738
-1,149889	0,843131	0,122154	2020-10-29T19:52:20:757
-0,810214	1,978633	-0,708085	2020-10-29T19:52:20:781
-1,283940	-0,011741	1,636077	2020-10-29T19:52:20:796
-0,533391	-0,881334	1,496439	2020-10-29T19:52:20:819
-0,200513	-1,700814	0,415633	2020-10-29T19:52:20:835
-0,375845	1,351860	-0,880644	2020-10-29T19:52:20:859
-0,950866	0,904711	-0,407652	2020-10-29T19:52:20:876
-1,275977	0,219138	0,645679	2020-10-29T19:52:20:899
-1,315369	0,594394	0,032381	2020-10-29T19:52:20:916
-1,162423	0,486155	0,228525	2020-10-29T19:52:20:939
-1,209208	1,345763	-0,266726	2020-10-29T19:52:20:956
-0,918733	1,182651	-0,134374	2020-10-29T19:52:20:979
-0,827153	0,642147	0,159454	2020-10-29T19:52:20:997
-0,751123	-0,600436	0,228797	2020-10-29T19:52:21:020
-0,066776	0,150910	0,267082	2020-10-29T19:52:21:036
-0,038786	-0,805084	-1,469556	2020-10-29T19:52:21:059
0,272505	-1,428865	-1,176709	2020-10-29T19:52:21:076
-0,219237	-0,217145	0,048761	2020-10-29T19:52:21:100
-0,968190	0,567700	0,197116	2020-10-29T19:52:21:116
-0,725832	-0,262089	0,013574	2020-10-29T19:52:21:139
-0,583372	-1,205664	-0,522757	2020-10-29T19:52:21:156
-0,970741	-1,496256	-0,563078	2020-10-29T19:52:21:180
-1,120180	-1,488588	-0,542659	2020-10-29T19:52:21:196
-1,288554	-2,204301	-0,104327	2020-10-29T19:52:21:219
-1,406339	-1,123405	0,024555	2020-10-29T19:52:21:239
-1,879534	0,251459	0,048937	2020-10-29T19:52:21:260
-1,387092	-0,171181	1,001898	2020-10-29T19:52:21:276
-0,539728	-0,838368	0,274397	2020-10-29T19:52:21:300
-0,531549	-2,614933	-0,282019	2020-10-29T19:52:21:316
-0,231998	-2,109459	-0,769526	2020-10-29T19:52:21:340
0,161640	-0,382233	0,180350	2020-10-29T19:52:21:356
-0,050529	-1,473482	1,399569	2020-10-29T19:52:21:381
0,172481	-2,605350	0,687027	2020-10-29T19:52:21:396
0,519900	-1,564332	-0,304067	2020-10-29T19:52:21:420
0,558449	-0,272120	-0,191535	2020-10-29T19:52:21:437
-0,076139	0,082488	0,223814	2020-10-29T19:52:21:459
-0,603843	0,861415	0,590231	2020-10-29T19:52:21:478
-0,459664	0,852668	-0,293563	2020-10-29T19:52:21:500
-0,291299	0,827167	-0,407389	2020-10-29T19:52:21:516
-0,933669	-0,968313	0,076022	2020-10-29T19:52:21:540
-1,079630	-1,434913	-0,081904	2020-10-29T19:52:21:556
-1,710285	0,830333	-0,153884	2020-10-29T19:52:21:580
-1,002838	2,163247	-0,245991	2020-10-29T19:52:21:597
0,197001	0,973968	-0,492595	2020-10-29T19:52:21:619
-4,193383	5,237475	-0,324607	2020-10-29T19:52:21:636
-4,396398	4,985065	-0,134906	2020-10-29T19:52:21:660
-4,548172	4,135501	-0,151754	2020-10-29T19:52:21:677
-5,088913	3,505836	0,013710	2020-10-29T19:52:21:700
-5,336826	2,442024	0,038542	2020-10-29T19:52:21:718
-6,050681	1,821008	0,815191	2020-10-29T19:52:21:740
-7,051233	1,743602	1,722223	2020-10-29T19:52:21:757
-7,349152	2,201173	1,939853	2020-10-29T19:52:21:780
-7,365346	2,662152	1,764627	2020-10-29T19:52:21:797
-3,938139	-0,766751	0,337877	2020-10-29T19:52:21:821
-2,523981	1,102043	-0,748464	2020-10-29T19:52:21:837
-0,209176	-0,083924	-1,151765	2020-10-29T19:52:21:859
-0,163216	1,889470	-0,250841	2020-10-29T19:52:21:877
-1,926192	3,189560	2,385839	2020-10-29T19:52:21:901
-2,110752	3,018418	2,958312	2020-10-29T19:52:21:917
-2,271880	4,130417	3,466177	2020-10-29T19:52:21:939
-1,160220	3,106399	4,895845	2020-10-29T19:52:21:958
-1,405064	1,011080	3,883234	2020-10-29T19:52:21:980
-1,459191	-0,501752	2,224578	2020-10-29T19:52:21:997
-0,313120	0,003916	0,752838	2020-10-29T19:52:22:020
0,434688	2,111448	-0,400968	2020-10-29T19:52:22:037
1,585326	-0,207496	-0,197357	2020-10-29T19:52:22:061
2,374957	0,421817	-0,092073	2020-10-29T19:52:22:077
2,663457	-1,315778	-0,375091	2020-10-29T19:52:22:101
3,168644	-1,610692	-1,168655	2020-10-29T19:52:22:117
3,584768	-0,979828	-0,291441	2020-10-29T19:52:22:142
3,060740	-1,082719	0,438370	2020-10-29T19:52:22:157
2,075321	-1,777164	0,763917	2020-10-29T19:52:22:180
1,083247	-3,079660	1,850847	2020-10-29T19:52:22:199
0,817075	-4,346002	1,821077	2020-10-29T19:52:22:221
1,986080	-5,636654	1,531428	2020-10-29T19:52:22:237
3,381508	-6,200623	1,766567	2020-10-29T19:52:22:260
3,819063	-5,995622	1,821030	2020-10-29T19:52:22:278
4,072791	-5,377180	1,268757	2020-10-29T19:52:22:301
4,526717	-4,966032	0,426061	2020-10-29T19:52:22:317
4,941439	-4,459989	-0,122952	2020-10-29T19:52:22:340
5,069064	-4,052548	-0,152392	2020-10-29T19:52:22:357
4,721480	-3,756227	0,607721	2020-10-29T19:52:22:381
4,384933	-3,210969	1,125843	2020-10-29T19:52:22:397
4,130904	-2,672236	1,078177	2020-10-29T19:52:22:420
3,654489	-1,973057	0,210073	2020-10-29T19:52:22:439
3,079324	-1,494247	-1,022824	2020-10-29T19:52:22:461
2,703728	-1,601556	-2,685027	2020-10-29T19:52:22:477
2,236102	-2,281668	-3,216852	2020-10-29T19:52:22:500
1,432367	-2,908022	-3,096692	2020-10-29T19:52:22:517
0,104275	-2,878434	-3,350668	2020-10-29T19:52:22:541
1,476817	-3,101904	4,369994	2020-10-29T19:52:22:558
0,942950	-3,257306	3,757880	2020-10-29T19:52:22:580
0,579949	-3,545420	3,068303	2020-10-29T19:52:22:599
0,187028	-3,790757	2,597388	2020-10-29T19:52:22:621
-0,406926	-3,986355	2,416774	2020-10-29T19:52:22:637
-1,231784	-4,198117	1,896495	2020-10-29T19:52:22:660
-3,801510	-4,075435	1,132223	2020-10-29T19:52:22:679
-8,861919	-4,562574	0,736737	2020-10-29T19:52:22:701
-12,446836	-5,505347	1,378335	2020-10-29T19:52:22:717
-11,668721	-6,341380	2,659503	2020-10-29T19:52:22:740
-9,827313	-7,415352	4,144380	2020-10-29T19:52:22:758
-5,319565	-7,935669	4,891875	2020-10-29T19:52:22:781
-1,041239	-7,889777	5,423471	2020-10-29T19:52:22:798
0,591195	-7,773087	5,968722	2020-10-29T19:52:22:821
0,753015	-6,816634	5,781413	2020-10-29T19:52:22:838
0,935621	-6,194992	4,236977	2020-10-29T19:52:22:861
0,502184	-5,981589	2,529039	2020-10-29T19:52:22:878
0,056548	-5,232229	1,816056	2020-10-29T19:52:22:901
-0,902243	-3,519940	0,674856	2020-10-29T19:52:22:919
-1,612380	-2,191780	-0,150987	2020-10-29T19:52:22:941
-1,203854	-2,209413	-1,211460	2020-10-29T19:52:22:958
0,455780	-4,717170	-1,429653	2020-10-29T19:52:22:982
0,982045	-5,488529	-1,448943	2020-10-29T19:52:22:998
2,819707	-6,865572	-0,975118	2020-10-29T19:52:23:021
3,938098	-6,309972	-0,772507	2020-10-29T19:52:23:038
4,023560	-6,043277	-0,090058	2020-10-29T19:52:23:061
3,374241	-6,623775	0,567544	2020-10-29T19:52:23:079
2,431067	-6,817356	0,665904	2020-10-29T19:52:23:102
1,813457	-6,528724	0,532115	2020-10-29T19:52:23:118
1,637687	-6,025479	0,602638	2020-10-29T19:52:23:141
1,622776	-5,501297	0,839586	2020-10-29T19:52:23:159
1,235280	-5,190724	2,095716	2020-10-29T19:52:23:182
1,690700	-4,405781	2,748840	2020-10-29T19:52:23:198
2,085967	-2,652328	0,845297	2020-10-29T19:52:23:221
1,627753	-5,736842	-0,316330	2020-10-29T19:52:23:238
1,188997	-9,123391	1,585138	2020-10-29T19:52:23:262
0,521570	-10,126429	4,348209	2020-10-29T19:52:23:279
0,794045	-9,874929	5,800295	2020-10-29T19:52:23:301
1,150362	-9,676771	5,667884	2020-10-29T19:52:23:318
1,550830	-10,230721	5,453700	2020-10-29T19:52:23:343
0,155881	-10,693397	6,073549	2020-10-29T19:52:23:358
-1,169556	-11,782706	7,692728	2020-10-29T19:52:23:386
-4,550574	-5,072748	3,721726	2020-10-29T19:52:23:401
-4,816179	-4,721002	3,353231	2020-10-29T19:52:23:422
-4,000669	-3,305895	2,590113	2020-10-29T19:52:23:437
-2,497984	-2,279375	1,761951	2020-10-29T19:52:23:478
-1,512141	-1,597421	0,895749	2020-10-29T19:52:23:482
-1,277783	-1,265879	0,782818	2020-10-29T19:52:23:502
-1,404603	-1,892799	-0,059456	2020-10-29T19:52:23:518
-1,810071	-1,750474	0,608136	2020-10-29T19:52:23:541
-2,693022	-2,461143	0,203749	2020-10-29T19:52:23:557
-3,718365	-3,613387	0,994795	2020-10-29T19:52:23:581
-3,644187	-3,914884	0,150129	2020-10-29T19:52:23:598
-3,136807	-3,531874	-0,015000	2020-10-29T19:52:23:621
-2,622899	-3,062883	-0,732896	2020-10-29T19:52:23:639
-2,561853	-2,634199	0,261804	2020-10-29T19:52:23:662
-2,336928	-2,682055	0,522622	2020-10-29T19:52:23:679
-2,432666	-2,683465	0,805540	2020-10-29T19:52:23:702
-3,149128	-3,480593	1,274529	2020-10-29T19:52:23:719
-3,519619	-3,370967	0,773019	2020-10-29T19:52:23:742
-3,416639	-2,265623	0,024388	2020-10-29T19:52:23:759
-3,160287	-1,429822	-0,718529	2020-10-29T19:52:23:782
-2,825143	-0,550885	-0,646333	2020-10-29T19:52:23:799
-2,173660	0,814012	-0,425263	2020-10-29T19:52:23:822
-1,411732	2,177969	-0,584893	2020-10-29T19:52:23:839
-0,836969	2,983567	-0,840740	2020-10-29T19:52:23:861
-0,404251	3,506479	-1,000777	2020-10-29T19:52:23:881
-0,059091	4,192260	-0,773620	2020-10-29T19:52:23:903
0,151289	4,782502	-0,307059	2020-10-29T19:52:23:919
0,163869	5,185905	0,171974	2020-10-29T19:52:23:942
-0,069926	5,130227	0,791107	2020-10-29T19:52:23:959
-0,044662	4,963408	1,017038	2020-10-29T19:52:23:983
-0,527683	4,746346	1,124394	2020-10-29T19:52:23:999
-0,592427	5,343274	1,684176	2020-10-29T19:52:24:023
-1,078608	5,071937	3,346142	2020-10-29T19:52:24:060
-1,030748	4,987253	4,181042	2020-10-29T19:52:24:066
-0,951562	5,128571	3,342761	2020-10-29T19:52:24:089
-0,635677	3,695361	3,719655	2020-10-29T19:52:24:104
-0,198668	1,640690	5,196376	2020-10-29T19:52:24:122
0,041961	0,281596	7,505383	2020-10-29T19:52:24:177
-0,171575	0,085165	9,273743	2020-10-29T19:52:24:182
-1,257510	0,387738	8,841778	2020-10-29T19:52:24:183
-1,365582	1,936553	7,530844	2020-10-29T19:52:24:204
-1,411018	1,762634	7,538892	2020-10-29T19:52:24:244
-1,150064	0,717158	7,835664	2020-10-29T19:52:24:244
-0,823396	-1,082817	8,397682	2020-10-29T19:52:24:262
-0,234872	-2,128293	8,858408	2020-10-29T19:52:24:279
0,328225	-2,339176	8,603895	2020-10-29T19:52:24:309
1,327563	-1,054225	7,361953	2020-10-29T19:52:24:317
2,483625	0,562211	5,796467	2020-10-29T19:52:24:340
5,323564	-3,771632	0,417321	2020-10-29T19:52:24:361
0,303555	-0,598771	0,673582	2020-10-29T19:52:24:383
0,748620	0,765137	-0,754933	2020-10-29T19:52:24:399
-0,185415	1,105917	-2,453501	2020-10-29T19:52:24:422
-0,773570	1,748705	-3,919529	2020-10-29T19:52:24:439
-0,643933	2,984167	-5,451342	2020-10-29T19:52:24:463
-0,757277	4,474919	-6,415617	2020-10-29T19:52:24:480
-1,110044	4,904821	-6,729207	2020-10-29T19:52:24:503
-1,197103	4,916706	-6,694848	2020-10-29T19:52:24:519
-1,146746	5,785213	-6,520138	2020-10-29T19:52:24:543
-1,075111	4,244563	-6,850883	2020-10-29T19:52:24:559
-1,083943	2,681029	-6,901226	2020-10-29T19:52:24:583
-0,836524	3,392212	-5,679932	2020-10-29T19:52:24:601
-1,360021	3,751162	-3,623492	2020-10-29T19:52:24:624
-1,703426	1,989223	-2,918415	2020-10-29T19:52:24:644
-1,349516	1,815320	-3,460689	2020-10-29T19:52:24:662
-0,883110	1,467574	-3,504719	2020-10-29T19:52:24:679
-1,643164	0,706275	-0,134949	2020-10-29T19:52:24:704
-0,099793	0,553135	1,154783	2020-10-29T19:52:24:720
1,826477	-1,348966	1,516164	2020-10-29T19:52:24:742
2,592188	-3,436130	2,719748	2020-10-29T19:52:24:759
3,343567	-3,705408	3,042411	2020-10-29T19:52:24:784
2,099789	-3,591384	3,023431	2020-10-29T19:52:24:800
2,620122	-1,797447	1,050492	2020-10-29T19:52:24:822
3,915975	-1,388092	-0,218699	2020-10-29T19:52:24:841
4,617575	-4,061158	0,264192	2020-10-29T19:52:24:863
4,074508	-4,076169	2,149043	2020-10-29T19:52:24:880
4,413859	-3,370317	2,112823	2020-10-29T19:52:24:903
3,897010	-4,382481	1,639044	2020-10-29T19:52:24:920
4,100473	-3,425200	0,936903	2020-10-29T19:52:24:946
3,135196	-2,463454	-0,577147	2020-10-29T19:52:24:972
-3,712794	1,745776	5,534030	2020-10-29T19:52:25:700
-3,333787	1,444948	6,370343	2020-10-29T19:52:25:718
-3,083898	0,291328	7,481328	2020-10-29T19:52:25:719
-2,865521	-0,386446	7,336161	2020-10-29T19:52:25:720
-2,451413	0,256838	6,234878	2020-10-29T19:52:25:720
-2,426012	1,337283	5,412087	2020-10-29T19:52:25:720
-2,269876	0,817389	4,532924	2020-10-29T19:52:25:721
-2,114748	0,339185	3,825624	2020-10-29T19:52:25:721
-1,860538	0,382735	2,984034	2020-10-29T19:52:26:044
-1,159676	0,372862	1,975892	2020-10-29T19:52:26:044
-0,464037	0,720670	0,309812	2020-10-29T19:52:26:058
0,102793	1,220111	-2,137331	2020-10-29T19:52:26:059
0,619226	1,273519	-3,461549	2020-10-29T19:52:26:059
1,451531	1,778789	-3,615283	2020-10-29T19:52:26:062
-0,073635	0,011688	0,006483	2020-10-29T19:52:26:065
-0,781910	-0,005061	0,788936	2020-10-29T19:52:26:066
-1,084689	-1,994457	-0,122664	2020-10-29T19:52:26:066
-0,244836	0,103614	-0,140294	2020-10-29T19:52:26:071
-0,136385	2,815568	1,232331	2020-10-29T19:52:26:071
-1,139311	4,937024	2,804491	2020-10-29T19:52:26:072
0,003451	4,424464	0,878711	2020-10-29T19:52:26:076
1,472015	4,362593	-1,176942	2020-10-29T19:52:26:079
3,665814	4,433144	-2,267658	2020-10-29T19:52:26:082
2,786590	2,807800	-1,666267	2020-10-29T19:52:26:083
2,420563	2,092515	-1,935234	2020-10-29T19:52:26:083
0,809001	0,343634	-0,481448	2020-10-29T19:52:26:084
-0,094758	1,761964	-0,637897	2020-10-29T19:52:26:161
0,130390	3,536848	-1,333278	2020-10-29T19:52:26:163
0,239947	5,033049	-1,213773	2020-10-29T19:52:26:164
-0,182030	6,193869	-0,901535	2020-10-29T19:52:26:172
-4,547601	2,228409	0,757541	2020-10-29T19:52:26:183
-5,353982	1,804879	0,381868	2020-10-29T19:52:26:204
-5,149123	2,530130	1,130547	2020-10-29T19:52:26:223
-5,290439	1,980536	0,195046	2020-10-29T19:52:26:248
-5,886001	-0,701488	-0,435224	2020-10-29T19:52:26:313
-5,952585	-6,503547	1,188836	2020-10-29T19:52:26:314
-7,078804	-10,450078	5,582458	2020-10-29T19:52:26:314
-4,600275	-12,521014	7,281834	2020-10-29T19:52:26:325
4,210421	-14,698193	9,032698	2020-10-29T19:52:26:343
5,282820	-16,295628	9,698657	2020-10-29T19:52:26:368
2,026652	-17,311134	6,993930	2020-10-29T19:52:26:383
2,045795	-16,260685	9,032614	2020-10-29T19:52:26:399
2,371187	-11,262191	7,074207	2020-10-29T19:52:26:428
1,875876	-7,617744	3,184753	2020-10-29T19:52:26:444
1,082768	-4,199862	-0,907968	2020-10-29T19:52:26:473
0,070127	-2,152720	-3,880798	2020-10-29T19:52:26:484
-1,205907	-1,288749	-4,761160	2020-10-29T19:52:26:530
-2,238628	0,032393	-4,457283	2020-10-29T19:52:26:531
-2,978091	1,261062	-4,455070	2020-10-29T19:52:26:572
-3,236681	1,941379	-4,930080	2020-10-29T19:52:26:578
2,613998	2,466087	-4,735898	2020-10-29T19:52:26:643
2,654676	3,227004	-5,336496	2020-10-29T19:52:26:643
4,351180	1,506227	-5,227524	2020-10-29T19:52:26:655
4,123862	1,597154	-5,344772	2020-10-29T19:52:26:656
4,601961	1,142769	-4,975173	2020-10-29T19:52:26:671
4,270795	1,156777	-5,446045	2020-10-29T19:52:26:680
2,655096	0,668831	-5,431238	2020-10-29T19:52:26:703
1,821992	0,875802	-4,917982	2020-10-29T19:52:26:720
1,746780	1,030385	-5,008350	2020-10-29T19:52:26:744
0,857121	0,342875	-4,036427	2020-10-29T19:52:26:762
2,012872	0,381735	-0,885657	2020-10-29T19:52:26:786
1,323740	-0,321755	-0,864121	2020-10-29T19:52:26:801
-0,073012	-0,865850	-0,164074	2020-10-29T19:52:26:825
-0,504350	-2,002045	1,699432	2020-10-29T19:52:26:842
-0,967183	-2,402710	4,358483	2020-10-29T19:52:26:865
-0,768629	-1,973819	7,055068	2020-10-29T19:52:26:882
0,333495	-1,680670	7,843164	2020-10-29T19:52:26:905
0,675791	-1,582061	8,066709	2020-10-29T19:52:26:922
-2,546787	-0,297583	3,043271	2020-10-29T19:52:26:946
-2,884175	1,279287	6,003191	2020-10-29T19:52:26:961
-3,038937	1,274126	8,406384	2020-10-29T19:52:26:985
-2,985317	3,550169	10,328000	2020-10-29T19:52:27:004
-5,877442	2,546450	12,145382	2020-10-29T19:52:27:025
-8,412827	1,798417	9,936333	2020-10-29T19:52:27:042
-10,553571	5,890455	9,260172	2020-10-29T19:52:27:065
-10,016184	3,013040	8,640364	2020-10-29T19:52:27:083
-8,771488	1,284881	6,889134	2020-10-29T19:52:27:118
-8,454705	0,937990	4,797759	2020-10-29T19:52:27:146
-7,371986	0,430606	3,312162	2020-10-29T19:52:27:146
-1,762099	-2,377539	5,046779	2020-10-29T19:52:27:199
-0,492689	-4,249467	1,505316	2020-10-29T19:52:27:200
1,826952	-4,927680	-1,057545	2020-10-29T19:52:27:213
0,945660	0,539095	-1,543066	2020-10-29T19:52:27:224
2,366996	0,972196	-2,524123	2020-10-29T19:52:27:242
1,582891	2,068380	-5,480626	2020-10-29T19:52:27:265
1,704588	1,949271	-6,579271	2020-10-29T19:52:27:281
1,629205	0,258061	-7,909505	2020-10-29T19:52:27:305
1,884471	-0,056583	-8,324840	2020-10-29T19:52:27:322
2,498289	0,209514	-9,198313	2020-10-29T19:52:27:346
-0,653865	0,495232	-9,842825	2020-10-29T19:52:27:362
-1,568832	0,393769	-9,815821	2020-10-29T19:52:27:387
-0,863497	-0,004113	-9,338811	2020-10-29T19:52:27:403
2,378711	1,298531	0,479063	2020-10-29T19:52:27:426
1,859468	1,298531	0,589132	2020-10-29T19:52:27:443
1,957644	0,766761	0,103987	2020-10-29T19:52:27:466
1,388152	0,307339	0,884047	2020-10-29T19:52:27:484
1,251122	0,654187	-0,163710	2020-10-29T19:52:27:508
2,076645	-0,393869	1,159521	2020-10-29T19:52:27:523
1,238769	-1,230623	1,353885	2020-10-29T19:52:27:546
0,699785	-3,149328	2,614398	2020-10-29T19:52:27:562
-1,991220	-2,600751	1,233315	2020-10-29T19:52:27:588
-0,993413	-5,460176	1,422348	2020-10-29T19:52:27:603
-3,192279	-12,824718	4,127678	2020-10-29T19:52:27:628
-3,699557	-21,637484	14,433564	2020-10-29T19:52:27:642
-5,049844	-17,375635	11,188981	2020-10-29T19:52:27:669
-6,899496	-8,364264	7,200148	2020-10-29T19:52:27:683
-8,508585	-3,223034	5,630453	2020-10-29T19:52:27:706
-10,346570	-1,701070	4,328224	2020-10-29T19:52:27:724
-10,063710	-0,473715	5,111183	2020-10-29T19:52:27:747
-10,092776	3,119120	5,712914	2020-10-29T19:52:27:762
-8,890643	6,087458	5,684332	2020-10-29T19:52:27:786
-7,515271	6,867857	5,456408	2020-10-29T19:52:27:803
-4,577539	-1,075950	0,424235	2020-10-29T19:52:27:827
-4,202102	-1,635111	-1,870735	2020-10-29T19:52:27:843
-3,829764	-2,162224	-3,835314	2020-10-29T19:52:27:866
-3,216682	-2,106060	-4,885816	2020-10-29T19:52:27:883
-2,348779	-1,910998	-5,289497	2020-10-29T19:52:27:907
-1,277511	-2,420473	-5,797499	2020-10-29T19:52:27:923
-0,332180	-2,696533	-5,680616	2020-10-29T19:52:27:946
-0,164128	-1,846480	-4,513999	2020-10-29T19:52:27:964
0,261554	-0,928150	-4,138823	2020-10-29T19:52:27:988
0,951002	-0,455482	-4,000172	2020-10-29T19:52:28:003
4,061480	-2,942779	5,149804	2020-10-29T19:52:28:026
3,680430	-3,382640	5,496554	2020-10-29T19:52:28:043
3,225220	-4,171792	6,038876	2020-10-29T19:52:28:066
1,787215	-5,382982	6,310443	2020-10-29T19:52:28:083
-0,146501	-0,018752	0,086630	2020-10-29T19:52:28:106
-1,823870	-1,526230	1,105974	2020-10-29T19:52:28:123
-3,114161	-0,603884	2,427054	2020-10-29T19:52:28:147
-2,396877	-0,604358	3,653089	2020-10-29T19:52:28:166
-3,495802	-1,473998	3,506710	2020-10-29T19:52:28:248
-2,788337	-3,037678	5,144487	2020-10-29T19:52:28:250
-2,233820	-3,079651	4,877465	2020-10-29T19:52:28:254
-0,640201	-0,653329	3,008671	2020-10-29T19:52:28:255
-0,386758	1,336814	1,042511	2020-10-29T19:52:28:269
-0,052463	1,249567	1,591166	2020-10-29T19:52:28:288
0,442477	-0,328706	2,792124	2020-10-29T19:52:28:306
0,457169	-1,828554	5,647179	2020-10-29T19:52:28:323
-0,973614	-3,489403	8,570240	2020-10-29T19:52:28:347
-2,117955	-6,229884	9,058441	2020-10-29T19:52:28:363
-3,436950	-3,959103	6,964188	2020-10-29T19:52:28:387
-0,532063	-1,293499	5,822810	2020-10-29T19:52:28:403
1,314637	-1,212728	4,467718	2020-10-29T19:52:28:426
5,598520	-3,878923	3,058864	2020-10-29T19:52:28:444
6,964621	-2,459631	-0,522671	2020-10-29T19:52:28:466
6,666795	-1,008677	-3,936934	2020-10-29T19:52:28:484
7,280584	-0,816321	-7,425363	2020-10-29T19:52:28:506
7,924846	-0,524573	-9,996902	2020-10-29T19:52:28:523
7,876409	0,532156	-11,250040	2020-10-29T19:52:28:546
7,160331	1,254912	-10,758448	2020-10-29T19:52:28:563
5,991038	1,728110	-9,552898	2020-10-29T19:52:28:587
4,866306	2,612748	-8,228480	2020-10-29T19:52:28:603
2,843472	0,418606	-5,901465	2020-10-29T19:52:28:627
1,642217	0,003482	-4,943028	2020-10-29T19:52:28:643
1,360502	1,750707	-6,006086	2020-10-29T19:52:28:666
1,602626	2,750646	-7,364354	2020-10-29T19:52:28:685
2,336020	2,532575	-8,490324	2020-10-29T19:52:28:706
1,729593	0,426413	-8,092971	2020-10-29T19:52:28:723
-1,755120	-2,630393	-3,758206	2020-10-29T19:52:28:746
-5,155543	-3,216428	-0,923813	2020-10-29T19:52:28:763
-5,506879	-2,455973	-0,809137	2020-10-29T19:52:28:787
-5,273371	-1,980992	-3,153594	2020-10-29T19:52:28:804
-6,454879	-2,846950	-3,157749	2020-10-29T19:52:28:827
-9,097082	-3,264413	-1,817160	2020-10-29T19:52:28:844
-8,609390	-0,936643	-1,798613	2020-10-29T19:52:28:867
-8,079926	-0,224767	-1,900150	2020-10-29T19:52:28:884
-7,455380	-1,033861	-0,535624	2020-10-29T19:52:28:907
-5,918570	-0,860788	1,153916	2020-10-29T19:52:28:925
-3,297638	-0,504680	2,273855	2020-10-29T19:52:28:947
-1,294149	-0,084713	3,088461	2020-10-29T19:52:28:964
0,542115	1,979676	2,392345	2020-10-29T19:52:28:987
0,852002	3,395784	2,499726	2020-10-29T19:52:29:004
1,171425	3,307709	2,708314	2020-10-29T19:52:29:027
0,237204	1,982463	2,906585	2020-10-29T19:52:29:044
-1,707359	-1,261429	3,654723	2020-10-29T19:52:29:067
-3,733588	-2,893432	4,484675	2020-10-29T19:52:29:084
-5,345025	-3,982764	4,803724	2020-10-29T19:52:29:107
-6,403807	-4,685257	4,778340	2020-10-29T19:52:29:124
-6,481238	-4,493539	4,550954	2020-10-29T19:52:29:147
-6,419214	-4,843739	3,659661	2020-10-29T19:52:29:166
-5,901159	-3,931891	2,547360	2020-10-29T19:52:29:187
-4,427193	-2,285419	1,734147	2020-10-29T19:52:29:224
-2,679475	-1,527864	0,754143	2020-10-29T19:52:29:243
-1,171958	-1,227917	-0,322233	2020-10-29T19:52:29:244
0,209186	-0,980035	-1,284069	2020-10-29T19:52:29:266
1,460599	-0,302934	-1,969697	2020-10-29T19:52:29:284
2,542247	0,230342	-2,227112	2020-10-29T19:52:29:309
2,710615	0,710864	-2,485544	2020-10-29T19:52:29:325
2,325921	1,551786	-2,514389	2020-10-29T19:52:29:347
1,781958	2,325400	-3,003831	2020-10-29T19:52:29:364
3,414007	2,769593	-1,270128	2020-10-29T19:52:29:396
3,890179	3,363013	-1,700836	2020-10-29T19:52:29:408
3,482172	3,167688	-1,581404	2020-10-29T19:52:29:427
1,848169	2,052689	-0,550422	2020-10-29T19:52:29:444
1,338313	1,133070	-0,439186	2020-10-29T19:52:29:468
0,218472	-0,185376	-0,178369	2020-10-29T19:52:29:484
-0,221765	-0,183770	0,415929	2020-10-29T19:52:29:507
-1,992388	-0,939387	1,446959	2020-10-29T19:52:29:525
-1,536783	-0,537981	1,868484	2020-10-29T19:52:29:547
-1,038707	-0,779875	2,041960	2020-10-29T19:52:29:564
-0,571391	-0,403554	0,286648	2020-10-29T19:52:29:588
-0,439786	1,175709	0,798712	2020-10-29T19:52:29:605
-0,424037	0,457150	0,677352	2020-10-29T19:52:29:629
-0,212966	1,375827	0,060021	2020-10-29T19:52:29:650
1,030249	-2,164185	-3,513511	2020-10-29T19:52:32:246
1,190568	-3,090208	-4,597460	2020-10-29T19:52:32:247
1,610315	-4,209024	-6,550491	2020-10-29T19:52:32:253
1,005895	-5,161868	-8,545649	2020-10-29T19:52:32:254
-0,044758	-5,552266	-9,622934	2020-10-29T19:52:32:255
-1,397057	-6,429142	-8,914886	2020-10-29T19:52:32:255
-2,584137	-8,498726	-8,182053	2020-10-29T19:52:32:388
-3,249128	-9,517319	-6,791851	2020-10-29T19:52:32:389
-3,645755	-10,889535	-4,747684	2020-10-29T19:52:32:430
-4,216783	-11,990111	-2,639202	2020-10-29T19:52:32:444
-3,904136	-11,319976	-2,404823	2020-10-29T19:52:32:445
-3,329718	-9,312584	-3,443082	2020-10-29T19:52:32:446
-3,054044	-7,436722	-4,395101	2020-10-29T19:52:32:447
-3,486073	-6,429240	-4,519487	2020-10-29T19:52:32:447
-4,056748	-5,852461	-2,602753	2020-10-29T19:52:32:448
-4,154088	-5,867872	-3,747745	2020-10-29T19:52:32:449
-5,053985	-6,119159	-6,104508	2020-10-29T19:52:32:449
-4,871990	-10,057148	3,938496	2020-10-29T19:52:32:455
-6,431769	-13,520997	7,821097	2020-10-29T19:52:32:460
-6,817369	-16,643841	12,052525	2020-10-29T19:52:32:461
-6,724603	-18,923359	15,105000	2020-10-29T19:52:32:461
-7,715547	-19,400986	15,769560	2020-10-29T19:52:32:462
-6,813828	-5,849593	15,601878	2020-10-29T19:52:32:537
-6,785121	-3,257674	14,239332	2020-10-29T19:52:32:600
-6,710132	0,019988	12,582961	2020-10-29T19:52:32:607
-8,219853	1,893336	10,508335	2020-10-29T19:52:32:607
-11,938728	2,115040	-1,325920	2020-10-29T19:52:32:608
-14,668687	2,220345	-0,819135	2020-10-29T19:52:32:609
-10,997625	-8,404143	-1,402807	2020-10-29T19:52:32:612
-7,595123	-7,540709	-2,435150	2020-10-29T19:52:32:619
-5,734368	-7,282070	-2,458397	2020-10-29T19:52:32:637
-0,328091	-0,051647	0,078804	2020-10-29T19:52:32:656
0,100224	-0,355536	-0,198763	2020-10-29T19:52:32:684
-0,721805	-0,335679	-0,084318	2020-10-29T19:52:32:720
-1,423497	-1,012563	-0,095504	2020-10-29T19:52:32:720
-0,499415	-1,802651	-1,152882	2020-10-29T19:52:32:745
-0,239277	-3,113154	-2,706714	2020-10-29T19:52:32:799
-0,666144	-3,929276	-3,679636	2020-10-29T19:52:32:800
-0,554123	-3,374287	-3,910385	2020-10-29T19:52:32:815
-0,922742	-2,376145	-3,024176	2020-10-29T19:52:32:815
-1,358733	-1,104648	0,210633	2020-10-29T19:52:32:839
-1,437091	-0,279778	0,620529	2020-10-29T19:52:32:854
-1,195416	0,847241	0,673171	2020-10-29T19:52:32:876
0,285882	1,012160	0,280338	2020-10-29T19:52:32:893
1,102589	2,352778	0,288445	2020-10-29T19:52:32:917
1,440331	3,184347	0,720368	2020-10-29T19:52:32:935
1,743294	2,762071	0,817574	2020-10-29T19:52:32:966
1,798631	2,019907	0,521684	2020-10-29T19:52:32:985
1,788173	1,551962	0,463480	2020-10-29T19:52:33:019
2,706568	1,203550	0,800752	2020-10-29T19:52:33:020
3,151833	1,870766	1,338721	2020-10-29T19:52:33:082
3,456263	3,088008	2,074771	2020-10-29T19:52:33:083
3,467799	4,021234	2,276708	2020-10-29T19:52:33:084
3,173887	4,898176	2,010312	2020-10-29T19:52:33:093
1,840125	0,693344	-2,887608	2020-10-29T19:52:33:122
2,108121	-0,402569	-3,643740	2020-10-29T19:52:33:135
3,085073	2,205732	-3,092453	2020-10-29T19:52:33:157
2,344792	2,974716	-3,099232	2020-10-29T19:52:33:177
0,560514	1,309657	-2,108406	2020-10-29T19:52:33:198
-0,422936	2,884134	-2,524757	2020-10-29T19:52:33:214
0,620611	2,711634	0,280229	2020-10-29T19:52:33:238
-1,511642	2,453606	1,298092	2020-10-29T19:52:33:255
-2,459763	0,025022	2,857559	2020-10-29T19:52:33:279
-2,577012	-0,228617	4,094648	2020-10-29T19:52:33:296
-3,283848	-2,289330	3,224136	2020-10-29T19:52:33:318
-3,537803	-2,985742	0,955114	2020-10-29T19:52:33:336
-0,933092	-7,198756	7,663914	2020-10-29T19:52:33:359
-0,748687	0,135723	6,595111	2020-10-29T19:52:33:375
-0,325371	1,952151	3,490669	2020-10-29T19:52:33:398
1,455205	2,198742	0,321599	2020-10-29T19:52:33:417
2,444496	3,326811	-0,801116	2020-10-29T19:52:33:438
1,656075	3,511697	-0,219855	2020-10-29T19:52:33:455
1,181133	-0,112018	-0,446329	2020-10-29T19:52:33:479
0,501572	-1,009327	-0,740646	2020-10-29T19:52:33:495
0,148069	0,616864	0,540998	2020-10-29T19:52:33:518
-0,321674	1,320495	1,323121	2020-10-29T19:52:33:536
-0,251602	2,432160	0,546037	2020-10-29T19:52:33:558
0,894870	2,215189	3,305013	2020-10-29T19:52:33:575
0,495627	1,733642	2,604568	2020-10-29T19:52:33:599
0,354436	1,653300	2,430095	2020-10-29T19:52:33:615
0,149418	1,645299	1,976608	2020-10-29T19:52:33:639
-0,306184	1,862208	2,283833	2020-10-29T19:52:33:657
-0,677823	1,874096	2,684859	2020-10-29T19:52:33:678
-0,524772	1,615993	2,040017	2020-10-29T19:52:33:695
-0,060760	0,951616	0,858430	2020-10-29T19:52:33:719
0,214823	0,127433	-0,857940	2020-10-29T19:52:33:736
0,066442	-0,260783	-1,703586	2020-10-29T19:52:33:759
0,005230	0,653818	-2,853230	2020-10-29T19:52:33:776
0,618289	-0,148336	-0,065349	2020-10-29T19:52:33:799
0,498648	0,423548	-0,795160	2020-10-29T19:52:33:816
0,768508	-0,133892	0,015745	2020-10-29T19:52:33:840
0,897719	0,102997	0,106673	2020-10-29T19:52:33:856
0,830259	-0,161881	-0,046109	2020-10-29T19:52:33:879
0,862170	0,107510	0,023286	2020-10-29T19:52:33:898
0,800411	0,916876	0,077602	2020-10-29T19:52:33:919
1,144978	1,048481	0,553774	2020-10-29T19:52:33:936
0,521680	-0,582979	0,862641	2020-10-29T19:52:33:959
0,608230	-0,566779	1,683223	2020-10-29T19:52:33:976
0,867862	-0,019024	1,953856	2020-10-29T19:52:33:998
0,640252	0,068877	2,472735	2020-10-29T19:52:34:016
0,587451	0,838256	2,616884	2020-10-29T19:52:34:039
0,361538	1,433837	2,856986	2020-10-29T19:52:34:056
0,375856	2,126088	2,695993	2020-10-29T19:52:34:079
0,444816	0,102807	1,759758	2020-10-29T19:52:34:096
-0,241783	-1,871314	0,797118	2020-10-29T19:52:34:119
-1,051109	-2,618093	-0,241601	2020-10-29T19:52:34:137
-0,797717	-3,127718	-2,263746	2020-10-29T19:52:34:160
-0,844104	-1,568144	-3,546633	2020-10-29T19:52:34:176
-1,081798	-0,337331	-3,282138	2020-10-29T19:52:34:199
-1,013017	1,217201	-1,262533	2020-10-29T19:52:34:216
-1,038367	2,904886	-0,591450	2020-10-29T19:52:34:239
-0,705441	3,130294	0,718194	2020-10-29T19:52:34:256
0,303864	2,491048	2,075103	2020-10-29T19:52:34:279
-0,216151	2,280740	4,798946	2020-10-29T19:52:34:296
-0,020127	0,909181	5,908969	2020-10-29T19:52:34:320
0,371346	-1,150457	6,322577	2020-10-29T19:52:34:336
1,282116	0,178809	4,097553	2020-10-29T19:52:34:359
1,287800	0,797294	2,261914	2020-10-29T19:52:34:377
1,107143	-2,936173	0,615298	2020-10-29T19:52:34:399
0,661397	-2,778204	0,525998	2020-10-29T19:52:34:416
0,673844	0,639173	0,146496	2020-10-29T19:52:34:440
0,431454	1,609256	0,480329	2020-10-29T19:52:34:456
-0,180542	0,116053	0,091793	2020-10-29T19:52:34:480
-0,132686	-2,221735	-0,018277	2020-10-29T19:52:34:496
0,456978	-0,693906	-0,223030	2020-10-29T19:52:34:519
0,873958	0,816128	0,069832	2020-10-29T19:52:34:537
1,015224	-1,372332	0,744472	2020-10-29T19:52:34:560
1,722154	-2,103688	-0,148739	2020-10-29T19:52:34:576
1,429222	-2,779936	0,633109	2020-10-29T19:52:34:599
1,385267	-2,243873	1,159481	2020-10-29T19:52:34:617
1,466039	-0,876108	1,025258	2020-10-29T19:52:34:667
1,605978	-1,417166	0,856978	2020-10-29T19:52:34:668
1,558629	-0,475016	0,885600	2020-10-29T19:52:34:686
1,273907	-0,668721	1,184182	2020-10-29T19:52:34:697
0,875455	0,205184	1,515180	2020-10-29T19:52:34:721
0,072415	-0,157828	1,527510	2020-10-29T19:52:34:737
-0,373912	-0,204357	0,955533	2020-10-29T19:52:34:760
-0,060297	0,559018	0,604613	2020-10-29T19:52:34:776
0,179007	0,721737	0,334499	2020-10-29T19:52:34:801
0,489656	0,300780	-0,032661	2020-10-29T19:52:34:816
0,193886	-0,068251	-0,338068	2020-10-29T19:52:34:840
-0,434713	-0,266199	-0,067108	2020-10-29T19:52:34:858
-0,701952	0,635179	0,520188	2020-10-29T19:52:34:880
-0,322532	0,464067	0,575374	2020-10-29T19:52:34:897
-0,063405	-0,218884	0,371257	2020-10-29T19:52:34:920
0,052620	-0,254091	-0,162635	2020-10-29T19:52:34:937
-0,016527	0,373067	-0,281048	2020-10-29T19:52:34:960
-0,375654	0,782512	-0,124393	2020-10-29T19:52:34:977
-0,605988	0,187121	0,631395	2020-10-29T19:52:35:001
-0,290134	0,127301	0,617039	2020-10-29T19:52:35:017
-0,306543	-0,761336	0,794872	2020-10-29T19:52:35:041
-0,069585	-1,783970	-0,016374	2020-10-29T19:52:35:057
-0,045022	-2,294880	-0,031861	2020-10-29T19:52:35:080
-0,145930	-1,620648	0,828624	2020-10-29T19:52:35:098
-0,145102	-1,834517	0,808614	2020-10-29T19:52:35:120
0,700437	0,130773	0,496743	2020-10-29T19:52:35:137
0,420071	3,041130	0,061785	2020-10-29T19:52:35:160
0,366407	-0,869755	-0,022070	2020-10-29T19:52:35:177
0,444596	-0,347261	-1,389001	2020-10-29T19:52:35:200
-0,070453	-0,969972	-1,551026	2020-10-29T19:52:35:217
-0,829285	-1,262193	-2,184380	2020-10-29T19:52:35:240
-1,285080	-1,410391	-3,333477	2020-10-29T19:52:35:257
-1,198075	-5,378067	-1,409176	2020-10-29T19:52:35:281
-0,998077	-3,654171	-2,376433	2020-10-29T19:52:35:297
-1,482656	-0,584903	-2,315032	2020-10-29T19:52:35:320
-1,852699	-1,287536	-1,774346	2020-10-29T19:52:35:339
-0,486596	-0,115866	0,451705	2020-10-29T19:52:35:361
0,003932	1,405970	1,880220	2020-10-29T19:52:35:377
-0,873736	1,800763	0,870708	2020-10-29T19:52:35:400
-0,427470	0,160489	-0,347563	2020-10-29T19:52:35:417
-0,592238	-1,372872	-0,717212	2020-10-29T19:52:35:441
-0,501387	-1,653658	-0,730407	2020-10-29T19:52:35:457
-0,075507	-2,588972	-0,337291	2020-10-29T19:52:35:480
0,516875	-2,107509	-0,390249	2020-10-29T19:52:35:497
0,564041	-1,081223	-0,890208	2020-10-29T19:52:35:521
0,417306	-1,281677	-1,200396	2020-10-29T19:52:35:539
0,082896	-1,813918	-1,171792	2020-10-29T19:52:35:560
-0,234977	-1,282106	-0,482203	2020-10-29T19:52:35:580
-1,100382	-0,610852	-0,264879	2020-10-29T19:52:35:601
-1,090023	-0,353356	-1,229086	2020-10-29T19:52:35:618
-2,060769	0,378683	-0,954358	2020-10-29T19:52:35:641
-2,494659	0,712151	-1,658659	2020-10-29T19:52:35:693
-2,403657	0,852762	-2,279827	2020-10-29T19:52:35:694
-2,957876	0,013074	-2,414620	2020-10-29T19:52:35:698
-3,601446	0,062639	-2,323812	2020-10-29T19:52:35:721
-3,674425	0,124550	-3,305061	2020-10-29T19:52:35:738
0,711046	1,906270	3,577765	2020-10-29T19:52:35:782
0,470054	1,122348	5,663621	2020-10-29T19:52:35:785
0,636570	1,366748	6,491594	2020-10-29T19:52:35:801
0,927088	3,880044	6,970337	2020-10-29T19:52:35:829
1,436790	6,901395	8,065778	2020-10-29T19:52:35:841
1,973950	8,169392	6,948553	2020-10-29T19:52:35:858
2,655795	3,863582	7,114120	2020-10-29T19:52:35:881
4,218226	2,835703	3,587801	2020-10-29T19:52:35:898
3,912260	3,117780	2,613689	2020-10-29T19:52:35:921
1,114729	-1,988211	0,804185	2020-10-29T19:52:35:938
2,720094	-0,824265	2,795375	2020-10-29T19:52:35:961
3,980142	2,201991	1,231565	2020-10-29T19:52:35:978
4,262103	2,121993	-0,601770	2020-10-29T19:52:36:001
3,897615	0,746565	-0,954697	2020-10-29T19:52:36:018
0,444582	0,448634	-1,843854	2020-10-29T19:52:36:041
0,114372	-0,924846	-1,865390	2020-10-29T19:52:36:059
-1,624554	-0,646127	0,060420	2020-10-29T19:52:36:081
-2,291351	-2,589251	-1,857618	2020-10-29T19:52:36:103
-2,968190	-3,378119	-3,087804	2020-10-29T19:52:36:121
-2,925617	-3,886860	-3,486885	2020-10-29T19:52:36:147
-8,779943	2,150707	-4,011620	2020-10-29T19:53:01:281
-10,189606	1,832438	-4,642997	2020-10-29T19:53:01:283
-11,522675	1,672432	-5,286464	2020-10-29T19:53:01:283
-12,623457	2,035821	-5,634941	2020-10-29T19:53:01:284
-13,485789	2,615820	-5,776472	2020-10-29T19:53:01:287
-13,745346	3,428135	-5,787595	2020-10-29T19:53:01:288
-13,413760	3,732723	-5,754827	2020-10-29T19:53:01:289
-12,581846	3,144562	-5,940930	2020-10-29T19:53:01:290
-11,643358	2,428294	-6,708192	2020-10-29T19:53:01:291
-2,442698	-0,153735	0,429599	2020-10-29T19:53:01:291
-1,578889	-0,548551	-0,266713	2020-10-29T19:53:01:295
-0,716427	-0,093865	0,055033	2020-10-29T19:53:01:303
0,037313	-0,400146	0,028712	2020-10-29T19:53:01:317
0,728209	-0,387306	0,064301	2020-10-29T19:53:01:341
1,406819	0,032058	-0,550279	2020-10-29T19:53:01:359
1,880432	0,622819	-0,122401	2020-10-29T19:53:01:383
2,318318	0,850137	-0,337755	2020-10-29T19:53:01:433
2,722267	0,918278	-0,059244	2020-10-29T19:53:01:434
-1,104728	-1,067779	1,293871	2020-10-29T19:53:01:935
-1,261247	-0,509006	0,195780	2020-10-29T19:53:01:948
-1,364138	-0,432436	0,320207	2020-10-29T19:53:01:962
-1,406721	-0,558057	0,252023	2020-10-29T19:53:01:987
-1,095654	-0,275704	0,230487	2020-10-29T19:53:02:001
-0,691914	-0,266416	-0,163860	2020-10-29T19:53:02:024
-0,592355	-0,066162	-0,578118	2020-10-29T19:53:02:041
0,316439	0,025267	0,000814	2020-10-29T19:53:02:065
0,448044	0,068338	-0,315039	2020-10-29T19:53:02:082
-0,284837	-0,075310	-0,341047	2020-10-29T19:53:02:103
-1,056517	0,025139	-0,435070	2020-10-29T19:53:02:120
-1,233133	0,591055	-0,706556	2020-10-29T19:53:02:145
-2,903137	1,594506	-1,442281	2020-10-29T19:53:02:160
-5,112945	1,899713	-0,900988	2020-10-29T19:53:02:183
-4,308057	1,156585	0,833511	2020-10-29T19:53:02:201
-2,680307	0,792070	3,132336	2020-10-29T19:53:02:224
-2,036153	0,612618	4,416028	2020-10-29T19:53:02:241
-1,299855	1,515631	3,706453	2020-10-29T19:53:02:264
-0,720138	2,977893	2,108893	2020-10-29T19:53:02:281
-0,189257	3,951155	1,215144	2020-10-29T19:53:02:304
-0,315646	4,305982	1,333246	2020-10-29T19:53:02:322
-1,051217	5,956775	1,700755	2020-10-29T19:53:02:343
-1,280127	7,590695	1,556417	2020-10-29T19:53:02:360
-0,711905	7,841068	1,031143	2020-10-29T19:53:02:385
-0,238332	6,415069	1,046641	2020-10-29T19:53:02:400
-0,040642	3,755701	1,231433	2020-10-29T19:53:02:423
-0,702261	1,576665	1,494547	2020-10-29T19:53:02:441
-1,205935	-0,090316	2,092722	2020-10-29T19:53:02:464
-1,162683	-0,170447	2,893589	2020-10-29T19:53:02:481
-1,180133	0,250885	3,296360	2020-10-29T19:53:02:503
-6,359169	5,087156	5,644742	2020-10-29T19:53:02:520
-2,561775	-0,213947	0,295102	2020-10-29T19:53:02:545
-0,831562	0,432697	-0,604941	2020-10-29T19:53:02:564
0,911694	0,318422	-1,302407	2020-10-29T19:53:02:584
1,308902	-0,471209	-1,235408	2020-10-29T19:53:02:600
1,603876	0,072752	-0,045697	2020-10-29T19:53:02:625
1,904958	1,204431	-0,286551	2020-10-29T19:53:02:641
2,488210	0,843589	-0,158446	2020-10-29T19:53:02:664
2,701171	0,125742	-0,074697	2020-10-29T19:53:02:681
1,478876	0,692265	-0,114762	2020-10-29T19:53:02:705
0,746673	0,682693	-0,093226	2020-10-29T19:53:02:720
0,629848	0,334027	0,023454	2020-10-29T19:53:02:744
0,259043	0,405871	-0,005241	2020-10-29T19:53:02:761
-0,243231	0,261379	-0,017432	2020-10-29T19:53:02:786
-0,664567	0,038596	-0,119001	2020-10-29T19:53:02:801
-0,982357	-0,124735	-0,095248	2020-10-29T19:53:02:824
-1,287237	-0,244851	0,572228	2020-10-29T19:53:02:841
-1,317066	-0,452929	1,285007	2020-10-29T19:53:02:865
-1,894058	-0,743505	1,288619	2020-10-29T19:53:02:882
-2,074247	-1,004884	0,448158	2020-10-29T19:53:02:904
-2,347029	-0,660318	1,201897	2020-10-29T19:53:02:921
-2,321799	-0,490403	1,105601	2020-10-29T19:53:02:945
-1,810696	0,339630	0,653694	2020-10-29T19:53:02:961
-1,240807	2,087119	-0,212276	2020-10-29T19:53:02:984
-1,004956	2,080603	-0,391664	2020-10-29T19:53:03:001
-0,005129	0,007814	-0,009621	2020-10-29T19:53:03:025
0,102549	-0,119006	0,349303	2020-10-29T19:53:03:043
0,000152	0,124126	0,365540	2020-10-29T19:53:03:064
0,035500	-0,132648	0,500045	2020-10-29T19:53:03:081
0,646873	-0,186595	0,432621	2020-10-29T19:53:03:105
1,442394	-0,157353	0,107591	2020-10-29T19:53:03:121
1,603218	0,458074	-0,600639	2020-10-29T19:53:03:144
1,416577	0,407825	-0,971526	2020-10-29T19:53:03:161
-0,072801	-0,019037	0,015064	2020-10-29T19:53:03:186
-2,747976	-0,002287	0,412272	2020-10-29T19:53:03:201
-3,288605	-0,245898	0,621739	2020-10-29T19:53:03:224
-0,763151	0,221712	-0,314032	2020-10-29T19:53:03:241
-0,276445	0,147053	-1,584003	2020-10-29T19:53:03:265
-0,766426	-0,517943	-2,232355	2020-10-29T19:53:03:283
-0,176527	-0,556133	-2,522077	2020-10-29T19:53:03:304
0,528454	0,045982	-2,481688	2020-10-29T19:53:03:321
0,896358	0,395668	-2,092557	2020-10-29T19:53:03:346
0,949924	-0,315552	-1,536359	2020-10-29T19:53:03:362
0,554843	0,223067	-0,056404	2020-10-29T19:53:03:385
-0,048148	0,280494	0,149379	2020-10-29T19:53:03:402
0,135921	0,024244	0,002929	2020-10-29T19:53:03:426
0,693449	0,186956	-0,552206	2020-10-29T19:53:03:441
1,074404	0,667935	-0,239980	2020-10-29T19:53:03:464
-1,742145	4,580685	0,081332	2020-10-29T19:53:03:481
-1,856949	4,172279	0,642577	2020-10-29T19:53:03:505
-1,885674	4,678258	0,852824	2020-10-29T19:53:03:523
0,560393	0,130310	-0,074024	2020-10-29T19:53:03:545
0,438359	0,199702	-0,057274	2020-10-29T19:53:03:561
0,056513	-0,028749	0,152998	2020-10-29T19:53:03:586
-0,294463	-0,440793	0,555703	2020-10-29T19:53:03:602
-0,320306	-0,797212	0,831570	2020-10-29T19:53:03:625
-0,137691	-0,920718	1,349786	2020-10-29T19:53:03:642
-0,145703	-0,980783	1,784724	2020-10-29T19:53:03:666
-0,388288	-1,118619	2,510585	2020-10-29T19:53:03:682
-0,601639	-1,070471	2,858389	2020-10-29T19:53:03:705
-0,516802	-0,717294	2,771731	2020-10-29T19:53:03:721
-1,072070	0,758813	4,023903	2020-10-29T19:53:03:746
-0,945407	-1,784620	4,633250	2020-10-29T19:53:03:763
-0,626562	-1,325031	5,192173	2020-10-29T19:53:03:785
-0,325522	-0,114322	5,369640	2020-10-29T19:53:03:801
0,264032	-1,066493	5,314957	2020-10-29T19:53:03:826
0,853020	-1,905827	5,175900	2020-10-29T19:53:03:842
0,042038	0,012985	-0,023948	2020-10-29T19:53:03:865
0,539746	0,919865	-0,703510	2020-10-29T19:53:03:882
0,992117	0,902289	-0,812840	2020-10-29T19:53:03:906
0,167644	0,857506	-0,846241	2020-10-29T19:53:03:922
-2,137612	0,211764	0,103460	2020-10-29T19:53:03:945
-2,923929	-0,661855	1,881874	2020-10-29T19:53:03:962
-1,192854	-0,243128	0,612149	2020-10-29T19:53:03:987
-0,905715	-0,295770	-0,213375	2020-10-29T19:53:04:004
-1,244164	-0,393176	-0,179502	2020-10-29T19:53:04:025
-1,454764	-0,502752	-0,708447	2020-10-29T19:53:04:042
-0,965569	-0,235679	0,241201	2020-10-29T19:53:04:067
-2,444334	-1,020525	-0,512538	2020-10-29T19:53:04:082
-2,928460	-1,276027	0,059551	2020-10-29T19:53:04:106
-2,894896	-1,296798	-0,433237	2020-10-29T19:53:04:122
-1,925114	-0,354774	-1,052734	2020-10-29T19:53:04:147
-1,081364	0,793918	-1,797191	2020-10-29T19:53:04:162
-0,746602	1,532322	-1,828170	2020-10-29T19:53:04:186
-0,966744	1,773943	-1,531721	2020-10-29T19:53:04:202
-1,608560	1,687582	-1,360871	2020-10-29T19:53:04:226
-2,617504	1,490376	-1,229033	2020-10-29T19:53:04:245
-3,510218	1,461657	-1,339411	2020-10-29T19:53:04:265
-3,959029	1,770883	-1,597110	2020-10-29T19:53:04:283
-4,311347	2,219466	-1,840301	2020-10-29T19:53:04:306
-4,284745	2,677550	-2,209957	2020-10-29T19:53:04:322
-3,738873	3,539231	-2,384284	2020-10-29T19:53:04:345
-2,827390	4,226461	-2,497595	2020-10-29T19:53:04:362
-1,788750	4,664296	-2,324532	2020-10-29T19:53:04:387
-0,620250	4,970005	-2,219823	2020-10-29T19:53:04:402
0,584013	5,100326	-2,128570	2020-10-29T19:53:04:425
1,627090	5,054653	-1,994503	2020-10-29T19:53:04:443
2,293052	4,994688	-1,841443	2020-10-29T19:53:04:466
2,218605	4,988722	-2,256748	2020-10-29T19:53:04:484
1,510527	5,199662	-2,470736	2020-10-29T19:53:04:505
0,653939	5,421319	-2,332082	2020-10-29T19:53:04:522
0,297081	5,412457	-1,741886	2020-10-29T19:53:04:547
0,564820	5,850789	-1,491004	2020-10-29T19:53:04:563
0,334386	6,341373	-1,739940	2020-10-29T19:53:04:586
-0,277100	6,507144	-2,096515	2020-10-29T19:53:04:602
-1,104695	6,026549	-2,230382	2020-10-29T19:53:04:626
-2,191007	5,029650	-2,140561	2020-10-29T19:53:04:643
-3,807482	4,557302	-0,657862	2020-10-29T19:53:04:665
-4,948176	2,742770	0,474552	2020-10-29T19:53:04:683
-5,979247	-0,099670	1,932141	2020-10-29T19:53:04:707
-8,036772	-2,822566	3,596038	2020-10-29T19:53:04:724
-9,491048	-2,124317	3,960955	2020-10-29T19:53:04:746
-10,430124	-0,498493	4,113983	2020-10-29T19:53:04:763
-10,367256	-3,339516	3,812028	2020-10-29T19:53:04:788
-11,436850	-3,547692	4,292985	2020-10-29T19:53:04:803
-11,675776	-3,184169	4,313373	2020-10-29T19:53:04:826
-10,933149	-3,149703	4,717666	2020-10-29T19:53:04:843
-9,820765	-3,448759	4,909793	2020-10-29T19:53:04:867
-8,287604	-3,790479	5,026942	2020-10-29T19:53:04:883
-7,694427	-4,249832	5,065770	2020-10-29T19:53:04:906
-6,818663	-4,616813	4,951589	2020-10-29T19:53:04:923
-5,036636	-4,486838	4,468211	2020-10-29T19:53:04:947
-2,011775	-3,677686	3,749832	2020-10-29T19:53:04:964
0,947998	-2,880527	2,422197	2020-10-29T19:53:04:986
2,434644	-1,962484	1,175848	2020-10-29T19:53:05:003
3,327401	0,723628	-0,834067	2020-10-29T19:53:05:027
4,746345	1,510867	-1,300667	2020-10-29T19:53:05:043
8,114928	0,930185	-3,689860	2020-10-29T19:53:05:067
10,000801	0,949106	-2,593398	2020-10-29T19:53:05:083
11,068140	-0,425319	-2,263285	2020-10-29T19:53:05:107
12,594966	-2,434284	-1,683176	2020-10-29T19:53:05:123
12,849787	-2,895627	-0,944238	2020-10-29T19:53:05:146
12,010720	-2,712778	-0,339125	2020-10-29T19:53:05:163
11,191647	-1,547246	-0,488880	2020-10-29T19:53:05:187
10,369229	-0,539808	-0,758730	2020-10-29T19:53:05:204
9,817209	0,194738	-0,854055	2020-10-29T19:53:05:226
9,658991	0,699665	-1,075056	2020-10-29T19:53:05:243
8,434824	0,634998	-1,223150	2020-10-29T19:53:05:267
7,634636	-0,010804	-1,230131	2020-10-29T19:53:05:287
6,517163	0,505126	-1,334631	2020-10-29T19:53:05:307
4,865122	1,080031	-1,063948	2020-10-29T19:53:05:324
0,706499	1,420209	0,092018	2020-10-29T19:53:05:348
-5,672355	0,975632	0,022226	2020-10-29T19:53:05:363
-15,875754	0,981870	-2,307371	2020-10-29T19:53:05:388
-24,013168	0,141642	-1,956240	2020-10-29T19:53:05:403
-17,397537	-3,494476	1,849658	2020-10-29T19:53:05:428
-17,457359	-3,772043	2,785252	2020-10-29T19:53:05:446
-10,253181	-0,805501	2,243528	2020-10-29T19:53:05:466
-3,511048	0,405586	0,888148	2020-10-29T19:53:05:484
-1,265441	0,678566	0,100472	2020-10-29T19:53:05:508
-0,858644	-0,527457	0,315641	2020-10-29T19:53:05:524
-0,335681	-0,080875	0,089669	2020-10-29T19:53:05:547
-0,132290	-1,605103	0,951086	2020-10-29T19:53:05:564
-0,006073	-0,993033	0,288593	2020-10-29T19:53:05:588
0,315442	-1,188949	-0,235684	2020-10-29T19:53:05:604
0,173621	0,096110	-0,046914	2020-10-29T19:53:05:627
0,290870	1,321236	-0,951401	2020-10-29T19:53:05:644
0,952941	1,636067	-0,665708	2020-10-29T19:53:05:668
0,664191	2,984086	-1,123890	2020-10-29T19:53:05:685
0,790442	3,853636	-1,512529	2020-10-29T19:53:05:706
0,956008	4,339501	-1,769603	2020-10-29T19:53:05:723
1,002450	4,386295	-2,018761	2020-10-29T19:53:05:748
1,067341	3,864322	-1,947896	2020-10-29T19:53:05:764
2,302154	0,224291	-0,210518	2020-10-29T19:53:05:787
2,199263	-0,395450	0,083799	2020-10-29T19:53:05:804
1,884166	-0,055027	0,161140	2020-10-29T19:53:05:828
1,816475	-0,324861	0,732646	2020-10-29T19:53:05:844
1,630513	-0,493010	1,099451	2020-10-29T19:53:05:868
1,535448	-0,518517	0,902789	2020-10-29T19:53:05:884
0,386522	-0,455844	0,423018	2020-10-29T19:53:05:908
-0,822836	-0,531385	0,561524	2020-10-29T19:53:05:925
-1,159865	-0,042419	0,940793	2020-10-29T19:53:05:947
-0,784194	1,604724	0,651894	2020-10-29T19:53:05:964
0,212992	2,168781	1,312497	2020-10-29T19:53:05:988
-0,451747	1,376167	1,707973	2020-10-29T19:53:06:004
-2,143819	0,422186	1,650420	2020-10-29T19:53:06:027
-2,550252	-0,274326	1,304993	2020-10-29T19:53:06:044
-2,666987	-0,745067	0,916631	2020-10-29T19:53:06:068
-2,737107	-1,079828	0,404400	2020-10-29T19:53:06:084
-2,850433	-1,520006	0,131796	2020-10-29T19:53:06:107
-3,306614	-1,936356	0,192588	2020-10-29T19:53:06:124
-2,722614	-2,793335	0,539753	2020-10-29T19:53:06:148
-1,553968	-3,462729	0,892845	2020-10-29T19:53:06:165
-0,629570	-3,789752	1,127887	2020-10-29T19:53:06:187
0,283317	-3,769722	1,148326	2020-10-29T19:53:06:204
0,682557	-3,516535	1,140920	2020-10-29T19:53:06:228
0,712938	-3,413802	1,118270	2020-10-29T19:53:06:245
0,749860	-3,226881	1,000500	2020-10-29T19:53:06:267
0,711411	-2,898137	0,901359	2020-10-29T19:53:06:284
1,044436	-2,800556	1,175288	2020-10-29T19:53:06:308
2,087159	-3,149127	1,610337	2020-10-29T19:53:06:324
3,068080	-3,434668	2,251913	2020-10-29T19:53:06:348
3,629330	-4,522679	2,766404	2020-10-29T19:53:06:364
3,802364	-4,279381	2,753153	2020-10-29T19:53:06:389
3,623438	-3,655708	2,689954	2020-10-29T19:53:06:405
2,062788	0,805178	-0,771352	2020-10-29T19:53:06:428
1,194194	0,723822	-0,536855	2020-10-29T19:53:06:445
0,674423	0,659271	-0,273335	2020-10-29T19:53:06:468
0,062563	0,633631	0,219583	2020-10-29T19:53:06:485
-1,038289	0,131350	0,891422	2020-10-29T19:53:06:507
-1,304317	-0,075980	1,158753	2020-10-29T19:53:06:524
-1,986835	-0,112367	1,074520	2020-10-29T19:53:06:549
-4,429327	-0,405411	1,941897	2020-10-29T19:53:06:564
-6,129621	-0,984088	2,811154	2020-10-29T19:53:06:588
-5,883223	-0,801676	2,533595	2020-10-29T19:53:06:604
-5,364472	-0,692478	2,401637	2020-10-29T19:53:06:628
-2,956557	-0,783868	1,958079	2020-10-29T19:53:06:646
-0,457984	-0,379595	0,784913	2020-10-29T19:53:06:667
0,451235	0,261237	-0,394204	2020-10-29T19:53:06:685
-0,354119	0,701419	-0,974778	2020-10-29T19:53:06:708
-1,357069	0,550981	-1,097966	2020-10-29T19:53:06:725
-1,486932	-0,474835	0,275237	2020-10-29T19:53:06:748
-1,599395	-0,560977	0,392485	2020-10-29T19:53:06:765
-2,435444	-0,368652	0,306535	2020-10-29T19:53:06:789
-2,557592	-1,225553	-0,198337	2020-10-29T19:53:06:804
-2,916395	-0,781530	-0,923348	2020-10-29T19:53:06:828
-3,461852	0,193302	-1,450381	2020-10-29T19:53:06:845
-2,812763	-0,633528	0,186341	2020-10-29T19:53:06:869
-2,575873	-0,312890	-0,110369	2020-10-29T19:53:06:886
-2,165368	-0,519623	-0,069067	2020-10-29T19:53:06:907
-1,838344	0,163364	-0,381242	2020-10-29T19:53:06:925
-1,541435	0,713970	-0,748937	2020-10-29T19:53:06:951
-1,296464	1,188721	-0,921858	2020-10-29T19:53:06:965
-0,254913	-0,111097	0,018303	2020-10-29T19:53:06:988
0,226044	-0,125454	0,054195	2020-10-29T19:53:07:005
0,699056	0,214617	-0,029937	2020-10-29T19:53:07:029
1,013871	1,049209	-0,054854	2020-10-29T19:53:07:045
1,181936	1,856872	0,039291	2020-10-29T19:53:07:068
1,508441	2,455668	-0,032334	2020-10-29T19:53:07:085
2,297971	0,625632	-0,259258	2020-10-29T19:53:07:109
2,477433	0,886450	-0,041512	2020-10-29T19:53:07:126
2,650824	0,734131	-0,152810	2020-10-29T19:53:07:148
2,539038	1,167700	-0,155279	2020-10-29T19:53:07:165
2,436020	0,370998	-0,540743	2020-10-29T19:53:07:190
2,129739	0,356641	-0,430673	2020-10-29T19:53:07:205
0,719498	0,055718	-0,124553	2020-10-29T19:53:07:228
-1,788181	-0,006495	0,322905	2020-10-29T19:53:07:247
-2,136476	-0,268527	0,331769	2020-10-29T19:53:07:270
-1,581343	-0,550880	-0,331043	2020-10-29T19:53:07:285
-1,165939	-0,964847	0,650549	2020-10-29T19:53:07:308
0,110901	-2,825463	1,679763	2020-10-29T19:53:07:325
1,463010	-4,381106	2,663631	2020-10-29T19:53:07:350
1,110280	-4,279034	2,885239	2020-10-29T19:53:07:366
-1,237557	-0,598864	0,425968	2020-10-29T19:53:07:389
-1,933867	-0,309332	-0,741729	2020-10-29T19:53:07:405
-1,414439	0,464689	-0,509603	2020-10-29T19:53:07:429
-1,636548	1,723914	-1,212093	2020-10-29T19:53:07:445
-2,302102	1,697857	-1,701924	2020-10-29T19:53:07:468
-2,146515	0,549397	-2,085698	2020-10-29T19:53:07:485
-0,920480	-0,448235	-0,371793	2020-10-29T19:53:07:510
-2,961558	3,227140	3,291618	2020-10-29T19:53:07:525
0,304626	-6,243878	-0,674099	2020-10-29T19:53:07:548
1,281613	-5,850284	-1,006598	2020-10-29T19:53:07:565
-0,311985	-0,167915	-0,032646	2020-10-29T19:53:07:590
-0,826443	0,346542	0,182708	2020-10-29T19:53:07:606
-0,474797	-0,189196	0,168765	2020-10-29T19:53:07:628
-0,519730	-0,520412	0,335124	2020-10-29T19:53:07:645
-1,144812	-0,363481	-0,042397	2020-10-29T19:53:07:670
-1,592270	-0,148127	-0,159645	2020-10-29T19:53:07:686
-1,667950	-0,298384	-0,210676	2020-10-29T19:53:07:708
-2,077353	0,066047	-0,338630	2020-10-29T19:53:07:725
-2,940425	0,209405	0,287299	2020-10-29T19:53:07:750
-3,043424	0,720081	1,364296	2020-10-29T19:53:07:765
-2,547482	1,128206	2,427992	2020-10-29T19:53:07:790
-2,133543	1,141640	3,856896	2020-10-29T19:53:07:805
-1,518357	0,769216	4,873619	2020-10-29T19:53:07:830
-1,409231	0,476223	5,582351	2020-10-29T19:53:07:847
-1,067452	0,577571	5,536657	2020-10-29T19:53:07:868
-0,611792	1,178260	5,369877	2020-10-29T19:53:07:886
-0,660892	-0,231849	0,284834	2020-10-29T19:53:07:911
-3,939058	0,105539	1,548244	2020-10-29T19:53:07:926
-5,403028	-0,507982	1,883056	2020-10-29T19:53:07:949
-5,660235	0,374728	0,694822	2020-10-29T19:53:07:966
-5,140262	0,190075	-0,026291	2020-10-29T19:53:07:990
-2,787018	-0,122647	-0,664704	2020-10-29T19:53:08:006
-1,041170	-0,230157	0,322862	2020-10-29T19:53:08:029
-1,419237	0,064160	0,361147	2020-10-29T19:53:08:046
-1,740216	-0,098948	0,486316	2020-10-29T19:53:08:070
-2,202953	0,071209	-0,254997	2020-10-29T19:53:08:087
-2,640907	0,256906	-1,087301	2020-10-29T19:53:08:109
-3,078101	0,454677	-1,670885	2020-10-29T19:53:08:126
-3,278722	-0,225915	-2,651858	2020-10-29T19:53:08:150
-3,621474	0,523170	-2,885982	2020-10-29T19:53:08:166
-3,617857	0,758846	-3,395481	2020-10-29T19:53:08:189
-3,109517	0,467298	-3,834898	2020-10-29T19:53:08:206
-2,804181	0,241884	-4,622836	2020-10-29T19:53:08:230
-2,615316	-0,010942	-5,105639	2020-10-29T19:53:08:246
-0,924671	-0,519348	0,024459	2020-10-29T19:53:08:270
-2,008619	-1,308979	-0,267466	2020-10-29T19:53:08:286
-2,466968	-0,609299	-0,246705	2020-10-29T19:53:08:310
-3,517789	3,440920	-0,920491	2020-10-29T19:53:08:328
-2,524113	4,037638	-1,640991	2020-10-29T19:53:08:349
-1,627641	4,007230	-1,658831	2020-10-29T19:53:08:366
-1,584098	3,888438	-1,364584	2020-10-29T19:53:08:391
-1,939121	3,557069	-0,336891	2020-10-29T19:53:08:406
-1,933799	4,502460	-0,676130	2020-10-29T19:53:08:429
-2,366282	4,942427	-0,919892	2020-10-29T19:53:08:447
-3,191744	4,882793	-0,809023	2020-10-29T19:53:08:470
-4,028533	5,230414	-0,673225	2020-10-29T19:53:08:486
-3,909554	5,882691	-0,225410	2020-10-29T19:53:08:509
-3,690835	6,668778	0,534069	2020-10-29T19:53:08:526
-3,564120	8,564234	0,419163	2020-10-29T19:53:08:551
-3,798173	9,783173	0,407758	2020-10-29T19:53:08:567
-2,470299	8,695622	0,595287	2020-10-29T19:53:08:589
-1,200928	6,194551	1,223700	2020-10-29T19:53:08:606
-1,188611	0,044424	0,300776	2020-10-29T19:53:08:631
-0,920615	-1,235736	1,691005	2020-10-29T19:53:08:647
0,024383	-0,615560	0,604250	2020-10-29T19:53:08:669
0,817650	-0,186158	0,488642	2020-10-29T19:53:08:687
0,330591	0,021138	0,827604	2020-10-29T19:53:08:711
-0,201825	-0,605111	1,437136	2020-10-29T19:53:08:726
-0,594442	-0,373937	1,901087	2020-10-29T19:53:08:750
-0,500200	0,127855	2,284210	2020-10-29T19:53:08:766
-0,180568	0,114942	2,747947	2020-10-29T19:53:08:792
-0,224738	-0,388066	3,139918	2020-10-29T19:53:08:808
-0,288379	-0,527378	3,128530	2020-10-29T19:53:08:830
-0,067632	-0,824010	3,333172	2020-10-29T19:53:08:847
0,126408	0,010249	-0,016022	2020-10-29T19:53:08:872
-0,048268	-0,738704	0,082084	2020-10-29T19:53:08:887
-0,683887	-0,378304	-0,085886	2020-10-29T19:53:08:910
-1,012626	-0,607557	0,191842	2020-10-29T19:53:08:927
-0,884225	-1,347480	0,574193	2020-10-29T19:53:08:952
-0,344241	-2,521629	1,067345	2020-10-29T19:53:08:967
0,314226	-3,054389	1,420778	2020-10-29T19:53:08:990
0,937558	-3,277118	1,713632	2020-10-29T19:53:09:007
1,241335	-3,229003	1,961329	2020-10-29T19:53:09:031
0,103100	0,062285	-0,034434	2020-10-29T19:53:09:050
0,342381	0,165177	-0,024863	2020-10-29T19:53:09:070
0,162010	0,483128	-0,221019	2020-10-29T19:53:09:087
0,444232	0,204802	-0,170944	2020-10-29T19:53:09:112
0,097272	0,204802	-0,151801	2020-10-29T19:53:09:127
-0,459058	0,072929	-0,042696	2020-10-29T19:53:09:150
-0,970100	-0,135795	0,163966	2020-10-29T19:53:09:167
-1,313540	-0,033465	0,331259	2020-10-29T19:53:09:192
-1,666937	0,256945	-0,040856	2020-10-29T19:53:09:207
-4,824887	-0,033431	0,534519	2020-10-29T19:53:09:230
-6,382110	-0,768998	1,248823	2020-10-29T19:53:09:247
-5,732065	-0,419291	0,070446	2020-10-29T19:53:09:271
-4,909762	-0,147255	-0,870974	2020-10-29T19:53:09:288
-1,769040	-0,235871	-1,432265	2020-10-29T19:53:09:310
-0,089230	0,669783	-2,110929	2020-10-29T19:53:09:327
0,522027	0,154044	-0,051293	2020-10-29T19:53:09:353
-0,109678	-0,755228	0,324380	2020-10-29T19:53:09:367
-1,905187	-0,698170	0,170715	2020-10-29T19:53:09:391
-2,434000	-2,074043	0,687564	2020-10-29T19:53:09:407
-3,739916	0,889333	-0,186771	2020-10-29T19:53:09:431
-4,432328	3,360430	-0,262854	2020-10-29T19:53:09:447
-4,537208	2,872190	0,110410	2020-10-29T19:53:09:470
-4,702497	2,284905	0,352072	2020-10-29T19:53:09:488
-3,312067	-0,621446	0,504050	2020-10-29T19:53:09:512
-2,773733	-0,372612	-0,459885	2020-10-29T19:53:09:530
-2,289479	-0,050694	-1,333930	2020-10-29T19:53:09:551
-2,062162	0,023484	-1,654568	2020-10-29T19:53:09:567
-1,364082	-0,381392	-0,293882	2020-10-29T19:53:09:592
-1,147604	0,528683	-0,645643	2020-10-29T19:53:09:607
-0,405051	-0,133385	-0,020447	2020-10-29T19:53:09:631
0,140512	-0,052029	0,068087	2020-10-29T19:53:09:648
0,459306	0,082978	0,468869	2020-10-29T19:53:09:672
-0,550571	3,259587	0,599404	2020-10-29T19:53:09:688
-1,345806	5,320143	0,755301	2020-10-29T19:53:09:710
1,700519	0,247779	-0,135192	2020-10-29T19:53:09:728
1,988406	0,282390	0,039246	2020-10-29T19:53:09:752
2,119236	0,008950	0,386939	2020-10-29T19:53:09:769
2,140024	-0,439246	0,897241	2020-10-29T19:53:09:791
2,211809	-0,453603	1,062346	2020-10-29T19:53:09:808
1,568979	1,087296	-0,565753	2020-10-29T19:53:09:832
0,495579	1,805518	-1,398818	2020-10-29T19:53:09:848
-1,402506	1,821884	-1,522857	2020-10-29T19:53:09:870
-1,583677	1,398635	-1,093229	2020-10-29T19:53:09:888
-0,337555	-0,044769	0,069503	2020-10-29T19:53:09:912
-0,028880	-0,310373	1,141488	2020-10-29T19:53:09:928
0,847933	-0,931634	1,100060	2020-10-29T19:53:09:951
1,812675	-1,674200	2,124707	2020-10-29T19:53:09:968
1,871606	-1,959394	2,849731	2020-10-29T19:53:09:992
0,958840	-2,597000	3,362442	2020-10-29T19:53:10:009
0,275128	-2,906730	3,222569	2020-10-29T19:53:10:031
-0,229888	-2,868816	2,952198	2020-10-29T19:53:10:048
-0,832984	-2,727829	2,442905	2020-10-29T19:53:10:073
-1,721119	-2,425740	1,851121	2020-10-29T19:53:10:088
-1,959410	-2,268641	1,848908	2020-10-29T19:53:10:111
-1,641641	-2,326938	2,017684	2020-10-29T19:53:10:128
-1,296386	-2,780420	2,349848	2020-10-29T19:53:10:152
-0,889926	-3,780412	2,661106	2020-10-29T19:53:10:168
-0,779839	-4,617733	2,681372	2020-10-29T19:53:10:191
-0,603638	-5,215240	2,617103	2020-10-29T19:53:10:208
-0,405692	-5,768811	2,566234	2020-10-29T19:53:10:232
-0,333792	-6,499454	2,439177	2020-10-29T19:53:10:249
-0,494844	-6,792817	2,697009	2020-10-29T19:53:10:271
-0,754401	-6,561635	2,798291	2020-10-29T19:53:10:288
-1,092121	-0,503505	0,267404	2020-10-29T19:53:10:313
-0,185242	-0,350365	0,140584	2020-10-29T19:53:10:328
0,353408	0,067605	0,329339	2020-10-29T19:53:10:351
1,051191	0,267364	0,795301	2020-10-29T19:53:10:368
1,302489	0,776848	1,343790	2020-10-29T19:53:10:393
1,300670	0,852059	1,613771	2020-10-29T19:53:10:408
0,842725	0,502687	1,877794	2020-10-29T19:53:10:432
0,183457	-0,070281	1,924844	2020-10-29T19:53:10:449
-0,172469	-0,626381	1,914353	2020-10-29T19:53:10:473
-0,745115	-0,703151	2,309758	2020-10-29T19:53:10:491
-1,428530	-0,567403	1,914798	2020-10-29T19:53:10:512
-4,955626	-0,711094	2,958038	2020-10-29T19:53:10:530
-7,253120	-1,333276	4,247720	2020-10-29T19:53:10:553
-5,395027	-0,797134	3,922751	2020-10-29T19:53:10:570
-2,563720	-0,752064	1,100681	2020-10-29T19:53:10:594
-0,434107	-0,565424	-0,126837	2020-10-29T19:53:10:610
-0,640195	0,043196	-0,440489	2020-10-29T19:53:10:632
-1,977757	0,216159	-0,675472	2020-10-29T19:53:10:650
-3,127847	0,260607	-1,106640	2020-10-29T19:53:10:672
-4,280072	0,427263	-1,926265	2020-10-29T19:53:10:690
-3,485618	-0,626227	0,416037	2020-10-29T19:53:10:713
-3,581329	-0,485050	0,186326	2020-10-29T19:53:10:731
-3,488974	-0,440742	0,194727	2020-10-29T19:53:10:752
-3,393707	0,123713	-0,187038	2020-10-29T19:53:10:770
-3,336173	0,567858	-0,608298	2020-10-29T19:53:10:793
-3,036777	0,732915	-1,021233	2020-10-29T19:53:10:810
-2,774759	0,660206	-1,421614	2020-10-29T19:53:10:832
-2,682751	0,636141	-1,749851	2020-10-29T19:53:10:850
-1,804677	-0,351617	0,075054	2020-10-29T19:53:10:873
-1,505574	-0,703362	-0,015873	2020-10-29T19:53:10:889
-1,047401	-0,688282	0,268301	2020-10-29T19:53:10:912
-0,430629	0,017007	0,370851	2020-10-29T19:53:10:930
0,424921	0,602809	0,786295	2020-10-29T19:53:10:953
1,014898	0,998562	1,251896	2020-10-29T19:53:10:971
1,010689	1,565419	1,161479	2020-10-29T19:53:10:992
0,759166	2,238870	0,743525	2020-10-29T19:53:11:009
0,918045	2,718554	0,330310	2020-10-29T19:53:11:033
1,193119	3,003237	0,051577	2020-10-29T19:53:11:049
1,487737	3,313098	-0,268129	2020-10-29T19:53:11:072
1,627320	3,315362	-0,224096	2020-10-29T19:53:11:089
1,818693	3,123988	0,118684	2020-10-29T19:53:11:113
1,785668	3,067716	0,144197	2020-10-29T19:53:11:129
1,639545	3,187550	0,128311	2020-10-29T19:53:11:152
1,659407	3,244367	0,084774	2020-10-29T19:53:11:169
2,232684	0,405018	-0,921119	2020-10-29T19:53:11:194
0,993202	0,694549	-1,002475	2020-10-29T19:53:11:210
0,513127	-0,088420	0,105098	2020-10-29T19:53:11:232
1,218198	-0,072155	-0,159602	2020-10-29T19:53:11:249
0,657061	0,174944	-0,306854	2020-10-29T19:53:11:273
0,254129	-0,580206	0,756127	2020-10-29T19:53:11:289
1,400118	-1,312097	1,866067	2020-10-29T19:53:11:313
2,522530	-0,930306	2,021055	2020-10-29T19:53:11:329
2,857926	-0,979162	2,161304	2020-10-29T19:53:11:353
2,629734	-1,471329	2,364001	2020-10-29T19:53:11:369
0,627001	0,160844	-0,300540	2020-10-29T19:53:11:394
-0,109987	0,357056	-0,257470	2020-10-29T19:53:11:410
-0,695250	0,266819	-0,166430	2020-10-29T19:53:11:433
-1,228066	0,351027	-0,131814	2020-10-29T19:53:11:451
-1,639894	0,391185	-0,181623	2020-10-29T19:53:11:472
-2,062287	0,536812	-0,425972	2020-10-29T19:53:11:489
-2,143488	0,573771	-0,632295	2020-10-29T19:53:11:513
-1,934011	0,402637	-0,423229	2020-10-29T19:53:11:529
-1,605530	-0,230296	0,046220	2020-10-29T19:53:11:553
-0,926779	-1,402483	0,724099	2020-10-29T19:53:11:570
-1,466654	-0,363090	0,371805	2020-10-29T19:53:11:594
-1,536046	-1,126400	0,680478	2020-10-29T19:53:11:610
-1,696800	-1,160427	0,728986	2020-10-29T19:53:11:633
-1,428054	-1,544740	0,938001	2020-10-29T19:53:11:650
-1,112668	-1,406361	0,986169	2020-10-29T19:53:11:674
-0,749352	-1,206884	1,073975	2020-10-29T19:53:11:691
-0,438911	-0,805347	1,465477	2020-10-29T19:53:11:713
-0,051562	-0,540747	1,728603	2020-10-29T19:53:11:730
0,218533	-0,317211	2,068811	2020-10-29T19:53:11:754
0,390010	-0,316267	2,227356	2020-10-29T19:53:11:770
0,655185	-0,382798	2,337806	2020-10-29T19:53:11:793
0,610140	-0,430300	2,415070	2020-10-29T19:53:11:810
0,604444	-0,534789	2,538680	2020-10-29T19:53:11:834
0,448522	-0,438821	2,664683	2020-10-29T19:53:11:850
0,261013	-0,261835	2,810521	2020-10-29T19:53:11:873
0,317216	-0,250434	2,907792	2020-10-29T19:53:11:890
0,132500	-0,052678	2,669023	2020-10-29T19:53:11:914
-1,771802	-0,085106	2,274496	2020-10-29T19:53:11:931
-4,903455	-0,715078	2,952977	2020-10-29T19:53:11:954
-6,834795	-1,176154	3,678740	2020-10-29T19:53:11:970
-5,918952	-0,846637	3,054117	2020-10-29T19:53:11:997
-2,579932	-0,376682	1,367613	2020-10-29T19:53:12:016
-0,304573	-0,673034	0,630548	2020-10-29T19:53:12:033
1,141921	-0,623347	0,558916	2020-10-29T19:53:12:050
0,921207	0,037957	-0,320169	2020-10-29T19:53:12:074
-0,428997	0,311209	-0,640903	2020-10-29T19:53:12:091
-1,942516	-0,706656	-0,767244	2020-10-29T19:53:12:113
-3,622573	-0,805715	-0,885445	2020-10-29T19:53:12:130
-3,995939	-1,283831	0,514772	2020-10-29T19:53:12:155
-3,689658	-0,877051	-0,358608	2020-10-29T19:53:12:171
-3,068824	-0,233504	-0,763845	2020-10-29T19:53:12:193
-3,359170	0,872272	-1,739321	2020-10-29T19:53:12:210
-4,092598	1,433670	-2,517263	2020-10-29T19:53:12:234
-3,793266	1,696450	-3,991819	2020-10-29T19:53:12:251
-2,704509	1,795957	-4,549037	2020-10-29T19:53:12:273
-2,247261	1,247334	-4,241380	2020-10-29T19:53:12:291
-2,354044	1,348351	-3,785322	2020-10-29T19:53:12:314
-2,534637	2,220933	-3,791195	2020-10-29T19:53:12:330
-2,158400	2,447598	-3,902716	2020-10-29T19:53:12:353
-1,499103	2,733411	-3,616407	2020-10-29T19:53:12:371
15,452744	-6,259566	-31,966606	2020-10-29T19:53:12:395
-3,173192	9,868298	0,240152	2020-10-29T19:53:12:477
-3,859043	6,314749	1,595304	2020-10-29T19:53:12:886
0,478204	3,085892	0,194340	2020-10-29T19:53:12:886
-0,759929	5,688836	-1,652924	2020-10-29T19:53:12:887
3,399680	4,101908	-3,163523	2020-10-29T19:53:12:888
2,519359	4,939462	-2,585329	2020-10-29T19:53:12:889
2,247754	4,670164	-1,337249	2020-10-29T19:53:12:890
3,227261	3,095471	0,404371	2020-10-29T19:53:12:890
3,331451	2,299238	1,319570	2020-10-29T19:53:12:891
1,942109	3,447482	1,504089	2020-10-29T19:53:12:893
-0,999894	4,854670	2,360755	2020-10-29T19:53:12:893
-5,169329	4,899173	3,857994	2020-10-29T19:53:12:922
-5,529519	-0,383944	2,057048	2020-10-29T19:53:12:924
-3,706189	1,094821	2,138404	2020-10-29T19:53:12:942
-2,306322	-0,355145	2,980373	2020-10-29T19:53:12:968
-2,029130	-1,664689	2,931219	2020-10-29T19:53:12:969
-2,882020	-0,623595	2,209671	2020-10-29T19:53:12:970
-2,075645	3,808568	0,182600	2020-10-29T19:53:12:971
-6,461037	-3,041496	5,128861	2020-10-29T19:53:12:971
-4,206998	-9,911289	-0,075528	2020-10-29T19:53:12:972
-4,137193	-8,467787	-1,204181	2020-10-29T19:53:12:972
-1,565156	-1,922132	-0,269915	2020-10-29T19:53:12:973
-2,419221	4,475524	0,146374	2020-10-29T19:53:12:973
1,430089	0,218297	-0,379753	2020-10-29T19:53:12:973
1,176450	0,321188	-1,006673	2020-10-29T19:53:12:975
1,072040	0,195353	-0,131270	2020-10-29T19:53:12:976
1,253893	0,252781	-0,236554	2020-10-29T19:53:12:976
1,255453	-0,378411	-0,196434	2020-10-29T19:53:13:051
1,337058	-1,570210	-0,494176	2020-10-29T19:53:13:068
1,119115	-2,103873	-0,823646	2020-10-29T19:53:13:069
0,961821	-1,868237	-0,943049	2020-10-29T19:53:13:069
0,917531	-1,528969	-0,756782	2020-10-29T19:53:13:071
0,969375	-1,236792	-0,196629	2020-10-29T19:53:13:071
0,870687	-1,317213	0,480528	2020-10-29T19:53:13:072
1,131378	-1,395868	0,679200	2020-10-29T19:53:13:105
0,721327	0,200269	-0,144517	2020-10-29T19:53:13:114
0,876861	0,221804	0,044516	2020-10-29T19:53:13:146
0,935146	0,122827	0,052472	2020-10-29T19:53:13:159
1,004828	-0,402005	0,486166	2020-10-29T19:53:13:173
0,889323	-0,801676	1,051316	2020-10-29T19:53:13:216
-0,186059	-0,081786	0,074102	2020-10-29T19:53:13:242
-0,190845	-0,457459	0,583774	2020-10-29T19:53:13:243
-0,693526	-0,422029	0,823535	2020-10-29T19:53:13:258
-0,783422	-0,221158	1,499568	2020-10-29T19:53:13:290
-0,903274	-0,424398	2,003215	2020-10-29T19:53:13:291
-1,241221	0,811406	4,350627	2020-10-29T19:53:13:338
-1,413599	1,245084	6,112714	2020-10-29T19:53:13:357
-3,898301	7,849595	1,769218	2020-10-29T19:53:13:358
-8,874128	9,539113	-1,601952	2020-10-29T19:53:13:376
-5,775890	3,875815	-2,156473	2020-10-29T19:53:13:531
-1,240601	3,864436	-2,935357	2020-10-29T19:53:13:531
-0,043170	2,490383	-3,963077	2020-10-29T19:53:13:599
-0,713726	0,687121	-4,238139	2020-10-29T19:53:13:600
-2,609270	0,078493	-3,811707	2020-10-29T19:53:13:600
-3,896959	0,294423	-3,310687	2020-10-29T19:53:13:601
-2,502367	-0,524295	0,501444	2020-10-29T19:53:13:607
-2,124301	-1,892989	-0,058476	2020-10-29T19:53:13:607
-1,658051	-1,860810	-0,430981	2020-10-29T19:53:13:608
-0,943277	-1,487277	-0,842638	2020-10-29T19:53:13:609
-0,493858	-0,223820	-1,098273	2020-10-29T19:53:13:609
-0,632827	1,059709	-1,082509	2020-10-29T19:53:13:610
-0,667218	1,776578	-0,738260	2020-10-29T19:53:13:632
-0,310113	1,922015	-0,413164	2020-10-29T19:53:13:649
0,299427	1,844136	-0,556308	2020-10-29T19:53:13:673
0,425748	1,447412	-0,908686	2020-10-29T19:53:13:689
0,227830	1,528724	-0,926650	2020-10-29T19:53:13:712
-0,287022	1,158596	-1,059113	2020-10-29T19:53:13:729
-0,690890	1,173609	-1,142745	2020-10-29T19:53:13:758
-0,716471	1,513258	-1,200539	2020-10-29T19:53:13:769
-0,653046	2,025730	-1,214511	2020-10-29T19:53:13:798
-0,409012	2,447552	-1,118989	2020-10-29T19:53:13:822
0,007469	2,810192	-1,150641	2020-10-29T19:53:13:840
0,194133	3,048589	-1,238469	2020-10-29T19:53:13:862
0,176827	2,865807	-1,179628	2020-10-29T19:53:13:875
0,094148	2,748940	-0,722248	2020-10-29T19:53:13:891
0,700047	0,126048	-0,109377	2020-10-29T19:53:13:914
0,779010	-0,187412	0,101192	2020-10-29T19:53:13:930
1,005630	-0,429984	0,402813	2020-10-29T19:53:13:955
1,199370	-0,531637	0,568161	2020-10-29T19:53:13:972
1,183574	1,076170	0,452034	2020-10-29T19:53:13:996
1,908329	2,970829	0,118905	2020-10-29T19:53:14:025
0,945790	-0,021179	-0,275166	2020-10-29T19:53:14:053
-2,191201	-2,155577	2,076979	2020-10-29T19:53:14:055
-3,814465	-1,329798	1,054060	2020-10-29T19:53:14:077
-3,415307	-0,149502	1,389811	2020-10-29T19:53:14:111
-2,571442	1,093339	1,061716	2020-10-29T19:53:14:163
-1,169931	0,766189	2,084917	2020-10-29T19:53:14:164
0,207569	1,942414	2,091018	2020-10-29T19:53:14:172
-0,270080	1,815324	2,120501	2020-10-29T19:53:14:173
-1,111103	1,554726	2,545750	2020-10-29T19:53:14:196
-1,615258	1,772458	2,151826	2020-10-29T19:53:14:212
-1,726359	0,727270	2,358637	2020-10-29T19:53:14:237
-1,072001	-2,728976	2,339562	2020-10-29T19:53:14:251
-0,323340	-4,092461	2,318210	2020-10-29T19:53:14:275
0,175960	-2,952691	2,554748	2020-10-29T19:53:14:293
0,435933	-0,571276	2,459871	2020-10-29T19:53:14:316
1,765464	-3,154371	2,057694	2020-10-29T19:53:14:333
0,618300	0,249339	-0,305720	2020-10-29T19:53:14:355
0,936546	1,225610	0,225486	2020-10-29T19:53:14:372
1,479852	-0,435044	0,667116	2020-10-29T19:53:14:396
1,368674	0,041803	1,177094	2020-10-29T19:53:14:412
0,681671	1,234304	0,467068	2020-10-29T19:53:14:435
-0,152694	1,359047	-0,539104	2020-10-29T19:53:14:452
-0,913092	0,904830	-1,358047	2020-10-29T19:53:14:476
-1,505356	0,560301	-1,527722	2020-10-29T19:53:14:493
-2,024703	0,294482	-1,352819	2020-10-29T19:53:14:515
-2,495560	-0,164900	-1,062196	2020-10-29T19:53:14:532
-2,470575	-0,334409	-1,111479	2020-10-29T19:53:14:556
-2,543068	-0,286366	-1,395718	2020-10-29T19:53:14:573
-2,643729	-0,157057	-1,535745	2020-10-29T19:53:14:596
-2,861960	0,078528	-2,049203	2020-10-29T19:53:14:612
-1,047701	-0,147905	0,468668	2020-10-29T19:53:14:638
-0,971130	-0,021085	-0,021860	2020-10-29T19:53:14:652
-0,941173	-0,428911	-0,136126	2020-10-29T19:53:14:675
-0,890849	-0,480741	-0,715134	2020-10-29T19:53:14:693
-0,538334	-0,117846	0,162198	2020-10-29T19:53:14:717
-0,394765	-0,352343	-0,036406	2020-10-29T19:53:14:732
-0,221695	-0,255603	-0,058820	2020-10-29T19:53:14:756
-0,253554	0,131904	-0,620539	2020-10-29T19:53:14:773
-0,751315	0,554091	-1,263689	2020-10-29T19:53:14:797
-0,664207	0,996103	-1,588093	2020-10-29T19:53:14:816
0,514101	0,137293	-0,087564	2020-10-29T19:53:14:836
1,028558	0,328718	-0,082778	2020-10-29T19:53:14:852
1,117268	0,474737	0,019947	2020-10-29T19:53:14:877
0,798383	1,009098	0,094244	2020-10-29T19:53:14:893
0,634734	1,176094	0,450585	2020-10-29T19:53:14:915
1,046472	1,292451	0,691922	2020-10-29T19:53:14:933
1,447529	1,480502	0,599108	2020-10-29T19:53:14:957
1,580327	1,389048	0,662538	2020-10-29T19:53:14:973
1,758803	1,254603	0,615643	2020-10-29T19:53:14:996
2,097931	1,092100	0,145413	2020-10-29T19:53:15:013
1,967366	0,872272	-0,107656	2020-10-29T19:53:15:036
1,180042	0,298743	-0,190657	2020-10-29T19:53:15:054
0,679943	-1,124987	0,311836	2020-10-29T19:53:15:078
0,077432	0,746336	0,349933	2020-10-29T19:53:15:093
-0,169364	1,886639	0,591290	2020-10-29T19:53:15:118
-0,855012	1,620146	1,084362	2020-10-29T19:53:15:134
-1,577842	0,283175	1,659594	2020-10-29T19:53:15:157
-2,747027	-1,123684	2,142942	2020-10-29T19:53:15:210
-4,185515	-1,990540	2,311227	2020-10-29T19:53:15:212
-5,542960	-2,853839	2,090167	2020-10-29T19:53:15:213
-6,051901	-2,664904	3,051735	2020-10-29T19:53:15:242
-6,139893	0,239924	3,880354	2020-10-29T19:53:15:254
-4,081190	-9,327393	-0,067563	2020-10-29T19:53:15:283
-3,467518	-9,906928	1,553069	2020-10-29T19:53:15:297
-1,720833	-9,456729	0,159927	2020-10-29T19:53:15:317
-1,418849	-7,752904	0,332165	2020-10-29T19:53:15:332
-0,397200	-6,727549	-0,038851	2020-10-29T19:53:15:356
-0,038751	-5,286468	-0,347150	2020-10-29T19:53:15:374
0,223539	-2,897903	-0,628575	2020-10-29T19:53:15:398
-0,026670	-0,547305	-0,637044	2020-10-29T19:53:15:413
0,295832	-0,398697	-0,296619	2020-10-29T19:53:15:437
1,122869	-2,126370	0,042336	2020-10-29T19:53:15:453
1,042299	-3,487724	0,356597	2020-10-29T19:53:15:477
0,159956	-3,881984	0,438843	2020-10-29T19:53:15:493
-0,863898	-4,148661	0,606430	2020-10-29T19:53:15:517
-1,290801	-4,151505	0,432462	2020-10-29T19:53:15:534
-1,063255	-4,132309	0,474671	2020-10-29T19:53:15:556
-0,718552	-4,029204	0,642595	2020-10-29T19:53:15:573
-0,427814	-3,730955	1,060138	2020-10-29T19:53:15:597
0,066149	-3,510324	1,715123	2020-10-29T19:53:15:613
-0,464741	-3,460600	2,482319	2020-10-29T19:53:15:636
-2,128689	-3,792623	4,232695	2020-10-29T19:53:15:654
-2,439995	-4,445210	6,682674	2020-10-29T19:53:15:677
-1,354239	-4,720854	7,555249	2020-10-29T19:53:15:694
-0,137862	-3,906559	7,387570	2020-10-29T19:53:15:717
0,863508	-2,874598	6,974818	2020-10-29T19:53:15:733
1,663289	-1,662716	6,453481	2020-10-29T19:53:15:757
2,432087	0,942522	5,562409	2020-10-29T19:53:15:774
2,633706	3,299781	4,389721	2020-10-29T19:53:15:797
3,035614	2,382184	3,399303	2020-10-29T19:53:15:813
2,895931	2,284608	3,402768	2020-10-29T19:53:15:838
2,568026	1,636988	3,253812	2020-10-29T19:53:15:853
1,735544	1,558441	2,857581	2020-10-29T19:53:15:876
0,534001	1,125564	2,368443	2020-10-29T19:53:15:894
-0,407387	0,962849	2,052569	2020-10-29T19:53:15:918
-1,382627	0,674120	1,901166	2020-10-29T19:53:15:933
-1,813451	0,600036	1,469290	2020-10-29T19:53:15:957
-1,530460	0,578233	0,841404	2020-10-29T19:53:15:974
-0,625498	0,313546	0,363777	2020-10-29T19:53:15:998
-0,162114	0,258688	0,436104	2020-10-29T19:53:16:016
-0,448161	0,304118	0,554421	2020-10-29T19:53:16:037
-0,633672	0,304053	0,665482	2020-10-29T19:53:16:054
-0,459027	0,061266	0,593081	2020-10-29T19:53:16:078
-0,103192	-0,017814	0,375766	2020-10-29T19:53:16:094
0,060459	0,230915	0,105168	2020-10-29T19:53:16:117
-1,086180	0,880971	-0,043293	2020-10-29T19:53:16:134
-3,117296	1,489265	-0,051410	2020-10-29T19:53:16:158
-3,528892	1,996351	-0,455475	2020-10-29T19:53:16:174
-4,306636	2,716413	-0,727640	2020-10-29T19:53:16:238
-5,083314	3,117371	-1,039828	2020-10-29T19:53:16:239
-5,039656	3,460709	-1,126604	2020-10-29T19:53:16:240
-3,948339	3,521509	-1,176117	2020-10-29T19:53:16:257
-2,270252	3,465528	-1,334433	2020-10-29T19:53:16:297
-1,019087	3,576658	-1,659151	2020-10-29T19:53:16:298
1,407997	0,197200	-0,090183	2020-10-29T19:53:16:321
2,051667	-0,073189	-0,224181	2020-10-29T19:53:16:336
2,166366	0,429989	-0,126804	2020-10-29T19:53:16:357
2,168759	0,231385	0,004801	2020-10-29T19:53:16:374
1,893468	0,119671	-0,123940	2020-10-29T19:53:16:398
1,757389	-0,058168	-0,219348	2020-10-29T19:53:16:414
1,507672	0,031467	-0,445835	2020-10-29T19:53:16:437
1,173553	0,330070	-0,586381	2020-10-29T19:53:16:454
0,487204	0,375154	-0,701873	2020-10-29T19:53:16:478
-0,589404	0,292069	-0,838713	2020-10-29T19:53:16:495
-1,567369	-0,415460	-0,045752	2020-10-29T19:53:16:518
-2,251717	-0,623635	-0,478853	2020-10-29T19:53:16:534
-3,366951	-0,537174	-0,945824	2020-10-29T19:53:16:558
-3,090870	-0,802070	-2,546042	2020-10-29T19:53:16:574
-2,918418	-0,488232	-0,841145	2020-10-29T19:53:16:598
-2,710241	-1,390325	-0,843538	2020-10-29T19:53:16:618
-3,114860	-1,571945	-0,527105	2020-10-29T19:53:16:639
-1,503451	-2,001667	1,710902	2020-10-29T19:53:55:147
-1,614163	-1,973547	0,740067	2020-10-29T19:53:55:148
-1,179389	-1,606465	0,083321	2020-10-29T19:53:55:149
-0,090008	-1,020661	-0,206599	2020-10-29T19:53:55:150
0,330716	0,094270	0,092500	2020-10-29T19:53:55:167
0,409679	0,510622	-0,060640	2020-10-29T19:53:55:187
0,834040	-0,554791	0,473093	2020-10-29T19:53:55:202
0,655289	0,287869	1,152852	2020-10-29T19:53:55:223
0,440676	0,520597	1,606002	2020-10-29T19:53:55:241
0,492380	0,236432	1,725280	2020-10-29T19:53:55:284
0,684155	0,272521	1,448248	2020-10-29T19:53:55:285
0,784113	0,316416	0,038891	2020-10-29T19:53:55:303
-0,163445	-0,150184	1,249660	2020-10-29T19:53:55:319
-1,028373	-0,555719	0,454170	2020-10-29T19:53:55:342
-1,700057	-1,039397	0,147148	2020-10-29T19:53:55:359
-3,190387	-2,001344	0,856468	2020-10-29T19:53:55:385
-4,725667	-2,392819	0,712449	2020-10-29T19:53:55:402
-6,184133	-2,531907	0,946777	2020-10-29T19:53:55:424
-7,269474	-3,066704	1,073778	2020-10-29T19:53:55:440
-7,181598	-2,746270	1,764897	2020-10-29T19:53:55:465
-6,506724	-2,287384	2,768876	2020-10-29T19:53:55:482
-5,080392	-1,935540	2,896092	2020-10-29T19:53:55:504
-4,052402	0,429515	1,915605	2020-10-29T19:53:55:521
-3,264063	1,485073	2,116434	2020-10-29T19:53:55:545
-2,016181	1,559735	2,003813	2020-10-29T19:53:55:561
-1,732367	2,139658	1,607399	2020-10-29T19:53:55:584
-1,121428	2,735404	0,831493	2020-10-29T19:53:55:601
-0,499123	2,624602	0,141499	2020-10-29T19:53:55:625
-0,466767	2,922071	-0,614382	2020-10-29T19:53:55:641
-0,416714	3,546089	-1,052205	2020-10-29T19:53:55:664
-0,314334	4,001084	-1,395998	2020-10-29T19:53:55:681
-0,205139	4,339371	-1,431743	2020-10-29T19:53:55:705
0,002760	4,641418	-1,505143	2020-10-29T19:53:55:722
0,232188	4,939395	-1,594052	2020-10-29T19:53:55:744
0,325198	4,938594	-2,045786	2020-10-29T19:53:55:761
0,510912	5,229084	-2,142389	2020-10-29T19:53:55:785
0,719443	5,493524	-2,045452	2020-10-29T19:53:55:801
1,038556	5,936190	-2,525704	2020-10-29T19:53:55:824
1,601049	6,775384	-3,403059	2020-10-29T19:53:55:841
1,473504	6,185189	-3,189686	2020-10-29T19:53:55:866
1,059149	5,347425	-1,773903	2020-10-29T19:53:55:881
0,212155	5,940660	-0,769829	2020-10-29T19:53:55:904
-1,207098	7,105401	-0,495677	2020-10-29T19:53:55:922
-1,506563	7,728967	-2,058729	2020-10-29T19:53:55:945
-2,627954	6,323391	-2,412890	2020-10-29T19:53:55:962
-5,319233	4,690848	-1,197677	2020-10-29T19:53:55:984
-8,409697	3,868234	0,266775	2020-10-29T19:53:56:001
-10,529302	3,087339	2,232699	2020-10-29T19:53:56:026
-10,049273	1,984454	4,315432	2020-10-29T19:53:56:041
-15,582876	5,650221	3,063190	2020-10-29T19:53:56:064
-14,853058	6,111362	1,565588	2020-10-29T19:53:56:081
-13,752044	8,258608	-1,609714	2020-10-29T19:53:56:105
-13,067894	11,270479	-4,700366	2020-10-29T19:53:56:121
-12,862715	11,101256	-6,406067	2020-10-29T19:53:56:144
-12,252108	9,543661	-6,124491	2020-10-29T19:53:56:161
-11,101901	8,506142	-5,056711	2020-10-29T19:53:56:185
-9,468367	9,282810	-5,061380	2020-10-29T19:53:56:202
-8,317596	9,708654	-4,553572	2020-10-29T19:53:56:224
-7,737359	6,022214	-1,276239	2020-10-29T19:53:56:241
-6,036949	1,767275	0,974978	2020-10-29T19:53:56:266
-3,991112	-0,247557	1,249374	2020-10-29T19:53:56:281
-2,257600	-1,541163	1,416861	2020-10-29T19:53:56:305
-2,103587	-1,853452	1,591312	2020-10-29T19:53:56:321
-2,701185	-0,346357	2,542591	2020-10-29T19:53:56:345
-1,695323	1,490303	2,745616	2020-10-29T19:53:56:362
-1,746572	2,476978	3,212507	2020-10-29T19:53:56:385
-1,736191	2,974295	3,249650	2020-10-29T19:53:56:402
-1,259575	3,700307	2,793694	2020-10-29T19:53:56:425
-0,877267	3,358127	2,431528	2020-10-29T19:53:56:444
-0,519199	2,434374	2,270547	2020-10-29T19:53:56:465
0,054188	1,293503	2,336221	2020-10-29T19:53:56:482
0,694900	0,697160	2,584828	2020-10-29T19:53:56:506
1,262572	0,358899	2,535319	2020-10-29T19:53:56:522
1,544930	-0,117010	2,412811	2020-10-29T19:53:56:545
1,431834	-0,386347	2,274934	2020-10-29T19:53:56:562
0,262356	0,094708	-0,062899	2020-10-29T19:53:56:586
-0,567954	-0,505890	0,102206	2020-10-29T19:53:56:602
0,302971	-0,505487	1,200594	2020-10-29T19:53:56:625
1,035906	0,173157	1,177568	2020-10-29T19:53:56:642
0,487477	0,574512	1,127640	2020-10-29T19:53:56:666
-2,404202	0,404939	1,057601	2020-10-29T19:53:56:682
-6,654367	-0,145330	1,842474	2020-10-29T19:53:56:705
-9,253543	-0,916230	2,818275	2020-10-29T19:53:56:722
-9,596498	-0,569818	3,203938	2020-10-29T19:53:56:746
-8,737108	0,415769	3,916072	2020-10-29T19:53:56:762
-7,242353	1,771003	4,719476	2020-10-29T19:53:56:785
-6,176271	2,915881	5,137550	2020-10-29T19:53:56:802
-6,053942	3,046193	4,434587	2020-10-29T19:53:56:826
-7,660285	2,694147	2,344821	2020-10-29T19:53:56:842
-9,794714	3,246069	0,271544	2020-10-29T19:53:56:865
-10,716060	3,742634	-1,367543	2020-10-29T19:53:56:882
-10,288816	4,677954	-2,170555	2020-10-29T19:53:56:906
-8,120659	5,041500	-1,905773	2020-10-29T19:53:56:923
-7,528965	3,814820	-1,195779	2020-10-29T19:53:56:945
-6,597118	4,046994	-0,785071	2020-10-29T19:53:56:962
-5,185811	1,558151	-3,623038	2020-10-29T19:53:56:986
-2,939091	1,926976	-6,609425	2020-10-29T19:53:57:002
-1,725954	5,510429	-8,392051	2020-10-29T19:53:57:025
-1,338226	7,474717	-8,551218	2020-10-29T19:53:57:042
1,413913	-0,192231	-0,114731	2020-10-29T19:53:57:067
3,411920	28,569496	0,248978	2020-10-29T19:53:57:082
-4,760964	0,261540	-1,710707	2020-10-29T19:53:57:105
-1,252270	-1,994606	-0,428484	2020-10-29T19:53:57:122
1,873144	-2,127533	0,555863	2020-10-29T19:53:57:147
1,758289	-8,040198	1,656562	2020-10-29T19:53:57:163
4,395847	-1,140389	0,557957	2020-10-29T19:53:57:185
4,610357	0,628666	1,770688	2020-10-29T19:53:57:202
4,335476	-0,078981	-0,778535	2020-10-29T19:53:57:227
4,617829	-1,454854	-0,840748	2020-10-29T19:53:57:242
4,453560	-0,298578	-0,848298	2020-10-29T19:53:57:265
4,183069	-1,735343	-0,751402	2020-10-29T19:53:57:282
3,796491	-2,173937	-0,628657	2020-10-29T19:53:57:307
3,119674	-2,194047	-0,142828	2020-10-29T19:53:57:322
0,705402	0,420994	-0,132204	2020-10-29T19:53:57:346
-0,689612	0,315710	0,504287	2020-10-29T19:53:57:362
-1,160383	-0,510091	0,328126	2020-10-29T19:53:57:387
-2,198868	-0,749373	1,742285	2020-10-29T19:53:57:404
-3,362720	-1,344441	1,199520	2020-10-29T19:53:57:426
-4,271993	-1,308549	-1,061697	2020-10-29T19:53:57:442
-5,308988	-1,710392	-1,241392	2020-10-29T19:53:57:467
-7,615337	-3,301393	-1,667649	2020-10-29T19:53:57:482
-11,447851	-4,084138	0,096347	2020-10-29T19:53:57:506
-9,418737	-4,895305	0,321273	2020-10-29T19:53:57:522
-10,873724	-4,148417	0,282282	2020-10-29T19:53:57:547
-10,829189	-2,571110	2,131949	2020-10-29T19:53:57:563
-7,635929	-3,980389	4,361245	2020-10-29T19:53:57:585
-5,404820	-4,100088	5,763862	2020-10-29T19:53:57:603
-4,385180	-2,332415	1,734430	2020-10-29T19:53:57:627
-2,348886	-2,205595	1,368329	2020-10-29T19:53:57:643
-1,595157	-2,182274	0,280600	2020-10-29T19:53:57:667
-1,563082	-2,042509	-0,168664	2020-10-29T19:53:57:682
-2,051786	-1,101644	-0,425323	2020-10-29T19:53:57:707
-1,827647	0,574694	-1,152671	2020-10-29T19:53:57:722
-1,535155	1,006551	-1,652086	2020-10-29T19:53:57:745
-1,105863	0,099489	-1,522977	2020-10-29T19:53:57:763
-0,466411	-0,202912	0,051211	2020-10-29T19:53:57:788
-0,140986	-0,021057	0,400563	2020-10-29T19:53:57:803
0,686194	-0,374530	0,517740	2020-10-29T19:53:57:826
1,326572	0,040218	1,052338	2020-10-29T19:53:57:843
1,215471	0,702914	-0,548817	2020-10-29T19:53:57:868
1,402112	1,013981	-0,840741	2020-10-29T19:53:57:884
-0,568499	-0,366992	-0,472416	2020-10-29T19:53:57:906
-2,778728	-1,625305	0,803938	2020-10-29T19:53:57:922
-5,082476	-1,264145	0,247800	2020-10-29T19:53:57:947
-7,095315	0,627914	-1,746596	2020-10-29T19:53:57:963
-7,388680	0,798200	-1,936144	2020-10-29T19:53:57:986
-7,392732	2,374630	-1,584465	2020-10-29T19:53:58:003
-10,206619	-1,899349	-1,327141	2020-10-29T19:53:58:027
-7,257196	1,002053	-8,568471	2020-10-29T19:53:58:043
-6,481346	11,488918	-3,930991	2020-10-29T19:53:58:066
-5,609699	8,345322	-4,148510	2020-10-29T19:53:58:083
-2,547897	0,415249	0,319339	2020-10-29T19:53:58:108
-1,779802	-2,470495	0,020236	2020-10-29T19:53:58:124
-1,155103	-0,872246	0,188288	2020-10-29T19:53:58:146
-0,644450	-1,362739	-0,163830	2020-10-29T19:53:58:163
0,332335	-2,353872	0,285995	2020-10-29T19:53:58:187
0,280307	-2,869089	0,903118	2020-10-29T19:53:58:203
-0,258635	-1,858768	1,174992	2020-10-29T19:53:58:226
-0,449422	-0,751742	1,595248	2020-10-29T19:53:58:243
-0,337007	-0,477456	1,373260	2020-10-29T19:53:58:267
0,283183	0,018546	0,604822	2020-10-29T19:53:58:283
0,846453	0,304857	-0,361655	2020-10-29T19:53:58:307
-0,503099	0,816921	-1,897847	2020-10-29T19:53:58:323
-3,297616	0,680737	0,240106	2020-10-29T19:53:58:347
-0,275446	0,878012	0,525575	2020-10-29T19:53:58:365
-1,003284	1,271594	-0,176332	2020-10-29T19:53:58:386
-1,972983	0,962481	-0,005076	2020-10-29T19:53:58:403
1,009855	0,219776	-0,366419	2020-10-29T19:53:58:428
3,287822	0,368131	0,466284	2020-10-29T19:53:58:443
3,274016	0,534962	-0,756245	2020-10-29T19:53:58:466
3,282448	0,450208	-1,188257	2020-10-29T19:53:58:483
2,810473	0,505635	-1,937671	2020-10-29T19:53:58:508
2,051391	0,558216	-2,730185	2020-10-29T19:53:58:523
2,527962	0,561428	-0,717399	2020-10-29T19:53:58:547
1,561261	0,760032	-1,016502	2020-10-29T19:53:58:564
1,246503	0,560469	-0,262921	2020-10-29T19:53:58:587
1,356425	0,710058	-0,122587	2020-10-29T19:53:58:605
1,997732	0,931483	-0,011962	2020-10-29T19:53:58:626
2,903838	0,763434	0,149595	2020-10-29T19:53:58:644
2,922960	0,844283	0,841871	2020-10-29T19:53:58:668
2,472373	1,106729	1,421494	2020-10-29T19:53:58:683
0,927670	1,027181	2,077948	2020-10-29T19:53:58:707
1,552587	0,257274	2,432191	2020-10-29T19:53:58:724
1,950058	-0,090012	2,021795	2020-10-29T19:53:58:748
1,027181	-0,400606	1,373276	2020-10-29T19:53:58:764
0,709496	-0,814630	1,042696	2020-10-29T19:53:58:787
0,075930	-1,039626	0,769937	2020-10-29T19:53:58:804
-1,385230	-1,784085	0,886099	2020-10-29T19:53:58:828
-3,390697	-3,147534	1,117121	2020-10-29T19:53:58:845
-4,189213	-3,846896	1,661934	2020-10-29T19:53:58:867
-3,467666	-4,201800	2,512975	2020-10-29T19:53:58:884
-3,056920	-5,045761	3,706641	2020-10-29T19:53:58:908
-3,393964	-7,243408	5,166059	2020-10-29T19:53:58:924
-3,624789	-1,437071	1,172031	2020-10-29T19:53:58:947
-2,842337	-2,025706	0,681502	2020-10-29T19:53:58:964
-2,098573	-1,434358	0,854163	2020-10-29T19:53:58:988
-1,273890	-1,189554	0,967157	2020-10-29T19:53:59:004
-0,724191	-0,935851	1,160597	2020-10-29T19:53:59:027
-0,149180	-0,596762	1,538370	2020-10-29T19:53:59:044
0,101530	0,149171	3,520445	2020-10-29T19:53:59:068
0,812501	1,293670	2,540237	2020-10-29T19:53:59:085
1,361005	1,688570	1,341356	2020-10-29T19:53:59:107
-1,648795	0,219256	3,268764	2020-10-29T19:53:59:124
-2,467832	-2,666056	5,466202	2020-10-29T19:53:59:148
-3,172733	-4,994322	5,645284	2020-10-29T19:53:59:165
-5,982839	-3,779648	2,735270	2020-10-29T19:53:59:188
-3,700085	-3,959111	1,498180	2020-10-29T19:53:59:204
-2,192042	-1,929345	0,889724	2020-10-29T19:53:59:228
-1,340196	-0,778397	-0,297116	2020-10-29T19:53:59:244
-2,098707	0,773209	-0,418862	2020-10-29T19:53:59:268
-3,683158	2,239558	-1,971163	2020-10-29T19:53:59:284
-2,675390	-0,630136	-0,191039	2020-10-29T19:53:59:309
-3,522451	-0,783277	-0,803601	2020-10-29T19:53:59:326
-3,887716	-1,463705	-0,379563	2020-10-29T19:53:59:347
-5,348580	-0,975746	0,020026	2020-10-29T19:53:59:364
-6,305878	-0,485667	0,563700	2020-10-29T19:53:59:388
-5,688601	-0,957586	1,387945	2020-10-29T19:53:59:404
-5,167936	-1,723587	0,302241	2020-10-29T19:53:59:428
-5,112902	-2,135152	-0,358178	2020-10-29T19:53:59:444
-4,933664	-2,048179	-1,379101	2020-10-29T19:53:59:468
-6,166583	0,103367	-2,875925	2020-10-29T19:53:59:484
-6,587038	1,359898	-3,811650	2020-10-29T19:53:59:509
-6,822450	2,369170	-3,877326	2020-10-29T19:53:59:524
-7,419075	3,054812	-3,144396	2020-10-29T19:53:59:548
-7,456120	3,401970	-0,395206	2020-10-29T19:53:59:566
-6,854630	3,399782	0,505700	2020-10-29T19:53:59:587
-5,973810	3,525997	-0,347061	2020-10-29T19:53:59:604
-5,869455	2,389602	-1,443286	2020-10-29T19:53:59:628
-6,626208	1,551088	-1,882033	2020-10-29T19:53:59:644
-6,648639	2,207797	-0,999098	2020-10-29T19:53:59:668
-6,552824	2,500080	-0,399223	2020-10-29T19:53:59:684
-6,409720	1,417113	-0,114655	2020-10-29T19:53:59:709
-6,441024	2,280787	-0,602968	2020-10-29T19:53:59:724
-0,614427	-0,496610	-0,036194	2020-10-29T19:53:59:748
0,036421	-0,137687	0,447156	2020-10-29T19:53:59:765
0,883917	1,274556	-0,044079	2020-10-29T19:53:59:789
3,030279	0,886919	-0,099114	2020-10-29T19:53:59:806
2,468201	1,410171	-0,507440	2020-10-29T19:53:59:828
2,668645	1,996614	-0,437463	2020-10-29T19:53:59:844
3,225296	3,077444	1,114646	2020-10-29T19:53:59:869
4,704594	4,304636	2,503351	2020-10-29T19:53:59:885
5,448363	4,551183	2,980477	2020-10-29T19:53:59:908
6,419930	8,426510	1,670517	2020-10-29T19:53:59:925
-3,246251	2,489580	27,910372	2020-10-29T19:53:59:949
0,061845	2,495773	22,637602	2020-10-29T19:53:59:966
12,056591	-8,889116	-1,091003	2020-10-29T19:53:59:988
10,898336	-3,954382	-4,015506	2020-10-29T19:54:00:005
9,691742	0,188272	-0,576384	2020-10-29T19:54:00:029
8,462934	2,547931	1,775238	2020-10-29T19:54:00:050
9,244019	1,219264	0,199918	2020-10-29T19:54:00:069
10,185581	-0,316440	-2,292336	2020-10-29T19:54:00:085
-1,541396	2,805896	-1,077398	2020-10-29T19:54:00:110
-1,675394	2,994929	-1,589462	2020-10-29T19:54:00:125
-2,390303	3,069899	-1,064031	2020-10-29T19:54:00:148
-3,420584	2,976264	-0,657960	2020-10-29T19:54:00:166
-3,929776	2,745087	-0,248798	2020-10-29T19:54:00:189
-4,118995	2,880191	0,658405	2020-10-29T19:54:00:205
-3,441585	3,505661	1,064206	2020-10-29T19:54:00:228
-3,092014	4,178378	1,255469	2020-10-29T19:54:00:245
-0,790067	2,887580	-3,471041	2020-10-29T19:54:00:270
-1,129848	3,457071	-3,810822	2020-10-29T19:54:00:287
-1,119229	3,987428	-4,560403	2020-10-29T19:54:00:308
-1,527735	4,323452	-4,320589	2020-10-29T19:54:00:325
-1,909239	4,153410	-3,401474	2020-10-29T19:54:00:349
-2,261035	5,713836	-1,891955	2020-10-29T19:54:00:366
-3,442295	-1,044655	-3,812973	2020-10-29T19:54:00:388
-3,992067	-0,807419	-4,284884	2020-10-29T19:54:00:406
1,261405	0,937152	-0,773391	2020-10-29T19:54:00:430
-1,423342	-0,378900	-2,166014	2020-10-29T19:54:00:445
-3,033564	-1,638247	0,884668	2020-10-29T19:54:00:471
-5,811631	-6,230075	0,784170	2020-10-29T19:54:00:486
-6,410460	-4,869445	1,095523	2020-10-29T19:54:00:510
-6,221427	-2,031558	-0,227708	2020-10-29T19:54:00:526
-6,366352	-2,363775	0,226719	2020-10-29T19:54:00:549
-7,696759	-2,478630	0,487537	2020-10-29T19:54:00:566
-8,419759	-3,153311	0,701983	2020-10-29T19:54:00:590
-8,602666	-4,981372	1,232642	2020-10-29T19:54:00:606
-8,008265	-6,961237	1,521354	2020-10-29T19:54:00:628
-7,165566	-7,752936	1,497087	2020-10-29T19:54:00:646
-6,384912	-7,534100	1,373767	2020-10-29T19:54:00:670
-6,124062	-3,543283	1,189760	2020-10-29T19:54:00:685
-5,428865	-3,988353	1,642605	2020-10-29T19:54:00:709
-4,236505	-5,809885	1,562992	2020-10-29T19:54:00:726
-2,913115	-7,545279	1,348971	2020-10-29T19:54:00:749
-2,056103	-8,887748	1,038225	2020-10-29T19:54:00:767
-4,467400	-9,651247	1,867687	2020-10-29T19:54:00:789
-2,783510	-10,131128	2,878751	2020-10-29T19:54:00:806
-0,815351	-9,994031	2,933911	2020-10-29T19:54:00:830
0,360353	-10,106507	3,647460	2020-10-29T19:54:00:846
1,880930	-10,036362	4,902713	2020-10-29T19:54:00:869
3,341146	-8,696136	5,056039	2020-10-29T19:54:00:886
4,773307	-7,418786	4,548397	2020-10-29T19:54:00:910
5,075811	-6,606719	3,929062	2020-10-29T19:54:00:925
4,025083	-5,258717	3,384726	2020-10-29T19:54:00:949
2,264645	-7,052543	2,772398	2020-10-29T19:54:00:966
0,242951	-9,039448	1,979900	2020-10-29T19:54:00:990
-1,232041	-6,262592	0,983154	2020-10-29T19:54:01:007
-3,112330	-5,411785	0,623932	2020-10-29T19:54:01:029
-4,699923	-4,436483	0,632798	2020-10-29T19:54:01:046
-5,660135	-3,225706	0,940805	2020-10-29T19:54:01:070
-6,074214	-1,536753	1,140401	2020-10-29T19:54:01:086
-6,428495	-0,218380	1,320705	2020-10-29T19:54:01:109
-6,642453	0,173021	0,677943	2020-10-29T19:54:01:128
-6,966789	0,268946	-0,347640	2020-10-29T19:54:01:150
-7,212757	-0,155873	-1,137719	2020-10-29T19:54:01:166
-6,826838	-1,186794	-1,211121	2020-10-29T19:54:01:189
-5,737683	-4,019732	-2,082000	2020-10-29T19:54:01:207
-5,195902	-3,227196	-2,696651	2020-10-29T19:54:01:230
-4,455161	-1,793253	-2,032700	2020-10-29T19:54:01:247
-3,252591	-1,301981	-2,081366	2020-10-29T19:54:01:269
-3,266045	-0,307532	-3,523151	2020-10-29T19:54:01:286
-4,243039	0,941056	-4,807385	2020-10-29T19:54:01:310
-4,060891	2,040319	-5,620606	2020-10-29T19:54:01:326
-3,149163	2,611186	-5,849634	2020-10-29T19:54:01:349
-2,409410	2,924421	-5,282049	2020-10-29T19:54:01:367
0,925392	0,126593	-0,102726	2020-10-29T19:54:01:390
1,748523	0,006952	0,727584	2020-10-29T19:54:01:407
2,380318	0,080580	0,419578	2020-10-29T19:54:01:429
3,158916	0,420902	0,825684	2020-10-29T19:54:01:446
3,400465	0,742533	1,552088	2020-10-29T19:54:01:470
3,432018	1,375646	1,500592	2020-10-29T19:54:01:488
3,532546	2,399237	0,764503	2020-10-29T19:54:01:510
3,894523	3,243146	-0,224442	2020-10-29T19:54:01:526
4,310188	4,059389	-1,034260	2020-10-29T19:54:01:550
4,013715	3,658346	-1,555870	2020-10-29T19:54:01:567
4,287652	7,801449	-1,411078	2020-10-29T19:54:01:589
5,437044	8,739101	-2,928348	2020-10-29T19:54:01:609
4,292902	6,006814	-3,463418	2020-10-29T19:54:01:665
2,764356	3,445619	-3,053093	2020-10-29T19:54:01:675
2,729631	-0,592098	-0,821796	2020-10-29T19:54:01:675
0,760338	-1,006057	-0,934259	2020-10-29T19:54:01:829
-1,012625	-1,672737	0,088108	2020-10-29T19:54:01:830
-2,511484	-3,751171	0,034355	2020-10-29T19:54:01:830
-3,398302	-5,264664	-0,289176	2020-10-29T19:54:01:831
-4,456736	-5,772326	-0,748245	2020-10-29T19:54:01:831
-5,399297	-5,654271	-1,066181	2020-10-29T19:54:01:832
-6,259414	-6,479573	8,609071	2020-10-29T19:54:01:832
-7,589148	-1,976032	2,721372	2020-10-29T19:54:01:832
-8,290243	-1,741535	2,963047	2020-10-29T19:54:01:899
-8,071778	-1,238511	1,498692	2020-10-29T19:54:01:899
-7,440062	-1,565407	1,455197	2020-10-29T19:54:01:899
-6,299566	-1,450386	1,579523	2020-10-29T19:54:02:002
-5,098364	-0,733421	1,629033	2020-10-29T19:54:02:002
-4,859917	-0,400063	1,288013	2020-10-29T19:54:02:095
-4,766596	-0,945626	1,694793	2020-10-29T19:54:02:095
-5,057265	-0,827200	1,531723	2020-10-29T19:54:02:096
-3,533357	-1,531145	2,015591	2020-10-29T19:54:02:096
-2,135357	-2,469784	1,979275	2020-10-29T19:54:02:096
-0,966754	-3,252824	1,391860	2020-10-29T19:54:02:097
-0,543847	-4,098607	0,931028	2020-10-29T19:54:02:098
0,317603	-4,838463	0,645766	2020-10-29T19:54:02:106
0,717052	-5,473422	0,426095	2020-10-29T19:54:02:162
1,227669	-5,599180	0,433617	2020-10-29T19:54:02:163
1,757998	-5,364825	0,134486	2020-10-29T19:54:02:164
2,016602	-4,796164	-0,037439	2020-10-29T19:54:02:167
2,060107	-4,193767	-0,026353	2020-10-29T19:54:02:192
0,152927	0,140140	-0,076358	2020-10-29T19:54:02:213
0,142601	0,712039	-0,019690	2020-10-29T19:54:02:277
0,044495	0,802967	0,090379	2020-10-29T19:54:02:279
0,203880	0,557368	-0,178127	2020-10-29T19:54:02:280
-0,064818	1,184306	-0,360929	2020-10-29T19:54:02:294
0,030536	1,537518	-0,711349	2020-10-29T19:54:02:370
-0,233076	2,103687	-1,158260	2020-10-29T19:54:02:370
-0,368139	2,378516	-1,406136	2020-10-29T19:54:02:371
1,076367	0,571926	-0,313869	2020-10-29T19:54:02:379
0,801193	0,303929	0,427906	2020-10-29T19:54:02:388
0,681126	0,177467	0,399020	2020-10-29T19:54:02:418
0,821778	0,452957	1,010148	2020-10-29T19:54:02:436
0,337003	0,175797	-0,229783	2020-10-29T19:54:02:460
0,961529	0,142297	0,241603	2020-10-29T19:54:02:469
-0,557852	0,135683	-1,836992	2020-10-29T19:54:02:486
-2,665185	-0,104245	-2,225943	2020-10-29T19:54:02:510
-3,312272	-0,391131	-1,415217	2020-10-29T19:54:02:526
-3,149756	0,240960	-1,833209	2020-10-29T19:54:02:562
-3,160961	1,125907	-3,166523	2020-10-29T19:54:02:566
-3,259212	1,362517	-3,828244	2020-10-29T19:54:02:596
-2,946491	1,205674	-3,932035	2020-10-29T19:54:02:609
-0,538739	-0,161569	0,083974	2020-10-29T19:54:02:657
-1,077125	-0,412815	-0,234271	2020-10-29T19:54:02:657
-1,753682	-0,755852	0,174375	2020-10-29T19:54:02:686
-2,785773	-0,820168	0,362625	2020-10-29T19:54:02:687
-3,454594	-0,460680	0,390628	2020-10-29T19:54:02:718
-3,486589	0,048706	0,557083	2020-10-29T19:54:02:725
-3,043476	0,586946	0,804733	2020-10-29T19:54:02:750
-6,910652	5,449064	-0,581083	2020-10-29T19:54:02:767
-2,699296	-0,483081	0,315772	2020-10-29T19:54:02:791
-2,852436	-0,262942	0,040597	2020-10-29T19:54:02:822
-2,497023	-0,385245	0,193024	2020-10-29T19:54:02:850
-2,272096	-0,650848	0,080562	2020-10-29T19:54:02:851
-2,183764	-0,424669	0,235535	2020-10-29T19:54:02:896
-1,899018	-0,238029	1,003631	2020-10-29T19:54:02:911
-1,791522	-0,332472	0,436228	2020-10-29T19:54:02:913
-1,571241	-0,049285	0,340317	2020-10-29T19:54:02:937
-1,373290	0,154969	-0,167151	2020-10-29T19:54:02:950
-0,873188	0,107112	-0,368149	2020-10-29T19:54:02:976
-0,771465	-0,208476	0,212014	2020-10-29T19:54:02:993
-1,099282	-0,562613	1,310319	2020-10-29T19:54:03:008
-2,074114	-0,504160	1,077907	2020-10-29T19:54:03:030
-2,516786	-0,226593	2,396352	2020-10-29T19:54:03:047
-2,466228	-0,362444	1,563858	2020-10-29T19:54:03:075
-1,899128	1,590099	0,412911	2020-10-29T19:54:03:087
-0,446020	2,864438	0,290174	2020-10-29T19:54:03:110
1,635109	4,452825	1,170175	2020-10-29T19:54:03:128
0,061649	-0,057280	-0,049364	2020-10-29T19:54:03:152
0,260253	-1,052693	0,500985	2020-10-29T19:54:03:170
0,090741	-1,530361	0,610588	2020-10-29T19:54:03:191
-0,679203	-2,498539	1,163831	2020-10-29T19:54:03:208
-0,738018	-3,369057	1,169286	2020-10-29T19:54:03:231
-1,165048	-4,654745	0,055790	2020-10-29T19:54:03:248
0,243123	0,064445	-0,132275	2020-10-29T19:54:03:272
0,551797	-0,885506	-1,649324	2020-10-29T19:54:03:289
0,755400	-0,341549	-0,906965	2020-10-29T19:54:03:312
0,761395	-1,180924	-0,357497	2020-10-29T19:54:03:328
0,758327	-1,369402	0,122608	2020-10-29T19:54:03:351
0,561538	-1,553100	0,261519	2020-10-29T19:54:03:369
0,197956	-1,355988	0,570089	2020-10-29T19:54:03:392
-0,504988	-0,841516	0,299975	2020-10-29T19:54:03:410
-4,145082	-0,346605	0,053724	2020-10-29T19:54:03:431
-5,851154	-0,610536	0,644379	2020-10-29T19:54:03:449
-2,978558	-0,379899	1,079228	2020-10-29T19:54:03:472
-3,254377	-0,046515	0,728655	2020-10-29T19:54:03:489
-4,412262	-0,349998	1,294501	2020-10-29T19:54:03:511
-3,561471	-0,667305	2,336874	2020-10-29T19:54:03:528
-2,774281	-0,727257	3,620822	2020-10-29T19:54:03:552
-2,460326	-0,894745	4,246290	2020-10-29T19:54:03:569
-1,240069	-0,586536	3,406890	2020-10-29T19:54:03:592
-0,188678	-0,539023	3,273085	2020-10-29T19:54:03:609
0,237278	-0,712348	4,441832	2020-10-29T19:54:03:632
0,084352	0,949788	4,143771	2020-10-29T19:54:03:650
-0,270981	3,208417	3,360553	2020-10-29T19:54:03:672
-0,370177	3,757126	3,076550	2020-10-29T19:54:03:689
-0,779857	3,088575	3,993351	2020-10-29T19:54:03:712
-1,583045	2,527885	4,719003	2020-10-29T19:54:03:729
-2,334262	1,936010	5,581871	2020-10-29T19:54:03:751
-2,618552	0,750382	5,788245	2020-10-29T19:54:03:769
-2,372960	-0,746178	6,636603	2020-10-29T19:54:03:792
-1,352768	-1,885143	7,645054	2020-10-29T19:54:03:809
-0,687055	-1,741442	7,641809	2020-10-29T19:54:03:832
-0,399260	-1,160842	6,767553	2020-10-29T19:54:03:849
-0,440031	-0,554224	5,607500	2020-10-29T19:54:03:872
-0,751083	-0,195925	4,819570	2020-10-29T19:54:03:890
-1,219365	0,270888	4,262112	2020-10-29T19:54:03:912
-1,315610	0,100708	3,120672	2020-10-29T19:54:03:929
-0,706461	-1,206909	1,688459	2020-10-29T19:54:03:953
-0,761828	-2,882118	0,591048	2020-10-29T19:54:03:969
0,380570	-2,173177	-0,409156	2020-10-29T19:54:03:992
1,704695	-1,444462	-1,299994	2020-10-29T19:54:04:009
3,646120	-1,506843	-2,380919	2020-10-29T19:54:04:033
4,994650	-1,354433	-2,860133	2020-10-29T19:54:04:049
4,933949	0,245835	-2,906856	2020-10-29T19:54:04:073
5,118958	0,880569	-3,559930	2020-10-29T19:54:04:089
4,982023	0,821194	-4,257405	2020-10-29T19:54:04:112
3,800456	1,271117	-4,452953	2020-10-29T19:54:04:130
2,726360	2,256850	-3,983756	2020-10-29T19:54:04:157
2,134769	3,027703	-3,811002	2020-10-29T19:54:04:169
0,915210	4,781564	-4,034242	2020-10-29T19:54:04:203
0,588159	6,816942	-4,683679	2020-10-29T19:54:04:210
0,481934	7,168165	-4,829576	2020-10-29T19:54:04:232
-0,259739	7,237390	-4,458618	2020-10-29T19:54:04:251
-0,624083	7,809133	-4,304032	2020-10-29T19:54:04:276
-1,358144	7,860163	-4,015430	2020-10-29T19:54:04:289
-2,131418	8,177920	-4,172261	2020-10-29T19:54:04:341
-2,351492	8,849502	-4,495636	2020-10-29T19:54:04:382
-3,383382	9,113566	-4,049266	2020-10-29T19:54:04:382
-3,639294	9,605886	-3,503852	2020-10-29T19:54:04:383
-5,506219	8,719304	-2,801872	2020-10-29T19:54:04:484
-5,266752	7,476003	-2,502714	2020-10-29T19:54:04:560
-5,435249	6,127504	-1,909914	2020-10-29T19:54:04:560
-6,243292	4,702181	-0,911167	2020-10-29T19:54:04:562
-6,589601	4,243065	-0,485641	2020-10-29T19:54:04:563
-6,442197	4,513404	-1,333374	2020-10-29T19:54:04:563
-6,083213	4,369838	-2,088415	2020-10-29T19:54:04:564
-5,926046	3,916957	-2,296930	2020-10-29T19:54:04:569
-5,569865	3,834098	-2,242702	2020-10-29T19:54:04:572
-0,074795	0,172268	0,169733	2020-10-29T19:54:04:626
-0,115473	0,547941	-0,019300	2020-10-29T19:54:04:626
-0,209118	0,467676	0,077252	2020-10-29T19:54:04:627
-0,476084	0,410117	0,007847	2020-10-29T19:54:04:653
-0,536340	-1,475459	-0,529751	2020-10-29T19:54:04:653
0,010324	-1,681093	-0,841012	2020-10-29T19:54:04:692
1,106754	-1,447743	-1,425126	2020-10-29T19:54:04:692
1,397501	-2,035120	-2,117877	2020-10-29T19:54:04:714
0,782682	-1,460314	-1,129717	2020-10-29T19:54:04:729
0,299658	-0,533063	-0,408452	2020-10-29T19:54:04:752
-1,128180	-1,760061	0,454066	2020-10-29T19:54:04:812
-4,845319	-2,204867	3,795537	2020-10-29T19:54:04:813
-5,324250	-3,146544	4,119543	2020-10-29T19:54:04:814
-1,875793	-0,297293	3,425356	2020-10-29T19:54:04:832
-0,840656	2,304418	2,351898	2020-10-29T19:54:04:860
-0,354913	-0,260688	3,395169	2020-10-29T19:54:04:895
1,980821	-0,231590	3,058478	2020-10-29T19:54:04:896
3,905819	-1,256847	2,804658	2020-10-29T19:54:04:920
5,068596	-1,613700	2,769930	2020-10-29T19:54:04:931
6,277990	-2,608806	2,404760	2020-10-29T19:54:04:957
1,007673	-0,166538	2,247952	2020-10-29T19:54:04:981
0,576965	-0,616388	1,400893	2020-10-29T19:54:04:992
-0,133869	0,945988	0,525164	2020-10-29T19:54:05:019
-0,099495	-0,208996	-0,729920	2020-10-29T19:54:05:041
-0,125816	1,628691	0,009461	2020-10-29T19:54:05:048
-0,579025	-0,535195	1,767406	2020-10-29T19:54:05:072
-1,830617	-3,806913	3,091682	2020-10-29T19:54:05:103
-1,215910	-5,803870	2,706899	2020-10-29T19:54:05:154
0,109270	-0,193428	0,603399	2020-10-29T19:54:05:154
2,561913	0,141567	-1,894708	2020-10-29T19:54:05:162
-4,495934	3,596848	-2,178148	2020-10-29T19:54:05:179
0,005149	5,780412	-2,630626	2020-10-29T19:54:05:198
3,675964	4,315461	-2,584061	2020-10-29T19:54:05:229
3,763254	1,833212	-3,417718	2020-10-29T19:54:05:261
3,025121	1,925511	-4,903460	2020-10-29T19:54:05:263
3,950042	2,089191	-6,928429	2020-10-29T19:54:05:279
1,742081	5,341505	-5,073631	2020-10-29T19:54:05:294
2,806715	5,184572	-1,519901	2020-10-29T19:54:05:446
1,047547	2,258781	5,319139	2020-10-29T19:54:05:446
-1,330686	4,355742	5,698881	2020-10-29T19:54:05:449
0,393196	8,236338	1,509688	2020-10-29T19:54:05:454
-0,128523	5,207042	-0,648032	2020-10-29T19:54:05:454
1,365605	3,723258	-1,107642	2020-10-29T19:54:05:468
0,399648	4,133339	0,028375	2020-10-29T19:54:05:469
0,414075	2,807865	-0,074887	2020-10-29T19:54:05:471
0,482790	2,673124	-1,950521	2020-10-29T19:54:05:479
2,046222	4,360080	-1,653234	2020-10-29T19:54:05:492
1,388360	3,999690	0,585758	2020-10-29T19:54:05:511
-1,678890	2,492390	0,327982	2020-10-29T19:54:05:529
3,376234	2,933597	-8,026903	2020-10-29T19:54:05:551
0,884446	-0,333018	-1,195648	2020-10-29T19:54:05:570
1,281365	-2,961826	-2,067312	2020-10-29T19:54:05:641
-0,181060	-6,323152	-2,033335	2020-10-29T19:54:05:643
0,684550	-0,894235	0,629885	2020-10-29T19:54:05:643
-0,461612	1,472267	1,304661	2020-10-29T19:54:05:719
-1,088166	2,652956	0,969202	2020-10-29T19:54:05:736
-0,795690	3,838490	1,913594	2020-10-29T19:54:05:742
0,025717	-0,008524	0,165727	2020-10-29T19:54:05:743
0,162108	0,484397	0,483972	2020-10-29T19:54:05:744
0,207966	0,025336	0,795102	2020-10-29T19:54:05:765
0,653031	-1,388822	-0,532914	2020-10-29T19:54:05:773
1,172679	-2,523860	0,122293	2020-10-29T19:54:05:795
0,916161	-2,716632	0,868791	2020-10-29T19:54:05:815
0,879175	-0,355343	1,193820	2020-10-29T19:54:05:832
1,582347	-0,707411	0,813720	2020-10-29T19:54:05:851
1,645202	-0,045763	0,944358	2020-10-29T19:54:05:913
1,321822	0,188985	0,325153	2020-10-29T19:54:05:920
1,505168	0,585167	-0,558826	2020-10-29T19:54:05:921
1,422111	1,435720	-1,068094	2020-10-29T19:54:05:933
1,337361	0,901994	-0,631125	2020-10-29T19:54:05:966
1,131384	0,535122	-0,770963	2020-10-29T19:54:05:970
0,857913	0,375729	-1,974492	2020-10-29T19:54:05:999
0,142521	0,639214	-0,126287	2020-10-29T19:54:06:012
-0,181520	0,243180	0,826144	2020-10-29T19:54:06:037
0,072503	0,187552	0,924803	2020-10-29T19:54:06:055
0,319530	0,269968	-0,077129	2020-10-29T19:54:06:072
0,903160	-1,640424	-0,890884	2020-10-29T19:54:06:094
1,191340	-0,434192	-1,048937	2020-10-29T19:54:06:113
1,696379	1,132227	-1,046314	2020-10-29T19:54:06:130
2,392335	1,164665	-1,232925	2020-10-29T19:54:06:154
2,595130	0,933544	-1,500435	2020-10-29T19:54:06:170
2,489614	-1,512576	-0,832003	2020-10-29T19:54:06:194
1,808039	-0,477048	-0,547709	2020-10-29T19:54:06:211
1,322031	-0,115445	-0,628198	2020-10-29T19:54:06:234
1,062640	-0,060054	-0,799391	2020-10-29T19:54:06:251
0,727954	-0,960200	-0,129295	2020-10-29T19:54:06:275
0,306590	-0,728989	0,697341	2020-10-29T19:54:06:292
0,114667	-0,210987	0,197615	2020-10-29T19:54:06:314
0,279438	-0,310660	-0,592237	2020-10-29T19:54:06:331
0,528104	0,586568	-0,754917	2020-10-29T19:54:06:355
0,680561	0,500310	-0,497595	2020-10-29T19:54:06:373
0,520029	0,299836	-0,326250	2020-10-29T19:54:06:394
0,198367	0,528352	-0,488178	2020-10-29T19:54:06:412
-0,002048	0,322302	-0,452226	2020-10-29T19:54:06:435
-0,333778	-0,489497	-0,068227	2020-10-29T19:54:06:452
-0,517705	-0,705385	0,267866	2020-10-29T19:54:06:475
-0,419068	-0,459158	0,301085	2020-10-29T19:54:06:491
-0,336370	-0,182037	-0,094870	2020-10-29T19:54:06:515
-0,395648	-0,327189	-0,212409	2020-10-29T19:54:06:532
-0,271717	-0,583942	0,027072	2020-10-29T19:54:06:554
-0,226594	-0,730368	0,206870	2020-10-29T19:54:06:572
0,175622	-0,049297	0,160718	2020-10-29T19:54:06:596
0,118194	0,194771	0,261217	2020-10-29T19:54:06:613
0,141523	-0,016122	0,174965	2020-10-29T19:54:06:635
0,151094	0,242303	0,119930	2020-10-29T19:54:06:660
0,069956	-0,006569	0,078557	2020-10-29T19:54:06:709
0,244632	0,014966	0,119235	2020-10-29T19:54:06:710
0,092960	-0,011419	0,148009	2020-10-29T19:54:06:717
-0,009931	-0,221987	-0,043417	2020-10-29T19:54:06:752
-0,130878	0,020374	-0,129015	2020-10-29T19:54:06:755
-0,233081	-0,208754	-0,144798	2020-10-29T19:54:06:776
-0,127796	-0,479143	-0,046693	2020-10-29T19:54:06:795
-0,046710	0,025757	-0,041837	2020-10-29T19:54:06:814
-0,361597	0,284236	0,240629	2020-10-29T19:54:06:839
-0,357537	0,316637	0,252895	2020-10-29T19:54:06:852
-0,343608	0,347133	0,252608	2020-10-29T19:54:06:874
-0,136750	0,285453	0,006482	2020-10-29T19:54:06:892
-0,037492	0,316932	0,186138	2020-10-29T19:54:06:915
-0,076252	0,507031	0,238379	2020-10-29T19:54:06:932
-0,097958	-0,214039	0,255596	2020-10-29T19:54:06:955
-0,199111	-0,175238	0,376569	2020-10-29T19:54:06:972
-0,380068	0,089045	0,447210	2020-10-29T19:54:06:995
-0,333895	-0,174903	0,434257	2020-10-29T19:54:07:013
-0,191858	0,074949	0,301483	2020-10-29T19:54:07:034
-0,232579	-0,067336	0,197324	2020-10-29T19:54:07:052
0,035235	-0,010489	0,082009	2020-10-29T19:54:07:076
0,126162	0,355613	-0,123774	2020-10-29T19:54:07:092
