x	y	z	ts
-1,123055	4,718795	8,523034	2020-10-29T19:52:02:284
-1,117876	4,714150	8,526284	2020-10-29T19:52:02:284
-1,070321	4,636403	8,574881	2020-10-29T19:52:02:285
-1,104419	4,709766	8,530460	2020-10-29T19:52:02:285
-1,487336	4,461692	8,605320	2020-10-29T19:52:02:286
-1,542152	4,397560	8,628651	2020-10-29T19:52:02:302
-1,577499	4,455498	8,592463	2020-10-29T19:52:02:323
-1,643886	4,499788	8,556864	2020-10-29T19:52:02:341
-1,688623	4,521312	8,536783	2020-10-29T19:52:02:363
-1,734116	4,498533	8,539698	2020-10-29T19:52:02:382
-1,788086	4,470371	8,543355	2020-10-29T19:52:02:403
-1,843921	4,451066	8,541567	2020-10-29T19:52:02:421
-1,894968	4,436401	8,538022	2020-10-29T19:52:02:443
-1,944476	4,417145	8,536875	2020-10-29T19:52:02:462
-1,989188	4,406818	8,531909	2020-10-29T19:52:02:483
-2,036447	4,401417	8,523543	2020-10-29T19:52:02:501
-2,088315	4,406765	8,508216	2020-10-29T19:52:02:523
-2,139053	4,401683	8,498237	2020-10-29T19:52:02:541
-2,190864	4,372832	8,499931	2020-10-29T19:52:02:563
-2,243926	4,319099	8,513552	2020-10-29T19:52:02:582
-2,290117	4,250188	8,535903	2020-10-29T19:52:02:603
-2,304444	4,238790	8,537715	2020-10-29T19:52:02:622
-2,309196	4,216019	8,547700	2020-10-29T19:52:02:643
-2,314650	4,146811	8,580020	2020-10-29T19:52:02:661
-2,310110	4,123974	8,592241	2020-10-29T19:52:02:683
-2,307956	4,104187	8,602289	2020-10-29T19:52:02:703
-2,299797	4,071000	8,620225	2020-10-29T19:52:02:723
-2,280494	4,012230	8,652845	2020-10-29T19:52:02:741
-2,261507	3,955762	8,683773	2020-10-29T19:52:02:764
-2,247418	3,914155	8,706256	2020-10-29T19:52:02:785
-2,224891	3,873679	8,730112	2020-10-29T19:52:02:803
-2,200782	3,816746	8,761244	2020-10-29T19:52:02:822
-2,164204	3,752190	8,798163	2020-10-29T19:52:02:843
-2,127063	3,683013	8,836369	2020-10-29T19:52:02:861
-2,094635	3,609543	8,874350	2020-10-29T19:52:02:884
-2,065536	3,534185	8,911425	2020-10-29T19:52:02:902
-2,039575	3,453389	8,949001	2020-10-29T19:52:02:923
-2,015058	3,351889	8,993040	2020-10-29T19:52:02:943
-1,981432	3,240476	9,041218	2020-10-29T19:52:02:963
-1,932279	3,088920	9,104683	2020-10-29T19:52:02:982
-1,870675	2,890115	9,182494	2020-10-29T19:52:03:004
-1,804005	2,656421	9,266033	2020-10-29T19:52:03:022
-1,730823	2,406766	9,347840	2020-10-29T19:52:03:043
-1,658429	2,134183	9,426837	2020-10-29T19:52:03:062
-4,387185	5,284241	6,999985	2020-10-29T19:52:03:084
-4,513690	5,609190	6,658377	2020-10-29T19:52:03:103
-4,590889	6,051836	6,202371	2020-10-29T19:52:03:124
-4,633322	6,672991	5,493078	2020-10-29T19:52:03:142
-4,586335	7,418154	4,484073	2020-10-29T19:52:03:164
-4,366214	8,224002	3,077719	2020-10-29T19:52:03:183
-3,886940	8,889909	1,425341	2020-10-29T19:52:03:204
-3,087729	9,304647	-0,244656	2020-10-29T19:52:03:222
-3,464649	-9,151575	0,644405	2020-10-29T19:52:03:244
-3,521729	-8,913703	2,076947	2020-10-29T19:52:03:262
-3,402923	-8,630816	3,177973	2020-10-29T19:52:03:284
-3,239622	-8,375185	3,941004	2020-10-29T19:52:03:303
-3,269135	-8,189323	4,291635	2020-10-29T19:52:03:324
-3,582816	-7,973752	4,444445	2020-10-29T19:52:03:342
-4,148654	-7,715750	4,407524	2020-10-29T19:52:03:364
-4,889212	-7,405582	4,174128	2020-10-29T19:52:03:383
-5,628899	-7,105858	3,740676	2020-10-29T19:52:03:404
-5,425830	-7,268884	3,727476	2020-10-29T19:52:03:423
-4,750552	-7,629588	3,923267	2020-10-29T19:52:03:444
-4,717106	-7,645729	3,932192	2020-10-29T19:52:03:462
-5,327969	-7,316332	3,775501	2020-10-29T19:52:03:485
-5,901610	-6,974139	3,564093	2020-10-29T19:52:03:502
-6,401830	-6,676219	3,258076	2020-10-29T19:52:03:524
-6,922062	-6,295461	2,936429	2020-10-29T19:52:03:544
-7,392608	-5,907300	2,573624	2020-10-29T19:52:03:566
-7,696407	-5,637205	2,271042	2020-10-29T19:52:03:592
-7,889373	-5,470600	2,000178	2020-10-29T19:52:03:768
-8,029974	-5,332954	1,802636	2020-10-29T19:52:03:769
-8,191695	-5,149213	1,597534	2020-10-29T19:52:03:770
-8,354506	-4,942497	1,394398	2020-10-29T19:52:03:771
-8,474393	-4,777730	1,236262	2020-10-29T19:52:03:772
-8,530738	-4,696264	1,158446	2020-10-29T19:52:03:773
-8,479959	-4,774818	1,209043	2020-10-29T19:52:03:774
-8,447850	-4,833084	1,202293	2020-10-29T19:52:03:775
-8,492759	-4,797296	1,014584	2020-10-29T19:52:03:775
-8,468835	-4,859915	0,911287	2020-10-29T19:52:03:825
-8,833115	-3,317054	2,672755	2020-10-29T19:52:03:825
-9,007925	-2,712713	2,769269	2020-10-29T19:52:03:826
-8,860978	-2,985971	2,955913	2020-10-29T19:52:03:847
-8,728636	-3,286137	3,030282	2020-10-29T19:52:03:863
-8,609146	-3,286706	3,354184	2020-10-29T19:52:03:885
-8,273979	5,180797	0,933269	2020-10-29T19:52:03:907
-8,245999	5,274487	0,594702	2020-10-29T19:52:03:928
-8,277979	5,202374	0,762076	2020-10-29T19:52:03:944
-8,395261	4,972673	0,981069	2020-10-29T19:52:03:967
-8,500509	4,738914	1,205989	2020-10-29T19:52:03:984
-8,605909	4,482035	1,421291	2020-10-29T19:52:04:007
-8,720937	4,190075	1,599661	2020-10-29T19:52:04:025
-8,826133	3,908823	1,729414	2020-10-29T19:52:04:047
-8,905746	3,686195	1,808325	2020-10-29T19:52:04:064
-8,958341	3,522420	1,873787	2020-10-29T19:52:04:087
-9,048007	3,227739	1,971209	2020-10-29T19:52:04:105
-9,115689	2,960787	2,075652	2020-10-29T19:52:04:127
-9,137172	2,820467	2,174270	2020-10-29T19:52:04:146
-9,163582	2,655431	2,268886	2020-10-29T19:52:04:175
-9,177794	2,497335	2,387843	2020-10-29T19:52:04:184
-9,331288	-0,379149	2,992270	2020-10-29T19:52:04:210
-9,195124	-0,706546	3,334798	2020-10-29T19:52:04:227
-8,882516	-1,700727	3,791942	2020-10-29T19:52:04:273
-8,392691	-2,522360	4,401230	2020-10-29T19:52:04:274
-8,029460	-2,914151	4,817248	2020-10-29T19:52:04:287
-7,921191	-3,262969	4,772646	2020-10-29T19:52:04:311
-8,221684	-3,372685	4,147205	2020-10-29T19:52:04:327
-8,618764	-2,821046	3,732157	2020-10-29T19:52:04:344
-8,698373	-2,645119	3,675873	2020-10-29T19:52:04:367
-8,789469	-2,411910	3,619160	2020-10-29T19:52:04:386
-8,894876	-2,141020	3,530950	2020-10-29T19:52:04:408
-9,005827	-1,879877	3,395810	2020-10-29T19:52:04:425
-9,121551	-1,653995	3,198750	2020-10-29T19:52:04:448
-9,237011	-1,475173	2,944805	2020-10-29T19:52:04:465
-9,334843	-1,327166	2,696244	2020-10-29T19:52:04:488
-9,423515	-1,189792	2,439701	2020-10-29T19:52:04:505
-9,495446	-1,090863	2,194744	2020-10-29T19:52:04:528
-9,554368	-1,004012	1,968857	2020-10-29T19:52:04:545
-9,601625	-0,923361	1,768214	2020-10-29T19:52:04:571
-9,639553	-0,835345	1,597371	2020-10-29T19:52:04:592
-9,698725	-0,553135	1,341332	2020-10-29T19:52:17:089
-9,743647	-0,285636	1,072453	2020-10-29T19:52:17:149
-9,773752	-0,038499	0,801664	2020-10-29T19:52:17:151
-9,789884	0,194906	0,539053	2020-10-29T19:52:17:153
-9,793600	0,370551	0,344194	2020-10-29T19:52:17:158
-9,790570	0,544019	0,138433	2020-10-29T19:52:17:175
-9,780294	0,715018	-0,070577	2020-10-29T19:52:17:191
-9,427421	-0,361236	2,676496	2020-10-29T19:52:17:218
-9,253473	-0,747396	3,159908	2020-10-29T19:52:17:232
-9,417479	-0,639537	2,659413	2020-10-29T19:52:17:258
-9,540683	-0,517083	2,208707	2020-10-29T19:52:17:274
-8,949336	-1,475779	3,728519	2020-10-29T19:52:17:297
-8,855221	-2,564960	3,343117	2020-10-29T19:52:17:313
-8,994740	-2,504708	2,998580	2020-10-29T19:52:17:336
-9,099174	-2,450240	2,715098	2020-10-29T19:52:17:352
-9,179729	-2,397311	2,481099	2020-10-29T19:52:17:376
-9,239232	-2,346745	2,302124	2020-10-29T19:52:17:394
-9,282855	-2,302490	2,167380	2020-10-29T19:52:17:417
-9,293343	-2,319972	2,102830	2020-10-29T19:52:17:432
-9,305261	-2,321980	2,047172	2020-10-29T19:52:17:456
-9,312719	-2,326466	2,007786	2020-10-29T19:52:17:472
-9,310763	-2,346435	1,993568	2020-10-29T19:52:17:497
-9,303628	-2,387191	1,978435	2020-10-29T19:52:17:512
-9,308595	-2,430571	1,900732	2020-10-29T19:52:17:535
-9,313145	-2,485598	1,804861	2020-10-29T19:52:17:552
-9,294075	-2,606359	1,731312	2020-10-29T19:52:17:577
-9,244318	-2,811192	1,676357	2020-10-29T19:52:17:592
-9,149793	-3,130885	1,627648	2020-10-29T19:52:17:615
-9,005858	-3,540364	1,590826	2020-10-29T19:52:17:633
-8,842623	-3,949376	1,542999	2020-10-29T19:52:17:656
-8,671098	-4,331591	1,489889	2020-10-29T19:52:17:672
-8,507442	-4,661767	1,435881	2020-10-29T19:52:17:696
-8,373674	-4,910284	1,393221	2020-10-29T19:52:17:712
-8,260229	-5,106195	1,365933	2020-10-29T19:52:17:736
-8,163170	-5,260642	1,363336	2020-10-29T19:52:17:753
-8,071871	-5,393993	1,385686	2020-10-29T19:52:17:776
-7,980478	-5,514734	1,438774	2020-10-29T19:52:17:793
-7,866420	-5,651739	1,532212	2020-10-29T19:52:17:816
-7,717418	-5,816055	1,668937	2020-10-29T19:52:17:832
-8,999410	-3,640399	1,388704	2020-10-29T19:52:17:856
-8,869190	-3,888232	1,545804	2020-10-29T19:52:17:875
-9,245266	-2,992368	1,319536	2020-10-29T19:52:17:896
-9,130980	-3,251036	1,492098	2020-10-29T19:52:17:913
-9,020820	-3,463759	1,672590	2020-10-29T19:52:17:936
-8,936198	-3,588834	1,853381	2020-10-29T19:52:17:952
-8,871444	-3,635280	2,062185	2020-10-29T19:52:17:977
-8,821498	-3,633366	2,269406	2020-10-29T19:52:17:993
-9,103852	-1,894031	3,114949	2020-10-29T19:52:18:016
-9,137938	-1,870759	3,027991	2020-10-29T19:52:18:032
-9,095457	-1,847056	3,167242	2020-10-29T19:52:18:057
-9,074020	-1,795953	3,256854	2020-10-29T19:52:18:073
-9,163494	-1,812798	2,985720	2020-10-29T19:52:18:097
-9,155728	-1,935564	2,931998	2020-10-29T19:52:18:115
-9,191074	-1,813145	2,899489	2020-10-29T19:52:18:136
-9,239540	-1,674427	2,827998	2020-10-29T19:52:18:152
-9,299891	-1,514089	2,718445	2020-10-29T19:52:18:176
-9,377769	-1,324253	2,544440	2020-10-29T19:52:18:193
-9,650330	-1,550308	0,798786	2020-10-29T19:52:18:218
-9,602871	-1,935667	0,456561	2020-10-29T19:52:18:233
-9,676793	-1,545182	0,377458	2020-10-29T19:52:18:256
-9,738431	-1,115840	0,297053	2020-10-29T19:52:18:273
-9,776011	-0,739496	0,230510	2020-10-29T19:52:18:297
-9,797825	-0,380061	0,169012	2020-10-29T19:52:18:313
-9,805930	-0,019354	0,117269	2020-10-29T19:52:18:336
-9,800506	0,337360	0,081673	2020-10-29T19:52:18:354
-9,772242	0,819277	0,049668	2020-10-29T19:52:18:377
-9,716928	1,323372	0,019616	2020-10-29T19:52:18:393
-9,654709	1,719558	-0,010370	2020-10-29T19:52:18:416
-9,640112	1,799462	-0,023804	2020-10-29T19:52:18:433
-9,620564	1,900521	-0,056033	2020-10-29T19:52:18:457
-9,594388	2,026681	-0,103310	2020-10-29T19:52:18:474
-7,890827	5,809500	-0,393616	2020-10-29T19:52:18:496
-8,255934	5,280389	-0,356987	2020-10-29T19:52:18:513
-8,629684	4,648311	-0,303528	2020-10-29T19:52:18:537
-8,972951	3,950840	-0,217697	2020-10-29T19:52:18:553
-9,449092	2,621882	-0,103788	2020-10-29T19:52:18:576
-9,549458	-2,230932	-0,034555	2020-10-29T19:52:18:594
-9,738218	1,156468	0,008010	2020-10-29T19:52:18:617
-9,727328	1,244075	0,041797	2020-10-29T19:52:18:633
-9,734693	1,184265	0,060519	2020-10-29T19:52:18:656
-9,746420	1,083341	0,063719	2020-10-29T19:52:18:675
-9,758509	0,969276	0,048881	2020-10-29T19:52:18:697
-9,771022	0,835177	0,000760	2020-10-29T19:52:18:715
-9,779452	0,729331	-0,027759	2020-10-29T19:52:18:736
-9,787507	0,609709	-0,057800	2020-10-29T19:52:18:754
-9,793806	0,494542	-0,084687	2020-10-29T19:52:18:777
-9,798850	0,375834	-0,108070	2020-10-29T19:52:18:795
-9,801796	0,266226	-0,155882	2020-10-29T19:52:18:816
-9,803507	0,138042	-0,206347	2020-10-29T19:52:18:836
-9,803240	-0,028682	-0,257000	2020-10-29T19:52:18:857
-9,799563	-0,229503	-0,293703	2020-10-29T19:52:18:875
-8,881351	-2,389819	3,403050	2020-10-29T19:52:18:898
-8,800812	-2,336756	3,640833	2020-10-29T19:52:18:914
-8,609097	-2,589808	3,917489	2020-10-29T19:52:18:937
-8,690187	-2,542514	3,766516	2020-10-29T19:52:18:954
-8,596415	-2,695887	3,873531	2020-10-29T19:52:18:977
-8,465407	-2,878534	4,027569	2020-10-29T19:52:18:995
-9,300914	-1,975541	2,400130	2020-10-29T19:52:19:019
-9,425865	-1,952852	1,873452	2020-10-29T19:52:19:034
-9,287827	-2,302700	2,145743	2020-10-29T19:52:19:056
-9,119393	-2,656807	2,438938	2020-10-29T19:52:19:076
-8,937335	-2,969185	2,734660	2020-10-29T19:52:19:097
-8,736161	-3,261457	3,035253	2020-10-29T19:52:19:115
-8,525096	-3,534509	3,316682	2020-10-29T19:52:19:137
-8,337029	-3,759466	3,539881	2020-10-29T19:52:19:154
-8,163089	-3,984330	3,695873	2020-10-29T19:52:19:178
-8,013182	-4,193058	3,791775	2020-10-29T19:52:19:195
-9,556294	-1,992923	0,935881	2020-10-29T19:52:19:217
-9,534014	-2,174304	0,738486	2020-10-29T19:52:19:235
-9,430169	-2,524901	0,931218	2020-10-29T19:52:19:258
-9,339923	-2,773260	1,115913	2020-10-29T19:52:19:274
-9,268381	-2,929818	1,297560	2020-10-29T19:52:19:297
-9,203183	-3,047727	1,477554	2020-10-29T19:52:19:315
-9,143274	-3,138913	1,648682	2020-10-29T19:52:19:338
-9,074235	-3,257618	1,793481	2020-10-29T19:52:19:354
-9,448620	-2,231324	1,383896	2020-10-29T19:52:19:391
-9,262821	-2,581131	1,925692	2020-10-29T19:52:19:399
-9,194715	-2,741950	2,027145	2020-10-29T19:52:19:417
-9,117572	-2,913222	2,133871	2020-10-29T19:52:19:435
-7,848082	-4,028188	4,283887	2020-10-29T19:52:19:458
-7,656945	-4,372827	4,291848	2020-10-29T19:52:19:474
-7,650083	-4,380222	4,296542	2020-10-29T19:52:19:498
-7,707678	-4,341615	4,232311	2020-10-29T19:52:19:514
-7,809844	-4,233754	4,153558	2020-10-29T19:52:19:537
-7,934318	-4,088680	4,061980	2020-10-29T19:52:19:555
-8,053308	-3,959524	3,954335	2020-10-29T19:52:19:578
-8,143698	-3,889647	3,836825	2020-10-29T19:52:19:595
-7,579389	-5,292013	3,273811	2020-10-29T19:52:19:618
-7,432210	-5,502091	3,264908	2020-10-29T19:52:19:634
-7,497475	-5,461787	3,182316	2020-10-29T19:52:19:658
-7,550360	-5,418566	3,130750	2020-10-29T19:52:19:675
-7,602613	-5,353624	3,115985	2020-10-29T19:52:19:698
-7,657518	-5,261477	3,138418	2020-10-29T19:52:19:714
-7,721450	-4,569397	3,958560	2020-10-29T19:52:19:739
-8,062485	-3,743297	4,141793	2020-10-29T19:52:19:755
-8,131284	-3,626910	4,110734	2020-10-29T19:52:19:777
-8,552691	-3,263999	3,516840	2020-10-29T19:52:19:797
-8,601842	-3,195203	3,459678	2020-10-29T19:52:19:819
-8,711823	-3,258020	3,108028	2020-10-29T19:52:19:835
-8,806862	-3,099969	2,999961	2020-10-29T19:52:19:858
-8,649822	-3,311943	3,222111	2020-10-29T19:52:19:875
-8,547794	-3,277357	3,516324	2020-10-29T19:52:19:899
-8,402675	-3,364508	3,774325	2020-10-29T19:52:19:915
-8,455857	-3,348440	3,668353	2020-10-29T19:52:19:937
-8,522738	-3,299135	3,556548	2020-10-29T19:52:19:955
-8,578012	-3,237573	3,479400	2020-10-29T19:52:19:980
-8,621651	-3,197335	3,408015	2020-10-29T19:52:19:995
-8,668477	-3,174720	3,308933	2020-10-29T19:52:20:018
-8,715285	-3,160778	3,197448	2020-10-29T19:52:20:036
-8,766387	-3,123660	3,092506	2020-10-29T19:52:20:058
-8,829184	-3,056382	2,979000	2020-10-29T19:52:20:075
-8,888077	-2,997918	2,860938	2020-10-29T19:52:20:098
-8,949207	-2,925138	2,743291	2020-10-29T19:52:20:115
-9,036819	-2,752510	2,632487	2020-10-29T19:52:20:139
-9,147717	-2,479293	2,518488	2020-10-29T19:52:20:155
-9,253539	-2,201997	2,386128	2020-10-29T19:52:20:178
-9,315195	-2,041980	2,286448	2020-10-29T19:52:20:195
-9,361994	-1,953134	2,169960	2020-10-29T19:52:20:219
-9,389120	-1,929047	2,072095	2020-10-29T19:52:20:235
-9,358179	-2,091407	2,054480	2020-10-29T19:52:20:259
-9,311311	-2,279434	2,067379	2020-10-29T19:52:20:277
-9,259079	-2,458948	2,096049	2020-10-29T19:52:20:299
-9,226896	-2,572966	2,101096	2020-10-29T19:52:20:315
-9,182826	-2,715726	2,114454	2020-10-29T19:52:20:339
-9,137590	-2,850571	2,132857	2020-10-29T19:52:20:355
-9,103427	-2,946533	2,148476	2020-10-29T19:52:20:380
-9,049123	-3,100186	2,161621	2020-10-29T19:52:20:395
-8,933727	-3,397210	2,194964	2020-10-29T19:52:20:418
-8,789289	-3,715779	2,260924	2020-10-29T19:52:20:435
-8,632654	-4,017240	2,347221	2020-10-29T19:52:20:459
-8,474128	-4,312287	2,400776	2020-10-29T19:52:20:475
-8,364410	-4,530458	2,383689	2020-10-29T19:52:20:498
-8,280201	-4,682456	2,383960	2020-10-29T19:52:20:516
-8,180114	-4,865921	2,361977	2020-10-29T19:52:20:539
-8,061652	-5,108984	2,253538	2020-10-29T19:52:20:555
-7,926692	-5,363411	2,138166	2020-10-29T19:52:20:578
-7,777256	-5,587826	2,112079	2020-10-29T19:52:20:596
-7,636284	-5,787865	2,087623	2020-10-29T19:52:20:619
-7,460408	-6,041654	2,002776	2020-10-29T19:52:20:635
-7,304656	-6,255244	1,919454	2020-10-29T19:52:20:658
-7,176254	-6,411546	1,887812	2020-10-29T19:52:20:675
-7,069539	-6,534981	1,867091	2020-10-29T19:52:20:699
-6,961660	-6,670827	1,790457	2020-10-29T19:52:20:715
-6,851711	-6,808437	1,693998	2020-10-29T19:52:20:738
-6,770248	-6,895884	1,667607	2020-10-29T19:52:20:757
-6,710480	-6,965730	1,618162	2020-10-29T19:52:20:780
-6,630720	-7,043694	1,609445	2020-10-29T19:52:20:796
-6,563997	-7,107165	1,603909	2020-10-29T19:52:20:818
-6,503520	-7,166419	1,586526	2020-10-29T19:52:20:835
-6,533883	-7,142800	1,568171	2020-10-29T19:52:20:859
-6,596409	-7,084146	1,572467	2020-10-29T19:52:20:876
-6,659909	-7,016730	1,606703	2020-10-29T19:52:20:898
-6,709964	-6,968312	1,609163	2020-10-29T19:52:20:916
-6,758892	-6,918646	1,618671	2020-10-29T19:52:20:939
-6,841191	-6,836890	1,620317	2020-10-29T19:52:20:956
-6,906450	-6,772558	1,613628	2020-10-29T19:52:20:979
-6,935531	-6,747555	1,593518	2020-10-29T19:52:20:997
-7,389260	-6,015718	2,319559	2020-10-29T19:52:21:020
-7,436391	-5,849356	2,579826	2020-10-29T19:52:21:036
-7,460544	-5,864459	2,473619	2020-10-29T19:52:21:058
-7,471992	-5,891284	2,373287	2020-10-29T19:52:21:076
-7,153049	-6,528222	1,544859	2020-10-29T19:52:21:100
-7,790223	-5,717574	1,670973	2020-10-29T19:52:21:116
-7,860899	-5,623452	1,659348	2020-10-29T19:52:21:139
-7,892274	-5,586499	1,635062	2020-10-29T19:52:21:155
-7,903154	-5,579810	1,605072	2020-10-29T19:52:21:180
-7,909457	-5,577158	1,583091	2020-10-29T19:52:21:196
-7,913706	-5,571713	1,581029	2020-10-29T19:52:21:219
-7,938217	-5,534811	1,587754	2020-10-29T19:52:21:239
-7,987987	-5,461523	1,591922	2020-10-29T19:52:21:260
-8,031363	-5,392542	1,608754	2020-10-29T19:52:21:276
-8,056293	-5,355559	1,607643	2020-10-29T19:52:21:299
-8,071095	-5,337005	1,595050	2020-10-29T19:52:21:316
-8,081882	-5,327042	1,573589	2020-10-29T19:52:21:339
-8,082676	-5,326920	1,569924	2020-10-29T19:52:21:356
-8,064011	-5,353178	1,576584	2020-10-29T19:52:21:380
-8,030971	-5,405961	1,565084	2020-10-29T19:52:21:396
-7,997735	-5,465868	1,526730	2020-10-29T19:52:21:420
-8,006815	-5,461554	1,494232	2020-10-29T19:52:21:436
-8,053390	-5,400600	1,465204	2020-10-29T19:52:21:459
-8,156890	-5,250676	1,437333	2020-10-29T19:52:21:477
-8,270220	-5,093570	1,352553	2020-10-29T19:52:21:500
-8,399772	-4,903436	1,253210	2020-10-29T19:52:21:516
-7,374212	-6,439866	0,565254	2020-10-29T19:52:21:540
-7,169479	-6,678391	0,409916	2020-10-29T19:52:21:556
-7,939139	-5,745303	0,363239	2020-10-29T19:52:21:580
-8,576665	-4,747449	0,270063	2020-10-29T19:52:21:597
-4,344208	-8,783638	0,382035	2020-10-29T19:52:21:619
-4,524045	-8,691547	0,400510	2020-10-29T19:52:21:636
-4,872371	-8,500010	0,424536	2020-10-29T19:52:21:660
-5,245688	-8,274732	0,426569	2020-10-29T19:52:21:676
-5,617515	-8,026873	0,428058	2020-10-29T19:52:21:700
-5,990003	-7,752815	0,429077	2020-10-29T19:52:21:717
-6,362931	-7,448091	0,457638	2020-10-29T19:52:21:740
-6,739788	-7,104067	0,527147	2020-10-29T19:52:21:757
-7,089695	-6,746700	0,623410	2020-10-29T19:52:21:780
-7,384269	-6,410897	0,737121	2020-10-29T19:52:21:797
-9,598059	-1,848604	0,793928	2020-10-29T19:52:21:821
-9,788036	-0,602816	0,036710	2020-10-29T19:52:21:837
-9,453538	-2,604924	0,124022	2020-10-29T19:52:21:859
-8,463444	-4,950678	0,176874	2020-10-29T19:52:21:877
-8,551666	-4,789107	0,322248	2020-10-29T19:52:21:900
-8,806889	-4,281165	0,529837	2020-10-29T19:52:21:916
-9,054739	-3,680677	0,796679	2020-10-29T19:52:21:939
-9,106606	-3,454151	1,144087	2020-10-29T19:52:21:958
-9,035728	-3,491869	1,527367	2020-10-29T19:52:21:980
-8,923176	-3,602722	1,888838	2020-10-29T19:52:21:997
-8,816745	-3,647640	2,264977	2020-10-29T19:52:22:020
-8,718640	-3,599735	2,682835	2020-10-29T19:52:22:036
-9,613246	1,396729	1,343519	2020-10-29T19:52:22:061
-9,380111	2,356656	1,621751	2020-10-29T19:52:22:077
-9,282306	2,596534	1,807539	2020-10-29T19:52:22:100
-9,165893	2,878451	1,967567	2020-10-29T19:52:22:117
-9,440005	2,549520	0,746077	2020-10-29T19:52:22:141
-9,404537	2,162408	1,746154	2020-10-29T19:52:22:157
-9,328914	2,311564	1,948956	2020-10-29T19:52:22:180
-9,261346	2,336031	2,222793	2020-10-29T19:52:22:199
-9,202832	2,267560	2,517228	2020-10-29T19:52:22:220
-9,148211	2,101717	2,839616	2020-10-29T19:52:22:237
-9,076095	1,992429	3,134506	2020-10-29T19:52:22:260
-9,013969	1,859731	3,385284	2020-10-29T19:52:22:277
-8,970189	1,735722	3,562774	2020-10-29T19:52:22:301
-8,944632	1,622101	3,678687	2020-10-29T19:52:22:317
-8,933473	1,525728	3,746412	2020-10-29T19:52:22:340
-8,930455	1,444761	3,785501	2020-10-29T19:52:22:357
-8,924117	1,385245	3,822514	2020-10-29T19:52:22:380
-8,904585	1,351398	3,879751	2020-10-29T19:52:22:397
-8,863664	1,336567	3,977366	2020-10-29T19:52:22:420
-8,788599	1,336321	4,140672	2020-10-29T19:52:22:439
-8,669035	1,333560	4,386324	2020-10-29T19:52:22:460
-8,467012	1,288647	4,776973	2020-10-29T19:52:22:477
-8,093986	1,154083	5,415337	2020-10-29T19:52:22:500
-7,495704	0,923498	6,255555	2020-10-29T19:52:22:517
-9,674628	1,036898	-1,223432	2020-10-29T19:52:22:540
-9,722217	1,075052	-0,702245	2020-10-29T19:52:22:557
-9,744460	1,080812	-0,218452	2020-10-29T19:52:22:580
-9,746354	1,082082	0,089752	2020-10-29T19:52:22:598
-9,741035	1,105397	0,246438	2020-10-29T19:52:22:621
-9,724951	1,245374	0,211582	2020-10-29T19:52:22:637
-9,701188	1,428973	0,124009	2020-10-29T19:52:22:660
-9,660921	1,684009	-0,033247	2020-10-29T19:52:22:679
-9,591061	2,028576	-0,258494	2020-10-29T19:52:22:701
-9,486224	2,436293	-0,496391	2020-10-29T19:52:22:717
-9,346374	2,885738	-0,698715	2020-10-29T19:52:22:740
-9,176155	3,353414	-0,850398	2020-10-29T19:52:22:757
-9,022974	3,738230	-0,884286	2020-10-29T19:52:22:781
-8,908647	4,016356	-0,821761	2020-10-29T19:52:22:798
-8,919718	4,024209	-0,644023	2020-10-29T19:52:22:820
-8,963541	3,948132	-0,487424	2020-10-29T19:52:22:837
-9,020633	3,828049	-0,380284	2020-10-29T19:52:22:861
-9,087061	3,674501	-0,306185	2020-10-29T19:52:22:878
-9,157184	3,500798	-0,246541	2020-10-29T19:52:22:900
-9,203178	3,376227	-0,270150	2020-10-29T19:52:22:919
-9,243209	3,271826	-0,169198	2020-10-29T19:52:22:941
-9,321188	3,046980	0,041815	2020-10-29T19:52:22:958
-9,450244	2,593214	0,372173	2020-10-29T19:52:22:982
-9,605752	1,850216	0,690372	2020-10-29T19:52:22:998
-9,723943	0,844765	0,949576	2020-10-29T19:52:23:021
-9,742406	0,305289	1,078294	2020-10-29T19:52:23:038
-9,631472	1,373922	1,231859	2020-10-29T19:52:23:060
-9,375038	2,474382	1,468494	2020-10-29T19:52:23:079
-9,200100	2,963418	1,657318	2020-10-29T19:52:23:102
-9,132008	3,106235	1,768650	2020-10-29T19:52:23:118
-9,136239	3,070190	1,809269	2020-10-29T19:52:23:141
-9,174665	2,960614	1,797407	2020-10-29T19:52:23:159
-9,424303	2,146957	1,656346	2020-10-29T19:52:23:182
-9,613787	1,190313	1,525990	2020-10-29T19:52:23:198
-9,624566	1,140230	1,495992	2020-10-29T19:52:23:221
-9,609340	1,313218	1,451354	2020-10-29T19:52:23:238
-9,458762	2,084152	1,535742	2020-10-29T19:52:23:262
-9,357958	2,473929	1,574385	2020-10-29T19:52:23:278
-9,379279	2,414555	1,539297	2020-10-29T19:52:23:301
-9,466288	2,099910	1,466343	2020-10-29T19:52:23:318
-9,569244	1,643742	1,377701	2020-10-29T19:52:23:342
-9,660359	1,113111	1,268392	2020-10-29T19:52:23:358
-9,730253	0,435587	1,141413	2020-10-29T19:52:23:385
-5,724205	-6,412801	4,720152	2020-10-29T19:52:23:401
-5,965437	-6,301289	4,569213	2020-10-29T19:52:23:421
-5,922344	-6,241392	4,705449	2020-10-29T19:52:23:438
-6,408102	-5,863400	4,552708	2020-10-29T19:52:23:478
-6,382801	-6,012560	4,390827	2020-10-29T19:52:23:480
-6,465390	-6,285869	3,854473	2020-10-29T19:52:23:502
-6,448797	-6,701730	3,109697	2020-10-29T19:52:23:518
-6,859126	-6,629190	2,275215	2020-10-29T19:52:23:541
-6,981645	-6,644106	1,811870	2020-10-29T19:52:23:557
-6,934481	-6,678143	1,867020	2020-10-29T19:52:23:581
-6,867585	-6,876905	1,309517	2020-10-29T19:52:23:599
-6,864643	-6,819474	1,594313	2020-10-29T19:52:23:621
-6,739436	-6,873834	1,871044	2020-10-29T19:52:23:639
-6,695977	-7,135695	0,645076	2020-10-29T19:52:23:662
-6,614596	-7,189321	0,855079	2020-10-29T19:52:23:679
-6,563339	-7,208145	1,065652	2020-10-29T19:52:23:701
-6,415380	-7,305808	1,280022	2020-10-29T19:52:23:718
-6,219258	-7,434880	1,487876	2020-10-29T19:52:23:742
-6,009009	-7,567191	1,673265	2020-10-29T19:52:23:759
-5,793804	-7,701960	1,811638	2020-10-29T19:52:23:782
-5,591050	-7,824982	1,918384	2020-10-29T19:52:23:799
-5,462847	-7,894423	2,001444	2020-10-29T19:52:23:822
-5,365227	-7,941495	2,077829	2020-10-29T19:52:23:839
-5,233239	-8,012164	2,142154	2020-10-29T19:52:23:861
-5,118977	-8,073419	2,187778	2020-10-29T19:52:23:880
-5,042219	-8,108525	2,235674	2020-10-29T19:52:23:902
-5,002157	-8,114719	2,302204	2020-10-29T19:52:23:919
-5,002859	-8,087756	2,393740	2020-10-29T19:52:23:942
-5,025730	-8,038185	2,509982	2020-10-29T19:52:23:959
-5,054772	-7,979050	2,637123	2020-10-29T19:52:23:982
-5,088134	-7,917951	2,754510	2020-10-29T19:52:23:999
-5,130767	-7,842825	2,887161	2020-10-29T19:52:24:023
-5,231269	-7,683964	3,124245	2020-10-29T19:52:24:060
-5,293705	-7,530965	3,381070	2020-10-29T19:52:24:066
-5,346379	-7,387486	3,607168	2020-10-29T19:52:24:088
-5,335930	-7,333215	3,731246	2020-10-29T19:52:24:104
-5,239172	-7,405029	3,726527	2020-10-29T19:52:24:122
-5,066314	-7,510094	3,755176	2020-10-29T19:52:24:177
-4,827437	-7,630812	3,825824	2020-10-29T19:52:24:182
-4,561439	-7,741541	3,928383	2020-10-29T19:52:24:183
-4,293470	-7,838011	4,037584	2020-10-29T19:52:24:203
-4,008862	-7,950661	4,109306	2020-10-29T19:52:24:244
-3,679896	-8,108015	4,109602	2020-10-29T19:52:24:244
-3,306505	-8,304413	4,034121	2020-10-29T19:52:24:262
-2,876581	-8,521846	3,908173	2020-10-29T19:52:24:278
-2,452190	-8,701313	3,800565	2020-10-29T19:52:24:309
-2,033775	-8,831806	3,746110	2020-10-29T19:52:24:317
-3,514590	-4,246717	8,110699	2020-10-29T19:52:24:340
-3,055639	-4,063945	8,385571	2020-10-29T19:52:24:360
3,022468	-6,137024	7,026521	2020-10-29T19:52:24:383
4,073752	-5,803029	6,774938	2020-10-29T19:52:24:399
4,484838	-5,687291	6,611455	2020-10-29T19:52:24:422
4,922300	-5,575594	6,391721	2020-10-29T19:52:24:439
5,404139	-5,463155	6,092586	2020-10-29T19:52:24:462
5,924403	-5,373815	5,673972	2020-10-29T19:52:24:480
6,411064	-5,299558	5,194548	2020-10-29T19:52:24:502
6,848843	-5,215721	4,696807	2020-10-29T19:52:24:519
7,234237	-5,074872	4,252278	2020-10-29T19:52:24:543
7,527814	-4,980532	3,833627	2020-10-29T19:52:24:559
7,739817	-4,878155	3,531177	2020-10-29T19:52:24:583
7,899605	-4,744184	3,355496	2020-10-29T19:52:24:600
7,986979	-4,638077	3,296481	2020-10-29T19:52:24:623
7,999170	-4,612529	3,302763	2020-10-29T19:52:24:640
7,980221	-4,642850	3,306115	2020-10-29T19:52:24:662
7,931191	-4,710118	3,328869	2020-10-29T19:52:24:679
9,017843	-3,795409	0,666156	2020-10-29T19:52:24:704
9,051294	-3,290717	1,848145	2020-10-29T19:52:24:720
8,924468	-3,534163	2,008470	2020-10-29T19:52:24:742
8,764115	-3,810447	2,200264	2020-10-29T19:52:24:759
8,598521	-4,051291	2,413061	2020-10-29T19:52:24:784
8,429933	-4,282716	2,600955	2020-10-29T19:52:24:800
8,311349	-4,474324	2,659379	2020-10-29T19:52:24:822
8,222311	-4,677430	2,585660	2020-10-29T19:52:24:841
8,131281	-4,896916	2,464319	2020-10-29T19:52:24:863
8,063256	-5,035992	2,406880	2020-10-29T19:52:24:880
7,232008	-5,631482	3,486383	2020-10-29T19:52:24:903
6,896940	-6,205912	3,176359	2020-10-29T19:52:24:920
7,034299	-6,052601	3,170967	2020-10-29T19:52:24:946
7,196744	-5,866216	3,156702	2020-10-29T19:52:24:971
7,068983	-5,926704	3,327768	2020-10-29T19:52:25:700
7,000949	-5,988639	3,360551	2020-10-29T19:52:25:718
6,950069	-6,023926	3,402827	2020-10-29T19:52:25:719
6,957098	-5,975684	3,472804	2020-10-29T19:52:25:720
7,027410	-5,850146	3,544247	2020-10-29T19:52:25:720
7,122520	-5,715497	3,573959	2020-10-29T19:52:25:720
7,158818	-5,641679	3,618447	2020-10-29T19:52:25:721
7,196533	-5,606266	3,598621	2020-10-29T19:52:25:721
7,254195	-5,572466	3,534778	2020-10-29T19:52:26:044
7,350581	-5,523065	3,411027	2020-10-29T19:52:26:044
7,499204	-5,450621	3,197352	2020-10-29T19:52:26:056
7,676690	-5,374816	2,889664	2020-10-29T19:52:26:059
7,899619	-5,274703	2,438014	2020-10-29T19:52:26:059
1,172275	-9,051076	3,588062	2020-10-29T19:52:26:062
9,539641	-2,134122	-0,781758	2020-10-29T19:52:26:065
9,526567	-2,326981	0,007809	2020-10-29T19:52:26:066
8,602965	-4,700226	-0,259307	2020-10-29T19:52:26:066
8,528014	-4,818360	-0,476199	2020-10-29T19:52:26:070
8,226851	-5,310304	-0,538488	2020-10-29T19:52:26:071
7,782794	-5,948692	-0,459967	2020-10-29T19:52:26:071
7,568069	-6,221816	-0,428642	2020-10-29T19:52:26:076
7,637879	-6,129655	-0,510409	2020-10-29T19:52:26:077
7,543226	-6,246286	-0,504023	2020-10-29T19:52:26:082
7,349331	-6,478559	-0,431268	2020-10-29T19:52:26:083
7,104064	-6,751613	-0,344076	2020-10-29T19:52:26:083
6,682198	-7,174529	-0,211556	2020-10-29T19:52:26:084
6,217769	-7,583111	-0,078488	2020-10-29T19:52:26:117
5,804322	-7,904436	-0,011352	2020-10-29T19:52:26:163
5,405561	-8,182304	0,013798	2020-10-29T19:52:26:164
4,799320	-8,551911	0,041535	2020-10-29T19:52:26:166
8,711112	-4,269486	-1,434710	2020-10-29T19:52:26:183
7,663980	-5,626442	-2,403529	2020-10-29T19:52:26:204
7,515763	-5,873658	-2,276802	2020-10-29T19:52:26:223
7,328873	-6,139592	-2,182524	2020-10-29T19:52:26:248
7,110711	-6,412910	-2,117251	2020-10-29T19:52:26:313
6,937627	-6,634677	-2,005188	2020-10-29T19:52:26:314
7,028990	-6,640710	-1,632380	2020-10-29T19:52:26:314
-1,018396	-9,531530	-2,069584	2020-10-29T19:52:26:325
-1,059488	-9,525324	-2,077517	2020-10-29T19:52:26:343
-0,776441	-9,566238	-2,013603	2020-10-29T19:52:26:368
1,038553	-9,060164	3,606275	2020-10-29T19:52:26:383
1,062513	-8,722665	4,353914	2020-10-29T19:52:26:399
1,210865	-8,055244	5,460515	2020-10-29T19:52:26:427
1,355518	-7,242617	6,471280	2020-10-29T19:52:26:444
1,475637	-6,514083	7,180501	2020-10-29T19:52:26:473
1,588758	-6,018932	7,577512	2020-10-29T19:52:26:484
1,594959	-5,521529	7,946019	2020-10-29T19:52:26:530
1,499326	-5,010615	8,295549	2020-10-29T19:52:26:531
1,331995	-4,487342	8,617420	2020-10-29T19:52:26:572
1,131952	-3,989156	8,886827	2020-10-29T19:52:26:578
-4,320081	-4,062099	7,810675	2020-10-29T19:52:26:643
-5,273199	-2,644176	7,834034	2020-10-29T19:52:26:643
-6,119476	-2,118790	7,364315	2020-10-29T19:52:26:649
-6,779430	-1,772081	6,860717	2020-10-29T19:52:26:656
-6,654047	-1,685591	7,003773	2020-10-29T19:52:26:671
-6,627182	-1,580497	7,053572	2020-10-29T19:52:26:680
-6,763171	-1,483579	6,944703	2020-10-29T19:52:26:703
-6,982276	-1,336666	6,755111	2020-10-29T19:52:26:720
-7,296206	-1,163613	6,448392	2020-10-29T19:52:26:744
-7,786543	-1,015713	5,874390	2020-10-29T19:52:26:763
-8,849167	-1,683430	3,876685	2020-10-29T19:52:26:786
-8,837859	-2,354889	3,537954	2020-10-29T19:52:26:801
-9,112404	-2,108825	2,947430	2020-10-29T19:52:26:824
-9,348275	-1,784729	2,365349	2020-10-29T19:52:26:842
-9,527687	-1,412025	1,843840	2020-10-29T19:52:26:865
-9,655932	-1,016041	1,378775	2020-10-29T19:52:26:882
-9,730232	-0,688728	1,009267	2020-10-29T19:52:26:904
-9,772761	-0,426537	0,693962	2020-10-29T19:52:26:921
-6,431084	-0,700224	7,370294	2020-10-29T19:52:26:946
-5,601545	0,348208	8,041880	2020-10-29T19:52:26:961
-5,815485	0,484130	7,881379	2020-10-29T19:52:26:985
-5,900032	0,624040	7,808366	2020-10-29T19:52:27:003
-5,946502	0,783439	7,758590	2020-10-29T19:52:27:025
-5,971261	0,981732	7,716906	2020-10-29T19:52:27:041
-5,821908	1,193542	7,800720	2020-10-29T19:52:27:065
-5,336593	1,258689	8,130612	2020-10-29T19:52:27:082
-4,815889	1,229907	8,453692	2020-10-29T19:52:27:117
-4,283453	1,103193	8,752450	2020-10-29T19:52:27:145
-8,481574	2,114328	4,445549	2020-10-29T19:52:27:146
-8,365541	2,174890	4,632274	2020-10-29T19:52:27:199
-8,208611	2,147220	4,917168	2020-10-29T19:52:27:199
-8,028961	2,058088	5,241225	2020-10-29T19:52:27:210
-4,877067	-2,790741	8,037187	2020-10-29T19:52:27:224
-3,891964	-2,819726	8,548224	2020-10-29T19:52:27:242
-3,901199	-2,805901	8,548564	2020-10-29T19:52:27:264
-3,971779	-2,780096	8,524461	2020-10-29T19:52:27:281
-4,164831	-2,898553	8,391839	2020-10-29T19:52:27:305
-4,393404	-3,056973	8,217256	2020-10-29T19:52:27:322
-4,593595	-3,220657	8,043423	2020-10-29T19:52:27:345
-4,808041	-3,327369	7,872849	2020-10-29T19:52:27:362
-5,022847	-3,424802	7,694942	2020-10-29T19:52:27:387
-5,188400	-3,550437	7,526306	2020-10-29T19:52:27:403
-8,446909	-4,662839	-1,754437	2020-10-29T19:52:27:426
-8,627177	-4,406034	-1,526130	2020-10-29T19:52:27:443
-9,169611	-3,441936	-0,491624	2020-10-29T19:52:27:466
-9,086410	-3,660269	0,458232	2020-10-29T19:52:27:484
-8,527696	-4,698057	1,173481	2020-10-29T19:52:27:508
-7,405073	-5,844953	2,678021	2020-10-29T19:52:27:523
-7,459509	-5,912292	2,360280	2020-10-29T19:52:27:547
-7,575585	-5,865650	2,091663	2020-10-29T19:52:27:562
-5,565314	-7,298356	3,454225	2020-10-29T19:52:27:588
-4,244975	-8,257646	3,156242	2020-10-29T19:52:27:603
-2,210715	-9,110287	2,878506	2020-10-29T19:52:27:628
-1,619990	-8,427880	4,745192	2020-10-29T19:52:27:642
-2,334407	-7,983501	5,194674	2020-10-29T19:52:27:669
-4,025020	-7,125924	5,402852	2020-10-29T19:52:27:682
-3,728012	-7,090160	5,657026	2020-10-29T19:52:27:706
-3,398310	-7,243138	5,670875	2020-10-29T19:52:27:723
-2,981608	-7,495592	5,576424	2020-10-29T19:52:27:747
-2,681046	-7,592543	5,597827	2020-10-29T19:52:27:762
-2,438871	-7,573739	5,732431	2020-10-29T19:52:27:786
-3,708805	0,477744	9,065700	2020-10-29T19:52:27:802
-3,782747	0,914871	9,001346	2020-10-29T19:52:27:827
-3,875125	1,341486	8,908098	2020-10-29T19:52:27:843
-4,004857	1,725601	8,783724	2020-10-29T19:52:27:866
-4,138164	1,987568	8,665770	2020-10-29T19:52:27:883
-4,266659	2,272118	8,532495	2020-10-29T19:52:27:906
-4,374502	2,548178	8,398863	2020-10-29T19:52:27:923
-4,473162	2,882572	8,237231	2020-10-29T19:52:27:946
-4,551885	3,289866	8,039124	2020-10-29T19:52:27:964
-4,619199	3,740828	7,799974	2020-10-29T19:52:27:987
-7,473645	6,225732	-1,247110	2020-10-29T19:52:28:002
-7,549624	6,134387	-1,242116	2020-10-29T19:52:28:026
-7,565800	6,105193	-1,286730	2020-10-29T19:52:28:043
-7,520419	6,136721	-1,397978	2020-10-29T19:52:28:066
-7,402677	6,219051	-1,641390	2020-10-29T19:52:28:083
-7,981917	-1,720830	5,431218	2020-10-29T19:52:28:106
-7,866503	-2,604891	5,244336	2020-10-29T19:52:28:122
-8,126757	-2,422563	4,925180	2020-10-29T19:52:28:147
-8,384648	-2,202053	4,584650	2020-10-29T19:52:28:166
-6,685658	-2,737370	6,631680	2020-10-29T19:52:28:247
-6,945666	-2,683561	6,381740	2020-10-29T19:52:28:250
-7,114938	-2,600910	6,227625	2020-10-29T19:52:28:254
-6,088220	-2,554760	7,251011	2020-10-29T19:52:28:254
-6,178448	-2,359836	7,240742	2020-10-29T19:52:28:268
-6,312070	-2,243579	7,162018	2020-10-29T19:52:28:284
-6,424869	-2,212924	7,070673	2020-10-29T19:52:28:306
-6,453708	-2,217479	7,042928	2020-10-29T19:52:28:323
-6,402886	-2,204816	7,093111	2020-10-29T19:52:28:346
-6,291588	-2,143672	7,210476	2020-10-29T19:52:28:363
-3,858766	-4,480383	7,823457	2020-10-29T19:52:28:387
-2,786223	-3,663845	8,659307	2020-10-29T19:52:28:403
-2,449566	-3,289973	8,907642	2020-10-29T19:52:28:426
-2,109583	-3,096503	9,062654	2020-10-29T19:52:28:444
-1,732795	-2,946659	9,191573	2020-10-29T19:52:28:466
-1,332028	-2,823162	9,296550	2020-10-29T19:52:28:483
-0,937804	-2,794272	9,353232	2020-10-29T19:52:28:506
-0,587870	-2,843622	9,366889	2020-10-29T19:52:28:523
-0,292930	-2,915530	9,358646	2020-10-29T19:52:28:546
-0,066409	-3,003485	9,335152	2020-10-29T19:52:28:563
0,108372	-3,100884	9,302857	2020-10-29T19:52:28:587
0,276769	-3,065068	9,311237	2020-10-29T19:52:28:603
0,329469	-3,128508	9,288394	2020-10-29T19:52:28:626
0,347974	-3,152901	9,279468	2020-10-29T19:52:28:643
0,428880	-3,052142	9,309719	2020-10-29T19:52:28:666
0,549725	-2,908248	9,349347	2020-10-29T19:52:28:684
0,651265	-2,840771	9,363560	2020-10-29T19:52:28:706
0,577851	-2,975990	9,326304	2020-10-29T19:52:28:723
0,144972	-3,251372	9,250835	2020-10-29T19:52:28:746
-0,424928	-3,569155	9,124196	2020-10-29T19:52:28:763
-1,098716	-3,934066	8,915511	2020-10-29T19:52:28:786
-1,943928	-4,412874	8,539207	2020-10-29T19:52:28:804
-2,747390	-4,852041	8,067213	2020-10-29T19:52:28:826
-3,500684	-5,179412	7,555745	2020-10-29T19:52:28:844
-4,188076	-5,410331	7,025577	2020-10-29T19:52:28:867
-4,817408	-5,579901	6,467431	2020-10-29T19:52:28:884
-5,363589	-5,674011	5,933625	2020-10-29T19:52:28:906
-5,821409	-5,659231	5,500425	2020-10-29T19:52:28:925
-6,209743	-5,526456	5,202669	2020-10-29T19:52:28:946
-6,519386	-5,300913	5,056511	2020-10-29T19:52:28:963
-6,774238	-4,946333	5,080736	2020-10-29T19:52:28:987
-7,007519	-4,554369	5,130572	2020-10-29T19:52:29:003
-7,214675	-4,200609	5,145263	2020-10-29T19:52:29:026
-7,406901	-3,981245	5,045580	2020-10-29T19:52:29:044
-7,577285	-3,839971	4,899975	2020-10-29T19:52:29:066
-7,712608	-3,738875	4,765173	2020-10-29T19:52:29:084
-7,802381	-3,680051	4,663739	2020-10-29T19:52:29:107
-7,854162	-3,654022	4,596807	2020-10-29T19:52:29:124
-7,861151	-3,655567	4,583614	2020-10-29T19:52:29:147
-7,821678	-3,713177	4,604786	2020-10-29T19:52:29:165
-7,735523	-3,835421	4,649904	2020-10-29T19:52:29:187
-7,614447	-3,999556	4,711064	2020-10-29T19:52:29:223
-7,454167	-4,230112	4,765705	2020-10-29T19:52:29:243
-7,265620	-4,518672	4,791947	2020-10-29T19:52:29:244
-7,055018	-4,865563	4,766906	2020-10-29T19:52:29:266
-6,815828	-5,205020	4,756326	2020-10-29T19:52:29:284
-6,560667	-5,525223	4,753940	2020-10-29T19:52:29:309
-6,302792	-5,803832	4,770820	2020-10-29T19:52:29:324
-6,060325	-6,017526	4,819983	2020-10-29T19:52:29:347
-5,847885	-6,186803	4,867863	2020-10-29T19:52:29:364
-7,343022	-5,908976	2,708214	2020-10-29T19:52:29:395
-7,683969	-5,665795	2,241823	2020-10-29T19:52:29:408
-7,535909	-5,850098	2,270861	2020-10-29T19:52:29:427
-7,441579	-5,967919	2,275352	2020-10-29T19:52:29:444
-7,320370	-6,074248	2,384551	2020-10-29T19:52:29:468
-7,164879	-6,315136	2,225747	2020-10-29T19:52:29:484
-7,191265	-6,291722	2,206881	2020-10-29T19:52:29:507
-7,247269	-6,245671	2,153850	2020-10-29T19:52:29:524
-7,333779	-6,164096	2,095230	2020-10-29T19:52:29:547
-7,478057	-5,992013	2,084426	2020-10-29T19:52:29:564
-7,315352	-5,387076	3,692616	2020-10-29T19:52:29:588
-7,680453	-4,170810	4,448074	2020-10-29T19:52:29:604
-7,752740	-3,943326	4,529413	2020-10-29T19:52:29:628
-7,791971	-3,710811	4,656765	2020-10-29T19:52:29:650
-2,372622	4,980537	8,107731	2020-10-29T19:52:32:246
-2,787584	4,457878	8,278109	2020-10-29T19:52:32:247
-2,532516	4,386594	8,397294	2020-10-29T19:52:32:253
-2,427027	4,408497	8,416952	2020-10-29T19:52:32:254
-2,436245	4,696738	8,256861	2020-10-29T19:52:32:255
-2,517360	5,048275	8,021733	2020-10-29T19:52:32:255
-2,634823	5,293987	7,823158	2020-10-29T19:52:32:291
-2,783759	5,369293	7,719570	2020-10-29T19:52:32:389
-3,078933	5,149032	7,757450	2020-10-29T19:52:32:430
-3,279118	5,053174	7,738424	2020-10-29T19:52:32:444
-3,511362	4,962432	7,695127	2020-10-29T19:52:32:445
-3,849250	4,783082	7,646946	2020-10-29T19:52:32:446
-4,101568	4,804514	7,500944	2020-10-29T19:52:32:447
-4,351631	4,813976	7,352505	2020-10-29T19:52:32:447
-4,629964	4,707353	7,250837	2020-10-29T19:52:32:448
-4,890587	4,559039	7,174100	2020-10-29T19:52:32:449
-7,245264	6,068312	-2,617657	2020-10-29T19:52:32:449
-6,855574	6,268352	-3,143128	2020-10-29T19:52:32:450
-6,388618	6,548523	-3,531683	2020-10-29T19:52:32:456
-5,916679	6,813284	-3,839591	2020-10-29T19:52:32:461
-5,488048	7,006163	-4,118907	2020-10-29T19:52:32:461
-6,736725	-4,913324	-5,161993	2020-10-29T19:52:32:462
-6,641006	-4,932958	-5,266246	2020-10-29T19:52:32:537
-6,431250	-5,150199	-5,318352	2020-10-29T19:52:32:600
-6,180153	-5,446678	-5,320695	2020-10-29T19:52:32:606
-5,686804	-5,448242	5,843569	2020-10-29T19:52:32:607
-5,684663	-5,321444	5,961311	2020-10-29T19:52:32:607
-5,476959	5,927572	5,571104	2020-10-29T19:52:32:609
-5,560615	5,968625	5,442928	2020-10-29T19:52:32:611
-5,669825	5,920554	5,382427	2020-10-29T19:52:32:618
-5,811759	5,764497	5,400408	2020-10-29T19:52:32:637
-9,293449	-1,821933	2,546122	2020-10-29T19:52:32:656
-9,261052	-2,193534	2,364678	2020-10-29T19:52:32:684
-9,114493	-2,533600	2,584040	2020-10-29T19:52:32:719
-8,937877	-2,915995	2,789572	2020-10-29T19:52:32:720
-8,731415	-3,371395	2,926854	2020-10-29T19:52:32:744
-8,510330	-3,811505	3,035967	2020-10-29T19:52:32:799
-8,273000	-4,258818	3,096826	2020-10-29T19:52:32:799
-8,033593	-4,668325	3,136639	2020-10-29T19:52:32:815
-7,805829	-5,000042	3,199844	2020-10-29T19:52:32:815
-7,509068	-6,176711	1,277702	2020-10-29T19:52:32:836
-7,378067	-6,300484	1,427727	2020-10-29T19:52:32:853
-8,103233	-5,154136	1,985665	2020-10-29T19:52:32:876
-7,938884	-5,327057	2,183340	2020-10-29T19:52:32:892
-7,752597	-5,512563	2,383123	2020-10-29T19:52:32:917
-7,569817	-5,676529	2,577841	2020-10-29T19:52:32:935
-7,397837	-5,822102	2,746912	2020-10-29T19:52:32:966
-7,241416	-5,945184	2,896043	2020-10-29T19:52:32:985
-7,102183	-6,039444	3,042121	2020-10-29T19:52:33:019
-6,965992	-6,113241	3,205249	2020-10-29T19:52:33:020
-6,866035	-6,107750	3,423936	2020-10-29T19:52:33:082
-6,817750	-6,002491	3,695777	2020-10-29T19:52:33:083
-6,808585	-5,814627	4,000459	2020-10-29T19:52:33:084
-6,845371	-5,567168	4,279943	2020-10-29T19:52:33:093
-5,175720	-1,925648	8,103961	2020-10-29T19:52:33:122
-5,105077	-3,874602	7,422670	2020-10-29T19:52:33:135
-6,176600	-4,440628	6,188765	2020-10-29T19:52:33:157
-6,336020	-4,092165	6,267330	2020-10-29T19:52:33:177
-6,475572	-3,700087	6,367630	2020-10-29T19:52:33:197
-8,521710	-1,007944	4,747092	2020-10-29T19:52:33:214
-8,076398	-0,613525	5,528631	2020-10-29T19:52:33:238
-9,729449	-0,426072	-1,151808	2020-10-29T19:52:33:255
-7,843731	0,058726	5,885815	2020-10-29T19:52:33:279
-7,081860	-0,115456	6,782649	2020-10-29T19:52:33:296
-6,212949	-0,055536	7,587263	2020-10-29T19:52:33:318
-9,533113	-0,032354	2,299799	2020-10-29T19:52:33:335
-9,602664	-0,085474	1,987944	2020-10-29T19:52:33:359
-9,375133	-0,047464	2,876632	2020-10-29T19:52:33:375
-9,291699	-0,004523	3,136029	2020-10-29T19:52:33:397
-9,168327	0,104497	3,478684	2020-10-29T19:52:33:417
-9,069039	0,211535	3,725340	2020-10-29T19:52:33:438
-8,904403	0,406699	4,088593	2020-10-29T19:52:33:455
-9,163589	0,750902	3,411036	2020-10-29T19:52:33:479
-9,367615	-0,279476	2,887917	2020-10-29T19:52:33:495
-9,326186	-0,210225	3,024638	2020-10-29T19:52:33:518
-9,058870	-0,125479	3,753865	2020-10-29T19:52:33:536
-9,774634	-0,020970	0,791499	2020-10-29T19:52:33:558
-9,590747	0,084903	2,044686	2020-10-29T19:52:33:575
-9,526125	0,177210	2,322051	2020-10-29T19:52:33:599
-9,488605	0,273745	2,462078	2020-10-29T19:52:33:615
-9,463711	0,379867	2,542490	2020-10-29T19:52:33:639
-9,446210	0,446942	2,596101	2020-10-29T19:52:33:656
-9,383906	0,492084	2,805448	2020-10-29T19:52:33:678
-9,244927	0,512791	3,230904	2020-10-29T19:52:33:695
-8,986911	0,525808	3,889647	2020-10-29T19:52:33:718
-8,702139	0,521601	4,491224	2020-10-29T19:52:33:736
-8,535643	0,535415	4,798595	2020-10-29T19:52:33:759
-8,740865	0,656465	4,397354	2020-10-29T19:52:33:776
-9,431055	2,431089	1,146905	2020-10-29T19:52:33:799
-9,334659	2,983190	0,367585	2020-10-29T19:52:33:816
-9,669807	1,622228	-0,183243	2020-10-29T19:52:33:840
-9,621967	1,892373	-0,083989	2020-10-29T19:52:33:856
-9,645417	1,702859	0,486388	2020-10-29T19:52:33:879
-9,636650	1,758891	0,460065	2020-10-29T19:52:33:898
-9,622748	1,839656	0,434462	2020-10-29T19:52:33:919
-9,226768	3,143299	1,075545	2020-10-29T19:52:33:936
-9,219998	3,160599	1,082880	2020-10-29T19:52:33:959
-9,206848	3,184729	1,123314	2020-10-29T19:52:33:976
-9,175450	3,257146	1,171534	2020-10-29T19:52:33:998
-9,139399	3,334826	1,233168	2020-10-29T19:52:34:016
-9,085769	3,452307	1,304133	2020-10-29T19:52:34:039
-9,045053	3,544902	1,338306	2020-10-29T19:52:34:056
-8,989586	3,663496	1,391589	2020-10-29T19:52:34:079
-8,944263	3,737716	1,483242	2020-10-29T19:52:34:096
-8,958068	3,682900	1,536118	2020-10-29T19:52:34:118
-9,008070	3,560819	1,531542	2020-10-29T19:52:34:137
-9,028683	3,582900	1,347629	2020-10-29T19:52:34:160
-9,047021	3,610712	1,133384	2020-10-29T19:52:34:176
-9,048802	3,645015	1,001716	2020-10-29T19:52:34:199
-9,042595	3,682555	0,916874	2020-10-29T19:52:34:216
-9,023775	3,739500	0,870640	2020-10-29T19:52:34:239
-9,011345	3,763790	0,894391	2020-10-29T19:52:34:256
-9,005788	3,753959	0,986898	2020-10-29T19:52:34:279
-8,986457	3,756823	1,140286	2020-10-29T19:52:34:296
-8,954401	3,763419	1,351205	2020-10-29T19:52:34:319
-8,924791	3,731063	1,611722	2020-10-29T19:52:34:336
-8,841941	3,768211	1,947061	2020-10-29T19:52:34:359
-8,749818	3,819124	2,241733	2020-10-29T19:52:34:377
-8,722816	3,713798	2,508101	2020-10-29T19:52:34:399
-8,701764	3,588945	2,751212	2020-10-29T19:52:34:416
-8,636442	3,647776	2,876801	2020-10-29T19:52:34:439
-8,556882	3,743721	2,989100	2020-10-29T19:52:34:456
-7,962234	4,447060	3,605118	2020-10-29T19:52:34:480
-8,695466	2,390418	3,852942	2020-10-29T19:52:34:496
-8,641060	2,385468	3,976432	2020-10-29T19:52:34:519
-8,562186	2,465852	4,096209	2020-10-29T19:52:34:536
-8,486664	2,429112	4,271573	2020-10-29T19:52:34:560
-8,421049	2,399477	4,415747	2020-10-29T19:52:34:576
-8,365130	2,330014	4,556973	2020-10-29T19:52:34:599
-8,307118	2,230445	4,710338	2020-10-29T19:52:34:617
-8,236490	2,187655	4,852297	2020-10-29T19:52:34:667
-8,179569	2,126064	4,974423	2020-10-29T19:52:34:668
-8,088666	2,085272	5,137655	2020-10-29T19:52:34:686
-7,982138	2,022534	5,325900	2020-10-29T19:52:34:697
-7,851481	1,995515	5,526531	2020-10-29T19:52:34:721
-7,718614	1,939154	5,730014	2020-10-29T19:52:34:737
-7,601521	1,879268	5,903865	2020-10-29T19:52:34:760
-7,491473	1,857726	6,049551	2020-10-29T19:52:34:776
-7,378592	1,840796	6,191787	2020-10-29T19:52:34:801
-7,276640	1,810226	6,320124	2020-10-29T19:52:34:816
-7,203177	1,768892	6,415266	2020-10-29T19:52:34:840
-7,148899	1,721751	6,488389	2020-10-29T19:52:34:858
-7,088040	1,711009	6,557631	2020-10-29T19:52:34:880
-6,990636	1,683292	6,668427	2020-10-29T19:52:34:896
-6,864986	1,613214	6,814682	2020-10-29T19:52:34:920
-6,757554	1,550762	6,935488	2020-10-29T19:52:34:937
-6,683172	1,533741	7,010936	2020-10-29T19:52:34:960
-6,632260	1,544057	7,056870	2020-10-29T19:52:34:977
-6,711265	2,071703	6,843782	2020-10-29T19:52:35:001
-6,560858	2,060639	6,991373	2020-10-29T19:52:35:017
-6,484356	1,999325	7,079987	2020-10-29T19:52:35:041
-6,422778	1,892886	7,164865	2020-10-29T19:52:35:057
-6,400833	1,788146	7,211259	2020-10-29T19:52:35:079
-6,404054	1,743590	7,219306	2020-10-29T19:52:35:098
-6,397747	1,682987	7,239252	2020-10-29T19:52:35:120
-6,344699	1,720587	7,277002	2020-10-29T19:52:35:137
-6,224038	1,850812	7,348893	2020-10-29T19:52:35:160
-6,034230	1,773383	7,524198	2020-10-29T19:52:35:177
-5,892461	1,761996	7,638367	2020-10-29T19:52:35:200
-5,777298	1,728793	7,733336	2020-10-29T19:52:35:217
-5,711533	1,697530	7,788913	2020-10-29T19:52:35:240
-5,671718	1,645263	7,829119	2020-10-29T19:52:35:257
-5,479294	1,316384	8,025887	2020-10-29T19:52:35:280
-5,274675	1,041932	8,201376	2020-10-29T19:52:35:297
-5,160664	0,923827	8,287609	2020-10-29T19:52:35:320
-4,927711	0,734801	8,446782	2020-10-29T19:52:35:338
-7,012510	-1,784035	6,619086	2020-10-29T19:52:35:361
-6,235340	-0,336355	7,561600	2020-10-29T19:52:35:377
-6,344219	-0,375843	7,468602	2020-10-29T19:52:35:400
-6,366090	-0,450459	7,445829	2020-10-29T19:52:35:417
-6,346872	-0,597988	7,451846	2020-10-29T19:52:35:441
-6,322900	-0,751409	7,458331	2020-10-29T19:52:35:457
-6,274007	-0,943340	7,477789	2020-10-29T19:52:35:480
-6,156067	-1,098638	7,554218	2020-10-29T19:52:35:497
-5,968655	-1,173359	7,692123	2020-10-29T19:52:35:520
-5,832849	-1,268038	7,780767	2020-10-29T19:52:35:539
-5,751865	-1,371534	7,823383	2020-10-29T19:52:35:560
-5,640200	-1,446976	7,890804	2020-10-29T19:52:35:580
-5,552452	-1,472368	7,948132	2020-10-29T19:52:35:601
-5,471837	-1,486560	8,001221	2020-10-29T19:52:35:618
-5,396871	-1,458712	8,057067	2020-10-29T19:52:35:641
-5,308410	-1,388754	8,127886	2020-10-29T19:52:35:693
-5,218398	-1,300413	8,200465	2020-10-29T19:52:35:694
-5,175427	-1,259050	8,234083	2020-10-29T19:52:35:698
-5,140733	-1,210891	8,262989	2020-10-29T19:52:35:721
-9,363493	-2,162302	1,954441	2020-10-29T19:52:35:738
-9,395282	-2,211083	1,734987	2020-10-29T19:52:35:782
-9,389515	-2,338234	1,593753	2020-10-29T19:52:35:785
-9,380930	-2,444350	1,481112	2020-10-29T19:52:35:800
-9,378568	-2,505780	1,390657	2020-10-29T19:52:35:828
-9,374950	-2,512760	1,402398	2020-10-29T19:52:35:841
-9,370055	-2,490101	1,473721	2020-10-29T19:52:35:858
-9,343653	-2,517457	1,590267	2020-10-29T19:52:35:880
-9,298504	-2,545895	1,796283	2020-10-29T19:52:35:898
-5,340454	-1,668022	8,054045	2020-10-29T19:52:35:920
-5,591482	-2,284011	7,725866	2020-10-29T19:52:35:938
-5,643153	-2,582450	7,593165	2020-10-29T19:52:35:961
-5,470478	-2,466560	7,756310	2020-10-29T19:52:35:978
-5,352451	-2,347363	7,874740	2020-10-29T19:52:36:001
-5,279092	-2,315367	7,933514	2020-10-29T19:52:36:018
-2,265520	-2,341357	9,249640	2020-10-29T19:52:36:041
-2,524601	-3,833236	8,666203	2020-10-29T19:52:36:059
-2,566079	-3,935976	8,607771	2020-10-29T19:52:36:081
-2,688442	-4,221486	8,433370	2020-10-29T19:52:36:103
-2,793229	-4,499984	8,253387	2020-10-29T19:52:36:121
-2,901816	-4,845026	8,017205	2020-10-29T19:52:36:147
-2,781885	-4,722968	8,131733	2020-10-29T19:53:01:281
-2,630871	-4,574926	8,265528	2020-10-29T19:53:01:282
-2,448933	-4,385573	8,422580	2020-10-29T19:53:01:283
-2,242234	-4,135262	8,604788	2020-10-29T19:53:01:284
-1,997034	-3,789451	8,821694	2020-10-29T19:53:01:287
-1,747164	-3,388157	9,035386	2020-10-29T19:53:01:288
-1,480773	-2,953136	9,233455	2020-10-29T19:53:01:289
-1,218062	-2,576649	9,383368	2020-10-29T19:53:01:290
-0,966616	-2,288814	9,486694	2020-10-29T19:53:01:291
-9,684128	-0,504291	1,460731	2020-10-29T19:53:01:291
-9,710141	-0,907683	1,029395	2020-10-29T19:53:01:295
-9,692352	-1,284401	0,760919	2020-10-29T19:53:01:303
-9,629509	-1,680093	0,787543	2020-10-29T19:53:01:317
-9,480203	-2,252598	1,105414	2020-10-29T19:53:01:341
-9,305140	-2,770399	1,381899	2020-10-29T19:53:01:358
-9,369967	-2,838573	0,562680	2020-10-29T19:53:01:383
-9,434134	-2,660253	0,300919	2020-10-29T19:53:01:433
-9,191588	-3,385264	0,474425	2020-10-29T19:53:01:433
-9,155805	-3,493366	0,371509	2020-10-29T19:53:01:935
-8,867572	-3,924894	1,460053	2020-10-29T19:53:01:946
-8,909118	-3,794085	1,550136	2020-10-29T19:53:01:962
-8,913524	-3,725096	1,686164	2020-10-29T19:53:01:986
-8,965519	-3,583636	1,716801	2020-10-29T19:53:02:000
-9,053113	-3,444109	1,532854	2020-10-29T19:53:02:024
-9,128933	-3,319747	1,346195	2020-10-29T19:53:02:040
-9,208168	-3,368041	0,190612	2020-10-29T19:53:02:065
-9,176384	-3,456496	-0,130339	2020-10-29T19:53:02:081
-9,108194	-3,621552	-0,309097	2020-10-29T19:53:02:103
-9,063183	-3,713689	-0,487462	2020-10-29T19:53:02:120
-9,025083	-3,774367	-0,687331	2020-10-29T19:53:02:145
-9,009495	-3,766115	-0,903200	2020-10-29T19:53:02:160
-9,000823	-3,721691	-1,142185	2020-10-29T19:53:02:183
-8,979917	-3,711314	-1,325755	2020-10-29T19:53:02:200
-8,951689	-3,735252	-1,444143	2020-10-29T19:53:02:224
-8,934247	-3,752921	-1,505057	2020-10-29T19:53:02:240
-8,918152	-3,812988	-1,448474	2020-10-29T19:53:02:264
-8,889112	-3,903299	-1,385034	2020-10-29T19:53:02:280
-9,049862	-3,490029	-1,445709	2020-10-29T19:53:02:304
-9,130242	-3,274421	-1,444723	2020-10-29T19:53:02:321
-9,210009	-3,061082	-1,405670	2020-10-29T19:53:02:343
-9,261379	-2,909460	-1,390066	2020-10-29T19:53:02:360
-9,325780	-2,699015	-1,384029	2020-10-29T19:53:02:384
-9,406222	-2,406149	-1,379788	2020-10-29T19:53:02:400
-9,440915	-2,239477	-1,422762	2020-10-29T19:53:02:422
-9,434946	-2,269007	-1,415553	2020-10-29T19:53:02:440
-9,389665	-2,404230	-1,491395	2020-10-29T19:53:02:464
-9,326752	-2,591066	-1,571135	2020-10-29T19:53:02:480
-5,793977	-6,831524	-3,991301	2020-10-29T19:53:02:503
-5,053787	-7,250036	-4,250483	2020-10-29T19:53:02:520
-9,725369	-0,738397	1,020950	2020-10-29T19:53:02:545
-9,646607	-1,117044	1,365859	2020-10-29T19:53:02:563
-9,544997	-1,512441	1,666116	2020-10-29T19:53:02:584
-9,521726	-2,293292	0,497940	2020-10-29T19:53:02:600
-9,262887	-3,149796	0,669403	2020-10-29T19:53:02:624
-8,913595	-4,010267	0,797467	2020-10-29T19:53:02:641
-9,267076	-3,157448	0,567619	2020-10-29T19:53:02:664
-8,882767	-4,101481	0,666855	2020-10-29T19:53:02:681
-8,889448	-4,082894	0,691432	2020-10-29T19:53:02:705
-9,028656	-3,770120	0,663287	2020-10-29T19:53:02:720
-8,913882	-4,016641	0,761373	2020-10-29T19:53:02:744
-8,839924	-4,161680	0,840563	2020-10-29T19:53:02:760
-8,789475	-4,254749	0,901454	2020-10-29T19:53:02:785
-8,751646	-4,325914	0,930343	2020-10-29T19:53:02:801
-8,709975	-4,409190	0,930464	2020-10-29T19:53:02:823
-8,672968	-4,483464	0,921176	2020-10-29T19:53:02:841
-8,665467	-4,499169	0,915171	2020-10-29T19:53:02:865
-8,697596	-4,437105	0,913406	2020-10-29T19:53:02:881
-8,734133	-4,065507	1,832202	2020-10-29T19:53:02:904
-8,747398	-3,730536	2,395099	2020-10-29T19:53:02:921
-8,803865	-3,589083	2,404334	2020-10-29T19:53:02:945
-8,844940	-3,470171	2,428029	2020-10-29T19:53:02:960
-8,910900	-3,279407	2,451884	2020-10-29T19:53:02:984
-8,962666	-3,122065	2,468544	2020-10-29T19:53:03:001
-9,365165	-1,637326	2,404836	2020-10-29T19:53:03:025
-9,248411	-1,753638	2,749915	2020-10-29T19:53:03:042
-9,233510	-1,764861	2,792480	2020-10-29T19:53:03:064
-9,217963	-1,799447	2,821618	2020-10-29T19:53:03:081
-9,202318	-1,838261	2,847545	2020-10-29T19:53:03:105
-9,189583	-1,871102	2,867218	2020-10-29T19:53:03:121
-8,877398	-2,535044	3,306921	2020-10-29T19:53:03:144
-9,030528	-2,574772	2,826746	2020-10-29T19:53:03:161
-9,472169	-1,813865	1,777160	2020-10-29T19:53:03:186
-9,551281	-1,419507	1,711263	2020-10-29T19:53:03:201
-9,576236	-1,272162	1,687513	2020-10-29T19:53:03:224
-9,596341	-1,118539	1,682109	2020-10-29T19:53:03:241
-9,608852	-1,044570	1,658077	2020-10-29T19:53:03:265
-9,602940	-1,097308	1,658268	2020-10-29T19:53:03:283
-9,570930	-1,311785	1,687271	2020-10-29T19:53:03:304
-9,500948	-1,723685	1,712098	2020-10-29T19:53:03:321
-9,377445	-2,278268	1,744534	2020-10-29T19:53:03:346
-9,203878	-2,917677	1,716442	2020-10-29T19:53:03:361
-9,037399	-3,695052	0,917820	2020-10-29T19:53:03:385
-9,124775	-3,429301	1,071807	2020-10-29T19:53:03:402
-9,171220	-3,422052	0,590491	2020-10-29T19:53:03:426
-9,162145	-3,496251	0,041376	2020-10-29T19:53:03:441
-6,371916	-7,454465	-0,004762	2020-10-29T19:53:03:464
-6,508358	-7,335590	-0,027621	2020-10-29T19:53:03:481
-6,675845	-7,183544	0,013378	2020-10-29T19:53:03:505
-7,397540	-6,437217	0,094982	2020-10-29T19:53:03:522
-9,547834	-1,948855	1,100545	2020-10-29T19:53:03:545
-9,570375	-1,837653	1,096056	2020-10-29T19:53:03:561
-9,599858	-1,731890	1,006811	2020-10-29T19:53:03:585
-9,624266	-1,641075	0,922369	2020-10-29T19:53:03:601
-9,646562	-1,553460	0,837254	2020-10-29T19:53:03:624
-9,667262	-1,459896	0,763632	2020-10-29T19:53:03:642
-9,687889	-1,353167	0,695797	2020-10-29T19:53:03:665
-9,716213	-1,190746	0,589668	2020-10-29T19:53:03:681
-9,743621	-1,003146	0,475330	2020-10-29T19:53:03:704
-9,769809	-0,777956	0,340605	2020-10-29T19:53:03:721
-9,791188	-0,517275	0,188287	2020-10-29T19:53:03:746
-9,739145	-1,118041	0,263463	2020-10-29T19:53:03:762
-9,745868	-1,074911	0,181709	2020-10-29T19:53:03:785
-9,763537	-0,914764	0,083251	2020-10-29T19:53:03:801
-9,775856	-0,776528	-0,005011	2020-10-29T19:53:03:825
-9,788146	-0,601430	-0,029360	2020-10-29T19:53:03:841
-8,309240	-2,408201	4,618167	2020-10-29T19:53:03:865
-8,632400	-1,653635	4,349432	2020-10-29T19:53:03:882
-8,705235	-1,541853	4,244050	2020-10-29T19:53:03:906
-8,795195	-1,434496	4,093551	2020-10-29T19:53:03:921
-8,899007	-1,352902	3,892008	2020-10-29T19:53:03:945
-8,989980	-1,268754	3,706874	2020-10-29T19:53:03:961
-8,445436	-1,826664	4,637704	2020-10-29T19:53:03:986
-8,683657	-1,970932	4,108517	2020-10-29T19:53:04:003
-8,721910	-1,899642	4,060791	2020-10-29T19:53:04:025
-8,740907	-1,850596	4,042552	2020-10-29T19:53:04:042
-9,385781	-2,023145	1,996088	2020-10-29T19:53:04:067
-9,428076	-2,425670	1,182323	2020-10-29T19:53:04:082
-9,375499	-2,553253	1,323367	2020-10-29T19:53:04:105
-9,297224	-2,739146	1,493013	2020-10-29T19:53:04:122
-9,186238	-2,988137	1,689514	2020-10-29T19:53:04:146
-9,059185	-3,281476	1,825777	2020-10-29T19:53:04:162
-8,894078	-3,640345	1,952858	2020-10-29T19:53:04:185
-8,706899	-4,008620	2,071539	2020-10-29T19:53:04:202
-8,485193	-4,409620	2,174198	2020-10-29T19:53:04:226
-8,212220	-4,849894	2,282183	2020-10-29T19:53:04:245
-7,938085	-5,250047	2,365206	2020-10-29T19:53:04:265
-7,671909	-5,600524	2,438507	2020-10-29T19:53:04:282
-7,440085	-5,874361	2,511453	2020-10-29T19:53:04:306
-7,244182	-6,080409	2,592459	2020-10-29T19:53:04:322
-7,086075	-6,222075	2,691413	2020-10-29T19:53:04:345
-7,019230	-6,277059	2,738491	2020-10-29T19:53:04:362
-6,972177	-6,302807	2,798886	2020-10-29T19:53:04:386
-6,855601	-6,392450	2,882309	2020-10-29T19:53:04:402
-6,716624	-6,509489	2,946846	2020-10-29T19:53:04:425
-6,545097	-6,664878	2,985212	2020-10-29T19:53:04:443
-6,346224	-6,845552	3,005702	2020-10-29T19:53:04:466
-6,133461	-7,044528	2,987586	2020-10-29T19:53:04:483
-5,949256	-7,213543	2,956608	2020-10-29T19:53:04:505
-5,812537	-7,326715	2,950262	2020-10-29T19:53:04:522
-5,728531	-7,370232	3,005661	2020-10-29T19:53:04:547
-5,708665	-7,336788	3,122991	2020-10-29T19:53:04:562
-5,752814	-7,236955	3,271391	2020-10-29T19:53:04:585
-5,846455	-7,105712	3,390901	2020-10-29T19:53:04:602
-5,978089	-6,967836	3,447042	2020-10-29T19:53:04:626
-6,139481	-6,837662	3,423965	2020-10-29T19:53:04:643
-6,429696	-6,585643	3,385071	2020-10-29T19:53:04:665
-6,647678	-6,430343	3,260284	2020-10-29T19:53:04:683
-6,870513	-6,284517	3,077544	2020-10-29T19:53:04:707
-7,119927	-6,102208	2,870554	2020-10-29T19:53:04:724
-7,432297	-5,804202	2,691206	2020-10-29T19:53:04:745
-7,762675	-5,432440	2,529794	2020-10-29T19:53:04:762
-8,820787	-2,824395	3,222870	2020-10-29T19:53:04:788
-8,818751	-2,773959	3,271875	2020-10-29T19:53:04:803
-9,044527	-2,427966	2,910653	2020-10-29T19:53:04:825
-9,240458	-2,073875	2,546243	2020-10-29T19:53:04:843
-9,397748	-1,727370	2,206560	2020-10-29T19:53:04:867
-9,521934	-1,382872	1,894951	2020-10-29T19:53:04:883
-9,612850	-1,061355	1,623888	2020-10-29T19:53:04:905
-9,674438	-0,782157	1,401383	2020-10-29T19:53:04:923
-9,715448	-0,545646	1,217667	2020-10-29T19:53:04:947
-9,736835	-0,392854	1,100038	2020-10-29T19:53:04:964
-9,737538	-0,389661	1,094941	2020-10-29T19:53:04:986
-9,740562	-0,384067	1,069731	2020-10-29T19:53:05:003
-9,319029	-1,994217	2,312831	2020-10-29T19:53:05:027
-9,524301	-1,006755	2,108205	2020-10-29T19:53:05:043
-9,548557	-1,035247	1,980835	2020-10-29T19:53:05:066
-9,558269	-1,108480	1,892397	2020-10-29T19:53:05:083
-9,544117	-1,286555	1,850673	2020-10-29T19:53:05:107
-9,511799	-1,497596	1,858297	2020-10-29T19:53:05:122
-9,457579	-1,747443	1,915995	2020-10-29T19:53:05:146
-9,375494	-2,034809	2,032251	2020-10-29T19:53:05:163
-9,263745	-2,355508	2,192031	2020-10-29T19:53:05:187
-9,130469	-2,673702	2,378284	2020-10-29T19:53:05:204
-8,972251	-2,989596	2,594498	2020-10-29T19:53:05:226
-8,798533	-3,281460	2,826341	2020-10-29T19:53:05:243
-8,634836	-3,511431	3,046284	2020-10-29T19:53:05:267
-8,472099	-3,694758	3,277603	2020-10-29T19:53:05:287
-8,320357	-3,822206	3,511806	2020-10-29T19:53:05:306
-8,174498	-3,911138	3,748462	2020-10-29T19:53:05:323
-8,062448	-3,916411	3,978574	2020-10-29T19:53:05:347
-8,016580	-3,829329	4,152237	2020-10-29T19:53:05:363
-8,031512	-3,692591	4,246171	2020-10-29T19:53:05:387
-8,120716	-3,460565	4,271867	2020-10-29T19:53:05:403
-9,545646	-1,977910	1,067193	2020-10-29T19:53:05:428
-9,499570	-2,022815	1,355278	2020-10-29T19:53:05:446
-9,553763	-1,779066	1,315641	2020-10-29T19:53:05:466
-9,571653	-1,683552	1,311294	2020-10-29T19:53:05:483
-9,566885	-1,719404	1,299515	2020-10-29T19:53:05:507
-9,543613	-1,860039	1,276745	2020-10-29T19:53:05:524
-9,154254	-2,376554	2,592685	2020-10-29T19:53:05:547
-8,505197	-3,646650	3,245606	2020-10-29T19:53:05:563
-8,410361	-3,804872	3,310461	2020-10-29T19:53:05:588
-8,293917	-3,955026	3,426236	2020-10-29T19:53:05:603
-8,282897	-4,671187	2,396666	2020-10-29T19:53:05:627
-8,921041	-3,739358	1,613266	2020-10-29T19:53:05:644
-8,850038	-3,819181	1,805844	2020-10-29T19:53:05:668
-8,777683	-3,884742	2,007843	2020-10-29T19:53:05:685
-8,713539	-3,911186	2,224239	2020-10-29T19:53:05:706
-8,652304	-3,924480	2,430327	2020-10-29T19:53:05:723
-8,597553	-3,933714	2,603529	2020-10-29T19:53:05:748
-8,547630	-3,968186	2,713283	2020-10-29T19:53:05:764
-9,724689	-0,906246	0,882901	2020-10-29T19:53:05:787
-9,586662	-1,658234	1,231482	2020-10-29T19:53:05:804
-9,552470	-1,799966	1,296468	2020-10-29T19:53:05:828
-9,519650	-1,930919	1,348407	2020-10-29T19:53:05:844
-9,491583	-2,037017	1,389535	2020-10-29T19:53:05:868
-9,472070	-2,109262	1,414669	2020-10-29T19:53:05:884
-9,471087	-2,119862	1,405377	2020-10-29T19:53:05:908
-9,495374	-2,041730	1,356317	2020-10-29T19:53:05:925
-9,536051	-1,887077	1,293471	2020-10-29T19:53:05:947
-9,597642	-1,599289	1,223895	2020-10-29T19:53:05:964
-9,657928	-1,261312	1,141879	2020-10-29T19:53:05:988
-9,703047	-0,967749	1,041505	2020-10-29T19:53:06:004
-9,741677	-0,692375	0,889225	2020-10-29T19:53:06:026
-9,768511	-0,439380	0,743988	2020-10-29T19:53:06:044
-9,784534	-0,221868	0,619729	2020-10-29T19:53:06:068
-9,793242	-0,028150	0,511873	2020-10-29T19:53:06:084
-9,796483	0,129775	0,427153	2020-10-29T19:53:06:107
-9,796634	0,261728	0,357555	2020-10-29T19:53:06:124
-9,795189	0,364024	0,303566	2020-10-29T19:53:06:148
-9,793566	0,430229	0,267129	2020-10-29T19:53:06:165
-9,792394	0,474806	0,232333	2020-10-29T19:53:06:187
-9,794426	0,436972	0,220596	2020-10-29T19:53:06:204
-9,796093	0,410810	0,195390	2020-10-29T19:53:06:228
-9,797122	0,403350	0,155233	2020-10-29T19:53:06:245
-9,796959	0,423959	0,101233	2020-10-29T19:53:06:267
-9,794989	0,477125	0,030695	2020-10-29T19:53:06:284
-9,792048	0,533772	-0,035859	2020-10-29T19:53:06:308
-9,784734	0,644636	-0,117515	2020-10-29T19:53:06:324
-9,635315	1,782897	-0,390331	2020-10-29T19:53:06:347
-9,674351	1,558742	-0,384258	2020-10-29T19:53:06:364
-9,713171	1,298778	-0,371308	2020-10-29T19:53:06:388
-9,743866	1,047856	-0,359795	2020-10-29T19:53:06:405
-8,611944	-3,384641	3,247923	2020-10-29T19:53:06:428
-8,728664	-3,131056	3,190186	2020-10-29T19:53:06:444
-8,793973	-3,047990	3,089691	2020-10-29T19:53:06:468
-8,858425	-2,952487	2,996915	2020-10-29T19:53:06:484
-8,920215	-2,864799	2,897082	2020-10-29T19:53:06:507
-8,977078	-2,770984	2,811424	2020-10-29T19:53:06:524
-9,030299	-2,674152	2,733678	2020-10-29T19:53:06:548
-9,076767	-2,583610	2,666017	2020-10-29T19:53:06:564
-9,107812	-2,507598	2,632509	2020-10-29T19:53:06:588
-9,112105	-2,466048	2,656790	2020-10-29T19:53:06:604
-9,091305	-2,460799	2,731853	2020-10-29T19:53:06:628
-9,034344	-2,508542	2,873713	2020-10-29T19:53:06:646
-8,938577	-2,606203	3,078951	2020-10-29T19:53:06:667
-8,819963	-2,732925	3,302994	2020-10-29T19:53:06:684
-8,697572	-2,855269	3,517110	2020-10-29T19:53:06:708
-8,567534	-2,980351	3,726290	2020-10-29T19:53:06:724
-9,208985	-2,858366	1,787376	2020-10-29T19:53:06:748
-9,181710	-2,904730	1,851790	2020-10-29T19:53:06:764
-9,057169	-3,100670	2,126952	2020-10-29T19:53:06:788
-8,925684	-3,293447	2,378184	2020-10-29T19:53:06:804
-8,782222	-3,485826	2,625257	2020-10-29T19:53:06:827
-8,632176	-3,667178	2,864913	2020-10-29T19:53:06:844
-9,524630	-2,245038	0,641575	2020-10-29T19:53:06:869
-9,585784	-2,026340	0,420812	2020-10-29T19:53:06:886
-9,391173	-2,742827	0,673166	2020-10-29T19:53:06:907
-9,149695	-3,415467	0,887721	2020-10-29T19:53:06:924
-8,863461	-4,060108	1,060642	2020-10-29T19:53:06:949
-8,587435	-4,591999	1,157539	2020-10-29T19:53:06:964
-9,383376	-2,836860	0,273622	2020-10-29T19:53:06:988
-9,325181	-3,016612	0,333825	2020-10-29T19:53:07:005
-9,058540	-3,729170	0,454456	2020-10-29T19:53:07:029
-8,838968	-4,211410	0,554129	2020-10-29T19:53:07:045
-8,708445	-4,463246	0,642504	2020-10-29T19:53:07:068
-8,633764	-4,594471	0,720653	2020-10-29T19:53:07:085
-9,428582	-2,499212	1,012998	2020-10-29T19:53:07:109
-9,465583	-2,196146	1,322901	2020-10-29T19:53:07:125
-9,432760	-2,306684	1,368440	2020-10-29T19:53:07:148
-9,413520	-2,372158	1,388848	2020-10-29T19:53:07:164
-9,487668	-1,392733	2,053007	2020-10-29T19:53:07:190
-9,487350	-1,335942	2,091845	2020-10-29T19:53:07:205
-9,592084	-0,890813	1,835421	2020-10-29T19:53:07:228
-9,606121	-0,757421	1,821850	2020-10-29T19:53:07:246
-9,619461	-1,267665	1,424563	2020-10-29T19:53:07:269
-9,635262	-1,564366	0,940678	2020-10-29T19:53:07:285
-9,698941	-1,249514	0,734595	2020-10-29T19:53:07:308
-9,739783	-0,985995	0,578644	2020-10-29T19:53:07:325
-9,762727	-0,793751	0,479070	2020-10-29T19:53:07:349
-9,781647	-0,583291	0,386698	2020-10-29T19:53:07:366
-8,513195	-3,973820	2,811520	2020-10-29T19:53:07:389
-8,924948	-3,659106	1,768227	2020-10-29T19:53:07:405
-9,104833	-3,262499	1,621265	2020-10-29T19:53:07:429
-9,262408	-2,870341	1,462641	2020-10-29T19:53:07:445
-9,384498	-2,549797	1,264960	2020-10-29T19:53:07:468
-9,482177	-2,275612	1,039374	2020-10-29T19:53:07:485
-8,459385	-3,870809	-3,102585	2020-10-29T19:53:07:510
-9,789776	-0,551739	0,162035	2020-10-29T19:53:07:525
-9,795277	-0,464375	0,085361	2020-10-29T19:53:07:548
-9,767821	-0,871353	0,028051	2020-10-29T19:53:07:565
-8,670671	-4,466982	-1,017803	2020-10-29T19:53:07:590
-8,967281	-3,890566	-0,788506	2020-10-29T19:53:07:606
-9,058740	-3,662242	-0,835224	2020-10-29T19:53:07:628
-9,093358	-3,567699	-0,867610	2020-10-29T19:53:07:645
-9,151505	-3,503320	-0,383526	2020-10-29T19:53:07:670
-9,274428	-3,152066	-0,468885	2020-10-29T19:53:07:685
-9,192842	-3,370535	-0,549107	2020-10-29T19:53:07:708
-9,112223	-3,566535	-0,646222	2020-10-29T19:53:07:725
-9,023582	-3,766144	-0,749341	2020-10-29T19:53:07:749
-8,916533	-3,997201	-0,829586	2020-10-29T19:53:07:765
-8,792086	-4,252309	-0,887403	2020-10-29T19:53:07:789
-8,675067	-4,480484	-0,915890	2020-10-29T19:53:07:805
-8,566446	-4,685197	-0,913954	2020-10-29T19:53:07:829
-8,444017	-4,908580	-0,880224	2020-10-29T19:53:07:846
-8,291902	-5,171881	-0,816335	2020-10-29T19:53:07:868
-7,903718	-5,774422	-0,598054	2020-10-29T19:53:07:886
-8,446191	-3,189887	3,828428	2020-10-29T19:53:07:910
-8,769660	-2,183944	3,807077	2020-10-29T19:53:07:925
-8,737379	-2,171738	3,887434	2020-10-29T19:53:07:949
-8,690253	-2,159368	3,998376	2020-10-29T19:53:07:965
-8,621960	-2,181641	4,131904	2020-10-29T19:53:07:990
-8,525496	-2,245541	4,294631	2020-10-29T19:53:08:006
-9,130718	-2,172237	2,842843	2020-10-29T19:53:08:029
-9,216518	-1,841631	2,799029	2020-10-29T19:53:08:046
-9,067242	-2,018966	3,143134	2020-10-29T19:53:08:070
-8,887712	-2,183128	3,523194	2020-10-29T19:53:08:087
-8,689801	-2,316293	3,910567	2020-10-29T19:53:08:109
-8,477215	-2,410975	4,300513	2020-10-29T19:53:08:126
-8,263676	-2,480498	4,661457	2020-10-29T19:53:08:150
-8,051939	-2,496035	5,010636	2020-10-29T19:53:08:166
-7,852003	-2,501197	5,316055	2020-10-29T19:53:08:189
-7,695526	-2,529422	5,527323	2020-10-29T19:53:08:206
-7,664250	-2,618769	5,529169	2020-10-29T19:53:08:230
-7,660527	-2,738434	5,476101	2020-10-29T19:53:08:246
-9,551106	-2,222827	0,076040	2020-10-29T19:53:08:269
-9,377504	-2,865079	-0,155289	2020-10-29T19:53:08:285
-7,206842	-6,649695	-0,115601	2020-10-29T19:53:08:310
-6,659540	-7,198556	-0,041163	2020-10-29T19:53:08:327
-6,627596	-7,227970	-0,042466	2020-10-29T19:53:08:349
-6,565856	-7,283854	-0,073502	2020-10-29T19:53:08:366
-6,464472	-7,373621	-0,103389	2020-10-29T19:53:08:391
-6,331010	-7,488703	-0,089573	2020-10-29T19:53:08:406
-6,204809	-7,593674	-0,082701	2020-10-29T19:53:08:429
-6,054123	-7,713502	-0,140928	2020-10-29T19:53:08:446
-5,880146	-7,845769	-0,195369	2020-10-29T19:53:08:470
-5,690450	-7,983590	-0,226833	2020-10-29T19:53:08:486
-5,507175	-8,111650	-0,206252	2020-10-29T19:53:08:509
-5,442464	-8,157454	-0,076989	2020-10-29T19:53:08:526
-6,562749	-7,285065	0,168912	2020-10-29T19:53:08:550
-8,146655	-5,453348	0,251772	2020-10-29T19:53:08:568
-8,975747	-3,945298	0,202423	2020-10-29T19:53:08:589
-9,353343	-2,943635	0,142750	2020-10-29T19:53:08:606
-9,409201	0,453283	2,726145	2020-10-29T19:53:08:631
-8,995074	-0,681350	3,846399	2020-10-29T19:53:08:646
-9,187744	-0,572366	3,380552	2020-10-29T19:53:08:669
-9,370675	-0,411168	2,862128	2020-10-29T19:53:08:687
-9,544142	-0,220413	2,243025	2020-10-29T19:53:08:711
-9,675552	-0,054378	1,597220	2020-10-29T19:53:08:726
-9,772187	0,123391	0,812102	2020-10-29T19:53:08:750
-9,802289	0,279874	-0,084735	2020-10-29T19:53:08:766
-9,743761	0,411995	-1,029448	2020-10-29T19:53:08:791
-9,675335	0,503450	-1,518160	2020-10-29T19:53:08:808
-9,635263	0,589513	-1,727588	2020-10-29T19:53:08:829
-9,653610	0,671130	-1,589898	2020-10-29T19:53:08:846
-9,601985	-0,838166	1,808246	2020-10-29T19:53:08:872
-9,502359	-1,552704	1,861360	2020-10-29T19:53:08:887
-9,554079	-1,474199	1,648239	2020-10-29T19:53:08:909
-9,598731	-1,389910	1,450135	2020-10-29T19:53:08:927
-9,633829	-1,321244	1,270443	2020-10-29T19:53:08:951
-9,655806	-1,283798	1,134757	2020-10-29T19:53:08:967
-9,659396	-1,324280	1,054864	2020-10-29T19:53:08:990
-9,656893	-1,379574	1,005771	2020-10-29T19:53:09:007
-9,653481	-1,426299	0,972809	2020-10-29T19:53:09:031
-8,052056	-4,548828	3,262352	2020-10-29T19:53:09:050
-8,008076	-4,553319	3,362795	2020-10-29T19:53:09:070
-8,122854	-4,418953	3,265345	2020-10-29T19:53:09:087
-8,386009	-3,908891	3,250507	2020-10-29T19:53:09:112
-8,473350	-3,786590	3,167722	2020-10-29T19:53:09:127
-8,558120	-3,649650	3,099844	2020-10-29T19:53:09:150
-8,626245	-3,529448	3,049800	2020-10-29T19:53:09:167
-8,679627	-3,422649	3,019920	2020-10-29T19:53:09:191
-8,718490	-3,342842	2,997288	2020-10-29T19:53:09:207
-8,752494	-3,284444	2,962545	2020-10-29T19:53:09:230
-8,768439	-3,253692	2,949296	2020-10-29T19:53:09:247
-8,765219	-3,250554	2,962301	2020-10-29T19:53:09:271
-8,747415	-3,283971	2,978028	2020-10-29T19:53:09:288
-8,702001	-3,373673	3,010631	2020-10-29T19:53:09:310
-8,658309	-3,502599	2,989294	2020-10-29T19:53:09:327
-9,435291	-2,527724	0,869638	2020-10-29T19:53:09:353
-9,209249	-3,167483	1,152022	2020-10-29T19:53:09:367
-9,116155	-3,506019	0,879734	2020-10-29T19:53:09:391
-8,764977	-4,234499	1,189364	2020-10-29T19:53:09:407
-8,663590	-4,389343	1,358767	2020-10-29T19:53:09:431
-8,594603	-4,437097	1,617208	2020-10-29T19:53:09:447
-8,486742	-4,543729	1,870860	2020-10-29T19:53:09:470
-8,344529	-4,695658	2,118966	2020-10-29T19:53:09:488
-9,542176	-1,785734	1,388673	2020-10-29T19:53:09:512
-9,434448	-2,084817	1,677831	2020-10-29T19:53:09:529
-9,308532	-2,392378	1,948885	2020-10-29T19:53:09:551
-9,597438	-1,999466	0,248419	2020-10-29T19:53:09:567
-9,349709	-2,923898	0,451825	2020-10-29T19:53:09:591
-9,077652	-3,662609	0,593226	2020-10-29T19:53:09:607
-9,582590	-2,070404	-0,240370	2020-10-29T19:53:09:631
-9,566389	-2,150377	-0,174551	2020-10-29T19:53:09:647
-8,293302	-5,231273	-0,159125	2020-10-29T19:53:09:672
-7,041038	-6,825229	-0,102060	2020-10-29T19:53:09:687
-6,605688	-7,248077	-0,025487	2020-10-29T19:53:09:710
-9,668618	-1,413084	0,831503	2020-10-29T19:53:09:728
-9,619118	-1,646299	0,965739	2020-10-29T19:53:09:752
-9,570486	-1,846638	1,079862	2020-10-29T19:53:09:769
-9,519489	-2,034932	1,186908	2020-10-29T19:53:09:791
-8,912551	-3,035053	2,743221	2020-10-29T19:53:09:807
-8,887208	-3,076107	2,779476	2020-10-29T19:53:09:832
-8,903380	-3,044616	2,762339	2020-10-29T19:53:09:848
-8,985421	-2,901327	2,648563	2020-10-29T19:53:09:870
-9,083255	-2,714265	2,509507	2020-10-29T19:53:09:888
-9,535232	-1,381353	1,828005	2020-10-29T19:53:09:912
-9,234776	-1,633472	2,867240	2020-10-29T19:53:09:927
-9,393137	-1,316828	2,491048	2020-10-29T19:53:09:951
-9,511889	-1,012492	2,160839	2020-10-29T19:53:09:968
-9,613680	-0,671596	1,815626	2020-10-29T19:53:09:992
-9,690886	-0,333152	1,464970	2020-10-29T19:53:10:008
-9,755362	0,081178	0,998352	2020-10-29T19:53:10:030
-9,781577	0,483361	0,507445	2020-10-29T19:53:10:048
-9,769215	0,856048	0,003317	2020-10-29T19:53:10:073
-9,719957	1,201442	-0,499356	2020-10-29T19:53:10:088
-9,647697	1,499021	-0,919378	2020-10-29T19:53:10:110
-9,571815	1,756292	-1,210865	2020-10-29T19:53:10:128
-9,511674	1,978617	-1,335482	2020-10-29T19:53:10:152
-9,504513	2,083734	-1,221750	2020-10-29T19:53:10:168
-9,518002	2,128499	-1,023483	2020-10-29T19:53:10:191
-9,541271	2,112578	-0,819474	2020-10-29T19:53:10:208
-9,572495	2,039232	-0,615846	2020-10-29T19:53:10:232
-9,581332	2,028707	-0,502790	2020-10-29T19:53:10:249
-9,592163	1,996130	-0,419826	2020-10-29T19:53:10:271
-9,602036	1,958129	-0,370168	2020-10-29T19:53:10:288
-8,766308	-3,880146	2,065598	2020-10-29T19:53:10:313
-8,654110	-4,089940	2,132876	2020-10-29T19:53:10:328
-8,701045	-4,033667	2,047372	2020-10-29T19:53:10:351
-8,744167	-3,964088	1,998984	2020-10-29T19:53:10:368
-8,799776	-3,867016	1,944356	2020-10-29T19:53:10:393
-8,841931	-3,771283	1,941151	2020-10-29T19:53:10:408
-8,878975	-3,684058	1,939564	2020-10-29T19:53:10:431
-8,913078	-3,604130	1,933305	2020-10-29T19:53:10:449
-8,941031	-3,534538	1,932716	2020-10-29T19:53:10:472
-8,980249	-3,442967	1,916111	2020-10-29T19:53:10:490
-9,008886	-3,368668	1,913748	2020-10-29T19:53:10:511
-9,034822	-3,287264	1,932941	2020-10-29T19:53:10:530
-9,040872	-3,234772	1,992306	2020-10-29T19:53:10:552
-9,015171	-3,209857	2,143336	2020-10-29T19:53:10:570
-8,728011	-2,542852	3,677786	2020-10-29T19:53:10:594
-8,718135	-2,957654	3,378875	2020-10-29T19:53:10:610
-8,612876	-3,025333	3,582752	2020-10-29T19:53:10:632
-8,453414	-3,110458	3,877528	2020-10-29T19:53:10:650
-8,287033	-3,171830	4,175519	2020-10-29T19:53:10:671
-8,074214	-3,214823	4,543386	2020-10-29T19:53:10:689
-9,574409	-1,740274	1,213475	2020-10-29T19:53:10:713
-9,616517	-1,626657	1,023220	2020-10-29T19:53:10:731
-9,534714	-1,872866	1,323629	2020-10-29T19:53:10:752
-9,436714	-2,099264	1,646783	2020-10-29T19:53:10:769
-9,336509	-2,288250	1,940077	2020-10-29T19:53:10:793
-9,222853	-2,481144	2,225602	2020-10-29T19:53:10:809
-9,109079	-2,670040	2,462912	2020-10-29T19:53:10:832
-8,980141	-2,883569	2,685607	2020-10-29T19:53:10:850
-9,573195	-2,069919	0,489652	2020-10-29T19:53:10:873
-9,504947	-2,379316	0,406475	2020-10-29T19:53:10:889
-9,320124	-2,991286	0,598242	2020-10-29T19:53:10:912
-9,149152	-3,440697	0,790575	2020-10-29T19:53:10:929
-9,021283	-3,714415	0,994964	2020-10-29T19:53:10:953
-8,911789	-3,912778	1,200238	2020-10-29T19:53:10:971
-8,825371	-4,035880	1,412409	2020-10-29T19:53:10:992
-8,749753	-4,120748	1,622233	2020-10-29T19:53:11:009
-8,673082	-4,199648	1,819611	2020-10-29T19:53:11:033
-8,589635	-4,284584	2,007711	2020-10-29T19:53:11:049
-8,511471	-4,363419	2,164675	2020-10-29T19:53:11:072
-8,427669	-4,454398	2,302853	2020-10-29T19:53:11:089
-8,344395	-4,548873	2,418517	2020-10-29T19:53:11:113
-8,267664	-4,632814	2,520543	2020-10-29T19:53:11:129
-8,208563	-4,689631	2,607151	2020-10-29T19:53:11:152
-8,169426	-4,719586	2,675140	2020-10-29T19:53:11:169
-8,932588	-1,668428	3,687222	2020-10-29T19:53:11:194
-9,227788	-1,131920	3,120427	2020-10-29T19:53:11:210
-9,241332	-1,148184	3,074060	2020-10-29T19:53:11:232
-9,283186	-1,127287	2,953316	2020-10-29T19:53:11:249
-9,356427	-1,058877	2,739787	2020-10-29T19:53:11:273
-9,444787	-0,968263	2,455371	2020-10-29T19:53:11:289
-9,514358	-0,881061	2,207062	2020-10-29T19:53:11:312
-9,596114	-0,729314	1,884959	2020-10-29T19:53:11:329
-9,667025	-0,567356	1,548264	2020-10-29T19:53:11:353
-9,723376	-0,410646	1,207358	2020-10-29T19:53:11:369
-8,523316	-2,295242	4,272626	2020-10-29T19:53:11:394
-8,713329	-1,956152	4,052374	2020-10-29T19:53:11:410
-8,893573	-1,741257	3,747369	2020-10-29T19:53:11:433
-9,058415	-1,525383	3,433469	2020-10-29T19:53:11:451
-9,200729	-1,328836	3,122684	2020-10-29T19:53:11:472
-9,334882	-1,138478	2,781050	2020-10-29T19:53:11:489
-9,448647	-0,974521	2,437986	2020-10-29T19:53:11:513
-9,545024	-0,832117	2,090571	2020-10-29T19:53:11:529
-9,618390	-0,719951	1,771616	2020-10-29T19:53:11:552
-9,667148	-0,645867	1,516411	2020-10-29T19:53:11:570
-9,186193	-2,426942	2,427798	2020-10-29T19:53:11:594
-8,975189	-2,974371	2,601823	2020-10-29T19:53:11:609
-9,050116	-2,941803	2,368880	2020-10-29T19:53:11:632
-9,116649	-2,891149	2,167572	2020-10-29T19:53:11:650
-9,178470	-2,813058	2,003195	2020-10-29T19:53:11:673
-9,242449	-2,702531	1,855761	2020-10-29T19:53:11:691
-9,301982	-2,574708	1,736204	2020-10-29T19:53:11:713
-9,347151	-2,456070	1,663993	2020-10-29T19:53:11:730
-9,384630	-2,344552	1,613124	2020-10-29T19:53:11:754
-9,412916	-2,254092	1,576852	2020-10-29T19:53:11:770
-9,432477	-2,185055	1,557015	2020-10-29T19:53:11:793
-9,445924	-2,130816	1,550654	2020-10-29T19:53:11:810
-9,452713	-2,092786	1,561042	2020-10-29T19:53:11:834
-9,454238	-2,063989	1,589880	2020-10-29T19:53:11:850
-9,450620	-2,044282	1,636178	2020-10-29T19:53:11:873
-9,438187	-2,043435	1,707450	2020-10-29T19:53:11:890
-9,421823	-2,051685	1,786124	2020-10-29T19:53:11:914
-9,417588	-2,053418	1,806347	2020-10-29T19:53:11:931
-9,414864	-2,051764	1,822359	2020-10-29T19:53:11:953
-9,407078	-2,048678	1,865526	2020-10-29T19:53:11:969
-9,388968	-2,049641	1,953624	2020-10-29T19:53:11:997
-9,355252	-2,083498	2,075735	2020-10-29T19:53:12:019
-9,294268	-2,195398	2,228722	2020-10-29T19:53:12:033
-9,193195	-2,390102	2,437817	2020-10-29T19:53:12:050
-9,087258	-2,589176	2,624553	2020-10-29T19:53:12:074
-8,978326	-2,772509	2,805929	2020-10-29T19:53:12:091
-8,860783	-2,936659	3,005486	2020-10-29T19:53:12:113
-8,738042	-3,060754	3,232459	2020-10-29T19:53:12:130
-9,308154	-2,870110	1,136275	2020-10-29T19:53:12:155
-9,407354	-2,712061	0,562848	2020-10-29T19:53:12:171
-9,270148	-3,092811	0,818084	2020-10-29T19:53:12:193
-9,139711	-3,398178	1,043284	2020-10-29T19:53:12:210
-8,998764	-3,696850	1,235287	2020-10-29T19:53:12:234
-8,838469	-4,018889	1,378546	2020-10-29T19:53:12:250
-8,678368	-4,326897	1,460920	2020-10-29T19:53:12:273
-8,533299	-4,590625	1,509748	2020-10-29T19:53:12:290
-8,438847	-4,750146	1,546728	2020-10-29T19:53:12:314
-8,360448	-4,878706	1,572106	2020-10-29T19:53:12:330
-8,266006	-5,035306	1,577722	2020-10-29T19:53:12:353
-8,137885	-5,269053	1,477259	2020-10-29T19:53:12:371
-8,030004	-5,178365	2,207706	2020-10-29T19:53:12:394
-8,385031	-4,625416	2,113571	2020-10-29T19:53:12:477
-8,465446	-4,473729	2,119519	2020-10-29T19:53:12:886
-8,359118	-4,638387	2,186523	2020-10-29T19:53:12:886
-8,388715	-4,546973	2,263822	2020-10-29T19:53:12:887
-8,269312	-4,807857	2,161799	2020-10-29T19:53:12:888
-8,126919	-5,117622	1,983311	2020-10-29T19:53:12:888
-7,955478	-5,428473	1,847275	2020-10-29T19:53:12:889
-7,605032	-5,950685	1,709743	2020-10-29T19:53:12:890
-7,213497	-6,448082	1,599403	2020-10-29T19:53:12:891
-6,944277	-6,752178	1,534760	2020-10-29T19:53:12:892
-6,998174	-6,674647	1,626355	2020-10-29T19:53:12:893
-7,067452	-6,589393	1,673743	2020-10-29T19:53:12:922
-9,224626	-0,597114	3,274161	2020-10-29T19:53:12:924
-9,040442	0,347967	3,784137	2020-10-29T19:53:12:924
-8,551932	0,561598	4,766491	2020-10-29T19:53:12:958
-8,127357	0,721701	5,440183	2020-10-29T19:53:12:969
-7,909605	0,895722	5,727672	2020-10-29T19:53:12:970
-7,750157	1,117754	5,903903	2020-10-29T19:53:12:971
-7,206766	-3,380840	5,727375	2020-10-29T19:53:12:971
-6,080160	-7,080773	3,010762	2020-10-29T19:53:12:972
-5,462564	-7,816657	2,287065	2020-10-29T19:53:12:972
-5,156456	-8,095864	2,009560	2020-10-29T19:53:12:973
-5,324628	-7,936216	2,198907	2020-10-29T19:53:12:973
-9,412545	-1,352495	2,396903	2020-10-29T19:53:12:973
-9,596981	-1,201714	1,619944	2020-10-29T19:53:12:975
-9,537846	-1,848794	1,334859	2020-10-29T19:53:12:976
-9,548976	-1,839736	1,266025	2020-10-29T19:53:12:976
-9,587510	-1,640958	1,247916	2020-10-29T19:53:13:017
-9,613635	-1,523646	1,194534	2020-10-29T19:53:13:068
-9,638196	-1,429073	1,110547	2020-10-29T19:53:13:069
-9,663298	-1,330454	1,010421	2020-10-29T19:53:13:069
-9,688820	-1,215852	0,904904	2020-10-29T19:53:13:071
-9,712167	-1,092359	0,806810	2020-10-29T19:53:13:071
-9,728789	-0,992169	0,732565	2020-10-29T19:53:13:072
-9,741002	-0,915862	0,666673	2020-10-29T19:53:13:105
-9,301989	-2,561985	1,754887	2020-10-29T19:53:13:114
-9,254991	-2,570685	1,976641	2020-10-29T19:53:13:140
-9,295959	-2,510060	1,858800	2020-10-29T19:53:13:159
-9,321630	-2,490849	1,753072	2020-10-29T19:53:13:173
-9,336327	-2,497062	1,663752	2020-10-29T19:53:13:205
-8,387424	-3,852014	3,314134	2020-10-29T19:53:13:242
-8,119240	-4,078871	3,689328	2020-10-29T19:53:13:243
-8,168127	-4,057209	3,604323	2020-10-29T19:53:13:258
-8,203810	-4,007110	3,579241	2020-10-29T19:53:13:290
-8,219999	-3,941218	3,615079	2020-10-29T19:53:13:291
-8,205548	-3,838903	3,755286	2020-10-29T19:53:13:338
-8,132812	-3,688477	4,052518	2020-10-29T19:53:13:357
-8,033556	-3,322561	4,537945	2020-10-29T19:53:13:358
-7,872770	-2,834937	5,114002	2020-10-29T19:53:13:376
-7,651129	-2,431135	5,632068	2020-10-29T19:53:13:531
-7,463114	-2,033354	6,028083	2020-10-29T19:53:13:531
-7,419479	-1,895496	6,126076	2020-10-29T19:53:13:599
-7,536299	-1,983179	5,953283	2020-10-29T19:53:13:600
-7,724981	-2,129718	5,653260	2020-10-29T19:53:13:600
-7,818654	-2,224915	5,485325	2020-10-29T19:53:13:600
-9,406712	-1,966634	1,953592	2020-10-29T19:53:13:607
-9,188615	-3,075583	1,510144	2020-10-29T19:53:13:607
-9,092221	-3,319904	1,574842	2020-10-29T19:53:13:608
-8,981719	-3,578375	1,641444	2020-10-29T19:53:13:609
-8,873857	-3,821026	1,680714	2020-10-29T19:53:13:609
-8,784431	-4,009081	1,712139	2020-10-29T19:53:13:610
-8,708435	-4,154519	1,753145	2020-10-29T19:53:13:632
-8,633628	-4,287208	1,802969	2020-10-29T19:53:13:649
-8,527845	-4,479118	1,839494	2020-10-29T19:53:13:673
-8,416069	-4,682465	1,847887	2020-10-29T19:53:13:689
-8,336712	-4,822008	1,848744	2020-10-29T19:53:13:712
-8,308516	-4,877698	1,829485	2020-10-29T19:53:13:729
-8,326006	-4,851246	1,820280	2020-10-29T19:53:13:758
-8,394217	-4,729620	1,827074	2020-10-29T19:53:13:769
-8,480325	-4,567593	1,841622	2020-10-29T19:53:13:797
-8,564202	-4,399026	1,863702	2020-10-29T19:53:13:822
-8,612082	-4,288071	1,901281	2020-10-29T19:53:13:840
-8,649813	-4,203394	1,919010	2020-10-29T19:53:13:860
-8,677203	-4,151134	1,909088	2020-10-29T19:53:13:875
-8,701697	-4,109870	1,886748	2020-10-29T19:53:13:891
-9,496063	-1,865630	1,585748	2020-10-29T19:53:13:914
-9,380509	-2,209299	1,815333	2020-10-29T19:53:13:930
-9,375645	-2,251215	1,788769	2020-10-29T19:53:13:955
-9,374206	-2,274974	1,766112	2020-10-29T19:53:13:972
-9,402650	-2,197947	1,711605	2020-10-29T19:53:13:996
-9,459152	-2,004989	1,635494	2020-10-29T19:53:14:025
-9,524059	0,140820	2,332993	2020-10-29T19:53:14:048
-9,061314	-1,558339	3,410948	2020-10-29T19:53:14:054
-9,170941	-1,379512	3,187659	2020-10-29T19:53:14:076
-9,265851	-1,155553	2,996511	2020-10-29T19:53:14:109
-9,353703	-0,919330	2,798834	2020-10-29T19:53:14:163
-9,424722	-0,726860	2,610878	2020-10-29T19:53:14:164
-9,487850	-0,516021	2,425862	2020-10-29T19:53:14:172
-9,534565	-0,398992	2,259038	2020-10-29T19:53:14:173
-9,564010	-0,341550	2,140897	2020-10-29T19:53:14:196
-9,594084	-0,301348	2,008265	2020-10-29T19:53:14:211
-9,623917	-0,271623	1,864627	2020-10-29T19:53:14:237
-9,630802	-0,303155	1,823767	2020-10-29T19:53:14:250
-9,627609	-0,342226	1,833689	2020-10-29T19:53:14:275
-9,629158	-0,328425	1,828067	2020-10-29T19:53:14:293
-9,635457	-0,269758	1,804322	2020-10-29T19:53:14:315
-9,611608	-0,327289	1,918403	2020-10-29T19:53:14:333
-8,327975	-3,202082	4,069630	2020-10-29T19:53:14:355
-8,261111	-2,209025	4,800484	2020-10-29T19:53:14:372
-8,159504	-2,157058	4,993995	2020-10-29T19:53:14:396
-8,008493	-2,074185	5,266135	2020-10-29T19:53:14:412
-7,841726	-1,928539	5,564032	2020-10-29T19:53:14:434
-7,686713	-1,790174	5,820662	2020-10-29T19:53:14:452
-7,577799	-1,692106	5,990336	2020-10-29T19:53:14:476
-7,496339	-1,617713	6,112143	2020-10-29T19:53:14:492
-7,439440	-1,565111	6,194800	2020-10-29T19:53:14:515
-7,371104	-1,539171	6,282369	2020-10-29T19:53:14:532
-7,303397	-1,529786	6,363217	2020-10-29T19:53:14:556
-7,229057	-1,537062	6,445817	2020-10-29T19:53:14:573
-7,142431	-1,562078	6,535746	2020-10-29T19:53:14:595
-7,051675	-1,604986	6,623314	2020-10-29T19:53:14:612
-9,009333	-1,074828	3,721164	2020-10-29T19:53:14:638
-9,146967	-1,004390	3,390365	2020-10-29T19:53:14:652
-9,010652	-1,206199	3,677449	2020-10-29T19:53:14:675
-8,865068	-1,452631	3,933296	2020-10-29T19:53:14:693
-9,310524	-1,829911	2,477085	2020-10-29T19:53:14:717
-9,292168	-2,089363	2,336787	2020-10-29T19:53:14:732
-9,138274	-2,452942	2,577868	2020-10-29T19:53:14:756
-8,980294	-2,800952	2,771168	2020-10-29T19:53:14:773
-8,825728	-3,132894	2,908931	2020-10-29T19:53:14:797
-8,681491	-3,430285	3,005868	2020-10-29T19:53:14:813
-9,451293	-2,199906	1,415580	2020-10-29T19:53:14:836
-9,461040	-2,101856	1,497102	2020-10-29T19:53:14:852
-9,376652	-2,370614	1,621410	2020-10-29T19:53:14:877
-9,313501	-2,547181	1,714920	2020-10-29T19:53:14:893
-9,272996	-2,646788	1,782257	2020-10-29T19:53:14:915
-9,250524	-2,705627	1,810464	2020-10-29T19:53:14:933
-9,256502	-2,690743	1,802069	2020-10-29T19:53:14:957
-9,289016	-2,611333	1,750859	2020-10-29T19:53:14:972
-9,345791	-2,467973	1,653990	2020-10-29T19:53:14:996
-9,418615	-2,274466	1,512243	2020-10-29T19:53:15:012
-9,505737	-2,019614	1,316244	2020-10-29T19:53:15:036
-9,444852	-2,239322	1,396639	2020-10-29T19:53:15:054
-9,007446	-3,457404	1,755751	2020-10-29T19:53:15:077
-9,179394	-3,097407	1,521572	2020-10-29T19:53:15:093
-9,364734	-2,598810	1,310853	2020-10-29T19:53:15:117
-9,529642	-2,044292	1,084973	2020-10-29T19:53:15:133
-9,652579	-1,522778	0,824158	2020-10-29T19:53:15:157
-9,740711	-0,986132	0,562553	2020-10-29T19:53:15:210
-9,792641	-0,424328	0,307442	2020-10-29T19:53:15:211
-9,805335	0,145262	0,068505	2020-10-29T19:53:15:213
-9,779556	0,714813	-0,140372	2020-10-29T19:53:15:242
-9,332973	2,948126	-0,611999	2020-10-29T19:53:15:253
-9,147443	3,484592	-0,593547	2020-10-29T19:53:15:283
-9,061225	3,718740	-0,485351	2020-10-29T19:53:15:297
-9,083250	3,673142	-0,415914	2020-10-29T19:53:15:316
-9,198019	3,379990	-0,377501	2020-10-29T19:53:15:332
-9,501433	2,407902	-0,308484	2020-10-29T19:53:15:356
-9,778080	0,708470	-0,240020	2020-10-29T19:53:15:374
-9,659475	-1,680413	-0,202837	2020-10-29T19:53:15:398
-9,496234	-2,434405	-0,256123	2020-10-29T19:53:15:413
-9,725066	-1,225975	-0,300761	2020-10-29T19:53:15:437
-9,795244	-0,371899	-0,291991	2020-10-29T19:53:15:453
-9,803031	0,034325	-0,264167	2020-10-29T19:53:15:476
-9,800913	0,238788	-0,235543	2020-10-29T19:53:15:493
-9,795146	0,428273	-0,205144	2020-10-29T19:53:15:516
-9,788196	0,576574	-0,170782	2020-10-29T19:53:15:534
-9,781155	0,693610	-0,135316	2020-10-29T19:53:15:556
-9,775181	0,778212	-0,103009	2020-10-29T19:53:15:573
-9,776223	0,768150	-0,076040	2020-10-29T19:53:15:597
-9,778933	0,735175	-0,048819	2020-10-29T19:53:15:613
-9,782782	0,681954	-0,050041	2020-10-29T19:53:15:636
-9,789721	0,571230	-0,073698	2020-10-29T19:53:15:653
-9,796315	0,440095	-0,094428	2020-10-29T19:53:15:677
-9,801923	0,286219	-0,103818	2020-10-29T19:53:15:694
-9,805486	0,110888	-0,102631	2020-10-29T19:53:15:717
-9,806065	-0,069687	-0,081393	2020-10-29T19:53:15:733
-9,706268	-1,399552	-0,001489	2020-10-29T19:53:15:757
-9,381466	-2,847537	0,223641	2020-10-29T19:53:15:774
-9,618269	-1,879691	0,355036	2020-10-29T19:53:15:796
-9,631726	-1,782115	0,473604	2020-10-29T19:53:15:813
-9,617282	-1,823628	0,593847	2020-10-29T19:53:15:837
-9,593574	-1,900614	0,722082	2020-10-29T19:53:15:853
-9,571692	-1,958266	0,847511	2020-10-29T19:53:15:876
-9,553933	-1,970228	1,005458	2020-10-29T19:53:15:894
-9,540608	-1,961459	1,140112	2020-10-29T19:53:15:917
-9,523743	-1,983087	1,239386	2020-10-29T19:53:15:933
-9,495667	-2,047426	1,345636	2020-10-29T19:53:15:957
-9,455464	-2,165591	1,440412	2020-10-29T19:53:15:973
-9,401998	-2,333265	1,526010	2020-10-29T19:53:15:998
-9,333697	-2,548586	1,599119	2020-10-29T19:53:16:016
-9,255864	-2,785410	1,655556	2020-10-29T19:53:16:036
-9,167298	-3,040330	1,699243	2020-10-29T19:53:16:054
-9,066104	-3,315388	1,727525	2020-10-29T19:53:16:078
-8,959367	-3,585652	1,744484	2020-10-29T19:53:16:094
-8,872747	-3,788250	1,758947	2020-10-29T19:53:16:116
-8,822889	-3,891659	1,783814	2020-10-29T19:53:16:134
-8,782181	-3,963252	1,826562	2020-10-29T19:53:16:157
-8,741426	-4,022894	1,890552	2020-10-29T19:53:16:173
-8,696952	-4,079286	1,973029	2020-10-29T19:53:16:238
-8,647290	-4,145056	2,052627	2020-10-29T19:53:16:239
-8,590053	-4,220213	2,138032	2020-10-29T19:53:16:239
-8,521378	-4,317373	2,217385	2020-10-29T19:53:16:257
-8,442134	-4,438074	2,281285	2020-10-29T19:53:16:296
-8,406100	-4,498189	2,296552	2020-10-29T19:53:16:297
-9,708699	-1,278756	0,525677	2020-10-29T19:53:16:321
-9,650024	-1,703833	0,379970	2020-10-29T19:53:16:335
-9,608045	-1,894396	0,516834	2020-10-29T19:53:16:357
-9,548108	-2,134428	0,669504	2020-10-29T19:53:16:374
-9,512527	-2,274834	0,712270	2020-10-29T19:53:16:398
-9,480557	-2,393183	0,749723	2020-10-29T19:53:16:414
-9,452720	-2,490789	0,782593	2020-10-29T19:53:16:437
-9,429181	-2,569373	0,811943	2020-10-29T19:53:16:454
-9,400630	-2,668142	0,824356	2020-10-29T19:53:16:478
-9,350870	-2,835303	0,832267	2020-10-29T19:53:16:496
-9,578399	-2,092218	-0,217458	2020-10-29T19:53:16:517
-9,542327	-2,190643	-0,561654	2020-10-29T19:53:16:534
-9,679624	-1,516575	-0,418665	2020-10-29T19:53:16:558
-9,759387	-0,926401	-0,257919	2020-10-29T19:53:16:574
-9,306514	-1,588739	-2,652376	2020-10-29T19:53:16:598
-9,160320	-2,270928	-2,664920	2020-10-29T19:53:16:618
-9,312107	-1,786172	-2,502927	2020-10-29T19:53:16:639
-9,356928	-1,859755	-2,271474	2020-10-29T19:53:55:147
-9,377744	-1,930127	-2,122006	2020-10-29T19:53:55:148
-9,385570	-2,025402	-1,994798	2020-10-29T19:53:55:149
-9,373698	-2,174478	-1,890980	2020-10-29T19:53:55:150
-9,188946	-2,369845	-2,473359	2020-10-29T19:53:55:166
-9,232847	-1,955280	-2,664918	2020-10-29T19:53:55:187
-9,204844	-2,182984	-2,583760	2020-10-29T19:53:55:201
-9,181657	-2,394177	-2,476990	2020-10-29T19:53:55:223
-9,161577	-2,593363	-2,347414	2020-10-29T19:53:55:240
-9,135604	-2,794556	-2,213951	2020-10-29T19:53:55:284
-9,102989	-2,977743	-2,106896	2020-10-29T19:53:55:285
-9,190099	-3,403157	-0,361922	2020-10-29T19:53:55:303
-9,131553	-3,469009	0,866668	2020-10-29T19:53:55:319
-9,026967	-3,693606	1,020549	2020-10-29T19:53:55:341
-8,893368	-3,959177	1,184610	2020-10-29T19:53:55:359
-8,714818	-4,287942	1,354950	2020-10-29T19:53:55:384
-8,486262	-4,670489	1,529795	2020-10-29T19:53:55:402
-8,221660	-5,061714	1,718646	2020-10-29T19:53:55:424
-7,907542	-5,473076	1,920050	2020-10-29T19:53:55:440
-7,551110	-5,879320	2,141197	2020-10-29T19:53:55:465
-7,182823	-6,240735	2,372903	2020-10-29T19:53:55:482
-6,775120	-6,579070	2,642722	2020-10-29T19:53:55:504
-6,402940	-6,823460	2,934814	2020-10-29T19:53:55:520
-6,006953	-7,051263	3,219718	2020-10-29T19:53:55:544
-5,580099	-7,300977	3,424707	2020-10-29T19:53:55:561
-5,221945	-7,485157	3,588050	2020-10-29T19:53:55:583
-4,887122	-7,649530	3,710945	2020-10-29T19:53:55:601
-4,515090	-7,846500	3,770515	2020-10-29T19:53:55:625
-4,187077	-7,999132	3,827879	2020-10-29T19:53:55:640
-3,904212	-8,107167	3,898890	2020-10-29T19:53:55:664
-3,676020	-8,182244	3,963349	2020-10-29T19:53:55:680
-3,465174	-8,252188	4,008036	2020-10-29T19:53:55:705
-3,283037	-8,318061	4,025159	2020-10-29T19:53:55:721
-3,120015	-8,384259	4,017472	2020-10-29T19:53:55:744
-2,987483	-8,454609	3,970506	2020-10-29T19:53:55:761
-2,896912	-8,513266	3,911854	2020-10-29T19:53:55:785
-2,847530	-8,556331	3,853720	2020-10-29T19:53:55:801
-2,850102	-8,586751	3,783517	2020-10-29T19:53:55:824
-2,913983	-8,616297	3,665858	2020-10-29T19:53:55:841
-3,045191	-8,625591	3,535020	2020-10-29T19:53:55:865
-3,248647	-8,575157	3,476111	2020-10-29T19:53:55:881
-3,604868	-8,426239	3,489098	2020-10-29T19:53:55:904
-4,109392	-8,176425	3,525530	2020-10-29T19:53:55:921
-4,768260	-7,821298	3,501625	2020-10-29T19:53:55:945
-5,496325	-7,416274	3,310540	2020-10-29T19:53:55:962
-6,279841	-6,890369	3,042499	2020-10-29T19:53:55:984
-7,081872	-6,226722	2,691730	2020-10-29T19:53:56:001
-7,784432	-5,506689	2,291151	2020-10-29T19:53:56:025
-1,116632	-8,825497	4,127243	2020-10-29T19:53:56:041
-1,647846	-8,432401	4,727536	2020-10-29T19:53:56:064
-1,908981	-7,926005	5,450194	2020-10-29T19:53:56:081
-1,894426	-7,252930	6,322700	2020-10-29T19:53:56:105
-1,774181	-6,569250	7,061701	2020-10-29T19:53:56:121
-2,042615	-6,191317	7,325688	2020-10-29T19:53:56:144
-2,843469	-6,209032	7,037968	2020-10-29T19:53:56:161
-3,974511	-6,456886	6,219507	2020-10-29T19:53:56:185
-5,137246	-6,717626	4,965137	2020-10-29T19:53:56:202
-6,131442	-6,821417	3,470458	2020-10-29T19:53:56:224
-6,779009	-6,796988	2,004086	2020-10-29T19:53:56:241
-7,135512	-6,674879	0,837167	2020-10-29T19:53:56:265
-7,371119	-6,467614	0,083439	2020-10-29T19:53:56:281
-7,575381	-6,215146	-0,394901	2020-10-29T19:53:56:304
-7,748271	-5,980266	-0,609190	2020-10-29T19:53:56:321
-7,909467	-5,763884	-0,623182	2020-10-29T19:53:56:345
-8,061607	-5,566112	-0,446404	2020-10-29T19:53:56:361
-8,294521	-5,225941	-0,246658	2020-10-29T19:53:56:384
-8,589283	-4,731614	-0,080233	2020-10-29T19:53:56:402
-8,897413	-4,123830	0,021115	2020-10-29T19:53:56:425
-9,140626	-3,551822	0,062455	2020-10-29T19:53:56:443
-9,288091	-3,145548	0,085315	2020-10-29T19:53:56:465
-9,347346	-2,963163	0,131025	2020-10-29T19:53:56:482
-9,367063	-2,895291	0,214034	2020-10-29T19:53:56:506
-9,352711	-2,931446	0,322186	2020-10-29T19:53:56:521
-9,294649	-3,099995	0,412206	2020-10-29T19:53:56:544
-9,207099	-3,328116	0,568642	2020-10-29T19:53:56:562
-8,756876	-3,760513	2,312152	2020-10-29T19:53:56:586
-8,680243	-3,971484	2,247463	2020-10-29T19:53:56:602
-8,563726	-4,150029	2,368595	2020-10-29T19:53:56:625
-8,446005	-4,292959	2,530986	2020-10-29T19:53:56:641
-8,337178	-4,403345	2,696737	2020-10-29T19:53:56:666
-8,243346	-4,515889	2,797210	2020-10-29T19:53:56:682
-8,142278	-4,651868	2,869464	2020-10-29T19:53:56:705
-8,007499	-4,833175	2,948010	2020-10-29T19:53:56:722
-7,837972	-5,036309	3,061399	2020-10-29T19:53:56:746
-7,638611	-5,238203	3,222302	2020-10-29T19:53:56:762
-7,388639	-5,459452	3,431148	2020-10-29T19:53:56:784
-7,065905	-5,714190	3,686652	2020-10-29T19:53:56:802
-6,670329	-6,001028	3,957873	2020-10-29T19:53:56:826
-6,232413	-6,284954	4,222177	2020-10-29T19:53:56:842
-5,760917	-6,547022	4,485391	2020-10-29T19:53:56:865
-5,312387	-6,745352	4,738053	2020-10-29T19:53:56:882
-4,879546	-6,857653	5,033192	2020-10-29T19:53:56:905
-4,523682	-6,848919	5,366469	2020-10-29T19:53:56:923
-4,225620	-6,753277	5,719071	2020-10-29T19:53:56:944
-4,038520	-6,461044	6,173787	2020-10-29T19:53:56:962
-3,973773	-6,150308	6,523283	2020-10-29T19:53:56:986
-3,854108	-5,764068	6,934822	2020-10-29T19:53:57:002
-3,815914	-5,242213	7,357200	2020-10-29T19:53:57:025
-3,819462	-4,594769	7,776258	2020-10-29T19:53:57:042
-9,690686	1,312072	0,734472	2020-10-29T19:53:57:066
-2,015509	9,592103	0,315691	2020-10-29T19:53:57:082
-2,131181	9,563105	0,418913	2020-10-29T19:53:57:105
-2,315681	9,511858	0,576684	2020-10-29T19:53:57:122
-6,316616	7,255352	-1,905415	2020-10-29T19:53:57:146
-9,650486	-1,661606	-0,526851	2020-10-29T19:53:57:163
-9,671177	-1,514010	-0,588633	2020-10-29T19:53:57:185
-9,691730	-1,362301	-0,620387	2020-10-29T19:53:57:202
-9,640364	0,189051	1,788306	2020-10-29T19:53:57:227
-9,354061	-2,357455	1,764749	2020-10-29T19:53:57:242
-9,416172	-2,310920	1,471642	2020-10-29T19:53:57:265
-9,474659	-2,236035	1,183792	2020-10-29T19:53:57:282
-9,556367	-2,022106	0,870246	2020-10-29T19:53:57:306
-9,662004	-1,587214	0,544819	2020-10-29T19:53:57:322
-8,336114	-4,929072	1,543970	2020-10-29T19:53:57:346
-8,559104	-4,374855	1,942363	2020-10-29T19:53:57:362
-8,700439	-3,799382	2,457119	2020-10-29T19:53:57:387
-8,527120	-3,558738	3,285422	2020-10-29T19:53:57:403
-8,651643	-3,438812	3,081240	2020-10-29T19:53:57:426
-9,107768	-3,345642	1,423247	2020-10-29T19:53:57:442
-9,373703	-2,706985	0,988087	2020-10-29T19:53:57:467
-9,589167	-1,978696	0,550486	2020-10-29T19:53:57:482
-9,491741	-2,465018	0,030472	2020-10-29T19:53:57:506
-9,137451	-3,556472	0,169961	2020-10-29T19:53:57:522
-8,318178	-5,191207	-0,172228	2020-10-29T19:53:57:546
-9,006153	-3,846534	-0,513587	2020-10-29T19:53:57:562
-9,203362	-3,296127	-0,777219	2020-10-29T19:53:57:585
-9,283007	-3,012439	-0,959888	2020-10-29T19:53:57:602
-8,181926	-4,307668	3,266569	2020-10-29T19:53:57:627
-7,811029	-4,831089	3,437847	2020-10-29T19:53:57:643
-8,044102	-4,559289	3,267370	2020-10-29T19:53:57:666
-8,237350	-4,291778	3,145962	2020-10-29T19:53:57:682
-8,408849	-4,025144	3,043001	2020-10-29T19:53:57:707
-8,545807	-3,813332	2,932246	2020-10-29T19:53:57:722
-8,673604	-3,662402	2,743316	2020-10-29T19:53:57:745
-8,750403	-3,622257	2,545601	2020-10-29T19:53:57:763
-8,911061	-3,929493	1,149986	2020-10-29T19:53:57:787
-8,879219	-3,875123	1,520945	2020-10-29T19:53:57:802
-8,780214	-4,108017	1,484054	2020-10-29T19:53:57:826
-8,626632	-4,420255	1,487598	2020-10-29T19:53:57:842
-7,915375	-4,562537	3,563773	2020-10-29T19:53:57:868
-8,083948	-4,404296	3,379696	2020-10-29T19:53:57:883
-7,917189	-4,753961	3,299752	2020-10-29T19:53:57:906
-7,731089	-5,072049	3,267256	2020-10-29T19:53:57:923
-7,539189	-5,346560	3,278003	2020-10-29T19:53:57:947
-7,353501	-5,586238	3,300053	2020-10-29T19:53:57:963
-7,165201	-5,801152	3,343190	2020-10-29T19:53:57:986
-6,997774	-5,944324	3,444788	2020-10-29T19:53:58:003
-6,860457	-5,945624	3,708648	2020-10-29T19:53:58:027
-6,920854	-5,289114	4,505268	2020-10-29T19:53:58:042
-6,830585	-4,500056	5,409527	2020-10-29T19:53:58:066
-6,668122	-4,018835	5,962843	2020-10-29T19:53:58:082
-9,621998	1,475081	1,188139	2020-10-29T19:53:58:108
-9,715490	-0,848194	1,029658	2020-10-29T19:53:58:124
-9,654259	-1,080333	1,341099	2020-10-29T19:53:58:146
-9,571022	-1,383717	1,628263	2020-10-29T19:53:58:163
-9,449603	-1,780165	1,925198	2020-10-29T19:53:58:187
-9,281549	-2,244923	2,232388	2020-10-29T19:53:58:203
-9,114690	-2,607781	2,508443	2020-10-29T19:53:58:226
-8,947145	-2,884459	2,792645	2020-10-29T19:53:58:243
-8,770525	-3,105288	3,099268	2020-10-29T19:53:58:267
-8,610409	-3,262777	3,374244	2020-10-29T19:53:58:283
-8,584841	-3,070960	3,611108	2020-10-29T19:53:58:307
-9,362809	-2,322214	1,765079	2020-10-29T19:53:58:323
-9,307809	-2,407026	1,934246	2020-10-29T19:53:58:347
-9,259532	-2,439291	2,116911	2020-10-29T19:53:58:365
-9,239783	-2,417318	2,225616	2020-10-29T19:53:58:386
-9,234156	-2,399074	2,268305	2020-10-29T19:53:58:403
-8,999490	-2,004822	3,340697	2020-10-29T19:53:58:428
-7,937627	-2,274544	5,290643	2020-10-29T19:53:58:443
-7,917345	-2,297467	5,311090	2020-10-29T19:53:58:466
-7,888043	-2,319394	5,345051	2020-10-29T19:53:58:483
-7,861165	-2,326512	5,381433	2020-10-29T19:53:58:508
-7,850646	-2,315513	5,401494	2020-10-29T19:53:58:523
-9,194366	-2,095227	2,691478	2020-10-29T19:53:58:547
-9,441920	-1,651596	2,071895	2020-10-29T19:53:58:563
-9,451344	-1,604974	2,065559	2020-10-29T19:53:58:587
-9,460946	-1,560795	2,055432	2020-10-29T19:53:58:605
-9,469743	-1,524352	2,042230	2020-10-29T19:53:58:626
-9,476901	-1,509488	2,019945	2020-10-29T19:53:58:643
-9,485736	-1,499152	1,985885	2020-10-29T19:53:58:667
-9,503547	-1,465067	1,925244	2020-10-29T19:53:58:683
-9,530258	-1,381901	1,853354	2020-10-29T19:53:58:707
-9,556842	-1,297825	1,775615	2020-10-29T19:53:58:723
-9,603057	-1,161907	1,612967	2020-10-29T19:53:58:747
-9,651474	-0,991951	1,426696	2020-10-29T19:53:58:763
-9,699862	-0,795669	1,204142	2020-10-29T19:53:58:787
-9,746181	-0,551310	0,937232	2020-10-29T19:53:58:804
-9,784184	-0,235917	0,620068	2020-10-29T19:53:58:828
-9,801620	0,099736	0,297788	2020-10-29T19:53:58:844
-9,795751	0,461819	-0,019654	2020-10-29T19:53:58:867
-9,768609	0,812858	-0,289690	2020-10-29T19:53:58:883
-9,364568	2,711402	-1,059976	2020-10-29T19:53:58:908
-9,317480	2,830321	-1,159413	2020-10-29T19:53:58:923
-8,714996	-3,477786	2,850304	2020-10-29T19:53:58:947
-8,535131	-4,064349	2,608252	2020-10-29T19:53:58:964
-8,749645	-3,730088	2,387580	2020-10-29T19:53:58:988
-8,945206	-3,373623	2,184569	2020-10-29T19:53:59:004
-9,111043	-3,030757	1,993437	2020-10-29T19:53:59:026
-9,237327	-2,731027	1,839478	2020-10-29T19:53:59:044
-9,350092	-2,435046	1,678310	2020-10-29T19:53:59:068
-9,434388	-2,159956	1,580281	2020-10-29T19:53:59:085
-9,520902	-1,896625	1,387669	2020-10-29T19:53:59:107
-9,596781	-1,669739	1,133203	2020-10-29T19:53:59:124
-9,655189	-1,456729	0,908658	2020-10-29T19:53:59:148
-9,691364	-1,290831	0,762620	2020-10-29T19:53:59:165
-7,730428	-4,882370	3,545889	2020-10-29T19:53:59:188
-7,323642	-5,664823	3,231785	2020-10-29T19:53:59:204
-7,087325	-6,170360	2,804794	2020-10-29T19:53:59:228
-7,374478	-6,080490	2,194336	2020-10-29T19:53:59:244
-7,275969	-6,144645	2,339658	2020-10-29T19:53:59:268
-7,157663	-6,221579	2,496037	2020-10-29T19:53:59:284
-9,489719	-2,351321	-0,766090	2020-10-29T19:53:59:308
-9,469021	-2,281062	-1,142272	2020-10-29T19:53:59:325
-9,398385	-2,599131	-1,041761	2020-10-29T19:53:59:347
-9,326432	-2,885820	-0,927409	2020-10-29T19:53:59:364
-9,264148	-3,114999	-0,801704	2020-10-29T19:53:59:388
-9,215538	-3,288091	-0,657806	2020-10-29T19:53:59:404
-9,232070	-3,253484	0,595067	2020-10-29T19:53:59:428
-9,179204	-3,448134	0,151583	2020-10-29T19:53:59:444
-7,874500	-5,838963	0,262962	2020-10-29T19:53:59:468
-6,685950	-7,169671	0,253523	2020-10-29T19:53:59:484
-5,866688	-7,855912	0,192380	2020-10-29T19:53:59:509
-5,308349	-8,244844	0,119869	2020-10-29T19:53:59:524
-4,804703	-8,548931	0,031497	2020-10-29T19:53:59:548
-4,446671	-8,740562	-0,007993	2020-10-29T19:53:59:565
-4,138258	-8,890705	-0,023827	2020-10-29T19:53:59:587
-3,744906	-9,063184	-0,068978	2020-10-29T19:53:59:604
-3,193936	-9,270334	-0,173401	2020-10-29T19:53:59:628
-2,511086	-9,474799	-0,304991	2020-10-29T19:53:59:644
-1,924947	-9,609156	-0,359302	2020-10-29T19:53:59:667
-1,438738	-9,693887	-0,359123	2020-10-29T19:53:59:684
-1,041332	-9,746393	-0,306305	2020-10-29T19:53:59:709
-0,757447	-9,774749	-0,225726	2020-10-29T19:53:59:724
-6,882287	-6,971389	-0,451942	2020-10-29T19:53:59:748
-6,802346	-7,063883	-0,004755	2020-10-29T19:53:59:765
-6,286911	-7,519824	0,312076	2020-10-29T19:53:59:788
-4,320246	-8,799207	0,282514	2020-10-29T19:53:59:805
-3,496562	-9,160725	0,159895	2020-10-29T19:53:59:828
-3,450221	-9,179142	0,098515	2020-10-29T19:53:59:844
-4,221244	-8,848606	0,231646	2020-10-29T19:53:59:868
-4,668303	-8,611803	0,462795	2020-10-29T19:53:59:884
-4,563099	-8,651435	0,707949	2020-10-29T19:53:59:908
-4,173892	-8,823381	0,947070	2020-10-29T19:53:59:924
-4,017180	-8,867860	1,180556	2020-10-29T19:53:59:949
-8,479321	-4,015376	2,854513	2020-10-29T19:53:59:966
-6,569721	-6,741535	2,749702	2020-10-29T19:53:59:987
-6,162328	-7,034138	2,952457	2020-10-29T19:54:00:005
-6,254359	-6,704264	3,479401	2020-10-29T19:54:00:028
-6,468344	-6,112586	4,119127	2020-10-29T19:54:00:049
-6,562847	-5,577082	4,689945	2020-10-29T19:54:00:069
-6,569993	-5,193700	5,102064	2020-10-29T19:54:00:084
4,506103	-8,129927	3,125654	2020-10-29T19:54:00:110
4,579736	-8,307788	2,485368	2020-10-29T19:54:00:125
4,662459	-8,223723	2,608111	2020-10-29T19:54:00:148
4,621302	-8,224650	2,677513	2020-10-29T19:54:00:166
4,497061	-8,285577	2,701118	2020-10-29T19:54:00:189
4,324537	-8,375055	2,706883	2020-10-29T19:54:00:205
4,180748	-8,439995	2,730973	2020-10-29T19:54:00:228
4,056981	-8,479063	2,795850	2020-10-29T19:54:00:245
1,682590	-6,168139	7,435948	2020-10-29T19:54:00:270
1,188621	-5,829902	7,795499	2020-10-29T19:54:00:286
1,034813	-5,938607	7,735147	2020-10-29T19:54:00:308
0,798969	-6,206452	7,550628	2020-10-29T19:54:00:325
0,459240	-6,941354	6,912097	2020-10-29T19:54:00:349
0,269412	-1,190241	9,730423	2020-10-29T19:54:00:365
-0,128374	-3,164667	9,281098	2020-10-29T19:54:00:388
-0,603008	-4,037138	8,916742	2020-10-29T19:54:00:405
-7,047250	-5,263376	4,336304	2020-10-29T19:54:00:429
-7,982290	-5,317017	2,045180	2020-10-29T19:54:00:445
-8,365843	-4,482593	2,467676	2020-10-29T19:54:00:471
-7,696383	-5,815479	1,765297	2020-10-29T19:54:00:486
-7,702408	-5,922184	1,330799	2020-10-29T19:54:00:510
-8,495200	-4,852732	0,673017	2020-10-29T19:54:00:526
-9,163068	-3,479498	0,318844	2020-10-29T19:54:00:549
-9,236880	-3,264240	0,441787	2020-10-29T19:54:00:565
-9,515788	-2,350237	0,310729	2020-10-29T19:54:00:589
-9,705801	-1,392107	0,172765	2020-10-29T19:54:00:606
-9,797154	-0,428124	0,053462	2020-10-29T19:54:00:628
-9,800141	0,355632	-0,033787	2020-10-29T19:54:00:645
-9,426892	-2,701984	-0,057955	2020-10-29T19:54:00:670
-9,435349	-2,668479	-0,154269	2020-10-29T19:54:00:685
-9,723223	-1,253728	-0,239761	2020-10-29T19:54:00:709
-9,797560	-0,303180	-0,293736	2020-10-29T19:54:00:725
-9,793155	0,400406	-0,322771	2020-10-29T19:54:00:749
-9,765110	0,833695	-0,343458	2020-10-29T19:54:00:767
-9,742915	1,052759	-0,371072	2020-10-29T19:54:00:788
-9,729817	1,162123	-0,387948	2020-10-29T19:54:00:806
-9,728253	1,169315	-0,405186	2020-10-29T19:54:00:830
-9,736567	1,091990	-0,420956	2020-10-29T19:54:00:846
-9,753911	0,924249	-0,421142	2020-10-29T19:54:00:869
-9,779092	0,608812	-0,411206	2020-10-29T19:54:00:886
-9,801636	-0,054900	-0,308722	2020-10-29T19:54:00:910
-9,693680	-1,472293	-0,187915	2020-10-29T19:54:00:925
-9,790071	0,563208	-0,087651	2020-10-29T19:54:00:948
-9,414640	2,741539	-0,137427	2020-10-29T19:54:00:966
-9,794086	0,495890	-0,018846	2020-10-29T19:54:00:989
-9,806519	-0,000780	0,050844	2020-10-29T19:54:01:007
-9,793404	-0,480767	0,168798	2020-10-29T19:54:01:029
-9,754428	-0,944984	0,358498	2020-10-29T19:54:01:046
-9,687309	-1,380098	0,649431	2020-10-29T19:54:01:070
-9,601025	-1,722199	1,012297	2020-10-29T19:54:01:085
-9,489957	-1,993959	1,461240	2020-10-29T19:54:01:109
-9,361832	-2,202347	1,917332	2020-10-29T19:54:01:127
-9,213970	-2,392483	2,355666	2020-10-29T19:54:01:150
-9,056718	-2,589080	2,728170	2020-10-29T19:54:01:166
-8,887248	-2,809383	3,048701	2020-10-29T19:54:01:189
-8,680078	-3,073106	3,373820	2020-10-29T19:54:01:207
-8,461296	-3,296280	3,702890	2020-10-29T19:54:01:230
-8,220992	-3,464521	4,072195	2020-10-29T19:54:01:247
-7,946722	-3,607126	4,473102	2020-10-29T19:54:01:269
-7,658860	-3,733480	4,855242	2020-10-29T19:54:01:286
-7,360053	-3,858865	5,206647	2020-10-29T19:54:01:310
-7,089726	-3,989451	5,476353	2020-10-29T19:54:01:326
-6,939348	-4,180653	5,526117	2020-10-29T19:54:01:349
-6,793132	-4,379905	5,553393	2020-10-29T19:54:01:367
-9,663980	-1,320612	1,016784	2020-10-29T19:54:01:390
-9,453502	-1,568916	2,083314	2020-10-29T19:54:01:406
-9,282149	-1,978629	2,469233	2020-10-29T19:54:01:429
-9,090598	-2,348117	2,831563	2020-10-29T19:54:01:446
-8,878082	-2,667770	3,198911	2020-10-29T19:54:01:470
-8,667543	-2,896944	3,556935	2020-10-29T19:54:01:488
-8,452850	-3,034971	3,938103	2020-10-29T19:54:01:509
-8,258346	-3,078331	4,300463	2020-10-29T19:54:01:526
-8,079121	-3,038605	4,654576	2020-10-29T19:54:01:550
-7,929528	-2,960769	4,952455	2020-10-29T19:54:01:566
-7,813117	-2,728331	5,261350	2020-10-29T19:54:01:589
-7,752923	-2,465437	5,475781	2020-10-29T19:54:01:609
-7,856282	-2,287493	5,405238	2020-10-29T19:54:01:665
-8,100441	-2,185318	5,077168	2020-10-29T19:54:01:675
-9,209394	1,977543	2,728876	2020-10-29T19:54:01:675
-9,532544	1,096067	2,024754	2020-10-29T19:54:01:829
-9,414344	1,300921	2,418289	2020-10-29T19:54:01:830
-9,142481	1,543824	3,194062	2020-10-29T19:54:01:830
-8,699002	1,687778	4,201088	2020-10-29T19:54:01:831
-8,330719	1,718078	4,880340	2020-10-29T19:54:01:831
-8,736406	2,375883	-3,768391	2020-10-29T19:54:01:832
-8,626002	2,943513	-3,619143	2020-10-29T19:54:01:832
-8,962008	-2,328656	3,229578	2020-10-29T19:54:01:832
-9,010583	-2,125798	3,234312	2020-10-29T19:54:01:898
-9,300127	-1,576369	2,681993	2020-10-29T19:54:01:899
-9,493064	-1,064471	2,217887	2020-10-29T19:54:01:899
-9,619888	-0,580238	1,814239	2020-10-29T19:54:02:002
-9,690402	-0,169959	1,495863	2020-10-29T19:54:02:002
-9,473091	-0,762849	2,418469	2020-10-29T19:54:02:095
-9,359490	-1,122950	2,703573	2020-10-29T19:54:02:095
-9,505134	-0,876035	2,248419	2020-10-29T19:54:02:095
-9,582296	-0,667206	1,976060	2020-10-29T19:54:02:096
-9,611915	-0,535015	1,869557	2020-10-29T19:54:02:096
-9,611293	-0,498006	1,882931	2020-10-29T19:54:02:097
-9,587398	-0,578888	1,979161	2020-10-29T19:54:02:098
-9,541782	-0,781416	2,124654	2020-10-29T19:54:02:105
-9,473335	-1,093545	2,287022	2020-10-29T19:54:02:137
-9,381532	-1,476255	2,444977	2020-10-29T19:54:02:163
-9,269247	-1,920490	2,561867	2020-10-29T19:54:02:164
-9,130898	-2,393674	2,658458	2020-10-29T19:54:02:166
-9,006711	-2,762061	2,724071	2020-10-29T19:54:02:192
-6,879152	-6,330372	2,962103	2020-10-29T19:54:02:213
-6,775505	-6,430885	2,984398	2020-10-29T19:54:02:277
-7,099995	-5,936434	3,243332	2020-10-29T19:54:02:278
-7,003580	-6,027379	3,284959	2020-10-29T19:54:02:280
-6,921866	-6,095845	3,331490	2020-10-29T19:54:02:294
-6,830537	-6,176271	3,371621	2020-10-29T19:54:02:370
-6,745723	-6,252496	3,401750	2020-10-29T19:54:02:370
-6,679032	-6,313230	3,421119	2020-10-29T19:54:02:371
-8,446261	-4,400442	2,338197	2020-10-29T19:54:02:377
-8,235267	-4,412763	2,979646	2020-10-29T19:54:02:388
-8,160565	-4,518362	3,026543	2020-10-29T19:54:02:418
-8,097481	-4,579929	3,102488	2020-10-29T19:54:02:436
-7,288152	-4,066526	5,149426	2020-10-29T19:54:02:458
-6,749828	-4,186732	5,751650	2020-10-29T19:54:02:468
-6,748178	-4,190871	5,750571	2020-10-29T19:54:02:486
-6,756725	-4,186338	5,743834	2020-10-29T19:54:02:509
-6,754137	-4,165189	5,762223	2020-10-29T19:54:02:526
-6,738146	-4,116935	5,815378	2020-10-29T19:54:02:561
-6,793037	-4,061621	5,790359	2020-10-29T19:54:02:566
-6,864082	-4,045955	5,717081	2020-10-29T19:54:02:596
-6,939987	-4,063973	5,611692	2020-10-29T19:54:02:608
-9,314904	-2,712211	1,430683	2020-10-29T19:54:02:656
-9,334659	-2,807061	1,074679	2020-10-29T19:54:02:657
-9,338659	-2,821708	0,998891	2020-10-29T19:54:02:684
-9,330257	-2,872522	0,930210	2020-10-29T19:54:02:687
-9,305441	-2,965556	0,885789	2020-10-29T19:54:02:718
-9,255632	-3,118552	0,882207	2020-10-29T19:54:02:725
-5,264030	-7,932814	2,351772	2020-10-29T19:54:02:750
-4,387748	-8,343592	2,702319	2020-10-29T19:54:02:767
-9,571098	-1,804457	1,143850	2020-10-29T19:54:02:791
-9,631124	-1,602714	0,918222	2020-10-29T19:54:02:822
-9,644160	-1,591227	0,792818	2020-10-29T19:54:02:850
-9,612638	-1,808643	0,704541	2020-10-29T19:54:02:851
-9,569780	-1,848513	1,082911	2020-10-29T19:54:02:884
-9,497333	-1,727869	1,727869	2020-10-29T19:54:02:910
-9,370996	-1,792355	2,267661	2020-10-29T19:54:02:913
-9,301744	-2,018114	2,361179	2020-10-29T19:54:02:937
-9,229308	-2,217582	2,464261	2020-10-29T19:54:02:950
-9,407355	-1,965251	1,951881	2020-10-29T19:54:02:976
-9,118071	-2,591127	2,513411	2020-10-29T19:54:02:992
-8,823266	-2,723434	3,302009	2020-10-29T19:54:03:008
-8,506948	-1,979589	4,459085	2020-10-29T19:54:03:029
-8,209963	-1,643062	5,105609	2020-10-29T19:54:03:047
-8,208155	-1,183319	5,234151	2020-10-29T19:54:03:074
-8,555779	0,344338	4,780217	2020-10-29T19:54:03:087
-9,239499	0,344784	3,268511	2020-10-29T19:54:03:110
-9,288113	0,468538	3,111562	2020-10-29T19:54:03:128
-6,754374	5,603842	4,375587	2020-10-29T19:54:03:152
-6,840894	4,794171	5,136972	2020-10-29T19:54:03:170
-6,889295	4,685579	5,172363	2020-10-29T19:54:03:191
-6,914228	4,512826	5,291335	2020-10-29T19:54:03:208
-6,884407	4,300607	5,502737	2020-10-29T19:54:03:231
-6,806899	4,014954	5,806605	2020-10-29T19:54:03:248
-8,615609	-2,244306	4,111539	2020-10-29T19:54:03:272
-8,792891	-3,412790	2,684832	2020-10-29T19:54:03:288
-8,877849	-3,382188	2,432074	2020-10-29T19:54:03:312
-8,915461	-3,421029	2,231930	2020-10-29T19:54:03:328
-8,914882	-3,514898	2,083447	2020-10-29T19:54:03:351
-8,883903	-3,661762	1,959125	2020-10-29T19:54:03:369
-8,838984	-3,814917	1,867922	2020-10-29T19:54:03:391
-8,800089	-3,946119	1,776785	2020-10-29T19:54:03:410
-8,785742	-4,017183	1,686230	2020-10-29T19:54:03:431
-8,810880	-3,998967	1,595947	2020-10-29T19:54:03:449
-8,874841	-3,868143	1,563669	2020-10-29T19:54:03:472
-8,963615	-3,672336	1,529029	2020-10-29T19:54:03:488
-9,067847	-3,424422	1,489249	2020-10-29T19:54:03:511
-9,180262	-3,118009	1,473498	2020-10-29T19:54:03:528
-9,300397	-2,730381	1,489305	2020-10-29T19:54:03:552
-9,417562	-2,270494	1,524718	2020-10-29T19:54:03:569
-9,502254	-1,851407	1,565203	2020-10-29T19:54:03:591
-9,554929	-1,505799	1,614402	2020-10-29T19:54:03:608
-9,579072	-1,244105	1,692323	2020-10-29T19:54:03:632
-9,589842	-0,985485	1,798373	2020-10-29T19:54:03:650
-9,586357	-0,778062	1,914879	2020-10-29T19:54:03:671
-9,561923	-0,710109	2,058097	2020-10-29T19:54:03:689
-9,517260	-0,773946	2,234540	2020-10-29T19:54:03:712
-9,459961	-0,895132	2,424514	2020-10-29T19:54:03:728
-9,391024	-1,049485	2,622527	2020-10-29T19:54:03:751
-9,304014	-1,254222	2,834188	2020-10-29T19:54:03:769
-9,199580	-1,498308	3,048471	2020-10-29T19:54:03:792
-9,066091	-1,773615	3,290999	2020-10-29T19:54:03:808
-8,908821	-2,040755	3,555083	2020-10-29T19:54:03:832
-8,729265	-2,290842	3,836972	2020-10-29T19:54:03:849
-8,528283	-2,515143	4,136765	2020-10-29T19:54:03:872
-8,313641	-2,704389	4,442976	2020-10-29T19:54:03:890
-8,088182	-2,854847	4,754107	2020-10-29T19:54:03:911
-7,838309	-2,990102	5,078443	2020-10-29T19:54:03:928
-7,560409	-3,162152	5,386223	2020-10-29T19:54:03:952
-7,247972	-3,375779	5,678152	2020-10-29T19:54:03:969
-6,937798	-3,587644	5,930105	2020-10-29T19:54:03:991
-6,589292	-3,735832	6,228578	2020-10-29T19:54:04:009
-6,205418	-3,878670	6,528330	2020-10-29T19:54:04:033
-5,766651	-3,990603	6,855013	2020-10-29T19:54:04:049
-5,307991	-4,024738	7,197021	2020-10-29T19:54:04:072
-4,816918	-4,022790	7,535572	2020-10-29T19:54:04:089
-4,290984	-4,001328	7,857940	2020-10-29T19:54:04:112
-3,769631	-3,912683	8,164017	2020-10-29T19:54:04:130
-3,278539	-3,726407	8,457864	2020-10-29T19:54:04:155
-2,769647	-3,441583	8,755281	2020-10-29T19:54:04:169
-2,332527	-3,055425	9,021867	2020-10-29T19:54:04:203
-1,845843	-2,602660	9,273047	2020-10-29T19:54:04:210
-1,355416	-2,181356	9,464402	2020-10-29T19:54:04:232
-0,897752	-1,793577	9,599349	2020-10-29T19:54:04:251
-0,453222	-1,413899	9,693599	2020-10-29T19:54:04:275
-0,048444	-1,052094	9,749930	2020-10-29T19:54:04:287
0,312807	-0,591872	9,783773	2020-10-29T19:54:04:341
0,679493	-0,109375	9,782470	2020-10-29T19:54:04:381
0,985654	0,245365	9,753905	2020-10-29T19:54:04:382
3,637425	1,689475	8,949034	2020-10-29T19:54:04:382
3,811916	1,951718	8,822159	2020-10-29T19:54:04:484
4,078518	2,216267	8,638532	2020-10-29T19:54:04:558
4,319462	2,435609	8,460523	2020-10-29T19:54:04:560
4,175242	2,435304	8,532703	2020-10-29T19:54:04:562
3,958447	2,406639	8,643447	2020-10-29T19:54:04:563
3,640141	2,375530	8,790711	2020-10-29T19:54:04:563
3,229335	2,333096	8,960940	2020-10-29T19:54:04:564
2,746335	2,250849	9,141210	2020-10-29T19:54:04:565
2,196246	2,131634	9,316813	2020-10-29T19:54:04:572
-2,858806	6,446280	6,814917	2020-10-29T19:54:04:626
-2,860874	6,727542	6,536510	2020-10-29T19:54:04:626
-2,869081	6,608032	6,653771	2020-10-29T19:54:04:627
-2,868647	6,478851	6,779804	2020-10-29T19:54:04:652
-2,857783	6,335133	6,918782	2020-10-29T19:54:04:653
-2,834372	6,228603	7,024331	2020-10-29T19:54:04:692
-2,792517	6,169918	7,092556	2020-10-29T19:54:04:692
-2,768725	6,099998	7,162023	2020-10-29T19:54:04:713
-2,773836	6,022198	7,225604	2020-10-29T19:54:04:729
-2,798442	5,957072	7,269966	2020-10-29T19:54:04:752
-2,890676	5,770172	7,383731	2020-10-29T19:54:04:812
-2,950130	5,587223	7,500004	2020-10-29T19:54:04:813
-2,984030	5,346148	7,660591	2020-10-29T19:54:04:814
-2,921086	5,109663	7,844041	2020-10-29T19:54:04:831
-2,401618	6,570561	6,872433	2020-10-29T19:54:04:860
-2,186603	5,005271	8,144717	2020-10-29T19:54:04:895
-2,025060	4,618763	8,410501	2020-10-29T19:54:04:896
-1,797607	4,200341	8,677334	2020-10-29T19:54:04:919
-1,547379	3,774110	8,918077	2020-10-29T19:54:04:931
-1,279351	3,342621	9,130198	2020-10-29T19:54:04:957
4,218251	-0,749914	8,821245	2020-10-29T19:54:04:981
4,134668	-1,178092	8,814023	2020-10-29T19:54:04:992
4,168398	-1,120310	8,805665	2020-10-29T19:54:05:018
1,324620	2,690353	9,336904	2020-10-29T19:54:05:035
1,134160	4,086143	8,842369	2020-10-29T19:54:05:048
1,342481	4,208907	8,755183	2020-10-29T19:54:05:072
1,519798	4,243750	8,709258	2020-10-29T19:54:05:103
1,810541	4,057971	8,742151	2020-10-29T19:54:05:154
1,584848	-3,017740	9,195210	2020-10-29T19:54:05:154
4,582075	-3,178104	8,066885	2020-10-29T19:54:05:162
4,727854	-3,083700	8,019262	2020-10-29T19:54:05:179
4,945375	-2,985052	7,924841	2020-10-29T19:54:05:197
5,264865	-2,874089	7,758298	2020-10-29T19:54:05:229
5,577075	-2,908961	7,523600	2020-10-29T19:54:05:261
5,858138	-2,933858	7,296923	2020-10-29T19:54:05:263
6,199697	-3,061145	6,954390	2020-10-29T19:54:05:278
6,219012	-2,863534	7,021000	2020-10-29T19:54:05:294
6,217062	-2,679918	7,094826	2020-10-29T19:54:05:446
6,235972	-2,568304	7,119470	2020-10-29T19:54:05:446
6,141603	-2,292566	7,293507	2020-10-29T19:54:05:449
5,943082	-1,900161	7,565682	2020-10-29T19:54:05:449
5,846363	-1,598432	7,709439	2020-10-29T19:54:05:454
5,895869	-1,453378	7,700442	2020-10-29T19:54:05:468
5,859906	-1,281244	7,758241	2020-10-29T19:54:05:469
5,848619	-1,170431	7,784223	2020-10-29T19:54:05:469
5,859664	-1,101055	7,786039	2020-10-29T19:54:05:479
5,653717	-0,841164	7,968583	2020-10-29T19:54:05:492
9,603918	-1,284014	1,512098	2020-10-29T19:54:05:511
5,769135	-0,792020	7,890512	2020-10-29T19:54:05:529
5,793923	-0,698289	7,881195	2020-10-29T19:54:05:551
6,390025	-1,046152	7,365021	2020-10-29T19:54:05:569
7,230316	-1,551628	6,440914	2020-10-29T19:54:05:641
7,581532	-1,967312	5,900885	2020-10-29T19:54:05:642
5,130009	-6,918331	4,689359	2020-10-29T19:54:05:643
4,897539	-5,713377	6,288229	2020-10-29T19:54:05:719
4,868274	-5,573287	6,434965	2020-10-29T19:54:05:736
4,879186	-5,336497	6,624631	2020-10-29T19:54:05:742
2,936598	-0,833749	9,319423	2020-10-29T19:54:05:743
2,953897	-0,333026	9,345264	2020-10-29T19:54:05:743
2,909882	0,426907	9,355251	2020-10-29T19:54:05:765
3,653645	-0,986410	9,047003	2020-10-29T19:54:05:773
4,036982	-1,221954	8,853248	2020-10-29T19:54:05:795
4,265394	-1,379453	8,722036	2020-10-29T19:54:05:814
4,363817	-1,405451	8,669036	2020-10-29T19:54:05:832
4,489995	-1,428216	8,600612	2020-10-29T19:54:05:850
4,614771	-1,421289	8,535468	2020-10-29T19:54:05:913
4,718564	-1,389156	8,483854	2020-10-29T19:54:05:920
4,827942	-1,335222	8,430809	2020-10-29T19:54:05:921
4,907907	-1,229811	8,400620	2020-10-29T19:54:05:932
4,979885	-1,159649	8,368175	2020-10-29T19:54:05:963
5,035609	-1,107933	8,341793	2020-10-29T19:54:05:970
5,054690	-1,081886	8,333668	2020-10-29T19:54:05:999
5,015022	-1,025633	8,364688	2020-10-29T19:54:06:011
4,885426	-0,967612	8,447883	2020-10-29T19:54:06:037
4,743682	-0,899280	8,535758	2020-10-29T19:54:06:054
4,607511	-0,826576	8,617309	2020-10-29T19:54:06:072
4,599290	-0,869896	8,617435	2020-10-29T19:54:06:094
4,556067	-0,837909	8,643526	2020-10-29T19:54:06:112
4,460709	-0,724385	8,703318	2020-10-29T19:54:06:129
4,427804	-0,639227	8,726759	2020-10-29T19:54:06:154
4,478286	-0,590715	8,704390	2020-10-29T19:54:06:170
4,791366	-0,700220	8,527772	2020-10-29T19:54:06:193
4,961522	-0,741186	8,426407	2020-10-29T19:54:06:211
5,089308	-0,753506	8,348746	2020-10-29T19:54:06:234
5,273245	-0,779382	8,231393	2020-10-29T19:54:06:251
5,443363	-0,847881	8,113031	2020-10-29T19:54:06:275
5,556323	-0,892104	8,031302	2020-10-29T19:54:06:292
5,649977	-0,902501	7,964524	2020-10-29T19:54:06:313
5,757841	-0,914384	7,885528	2020-10-29T19:54:06:331
5,835095	-0,866412	7,833989	2020-10-29T19:54:06:355
5,933414	-0,835828	7,763142	2020-10-29T19:54:06:372
6,051686	-0,834633	7,671432	2020-10-29T19:54:06:394
6,180316	-0,831974	7,568480	2020-10-29T19:54:06:412
6,306263	-0,848090	7,462049	2020-10-29T19:54:06:435
6,372942	-0,902592	7,398737	2020-10-29T19:54:06:451
6,381982	-0,952608	7,384662	2020-10-29T19:54:06:474
6,392604	-0,983268	7,371443	2020-10-29T19:54:06:491
6,430346	-1,003220	7,335842	2020-10-29T19:54:06:514
6,471520	-1,035999	7,294965	2020-10-29T19:54:06:532
6,510147	-1,080999	7,253952	2020-10-29T19:54:06:554
6,541167	-1,131432	7,218267	2020-10-29T19:54:06:571
6,270642	-1,931960	7,288138	2020-10-29T19:54:06:596
6,239535	-1,696593	7,372934	2020-10-29T19:54:06:612
6,189886	-1,058255	7,532316	2020-10-29T19:54:06:635
6,236154	-0,802464	7,525743	2020-10-29T19:54:06:655
6,414593	-0,816562	7,372693	2020-10-29T19:54:06:709
6,494305	-0,781744	7,306385	2020-10-29T19:54:06:710
6,563872	-0,613108	7,260170	2020-10-29T19:54:06:717
6,568894	-0,837000	7,233218	2020-10-29T19:54:06:750
6,548429	-0,891362	7,245270	2020-10-29T19:54:06:755
6,576453	-0,906301	7,217982	2020-10-29T19:54:06:775
6,490581	-1,394451	7,217912	2020-10-29T19:54:06:795
6,508759	-1,396899	7,201050	2020-10-29T19:54:06:814
6,516663	-1,386229	7,195961	2020-10-29T19:54:06:839
6,529055	-1,376046	7,186677	2020-10-29T19:54:06:852
6,542336	-1,364616	7,176772	2020-10-29T19:54:06:874
6,567505	-1,357810	7,155041	2020-10-29T19:54:06:892
6,594301	-1,351698	7,131515	2020-10-29T19:54:06:915
