x	y	z	ts
-0,937986	4,737789	8,185846	2020-10-29T19:52:02:283
-1,038485	4,539185	8,233703	2020-10-29T19:52:02:284
-1,103091	4,567898	8,238488	2020-10-29T19:52:02:284
-1,052842	4,685147	8,338986	2020-10-29T19:52:02:284
-1,189233	4,682754	8,482556	2020-10-29T19:52:02:285
-1,332802	4,596612	8,599805	2020-10-29T19:52:02:285
-1,514657	4,555934	8,827123	2020-10-29T19:52:02:286
-1,596013	4,551149	8,930015	2020-10-29T19:52:02:301
-1,529014	4,579862	9,064013	2020-10-29T19:52:02:323
-2,210968	4,476971	9,317651	2020-10-29T19:52:02:341
-1,940579	4,424329	9,308081	2020-10-29T19:52:02:363
-1,911865	3,885944	9,274581	2020-10-29T19:52:02:382
-2,017149	3,608376	9,432507	2020-10-29T19:52:02:403
-2,038685	3,383451	9,241080	2020-10-29T19:52:02:421
-1,988436	3,247060	8,922836	2020-10-29T19:52:02:443
-1,947758	3,022135	8,757731	2020-10-29T19:52:02:462
-1,866402	2,998207	8,874979	2020-10-29T19:52:02:483
-1,923829	2,921637	8,836694	2020-10-29T19:52:02:501
-2,172683	3,017349	8,630912	2020-10-29T19:52:02:523
-2,356930	2,988636	8,681160	2020-10-29T19:52:02:541
-2,632105	2,830709	8,669197	2020-10-29T19:52:02:563
-2,830709	2,557927	8,544770	2020-10-29T19:52:02:582
-2,864209	2,364109	8,338986	2020-10-29T19:52:02:603
-2,560320	2,431108	7,982457	2020-10-29T19:52:02:621
-2,218147	2,215754	8,240881	2020-10-29T19:52:02:643
-2,036292	2,179861	8,621340	2020-10-29T19:52:02:661
-1,897508	2,653640	8,721838	2020-10-29T19:52:02:683
-2,031506	2,890530	8,740981	2020-10-29T19:52:02:702
-1,988436	2,943172	8,724231	2020-10-29T19:52:02:723
-1,909473	2,871387	9,056834	2020-10-29T19:52:02:741
-1,983650	2,955136	8,949157	2020-10-29T19:52:02:763
-2,234896	3,259024	8,532805	2020-10-29T19:52:02:785
-2,136791	3,373880	8,090133	2020-10-29T19:52:02:803
-2,206182	3,302095	7,913064	2020-10-29T19:52:02:822
-2,067399	3,194418	7,795816	2020-10-29T19:52:02:843
-1,969293	3,079563	7,487142	2020-10-29T19:52:02:861
-2,000400	2,895315	7,554141	2020-10-29T19:52:02:883
-2,000400	2,821138	7,446464	2020-10-29T19:52:02:902
-2,115255	2,773281	7,420143	2020-10-29T19:52:02:923
-2,325824	2,505285	7,240681	2020-10-29T19:52:02:943
-2,371287	2,627320	6,898508	2020-10-29T19:52:02:963
-2,395216	2,421536	6,539584	2020-10-29T19:52:02:982
-2,426322	1,895115	6,360123	2020-10-29T19:52:03:004
-2,708675	1,598405	6,465407	2020-10-29T19:52:03:022
-2,749353	1,574477	6,446264	2020-10-29T19:52:03:043
-2,859423	1,371087	6,257231	2020-10-29T19:52:03:062
-2,988636	1,184447	6,300302	2020-10-29T19:52:03:084
-3,177669	1,079163	5,941379	2020-10-29T19:52:03:103
-3,029313	1,024128	5,429315	2020-10-29T19:52:03:124
-3,357130	0,650848	4,783253	2020-10-29T19:52:03:142
-3,610770	0,014357	3,955336	2020-10-29T19:52:03:163
-4,106083	-0,574277	3,223132	2020-10-29T19:52:03:182
-4,931608	-1,624727	2,694318	2020-10-29T19:52:03:204
-5,843273	-2,892922	2,414358	2020-10-29T19:52:03:222
-7,520642	-5,192425	3,613162	2020-10-29T19:52:03:244
-9,571291	-8,362915	5,276174	2020-10-29T19:52:03:262
-10,844273	-10,631311	7,099504	2020-10-29T19:52:03:284
-12,248858	-11,684153	8,439486	2020-10-29T19:52:03:302
-12,890135	-9,702895	8,185846	2020-10-29T19:52:03:324
-12,076575	-6,668797	6,221339	2020-10-29T19:52:03:342
-12,535997	-6,419943	4,079762	2020-10-29T19:52:03:364
-11,566904	-6,407979	0,435494	2020-10-29T19:52:03:382
-13,715660	1,684547	4,582255	2020-10-29T19:52:03:404
-15,412170	-3,438486	1,962115	2020-10-29T19:52:03:422
-14,404793	-12,134004	2,191825	2020-10-29T19:52:03:444
-12,636496	-10,741381	2,318645	2020-10-29T19:52:03:462
-11,375479	-5,726025	1,584049	2020-10-29T19:52:03:484
-9,769895	-4,630112	0,978664	2020-10-29T19:52:03:502
-8,243275	-4,776074	1,103091	2020-10-29T19:52:03:524
-7,704889	-3,818945	1,686940	2020-10-29T19:52:03:544
-7,578069	-3,192025	2,347359	2020-10-29T19:52:03:565
-7,585248	-3,450450	2,574677	2020-10-29T19:52:03:592
-8,384450	-4,182654	2,395216	2020-10-29T19:52:03:768
-9,616754	-4,804788	2,548356	2020-10-29T19:52:03:769
-10,616954	-5,077570	2,632105	2020-10-29T19:52:03:770
-11,452050	-4,969893	2,627320	2020-10-29T19:52:03:771
-11,542977	-4,907679	2,651247	2020-10-29T19:52:03:771
-10,872985	-4,981857	2,847459	2020-10-29T19:52:03:773
-10,040283	-5,752346	3,450450	2020-10-29T19:52:03:774
-9,473185	-4,622933	3,175276	2020-10-29T19:52:03:775
-9,597611	-3,117848	3,117848	2020-10-29T19:52:03:775
-9,879964	-3,134598	3,263810	2020-10-29T19:52:03:824
-10,547562	-3,929015	3,175276	2020-10-29T19:52:03:825
-11,052447	-3,328416	3,397808	2020-10-29T19:52:03:826
-11,478370	-3,428915	3,038885	2020-10-29T19:52:03:847
-9,492328	-4,342973	-0,074178	2020-10-29T19:52:03:863
-12,119646	-6,123233	-1,320838	2020-10-29T19:52:03:885
-10,729417	6,764510	1,217947	2020-10-29T19:52:03:907
-9,887143	6,324231	0,713061	2020-10-29T19:52:03:927
-10,363315	-1,995614	2,861816	2020-10-29T19:52:03:944
-10,655239	-1,976472	2,679961	2020-10-29T19:52:03:966
-10,707881	-3,823731	2,014757	2020-10-29T19:52:03:984
-9,777073	-4,670790	0,784846	2020-10-29T19:52:04:007
-9,552148	-5,936593	0,354138	2020-10-29T19:52:04:024
-9,669396	-6,364908	0,923629	2020-10-29T19:52:04:046
-10,329816	-4,520042	1,411765	2020-10-29T19:52:04:064
-10,451849	-3,081956	1,639083	2020-10-29T19:52:04:087
-10,135997	-2,328217	2,182254	2020-10-29T19:52:04:105
-10,193424	-1,562513	2,220540	2020-10-29T19:52:04:126
-11,062018	-0,696311	1,696511	2020-10-29T19:52:04:145
-12,246466	-0,387637	1,978864	2020-10-29T19:52:04:175
-11,076375	-0,385244	2,828316	2020-10-29T19:52:04:184
-9,255438	-0,368495	2,926422	2020-10-29T19:52:04:210
-8,781659	-0,674776	3,184847	2020-10-29T19:52:04:226
-7,877172	-1,507478	3,369094	2020-10-29T19:52:04:273
-6,616155	-1,988436	3,469593	2020-10-29T19:52:04:274
-5,436492	-1,966900	3,268596	2020-10-29T19:52:04:286
-5,134997	-2,115255	3,093920	2020-10-29T19:52:04:311
-5,955735	-2,447858	3,019742	2020-10-29T19:52:04:327
-7,288538	-2,385644	3,156133	2020-10-29T19:52:04:344
-8,255238	-2,005185	3,287738	2020-10-29T19:52:04:367
-8,810372	-1,383051	3,333202	2020-10-29T19:52:04:385
-9,257831	-0,823131	3,151347	2020-10-29T19:52:04:408
-9,377472	-0,602991	2,964707	2020-10-29T19:52:04:424
-9,073583	-0,753739	2,481357	2020-10-29T19:52:04:447
-8,762517	-1,103091	1,844866	2020-10-29T19:52:04:465
-8,551948	-1,339981	1,330409	2020-10-29T19:52:04:488
-8,417950	-1,531406	1,007378	2020-10-29T19:52:04:505
-8,652447	-1,923829	1,222732	2020-10-29T19:52:04:527
-9,049655	-2,584249	1,485943	2020-10-29T19:52:04:545
-9,461221	-3,349952	1,859223	2020-10-29T19:52:04:571
-9,647861	-3,917051	2,452643	2020-10-29T19:52:04:592
-9,253045	-1,098306	3,852444	2020-10-29T19:52:17:088
-9,856036	-1,318445	4,012764	2020-10-29T19:52:17:149
-9,872787	-1,284946	4,431508	2020-10-29T19:52:17:151
-9,777073	-0,990629	4,663611	2020-10-29T19:52:17:153
-9,559326	-0,356531	3,878766	2020-10-29T19:52:17:158
-9,044869	0,162712	2,993421	2020-10-29T19:52:17:175
-8,463413	0,196211	2,359323	2020-10-29T19:52:17:191
-8,116454	-0,327817	2,373680	2020-10-29T19:52:17:217
-8,709875	-0,703490	2,974278	2020-10-29T19:52:17:232
-9,554541	-0,993021	4,290331	2020-10-29T19:52:17:257
-10,258030	-1,203590	4,871787	2020-10-29T19:52:17:274
-10,691131	-1,789831	4,472186	2020-10-29T19:52:17:297
-10,755738	-3,115455	4,060620	2020-10-29T19:52:17:312
-10,564312	-4,223332	3,723232	2020-10-29T19:52:17:336
-10,229317	-4,826324	3,428915	2020-10-29T19:52:17:352
-9,824929	-5,130211	3,364309	2020-10-29T19:52:17:376
-9,332008	-5,304887	3,517449	2020-10-29T19:52:17:393
-8,872586	-5,410172	3,838088	2020-10-29T19:52:17:416
-8,417950	-4,972286	3,864408	2020-10-29T19:52:17:432
-8,389235	-4,249653	3,550949	2020-10-29T19:52:17:456
-8,214561	-3,838088	3,608376	2020-10-29T19:52:17:472
-8,011170	-3,560520	3,993621	2020-10-29T19:52:17:496
-8,511270	-3,546163	4,096512	2020-10-29T19:52:17:512
-10,509278	-3,969693	3,455236	2020-10-29T19:52:17:535
-14,143975	-4,347759	3,467200	2020-10-29T19:52:17:551
-13,746766	-5,455636	3,333202	2020-10-29T19:52:17:576
-12,612568	-6,120840	2,696711	2020-10-29T19:52:17:592
-10,521241	-7,616355	2,266003	2020-10-29T19:52:17:615
-9,437292	-7,946564	1,885544	2020-10-29T19:52:17:632
-10,155140	-7,396214	1,694118	2020-10-29T19:52:17:655
-11,002198	-7,118648	1,691726	2020-10-29T19:52:17:672
-11,475977	-6,467800	1,282553	2020-10-29T19:52:17:695
-11,825329	-5,764310	0,856631	2020-10-29T19:52:17:711
-11,657832	-5,513064	0,260818	2020-10-29T19:52:17:735
-11,538191	-5,467600	0,047856	2020-10-29T19:52:17:752
-11,014162	-5,041678	-0,337388	2020-10-29T19:52:17:775
-10,667203	-4,510471	-0,191426	2020-10-29T19:52:17:792
-10,368099	-4,414758	0,509671	2020-10-29T19:52:17:816
-9,951750	-4,266403	1,375873	2020-10-29T19:52:17:832
-9,987641	-4,051049	1,552942	2020-10-29T19:52:17:856
-10,298709	-3,443272	1,371087	2020-10-29T19:52:17:875
-10,394422	-3,364309	1,483550	2020-10-29T19:52:17:896
-9,911072	-3,464807	1,471586	2020-10-29T19:52:17:912
-9,265009	-3,608376	1,507478	2020-10-29T19:52:17:935
-8,965906	-3,108276	1,646262	2020-10-29T19:52:17:952
-8,750552	-2,452643	2,304288	2020-10-29T19:52:17:976
-8,362915	-2,129612	2,550749	2020-10-29T19:52:17:992
-7,841280	-1,615155	2,667997	2020-10-29T19:52:18:016
-7,293324	-1,493121	2,416751	2020-10-29T19:52:18:032
-6,798009	-1,368695	2,242075	2020-10-29T19:52:18:056
-6,726225	-1,184447	2,177469	2020-10-29T19:52:18:073
-6,876972	-1,363909	2,237289	2020-10-29T19:52:18:096
-6,881758	-1,454836	2,203789	2020-10-29T19:52:18:115
-6,953543	-1,351945	2,031506	2020-10-29T19:52:18:136
-6,996613	-1,445265	1,964507	2020-10-29T19:52:18:152
-7,049256	-1,670190	1,887937	2020-10-29T19:52:18:176
-8,346166	-1,517050	0,981057	2020-10-29T19:52:18:193
-10,923235	-1,761117	0,904487	2020-10-29T19:52:18:218
-12,179466	-2,455036	0,579063	2020-10-29T19:52:18:232
-13,198811	-2,553142	0,531207	2020-10-29T19:52:18:255
-12,576675	-3,129812	0,940379	2020-10-29T19:52:18:272
-11,322837	-3,998406	1,256232	2020-10-29T19:52:18:297
-11,736795	-3,816552	1,557728	2020-10-29T19:52:18:312
-12,497713	-4,086941	2,438286	2020-10-29T19:52:18:335
-12,792030	-4,386044	3,177669	2020-10-29T19:52:18:354
-12,669996	-4,591826	3,493521	2020-10-29T19:52:18:376
-11,765509	-4,668397	3,323631	2020-10-29T19:52:18:393
-10,415956	-4,412365	2,871387	2020-10-29T19:52:18:416
-9,418150	-3,641876	2,222932	2020-10-29T19:52:18:432
-9,147761	-2,567499	1,512264	2020-10-29T19:52:18:456
-9,030513	-1,552942	0,598206	2020-10-29T19:52:18:473
-9,188439	-1,103091	0,129212	2020-10-29T19:52:18:496
-9,525827	-1,775474	0,162712	2020-10-29T19:52:18:512
-9,791430	-2,263610	0,622134	2020-10-29T19:52:18:536
-9,466006	-2,790031	1,182054	2020-10-29T19:52:18:553
-9,169296	-3,390630	1,514657	2020-10-29T19:52:18:576
-8,807980	-3,744767	1,768296	2020-10-29T19:52:18:594
-8,501699	-3,694518	1,737189	2020-10-29T19:52:18:616
-8,446664	-3,527020	1,639083	2020-10-29T19:52:18:632
-8,456236	-3,531806	1,631905	2020-10-29T19:52:18:656
-8,219346	-3,591627	1,579263	2020-10-29T19:52:18:674
-8,011170	-3,426522	1,529014	2020-10-29T19:52:18:696
-7,838887	-3,086741	1,708475	2020-10-29T19:52:18:714
-8,039884	-3,043670	2,189433	2020-10-29T19:52:18:736
-8,370094	-3,156133	2,462214	2020-10-29T19:52:18:754
-9,109475	-3,158526	2,756532	2020-10-29T19:52:18:777
-9,623933	-3,560520	3,069991	2020-10-29T19:52:18:794
-9,918249	-4,086941	3,617948	2020-10-29T19:52:18:816
-10,569098	-4,311867	4,141976	2020-10-29T19:52:18:836
-13,607983	-4,386044	5,314459	2020-10-29T19:52:18:856
-14,861821	-4,500899	5,843273	2020-10-29T19:52:18:875
-14,285151	-3,828516	5,446064	2020-10-29T19:52:18:898
-12,337393	-3,275774	5,103891	2020-10-29T19:52:18:914
-9,611969	-2,916851	4,376472	2020-10-29T19:52:18:937
-9,020942	-2,639283	3,909872	2020-10-29T19:52:18:954
-9,944571	-2,361716	3,984050	2020-10-29T19:52:18:976
-11,062018	-2,471786	3,761517	2020-10-29T19:52:18:994
-11,973685	-2,514857	3,046063	2020-10-29T19:52:19:019
-11,930614	-2,471786	2,371287	2020-10-29T19:52:19:034
-11,641083	-2,452643	2,129612	2020-10-29T19:52:19:056
-11,715261	-2,141576	2,110470	2020-10-29T19:52:19:075
-11,655439	-1,617548	2,390430	2020-10-29T19:52:19:097
-11,514263	-1,318445	2,471786	2020-10-29T19:52:19:114
-10,789237	-1,399801	2,507678	2020-10-29T19:52:19:136
-10,269995	-1,701297	2,239682	2020-10-29T19:52:19:154
-9,954143	-1,947758	1,718047	2020-10-29T19:52:19:177
-10,023535	-1,916651	1,217947	2020-10-29T19:52:19:194
-10,061819	-2,084148	0,976272	2020-10-29T19:52:19:217
-9,978070	-2,275574	0,772882	2020-10-29T19:52:19:234
-10,016356	-2,251646	0,880559	2020-10-29T19:52:19:257
-9,745967	-2,038685	1,055235	2020-10-29T19:52:19:274
-9,707682	-1,962115	1,454836	2020-10-29T19:52:19:296
-9,789038	-2,112862	1,641476	2020-10-29T19:52:19:315
-9,523434	-1,926222	1,524228	2020-10-29T19:52:19:337
-9,052048	-1,909473	1,241875	2020-10-29T19:52:19:353
-8,501699	-2,005185	1,258625	2020-10-29T19:52:19:390
-8,183454	-2,280360	1,701297	2020-10-29T19:52:19:398
-7,755138	-2,514857	2,483750	2020-10-29T19:52:19:417
-7,295716	-3,108276	3,266203	2020-10-29T19:52:19:434
-6,814759	-3,479164	3,694518	2020-10-29T19:52:19:458
-6,108876	-3,488736	3,424129	2020-10-29T19:52:19:474
-6,673582	-3,792624	2,864209	2020-10-29T19:52:19:498
-7,946564	-4,371687	2,694318	2020-10-29T19:52:19:514
-8,659625	-4,366901	2,986243	2020-10-29T19:52:19:536
-8,133204	-4,173083	3,019742	2020-10-29T19:52:19:555
-7,910671	-4,601398	3,297310	2020-10-29T19:52:19:578
-7,999206	-5,441278	3,527020	2020-10-29T19:52:19:594
-8,350951	-5,836094	3,601198	2020-10-29T19:52:19:618
-8,513663	-6,302694	3,739982	2020-10-29T19:52:19:634
-8,472985	-6,496514	3,984050	2020-10-29T19:52:19:657
-8,484949	-6,573084	4,120440	2020-10-29T19:52:19:675
-8,405986	-6,111269	4,113262	2020-10-29T19:52:19:697
-8,066205	-5,568098	3,871587	2020-10-29T19:52:19:714
-7,721639	-4,579862	3,964907	2020-10-29T19:52:19:739
-7,503892	-3,483950	3,854837	2020-10-29T19:52:19:754
-7,570890	-3,043670	3,479164	2020-10-29T19:52:19:777
-7,716853	-2,955136	3,177669	2020-10-29T19:52:19:797
-7,879565	-2,947958	3,208775	2020-10-29T19:52:19:819
-8,477771	-3,170490	3,024528	2020-10-29T19:52:19:834
-9,466006	-3,337988	3,215954	2020-10-29T19:52:19:858
-8,755339	-3,352344	3,261417	2020-10-29T19:52:19:874
-7,891530	-3,022135	3,237489	2020-10-29T19:52:19:899
-7,015756	-2,809174	3,151347	2020-10-29T19:52:19:914
-7,341179	-2,648855	2,837888	2020-10-29T19:52:19:937
-8,501699	-2,426322	3,069991	2020-10-29T19:52:19:954
-8,214561	-2,311467	3,450450	2020-10-29T19:52:19:980
-7,147361	-2,074577	2,835495	2020-10-29T19:52:19:995
-7,166504	-2,361716	2,110470	2020-10-29T19:52:20:017
-7,398607	-2,830709	2,182254	2020-10-29T19:52:20:035
-7,623533	-2,742175	2,371287	2020-10-29T19:52:20:058
-7,372287	-2,574677	2,074577	2020-10-29T19:52:20:074
-6,891330	-3,192025	1,971686	2020-10-29T19:52:20:098
-6,967900	-3,938586	2,143969	2020-10-29T19:52:20:114
-7,168896	-3,395415	2,768496	2020-10-29T19:52:20:138
-7,635497	-1,990828	3,194418	2020-10-29T19:52:20:155
-7,869993	-1,306481	3,407379	2020-10-29T19:52:20:178
-7,735995	-2,163112	3,658626	2020-10-29T19:52:20:195
-7,276574	-2,368894	3,512664	2020-10-29T19:52:20:218
-7,185646	-2,624927	3,809374	2020-10-29T19:52:20:235
-6,865008	-4,890929	3,335595	2020-10-29T19:52:20:258
-7,003791	-5,443672	3,503092	2020-10-29T19:52:20:276
-7,786245	-5,529813	3,615555	2020-10-29T19:52:20:299
-9,927821	-5,596812	3,672983	2020-10-29T19:52:20:315
-10,143176	-6,065805	2,871387	2020-10-29T19:52:20:338
-10,475778	-5,412565	2,359323	2020-10-29T19:52:20:355
-11,377872	-3,424129	1,830509	2020-10-29T19:52:20:379
-11,114661	-2,263610	1,808974	2020-10-29T19:52:20:395
-10,004392	-5,201996	4,242475	2020-10-29T19:52:20:417
-12,330215	-5,876772	7,365108	2020-10-29T19:52:20:434
-11,641083	-6,549156	5,434100	2020-10-29T19:52:20:458
-9,181261	-5,580062	1,663012	2020-10-29T19:52:20:475
-8,307880	-3,388237	0,765703	2020-10-29T19:52:20:498
-9,178867	-3,096312	1,875973	2020-10-29T19:52:20:516
-8,346166	-3,735196	1,732404	2020-10-29T19:52:20:538
-7,824530	-4,878965	0,220140	2020-10-29T19:52:20:554
-7,353144	-5,601598	0,411566	2020-10-29T19:52:20:578
-7,948956	-6,496514	2,909672	2020-10-29T19:52:20:595
-7,649854	-6,994221	3,136991	2020-10-29T19:52:20:618
-6,798009	-7,465607	1,052842	2020-10-29T19:52:20:635
-7,168896	-7,001399	0,983450	2020-10-29T19:52:20:658
-8,164310	-6,886543	2,081756	2020-10-29T19:52:20:675
-8,532805	-6,599405	1,899901	2020-10-29T19:52:20:699
-7,922636	-6,106483	0,660419	2020-10-29T19:52:20:715
-7,283752	-5,407779	0,337388	2020-10-29T19:52:20:737
-8,001599	-5,965307	1,816152	2020-10-29T19:52:20:756
-7,580462	-4,917251	0,959522	2020-10-29T19:52:20:780
-7,994420	-6,977471	3,254239	2020-10-29T19:52:20:795
-7,164111	-7,925028	3,105884	2020-10-29T19:52:20:818
-6,764510	-8,807980	2,019542	2020-10-29T19:52:20:835
-6,879365	-5,814559	0,705883	2020-10-29T19:52:20:859
-7,484749	-6,238089	1,160519	2020-10-29T19:52:20:875
-7,872386	-6,865008	2,218147	2020-10-29T19:52:20:898
-7,975278	-6,422336	1,639083	2020-10-29T19:52:20:915
-7,872386	-6,482157	1,837688	2020-10-29T19:52:20:939
-7,968100	-5,572884	1,351945	2020-10-29T19:52:20:955
-7,759924	-5,654240	1,485943	2020-10-29T19:52:20:978
-7,733603	-6,130411	1,773082	2020-10-29T19:52:20:996
-8,140383	-6,616155	2,548356	2020-10-29T19:52:21:020
-7,456036	-5,864808	2,586641	2020-10-29T19:52:21:035
-7,475177	-6,654440	1,110270	2020-10-29T19:52:21:058
-7,188039	-7,293324	1,296910	2020-10-29T19:52:21:076
-7,372287	-6,745367	1,593620	2020-10-29T19:52:21:100
-8,121240	-5,960521	1,741975	2020-10-29T19:52:21:115
-8,516055	-5,979663	1,684547	2020-10-29T19:52:21:138
-8,444271	-6,829116	1,136591	2020-10-29T19:52:21:155
-8,863015	-7,082755	1,071985	2020-10-29T19:52:21:179
-9,023334	-7,068398	1,062413	2020-10-29T19:52:21:196
-9,198010	-7,781459	1,478764	2020-10-29T19:52:21:218
-9,320045	-6,695118	1,605584	2020-10-29T19:52:21:236
-9,817751	-5,283352	1,636691	2020-10-29T19:52:21:259
-9,375079	-5,632704	2,593820	2020-10-29T19:52:21:276
-8,571091	-6,230910	1,883151	2020-10-29T19:52:21:299
-8,587841	-7,970492	1,325624	2020-10-29T19:52:21:315
-8,303094	-7,446464	0,825524	2020-10-29T19:52:21:339
-7,920243	-5,709275	1,753939	2020-10-29T19:52:21:356
-8,133204	-6,800402	2,969493	2020-10-29T19:52:21:380
-7,891530	-7,958528	2,263610	2020-10-29T19:52:21:396
-7,511070	-6,970293	1,261017	2020-10-29T19:52:21:419
-7,439285	-5,737988	1,335195	2020-10-29T19:52:21:436
-8,082954	-5,379066	1,718047	2020-10-29T19:52:21:459
-8,657232	-4,539185	2,055435	2020-10-29T19:52:21:477
-8,616554	-4,398008	1,143769	2020-10-29T19:52:21:500
-8,561519	-4,266403	0,945165	2020-10-29T19:52:21:516
-8,307880	-7,408179	0,641276	2020-10-29T19:52:21:539
-8,453842	-7,874779	0,483350	2020-10-29T19:52:21:556
-8,879765	-5,848059	0,256032	2020-10-29T19:52:21:579
-8,941978	-3,582055	0,117248	2020-10-29T19:52:21:596
-8,379664	-3,773481	-0,222532	2020-10-29T19:52:21:619
-8,537591	-3,546163	0,057428	2020-10-29T19:52:21:636
-8,920443	-3,706482	0,265603	2020-10-29T19:52:21:660
-9,420543	-4,364508	0,272782	2020-10-29T19:52:21:676
-10,334601	-4,768896	0,440279	2020-10-29T19:52:21:699
-10,954341	-5,584848	0,466600	2020-10-29T19:52:21:717
-12,040684	-5,931807	1,244268	2020-10-29T19:52:21:739
-13,414164	-5,704489	2,179861	2020-10-29T19:52:21:756
-14,088940	-4,902894	2,467000	2020-10-29T19:52:21:779
-14,455042	-4,084548	2,388037	2020-10-29T19:52:21:796
-13,536198	-2,615355	1,131805	2020-10-29T19:52:21:820
-12,122040	-0,746561	0,045464	2020-10-29T19:52:21:836
-9,997212	-0,686740	-1,115055	2020-10-29T19:52:21:859
-9,616754	-0,715454	-0,126820	2020-10-29T19:52:21:876
-10,389636	-1,761117	2,562713	2020-10-29T19:52:21:900
-10,662418	-1,770689	3,280560	2020-10-29T19:52:21:916
-11,078769	-0,150748	3,996014	2020-10-29T19:52:21:939
-10,214959	-0,574277	5,692525	2020-10-29T19:52:21:957
-10,511670	-2,443072	5,027320	2020-10-29T19:52:21:980
-10,494920	-3,993621	3,751946	2020-10-29T19:52:21:996
-9,236296	-3,598805	2,641676	2020-10-29T19:52:22:019
-8,382057	-1,536192	1,864009	2020-10-29T19:52:22:036
-8,027920	1,189233	1,146162	2020-10-29T19:52:22:060
-7,238289	1,818545	1,251446	2020-10-29T19:52:22:076
-6,716653	1,040878	1,246661	2020-10-29T19:52:22:099
-6,113662	0,985843	0,638884	2020-10-29T19:52:22:116
-5,855237	1,569692	0,454636	2020-10-29T19:52:22:141
-6,379266	1,466800	1,184447	2020-10-29T19:52:22:156
-7,329216	0,385244	2,510071	2020-10-29T19:52:22:179
-8,245667	-0,768096	3,799802	2020-10-29T19:52:22:198
-8,444271	-2,009971	4,043870	2020-10-29T19:52:22:220
-7,216753	-3,369094	4,048656	2020-10-29T19:52:22:236
-5,766702	-4,098906	4,606184	2020-10-29T19:52:22:259
-5,257031	-4,003192	4,955536	2020-10-29T19:52:22:277
-4,941179	-3,517449	4,654040	2020-10-29T19:52:22:300
-4,443472	-3,230310	3,988836	2020-10-29T19:52:22:317
-4,003192	-2,837888	3,555735	2020-10-29T19:52:22:339
-3,864408	-2,526821	3,594020	2020-10-29T19:52:22:356
-4,208975	-2,311467	4,393222	2020-10-29T19:52:22:380
-4,539185	-1,825724	4,948357	2020-10-29T19:52:22:397
-4,773681	-1,320838	4,957928	2020-10-29T19:52:22:419
-5,209175	-0,636491	4,187439	2020-10-29T19:52:22:438
-5,709275	-0,157926	3,117848	2020-10-29T19:52:22:460
-5,965307	-0,267996	1,701297	2020-10-29T19:52:22:477
-6,230910	-0,993021	1,560120	2020-10-29T19:52:22:500
-6,661618	-1,753939	2,318645	2020-10-29T19:52:22:517
-7,391429	-1,954936	2,904887	2020-10-29T19:52:22:540
-8,197811	-2,065006	3,146562	2020-10-29T19:52:22:557
-8,779266	-2,182254	3,055635	2020-10-29T19:52:22:580
-9,164511	-2,464607	2,849852	2020-10-29T19:52:22:598
-9,559326	-2,708675	2,687140	2020-10-29T19:52:22:620
-10,147961	-2,880959	2,663212	2020-10-29T19:52:22:637
-10,956735	-2,952743	2,108077	2020-10-29T19:52:22:660
-13,502698	-2,646462	1,256232	2020-10-29T19:52:22:678
-18,522840	-2,878566	0,703490	2020-10-29T19:52:22:701
-22,037897	-3,476771	1,119841	2020-10-29T19:52:22:717
-21,154945	-3,905087	2,163112	2020-10-29T19:52:22:740
-19,173687	-4,529613	3,445665	2020-10-29T19:52:22:757
-14,495720	-4,582255	4,041477	2020-10-29T19:52:22:781
-10,064213	-4,151547	4,539185	2020-10-29T19:52:22:797
-8,317451	-3,756732	5,146961	2020-10-29T19:52:22:820
-8,166703	-2,792424	5,137390	2020-10-29T19:52:22:837
-8,027920	-2,246860	3,749553	2020-10-29T19:52:22:861
-8,518449	-2,153540	2,148755	2020-10-29T19:52:22:877
-9,030513	-1,557728	1,509871	2020-10-29T19:52:22:900
-10,059426	-0,019143	0,428315	2020-10-29T19:52:22:918
-10,815558	1,184447	-0,421137	2020-10-29T19:52:22:940
-10,447062	1,062413	-1,380659	2020-10-29T19:52:22:957
-8,865408	-1,670190	-1,387837	2020-10-29T19:52:22:981
-8,468199	-2,895315	-1,076770	2020-10-29T19:52:22:997
-6,786045	-5,015356	-0,284746	2020-10-29T19:52:23:021
-5,785845	-5,465207	0,177069	2020-10-29T19:52:23:037
-5,718846	-5,737988	0,988236	2020-10-29T19:52:23:060
-6,257231	-5,249853	1,799403	2020-10-29T19:52:23:079
-6,943972	-4,342973	2,134398	2020-10-29T19:52:23:101
-7,386643	-3,565305	2,189433	2020-10-29T19:52:23:117
-7,494320	-2,919244	2,371287	2020-10-29T19:52:23:140
-7,513463	-2,431108	2,648855	2020-10-29T19:52:23:159
-7,939385	-2,230111	3,893122	2020-10-29T19:52:23:181
-7,733603	-2,258825	4,405186	2020-10-29T19:52:23:198
-7,527820	-1,462015	2,371287	2020-10-29T19:52:23:220
-7,996813	-4,596612	1,179662	2020-10-29T19:52:23:237
-8,420342	-7,810174	3,036492	2020-10-29T19:52:23:262
-8,937192	-8,042276	5,883951	2020-10-29T19:52:23:278
-8,563912	-7,401000	7,374680	2020-10-29T19:52:23:300
-8,228917	-7,262216	7,207181	2020-10-29T19:52:23:318
-7,915457	-8,130811	6,920043	2020-10-29T19:52:23:342
-9,413363	-9,049655	7,451250	2020-10-29T19:52:23:358
-10,829915	-10,669596	8,961121	2020-10-29T19:52:23:385
-10,274779	-11,485549	8,441878	2020-10-29T19:52:23:400
-10,540384	-11,133803	8,073383	2020-10-29T19:52:23:421
-9,966106	-9,607183	7,159326	2020-10-29T19:52:23:437
-8,906086	-8,142776	6,314659	2020-10-29T19:52:23:478
-7,920243	-7,460821	5,448457	2020-10-29T19:52:23:479
-7,743174	-7,551748	4,637290	2020-10-29T19:52:23:502
-7,869993	-8,178668	3,795017	2020-10-29T19:52:23:517
-8,669197	-8,379664	2,883351	2020-10-29T19:52:23:541
-9,552148	-9,090333	2,478964	2020-10-29T19:52:23:556
-10,652846	-10,291530	2,861816	2020-10-29T19:52:23:581
-10,578669	-10,593026	2,017149	2020-10-29T19:52:23:598
-10,004392	-10,408779	1,294517	2020-10-29T19:52:23:620
-9,487542	-9,882358	0,861416	2020-10-29T19:52:23:639
-9,257831	-9,769895	0,906880	2020-10-29T19:52:23:662
-9,032906	-9,817751	1,167697	2020-10-29T19:52:23:678
-9,047262	-9,872787	1,660619	2020-10-29T19:52:23:701
-9,712467	-10,688738	2,340181	2020-10-29T19:52:23:718
-9,934999	-10,676775	2,053042	2020-10-29T19:52:23:741
-9,635897	-9,700503	1,512264	2020-10-29T19:52:23:758
-9,169296	-8,997013	0,954736	2020-10-29T19:52:23:781
-8,618947	-8,252845	1,165305	2020-10-29T19:52:23:798
-7,764710	-7,010970	1,493121	2020-10-29T19:52:23:822
-6,874579	-5,716454	1,416551	2020-10-29T19:52:23:838
-6,202196	-4,957928	1,237089	2020-10-29T19:52:23:861
-5,637490	-4,505685	1,141376	2020-10-29T19:52:23:880
-5,178068	-3,881158	1,414158	2020-10-29T19:52:23:902
-4,890929	-3,326023	1,928615	2020-10-29T19:52:23:918
-4,838287	-2,928815	2,474179	2020-10-29T19:52:23:941
-5,072784	-2,957529	3,184847	2020-10-29T19:52:23:958
-5,070391	-3,074777	3,527020	2020-10-29T19:52:23:982
-5,582455	-3,232704	3,761517	2020-10-29T19:52:23:999
-5,680561	-2,574677	4,438686	2020-10-29T19:52:24:022
-6,209375	-2,770889	6,233303	2020-10-29T19:52:24:060
-6,262017	-2,696711	7,305287	2020-10-29T19:52:24:066
-6,245267	-2,402394	6,723832	2020-10-29T19:52:24:080
-5,982057	-3,692125	7,326823	2020-10-29T19:52:24:103
-5,534599	-5,692525	8,927622	2020-10-29T19:52:24:121
-5,197211	-7,123433	11,231910	2020-10-29T19:52:24:177
-5,237889	-7,424929	13,028918	2020-10-29T19:52:24:182
-6,084948	-7,243074	12,667603	2020-10-29T19:52:24:183
-5,927022	-5,804988	11,459228	2020-10-29T19:52:24:203
-5,704489	-6,075377	11,576476	2020-10-29T19:52:24:243
-5,158926	-7,233503	11,944970	2020-10-29T19:52:24:244
-4,503292	-9,190832	12,507284	2020-10-29T19:52:24:261
-3,541377	-10,432706	12,892529	2020-10-29T19:52:24:278
-2,548356	-10,861022	12,512069	2020-10-29T19:52:24:309
-1,124627	-9,755538	11,162518	2020-10-29T19:52:24:317
0,449851	-8,269595	9,542577	2020-10-29T19:52:24:340
1,808974	-8,018349	8,528020	2020-10-29T19:52:24:360
3,326023	-6,735795	7,700103	2020-10-29T19:52:24:383
3,771089	-5,371887	6,271588	2020-10-29T19:52:24:399
3,888337	-4,697111	4,321437	2020-10-29T19:52:24:421
3,711268	-3,938586	2,691926	2020-10-29T19:52:24:438
4,278367	-2,591427	0,940379	2020-10-29T19:52:24:462
4,646862	-0,988236	-0,323031	2020-10-29T19:52:24:479
4,814359	-0,468993	-1,055235	2020-10-29T19:52:24:502
5,213961	-0,382852	-1,500300	2020-10-29T19:52:24:519
5,702096	0,569492	-1,823331	2020-10-29T19:52:24:542
6,159126	-0,830309	-2,598605	2020-10-29T19:52:24:559
6,443871	-2,299503	-3,067599	2020-10-29T19:52:24:582
6,903293	-1,485943	-2,148755	2020-10-29T19:52:24:600
6,539584	-0,993021	-0,267996	2020-10-29T19:52:24:623
6,283553	-2,648855	0,378066	2020-10-29T19:52:24:640
6,649654	-2,797210	-0,157926	2020-10-29T19:52:24:662
7,097112	-3,175276	-0,198604	2020-10-29T19:52:24:679
7,374680	-3,089134	0,531207	2020-10-29T19:52:24:704
8,918050	-3,242275	1,820938	2020-10-29T19:52:24:719
10,877771	-4,639683	3,364309	2020-10-29T19:52:24:742
11,516656	-6,970293	4,728218	2020-10-29T19:52:24:759
12,107682	-7,515855	5,242674	2020-10-29T19:52:24:783
10,698310	-7,642675	5,436492	2020-10-29T19:52:24:799
11,050055	-6,080163	3,651447	2020-10-29T19:52:24:821
12,227324	-5,862415	2,440679	2020-10-29T19:52:24:840
12,839886	-8,738588	2,849852	2020-10-29T19:52:24:863
12,205789	-8,973085	4,613362	2020-10-29T19:52:24:879
11,645866	-9,001799	5,599205	2020-10-29T19:52:24:903
11,129018	-10,013963	5,125426	2020-10-29T19:52:24:919
10,997414	-9,631111	4,113262	2020-10-29T19:52:24:944
10,169496	-8,516055	2,593820	2020-10-29T19:52:24:971
3,483950	-4,120440	8,690732	2020-10-29T19:52:25:700
3,735196	-4,481757	9,698111	2020-10-29T19:52:25:718
3,917051	-5,697310	10,841879	2020-10-29T19:52:25:719
4,084548	-6,410372	10,738988	2020-10-29T19:52:25:719
4,505685	-5,718846	9,707682	2020-10-29T19:52:25:720
4,601398	-4,512863	8,956335	2020-10-29T19:52:25:720
4,852644	-4,898108	8,106883	2020-10-29T19:52:25:721
5,044070	-5,302495	7,444071	2020-10-29T19:52:25:721
5,335995	-5,223531	6,582655	2020-10-29T19:52:26:043
6,094519	-5,199604	5,510671	2020-10-29T19:52:26:044
6,886543	-4,802395	3,720839	2020-10-29T19:52:26:045
7,601997	-4,230510	1,060020	2020-10-29T19:52:26:059
8,295916	-4,101298	-0,571885	2020-10-29T19:52:26:059
9,351151	-3,495914	-1,177269	2020-10-29T19:52:26:060
9,466006	-2,122434	-0,775275	2020-10-29T19:52:26:065
8,757731	-2,139183	0,007178	2020-10-29T19:52:26:066
8,441878	-4,321437	-0,114855	2020-10-29T19:52:26:066
8,358130	-4,596612	-0,399601	2020-10-29T19:52:26:070
8,391629	-2,002793	0,756132	2020-10-29T19:52:26:071
7,087541	-0,373280	2,266003	2020-10-29T19:52:26:071
7,786245	-1,524228	0,418744	2020-10-29T19:52:26:076
9,040084	-1,859223	-1,605584	2020-10-29T19:52:26:077
11,303694	-1,696511	-2,778067	2020-10-29T19:52:26:082
10,329816	-3,438486	-2,170290	2020-10-29T19:52:26:083
9,769895	-4,386044	-2,366502	2020-10-29T19:52:26:083
7,913064	-6,407979	-0,825524	2020-10-29T19:52:26:084
6,587440	-5,412565	-0,849452	2020-10-29T19:52:26:116
6,348158	-4,046263	-1,411765	2020-10-29T19:52:26:162
6,044270	-2,871387	-1,225125	2020-10-29T19:52:26:163
5,223531	-1,988436	-0,887737	2020-10-29T19:52:26:166
4,163511	-2,041078	-0,677169	2020-10-29T19:52:26:183
3,357130	-2,464607	-1,052842	2020-10-29T19:52:26:204
2,514857	-3,096312	-1,272982	2020-10-29T19:52:26:222
2,225325	-3,893122	-2,081756	2020-10-29T19:52:26:247
1,442872	-6,841080	-2,617748	2020-10-29T19:52:26:313
1,158126	-12,916457	-0,928415	2020-10-29T19:52:26:313
-0,141177	-17,084755	3,577270	2020-10-29T19:52:26:314
2,428715	-19,161724	5,649454	2020-10-29T19:52:26:325
3,192025	-24,229723	6,963113	2020-10-29T19:52:26:343
4,223332	-25,820951	7,621140	2020-10-29T19:52:26:368
3,065206	-26,371300	10,600205	2020-10-29T19:52:26:383
3,084348	-25,320850	12,638889	2020-10-29T19:52:26:399
3,433701	-19,984856	11,428121	2020-10-29T19:52:26:422
3,086741	-15,672989	8,645268	2020-10-29T19:52:26:443
2,438286	-11,442478	5,563312	2020-10-29T19:52:26:473
1,545763	-8,666803	3,299703	2020-10-29T19:52:26:483
0,382852	-7,307681	2,816352	2020-10-29T19:52:26:530
-0,643669	-5,489135	3,488736	2020-10-29T19:52:26:531
-1,478764	-3,749553	3,840480	2020-10-29T19:52:26:572
-1,904687	-2,545963	3,687340	2020-10-29T19:52:26:577
-1,706082	-1,596013	3,074777	2020-10-29T19:52:26:643
-1,665405	-0,835095	2,474179	2020-10-29T19:52:26:643
-1,768296	-0,612563	2,136791	2020-10-29T19:52:26:645
-1,995614	-0,521635	2,019542	2020-10-29T19:52:26:656
-2,177469	-0,629312	1,885544	2020-10-29T19:52:26:671
-2,383251	-0,528814	1,557728	2020-10-29T19:52:26:679
-3,972085	-0,911665	1,622334	2020-10-29T19:52:26:703
-4,941179	-0,607777	2,026721	2020-10-29T19:52:26:719
-5,235496	-0,306281	1,746760	2020-10-29T19:52:26:744
-6,439085	-0,820738	2,411965	2020-10-29T19:52:26:762
-6,836295	-1,301696	2,991028	2020-10-29T19:52:26:785
-7,525427	-2,005185	3,012564	2020-10-29T19:52:26:801
-8,910872	-3,220739	3,373880	2020-10-29T19:52:26:824
-9,616754	-4,110869	4,646862	2020-10-29T19:52:26:841
-10,315458	-4,187439	6,723832	2020-10-29T19:52:26:864
-10,296316	-3,385844	8,898908	2020-10-29T19:52:26:881
-9,322437	-2,696711	9,221939	2020-10-29T19:52:26:904
-9,054441	-2,270789	9,075976	2020-10-29T19:52:26:921
-8,977871	-0,997807	10,413565	2020-10-29T19:52:26:945
-9,315259	0,579063	13,373486	2020-10-29T19:52:26:961
-8,640482	1,622334	16,448263	2020-10-29T19:52:26:984
-8,800802	4,034299	18,209379	2020-10-29T19:52:27:003
-11,777473	3,170490	19,953749	2020-10-29T19:52:27:024
-14,359328	2,581856	17,694923	2020-10-29T19:52:27:041
-16,524832	6,872187	16,977077	2020-10-29T19:52:27:064
-15,838093	4,206582	16,441084	2020-10-29T19:52:27:082
-14,108082	2,543570	15,019747	2020-10-29T19:52:27:117
-13,270595	2,167897	13,251451	2020-10-29T19:52:27:140
-11,655439	1,533799	12,064612	2020-10-29T19:52:27:146
-10,243673	-0,263210	9,492328	2020-10-29T19:52:27:198
-8,858230	-2,074577	6,137590	2020-10-29T19:52:27:199
-6,381658	-2,780460	3,859623	2020-10-29T19:52:27:210
-3,931407	-2,251646	6,494121	2020-10-29T19:52:27:223
-2,510071	-1,818545	5,513064	2020-10-29T19:52:27:242
-2,309074	-0,751346	3,067599	2020-10-29T19:52:27:264
-2,196611	-0,856631	1,969293	2020-10-29T19:52:27:281
-2,342573	-2,522035	0,614955	2020-10-29T19:52:27:304
-2,280360	-2,955136	0,066999	2020-10-29T19:52:27:321
-1,895115	-2,847459	-0,981057	2020-10-29T19:52:27:345
-5,247460	-2,725425	-1,799403	2020-10-29T19:52:27:362
-6,376873	-2,933600	-1,942972	2020-10-29T19:52:27:387
-5,886343	-3,428915	-1,643869	2020-10-29T19:52:27:402
-6,068198	-3,364309	-1,275374	2020-10-29T19:52:27:426
-6,587440	-3,364309	-1,165305	2020-10-29T19:52:27:443
-7,211967	-2,675175	-0,387637	2020-10-29T19:52:27:465
-7,781459	-3,134598	0,392423	2020-10-29T19:52:27:483
-7,276574	-4,043870	1,009771	2020-10-29T19:52:27:507
-6,451050	-5,091926	2,333002	2020-10-29T19:52:27:522
-6,166305	-7,075576	4,031906	2020-10-29T19:52:27:546
-6,759724	-9,061620	4,974678	2020-10-29T19:52:27:562
-7,556533	-9,899107	4,687540	2020-10-29T19:52:27:588
-6,558727	-12,758532	4,876573	2020-10-29T19:52:27:602
-5,402994	-21,935005	7,006185	2020-10-29T19:52:27:628
-5,910272	-30,747770	17,312071	2020-10-29T19:52:27:641
-7,384251	-25,359137	16,383656	2020-10-29T19:52:27:669
-9,233903	-16,347765	12,394822	2020-10-29T19:52:27:682
-12,533605	-10,348958	11,033305	2020-10-29T19:52:27:705
-14,074582	-8,791230	9,985250	2020-10-29T19:52:27:723
-13,462020	-7,716853	10,782058	2020-10-29T19:52:27:746
-13,074384	-4,376472	11,289338	2020-10-29T19:52:27:762
-11,571690	-1,505085	11,282159	2020-10-29T19:52:27:785
-9,954143	-0,705883	11,188839	2020-10-29T19:52:27:802
-8,286345	-0,598206	9,489935	2020-10-29T19:52:27:826
-7,984849	-0,720240	7,130611	2020-10-29T19:52:27:842
-7,704889	-0,820738	5,072784	2020-10-29T19:52:27:865
-7,221539	-0,380459	3,897908	2020-10-29T19:52:27:882
-6,486942	0,076570	3,376273	2020-10-29T19:52:27:906
-5,544170	-0,148355	2,734996	2020-10-29T19:52:27:923
-4,706682	-0,148355	2,718246	2020-10-29T19:52:27:945
-4,637290	1,036092	3,723232	2020-10-29T19:52:27:963
-4,290331	2,361716	3,900301	2020-10-29T19:52:27:987
-3,668197	3,285345	3,799802	2020-10-29T19:52:28:002
-3,412165	3,282953	3,902694	2020-10-29T19:52:28:025
-3,869194	2,751746	4,254438	2020-10-29T19:52:28:042
-4,340580	1,933401	4,752146	2020-10-29T19:52:28:065
-5,733203	0,753739	4,912465	2020-10-29T19:52:28:082
-8,128418	-1,739582	5,517848	2020-10-29T19:52:28:106
-9,805787	-3,247060	6,537192	2020-10-29T19:52:28:122
-10,980663	-3,208775	7,671390	2020-10-29T19:52:28:146
-10,523634	-3,026921	8,578269	2020-10-29T19:52:28:165
-10,181459	-4,211368	10,138390	2020-10-29T19:52:28:247
-9,734003	-5,721239	11,526227	2020-10-29T19:52:28:248
-9,348758	-5,680561	11,105090	2020-10-29T19:52:28:253
-7,755138	-3,254239	9,236296	2020-10-29T19:52:28:254
-6,474977	-1,217947	8,293523	2020-10-29T19:52:28:268
-6,230910	-1,110270	8,831908	2020-10-29T19:52:28:284
-5,869594	-2,572284	9,954143	2020-10-29T19:52:28:305
-5,967700	-4,041477	12,717852	2020-10-29T19:52:28:322
-7,427321	-5,706882	15,613168	2020-10-29T19:52:28:346
-8,520842	-8,434700	16,151552	2020-10-29T19:52:28:362
-7,295716	-8,439486	14,787644	2020-10-29T19:52:28:387
-4,390830	-5,773881	13,646267	2020-10-29T19:52:28:402
-1,471586	-4,876573	13,127025	2020-10-29T19:52:28:425
3,148954	-7,168896	11,966506	2020-10-29T19:52:28:443
4,855037	-5,556134	8,539984	2020-10-29T19:52:28:465
4,934000	-3,955336	5,254639	2020-10-29T19:52:28:483
5,948557	-3,639483	1,871187	2020-10-29T19:52:28:506
6,987042	-3,318845	-0,643669	2020-10-29T19:52:28:523
7,288538	-2,311467	-1,883151	2020-10-29T19:52:28:545
6,867401	-1,660619	-1,399801	2020-10-29T19:52:28:563
5,924629	-1,275374	-0,217747	2020-10-29T19:52:28:586
4,974678	-0,488136	1,074377	2020-10-29T19:52:28:603
3,120241	-2,646462	3,409772	2020-10-29T19:52:28:626
1,971686	-3,125026	4,345366	2020-10-29T19:52:28:643
1,708475	-1,402194	3,273381	2020-10-29T19:52:28:666
2,031506	-0,301496	1,945365	2020-10-29T19:52:28:684
2,885744	-0,375673	0,859023	2020-10-29T19:52:28:706
2,380858	-2,414358	1,270589	2020-10-29T19:52:28:723
-1,177269	-5,606383	5,568098	2020-10-29T19:52:28:746
-5,010571	-6,467800	8,327023	2020-10-29T19:52:28:763
-5,931807	-6,025128	8,315059	2020-10-29T19:52:28:786
-6,372087	-5,915058	5,761917	2020-10-29T19:52:28:803
-8,398808	-7,259824	5,381458	2020-10-29T19:52:28:826
-11,844472	-8,116454	6,250053	2020-10-29T19:52:28:843
-12,110075	-6,116055	5,757132	2020-10-29T19:52:28:866
-12,268002	-5,635098	5,125426	2020-10-29T19:52:28:883
-12,272788	-6,613762	5,931807	2020-10-29T19:52:28:906
-11,282159	-6,534799	7,087541	2020-10-29T19:52:28:924
-9,119047	-6,163911	7,774280	2020-10-29T19:52:28:946
-7,503892	-5,611169	8,291130	2020-10-29T19:52:28:963
-5,977271	-3,321238	7,448857	2020-10-29T19:52:28:986
-5,922236	-1,550549	7,580462	2020-10-29T19:52:29:003
-5,836094	-1,246661	7,838887	2020-10-29T19:52:29:026
-6,977471	-2,218147	8,051848	2020-10-29T19:52:29:043
-9,114261	-5,242674	8,700303	2020-10-29T19:52:29:066
-11,310873	-6,733403	9,384650	2020-10-29T19:52:29:083
-13,057633	-7,721639	9,568897	2020-10-29T19:52:29:106
-14,206188	-8,365308	9,442079	2020-10-29T19:52:29:123
-14,335401	-8,147561	9,147761	2020-10-29T19:52:29:146
-14,280365	-8,499306	8,243275	2020-10-29T19:52:29:165
-13,722836	-7,645068	7,152147	2020-10-29T19:52:29:187
-12,162716	-6,120840	6,384050	2020-10-29T19:52:29:222
-10,293922	-5,527420	5,465207	2020-10-29T19:52:29:242
-8,626125	-5,458029	4,443472	2020-10-29T19:52:29:244
-7,056434	-5,498707	3,507878	2020-10-29T19:52:29:265
-5,594419	-5,168497	2,797210	2020-10-29T19:52:29:283
-4,273581	-4,974678	2,529213	2020-10-29T19:52:29:308
-3,850052	-4,814359	2,268396	2020-10-29T19:52:29:324
-3,976871	-4,252046	2,256432	2020-10-29T19:52:29:346
-4,278367	-3,692125	1,816152	2020-10-29T19:52:29:363
-3,929015	-3,139383	1,438086	2020-10-29T19:52:29:394
-3,452843	-2,545963	1,007378	2020-10-29T19:52:29:407
-4,201797	-2,498107	0,660419	2020-10-29T19:52:29:426
-5,687739	-3,797409	1,720440	2020-10-29T19:52:29:443
-5,982057	-4,941179	1,945365	2020-10-29T19:52:29:468
-7,101898	-6,259624	2,206182	2020-10-29T19:52:29:484
-7,386643	-6,498906	2,641676	2020-10-29T19:52:29:506
-9,183653	-7,231110	3,653840	2020-10-29T19:52:29:524
-8,784052	-6,783652	4,022335	2020-10-29T19:52:29:547
-8,372486	-6,943972	4,137190	2020-10-29T19:52:29:564
-7,886744	-5,790630	3,979264	2020-10-29T19:52:29:588
-7,755138	-4,211368	4,491328	2020-10-29T19:52:29:604
-8,104490	-3,713661	5,125426	2020-10-29T19:52:29:628
-7,965706	-2,567499	4,589434	2020-10-29T19:52:29:649
-1,342373	2,816352	4,594220	2020-10-29T19:52:32:245
-1,182054	1,890330	3,510271	2020-10-29T19:52:32:247
-1,177269	0,248854	1,727618	2020-10-29T19:52:32:253
-1,526621	-0,775275	-0,148355	2020-10-29T19:52:32:254
-2,471786	-1,143769	-1,205983	2020-10-29T19:52:32:254
-3,833302	-1,732404	-0,658026	2020-10-29T19:52:32:255
-5,101498	-3,450450	-0,160319	2020-10-29T19:52:32:291
-5,883951	-4,223332	1,031307	2020-10-29T19:52:32:389
-6,429514	-5,520242	2,971886	2020-10-29T19:52:32:429
-7,295716	-6,841080	5,118248	2020-10-29T19:52:32:444
-7,183254	-6,266802	5,333601	2020-10-29T19:52:32:445
-6,841080	-4,350152	4,252046	2020-10-29T19:52:32:446
-6,903293	-2,653640	3,251846	2020-10-29T19:52:32:447
-7,587641	-1,624727	2,981457	2020-10-29T19:52:32:447
-8,408379	-1,038485	4,749753	2020-10-29T19:52:32:448
-8,784052	-1,160519	3,503092	2020-10-29T19:52:32:448
-9,944571	-1,560120	1,069592	2020-10-29T19:52:32:449
-12,117253	-3,988836	1,320838	2020-10-29T19:52:32:450
-13,287343	-7,252645	4,677969	2020-10-29T19:52:32:456
-13,205987	-10,095319	8,520842	2020-10-29T19:52:32:461
-12,641282	-12,110075	11,265409	2020-10-29T19:52:32:461
-13,203594	-12,394822	11,650653	2020-10-29T19:52:32:462
-13,550553	-10,762917	10,439885	2020-10-29T19:52:32:536
-13,426127	-8,190632	8,973085	2020-10-29T19:52:32:600
-13,141381	-5,130211	7,264609	2020-10-29T19:52:32:606
-14,400006	-3,553342	5,187639	2020-10-29T19:52:32:607
-17,625532	-3,333202	4,517649	2020-10-29T19:52:32:607
-20,353350	-3,101098	5,142176	2020-10-29T19:52:32:609
-16,474585	-2,476572	4,168297	2020-10-29T19:52:32:611
-13,155738	-1,572084	3,007778	2020-10-29T19:52:32:618
-11,404193	-1,361516	2,924029	2020-10-29T19:52:32:636
-9,621540	-1,873580	2,624927	2020-10-29T19:52:32:656
-9,193225	-2,177469	2,347359	2020-10-29T19:52:32:684
-9,982857	-2,529213	2,280360	2020-10-29T19:52:32:719
-10,537991	-3,546163	2,488536	2020-10-29T19:52:32:720
-9,437292	-4,718646	1,636691	2020-10-29T19:52:32:744
-8,970692	-6,484549	0,220140	2020-10-29T19:52:32:787
-9,176475	-7,740781	-0,643669	2020-10-29T19:52:32:799
-8,827123	-7,633104	-0,813560	2020-10-29T19:52:32:815
-8,956335	-7,044470	0,112463	2020-10-29T19:52:32:815
-8,867801	-7,281359	1,488336	2020-10-29T19:52:32:836
-8,815158	-6,580262	2,048256	2020-10-29T19:52:32:853
-8,573483	-5,453243	2,100898	2020-10-29T19:52:32:875
-7,817351	-4,141976	2,266003	2020-10-29T19:52:32:892
-6,836295	-2,974278	2,471786	2020-10-29T19:52:32:916
-6,312266	-2,328217	3,103491	2020-10-29T19:52:32:935
-5,826523	-2,914458	3,395415	2020-10-29T19:52:32:965
-5,599205	-3,802195	3,268596	2020-10-29T19:52:32:984
-5,453243	-4,393222	3,359523	2020-10-29T19:52:33:018
-4,395615	-4,835894	3,842873	2020-10-29T19:52:33:020
-3,814159	-4,242475	4,543970	2020-10-29T19:52:33:082
-3,409772	-3,019742	5,498707	2020-10-29T19:52:33:083
-3,349952	-1,981257	5,972485	2020-10-29T19:52:33:083
-3,634698	-0,916451	6,010770	2020-10-29T19:52:33:093
-3,335595	-1,232304	5,216353	2020-10-29T19:52:33:121
-3,067599	-2,328217	4,460221	2020-10-29T19:52:33:134
-3,091527	-2,234896	3,096312	2020-10-29T19:52:33:156
-3,991228	-1,117448	3,168097	2020-10-29T19:52:33:177
-5,915058	-2,390430	4,259224	2020-10-29T19:52:33:197
-6,898508	-0,815953	3,842873	2020-10-29T19:52:33:213
-7,901100	1,703690	5,027320	2020-10-29T19:52:33:237
-9,588040	1,840081	6,826723	2020-10-29T19:52:33:254
-10,303494	0,083749	8,743374	2020-10-29T19:52:33:278
-10,420743	-0,169890	9,980463	2020-10-29T19:52:33:295
-10,365707	-2,404787	10,006784	2020-10-29T19:52:33:317
-9,750752	-3,041277	8,542377	2020-10-29T19:52:33:335
-10,466206	-7,231110	9,963714	2020-10-29T19:52:33:358
-10,351351	0,050249	8,583055	2020-10-29T19:52:33:375
-9,700503	1,904687	6,367301	2020-10-29T19:52:33:397
-7,836494	2,194218	3,457629	2020-10-29T19:52:33:416
-6,723832	3,431308	2,677568	2020-10-29T19:52:33:437
-7,412964	3,723232	3,505485	2020-10-29T19:52:33:455
-7,982457	0,638884	2,964707	2020-10-29T19:52:33:479
-8,662018	-0,258425	2,670390	2020-10-29T19:52:33:495
-9,219545	0,337388	3,428915	2020-10-29T19:52:33:518
-9,647861	1,110270	4,347759	2020-10-29T19:52:33:535
-9,310472	2,306681	4,299902	2020-10-29T19:52:33:557
-8,879765	2,194218	4,096512	2020-10-29T19:52:33:574
-9,095119	1,818545	4,649254	2020-10-29T19:52:33:598
-9,171689	1,830509	4,752146	2020-10-29T19:52:33:615
-9,339187	1,919044	4,438686	2020-10-29T19:52:33:638
-9,769895	2,242075	4,826324	2020-10-29T19:52:33:656
-10,124033	2,321038	5,280960	2020-10-29T19:52:33:677
-9,908678	2,108077	4,845466	2020-10-29T19:52:33:695
-9,305687	1,464408	4,089334	2020-10-29T19:52:33:718
-8,772088	0,653241	3,031706	2020-10-29T19:52:33:735
-8,635696	0,260818	2,787638	2020-10-29T19:52:33:758
-8,530413	1,189233	1,945365	2020-10-29T19:52:33:775
-8,812766	2,282753	1,081556	2020-10-29T19:52:33:799
-8,932407	2,854637	0,351745	2020-10-29T19:52:33:815
-8,901299	1,488336	-0,167498	2020-10-29T19:52:33:840
-8,772088	1,725225	-0,076570	2020-10-29T19:52:33:855
-8,815158	1,540978	0,440279	2020-10-29T19:52:33:879
-8,774480	1,866402	0,483350	2020-10-29T19:52:33:897
-8,822337	2,756532	0,512064	2020-10-29T19:52:33:919
-8,477771	2,888137	0,988236	2020-10-29T19:52:33:936
-8,705089	2,560320	1,938186	2020-10-29T19:52:33:958
-8,611769	2,593820	2,766103	2020-10-29T19:52:33:975
-8,338986	3,165704	3,077170	2020-10-29T19:52:33:997
-8,535198	3,326023	3,644269	2020-10-29T19:52:34:015
-8,551948	4,173083	3,850052	2020-10-29T19:52:34:038
-8,724231	4,886144	4,161119	2020-10-29T19:52:34:055
-8,669197	5,670990	4,034299	2020-10-29T19:52:34:078
-8,544770	3,766303	3,151347	2020-10-29T19:52:34:095
-9,186047	1,866402	2,280360	2020-10-29T19:52:34:118
-10,009177	1,064806	1,294517	2020-10-29T19:52:34:136
-9,805787	0,433101	-0,732204	2020-10-29T19:52:34:160
-9,872787	2,014757	-2,199004	2020-10-29T19:52:34:175
-10,128819	3,273381	-2,148755	2020-10-29T19:52:34:199
-10,061819	4,862216	-0,260818	2020-10-29T19:52:34:215
-10,080962	6,587440	0,325424	2020-10-29T19:52:34:238
-9,729217	6,869793	1,588834	2020-10-29T19:52:34:256
-8,707481	6,254838	2,969493	2020-10-29T19:52:34:278
-9,221939	6,034698	5,785845	2020-10-29T19:52:34:295
-9,006584	4,666004	7,049256	2020-10-29T19:52:34:319
-8,583055	2,612962	7,673782	2020-10-29T19:52:34:335
-7,642675	3,909872	5,709275	2020-10-29T19:52:34:358
-7,554141	4,565506	4,208975	2020-10-29T19:52:34:376
-7,642675	0,882952	2,857030	2020-10-29T19:52:34:398
-8,061419	0,935594	3,034099	2020-10-29T19:52:34:415
-8,027920	4,228118	2,897708	2020-10-29T19:52:34:439
-8,204988	5,257031	3,357130	2020-10-29T19:52:34:456
-8,142776	4,563113	3,696911	2020-10-29T19:52:34:480
-8,094919	2,225325	3,586841	2020-10-29T19:52:34:495
-8,238488	1,696511	3,629912	2020-10-29T19:52:34:519
-7,767102	3,201597	4,046263	2020-10-29T19:52:34:536
-7,546963	1,093520	4,840680	2020-10-29T19:52:34:559
-6,764510	0,325424	4,122833	2020-10-29T19:52:34:576
-6,991827	-0,380459	5,048856	2020-10-29T19:52:34:598
-6,979864	0,086142	5,716454	2020-10-29T19:52:34:617
-6,841080	1,354338	5,735595	2020-10-29T19:52:34:666
-6,630512	0,770489	5,709275	2020-10-29T19:52:34:668
-6,620940	1,651048	5,860023	2020-10-29T19:52:34:685
-6,814759	1,416551	6,321837	2020-10-29T19:52:34:697
-7,106683	2,227718	6,841080	2020-10-29T19:52:34:721
-7,779066	1,837688	7,054041	2020-10-29T19:52:34:737
-8,092526	1,734797	6,685547	2020-10-29T19:52:34:759
-7,661818	2,438286	6,508478	2020-10-29T19:52:34:776
-7,312466	2,579463	6,384050	2020-10-29T19:52:34:801
-6,888937	2,141576	6,159126	2020-10-29T19:52:34:816
-7,082755	1,741975	5,982057	2020-10-29T19:52:34:839
-7,637890	1,502693	6,348158	2020-10-29T19:52:34:858
-7,850852	2,356930	7,008578	2020-10-29T19:52:34:879
-7,410572	2,175076	7,133004	2020-10-29T19:52:34:896
-7,054041	1,464408	7,039684	2020-10-29T19:52:34:919
-6,812366	1,359123	6,652047	2020-10-29T19:52:34:936
-6,774081	1,923829	6,654440	2020-10-29T19:52:34:959
-7,058826	2,316252	6,886543	2020-10-29T19:52:34:976
-7,317252	2,258825	7,475177	2020-10-29T19:52:35:000
-7,001399	2,199004	7,460821	2020-10-29T19:52:35:016
-6,867401	1,299303	7,786245	2020-10-29T19:52:35:040
-6,553941	0,215354	7,063612	2020-10-29T19:52:35:057
-6,467800	-0,401994	7,133004	2020-10-29T19:52:35:079
-6,546762	0,167498	8,039884	2020-10-29T19:52:35:098
-6,549156	-0,090927	8,027920	2020-10-29T19:52:35:119
-5,697310	1,813759	7,735995	2020-10-29T19:52:35:137
-5,924629	4,761717	7,338787	2020-10-29T19:52:35:160
-5,857630	0,981057	7,326823	2020-10-29T19:52:35:176
-5,589634	1,426122	6,135197	2020-10-29T19:52:35:199
-5,962914	0,792024	6,087341	2020-10-29T19:52:35:216
-6,606583	0,466600	5,548956	2020-10-29T19:52:35:240
-6,996613	0,287139	4,455436	2020-10-29T19:52:35:256
-6,869793	-3,732803	6,419943	2020-10-29T19:52:35:280
-6,477371	-2,337788	5,649454	2020-10-29T19:52:35:297
-6,757331	0,457029	5,886343	2020-10-29T19:52:35:319
-7,013363	-0,363709	6,513263	2020-10-29T19:52:35:338
-7,499106	-1,899901	7,070791	2020-10-29T19:52:35:361
-7,008578	-0,378066	8,499306	2020-10-29T19:52:35:377
-7,109076	1,464408	8,432307	2020-10-29T19:52:35:400
-6,771688	-0,215354	7,121039	2020-10-29T19:52:35:417
-6,958328	-1,823331	6,728617	2020-10-29T19:52:35:440
-6,848258	-2,251646	6,721439	2020-10-29T19:52:35:457
-6,398407	-3,340380	7,121039	2020-10-29T19:52:35:480
-5,757132	-3,050849	7,087541	2020-10-29T19:52:35:496
-5,592027	-2,179861	6,664011	2020-10-29T19:52:35:520
-5,551349	-2,455036	6,491727	2020-10-29T19:52:35:538
-5,749953	-3,081956	6,608976	2020-10-29T19:52:35:560
-5,986843	-2,653640	7,341179	2020-10-29T19:52:35:579
-6,740582	-2,057827	7,625926	2020-10-29T19:52:35:600
-6,642475	-1,825724	6,719046	2020-10-29T19:52:35:618
-7,532606	-1,107877	7,046863	2020-10-29T19:52:35:640
-7,891530	-0,746561	6,398407	2020-10-29T19:52:35:676
-7,712067	-0,535992	5,848059	2020-10-29T19:52:35:694
-8,176274	-1,287339	5,785845	2020-10-29T19:52:35:697
-8,776874	-1,196411	5,910272	2020-10-29T19:52:35:721
-8,815158	-1,086342	4,957928	2020-10-29T19:52:35:737
-8,652447	-0,256032	5,532206	2020-10-29T19:52:35:781
-8,925228	-1,088734	7,398607	2020-10-29T19:52:35:784
-8,752945	-0,971486	8,085347	2020-10-29T19:52:35:800
-8,453842	1,435694	8,451449	2020-10-29T19:52:35:828
-7,941778	4,395615	9,456435	2020-10-29T19:52:35:840
-7,401000	5,656632	8,350951	2020-10-29T19:52:35:858
-6,714260	1,373480	8,587841	2020-10-29T19:52:35:880
-5,125426	0,318245	5,178068	2020-10-29T19:52:35:898
-5,386244	0,571885	4,409972	2020-10-29T19:52:35:920
-4,225725	-3,656233	8,858230	2020-10-29T19:52:35:937
-2,871387	-3,108276	10,521241	2020-10-29T19:52:35:960
-1,663012	-0,380459	8,824730	2020-10-29T19:52:35:977
-1,208375	-0,344566	7,154540	2020-10-29T19:52:36:000
-1,454836	-1,600798	6,920043	2020-10-29T19:52:36:018
-1,820938	-1,892723	7,405786	2020-10-29T19:52:36:041
-2,151148	-3,266203	7,384251	2020-10-29T19:52:36:058
-4,149154	-4,479364	8,726624	2020-10-29T19:52:36:080
-4,857430	-6,525227	6,750153	2020-10-29T19:52:36:102
-5,656632	-7,599605	5,345565	2020-10-29T19:52:36:120
-5,718846	-8,386844	4,766503	2020-10-29T19:52:36:140
-11,681760	-2,694318	4,005585	2020-10-29T19:53:01:281
-12,971491	-2,890530	3,488736	2020-10-29T19:53:01:282
-14,153545	-2,902494	2,979064	2020-10-29T19:53:01:283
-15,072391	-2,349752	2,787638	2020-10-29T19:53:01:284
-15,728023	-1,519442	2,828316	2020-10-29T19:53:01:287
-15,742380	-0,361316	3,034099	2020-10-29T19:53:01:288
-15,160924	0,344566	3,280560	2020-10-29T19:53:01:289
-14,062619	0,191426	3,292524	2020-10-29T19:53:01:290
-12,861421	-0,148355	2,675175	2020-10-29T19:53:01:290
-12,126825	-0,658026	1,890330	2020-10-29T19:53:01:291
-11,263017	-1,052842	1,194018	2020-10-29T19:53:01:295
-10,408779	-1,378266	0,815953	2020-10-29T19:53:01:303
-9,655040	-1,684547	0,789631	2020-10-29T19:53:01:317
-8,901299	-2,067399	0,851845	2020-10-29T19:53:01:341
-8,073383	-2,220540	0,555135	2020-10-29T19:53:01:358
-7,489535	-2,215754	0,440279	2020-10-29T19:53:01:383
-7,051648	-1,988436	0,224925	2020-10-29T19:53:01:432
-6,711867	-1,741975	0,241675	2020-10-29T19:53:01:433
-10,296316	-4,453043	1,768296	2020-10-29T19:53:01:935
-10,128819	-4,433900	1,655833	2020-10-29T19:53:01:946
-10,231709	-4,357330	1,780260	2020-10-29T19:53:01:961
-10,320245	-4,283153	1,938186	2020-10-29T19:53:01:986
-10,009177	-4,000800	1,916651	2020-10-29T19:53:02:000
-9,657433	-3,850052	1,552942	2020-10-29T19:53:02:024
-9,645468	-3,510271	0,954736	2020-10-29T19:53:02:040
-8,891729	-3,342773	0,191426	2020-10-29T19:53:02:064
-8,760124	-3,299703	-0,124427	2020-10-29T19:53:02:081
-9,461221	-3,531806	-0,471386	2020-10-29T19:53:02:102
-10,164711	-3,596412	-0,744168	2020-10-29T19:53:02:119
-10,296316	-3,122634	-1,194018	2020-10-29T19:53:02:144
-11,928220	-2,179861	-2,129612	2020-10-29T19:53:02:159
-14,122439	-1,866402	-1,804188	2020-10-29T19:53:02:182
-13,308880	-2,565106	-0,308674	2020-10-29T19:53:02:200
-11,660224	-2,919244	1,806581	2020-10-29T19:53:02:224
-10,987842	-3,122634	2,971886	2020-10-29T19:53:02:240
-10,234102	-2,237289	2,201397	2020-10-29T19:53:02:263
-9,638289	-0,835095	0,660419	2020-10-29T19:53:02:280
-9,078369	0,047856	-0,169890	2020-10-29T19:53:02:303
-9,365508	0,815953	-0,112463	2020-10-29T19:53:02:321
-10,181459	2,682354	0,256032	2020-10-29T19:53:02:343
-10,490135	4,529613	0,150748	2020-10-29T19:53:02:359
-9,973285	4,931608	-0,358923	2020-10-29T19:53:02:384
-9,564112	3,716053	-0,337388	2020-10-29T19:53:02:400
-9,446864	1,349552	-0,148355	2020-10-29T19:53:02:422
-10,143176	-0,662812	0,071785	2020-10-29T19:53:02:440
-10,640882	-2,359323	0,677169	2020-10-29T19:53:02:464
-10,552348	-2,574677	1,402194	2020-10-29T19:53:02:480
-10,506885	-2,340181	1,725225	2020-10-29T19:53:02:503
-12,153147	-1,744368	1,653440	2020-10-29T19:53:02:520
-12,287145	-0,952343	1,316052	2020-10-29T19:53:02:545
-10,478169	-0,684347	0,760918	2020-10-29T19:53:02:563
-8,633304	-1,194018	0,363709	2020-10-29T19:53:02:584
-8,236095	-1,983650	0,430708	2020-10-29T19:53:02:600
-7,917850	-2,220540	0,452243	2020-10-29T19:53:02:624
-7,357929	-1,945365	0,382852	2020-10-29T19:53:02:640
-6,778866	-2,313859	0,409173	2020-10-29T19:53:02:664
-6,565905	-3,031706	0,492921	2020-10-29T19:53:02:680
-7,410572	-3,390630	0,576670	2020-10-29T19:53:02:705
-8,142776	-3,400201	0,598206	2020-10-29T19:53:02:720
-8,398808	-3,436093	0,686740	2020-10-29T19:53:02:743
-8,654840	-3,610770	0,756132	2020-10-29T19:53:02:760
-9,083155	-3,900301	0,823131	2020-10-29T19:53:02:785
-9,454042	-4,216154	0,782453	2020-10-29T19:53:02:801
-9,734003	-4,450650	0,835095	2020-10-29T19:53:02:823
-9,997212	-4,654040	1,502693	2020-10-29T19:53:02:840
-9,990034	-4,936393	2,206182	2020-10-29T19:53:02:864
-10,559525	-5,242674	2,203789	2020-10-29T19:53:02:881
-10,808380	-5,070391	2,280360	2020-10-29T19:53:02:904
-11,081161	-4,725825	3,034099	2020-10-29T19:53:02:920
-11,069198	-4,220939	3,500700	2020-10-29T19:53:02:945
-10,614561	-3,249453	3,058028	2020-10-29T19:53:02:960
-10,085747	-1,383051	2,215754	2020-10-29T19:53:02:983
-9,915856	-1,198804	2,060220	2020-10-29T19:53:03:000
-9,370294	-1,629512	2,395216	2020-10-29T19:53:03:025
-9,262616	-1,756332	2,754139	2020-10-29T19:53:03:042
-9,248260	-1,629512	3,115455	2020-10-29T19:53:03:063
-9,198010	-1,897508	3,292524	2020-10-29T19:53:03:080
-8,571091	-1,986043	3,254239	2020-10-29T19:53:03:105
-7,759924	-1,995614	2,955136	2020-10-29T19:53:03:120
-7,274181	-2,076970	2,706282	2020-10-29T19:53:03:144
-7,460821	-2,127219	2,335395	2020-10-29T19:53:03:160
-9,544970	-1,832902	1,792224	2020-10-29T19:53:03:186
-12,220145	-1,816152	2,189433	2020-10-29T19:53:03:200
-12,839886	-1,665405	2,333002	2020-10-29T19:53:03:224
-10,339387	-1,050449	1,373480	2020-10-29T19:53:03:240
-9,872787	-0,971486	0,098106	2020-10-29T19:53:03:264
-10,375278	-1,562513	-0,574277	2020-10-29T19:53:03:282
-9,779467	-1,653440	-0,863809	2020-10-29T19:53:03:304
-9,042477	-1,265803	-0,794417	2020-10-29T19:53:03:320
-8,604590	-1,328017	-0,380459	2020-10-29T19:53:03:345
-8,427521	-2,593820	0,208176	2020-10-29T19:53:03:361
-8,482556	-3,471986	0,861416	2020-10-29T19:53:03:385
-9,085547	-3,414558	1,067199	2020-10-29T19:53:03:401
-9,035298	-3,397808	0,593420	2020-10-29T19:53:03:426
-8,477771	-3,235096	0,038285	2020-10-29T19:53:03:441
-8,087741	-2,828316	-0,198604	2020-10-29T19:53:03:464
-8,114061	-2,873780	0,076570	2020-10-29T19:53:03:481
-8,365308	-3,163311	0,614955	2020-10-29T19:53:03:505
-8,561519	-2,505285	0,866202	2020-10-29T19:53:03:522
-8,987441	-1,818545	1,026521	2020-10-29T19:53:03:545
-9,109475	-1,749153	1,043271	2020-10-29T19:53:03:560
-9,513863	-1,866402	1,249053	2020-10-29T19:53:03:585
-9,894321	-2,172683	1,562513	2020-10-29T19:53:03:601
-9,944571	-2,438286	1,753939	2020-10-29T19:53:03:624
-9,784252	-2,474179	2,187040	2020-10-29T19:53:03:641
-9,812965	-2,440679	2,548356	2020-10-29T19:53:03:665
-10,076177	-2,471786	3,206382	2020-10-29T19:53:03:681
-10,317852	-2,261217	3,448057	2020-10-29T19:53:03:704
-10,260423	-1,720440	3,247060	2020-10-29T19:53:03:721
-10,841879	-0,019143	4,364508	2020-10-29T19:53:03:745
-10,736595	-2,301895	4,821537	2020-10-29T19:53:03:762
-10,365707	-2,443072	5,455636	2020-10-29T19:53:03:784
-10,071390	-1,189233	5,551349	2020-10-29T19:53:03:801
-9,499505	-1,981257	5,398208	2020-10-29T19:53:03:825
-8,922836	-2,682354	5,170890	2020-10-29T19:53:03:841
-8,267202	-2,395216	4,594220	2020-10-29T19:53:03:865
-7,769495	-1,488336	3,914658	2020-10-29T19:53:03:881
-7,640282	-0,751346	3,536592	2020-10-29T19:53:03:905
-8,537591	-0,684347	3,397808	2020-10-29T19:53:03:921
-10,932807	-1,222732	4,197011	2020-10-29T19:53:03:945
-11,822936	-2,014757	5,773881	2020-10-29T19:53:03:961
-9,638289	-2,069792	5,249853	2020-10-29T19:53:03:986
-9,351151	-2,122434	4,424329	2020-10-29T19:53:04:003
-9,927821	-2,364109	3,929015	2020-10-29T19:53:04:024
-10,176675	-2,402394	3,352344	2020-10-29T19:53:04:041
-10,351351	-2,258825	2,237289	2020-10-29T19:53:04:066
-11,830115	-3,043670	1,483550	2020-10-29T19:53:04:081
-12,356536	-3,701697	1,241875	2020-10-29T19:53:04:105
-12,270394	-3,850052	0,890130	2020-10-29T19:53:04:121
-11,222338	-3,093920	0,440279	2020-10-29T19:53:04:146
-10,267602	-2,194218	-0,107677	2020-10-29T19:53:04:161
-9,805787	-1,749153	-0,002393	2020-10-29T19:53:04:185
-9,860823	-1,866402	0,421137	2020-10-29T19:53:04:201
-10,315458	-2,321038	0,710668	2020-10-29T19:53:04:225
-11,102697	-2,919244	0,945165	2020-10-29T19:53:04:245
-11,722438	-3,388237	0,942772	2020-10-29T19:53:04:264
-11,897114	-3,479164	0,768096	2020-10-29T19:53:04:282
-11,983256	-3,381058	0,598206	2020-10-29T19:53:04:306
-11,724831	-3,196811	0,301496	2020-10-29T19:53:04:321
-10,983055	-2,541178	0,208176	2020-10-29T19:53:04:344
-9,913465	-1,995614	0,193819	2020-10-29T19:53:04:362
-8,807980	-1,612763	0,413958	2020-10-29T19:53:04:386
-7,592427	-1,332802	0,579063	2020-10-29T19:53:04:401
-6,271588	-1,292124	0,753739	2020-10-29T19:53:04:425
-5,089533	-1,454836	0,952343	2020-10-29T19:53:04:442
-4,252046	-1,670190	1,143769	2020-10-29T19:53:04:465
-4,127619	-1,856830	0,748954	2020-10-29T19:53:04:483
-4,622933	-1,844866	0,516850	2020-10-29T19:53:04:505
-5,295317	-1,792224	0,624527	2020-10-29T19:53:04:522
-5,515456	-1,914258	1,208375	2020-10-29T19:53:04:546
-5,163712	-1,519442	1,514657	2020-10-29T19:53:04:562
-5,374279	-0,995414	1,383051	2020-10-29T19:53:04:585
-6,029913	-0,729811	1,174876	2020-10-29T19:53:04:601
-6,951149	-1,079163	1,160519	2020-10-29T19:53:04:626
-8,169096	-1,938186	1,306481	2020-10-29T19:53:04:642
-9,946963	-2,280360	2,766103	2020-10-29T19:53:04:665
-11,377872	-3,842873	3,859623	2020-10-29T19:53:04:682
-12,626925	-6,530013	5,192425	2020-10-29T19:53:04:706
-14,907285	-9,107083	6,673582	2020-10-29T19:53:04:724
-16,610975	-8,226524	6,831509	2020-10-29T19:53:04:745
-17,862421	-6,302694	6,805188	2020-10-29T19:53:04:762
-19,188044	-6,163911	7,034898	2020-10-29T19:53:04:788
-20,257637	-6,372087	7,515855	2020-10-29T19:53:04:802
-20,494528	-5,958128	7,585248	2020-10-29T19:53:04:825
-19,977676	-5,577669	7,628319	2020-10-29T19:53:04:843
-19,061224	-5,522634	7,456036	2020-10-29T19:53:04:866
-17,685352	-5,517848	7,233503	2020-10-29T19:53:04:882
-17,216360	-5,632704	6,960721	2020-10-29T19:53:04:905
-16,431513	-5,678168	6,575477	2020-10-29T19:53:04:922
-14,711074	-5,268995	5,869594	2020-10-29T19:53:04:947
-11,727223	-4,223332	4,967500	2020-10-29T19:53:04:963
-8,788837	-3,273381	3,522235	2020-10-29T19:53:04:985
-7,302894	-2,352145	2,270789	2020-10-29T19:53:05:002
-5,991628	-1,270589	1,478764	2020-10-29T19:53:05:027
-4,572684	-0,483350	1,012164	2020-10-29T19:53:05:042
-1,409373	-0,076570	-1,581656	2020-10-29T19:53:05:066
0,452243	-0,086142	-0,612563	2020-10-29T19:53:05:082
1,509871	-1,533799	-0,370888	2020-10-29T19:53:05:106
3,050849	-3,720839	0,167498	2020-10-29T19:53:05:122
3,337988	-4,393222	0,914058	2020-10-29T19:53:05:145
2,553142	-4,460221	1,576870	2020-10-29T19:53:05:163
1,816152	-3,582055	1,543371	2020-10-29T19:53:05:187
1,105484	-2,895315	1,433301	2020-10-29T19:53:05:203
0,686740	-2,478964	1,524228	2020-10-29T19:53:05:225
0,686740	-2,289931	1,519442	2020-10-29T19:53:05:242
-0,363709	-2,646462	1,603191	2020-10-29T19:53:05:267
-1,000200	-3,522235	1,816152	2020-10-29T19:53:05:285
-1,954936	-3,189633	1,942972	2020-10-29T19:53:05:306
-3,455236	-2,742175	2,447858	2020-10-29T19:53:05:323
-7,467999	-2,490928	3,840480	2020-10-29T19:53:05:347
-13,734802	-2,940779	4,000800	2020-10-29T19:53:05:362
-23,892334	-2,847459	1,844866	2020-10-29T19:53:05:387
-32,044682	-3,550949	2,289931	2020-10-29T19:53:05:403
-26,943182	-5,472386	2,916851	2020-10-29T19:53:05:428
-27,003004	-5,749953	3,852444	2020-10-29T19:53:05:445
-19,752750	-2,828316	3,598805	2020-10-29T19:53:05:466
-13,064812	-1,373480	2,203789	2020-10-29T19:53:05:483
-10,837094	-1,004985	1,411765	2020-10-29T19:53:05:507
-10,425529	-2,246860	1,615155	2020-10-29T19:53:05:523
-9,489935	-2,457429	2,682354	2020-10-29T19:53:05:547
-9,286544	-3,981657	3,543770	2020-10-29T19:53:05:563
-8,511270	-4,639683	3,534199	2020-10-29T19:53:05:587
-8,094919	-4,993821	3,074777	2020-10-29T19:53:05:603
-8,109276	-4,575077	2,349752	2020-10-29T19:53:05:627
-7,992027	-3,349952	1,445265	2020-10-29T19:53:05:644
-7,968100	-2,103291	0,947558	2020-10-29T19:53:05:667
-8,185846	-0,835095	0,681954	2020-10-29T19:53:05:684
-7,987241	-0,031107	0,495314	2020-10-29T19:53:05:705
-7,757531	0,428315	0,454636	2020-10-29T19:53:05:723
-7,649854	0,461815	0,411566	2020-10-29T19:53:05:748
-7,530212	-0,069392	0,655633	2020-10-29T19:53:05:763
-7,422535	-0,681954	0,672383	2020-10-29T19:53:05:787
-7,525427	-1,301696	0,966700	2020-10-29T19:53:05:803
-7,702496	-1,713261	1,392623	2020-10-29T19:53:05:827
-7,735995	-2,124826	2,029114	2020-10-29T19:53:05:843
-7,889136	-2,423929	2,447858	2020-10-29T19:53:05:868
-7,956135	-2,555535	2,292324	2020-10-29T19:53:05:884
-9,085547	-2,565106	1,837688	2020-10-29T19:53:05:907
-10,293922	-2,651247	1,966900	2020-10-29T19:53:05:924
-10,655239	-2,084148	2,297110	2020-10-29T19:53:05:947
-10,320245	-0,282353	1,945365	2020-10-29T19:53:05:963
-9,384650	0,569492	2,536392	2020-10-29T19:53:05:988
-10,109675	0,114855	2,849852	2020-10-29T19:53:06:003
-11,846866	-0,545564	2,691926	2020-10-29T19:53:06:026
-12,291929	-0,966700	2,194218	2020-10-29T19:53:06:044
-12,435498	-1,184447	1,660619	2020-10-29T19:53:06:067
-12,521641	-1,301696	1,024128	2020-10-29T19:53:06:083
-12,643675	-1,548156	0,643669	2020-10-29T19:53:06:106
-13,103097	-1,806581	0,619741	2020-10-29T19:53:06:123
-12,519248	-2,531606	0,897308	2020-10-29T19:53:06:147
-11,349157	-3,098706	1,196411	2020-10-29T19:53:06:164
-10,423136	-3,359523	1,395016	2020-10-29T19:53:06:186
-9,509077	-3,294917	1,380659	2020-10-29T19:53:06:203
-9,111869	-3,079563	1,361516	2020-10-29T19:53:06:228
-9,083155	-3,002992	1,313660	2020-10-29T19:53:06:244
-9,047262	-2,823531	1,155733	2020-10-29T19:53:06:266
-9,085547	-2,474179	1,002593	2020-10-29T19:53:06:283
-8,750552	-2,323431	1,205983	2020-10-29T19:53:06:308
-7,704889	-2,615355	1,574477	2020-10-29T19:53:06:324
-6,716653	-2,790031	2,134398	2020-10-29T19:53:06:347
-6,005985	-2,739782	2,376073	2020-10-29T19:53:06:364
-5,871986	-2,720639	2,368894	2020-10-29T19:53:06:388
-6,089733	-2,356930	2,318645	2020-10-29T19:53:06:405
-6,549156	-2,579463	2,476572	2020-10-29T19:53:06:428
-7,417750	-2,660819	2,711068	2020-10-29T19:53:06:444
-8,054241	-2,471786	2,916851	2020-10-29T19:53:06:468
-8,731410	-2,414358	3,309274	2020-10-29T19:53:06:484
-9,896714	-2,821138	3,888337	2020-10-29T19:53:06:506
-10,224532	-2,940779	4,055835	2020-10-29T19:53:06:524
-10,963913	-2,883351	3,885944	2020-10-29T19:53:06:548
-13,459626	-3,079563	4,675575	2020-10-29T19:53:06:564
-15,206388	-3,567699	5,477170	2020-10-29T19:53:06:588
-14,991035	-3,309274	5,166104	2020-10-29T19:53:06:604
-14,476578	-3,158526	5,058427	2020-10-29T19:53:06:627
-12,047862	-3,244668	4,689932	2020-10-29T19:53:06:645
-9,492328	-2,888137	3,658626	2020-10-29T19:53:06:667
-8,487342	-2,344966	2,684747	2020-10-29T19:53:06:684
-9,174082	-2,031506	2,328217	2020-10-29T19:53:06:708
-10,054641	-2,304288	2,419144	2020-10-29T19:53:06:724
-10,695917	-3,333202	2,062613	2020-10-29T19:53:06:748
-10,808380	-3,419343	2,179861	2020-10-29T19:53:06:764
-11,617154	-3,273381	2,158326	2020-10-29T19:53:06:788
-11,614761	-4,326223	1,928615	2020-10-29T19:53:06:804
-11,842079	-4,074977	1,454836	2020-10-29T19:53:06:827
-12,244074	-3,292524	1,174876	2020-10-29T19:53:06:844
-12,337393	-2,878566	0,827917	2020-10-29T19:53:06:869
-12,100503	-2,557927	0,531207	2020-10-29T19:53:06:885
-11,751152	-2,545963	0,351745	2020-10-29T19:53:06:907
-11,229517	-2,579463	0,291924	2020-10-29T19:53:06:924
-10,691131	-2,701497	0,138784	2020-10-29T19:53:06:948
-10,159925	-2,871387	0,138784	2020-10-29T19:53:06:964
-9,638289	-2,947958	0,291924	2020-10-29T19:53:06:988
-9,157332	-2,962314	0,327817	2020-10-29T19:53:07:004
-8,626125	-2,801995	0,303888	2020-10-29T19:53:07:029
-8,044669	-2,679961	0,399601	2020-10-29T19:53:07:044
-7,657032	-2,354537	0,593420	2020-10-29T19:53:07:067
-7,200003	-2,007578	0,610170	2020-10-29T19:53:07:084
-7,130611	-1,873580	0,753739	2020-10-29T19:53:07:109
-6,951149	-1,612763	0,971486	2020-10-29T19:53:07:125
-6,814759	-1,462015	1,170090	2020-10-29T19:53:07:147
-6,893722	-1,138984	1,213161	2020-10-29T19:53:07:164
-7,051648	-1,021735	1,512264	2020-10-29T19:53:07:190
-7,357929	-1,036092	1,622334	2020-10-29T19:53:07:204
-8,872586	-0,835095	1,710868	2020-10-29T19:53:07:228
-11,380265	-0,897308	2,158326	2020-10-29T19:53:07:246
-11,755937	-1,536192	1,756332	2020-10-29T19:53:07:269
-11,200804	-1,818545	1,093520	2020-10-29T19:53:07:284
-10,801201	-2,529213	1,591227	2020-10-29T19:53:07:308
-9,588040	-4,074977	2,414358	2020-10-29T19:53:07:325
-8,276773	-5,367101	3,242275	2020-10-29T19:53:07:349
-8,652447	-5,072784	3,364309	2020-10-29T19:53:07:365
-9,750752	-4,572684	3,237489	2020-10-29T19:53:07:389
-10,447062	-4,283153	2,069792	2020-10-29T19:53:07:405
-10,339387	-3,194418	1,258625	2020-10-29T19:53:07:429
-10,741381	-1,538585	0,409173	2020-10-29T19:53:07:445
-11,564510	-1,172483	-0,239282	2020-10-29T19:53:07:467
-11,531013	-2,000400	-0,820738	2020-10-29T19:53:07:485
-9,379865	-4,319045	-3,474378	2020-10-29T19:53:07:510
-11,420943	-0,643669	0,189033	2020-10-29T19:53:07:524
-9,485149	-6,795617	-0,512064	2020-10-29T19:53:07:548
-8,513663	-6,314659	-0,921237	2020-10-29T19:53:07:565
-8,982656	-4,634897	-1,050449	2020-10-29T19:53:07:590
-9,497113	-4,120440	-0,835095	2020-10-29T19:53:07:605
-9,442079	-4,079762	-0,619741	2020-10-29T19:53:07:628
-9,578469	-4,182654	-0,500100	2020-10-29T19:53:07:645
-10,296316	-3,866802	-0,425922	2020-10-29T19:53:07:670
-10,743774	-3,651447	-0,543171	2020-10-29T19:53:07:685
-10,942378	-3,450450	-0,679562	2020-10-29T19:53:07:708
-11,270195	-3,304488	-0,887737	2020-10-29T19:53:07:725
-12,052648	-3,357130	-0,358923	2020-10-29T19:53:07:749
-12,067005	-3,046063	0,614955	2020-10-29T19:53:07:764
-11,464014	-2,868994	1,598405	2020-10-29T19:53:07:789
-10,925629	-3,110669	2,969493	2020-10-29T19:53:07:805
-10,193424	-3,711268	3,957729	2020-10-29T19:53:07:829
-9,975677	-4,208975	4,668397	2020-10-29T19:53:07:846
-9,511470	-4,331009	4,656433	2020-10-29T19:53:07:868
-8,903693	-3,993621	4,553542	2020-10-29T19:53:07:885
-9,107083	-3,421736	4,113262	2020-10-29T19:53:07:910
-12,385249	-3,084348	5,376673	2020-10-29T19:53:07:925
-14,172688	-2,691926	5,690133	2020-10-29T19:53:07:948
-14,397614	-1,797010	4,582255	2020-10-29T19:53:07:965
-13,830515	-1,969293	3,972085	2020-10-29T19:53:07:989
-11,408978	-2,304288	3,467200	2020-10-29T19:53:08:005
-10,171888	-2,402394	3,165704	2020-10-29T19:53:08:029
-10,549955	-2,108077	3,203990	2020-10-29T19:53:08:045
-10,956735	-1,940579	3,285345	2020-10-29T19:53:08:069
-11,270195	-1,947758	2,888137	2020-10-29T19:53:08:086
-11,528620	-1,926222	2,435893	2020-10-29T19:53:08:108
-11,767902	-1,861616	2,239682	2020-10-29T19:53:08:125
-11,755937	-2,636890	1,648655	2020-10-29T19:53:08:149
-11,885150	-1,957329	1,775474	2020-10-29T19:53:08:165
-11,669796	-1,737189	1,615155	2020-10-29T19:53:08:188
-10,961520	-2,033899	1,481157	2020-10-29T19:53:08:205
-10,499706	-2,287539	0,904487	2020-10-29T19:53:08:229
-10,279566	-2,629712	0,423530	2020-10-29T19:53:08:245
-10,475778	-2,742175	0,100499	2020-10-29T19:53:08:269
-11,559726	-3,531806	-0,191426	2020-10-29T19:53:08:285
-11,844472	-3,474378	-0,401994	2020-10-29T19:53:08:309
-10,724631	-3,208775	-1,036092	2020-10-29T19:53:08:327
-9,183653	-3,160919	-1,682154	2020-10-29T19:53:08:349
-8,255238	-3,220739	-1,701297	2020-10-29T19:53:08:365
-8,149954	-3,395415	-1,438086	2020-10-29T19:53:08:390
-8,403593	-3,816552	-0,440279	2020-10-29T19:53:08:405
-8,264810	-2,986243	-0,765703	2020-10-29T19:53:08:428
-8,571091	-2,651247	-1,002593	2020-10-29T19:53:08:446
-9,245867	-2,830709	-0,949951	2020-10-29T19:53:08:469
-9,908678	-2,615355	-0,868595	2020-10-29T19:53:08:486
-9,600004	-2,100898	-0,452243	2020-10-29T19:53:08:509
-9,198010	-1,442872	0,327817	2020-10-29T19:53:08:526
-9,006584	0,406780	0,342174	2020-10-29T19:53:08:550
-10,360922	2,498107	0,576670	2020-10-29T19:53:08:567
-10,616954	3,242275	0,847059	2020-10-29T19:53:08:588
-10,176675	2,249253	1,426122	2020-10-29T19:53:08:606
-10,597812	0,497707	3,026921	2020-10-29T19:53:08:631
-10,329816	-0,782453	4,417150	2020-10-29T19:53:08:646
-8,970692	-1,296910	4,450650	2020-10-29T19:53:08:669
-8,370094	-0,758525	3,869194	2020-10-29T19:53:08:686
-9,040084	-0,390030	3,689733	2020-10-29T19:53:08:710
-9,745967	-0,825524	3,680161	2020-10-29T19:53:08:726
-10,269995	-0,428315	3,498307	2020-10-29T19:53:08:749
-10,272388	0,251246	3,096312	2020-10-29T19:53:08:766
-9,982857	0,394816	2,663212	2020-10-29T19:53:08:791
-9,968499	0,023928	2,110470	2020-10-29T19:53:08:807
-9,963714	-0,023928	1,610370	2020-10-29T19:53:08:829
-9,702895	-0,234497	1,605584	2020-10-29T19:53:08:846
-9,475577	-0,827917	1,792224	2020-10-29T19:53:08:871
-9,650253	-1,576870	1,890330	2020-10-29T19:53:08:886
-10,186246	-1,931008	1,775474	2020-10-29T19:53:08:909
-10,566705	-2,081756	1,840081	2020-10-29T19:53:08:926
-10,482956	-2,737389	2,024328	2020-10-29T19:53:08:951
-9,978070	-3,842873	2,337788	2020-10-29T19:53:08:966
-9,341579	-4,338188	2,555535	2020-10-29T19:53:08:989
-8,721838	-4,601398	2,768496	2020-10-29T19:53:09:006
-8,415558	-4,608576	2,967100	2020-10-29T19:53:09:030
-7,948956	-4,486543	3,227918	2020-10-29T19:53:09:049
-7,709675	-4,383651	3,237489	2020-10-29T19:53:09:069
-7,846066	-4,070191	3,141776	2020-10-29T19:53:09:086
-7,941778	-3,704089	3,079563	2020-10-29T19:53:09:112
-8,288737	-3,704089	3,098706	2020-10-29T19:53:09:126
-8,932407	-3,713661	3,125026	2020-10-29T19:53:09:149
-9,528220	-3,785445	3,263810	2020-10-29T19:53:09:166
-9,939785	-3,562913	3,381058	2020-10-29T19:53:09:191
-10,346564	-3,165704	2,979064	2020-10-29T19:53:09:206
-13,543377	-3,376273	3,531806	2020-10-29T19:53:09:229
-15,134604	-4,053442	4,211368	2020-10-29T19:53:09:246
-14,500504	-3,672983	3,019742	2020-10-29T19:53:09:270
-13,674981	-3,397808	2,091327	2020-10-29T19:53:09:287
-10,516455	-3,519842	1,545763	2020-10-29T19:53:09:310
-8,791230	-2,703890	0,899701	2020-10-29T19:53:09:326
-8,913264	-2,373680	0,818345	2020-10-29T19:53:09:353
-9,544970	-3,282953	1,194018	2020-10-29T19:53:09:367
-11,021341	-4,204189	1,050449	2020-10-29T19:53:09:390
-11,550155	-5,580062	1,567299	2020-10-29T19:53:09:407
-12,504892	-3,345166	1,002593	2020-10-29T19:53:09:431
-13,095919	-1,028914	1,095913	2020-10-29T19:53:09:447
-13,131810	-1,564906	1,727618	2020-10-29T19:53:09:469
-13,189239	-2,258825	2,222932	2020-10-29T19:53:09:487
-12,854243	-2,407180	1,892723	2020-10-29T19:53:09:512
-12,208181	-2,457429	1,217947	2020-10-29T19:53:09:529
-11,598011	-2,443072	0,614955	2020-10-29T19:53:09:551
-11,370694	-2,368894	0,294317	2020-10-29T19:53:09:567
-10,961520	-2,380858	-0,045464	2020-10-29T19:53:09:591
-10,497313	-2,395216	-0,193819	2020-10-29T19:53:09:607
-9,987641	-2,203789	-0,260818	2020-10-29T19:53:09:630
-9,442079	-2,122434	-0,172283	2020-10-29T19:53:09:647
-9,107083	-2,067399	0,294317	2020-10-29T19:53:09:671
-8,843873	-1,971686	0,440279	2020-10-29T19:53:09:687
-8,386844	-1,505085	0,653241	2020-10-29T19:53:09:710
-7,968100	-1,165305	0,696311	2020-10-29T19:53:09:727
-7,630712	-1,363909	1,004985	2020-10-29T19:53:09:752
-7,451250	-1,837688	1,466800	2020-10-29T19:53:09:769
-7,379465	-2,474179	2,084148	2020-10-29T19:53:09:791
-7,307681	-2,488536	2,249253	2020-10-29T19:53:09:807
-7,343572	-1,947758	2,177469	2020-10-29T19:53:09:831
-8,391629	-1,270589	1,380659	2020-10-29T19:53:09:847
-10,305886	-1,222732	1,239482	2020-10-29T19:53:09:870
-10,569098	-1,502693	1,555335	2020-10-29T19:53:09:888
-9,872787	-1,426122	1,897508	2020-10-29T19:53:09:912
-9,564112	-1,691726	2,969493	2020-10-29T19:53:09:927
-8,386844	-2,565106	3,967300	2020-10-29T19:53:09:951
-7,580462	-2,991028	4,615755	2020-10-29T19:53:09:967
-7,640282	-2,971886	5,010571	2020-10-29T19:53:09:991
-8,654840	-3,268596	5,178068	2020-10-29T19:53:10:008
-9,415757	-3,239882	4,687540	2020-10-29T19:53:10:030
-9,985250	-2,787638	3,950550	2020-10-29T19:53:10:047
-10,614561	-2,244468	2,950350	2020-10-29T19:53:10:072
-11,490334	-1,569692	1,854438	2020-10-29T19:53:10:087
-11,679367	-1,067199	1,349552	2020-10-29T19:53:10:110
-11,289338	-0,827917	1,098306	2020-10-29T19:53:10:127
-10,868200	-1,024128	1,138984	2020-10-29T19:53:10:151
-10,401600	-1,801795	1,325624	2020-10-29T19:53:10:167
-10,284351	-2,533999	1,459622	2020-10-29T19:53:10:190
-10,121639	-3,086741	1,593620	2020-10-29T19:53:10:207
-9,946963	-3,656233	1,746760	2020-10-29T19:53:10:231
-9,906286	-4,460221	1,823331	2020-10-29T19:53:10:248
-10,076177	-4,764110	2,194218	2020-10-29T19:53:10:270
-10,346564	-4,565506	2,378466	2020-10-29T19:53:10:288
-9,858429	-4,383651	2,333002	2020-10-29T19:53:10:313
-8,951550	-4,230510	2,206182	2020-10-29T19:53:10:327
-8,300702	-4,022335	2,462214	2020-10-29T19:53:10:350
-7,649854	-3,766303	2,842674	2020-10-29T19:53:10:368
-7,441679	-3,187240	3,342773	2020-10-29T19:53:10:392
-7,499106	-3,014957	3,558127	2020-10-29T19:53:10:408
-7,999206	-3,268596	3,818945	2020-10-29T19:53:10:431
-8,695518	-3,754339	3,864408	2020-10-29T19:53:10:448
-9,085547	-4,230510	3,847659	2020-10-29T19:53:10:472
-9,686146	-4,237689	4,242475	2020-10-29T19:53:10:490
-10,408779	-4,010371	3,830909	2020-10-29T19:53:10:511
-13,964513	-4,079762	4,871787	2020-10-29T19:53:10:529
-16,287943	-4,620540	6,180661	2020-10-29T19:53:10:552
-14,435899	-4,031906	5,915058	2020-10-29T19:53:10:570
-11,291731	-3,294917	4,778467	2020-10-29T19:53:10:593
-9,162118	-3,108276	3,550949	2020-10-29T19:53:10:609
-9,358330	-2,914458	2,938386	2020-10-29T19:53:10:632
-10,590633	-2,809174	2,907279	2020-10-29T19:53:10:649
-11,581261	-2,849852	2,770889	2020-10-29T19:53:10:671
-12,567105	-2,744568	2,249253	2020-10-29T19:53:10:689
-13,060026	-2,366502	1,629512	2020-10-29T19:53:10:713
-13,155738	-2,225325	1,399801	2020-10-29T19:53:10:730
-13,105491	-2,067399	1,217947	2020-10-29T19:53:10:751
-12,928421	-1,749153	1,136591	2020-10-29T19:53:10:769
-12,772887	-1,531406	1,038485	2020-10-29T19:53:10:792
-12,373285	-1,555335	0,918844	2020-10-29T19:53:10:809
-11,997612	-1,820938	0,803988	2020-10-29T19:53:10:831
-11,791830	-2,033899	0,713061	2020-10-29T19:53:10:849
-11,377872	-2,421536	0,564706	2020-10-29T19:53:10:873
-11,078769	-2,773281	0,473779	2020-10-29T19:53:10:889
-10,552348	-3,067599	0,674776	2020-10-29T19:53:10:911
-9,750752	-2,974278	0,969093	2020-10-29T19:53:10:929
-8,724231	-2,837888	1,576870	2020-10-29T19:53:10:953
-8,006385	-2,715853	2,246860	2020-10-29T19:53:10:970
-7,901100	-2,347359	2,361716	2020-10-29T19:53:10:991
-8,066205	-1,797010	2,155933	2020-10-29T19:53:11:008
-7,831708	-1,402194	1,952543	2020-10-29T19:53:11:032
-7,479963	-1,196411	1,871187	2020-10-29T19:53:11:048
-7,101898	-0,971486	1,739582	2020-10-29T19:53:11:071
-6,884151	-1,048056	1,940579	2020-10-29T19:53:11:089
-6,608976	-1,330409	2,421536	2020-10-29T19:53:11:112
-6,558727	-1,481157	2,562713	2020-10-29T19:53:11:128
-6,628119	-1,445265	2,648855	2020-10-29T19:53:11:152
-6,549156	-1,445265	2,691926	2020-10-29T19:53:11:168
-6,699903	-1,263410	2,766103	2020-10-29T19:53:11:194
-7,939385	-0,973879	2,684747	2020-10-29T19:53:11:209
-8,714661	-1,220340	3,225525	2020-10-29T19:53:11:231
-8,023134	-1,220340	2,914458	2020-10-29T19:53:11:248
-8,626125	-0,952343	2,646462	2020-10-29T19:53:11:273
-9,102298	-1,639083	3,495914	2020-10-29T19:53:11:289
-8,044669	-2,280360	4,321437	2020-10-29T19:53:11:312
-6,991827	-1,811367	4,228118	2020-10-29T19:53:11:329
-6,738188	-1,708475	4,046263	2020-10-29T19:53:11:352
-7,037291	-2,038685	3,912265	2020-10-29T19:53:11:369
-7,896315	-2,134398	3,972085	2020-10-29T19:53:11:394
-8,633304	-1,938186	4,015156	2020-10-29T19:53:11:409
-9,408579	-1,689333	3,885944	2020-10-29T19:53:11:433
-10,121639	-1,390230	3,615555	2020-10-29T19:53:11:450
-10,698310	-1,134198	3,251846	2020-10-29T19:53:11:472
-11,263017	-0,792024	2,696711	2020-10-29T19:53:11:489
-11,478370	-0,564706	2,148755	2020-10-29T19:53:11:513
-11,382657	-0,571885	2,014757	2020-10-29T19:53:11:529
-11,150554	-1,062413	2,136791	2020-10-29T19:53:11:552
-10,545169	-2,122434	2,495714	2020-10-29T19:53:11:569
-10,652846	-2,790031	2,799603	2020-10-29T19:53:11:594
-10,722239	-3,553342	3,108276	2020-10-29T19:53:11:609
-10,671989	-4,134798	3,330809	2020-10-29T19:53:11:632
-10,478169	-4,486543	3,306881	2020-10-29T19:53:11:649
-10,229317	-4,297509	3,153740	2020-10-29T19:53:11:673
-9,927821	-4,019942	3,077170	2020-10-29T19:53:11:691
-9,681360	-3,507878	3,321238	2020-10-29T19:53:11:712
-9,353544	-3,115455	3,464807	2020-10-29T19:53:11:729
-9,128618	-2,773281	3,732803	2020-10-29T19:53:11:753
-8,994620	-2,660819	3,840480	2020-10-29T19:53:11:769
-8,757731	-2,636890	3,914658	2020-10-29T19:53:11:792
-8,822337	-2,615355	3,972085	2020-10-29T19:53:11:809
-8,841480	-2,665605	4,089334	2020-10-29T19:53:11:833
-9,004191	-2,531606	4,225725	2020-10-29T19:53:11:849
-9,193225	-2,325824	4,400401	2020-10-29T19:53:11:872
-9,133404	-2,294717	4,543970	2020-10-29T19:53:11:890
-9,305687	-2,096112	4,376472	2020-10-29T19:53:11:913
-11,193624	-2,136791	4,060620	2020-10-29T19:53:11:930
-14,321043	-2,768496	4,759324	2020-10-29T19:53:11:953
-16,249659	-3,227918	5,501099	2020-10-29T19:53:11:969
-15,326030	-2,895315	4,919643	2020-10-29T19:53:11:996
-11,968900	-2,426322	3,321238	2020-10-29T19:53:12:014
-9,659825	-2,756532	2,706282	2020-10-29T19:53:12:032
-8,152347	-2,818745	2,787638	2020-10-29T19:53:12:049
-8,271988	-2,352145	2,117648	2020-10-29T19:53:12:073
-9,516255	-2,277967	1,983650	2020-10-29T19:53:12:090
-10,920842	-3,479164	2,038685	2020-10-29T19:53:12:112
-12,483356	-3,742374	2,120041	2020-10-29T19:53:12:129
-13,304093	-4,153940	1,651048	2020-10-29T19:53:12:155
-12,997812	-3,747160	0,777667	2020-10-29T19:53:12:171
-12,476178	-2,945565	-0,200997	2020-10-29T19:53:12:192
-12,629318	-2,220540	-0,921237	2020-10-29T19:53:12:209
-13,232309	-1,964507	-1,473979	2020-10-29T19:53:12:234
-12,792030	-2,000400	-2,756532	2020-10-29T19:53:12:250
-11,542977	-2,222932	-3,170490	2020-10-29T19:53:12:272
-10,925629	-3,079563	-2,780460	2020-10-29T19:53:12:290
-10,887343	-3,242275	-2,275574	2020-10-29T19:53:12:314
-10,973484	-2,529213	-2,244468	2020-10-29T19:53:12:329
-10,518847	-2,431108	-2,330609	2020-10-29T19:53:12:352
-9,765109	-2,301895	-2,038685	2020-10-29T19:53:12:370
7,314859	-11,528620	-30,489347	2020-10-29T19:53:12:394
-11,203196	4,689932	2,447858	2020-10-29T19:53:12:476
-12,244074	1,689333	3,708875	2020-10-29T19:53:12:885
-7,987241	-1,387837	2,313859	2020-10-29T19:53:12:886
-9,119047	1,050449	0,533599	2020-10-29T19:53:12:887
-4,989035	-0,445065	-0,899701	2020-10-29T19:53:12:888
-5,749953	0,131605	-0,423530	2020-10-29T19:53:12:888
-5,879165	-0,447458	0,646062	2020-10-29T19:53:12:889
-4,728218	-2,333002	2,251646	2020-10-29T19:53:12:890
-4,273581	-3,651447	3,029313	2020-10-29T19:53:12:891
-5,271388	-3,000600	3,103491	2020-10-29T19:53:12:892
-7,944171	-1,897508	3,895515	2020-10-29T19:53:12:893
-12,167502	-1,775474	5,484349	2020-10-29T19:53:12:922
-14,754145	-0,981057	5,331209	2020-10-29T19:53:12:923
-12,930815	0,497707	5,412565	2020-10-29T19:53:12:924
-11,346765	-0,007178	6,764510	2020-10-29T19:53:12:957
-10,581062	-1,103091	7,697710	2020-10-29T19:53:12:969
-11,009377	0,098106	7,649854	2020-10-29T19:53:12:970
-9,985250	4,704289	5,910272	2020-10-29T19:53:12:971
-13,667803	-6,422336	10,856236	2020-10-29T19:53:12:971
-11,413764	-13,292130	5,651847	2020-10-29T19:53:12:972
-10,217353	-15,548560	1,806581	2020-10-29T19:53:12:972
-7,027720	-9,738789	2,017149	2020-10-29T19:53:12:972
-7,575676	-3,620341	2,155933	2020-10-29T19:53:12:973
-7,982457	-1,134198	2,017149	2020-10-29T19:53:12:973
-8,236095	-1,031307	1,390230	2020-10-29T19:53:12:974
-8,465806	-1,653440	1,203590	2020-10-29T19:53:12:975
-8,283953	-1,596013	1,098306	2020-10-29T19:53:12:976
-8,293523	-2,218147	1,069592	2020-10-29T19:53:13:010
-8,250452	-3,211168	0,753739	2020-10-29T19:53:13:068
-8,494520	-3,627519	0,370888	2020-10-29T19:53:13:069
-8,676375	-3,297310	0,167498	2020-10-29T19:53:13:069
-8,745767	-2,859423	0,253639	2020-10-29T19:53:13:070
-8,719445	-2,452643	0,708275	2020-10-29T19:53:13:071
-8,841480	-2,409572	1,287339	2020-10-29T19:53:13:072
-8,597411	-2,388037	1,411765	2020-10-29T19:53:13:105
-8,580662	-2,361716	1,610370	2020-10-29T19:53:13:114
-8,425128	-2,340181	1,799403	2020-10-29T19:53:13:139
-8,319844	-2,447858	2,029114	2020-10-29T19:53:13:159
-8,291130	-2,912065	2,344966	2020-10-29T19:53:13:173
-8,432307	-3,292524	2,804388	2020-10-29T19:53:13:198
-8,573483	-3,933800	3,388237	2020-10-29T19:53:13:242
-8,578269	-4,309474	3,897908	2020-10-29T19:53:13:243
-8,812766	-4,500899	4,512863	2020-10-29T19:53:13:258
-8,951550	-4,278367	5,103891	2020-10-29T19:53:13:290
-9,107083	-4,431508	5,582455	2020-10-29T19:53:13:291
-9,461221	-3,129812	7,965706	2020-10-29T19:53:13:336
-9,619147	-2,593820	9,868000	2020-10-29T19:53:13:357
-12,031113	4,161119	5,821737	2020-10-29T19:53:13:358
-16,907684	6,216553	2,935993	2020-10-29T19:53:13:374
-13,648660	1,040878	2,957529	2020-10-29T19:53:13:499
-8,891729	1,433301	2,696711	2020-10-29T19:53:13:531
-7,506285	0,457029	2,065006	2020-10-29T19:53:13:599
-8,133204	-1,208375	1,887937	2020-10-29T19:53:13:600
-10,145569	-1,904687	2,141576	2020-10-29T19:53:13:600
-11,621940	-1,835295	2,342573	2020-10-29T19:53:13:600
-11,909079	-2,490928	2,455036	2020-10-29T19:53:13:605
-11,531013	-3,859623	1,895115	2020-10-29T19:53:13:607
-10,846665	-4,936393	1,079163	2020-10-29T19:53:13:608
-10,035499	-4,807181	0,732204	2020-10-29T19:53:13:609
-9,475577	-3,802195	0,543171	2020-10-29T19:53:13:609
-9,506684	-2,761317	0,598206	2020-10-29T19:53:13:610
-9,451650	-2,232504	0,973879	2020-10-29T19:53:13:631
-9,018548	-2,232504	1,339981	2020-10-29T19:53:13:649
-8,334201	-2,443072	1,246661	2020-10-29T19:53:13:673
-8,102098	-3,031706	0,930808	2020-10-29T19:53:13:689
-8,188239	-3,153740	0,921237	2020-10-29T19:53:13:711
-8,623734	-3,663411	0,789631	2020-10-29T19:53:13:729
-8,999406	-3,704089	0,686740	2020-10-29T19:53:13:757
-9,042477	-3,337988	0,619741	2020-10-29T19:53:13:769
-9,047262	-2,703890	0,612563	2020-10-29T19:53:13:794
-8,889337	-2,120041	0,722632	2020-10-29T19:53:13:822
-8,556733	-1,588834	0,713061	2020-10-29T19:53:13:834
-8,417950	-1,239482	0,662812	2020-10-29T19:53:13:860
-8,472985	-1,337588	0,739382	2020-10-29T19:53:13:874
-8,583055	-1,402194	1,186840	2020-10-29T19:53:13:891
-8,796017	-1,739582	1,476372	2020-10-29T19:53:13:914
-8,717053	-2,053042	1,686940	2020-10-29T19:53:13:930
-8,374879	-2,639283	2,218147	2020-10-29T19:53:13:954
-8,176274	-2,782853	2,356930	2020-10-29T19:53:13:971
-8,190632	-1,198804	2,218147	2020-10-29T19:53:13:995
-7,494320	0,772882	1,830509	2020-10-29T19:53:14:025
-8,578269	0,119641	2,057827	2020-10-29T19:53:14:047
-11,715261	-2,014757	4,409972	2020-10-29T19:53:14:054
-12,875778	-2,888137	4,465007	2020-10-29T19:53:14:076
-12,586248	-1,529014	4,577469	2020-10-29T19:53:14:108
-11,837293	-0,062213	4,058227	2020-10-29T19:53:14:163
-10,523634	-0,153141	4,883751	2020-10-29T19:53:14:164
-9,217153	1,215554	4,701896	2020-10-29T19:53:14:172
-9,757930	1,299303	4,546363	2020-10-29T19:53:14:173
-10,645668	1,155733	4,804788	2020-10-29T19:53:14:195
-11,179268	1,430908	4,292724	2020-10-29T19:53:14:211
-11,320443	0,425922	4,366901	2020-10-29T19:53:14:237
-10,695917	-3,000600	4,204189	2020-10-29T19:53:14:250
-9,954143	-4,395615	4,141976	2020-10-29T19:53:14:274
-9,451650	-3,294917	4,388437	2020-10-29T19:53:14:292
-9,193225	-0,899701	4,287938	2020-10-29T19:53:14:315
-7,869993	-3,424129	3,862016	2020-10-29T19:53:14:332
-7,709675	-2,952743	3,763910	2020-10-29T19:53:14:355
-7,391429	-1,976472	4,295116	2020-10-29T19:53:14:371
-6,781260	-2,644069	5,467600	2020-10-29T19:53:14:395
-6,790830	-2,115255	6,171089	2020-10-29T19:53:14:411
-7,326823	-0,839881	5,733203	2020-10-29T19:53:14:434
-7,994420	-0,569492	5,024928	2020-10-29T19:53:14:451
-8,599805	-0,885344	4,462614	2020-10-29T19:53:14:475
-9,083155	-1,131805	4,462614	2020-10-29T19:53:14:492
-9,521042	-1,323231	4,759324	2020-10-29T19:53:14:514
-9,934999	-1,730011	5,132604	2020-10-29T19:53:14:532
-9,841680	-1,873580	5,170890	2020-10-29T19:53:14:555
-9,846465	-1,816152	4,967500	2020-10-29T19:53:14:572
-9,872787	-1,694118	4,910072	2020-10-29T19:53:14:595
-10,004392	-1,483550	4,486543	2020-10-29T19:53:14:612
-10,057034	-1,222732	4,189832	2020-10-29T19:53:14:637
-9,980463	-1,095913	3,699304	2020-10-29T19:53:14:652
-10,088140	-1,433301	3,254239	2020-10-29T19:53:14:674
-9,901501	-1,686940	2,962314	2020-10-29T19:53:14:692
-9,848858	-1,947758	2,639283	2020-10-29T19:53:14:717
-9,705289	-2,182254	2,440679	2020-10-29T19:53:14:732
-9,513863	-2,344966	2,277967	2020-10-29T19:53:14:755
-9,391829	-2,321038	1,957329	2020-10-29T19:53:14:772
-9,731609	-2,246860	1,507478	2020-10-29T19:53:14:797
-9,489935	-2,136791	1,320838	2020-10-29T19:53:14:813
-8,937192	-2,062613	1,328017	2020-10-29T19:53:14:836
-8,422735	-1,871187	1,332802	2020-10-29T19:53:14:852
-8,343772	-1,627119	1,517050	2020-10-29T19:53:14:876
-8,578269	-1,361516	1,715654	2020-10-29T19:53:14:892
-8,678767	-1,371087	2,165504	2020-10-29T19:53:14:915
-8,226524	-1,354338	2,474179	2020-10-29T19:53:14:932
-7,802995	-1,225125	2,409572	2020-10-29T19:53:14:956
-7,676175	-1,301696	2,464607	2020-10-29T19:53:14:972
-7,530212	-1,356731	2,366502	2020-10-29T19:53:14:995
-7,247860	-1,375873	1,799403	2020-10-29T19:53:15:012
-7,451250	-1,402194	1,404587	2020-10-29T19:53:15:036
-8,264810	-1,940579	1,205983	2020-10-29T19:53:15:054
-8,764909	-3,364309	1,708475	2020-10-29T19:53:15:075
-8,930015	-2,711068	2,105684	2020-10-29T19:53:15:092
-9,348758	-1,210768	2,112862	2020-10-29T19:53:15:117
-10,219746	-0,978664	2,395216	2020-10-29T19:53:15:133
-11,107484	-1,761117	2,744568	2020-10-29T19:53:15:156
-12,399607	-2,646462	2,967100	2020-10-29T19:53:15:210
-13,926227	-2,976671	2,873780	2020-10-29T19:53:15:211
-15,335601	-3,278167	2,397608	2020-10-29T19:53:15:212
-15,857236	-2,519642	3,120241	2020-10-29T19:53:15:242
-15,919449	0,954736	3,739982	2020-10-29T19:53:15:253
-13,414164	-6,379266	-0,679562	2020-10-29T19:53:15:283
-12,614961	-6,422336	0,959522	2020-10-29T19:53:15:296
-10,782058	-5,737988	-0,325424	2020-10-29T19:53:15:316
-10,502099	-4,079762	-0,083749	2020-10-29T19:53:15:332
-9,595219	-3,347559	-0,416351	2020-10-29T19:53:15:355
-9,540184	-2,878566	-0,655633	2020-10-29T19:53:15:373
-9,554541	-2,189433	-0,868595	2020-10-29T19:53:15:396
-9,686146	-2,227718	-0,839881	2020-10-29T19:53:15:413
-9,200402	-2,833102	-0,552742	2020-10-29T19:53:15:436
-8,602197	-3,352344	-0,258425	2020-10-29T19:53:15:452
-8,752945	-3,859623	0,064606	2020-10-29T19:53:15:476
-9,643075	-3,847659	0,174676	2020-10-29T19:53:15:493
-10,664811	-3,909872	0,370888	2020-10-29T19:53:15:516
-11,085947	-3,723232	0,227318	2020-10-29T19:53:15:533
-10,851451	-3,555735	0,303888	2020-10-29T19:53:15:555
-10,499706	-3,335595	0,507278	2020-10-29T19:53:15:572
-10,202995	-2,952743	0,957129	2020-10-29T19:53:15:597
-9,710074	-2,742175	1,639083	2020-10-29T19:53:15:613
-10,243673	-2,725425	2,433501	2020-10-29T19:53:15:635
-11,911470	-3,110669	4,182654	2020-10-29T19:53:15:653
-12,229716	-3,873980	6,608976	2020-10-29T19:53:15:677
-11,150554	-4,280759	7,460821	2020-10-29T19:53:15:693
-9,939785	-3,620341	7,283752	2020-10-29T19:53:15:716
-8,941978	-2,763710	6,872187	2020-10-29T19:53:15:733
-8,142776	-1,732404	6,372087	2020-10-29T19:53:15:756
-7,274181	-0,457029	5,560920	2020-10-29T19:53:15:774
-6,747760	0,452243	4,613362	2020-10-29T19:53:15:796
-6,582655	0,502493	3,754339	2020-10-29T19:53:15:813
-6,735795	0,502493	3,876373	2020-10-29T19:53:15:837
-7,049256	-0,186640	3,847659	2020-10-29T19:53:15:853
-7,858029	-0,342174	3,579663	2020-10-29T19:53:15:876
-9,037691	-0,832702	3,215954	2020-10-29T19:53:15:893
-9,961320	-1,007378	3,058028	2020-10-29T19:53:15:917
-10,923235	-1,287339	3,041277	2020-10-29T19:53:15:933
-11,337193	-1,383051	2,708675	2020-10-29T19:53:15:957
-11,026128	-1,469193	2,187040	2020-10-29T19:53:15:973
-10,080962	-1,852045	1,804188	2020-10-29T19:53:15:997
-9,564112	-2,074577	1,962115	2020-10-29T19:53:16:015
-9,781858	-2,244468	2,153540	2020-10-29T19:53:16:036
-9,889536	-2,481357	2,321038	2020-10-29T19:53:16:053
-9,626326	-2,979064	2,292324	2020-10-29T19:53:16:077
-9,169296	-3,333202	2,103291	2020-10-29T19:53:16:093
-8,898908	-3,354738	1,849652	2020-10-29T19:53:16:116
-9,958927	-2,907279	1,715654	2020-10-29T19:53:16:133
-11,940186	-2,402394	1,732404	2020-10-29T19:53:16:157
-12,311072	-1,966900	1,371087	2020-10-29T19:53:16:173
-13,048061	-1,306481	1,162912	2020-10-29T19:53:16:237
-13,780266	-0,961915	0,933201	2020-10-29T19:53:16:239
-13,686946	-0,684347	0,926022	2020-10-29T19:53:16:239
-12,538391	-0,698704	0,961915	2020-10-29T19:53:16:256
-10,791630	-0,851845	0,882952	2020-10-29T19:53:16:296
-9,461221	-0,861416	0,622134	2020-10-29T19:53:16:297
-8,300702	-1,081556	0,435494	2020-10-29T19:53:16:321
-7,657032	-1,351945	0,301496	2020-10-29T19:53:16:335
-7,441679	-1,464408	0,390030	2020-10-29T19:53:16:357
-7,439285	-1,663012	0,521635	2020-10-29T19:53:16:373
-7,654640	-2,014757	0,545564	2020-10-29T19:53:16:397
-7,755138	-2,333002	0,492921	2020-10-29T19:53:16:413
-7,972885	-2,361716	0,303888	2020-10-29T19:53:16:437
-8,279166	-2,160719	0,196211	2020-10-29T19:53:16:453
-8,941978	-2,194218	0,110070	2020-10-29T19:53:16:477
-9,990034	-2,376073	-0,014357	2020-10-29T19:53:16:495
-11,145767	-2,507678	-0,263210	2020-10-29T19:53:16:517
-11,830115	-2,715853	-0,696311	2020-10-29T19:53:16:533
-12,909278	-2,727818	-1,507478	2020-10-29T19:53:16:557
-12,770494	-2,318645	-2,964707	2020-10-29T19:53:16:574
-12,224932	-2,076970	-3,493521	2020-10-29T19:53:16:598
-12,016755	-2,979064	-3,495914	2020-10-29T19:53:16:617
-12,275180	-3,842873	-3,192025	2020-10-29T19:53:16:639
-10,815558	-3,787838	-0,792024	2020-10-29T19:53:55:146
-10,971091	-3,833302	-1,531406	2020-10-29T19:53:55:148
-10,557133	-3,536592	-2,038685	2020-10-29T19:53:55:149
-9,475577	-3,046063	-2,201397	2020-10-29T19:53:55:149
-8,858230	-2,275574	-2,380858	2020-10-29T19:53:55:166
-8,779266	-1,859223	-2,533999	2020-10-29T19:53:55:186
-8,398808	-2,510071	-2,191825	2020-10-29T19:53:55:201
-8,549555	-1,895115	-1,430908	2020-10-29T19:53:55:223
-8,740981	-1,873580	-0,870987	2020-10-29T19:53:55:240
-8,669197	-2,356930	-0,622134	2020-10-29T19:53:55:284
-8,451449	-2,522035	-0,765703	2020-10-29T19:53:55:285
-8,405986	-3,086741	-0,323031	2020-10-29T19:53:55:303
-9,353544	-3,553342	0,887737	2020-10-29T19:53:55:318
-10,159925	-4,024727	1,320838	2020-10-29T19:53:55:341
-10,727024	-4,733003	1,167697	2020-10-29T19:53:55:359
-12,083755	-5,960521	2,041078	2020-10-29T19:53:55:384
-13,440485	-6,680761	2,067399	2020-10-29T19:53:55:401
-14,670395	-7,202396	2,476572	2020-10-29T19:53:55:423
-15,491134	-8,128418	2,792424	2020-10-29T19:53:55:440
-15,089140	-8,219346	3,684947	2020-10-29T19:53:55:464
-14,057834	-8,166703	4,910072	2020-10-29T19:53:55:481
-12,263215	-8,176274	5,268995	2020-10-29T19:53:55:503
-10,827522	-6,149554	4,558327	2020-10-29T19:53:55:520
-9,667004	-5,338387	5,051248	2020-10-29T19:53:55:544
-8,023134	-5,491528	5,223531	2020-10-29T19:53:55:560
-7,312466	-5,161318	5,032106	2020-10-29T19:53:55:583
-6,343372	-4,749753	4,419543	2020-10-29T19:53:55:600
-5,386244	-5,024928	3,852444	2020-10-29T19:53:55:624
-4,981857	-4,924429	3,156133	2020-10-29T19:53:55:640
-4,603791	-4,453043	2,775674	2020-10-29T19:53:55:663
-4,218546	-4,106083	2,502892	2020-10-29T19:53:55:680
-3,881158	-3,842873	2,531606	2020-10-29T19:53:55:704
-3,462414	-3,610770	2,502892	2020-10-29T19:53:55:721
-3,050849	-3,378666	2,431108	2020-10-29T19:53:55:743
-2,794817	-3,445665	1,971686	2020-10-29T19:53:55:760
-2,476572	-3,225525	1,828116	2020-10-29T19:53:55:785
-2,177469	-3,019742	1,866402	2020-10-29T19:53:55:800
-1,808974	-2,620141	1,328017	2020-10-29T19:53:55:824
-1,249053	-1,811367	0,380459	2020-10-29T19:53:55:840
-1,440479	-2,431108	0,476172	2020-10-29T19:53:55:865
-1,986043	-3,278167	1,761117	2020-10-29T19:53:55:880
-3,036492	-2,634498	2,706282	2020-10-29T19:53:55:904
-4,811966	-1,320838	2,993421	2020-10-29T19:53:55:921
-5,615955	-0,447458	1,466800	2020-10-29T19:53:55:944
-7,396214	-1,497907	1,088734	2020-10-29T19:53:55:962
-10,815558	-2,725425	2,112862	2020-10-29T19:53:55:983
-14,689538	-3,022135	3,309274	2020-10-29T19:53:56:000
-17,611174	-3,139383	4,924429	2020-10-29T19:53:56:025
-17,833706	-3,522235	6,606583	2020-10-29T19:53:56:040
-16,699509	-3,175276	7,190433	2020-10-29T19:53:56:064
-16,500904	-2,321038	6,293124	2020-10-29T19:53:56:080
-15,661024	0,332602	3,840480	2020-10-29T19:53:56:105
-14,962320	4,017549	1,622334	2020-10-29T19:53:56:120
-14,636896	4,532006	0,655633	2020-10-29T19:53:56:144
-14,294723	3,352344	1,201197	2020-10-29T19:53:56:161
-13,945370	2,297110	1,981257	2020-10-29T19:53:56:185
-13,442878	2,825923	1,158126	2020-10-29T19:53:56:202
-13,454842	2,991028	0,411566	2020-10-29T19:53:56:223
-13,868800	-0,799203	2,194218	2020-10-29T19:53:56:240
-12,815958	-5,029713	2,979064	2020-10-29T19:53:56:265
-11,126624	-6,922436	2,086541	2020-10-29T19:53:56:280
-9,628718	-8,008778	1,500300	2020-10-29T19:53:56:304
-9,678967	-8,068598	1,196411	2020-10-29T19:53:56:320
-10,449455	-6,326623	1,933401	2020-10-29T19:53:56:344
-9,604790	-4,273581	2,122434	2020-10-29T19:53:56:361
-9,808180	-3,089134	2,766103	2020-10-29T19:53:56:384
-10,030712	-2,251646	3,002992	2020-10-29T19:53:56:401
-9,848858	-1,031307	2,713461	2020-10-29T19:53:56:425
-9,774680	-0,765703	2,452643	2020-10-29T19:53:56:443
-9,659825	-1,117448	2,333002	2020-10-29T19:53:56:464
-9,233903	-1,852045	2,421536	2020-10-29T19:53:56:481
-8,652447	-2,266003	2,715853	2020-10-29T19:53:56:505
-8,104490	-2,536392	2,749353	2020-10-29T19:53:56:521
-7,807780	-3,048456	2,734996	2020-10-29T19:53:56:544
-7,862815	-3,486342	2,687140	2020-10-29T19:53:56:561
-8,494520	-3,665804	2,249253	2020-10-29T19:53:56:586
-9,324830	-4,266403	2,414358	2020-10-29T19:53:56:601
-8,377272	-4,476971	3,448057	2020-10-29T19:53:56:624
-7,527820	-3,976871	3,546163	2020-10-29T19:53:56:641
-7,958528	-3,718446	3,658626	2020-10-29T19:53:56:665
-10,741381	-3,998406	3,754339	2020-10-29T19:53:56:682
-14,897714	-4,661219	4,639683	2020-10-29T19:53:56:704
-17,395821	-5,568098	5,687739	2020-10-29T19:53:56:721
-17,603996	-5,402994	6,151947	2020-10-29T19:53:56:745
-16,575081	-4,620540	6,977471	2020-10-29T19:53:56:762
-14,880964	-3,467200	7,941778	2020-10-29T19:53:56:784
-13,564911	-2,543570	8,568698	2020-10-29T19:53:56:802
-13,119846	-2,667997	8,121240	2020-10-29T19:53:56:825
-14,330614	-3,306881	6,302694	2020-10-29T19:53:56:841
-16,027126	-3,038885	4,493721	2020-10-29T19:53:56:865
-16,476976	-2,804388	3,117848	2020-10-29T19:53:56:881
-15,601204	-2,067399	2,567499	2020-10-29T19:53:56:905
-13,000205	-1,816152	3,127419	2020-10-29T19:53:56:922
-12,052648	-3,034099	4,170690	2020-10-29T19:53:56:944
-10,822738	-2,706282	4,934000	2020-10-29T19:53:56:962
-9,224331	-4,902894	2,550749	2020-10-29T19:53:56:985
-6,912865	-4,223332	-0,086142	2020-10-29T19:53:57:002
-5,580062	-0,253639	-1,457229	2020-10-29T19:53:57:024
-5,154140	2,232504	-1,194018	2020-10-29T19:53:57:042
-8,276773	1,119841	0,619741	2020-10-29T19:53:57:066
-6,278766	29,881569	0,983450	2020-10-29T19:53:57:081
-6,776474	9,853643	-1,395016	2020-10-29T19:53:57:105
-3,383451	7,568498	-0,009571	2020-10-29T19:53:57:122
-4,443472	5,127820	-1,349552	2020-10-29T19:53:57:146
-4,558327	-0,784846	-0,248854	2020-10-29T19:53:57:163
-5,254639	-2,801995	0,031107	2020-10-29T19:53:57:184
-5,060820	-0,885344	1,182054	2020-10-29T19:53:57:202
-5,304887	0,110070	1,009771	2020-10-29T19:53:57:226
-5,022535	-1,265803	0,947558	2020-10-29T19:53:57:241
-4,900501	-2,656033	0,916451	2020-10-29T19:53:57:265
-5,233103	-4,046263	0,720240	2020-10-29T19:53:57:282
-5,678168	-4,409972	0,555135	2020-10-29T19:53:57:306
-6,436693	-4,216154	0,727418	2020-10-29T19:53:57:321
-7,630712	-4,508078	1,411765	2020-10-29T19:53:57:346
-9,025726	-4,613362	2,048256	2020-10-29T19:53:57:362
-9,860823	-4,309474	2,785245	2020-10-29T19:53:57:386
-10,899307	-4,548756	4,199404	2020-10-29T19:53:57:403
-12,014362	-4,783253	4,280759	2020-10-29T19:53:57:425
-12,923635	-4,747360	2,019542	2020-10-29T19:53:57:442
-14,416756	-5,056034	0,181855	2020-10-29T19:53:57:467
-16,989040	-6,008378	-0,679562	2020-10-29T19:53:57:482
-20,939592	-6,549156	0,126820	2020-10-29T19:53:57:506
-18,910479	-7,360322	0,351745	2020-10-29T19:53:57:522
-20,011175	-7,704889	0,452243	2020-10-29T19:53:57:546
-19,147367	-7,762317	1,959722	2020-10-29T19:53:57:562
-16,642082	-7,826923	3,847659	2020-10-29T19:53:57:585
-14,608182	-7,396214	4,986642	2020-10-29T19:53:57:602
-12,567105	-6,640083	5,000999	2020-10-29T19:53:57:627
-10,530812	-6,513263	4,634897	2020-10-29T19:53:57:643
-9,406186	-7,013363	3,718446	2020-10-29T19:53:57:666
-9,607183	-6,601797	3,098706	2020-10-29T19:53:57:682
-10,289137	-5,393422	2,720639	2020-10-29T19:53:57:707
-10,236496	-3,450450	1,890330	2020-10-29T19:53:57:722
-10,080962	-2,806781	1,280160	2020-10-29T19:53:57:745
-9,779467	-3,562913	1,220340	2020-10-29T19:53:57:762
-9,377472	-4,132405	1,201197	2020-10-29T19:53:57:787
-9,052048	-3,950550	1,550549	2020-10-29T19:53:57:802
-8,193025	-4,249653	2,038685	2020-10-29T19:53:57:825
-7,453642	-4,067799	2,536392	2020-10-29T19:53:57:842
-6,699903	-3,859623	3,014957	2020-10-29T19:53:57:867
-6,513263	-3,548556	2,723032	2020-10-29T19:53:57:883
-8,652447	-4,771288	2,907279	2020-10-29T19:53:57:905
-10,695917	-6,379266	4,103691	2020-10-29T19:53:57:922
-12,813565	-6,336195	3,515057	2020-10-29T19:53:57:946
-14,634504	-4,718646	1,531406	2020-10-29T19:53:57:962
-14,742181	-4,788038	1,363909	2020-10-29T19:53:57:985
-14,557933	-3,426522	1,758725	2020-10-29T19:53:58:003
-17,204393	-7,843673	2,117648	2020-10-29T19:53:58:027
-14,117653	-4,943572	-4,859823	2020-10-29T19:53:58:042
-13,402200	6,199803	0,574277	2020-10-29T19:53:58:066
-12,440285	3,845266	1,261017	2020-10-29T19:53:58:082
-12,169895	1,890330	1,507478	2020-10-29T19:53:58:108
-11,401800	-0,995414	1,208375	2020-10-29T19:53:58:124
-10,870593	-1,720440	1,217947	2020-10-29T19:53:58:145
-10,298709	-2,443072	1,177269	2020-10-29T19:53:58:163
-9,238688	-3,737589	1,914258	2020-10-29T19:53:58:187
-9,169296	-4,649254	2,828316	2020-10-29T19:53:58:203
-9,540184	-4,103691	3,407379	2020-10-29T19:53:58:225
-9,564112	-3,359523	4,103691	2020-10-29T19:53:58:243
-9,284152	-3,361916	4,165904	2020-10-29T19:53:58:267
-8,487342	-3,086741	3,704089	2020-10-29T19:53:58:282
-7,738388	-2,766103	3,249453	2020-10-29T19:53:58:307
-9,087940	-2,254039	1,713261	2020-10-29T19:53:58:323
-12,660425	-1,641476	2,005185	2020-10-29T19:53:58:346
-9,583255	-1,529014	2,459821	2020-10-29T19:53:58:364
-10,262815	-1,167697	1,940579	2020-10-29T19:53:58:385
-11,212767	-1,454836	2,220540	2020-10-29T19:53:58:403
-7,989635	-1,785046	2,974278	2020-10-29T19:53:58:427
-5,711668	-1,636691	3,806981	2020-10-29T19:53:58:443
-4,663611	-1,739582	4,534399	2020-10-29T19:53:58:466
-4,634897	-1,847259	4,122833	2020-10-29T19:53:58:483
-5,077570	-1,813759	3,407379	2020-10-29T19:53:58:507
-5,809773	-1,768296	2,651247	2020-10-29T19:53:58:522
-6,666404	-1,533799	1,974079	2020-10-29T19:53:58:547
-7,633104	-1,335195	1,674976	2020-10-29T19:53:58:563
-8,195417	-1,091127	1,808974	2020-10-29T19:53:58:587
-8,094919	-0,894916	1,942972	2020-10-29T19:53:58:604
-7,463214	-0,629312	2,043471	2020-10-29T19:53:58:625
-6,565905	-0,760918	2,191825	2020-10-29T19:53:58:643
-6,553941	-0,665205	2,861816	2020-10-29T19:53:58:667
-7,013363	-0,392423	3,407379	2020-10-29T19:53:58:683
-8,575876	-0,437887	4,003192	2020-10-29T19:53:58:706
-7,977671	-1,124627	4,285545	2020-10-29T19:53:58:723
-7,606783	-1,387837	3,797409	2020-10-29T19:53:58:747
-8,575876	-1,562513	2,986243	2020-10-29T19:53:58:763
-8,941978	-1,806581	2,469393	2020-10-29T19:53:58:787
-9,623933	-1,835295	1,974079	2020-10-29T19:53:58:803
-11,131411	-2,335395	1,823331	2020-10-29T19:53:58:827
-13,174881	-3,383451	1,737189	2020-10-29T19:53:58:844
-13,990833	-3,747160	1,959722	2020-10-29T19:53:58:866
-13,263416	-3,739982	2,493321	2020-10-29T19:53:58:883
-12,825529	-4,232903	3,416951	2020-10-29T19:53:58:907
-12,758532	-4,532006	4,106083	2020-10-29T19:53:58:923
-12,339786	-4,914857	4,022335	2020-10-29T19:53:58:947
-11,557333	-5,503492	3,531806	2020-10-29T19:53:58:964
-10,633704	-5,498707	3,462414	2020-10-29T19:53:58:987
-10,023535	-4,919643	3,354738	2020-10-29T19:53:59:003
-9,669396	-4,309474	3,345166	2020-10-29T19:53:59:026
-9,260223	-3,627519	3,531806	2020-10-29T19:53:59:043
-9,135797	-2,581856	5,359922	2020-10-29T19:53:59:068
-8,537591	-1,141376	4,218546	2020-10-29T19:53:59:085
-8,073383	-0,471386	2,921637	2020-10-29T19:53:59:106
-11,169697	-1,677369	4,656433	2020-10-29T19:53:59:123
-12,064612	-4,335794	6,599405	2020-10-29T19:53:59:147
-12,827922	-6,451050	6,553941	2020-10-29T19:53:59:164
-13,713267	-8,662018	6,281159	2020-10-29T19:53:59:187
-11,430513	-8,841480	5,044070	2020-10-29T19:53:59:204
-9,279366	-8,099705	3,694518	2020-10-29T19:53:59:228
-8,427521	-6,948757	2,507678	2020-10-29T19:53:59:243
-9,473185	-5,307281	1,775474	2020-10-29T19:53:59:268
-10,959127	-3,905087	0,368495	2020-10-29T19:53:59:284
-12,165110	-2,981457	-0,957129	2020-10-29T19:53:59:308
-13,012171	-3,134598	-1,569692	2020-10-29T19:53:59:325
-13,356737	-3,744767	-1,521835	2020-10-29T19:53:59:346
-14,746965	-3,574877	-1,021735	2020-10-29T19:53:59:364
-15,632310	-3,371487	-0,363709	2020-10-29T19:53:59:388
-14,952748	-4,072584	0,586242	2020-10-29T19:53:59:404
-14,400006	-4,977071	0,897308	2020-10-29T19:53:59:427
-14,344972	-5,388636	0,236889	2020-10-29T19:53:59:444
-14,112868	-5,496314	-1,227518	2020-10-29T19:53:59:468
-14,041083	-5,735595	-2,612962	2020-10-29T19:53:59:483
-13,272987	-5,809773	-3,558127	2020-10-29T19:53:59:508
-12,689137	-5,486742	-3,684947	2020-10-29T19:53:59:524
-12,727424	-5,190032	-3,024528	2020-10-29T19:53:59:548
-12,260822	-5,146961	-0,363709	2020-10-29T19:53:59:565
-11,301301	-5,340781	0,497707	2020-10-29T19:53:59:587
-10,112068	-5,364708	-0,370888	2020-10-29T19:53:59:604
-9,614362	-6,673582	-1,512264	2020-10-29T19:53:59:628
-9,820145	-7,719246	-2,055435	2020-10-29T19:53:59:644
-9,159724	-7,267002	-1,304088	2020-10-29T19:53:59:667
-8,477771	-7,109076	-0,758525	2020-10-29T19:53:59:684
-7,848458	-8,276773	-0,473779	2020-10-29T19:53:59:708
-7,482357	-7,465607	-0,909273	2020-10-29T19:53:59:724
-7,496714	-7,467999	-0,488136	2020-10-29T19:53:59:748
-6,845865	-7,109076	-0,004786	2020-10-29T19:53:59:765
-5,402994	-6,245267	0,267996	2020-10-29T19:53:59:788
-3,256632	-6,632904	0,212961	2020-10-29T19:53:59:805
-1,852045	-7,389036	-0,224925	2020-10-29T19:53:59:827
-0,827917	-7,164111	-0,277567	2020-10-29T19:53:59:844
-0,224925	-6,101698	1,213161	2020-10-29T19:53:59:868
0,483350	-4,543970	2,734996	2020-10-29T19:53:59:884
0,780060	-4,060620	3,443272	2020-10-29T19:53:59:907
1,856830	-0,224925	2,378466	2020-10-29T19:53:59:924
-7,420143	-6,333801	28,857441	2020-10-29T19:53:59:948
-3,955336	-6,372087	23,818157	2020-10-29T19:53:59:965
3,577270	-12,904492	1,763510	2020-10-29T19:53:59:987
4,328616	-10,695917	-1,265803	2020-10-29T19:54:00:005
3,529413	-6,845865	2,376073	2020-10-29T19:54:00:028
2,208575	-4,156333	5,254639	2020-10-29T19:54:00:045
2,775674	-4,893322	4,319045	2020-10-29T19:54:00:069
3,622734	-5,893522	2,397608	2020-10-29T19:54:00:084
2,964707	-5,324030	2,048256	2020-10-29T19:54:00:109
2,830709	-5,134997	1,536192	2020-10-29T19:54:00:124
2,189433	-5,237889	1,421337	2020-10-29T19:54:00:147
1,241875	-5,247460	1,950150	2020-10-29T19:54:00:165
0,691526	-5,479564	2,428715	2020-10-29T19:54:00:188
0,378066	-5,405386	3,359523	2020-10-29T19:54:00:204
0,882952	-4,869394	3,771089	2020-10-29T19:54:00:227
1,088734	-4,261617	3,986443	2020-10-29T19:54:00:244
0,892523	-3,280560	3,964907	2020-10-29T19:54:00:269
0,552742	-2,711068	3,625126	2020-10-29T19:54:00:286
0,069392	-1,842474	3,235096	2020-10-29T19:54:00:308
-0,492921	-1,615155	3,414558	2020-10-29T19:54:00:324
-1,110270	-2,053042	4,149154	2020-10-29T19:54:00:349
-1,801795	-1,227518	5,020142	2020-10-29T19:54:00:365
-3,172883	-2,234896	5,917450	2020-10-29T19:54:00:388
-4,120440	-3,972085	4,996214	2020-10-29T19:54:00:405
-5,785845	-4,326223	3,562913	2020-10-29T19:54:00:429
-8,470592	-5,642276	2,170290	2020-10-29T19:54:00:444
-11,399406	-6,120840	3,352344	2020-10-29T19:54:00:471
-14,177474	-10,712667	3,251846	2020-10-29T19:54:00:485
-14,112868	-10,791630	2,426322	2020-10-29T19:54:00:510
-13,923835	-7,953743	1,103091	2020-10-29T19:54:00:526
-15,529420	-5,843273	0,545564	2020-10-29T19:54:00:549
-16,859827	-5,958128	0,806381	2020-10-29T19:54:00:565
-17,656639	-6,417551	1,143769	2020-10-29T19:54:00:589
-18,118454	-7,331609	1,543371	2020-10-29T19:54:00:605
-17,714066	-8,353344	1,694118	2020-10-29T19:54:00:628
-16,962721	-8,181061	1,550549	2020-10-29T19:54:00:645
-16,185053	-7,178468	1,339981	2020-10-29T19:54:00:669
-15,550954	-6,245267	1,131805	2020-10-29T19:54:00:685
-14,864214	-6,656832	1,488336	2020-10-29T19:54:00:708
-13,959727	-7,063612	1,323231	2020-10-29T19:54:00:725
-12,710674	-7,848458	1,055235	2020-10-29T19:54:00:749
-11,849257	-8,487342	0,715454	2020-10-29T19:54:00:766
-14,232510	-8,817552	1,524228	2020-10-29T19:54:00:788
-12,526425	-9,078369	2,507678	2020-10-29T19:54:00:805
-10,545169	-8,831908	2,545963	2020-10-29T19:54:00:829
-9,367901	-8,937192	3,242275	2020-10-29T19:54:00:845
-7,855636	-8,944371	4,481757	2020-10-29T19:54:00:868
-6,412765	-7,771888	4,634897	2020-10-29T19:54:00:885
-5,005785	-6,809973	4,137190	2020-10-29T19:54:00:909
-4,725825	-6,661618	3,620341	2020-10-29T19:54:00:925
-5,668597	-6,731010	3,196811	2020-10-29T19:54:00:948
-7,525427	-6,489335	2,684747	2020-10-29T19:54:00:965
-9,171689	-6,297909	1,842474	2020-10-29T19:54:00:989
-11,026128	-5,766702	0,964308	2020-10-29T19:54:01:006
-12,918849	-5,412565	0,674776	2020-10-29T19:54:01:028
-14,493326	-4,917251	0,801596	2020-10-29T19:54:01:045
-15,414563	-4,170690	1,299303	2020-10-29T19:54:01:070
-15,761523	-2,916851	1,789831	2020-10-29T19:54:01:085
-16,029520	-1,940579	2,333002	2020-10-29T19:54:01:108
-16,132410	-1,820938	2,139183	2020-10-29T19:54:01:127
-16,328621	-1,933401	1,569692	2020-10-29T19:54:01:149
-16,426727	-2,548356	1,217947	2020-10-29T19:54:01:165
-15,883555	-3,775874	1,517050	2020-10-29T19:54:01:189
-14,624931	-6,829116	0,966700	2020-10-29T19:54:01:206
-13,875979	-6,300302	0,677169	2020-10-29T19:54:01:229
-12,916457	-5,089533	1,670190	2020-10-29T19:54:01:246
-11,473583	-4,766503	1,990828	2020-10-29T19:54:01:269
-11,212767	-3,914658	0,949951	2020-10-29T19:54:01:286
-11,901899	-2,792424	0,047856	2020-10-29T19:54:01:310
-11,420943	-1,818545	-0,413958	2020-10-29T19:54:01:326
-10,238889	-1,378266	-0,373280	2020-10-29T19:54:01:348
-9,348758	-1,256232	0,244068	2020-10-29T19:54:01:367
-8,738588	-1,194018	0,914058	2020-10-29T19:54:01:390
-7,915457	-1,313660	1,744368	2020-10-29T19:54:01:406
-7,073184	-1,488336	2,502892	2020-10-29T19:54:01:429
-6,123233	-1,557728	3,294917	2020-10-29T19:54:01:446
-5,690133	-1,605584	4,383651	2020-10-29T19:54:01:470
-5,446064	-1,292124	4,699504	2020-10-29T19:54:01:487
-5,134997	-0,497707	4,321437	2020-10-29T19:54:01:509
-4,558327	0,208176	3,713661	2020-10-29T19:54:01:526
-3,948158	0,981057	3,266203	2020-10-29T19:54:01:550
-4,065405	0,619741	3,098706	2020-10-29T19:54:01:566
-3,641876	4,840680	3,541377	2020-10-29T19:54:01:589
-2,376073	6,010770	2,333002	2020-10-29T19:54:01:609
-3,460021	3,541377	2,012364	2020-10-29T19:54:01:665
-5,091926	1,158126	2,352145	2020-10-29T19:54:01:674
-6,479764	1,385444	1,907080	2020-10-29T19:54:01:675
-8,449057	0,971486	1,794617	2020-10-29T19:54:01:828
-10,545169	-0,576670	2,112862	2020-10-29T19:54:01:829
-11,925828	-2,450250	2,452643	2020-10-29T19:54:01:830
-12,540783	-3,720839	2,904887	2020-10-29T19:54:01:831
-13,155738	-4,084548	3,452843	2020-10-29T19:54:01:831
-13,730016	-3,936193	3,814159	2020-10-29T19:54:01:832
-14,995820	-4,103691	4,840680	2020-10-29T19:54:01:832
-16,551155	-4,304688	5,950950	2020-10-29T19:54:01:832
-17,252251	-4,070191	6,192625	2020-10-29T19:54:01:898
-17,082361	-3,364309	4,733003	2020-10-29T19:54:01:899
-16,740189	-3,141776	4,137190	2020-10-29T19:54:01:899
-15,792630	-2,514857	3,797409	2020-10-29T19:54:02:001
-14,718252	-1,313660	3,443272	2020-10-29T19:54:02:002
-14,333008	-1,162912	3,706482	2020-10-29T19:54:02:003
-14,239687	-1,708475	4,113262	2020-10-29T19:54:02:095
-14,416756	-1,950150	4,235296	2020-10-29T19:54:02:095
-13,038490	-2,407180	4,264010	2020-10-29T19:54:02:096
-11,717653	-3,136991	3,955336	2020-10-29T19:54:02:096
-10,578669	-3,787838	3,261417	2020-10-29T19:54:02:097
-10,155140	-4,596612	2,813959	2020-10-29T19:54:02:098
-9,269794	-5,417351	2,624927	2020-10-29T19:54:02:098
-8,824730	-6,254838	2,550749	2020-10-29T19:54:02:134
-8,245667	-6,692725	2,720639	2020-10-29T19:54:02:163
-7,623533	-6,841080	2,579463	2020-10-29T19:54:02:164
-7,252645	-6,716653	2,524428	2020-10-29T19:54:02:166
-7,070791	-6,587440	2,632105	2020-10-29T19:54:02:191
-6,726225	-6,190232	2,885744	2020-10-29T19:54:02:213
-6,632904	-5,718846	2,964707	2020-10-29T19:54:02:277
-6,731010	-5,627919	3,074777	2020-10-29T19:54:02:278
-6,896115	-5,379066	3,065206	2020-10-29T19:54:02:279
-7,068398	-4,843073	2,924029	2020-10-29T19:54:02:293
-6,891330	-4,558327	2,620141	2020-10-29T19:54:02:369
-7,063612	-4,072584	2,213361	2020-10-29T19:54:02:370
-7,113862	-3,873980	1,995614	2020-10-29T19:54:02:371
-7,369894	-3,828516	2,024328	2020-10-29T19:54:02:373
-7,645068	-4,096512	2,766103	2020-10-29T19:54:02:388
-7,554141	-4,235296	3,378666	2020-10-29T19:54:02:418
-7,338787	-4,065405	4,036692	2020-10-29T19:54:02:436
-6,951149	-3,890730	4,919643	2020-10-29T19:54:02:456
-6,326623	-3,924229	5,391029	2020-10-29T19:54:02:468
-7,307681	-4,051049	3,914658	2020-10-29T19:54:02:486
-9,413363	-4,295116	3,524628	2020-10-29T19:54:02:509
-10,068997	-4,577469	4,328616	2020-10-29T19:54:02:526
-9,903893	-3,924229	3,929015	2020-10-29T19:54:02:561
-9,899107	-2,991028	2,648855	2020-10-29T19:54:02:566
-10,052249	-2,699104	1,962115	2020-10-29T19:54:02:596
-9,810574	-2,840281	1,785046	2020-10-29T19:54:02:608
-9,853643	-2,873780	1,514657	2020-10-29T19:54:02:656
-10,392029	-3,125026	1,196411	2020-10-29T19:54:02:657
-11,088341	-3,562913	1,249053	2020-10-29T19:54:02:682
-12,124433	-3,641876	1,361516	2020-10-29T19:54:02:687
-12,784851	-3,333202	1,320838	2020-10-29T19:54:02:718
-12,792030	-2,916851	1,442872	2020-10-29T19:54:02:725
-12,299109	-2,531606	1,686940	2020-10-29T19:54:02:750
-12,174682	-2,483750	1,770689	2020-10-29T19:54:02:767
-12,270394	-2,287539	1,459622	2020-10-29T19:54:02:790
-12,423534	-2,067399	1,184447	2020-10-29T19:54:02:822
-12,141183	-1,976472	0,985843	2020-10-29T19:54:02:850
-11,916256	-2,242075	0,873380	2020-10-29T19:54:02:851
-11,753544	-2,273181	1,318445	2020-10-29T19:54:02:883
-11,468799	-2,086541	2,086541	2020-10-29T19:54:02:910
-11,162518	-2,124826	2,703890	2020-10-29T19:54:02:912
-10,872985	-2,067399	2,701497	2020-10-29T19:54:02:936
-10,602598	-2,062613	2,297110	2020-10-29T19:54:02:950
-10,102496	-2,110470	2,096112	2020-10-29T19:54:02:975
-9,889536	-2,799603	2,725425	2020-10-29T19:54:02:992
-10,217353	-3,153740	3,823731	2020-10-29T19:54:03:007
-10,581062	-2,483750	5,536992	2020-10-29T19:54:03:029
-11,023734	-2,206182	6,855437	2020-10-29T19:54:03:046
-10,674382	-1,545763	6,798009	2020-10-29T19:54:03:072
-10,107283	0,406780	5,647062	2020-10-29T19:54:03:086
-9,001799	3,208775	5,070391	2020-10-29T19:54:03:110
-7,604390	4,797609	4,438686	2020-10-29T19:54:03:127
-6,692725	5,546563	4,326223	2020-10-29T19:54:03:152
-6,494121	4,551149	4,876573	2020-10-29T19:54:03:169
-6,750153	3,263810	5,747560	2020-10-29T19:54:03:190
-7,568498	2,187040	6,336195	2020-10-29T19:54:03:207
-7,652246	1,143769	6,460621	2020-10-29T19:54:03:231
-8,049455	-0,354138	5,558527	2020-10-29T19:54:03:247
-8,372486	-2,179861	3,979264	2020-10-29T19:54:03:272
-8,063812	-3,129812	2,462214	2020-10-29T19:54:03:288
-8,037491	-3,754339	1,777867	2020-10-29T19:54:03:311
-8,116454	-4,563113	2,074577	2020-10-29T19:54:03:328
-8,157133	-4,790431	2,354537	2020-10-29T19:54:03:351
-8,353344	-5,067998	2,344966	2020-10-29T19:54:03:368
-8,685946	-5,017749	2,529213	2020-10-29T19:54:03:391
-9,343972	-4,656433	2,167897	2020-10-29T19:54:03:409
-12,945170	-4,292724	1,830509	2020-10-29T19:54:03:430
-14,636896	-4,627719	2,330609	2020-10-29T19:54:03:448
-11,789437	-4,378866	2,675175	2020-10-29T19:54:03:472
-12,129218	-3,914658	2,292324	2020-10-29T19:54:03:488
-13,375877	-4,022335	2,823531	2020-10-29T19:54:03:510
-12,629318	-4,091727	3,826123	2020-10-29T19:54:03:528
-11,954542	-3,845266	5,094319	2020-10-29T19:54:03:552
-11,760723	-3,625126	5,735595	2020-10-29T19:54:03:568
-10,657632	-2,857030	4,931608	2020-10-29T19:54:03:591
-9,690931	-2,390430	4,838287	2020-10-29T19:54:03:608
-9,317651	-2,218147	6,056234	2020-10-29T19:54:03:631
-9,494720	-0,294317	5,836094	2020-10-29T19:54:03:650
-9,860823	2,222932	5,158926	2020-10-29T19:54:03:671
-9,956534	2,979064	4,991428	2020-10-29T19:54:03:688
-10,341780	2,378466	6,051448	2020-10-29T19:54:03:712
-11,100305	1,753939	6,953543	2020-10-29T19:54:03:728
-11,794223	1,040878	8,006385	2020-10-29T19:54:03:751
-12,009576	-0,299103	8,410772	2020-10-29T19:54:03:768
-11,676974	-2,000400	9,470792	2020-10-29T19:54:03:792
-10,552348	-3,383451	10,693524	2020-10-29T19:54:03:808
-9,753145	-3,515057	10,932807	2020-10-29T19:54:03:832
-9,308081	-3,201597	10,322637	2020-10-29T19:54:03:848
-9,169296	-2,845066	9,444471	2020-10-29T19:54:03:872
-9,279366	-2,711068	8,956335	2020-10-29T19:54:03:889
-9,533006	-2,433501	8,705089	2020-10-29T19:54:03:911
-9,403792	-2,754139	7,874779	2020-10-29T19:54:03:928
-8,544770	-4,197011	6,766902	2020-10-29T19:54:03:952
-8,322237	-6,044270	5,977271	2020-10-29T19:54:03:968
-6,867401	-5,548956	5,268995	2020-10-29T19:54:03:991
-5,233103	-5,032106	4,630112	2020-10-29T19:54:04:008
-2,943172	-5,242674	3,847659	2020-10-29T19:54:04:032
-1,210768	-5,233103	3,668197	2020-10-29T19:54:04:048
-0,832702	-3,744767	3,948158	2020-10-29T19:54:04:072
-0,189033	-3,144169	3,637090	2020-10-29T19:54:04:088
0,165105	-3,201597	3,278167	2020-10-29T19:54:04:112
-0,490529	-2,730211	3,404987	2020-10-29T19:54:04:129
-1,043271	-1,655833	4,180261	2020-10-29T19:54:04:153
-1,143769	-0,698704	4,646862	2020-10-29T19:54:04:168
-1,854438	1,339981	4,721039	2020-10-29T19:54:04:202
-1,744368	3,761517	4,338188	2020-10-29T19:54:04:209
-1,363909	4,565506	4,443472	2020-10-29T19:54:04:232
-1,615155	5,056034	5,005785	2020-10-29T19:54:04:250
-1,521835	6,015556	5,295317	2020-10-29T19:54:04:275
-1,811367	6,446264	5,678168	2020-10-29T19:54:04:287
-2,179861	7,125826	5,577669	2020-10-29T19:54:04:340
-2,038685	8,257630	5,288138	2020-10-29T19:54:04:376
-2,703890	9,004191	5,733203	2020-10-29T19:54:04:382
-2,653640	9,851252	6,250053	2020-10-29T19:54:04:382
-1,868794	10,408779	6,147161	2020-10-29T19:54:04:483
-1,454836	9,427721	6,319445	2020-10-29T19:54:04:558
-1,356731	8,343772	6,728617	2020-10-29T19:54:04:560
-1,923829	7,137790	7,549356	2020-10-29T19:54:04:562
-2,414358	6,678369	8,047063	2020-10-29T19:54:04:563
-2,483750	6,920043	7,310073	2020-10-29T19:54:04:563
-2,443072	6,745367	6,702296	2020-10-29T19:54:04:564
-2,696711	6,250053	6,664011	2020-10-29T19:54:04:565
-2,823531	6,084948	6,898508	2020-10-29T19:54:04:572
-2,933600	6,618547	6,984650	2020-10-29T19:54:04:625
-2,974278	6,994221	6,795617	2020-10-29T19:54:04:626
-3,069991	7,195218	6,613762	2020-10-29T19:54:04:626
-3,345166	7,018148	6,661618	2020-10-29T19:54:04:652
-3,404987	5,003392	6,250053	2020-10-29T19:54:04:653
-2,847459	4,654040	6,077770	2020-10-29T19:54:04:691
-1,727618	4,780859	5,599205	2020-10-29T19:54:04:692
-1,395016	4,134798	4,974678	2020-10-29T19:54:04:713
-1,986043	4,639683	6,032306	2020-10-29T19:54:04:729
-2,474179	5,489135	6,817152	2020-10-29T19:54:04:752
-3,926622	4,197011	7,724032	2020-10-29T19:54:04:779
-7,735995	3,565305	11,179268	2020-10-29T19:54:04:813
-8,274381	2,440679	11,619547	2020-10-29T19:54:04:814
-4,859823	5,048856	11,085947	2020-10-29T19:54:04:831
-3,242275	8,874979	9,224331	2020-10-29T19:54:04:859
-2,756532	6,309873	10,267602	2020-10-29T19:54:04:895
-0,205783	4,773681	11,203196	2020-10-29T19:54:04:896
1,880759	3,361916	11,215159	2020-10-29T19:54:04:919
3,270989	2,586641	11,447264	2020-10-29T19:54:04:931
4,730610	1,165305	11,322837	2020-10-29T19:54:04:956
5,225924	-0,916451	11,069198	2020-10-29T19:54:04:978
4,795217	-1,366302	10,222138	2020-10-29T19:54:04:991
4,000800	-0,232104	9,339187	2020-10-29T19:54:05:018
1,225125	2,481357	8,606983	2020-10-29T19:54:05:033
1,198804	4,319045	9,346365	2020-10-29T19:54:05:048
0,555135	3,550949	10,609775	2020-10-29T19:54:05:071
-0,488136	0,401994	11,846866	2020-10-29T19:54:05:103
0,303888	-1,560120	11,416157	2020-10-29T19:54:05:153
1,694118	-3,211168	9,798609	2020-10-29T19:54:05:154
4,146761	-2,876173	7,300502	2020-10-29T19:54:05:162
0,086142	0,418744	5,888737	2020-10-29T19:54:05:178
4,733003	2,696711	5,388636	2020-10-29T19:54:05:191
8,621340	1,330409	5,340781	2020-10-29T19:54:05:228
9,028119	-1,040878	4,340580	2020-10-29T19:54:05:261
8,602197	-0,983450	2,620141	2020-10-29T19:54:05:263
9,808180	-0,844666	0,368495	2020-10-29T19:54:05:278
7,941778	2,280360	1,880759	2020-10-29T19:54:05:294
9,025726	2,321038	5,501099	2020-10-29T19:54:05:445
7,264609	-0,421137	12,413965	2020-10-29T19:54:05:446
4,905287	1,787439	12,818351	2020-10-29T19:54:05:449
6,534799	5,943772	8,803195	2020-10-29T19:54:05:449
5,814559	3,306881	6,917650	2020-10-29T19:54:05:454
7,211967	2,124826	6,601797	2020-10-29T19:54:05:468
6,295516	2,679961	7,728817	2020-10-29T19:54:05:469
6,273981	1,526621	7,683353	2020-10-29T19:54:05:469
6,331409	1,502693	5,833702	2020-10-29T19:54:05:472
7,905886	3,259024	6,132804	2020-10-29T19:54:05:490
7,042077	3,158526	8,554340	2020-10-29T19:54:05:511
7,925028	1,208375	1,840081	2020-10-29T19:54:05:528
9,145369	2,141576	-0,136391	2020-10-29T19:54:05:551
6,678369	-1,031307	6,685547	2020-10-29T19:54:05:569
7,671390	-4,007978	5,297709	2020-10-29T19:54:05:641
7,049256	-7,874779	4,407579	2020-10-29T19:54:05:642
5,814559	-7,812566	5,319244	2020-10-29T19:54:05:643
4,668397	-5,446064	5,994020	2020-10-29T19:54:05:719
3,809374	-3,060420	7,257431	2020-10-29T19:54:05:736
4,072584	-1,734797	8,348558	2020-10-29T19:54:05:737
2,962314	-0,842274	9,485149	2020-10-29T19:54:05:743
3,098706	-0,349352	9,803394	2020-10-29T19:54:05:743
3,117848	0,452243	10,150353	2020-10-29T19:54:05:765
3,562913	-0,961915	8,822337	2020-10-29T19:54:05:773
4,826324	-3,510271	9,169296	2020-10-29T19:54:05:795
4,953143	-3,938586	9,722038	2020-10-29T19:54:05:814
5,144568	-1,734797	9,915856	2020-10-29T19:54:05:832
5,946165	-2,112862	9,482756	2020-10-29T19:54:05:850
6,135197	-1,473979	9,544970	2020-10-29T19:54:05:909
5,936593	-1,232304	8,860621	2020-10-29T19:54:05:920
6,223732	-0,803988	7,925028	2020-10-29T19:54:05:921
6,250053	0,100499	7,362715	2020-10-29T19:54:05:932
6,245267	-0,327817	7,769495	2020-10-29T19:54:05:954
6,111269	-0,624527	7,597212	2020-10-29T19:54:05:969
5,893522	-0,732204	6,367301	2020-10-29T19:54:05:999
5,197211	-0,442672	8,207381	2020-10-29T19:54:06:011
4,833502	-0,782453	9,190832	2020-10-29T19:54:06:036
4,957928	-0,780060	9,372685	2020-10-29T19:54:06:054
5,063213	-0,629312	8,458629	2020-10-29T19:54:06:072
5,510671	-2,467000	7,726424	2020-10-29T19:54:06:094
5,790630	-1,304088	7,568498	2020-10-29T19:54:06:112
6,252446	0,294317	7,597212	2020-10-29T19:54:06:129
6,853044	0,440279	7,470392	2020-10-29T19:54:06:154
7,022934	0,294317	7,226324	2020-10-29T19:54:06:169
6,967900	-2,103291	7,872386	2020-10-29T19:54:06:193
6,599405	-1,177269	7,980063	2020-10-29T19:54:06:210
6,283553	-0,856631	7,798209	2020-10-29T19:54:06:233
6,151947	-0,813560	7,549356	2020-10-29T19:54:06:250
6,001199	-1,739582	8,102098	2020-10-29T19:54:06:274
5,749953	-1,576870	8,810372	2020-10-29T19:54:06:291
5,670990	-1,103091	8,228917	2020-10-29T19:54:06:313
5,929415	-1,213161	7,372287	2020-10-29T19:54:06:330
6,285945	-0,327817	7,130611	2020-10-29T19:54:06:354
6,515656	-0,366102	7,336394	2020-10-29T19:54:06:372
6,453443	-0,535992	7,436893	2020-10-29T19:54:06:393
6,250053	-0,306281	7,183254	2020-10-29T19:54:06:411
6,178268	-0,509671	7,116255	2020-10-29T19:54:06:434
5,972485	-1,337588	7,393822	2020-10-29T19:54:06:451
5,855237	-1,607977	7,666604	2020-10-29T19:54:06:474
5,962914	-1,411765	7,685746	2020-10-29T19:54:06:491
6,056234	-1,165305	7,276574	2020-10-29T19:54:06:514
6,034698	-1,330409	7,123433	2020-10-29T19:54:06:531
