x	y	z	ts
0,966708	-5,638453	1,344133	2020-10-13T22:47:48:156
0,964316	-5,621703	1,332169	2020-10-13T22:47:48:157
-0,099747	-0,070950	-0,025867	2020-10-13T22:47:48:157
0,016591	-0,088481	-0,035471	2020-10-13T22:47:48:157
-0,051911	-0,045157	-0,078168	2020-10-13T22:47:48:157
-0,116164	-0,026352	-0,023196	2020-10-13T22:47:48:158
-0,116435	-0,085469	-0,014029	2020-10-13T22:47:48:158
0,028473	-0,024127	-0,045304	2020-10-13T22:47:48:158
-0,085247	-0,075670	-0,049950	2020-10-13T22:47:48:159
-0,102878	-0,112616	-0,023664	2020-10-13T22:47:48:159
-0,124732	-0,102087	-0,009261	2020-10-13T22:47:48:165
0,001136	-0,055763	0,002602	2020-10-13T22:47:48:169
0,001245	-0,055724	0,002597	2020-10-13T22:47:48:171
0,001416	-0,055662	0,002590	2020-10-13T22:47:48:174
-0,048729	-0,034089	-0,066805	2020-10-13T22:47:48:178
-0,024182	-0,081979	0,014512	2020-10-13T22:47:48:199
-0,032116	-0,058688	-0,057267	2020-10-13T22:47:48:218
-0,051845	0,014218	-0,035774	2020-10-13T22:47:48:238
-0,008090	-0,060141	-0,021751	2020-10-13T22:47:48:259
-0,055188	-0,111572	0,001920	2020-10-13T22:47:48:278
0,009418	0,020033	-0,007651	2020-10-13T22:47:48:300
0,005714	-0,083043	-0,012793	2020-10-13T22:47:48:318
-0,003907	-0,032819	-0,036579	2020-10-13T22:47:48:338
0,021562	-0,085475	-0,062709	2020-10-13T22:47:48:360
0,057654	-0,049420	-0,026394	2020-10-13T22:47:48:378
-0,050140	0,032896	0,012096	2020-10-13T22:47:48:399
-0,050694	-0,059453	-0,060165	2020-10-13T22:47:48:418
-0,107935	-0,097871	0,011603	2020-10-13T22:47:48:439
-0,032986	-0,002802	-0,021973	2020-10-13T22:47:48:459
0,052560	0,003149	0,001777	2020-10-13T22:47:48:479
-0,064692	0,033278	-0,012499	2020-10-13T22:47:48:499
-0,048663	-0,039492	0,034921	2020-10-13T22:47:48:520
0,002699	-0,023540	0,022708	2020-10-13T22:47:48:542
0,012625	-0,040156	0,013124	2020-10-13T22:47:48:558
0,069474	-0,079640	-0,008307	2020-10-13T22:47:48:582
0,018743	-0,006855	-0,008082	2020-10-13T22:47:48:599
-0,009971	-0,014034	-0,029618	2020-10-13T22:47:48:618
-0,011337	-0,019722	-0,010867	2020-10-13T22:47:48:638
-0,035265	-0,024507	-0,022831	2020-10-13T22:47:48:659
-0,039829	0,006442	-0,003847	2020-10-13T22:47:48:679
-0,014076	-0,012975	0,005605	2020-10-13T22:47:48:699
0,003050	-0,002643	0,017592	2020-10-13T22:47:48:719
-0,073501	-0,017283	-0,042247	2020-10-13T22:47:48:739
-0,012561	-0,133370	-0,035197	2020-10-13T22:47:48:759
-0,034803	0,003032	-0,049086	2020-10-13T22:47:48:779
0,056540	0,018323	0,010768	2020-10-13T22:47:48:798
0,003275	-0,033097	-0,013061	2020-10-13T22:47:48:819
0,034381	-0,068989	-0,008275	2020-10-13T22:47:48:838
0,023340	-0,030962	0,025014	2020-10-13T22:47:48:860
-0,022123	0,021680	-0,015665	2020-10-13T22:47:48:878
-0,012230	-0,030677	0,026985	2020-10-13T22:47:48:899
-0,006008	0,054731	-0,059280	2020-10-13T22:47:48:920
0,003892	0,004086	-0,023712	2020-10-13T22:47:48:939
0,011070	-0,015057	-0,040462	2020-10-13T22:47:48:960
-0,044379	0,039706	-0,054811	2020-10-13T22:47:48:979
0,070957	0,007177	0,026160	2020-10-13T22:47:48:999
0,006800	0,039863	0,064367	2020-10-13T22:47:49:020
0,023797	-0,073839	0,018681	2020-10-13T22:47:49:039
0,017548	-0,027432	-0,021722	2020-10-13T22:47:49:059
-0,031591	-0,016203	0,043052	2020-10-13T22:47:49:092
0,022491	-0,110968	0,019098	2020-10-13T22:47:49:101
-0,003953	-0,054652	-0,018691	2020-10-13T22:47:49:122
-0,010922	0,028566	-0,001843	2020-10-13T22:47:49:142
-0,009332	0,015209	0,009809	2020-10-13T22:47:49:163
-0,067448	0,009599	0,026275	2020-10-13T22:47:49:181
-0,016205	-0,066351	-0,041017	2020-10-13T22:47:49:203
-0,005988	-0,035178	-0,048088	2020-10-13T22:47:49:221
0,017835	-0,064947	-0,024076	2020-10-13T22:47:49:242
-0,051093	-0,044270	-0,011908	2020-10-13T22:47:49:264
-0,043915	0,063407	-0,021479	2020-10-13T22:47:49:283
0,004125	-0,021129	0,006765	2020-10-13T22:47:49:302
0,008910	0,055441	-0,005198	2020-10-13T22:47:49:323
0,080804	0,009821	0,004081	2020-10-13T22:47:49:342
0,007991	-0,004093	0,030478	2020-10-13T22:47:49:362
0,025613	0,043986	-0,003195	2020-10-13T22:47:49:382
-0,027448	-0,024177	-0,041658	2020-10-13T22:47:49:403
0,009477	-0,035003	-0,000974	2020-10-13T22:47:49:421
0,058686	-0,097676	-0,019948	2020-10-13T22:47:49:443
-0,002108	0,004889	0,006817	2020-10-13T22:47:49:462
-0,013613	-0,013367	0,011491	2020-10-13T22:47:49:482
-0,000275	0,014646	-0,043662	2020-10-13T22:47:49:504
0,009163	-0,029513	-0,012609	2020-10-13T22:47:49:523
0,027056	-0,051645	0,013885	2020-10-13T22:47:49:541
0,003973	-0,022829	-0,040919	2020-10-13T22:47:49:563
0,010588	-0,038604	0,009418	2020-10-13T22:47:49:581
0,024580	-0,018459	-0,014432	2020-10-13T22:47:49:603
-0,016089	-0,046590	-0,052684	2020-10-13T22:47:49:622
-0,016089	0,053909	0,011923	2020-10-13T22:47:49:643
0,038445	-0,013266	-0,052942	2020-10-13T22:47:49:662
0,040838	-0,049158	-0,000300	2020-10-13T22:47:49:683
-0,016148	0,004334	0,011823	2020-10-13T22:47:49:702
0,016340	-0,057626	-0,002736	2020-10-13T22:47:49:723
-0,039373	-0,041756	-0,000217	2020-10-13T22:47:49:745
-0,029429	-0,072825	0,013987	2020-10-13T22:47:49:763
0,006392	0,047824	0,016308	2020-10-13T22:47:49:783
-0,017484	0,055808	0,011290	2020-10-13T22:47:49:803
0,034095	0,047082	-0,041652	2020-10-13T22:47:49:823
-0,036624	-0,018056	0,001327	2020-10-13T22:47:49:845
0,064582	-0,006800	-0,068008	2020-10-13T22:47:49:863
0,026846	-0,012415	-0,022219	2020-10-13T22:47:49:885
-0,015224	-0,000128	0,037698	2020-10-13T22:47:49:903
-0,004043	0,029163	0,008791	2020-10-13T22:47:49:925
-0,081586	-0,010320	0,003722	2020-10-13T22:47:49:942
-0,035806	0,081652	0,008147	2020-10-13T22:47:49:964
0,009945	0,018582	0,002896	2020-10-13T22:47:49:986
0,065934	0,027822	-0,047292	2020-10-13T22:47:50:004
0,091454	-0,080966	0,039232	2020-10-13T22:47:50:037
0,034077	-0,150449	-0,003038	2020-10-13T22:47:50:044
-0,007172	-0,136000	-0,019205	2020-10-13T22:47:50:063
0,036843	-0,025764	-0,011933	2020-10-13T22:47:50:095
-0,026973	0,178808	-0,031466	2020-10-13T22:47:50:101
-0,008852	0,086006	0,026964	2020-10-13T22:47:50:123
-0,015007	0,124422	-0,000064	2020-10-13T22:47:50:142
0,035722	-0,042432	0,006738	2020-10-13T22:47:50:164
0,012028	-0,041088	-0,026177	2020-10-13T22:47:50:182
0,025456	-0,073825	-0,068759	2020-10-13T22:47:50:203
0,022258	-0,049408	-0,030003	2020-10-13T22:47:50:225
0,043091	-0,054676	0,001248	2020-10-13T22:47:50:243
-0,056091	0,049035	-0,015394	2020-10-13T22:47:50:262
-0,052382	-0,000438	0,034424	2020-10-13T22:47:50:284
0,036920	-0,066265	-0,004108	2020-10-13T22:47:50:302
-0,043995	-0,125704	-0,013416	2020-10-13T22:47:50:323
0,003059	-0,050688	-0,010802	2020-10-13T22:47:50:342
-0,021609	0,015803	-0,051332	2020-10-13T22:47:50:364
0,022806	0,019918	-0,034963	2020-10-13T22:47:50:383
-0,010694	0,017525	-0,013428	2020-10-13T22:47:50:404
0,047096	-0,022768	0,003059	2020-10-13T22:47:50:422
0,049488	-0,013197	-0,035226	2020-10-13T22:47:50:444
0,046955	0,064701	0,005536	2020-10-13T22:47:50:466
0,100263	0,012244	0,041276	2020-10-13T22:47:50:485
0,064664	-0,040906	0,003220	2020-10-13T22:47:50:502
0,056015	-0,006360	0,017986	2020-10-13T22:47:50:524
-0,072809	-0,067963	-0,041415	2020-10-13T22:47:50:542
-0,097615	-0,112106	-0,033987	2020-10-13T22:47:50:567
-0,053304	-0,090531	-0,012258	2020-10-13T22:47:50:584
-0,084134	-0,063643	0,006898	2020-10-13T22:47:50:606
-0,010453	0,016040	-0,005541	2020-10-13T22:47:50:623
-0,020822	-0,005741	0,008175	2020-10-13T22:47:50:645
-0,025942	0,101694	0,040489	2020-10-13T22:47:50:672
0,005164	-0,053840	-0,184436	2020-10-13T22:47:50:686
0,030510	-0,169150	0,026818	2020-10-13T22:47:50:706
-0,007775	-0,114115	-0,021038	2020-10-13T22:47:50:725
0,079836	-0,056544	-0,044508	2020-10-13T22:47:50:743
0,068274	-0,044234	-0,017788	2020-10-13T22:47:50:766
0,034855	0,063184	-0,048778	2020-10-13T22:47:50:787
0,070572	0,022982	-0,039571	2020-10-13T22:47:50:804
-0,021150	0,119873	-0,002098	2020-10-13T22:47:50:824
-0,023997	0,074237	-0,012046	2020-10-13T22:47:50:848
-0,011914	0,064460	-0,048084	2020-10-13T22:47:50:865
-0,019171	-0,027819	0,009533	2020-10-13T22:47:50:885
0,043042	-0,030212	0,019104	2020-10-13T22:47:50:904
0,000607	-0,087772	-0,042624	2020-10-13T22:47:50:925
0,051657	-0,074342	-0,015872	2020-10-13T22:47:50:944
0,036601	-0,051118	-0,025043	2020-10-13T22:47:50:964
0,022950	0,015491	-0,022442	2020-10-13T22:47:50:983
-0,011967	-0,010989	0,008468	2020-10-13T22:47:51:006
-0,086144	-0,010989	-0,001104	2020-10-13T22:47:51:023
-0,071112	0,009299	-0,023421	2020-10-13T22:47:51:045
-0,037613	-0,017022	-0,004279	2020-10-13T22:47:51:064
-0,030002	-0,010953	0,002682	2020-10-13T22:47:51:092
0,009324	-0,015995	-0,004834	2020-10-13T22:47:51:104
0,026074	-0,027960	-0,012012	2020-10-13T22:47:51:125
-0,027722	0,022805	0,009616	2020-10-13T22:47:51:143
-0,008952	0,034712	-0,024129	2020-10-13T22:47:51:165
0,013342	-0,087814	-0,012363	2020-10-13T22:47:51:184
0,024930	-0,070589	-0,060043	2020-10-13T22:47:51:205
0,010219	0,021952	0,011848	2020-10-13T22:47:51:223
-0,034802	-0,021607	0,004488	2020-10-13T22:47:51:245
0,042547	0,077339	-0,005342	2020-10-13T22:47:51:263
0,010524	-0,007512	-0,029534	2020-10-13T22:47:51:285
0,003008	-0,048674	0,037457	2020-10-13T22:47:51:304
-0,025785	0,027256	0,006449	2020-10-13T22:47:51:325
0,004231	-0,079937	-0,012868	2020-10-13T22:47:51:343
-0,062942	-0,012559	-0,058174	2020-10-13T22:47:51:366
0,042884	0,047407	-0,000900	2020-10-13T22:47:51:385
-0,025488	0,012850	-0,036901	2020-10-13T22:47:51:405
0,043278	0,029773	-0,001224	2020-10-13T22:47:51:427
-0,013342	0,039141	0,001120	2020-10-13T22:47:51:446
-0,010023	-0,045213	-0,027803	2020-10-13T22:47:51:463
0,009773	0,006636	-0,046898	2020-10-13T22:47:51:485
0,035970	0,012696	0,010479	2020-10-13T22:47:51:504
0,002612	-0,083583	-0,046856	2020-10-13T22:47:51:525
-0,029606	-0,079167	-0,005884	2020-10-13T22:47:51:544
-0,000557	0,017112	0,022710	2020-10-13T22:47:51:566
-0,019700	0,012326	-0,001219	2020-10-13T22:47:51:583
-0,003171	-0,088168	0,008234	2020-10-13T22:47:51:606
-0,023239	-0,014538	-0,051696	2020-10-13T22:47:51:624
-0,039988	0,035711	0,036839	2020-10-13T22:47:51:646
-0,017980	0,015187	0,031699	2020-10-13T22:47:51:666
-0,028222	0,009991	0,012317	2020-10-13T22:47:51:685
0,031042	-0,032735	0,021682	2020-10-13T22:47:51:704
0,012973	-0,017931	-0,059580	2020-10-13T22:47:51:726
0,008198	-0,014103	0,033690	2020-10-13T22:47:51:744
-0,036566	-0,003980	-0,066941	2020-10-13T22:47:51:765
0,033371	0,045953	-0,014597	2020-10-13T22:47:51:784
-0,029253	0,071973	0,028235	2020-10-13T22:47:51:806
0,013502	0,022829	0,006282	2020-10-13T22:47:51:824
-0,079471	-0,049913	0,056344	2020-10-13T22:47:51:845
-0,029471	-0,027675	-0,041966	2020-10-13T22:47:51:864
0,035282	0,004372	0,000896	2020-10-13T22:47:51:886
0,032848	0,074873	0,031823	2020-10-13T22:47:51:908
0,000846	0,067275	0,069667	2020-10-13T22:47:51:926
-0,040372	-0,075483	-0,078631	2020-10-13T22:47:51:951
0,110376	0,001088	0,009904	2020-10-13T22:47:51:972
0,012198	0,020233	-0,001920	2020-10-13T22:47:51:986
-0,011679	0,010023	-0,033418	2020-10-13T22:47:52:007
0,103177	-0,045012	-0,064525	2020-10-13T22:47:52:028
0,017465	0,031683	-0,023610	2020-10-13T22:47:52:045
0,060931	-0,013269	-0,011871	2020-10-13T22:47:52:064
-0,065865	0,096024	-0,038103	2020-10-13T22:47:52:106
-0,010458	-0,049947	-0,002584	2020-10-13T22:47:52:111
0,018240	-0,026015	0,009494	2020-10-13T22:47:52:126
-0,006414	0,015246	-0,035903	2020-10-13T22:47:52:145
0,020401	-0,024624	-0,004898	2020-10-13T22:47:52:166
0,060117	-0,031073	-0,007205	2020-10-13T22:47:52:184
-0,019509	0,015991	-0,059608	2020-10-13T22:47:52:207
0,033939	-0,027444	-0,035740	2020-10-13T22:47:52:232
0,012335	0,041947	-0,056901	2020-10-13T22:47:52:247
0,035108	-0,023697	0,027219	2020-10-13T22:47:52:267
0,067291	-0,015141	-0,022762	2020-10-13T22:47:52:287
-0,021243	-0,062997	0,001166	2020-10-13T22:47:52:313
-0,056462	-0,023909	-0,003502	2020-10-13T22:47:52:328
-0,053806	0,024596	0,001170	2020-10-13T22:47:52:345
0,085260	0,017668	0,000921	2020-10-13T22:47:52:367
0,023980	-0,000623	-0,001336	2020-10-13T22:47:52:386
-0,044526	-0,089314	-0,049118	2020-10-13T22:47:52:405
0,018868	-0,018301	-0,020274	2020-10-13T22:47:52:423
0,001163	-0,025823	0,013261	2020-10-13T22:47:52:447
-0,016023	0,021351	0,022576	2020-10-13T22:47:52:465
-0,020809	-0,021720	-0,006138	2020-10-13T22:47:52:486
-0,009838	-0,012258	-0,015790	2020-10-13T22:47:52:505
-0,022980	-0,025670	0,003218	2020-10-13T22:47:52:527
-0,006391	-0,093562	0,019803	2020-10-13T22:47:52:554
-0,003366	-0,021147	-0,020763	2020-10-13T22:47:52:567
-0,062617	-0,034445	0,029378	2020-10-13T22:47:52:584
0,047453	-0,051195	-0,020872	2020-10-13T22:47:52:607
-0,007104	0,059837	0,010269	2020-10-13T22:47:52:628
-0,004711	0,038302	0,005484	2020-10-13T22:47:52:646
0,046198	-0,010582	-0,061716	2020-10-13T22:47:52:665
0,012684	0,016078	-0,049606	2020-10-13T22:47:52:687
0,006866	-0,055073	0,019873	2020-10-13T22:47:52:705
-0,007491	-0,059859	0,000730	2020-10-13T22:47:52:726
-0,045991	-0,065691	-0,051722	2020-10-13T22:47:52:744
0,041348	-0,033425	0,008207	2020-10-13T22:47:52:767
0,017860	-0,061482	-0,001225	2020-10-13T22:47:52:784
0,031909	-0,019491	-0,017896	2020-10-13T22:47:52:807
0,092466	-0,007342	0,032453	2020-10-13T22:47:52:825
0,045147	-0,048156	-0,010393	2020-10-13T22:47:52:846
0,014059	0,025469	0,030507	2020-10-13T22:47:52:869
0,003704	-0,050527	-0,012610	2020-10-13T22:47:52:894
0,013110	0,032585	-0,005338	2020-10-13T22:47:52:907
0,027258	0,015365	0,028034	2020-10-13T22:47:52:928
0,004422	-0,014293	0,001739	2020-10-13T22:47:52:946
-0,032462	0,056118	-0,017300	2020-10-13T22:47:52:969
-0,041010	0,024414	0,004035	2020-10-13T22:47:52:986
0,019567	-0,004886	-0,008000	2020-10-13T22:47:53:008
-0,001969	-0,031207	0,011143	2020-10-13T22:47:53:026
0,018880	-0,057803	0,004106	2020-10-13T22:47:53:052
0,005616	0,006923	0,018656	2020-10-13T22:47:53:066
-0,065813	-0,028054	-0,010150	2020-10-13T22:47:53:096
0,009832	0,007756	-0,024724	2020-10-13T22:47:53:109
-0,047585	-0,068395	-0,027213	2020-10-13T22:47:53:126
-0,097606	0,076633	-0,024893	2020-10-13T22:47:53:144
-0,020504	-0,043737	-0,082877	2020-10-13T22:47:53:168
0,021055	0,007499	-0,011093	2020-10-13T22:47:53:184
0,003136	0,032784	0,000884	2020-10-13T22:47:53:206
0,030901	-0,029556	-0,020720	2020-10-13T22:47:53:226
0,078757	0,044621	-0,032684	2020-10-13T22:47:53:247
-0,011682	-0,063405	0,003312	2020-10-13T22:47:53:265
0,058265	0,022440	-0,015761	2020-10-13T22:47:53:287
0,027663	0,053133	0,012922	2020-10-13T22:47:53:305
0,002766	-0,053606	0,008008	2020-10-13T22:47:53:327
0,021898	0,031542	0,017646	2020-10-13T22:47:53:347
-0,008345	-0,063001	0,015280	2020-10-13T22:47:53:367
0,020163	-0,064460	-0,046765	2020-10-13T22:47:53:385
-0,000173	0,009889	-0,020256	2020-10-13T22:47:53:408
-0,077013	0,030721	0,020403	2020-10-13T22:47:53:425
-0,008676	-0,047735	0,012929	2020-10-13T22:47:53:451
-0,039434	-0,050852	0,012989	2020-10-13T22:47:53:466
0,055552	0,015951	-0,063567	2020-10-13T22:47:53:487
0,000023	-0,063845	-0,051485	2020-10-13T22:47:53:506
-0,029386	0,013744	0,008538	2020-10-13T22:47:53:528
-0,031133	-0,008101	-0,058512	2020-10-13T22:47:53:546
0,070353	-0,029499	0,003654	2020-10-13T22:47:53:568
0,005306	-0,050834	0,034926	2020-10-13T22:47:53:588
0,003317	-0,028525	0,034941	2020-10-13T22:47:53:608
-0,029640	-0,045531	0,018149	2020-10-13T22:47:53:625
-0,011051	0,022373	-0,036943	2020-10-13T22:47:53:649
0,046663	-0,057737	0,020413	2020-10-13T22:47:53:667
0,010464	-0,104789	-0,024747	2020-10-13T22:47:53:687
0,062451	0,013760	0,013754	2020-10-13T22:47:53:706
-0,076370	0,026195	-0,050812	2020-10-13T22:47:53:728
0,042338	-0,059623	0,018267	2020-10-13T22:47:53:746
0,001729	-0,052453	0,016119	2020-10-13T22:47:53:768
0,006343	-0,003247	0,016194	2020-10-13T22:47:53:785
-0,000723	0,069740	-0,005406	2020-10-13T22:47:53:808
-0,000017	-0,049697	-0,022418	2020-10-13T22:47:53:828
-0,052733	-0,028620	0,008788	2020-10-13T22:47:53:848
-0,033786	0,008808	0,013527	2020-10-13T22:47:53:866
-0,044105	0,041859	0,030165	2020-10-13T22:47:53:888
0,064205	0,040891	-0,034770	2020-10-13T22:47:53:906
0,002658	0,072970	-0,032466	2020-10-13T22:47:53:927
-0,046875	-0,032771	-0,018398	2020-10-13T22:47:53:946
-0,015827	0,010863	0,010215	2020-10-13T22:47:53:968
-0,020075	0,024117	0,007741	2020-10-13T22:47:53:986
-0,074252	-0,061418	0,021967	2020-10-13T22:47:54:008
0,029704	-0,056448	-0,064240	2020-10-13T22:47:54:026
0,061583	0,075634	0,002886	2020-10-13T22:47:54:048
0,023298	-0,039222	-0,009079	2020-10-13T22:47:54:069
0,010451	0,002109	-0,018571	2020-10-13T22:47:54:104
-0,053561	0,031538	-0,028254	2020-10-13T22:47:54:109
-0,049937	-0,060211	-0,026208	2020-10-13T22:47:54:131
0,057797	-0,009872	-0,014131	2020-10-13T22:47:54:146
-0,031811	-0,036250	0,007443	2020-10-13T22:47:54:173
-0,028203	0,038749	0,050375	2020-10-13T22:47:54:191
0,041189	0,017214	0,007304	2020-10-13T22:47:54:209
-0,009641	-0,064381	-0,035747	2020-10-13T22:47:54:227
-0,067069	0,026546	-0,004641	2020-10-13T22:47:54:249
-0,065720	-0,042138	0,013968	2020-10-13T22:47:54:266
0,022439	0,020587	-0,062670	2020-10-13T22:47:54:288
0,006618	-0,050306	-0,043534	2020-10-13T22:47:54:316
-0,060220	-0,029548	0,006418	2020-10-13T22:47:54:330
0,055939	-0,066598	-0,010218	2020-10-13T22:47:54:347
-0,054131	-0,068991	-0,012610	2020-10-13T22:47:54:371
-0,005681	-0,060708	0,046981	2020-10-13T22:47:54:385
0,018586	0,015774	0,034871	2020-10-13T22:47:54:408
-0,010818	-0,050849	-0,022850	2020-10-13T22:47:54:425
0,034573	-0,005854	0,051187	2020-10-13T22:47:54:448
0,049426	0,066126	-0,018332	2020-10-13T22:47:54:474
-0,001161	0,011899	0,022071	2020-10-13T22:47:54:489
-0,006798	0,021042	0,019472	2020-10-13T22:47:54:507
0,030146	0,018738	-0,007008	2020-10-13T22:47:54:529
0,050182	-0,013863	-0,014176	2020-10-13T22:47:54:551
-0,044549	-0,057334	0,016985	2020-10-13T22:47:54:570
-0,012515	0,011061	-0,014229	2020-10-13T22:47:54:586
0,061926	-0,037378	-0,014268	2020-10-13T22:47:54:609
-0,056763	0,031506	-0,076324	2020-10-13T22:47:54:627
-0,023264	-0,016350	0,026568	2020-10-13T22:47:54:649
0,066352	-0,024480	-0,028457	2020-10-13T22:47:54:667
-0,027181	0,029020	0,021964	2020-10-13T22:47:54:689
-0,020003	-0,054728	0,012393	2020-10-13T22:47:54:707
0,000511	-0,113601	0,014868	2020-10-13T22:47:54:730
-0,021053	0,042218	-0,023184	2020-10-13T22:47:54:747
-0,031013	-0,073190	-0,049742	2020-10-13T22:47:54:769
-0,032124	0,023966	-0,035274	2020-10-13T22:47:54:790
0,055528	-0,079865	-0,044965	2020-10-13T22:47:54:810
-0,038092	-0,047324	-0,075758	2020-10-13T22:47:54:826
0,028179	0,021171	-0,025524	2020-10-13T22:47:54:849
0,028621	-0,025640	-0,027880	2020-10-13T22:47:54:867
0,031202	-0,065114	0,010574	2020-10-13T22:47:54:895
-0,020868	-0,020771	-0,068125	2020-10-13T22:47:54:908
-0,022197	-0,039084	-0,080105	2020-10-13T22:47:54:929
0,051980	-0,024727	-0,008320	2020-10-13T22:47:54:947
-0,019553	-0,085502	0,082664	2020-10-13T22:47:54:975
0,024720	-0,082295	-0,012837	2020-10-13T22:47:54:990
-0,021100	0,036090	-0,027471	2020-10-13T22:47:55:009
-0,048474	0,016264	0,003302	2020-10-13T22:47:55:029
-0,029697	0,046426	-0,020885	2020-10-13T22:47:55:051
-0,017733	0,022498	0,010221	2020-10-13T22:47:55:067
0,062752	-0,048954	0,012442	2020-10-13T22:47:55:091
-0,052705	-0,035349	-0,032795	2020-10-13T22:47:55:108
0,052369	-0,108020	-0,016086	2020-10-13T22:47:55:132
-0,007872	0,066381	0,010590	2020-10-13T22:47:55:150
-0,047165	0,006083	0,043772	2020-10-13T22:47:55:171
0,013338	-0,017700	0,019585	2020-10-13T22:47:55:187
0,043697	-0,082428	-0,028240	2020-10-13T22:47:55:217
0,044309	-0,006205	-0,023270	2020-10-13T22:47:55:228
-0,050701	-0,003256	-0,025663	2020-10-13T22:47:55:249
0,062098	-0,042217	0,003004	2020-10-13T22:47:55:271
-0,055150	-0,030253	-0,061603	2020-10-13T22:47:55:291
-0,011518	0,042514	0,000507	2020-10-13T22:47:55:309
-0,006173	0,066003	0,029061	2020-10-13T22:47:55:328
-0,077637	-0,031250	-0,007028	2020-10-13T22:47:55:346
0,034364	-0,040200	-0,014394	2020-10-13T22:47:55:369
-0,012893	-0,045043	-0,009412	2020-10-13T22:47:55:386
0,051708	-0,027954	0,000286	2020-10-13T22:47:55:409
0,032393	0,006756	-0,037814	2020-10-13T22:47:55:426
0,020942	-0,045965	0,002955	2020-10-13T22:47:55:449
-0,020199	-0,003960	-0,023281	2020-10-13T22:47:55:467
-0,032436	-0,015128	0,053107	2020-10-13T22:47:55:488
-0,029801	0,024228	-0,030834	2020-10-13T22:47:55:509
0,029732	-0,090728	0,043122	2020-10-13T22:47:55:529
0,032072	-0,014653	-0,030845	2020-10-13T22:47:55:547
-0,003820	0,042774	0,036155	2020-10-13T22:47:55:569
-0,045283	-0,077782	0,033420	2020-10-13T22:47:55:587
-0,004451	-0,032773	-0,076688	2020-10-13T22:47:55:610
0,019231	-0,012882	0,021463	2020-10-13T22:47:55:627
0,039923	0,009927	0,016669	2020-10-13T22:47:55:649
0,010037	0,026350	-0,028860	2020-10-13T22:47:55:667
0,002863	0,008615	-0,036192	2020-10-13T22:47:55:690
0,029308	0,036160	-0,024502	2020-10-13T22:47:55:708
0,023317	0,054487	0,013701	2020-10-13T22:47:55:729
0,044305	-0,092146	-0,086467	2020-10-13T22:47:55:751
-0,007211	-0,016626	-0,017179	2020-10-13T22:47:55:771
0,004753	0,021659	0,028285	2020-10-13T22:47:55:797
0,005364	0,016100	0,001794	2020-10-13T22:47:55:818
0,034462	0,001797	0,020813	2020-10-13T22:47:55:828
-0,026656	-0,016079	0,030400	2020-10-13T22:47:55:850
0,087195	-0,042834	-0,046258	2020-10-13T22:47:55:868
0,009131	-0,018072	0,006616	2020-10-13T22:47:55:890
0,037592	0,005630	-0,014917	2020-10-13T22:47:55:906
-0,019120	0,064025	-0,000538	2020-10-13T22:47:55:929
-0,020245	-0,057844	-0,034303	2020-10-13T22:47:55:945
0,026864	0,000145	-0,012826	2020-10-13T22:47:55:969
-0,004420	0,008430	-0,046698	2020-10-13T22:47:55:989
-0,023563	-0,013105	-0,053877	2020-10-13T22:47:56:009
-0,072326	-0,013549	0,027387	2020-10-13T22:47:56:027
0,038407	-0,048726	0,027265	2020-10-13T22:47:56:049
0,000071	0,113738	-0,017985	2020-10-13T22:47:56:068
0,026312	-0,000711	0,053514	2020-10-13T22:47:56:097
-0,002856	-0,017756	-0,025438	2020-10-13T22:47:56:108
0,080893	0,044457	0,017632	2020-10-13T22:47:56:129
-0,015325	-0,051807	0,003519	2020-10-13T22:47:56:147
0,026295	-0,111254	0,008596	2020-10-13T22:47:56:171
-0,077911	-0,069626	-0,002830	2020-10-13T22:47:56:187
0,023442	-0,001032	0,064178	2020-10-13T22:47:56:209
0,021848	0,083093	-0,009901	2020-10-13T22:47:56:228
0,017229	-0,053714	0,021195	2020-10-13T22:47:56:250
0,026767	-0,051251	0,009569	2020-10-13T22:47:56:267
-0,069246	-0,094440	-0,004118	2020-10-13T22:47:56:290
-0,009426	-0,051369	-0,011297	2020-10-13T22:47:56:307
-0,051536	-0,048944	0,044031	2020-10-13T22:47:56:330
-0,053811	-0,037149	-0,025389	2020-10-13T22:47:56:347
-0,026959	-0,021645	0,043906	2020-10-13T22:47:56:369
-0,035053	-0,078760	-0,011189	2020-10-13T22:47:56:387
0,002738	0,002588	-0,011175	2020-10-13T22:47:56:411
-0,001496	-0,013060	0,021894	2020-10-13T22:47:56:428
-0,044567	0,034797	0,002752	2020-10-13T22:47:56:449
0,012385	-0,050160	-0,009703	2020-10-13T22:47:56:470
-0,030502	-0,038053	0,057294	2020-10-13T22:47:56:489
-0,053290	0,013186	0,009426	2020-10-13T22:47:56:507
0,006245	-0,017024	0,030788	2020-10-13T22:47:56:534
0,034362	-0,033961	-0,029011	2020-10-13T22:47:56:548
-0,039372	0,041148	-0,045621	2020-10-13T22:47:56:572
0,012528	-0,040114	-0,012308	2020-10-13T22:47:56:589
0,019146	-0,005332	-0,021793	2020-10-13T22:47:56:615
-0,027034	-0,022250	-0,038515	2020-10-13T22:47:56:628
-0,041027	-0,027458	0,002234	2020-10-13T22:47:56:651
-0,011361	0,015618	-0,026420	2020-10-13T22:47:56:669
0,019765	-0,045199	-0,024072	2020-10-13T22:47:56:689
-0,093284	-0,044277	-0,031179	2020-10-13T22:47:56:712
0,036446	0,063993	-0,050548	2020-10-13T22:47:56:732
-0,082201	-0,022834	-0,005174	2020-10-13T22:47:56:748
0,013512	-0,108976	-0,012353	2020-10-13T22:47:56:771
-0,016890	-0,024055	-0,016782	2020-10-13T22:47:56:791
-0,013589	0,030711	0,016661	2020-10-13T22:47:56:818
0,031481	0,047746	0,009177	2020-10-13T22:47:56:830
-0,005152	-0,011902	-0,034067	2020-10-13T22:47:56:850
0,030547	0,011541	-0,031795	2020-10-13T22:47:56:868
0,013797	-0,005209	0,020847	2020-10-13T22:47:56:891
0,041552	-0,072318	-0,055681	2020-10-13T22:47:56:907
0,031046	0,008498	-0,029003	2020-10-13T22:47:56:930
0,020379	0,041138	0,021261	2020-10-13T22:47:56:949
0,051455	-0,067625	0,025892	2020-10-13T22:47:56:971
0,044786	0,058904	0,023687	2020-10-13T22:47:56:988
0,007191	0,053274	-0,017052	2020-10-13T22:47:57:010
0,003882	-0,054204	-0,038638	2020-10-13T22:47:57:028
-0,024511	-0,080995	0,035609	2020-10-13T22:47:57:051
0,028202	-0,009773	-0,005110	2020-10-13T22:47:57:069
-0,008410	0,020560	-0,060144	2020-10-13T22:47:57:096
0,002604	-0,021490	-0,028944	2020-10-13T22:47:57:109
-0,030895	-0,074132	-0,031337	2020-10-13T22:47:57:131
-0,025840	-0,021109	0,021525	2020-10-13T22:47:57:148
0,080056	0,002128	-0,014320	2020-10-13T22:47:57:170
0,034951	-0,005019	-0,018882	2020-10-13T22:47:57:189
0,001805	0,069243	-0,033132	2020-10-13T22:47:57:211
0,005860	0,039478	-0,030858	2020-10-13T22:47:57:228
0,004685	-0,021625	-0,006929	2020-10-13T22:47:57:250
-0,001767	-0,038347	0,012409	2020-10-13T22:47:57:268
-0,029425	-0,037166	0,003180	2020-10-13T22:47:57:291
-0,003104	-0,056308	-0,018356	2020-10-13T22:47:57:308
-0,078659	-0,032662	-0,037230	2020-10-13T22:47:57:331
-0,026538	-0,079979	-0,015418	2020-10-13T22:47:57:349
0,021318	-0,058443	-0,024990	2020-10-13T22:47:57:372
-0,012428	-0,073030	0,006470	2020-10-13T22:47:57:388
-0,005854	-0,030539	0,021060	2020-10-13T22:47:57:411
0,013112	-0,093155	-0,002406	2020-10-13T22:47:57:431
0,063361	-0,002227	-0,014371	2020-10-13T22:47:57:451
0,073526	-0,007105	0,014557	2020-10-13T22:47:57:468
-0,027470	0,058402	0,009850	2020-10-13T22:47:57:490
0,010749	0,029001	-0,004895	2020-10-13T22:47:57:509
0,003984	0,034320	-0,074512	2020-10-13T22:47:57:532
-0,016881	-0,018004	0,037704	2020-10-13T22:47:57:549
-0,043904	-0,050795	-0,067749	2020-10-13T22:47:57:571
-0,075996	-0,004783	0,037006	2020-10-13T22:47:57:589
-0,042496	0,035895	-0,046743	2020-10-13T22:47:57:613
0,055798	0,033023	-0,041988	2020-10-13T22:47:57:629
0,092908	-0,105468	-0,063092	2020-10-13T22:47:57:650
-0,010470	-0,026710	-0,000033	2020-10-13T22:47:57:671
0,008673	-0,081745	-0,019176	2020-10-13T22:47:57:691
-0,117607	-0,060369	0,017037	2020-10-13T22:47:57:709
-0,001824	0,026369	-0,002257	2020-10-13T22:47:57:731
0,021553	-0,021748	-0,026171	2020-10-13T22:47:57:748
0,003508	0,022870	0,005323	2020-10-13T22:47:57:771
0,061085	-0,069712	0,010263	2020-10-13T22:47:57:789
-0,019279	0,065197	-0,025265	2020-10-13T22:47:57:811
-0,077620	-0,045207	-0,023205	2020-10-13T22:47:57:828
-0,039051	-0,014461	-0,049810	2020-10-13T22:47:57:851
-0,014263	-0,006957	-0,018974	2020-10-13T22:47:57:869
0,018109	0,006072	0,009609	2020-10-13T22:47:57:891
-0,051966	-0,039472	-0,002448	2020-10-13T22:47:57:913
-0,044788	-0,075364	-0,062269	2020-10-13T22:47:57:930
-0,013506	-0,088511	0,047844	2020-10-13T22:47:57:948
0,009045	-0,003699	0,045569	2020-10-13T22:47:57:971
-0,012479	0,036444	0,004866	2020-10-13T22:47:57:989
0,026323	-0,080433	-0,033546	2020-10-13T22:47:58:013
0,018013	-0,115414	-0,059646	2020-10-13T22:47:58:029
-0,003353	0,012618	0,007524	2020-10-13T22:47:58:050
-0,084561	0,058874	0,076587	2020-10-13T22:47:58:069
0,051050	0,002550	-0,026929	2020-10-13T22:47:58:134
-0,005285	0,055125	0,008793	2020-10-13T22:47:58:135
0,001808	0,000167	-0,074710	2020-10-13T22:47:58:136
0,044908	-0,102588	-0,038217	2020-10-13T22:47:58:150
0,013802	0,009874	-0,016681	2020-10-13T22:47:58:172
0,025283	-0,052013	0,014349	2020-10-13T22:47:58:192
-0,021606	-0,000940	0,002258	2020-10-13T22:47:58:212
0,050472	0,047502	-0,031816	2020-10-13T22:47:58:230
-0,033277	0,061858	-0,036601	2020-10-13T22:47:58:261
0,037675	-0,010937	0,006349	2020-10-13T22:47:58:271
0,008961	0,005812	-0,034329	2020-10-13T22:47:58:291
-0,008353	-0,075773	-0,012776	2020-10-13T22:47:58:310
0,039329	0,054431	0,023288	2020-10-13T22:47:58:330
-0,046557	-0,073070	-0,005465	2020-10-13T22:47:58:348
0,099180	0,030269	0,006525	2020-10-13T22:47:58:371
0,020511	-0,012437	-0,014876	2020-10-13T22:47:58:391
-0,051485	-0,060707	0,042542	2020-10-13T22:47:58:411
0,032740	-0,036914	0,035324	2020-10-13T22:47:58:429
-0,020336	0,039579	-0,007729	2020-10-13T22:47:58:451
0,003453	-0,050617	-0,015217	2020-10-13T22:47:58:470
-0,031715	-0,016825	0,035124	2020-10-13T22:47:58:492
0,004178	0,050174	-0,029482	2020-10-13T22:47:58:510
0,030160	-0,023612	0,006218	2020-10-13T22:47:58:532
0,002984	-0,010188	-0,034460	2020-10-13T22:47:58:549
0,027836	0,033070	-0,015470	2020-10-13T22:47:58:572
0,016035	-0,002887	-0,022883	2020-10-13T22:47:58:590
-0,019422	-0,014954	0,012871	2020-10-13T22:47:58:612
0,017879	-0,014364	0,003144	2020-10-13T22:47:58:634
-0,022799	-0,016756	-0,023177	2020-10-13T22:47:58:651
-0,013775	-0,008186	0,024539	2020-10-13T22:47:58:669
-0,043956	-0,002969	-0,047504	2020-10-13T22:47:58:692
0,011079	-0,012540	0,021888	2020-10-13T22:47:58:710
0,036648	0,028231	-0,001999	2020-10-13T22:47:58:731
0,015654	-0,036044	0,029107	2020-10-13T22:47:58:750
-0,052153	-0,044367	0,007670	2020-10-13T22:47:58:772
0,022150	-0,026133	-0,011532	2020-10-13T22:47:58:789
-0,007215	-0,009591	-0,021080	2020-10-13T22:47:58:812
-0,026201	-0,002545	-0,042628	2020-10-13T22:47:58:832
0,011811	0,003069	0,017243	2020-10-13T22:47:58:852
0,024569	-0,058899	-0,006482	2020-10-13T22:47:58:871
0,064679	-0,017990	-0,032641	2020-10-13T22:47:58:896
-0,028641	-0,022775	-0,003927	2020-10-13T22:47:58:923
0,011678	-0,039895	0,007916	2020-10-13T22:47:58:934
-0,038339	0,001293	-0,004268	2020-10-13T22:47:58:950
0,041397	-0,013757	0,010139	2020-10-13T22:47:58:973
-0,023731	-0,005771	0,041077	2020-10-13T22:47:58:991
-0,038021	0,034108	-0,009442	2020-10-13T22:47:59:012
0,024192	0,012572	-0,011835	2020-10-13T22:47:59:031
-0,024801	-0,036614	0,014483	2020-10-13T22:47:59:052
0,079578	0,026452	0,055124	2020-10-13T22:47:59:072
0,028747	-0,055033	0,004911	2020-10-13T22:47:59:094
0,034150	0,045167	0,005096	2020-10-13T22:47:59:111
-0,010919	0,028069	0,036181	2020-10-13T22:47:59:132
-0,023360	-0,065254	-0,021345	2020-10-13T22:47:59:150
-0,030538	-0,007826	0,024118	2020-10-13T22:47:59:172
0,068788	0,004521	-0,026175	2020-10-13T22:47:59:190
-0,008677	-0,029266	-0,033199	2020-10-13T22:47:59:212
-0,000618	-0,040568	0,007464	2020-10-13T22:47:59:231
0,002665	-0,006593	-0,026060	2020-10-13T22:47:59:255
-0,002074	-0,084266	-0,011755	2020-10-13T22:47:59:294
0,050482	0,028806	0,017099	2020-10-13T22:47:59:295
0,053408	-0,014800	-0,006867	2020-10-13T22:47:59:310
0,034320	-0,005813	-0,016345	2020-10-13T22:47:59:332
-0,000970	-0,022717	-0,006689	2020-10-13T22:47:59:362
-0,003220	-0,062896	-0,059316	2020-10-13T22:47:59:375
-0,031987	-0,019511	0,038917	2020-10-13T22:47:59:391
0,017806	0,034870	-0,013856	2020-10-13T22:47:59:413
-0,046574	0,033544	-0,002071	2020-10-13T22:47:59:432
0,063992	0,040215	-0,007134	2020-10-13T22:47:59:451
-0,015816	-0,033582	-0,004665	2020-10-13T22:47:59:471
0,008013	-0,052659	-0,050014	2020-10-13T22:47:59:492
-0,010606	-0,073080	0,019630	2020-10-13T22:47:59:511
-0,106700	-0,012200	-0,020871	2020-10-13T22:47:59:533
0,004205	-0,019447	-0,037911	2020-10-13T22:47:59:550
-0,005414	0,009340	-0,011585	2020-10-13T22:47:59:572
0,011413	-0,005882	0,002728	2020-10-13T22:47:59:593
0,023141	-0,034470	0,005139	2020-10-13T22:47:59:612
0,006788	-0,055997	0,029278	2020-10-13T22:47:59:630
0,039456	0,001922	-0,011225	2020-10-13T22:47:59:652
0,004214	0,001012	0,070179	2020-10-13T22:47:59:671
-0,029750	-0,045320	-0,020887	2020-10-13T22:47:59:693
0,040515	-0,028439	0,007911	2020-10-13T22:47:59:712
0,035730	0,048131	-0,035160	2020-10-13T22:47:59:732
-0,006209	0,002499	-0,023356	2020-10-13T22:47:59:751
0,010541	0,045570	-0,040107	2020-10-13T22:47:59:773
-0,026010	-0,015165	0,000457	2020-10-13T22:47:59:791
-0,005548	-0,017675	0,024311	2020-10-13T22:47:59:815
-0,021997	-0,032194	0,000468	2020-10-13T22:47:59:837
-0,055497	-0,029801	0,014825	2020-10-13T22:47:59:853
0,016511	0,024058	0,036174	2020-10-13T22:47:59:871
0,056420	0,061842	0,007492	2020-10-13T22:47:59:900
-0,009474	0,003755	-0,049791	2020-10-13T22:47:59:919
-0,019045	-0,096743	-0,028256	2020-10-13T22:47:59:934
-0,007422	-0,069054	-0,006426	2020-10-13T22:47:59:951
-0,014124	-0,013621	-0,015894	2020-10-13T22:47:59:976
0,034063	0,022880	0,000867	2020-10-13T22:47:59:990
0,004974	-0,019456	0,010615	2020-10-13T22:48:00:014
-0,040490	-0,064920	0,020186	2020-10-13T22:48:00:031
-0,002265	0,023741	-0,022889	2020-10-13T22:48:00:053
-0,006643	-0,043050	-0,020618	2020-10-13T22:48:00:077
0,003146	-0,080275	0,000956	2020-10-13T22:48:00:096
-0,008914	0,001181	-0,032424	2020-10-13T22:48:00:110
0,046769	-0,007330	0,005766	2020-10-13T22:48:00:133
0,011400	0,049058	-0,056399	2020-10-13T22:48:00:150
-0,026844	-0,010227	-0,056597	2020-10-13T22:48:00:173
0,025037	0,017294	-0,006486	2020-10-13T22:48:00:192
-0,007043	-0,022582	0,000671	2020-10-13T22:48:00:213
0,024206	-0,067685	-0,028034	2020-10-13T22:48:00:231
-0,026608	0,081782	0,053401	2020-10-13T22:48:00:253
-0,026456	0,001618	0,000358	2020-10-13T22:48:00:271
-0,039514	-0,054197	-0,009315	2020-10-13T22:48:00:293
0,038138	-0,032028	0,055371	2020-10-13T22:48:00:313
-0,007420	-0,063281	-0,028148	2020-10-13T22:48:00:333
0,023096	0,021888	-0,008801	2020-10-13T22:48:00:351
0,028922	-0,000747	0,060501	2020-10-13T22:48:00:374
-0,011640	-0,018590	0,024662	2020-10-13T22:48:00:392
-0,012374	0,008159	-0,003994	2020-10-13T22:48:00:414
-0,021945	-0,061233	-0,020744	2020-10-13T22:48:00:431
0,047944	-0,005104	-0,013433	2020-10-13T22:48:00:453
-0,002618	0,012239	-0,032407	2020-10-13T22:48:00:471
-0,067460	-0,060401	-0,068327	2020-10-13T22:48:00:498
0,007957	0,080241	0,003356	2020-10-13T22:48:00:513
0,008094	0,027404	-0,042343	2020-10-13T22:48:00:534
0,022299	-0,074945	-0,013706	2020-10-13T22:48:00:554
0,054764	0,035593	-0,042235	2020-10-13T22:48:00:597
0,041153	-0,040218	-0,013388	2020-10-13T22:48:00:599
-0,010404	0,001398	0,012812	2020-10-13T22:48:00:615
-0,022369	-0,041673	-0,008724	2020-10-13T22:48:00:632
0,068284	0,030491	0,003148	2020-10-13T22:48:00:653
0,037208	-0,108683	-0,011213	2020-10-13T22:48:00:676
-0,057445	-0,020946	0,005787	2020-10-13T22:48:00:693
0,017540	0,024212	-0,025501	2020-10-13T22:48:00:712
-0,009503	-0,021346	0,039031	2020-10-13T22:48:00:734
0,048358	-0,001889	0,003130	2020-10-13T22:48:00:754
-0,030391	-0,091018	-0,001570	2020-10-13T22:48:00:774
0,006395	-0,028404	-0,061200	2020-10-13T22:48:00:794
-0,039069	-0,061904	-0,077950	2020-10-13T22:48:00:813
0,055179	-0,036813	0,003757	2020-10-13T22:48:00:833
0,007323	-0,017671	0,010935	2020-10-13T22:48:00:854
-0,011842	0,033083	0,022923	2020-10-13T22:48:00:872
0,013344	0,011254	-0,001195	2020-10-13T22:48:00:894
0,046774	0,005134	-0,008431	2020-10-13T22:48:00:913
0,046789	-0,011988	-0,003538	2020-10-13T22:48:00:934
-0,039458	-0,045074	-0,039282	2020-10-13T22:48:00:952
-0,009012	0,002120	-0,060828	2020-10-13T22:48:00:974
-0,006194	-0,042009	0,018064	2020-10-13T22:48:00:992
0,008923	-0,010414	-0,005881	2020-10-13T22:48:01:014
-0,017473	-0,049263	-0,032224	2020-10-13T22:48:01:033
-0,040497	-0,047610	-0,039374	2020-10-13T22:48:01:053
-0,020386	0,018311	-0,075490	2020-10-13T22:48:01:075
-0,049100	0,015919	0,003473	2020-10-13T22:48:01:098
-0,033519	-0,053490	0,005569	2020-10-13T22:48:01:112
0,002050	0,017812	0,010336	2020-10-13T22:48:01:135
0,023456	-0,057536	0,027040	2020-10-13T22:48:01:153
-0,042685	-0,109923	0,034417	2020-10-13T22:48:01:174
-0,000230	-0,071496	0,017806	2020-10-13T22:48:01:195
-0,057519	0,017160	-0,013190	2020-10-13T22:48:01:215
0,012866	-0,037211	-0,049335	2020-10-13T22:48:01:233
0,033884	-0,016659	-0,003779	2020-10-13T22:48:01:255
-0,039163	0,017056	-0,041990	2020-10-13T22:48:01:279
-0,013477	-0,012913	0,017681	2020-10-13T22:48:01:295
0,015931	-0,024741	-0,018240	2020-10-13T22:48:01:313
-0,032556	-0,064948	0,005743	2020-10-13T22:48:01:336
0,031536	0,015833	0,012912	2020-10-13T22:48:01:352
-0,020938	-0,019100	-0,003914	2020-10-13T22:48:01:374
-0,004188	0,012006	0,029585	2020-10-13T22:48:01:393
0,004499	-0,021347	-0,037595	2020-10-13T22:48:01:422
-0,006970	-0,004632	-0,011301	2020-10-13T22:48:01:435
-0,016542	0,052796	0,005449	2020-10-13T22:48:01:456
-0,016216	0,035376	0,022039	2020-10-13T22:48:01:473
-0,030573	-0,057944	-0,040174	2020-10-13T22:48:01:496
-0,019308	0,022014	0,017216	2020-10-13T22:48:01:517
-0,000165	0,060300	-0,044997	2020-10-13T22:48:01:534
-0,045123	0,047378	0,024103	2020-10-13T22:48:01:552
-0,063326	-0,033080	-0,019312	2020-10-13T22:48:01:574
0,046750	-0,007145	0,002196	2020-10-13T22:48:01:592
-0,025860	-0,048895	-0,021512	2020-10-13T22:48:01:614
0,018800	0,011455	0,071982	2020-10-13T22:48:01:633
-0,019485	0,004276	0,014555	2020-10-13T22:48:01:654
0,013297	-0,056490	0,021606	2020-10-13T22:48:01:673
0,000379	-0,039822	0,040902	2020-10-13T22:48:01:695
0,038051	-0,095527	-0,018807	2020-10-13T22:48:01:728
-0,011791	-0,029675	0,002998	2020-10-13T22:48:01:924
0,020867	0,033937	-0,035412	2020-10-13T22:48:01:925
-0,041902	-0,005643	-0,030770	2020-10-13T22:48:01:925
-0,006718	-0,034754	-0,009337	2020-10-13T22:48:01:926
0,062679	-0,028836	-0,002107	2020-10-13T22:48:01:927
-0,019101	-0,004321	-0,030652	2020-10-13T22:48:01:927
-0,022488	-0,012726	-0,049921	2020-10-13T22:48:01:928
-0,034738	-0,006619	0,012137	2020-10-13T22:48:01:929
-0,018113	-0,031312	0,023952	2020-10-13T22:48:01:933
0,040728	-0,050080	-0,021564	2020-10-13T22:48:01:934
0,065043	-0,030895	-0,028529	2020-10-13T22:48:01:934
0,046262	-0,054543	0,026852	2020-10-13T22:48:01:952
-0,049451	-0,037793	-0,021006	2020-10-13T22:48:01:973
0,000243	0,024707	-0,011401	2020-10-13T22:48:01:994
-0,004735	-0,015132	0,012465	2020-10-13T22:48:02:015
0,043617	-0,070634	-0,011279	2020-10-13T22:48:02:034
0,002939	0,058578	0,038971	2020-10-13T22:48:02:056
0,022717	0,019578	0,017146	2020-10-13T22:48:02:074
-0,011621	-0,051827	-0,028369	2020-10-13T22:48:02:094
0,017097	-0,040004	-0,035443	2020-10-13T22:48:02:141
0,023400	0,011081	0,022067	2020-10-13T22:48:02:166
0,044740	-0,039548	-0,001981	2020-10-13T22:48:02:168
0,019374	0,008302	-0,016265	2020-10-13T22:48:02:184
0,004417	0,002065	-0,013909	2020-10-13T22:48:02:200
-0,067509	0,003772	-0,023505	2020-10-13T22:48:02:254
-0,045011	-0,004199	-0,028496	2020-10-13T22:48:02:255
0,026446	-0,040079	-0,014242	2020-10-13T22:48:02:256
0,020162	-0,055175	0,045730	2020-10-13T22:48:02:274
-0,011940	-0,021867	0,007597	2020-10-13T22:48:02:294
0,018890	0,015528	-0,004283	2020-10-13T22:48:02:316
0,057920	-0,011171	-0,020968	2020-10-13T22:48:02:333
0,032766	-0,046027	0,005585	2020-10-13T22:48:02:352
-0,011631	-0,013200	-0,022982	2020-10-13T22:48:02:375
-0,041536	0,021993	0,003245	2020-10-13T22:48:02:396
0,078547	-0,016578	-0,061629	2020-10-13T22:48:02:436
-0,018325	-0,093378	-0,011211	2020-10-13T22:48:02:437
0,029506	-0,005071	0,022390	2020-10-13T22:48:02:527
0,037617	0,025235	-0,054255	2020-10-13T22:48:02:530
0,035224	-0,046549	-0,039898	2020-10-13T22:48:02:531
-0,047619	-0,030910	-0,042275	2020-10-13T22:48:02:531
-0,002156	-0,021339	-0,032704	2020-10-13T22:48:02:536
-0,009176	-0,040453	-0,037497	2020-10-13T22:48:02:556
0,009314	0,019374	-0,037696	2020-10-13T22:48:02:575
0,014100	0,012195	-0,073588	2020-10-13T22:48:02:592
-0,014379	0,071956	0,007643	2020-10-13T22:48:02:614
-0,047868	-0,053118	-0,011641	2020-10-13T22:48:02:632
-0,032334	0,063241	-0,009129	2020-10-13T22:48:02:655
0,043230	0,038090	-0,030899	2020-10-13T22:48:02:674
0,019706	0,008853	-0,095538	2020-10-13T22:48:02:695
-0,045474	-0,052231	-0,014211	2020-10-13T22:48:02:719
-0,004494	-0,041140	0,021615	2020-10-13T22:48:02:735
0,005259	-0,013717	-0,004664	2020-10-13T22:48:02:753
-0,029123	-0,067803	0,007387	2020-10-13T22:48:02:776
0,017268	-0,049923	-0,002070	2020-10-13T22:48:02:793
0,020996	-0,021972	-0,033048	2020-10-13T22:48:02:815
0,073067	0,080665	-0,033031	2020-10-13T22:48:02:835
-0,008794	-0,051048	0,007569	2020-10-13T22:48:02:855
-0,027893	0,003350	-0,021067	2020-10-13T22:48:02:874
-0,019210	0,059662	0,005127	2020-10-13T22:48:02:895
0,001031	-0,011768	0,012049	2020-10-13T22:48:02:914
0,010603	0,019338	-0,014273	2020-10-13T22:48:02:935
0,024598	0,016896	-0,052650	2020-10-13T22:48:02:956
-0,033410	0,055147	0,007092	2020-10-13T22:48:02:977
0,044762	-0,077464	-0,012284	2020-10-13T22:48:02:993
-0,041443	-0,093535	-0,014416	2020-10-13T22:48:03:016
-0,068362	-0,051518	-0,026304	2020-10-13T22:48:03:039
-0,007037	0,010020	-0,004886	2020-10-13T22:48:03:055
0,026436	0,023506	-0,009710	2020-10-13T22:48:03:099
-0,072839	-0,026125	0,016590	2020-10-13T22:48:03:100
-0,047467	0,010316	-0,043398	2020-10-13T22:48:03:136
-0,003961	-0,017592	-0,012504	2020-10-13T22:48:03:137
-0,003709	-0,012549	-0,038825	2020-10-13T22:48:03:153
0,010160	-0,014658	-0,029217	2020-10-13T22:48:03:175
0,031434	-0,020068	0,009053	2020-10-13T22:48:03:195
0,059787	-0,028157	-0,012386	2020-10-13T22:48:03:216
0,027599	0,015284	-0,055493	2020-10-13T22:48:03:235
0,021513	-0,061176	0,009290	2020-10-13T22:48:03:256
0,047834	0,001037	0,023646	2020-10-13T22:48:03:275
0,018643	-0,019132	-0,050432	2020-10-13T22:48:03:297
-0,013897	-0,034712	-0,019321	2020-10-13T22:48:03:315
0,048317	-0,027533	-0,043249	2020-10-13T22:48:03:337
0,022187	0,013908	-0,026356	2020-10-13T22:48:03:357
0,009240	-0,047151	-0,012004	2020-10-13T22:48:03:376
-0,008241	-0,033155	-0,004696	2020-10-13T22:48:03:394
0,022753	-0,007442	-0,021360	2020-10-13T22:48:03:416
0,010953	-0,011692	0,033812	2020-10-13T22:48:03:439
-0,022546	-0,009300	-0,006866	2020-10-13T22:48:03:456
-0,002310	-0,028271	0,026587	2020-10-13T22:48:03:475
-0,000444	-0,096394	-0,004436	2020-10-13T22:48:03:496
-0,027279	-0,034723	0,081925	2020-10-13T22:48:03:515
-0,016673	-0,059800	-0,054461	2020-10-13T22:48:03:536
-0,011520	-0,061862	-0,095033	2020-10-13T22:48:03:555
0,021398	-0,049108	0,048715	2020-10-13T22:48:03:576
0,036269	0,070226	-0,020719	2020-10-13T22:48:03:594
-0,036090	-0,029475	-0,068840	2020-10-13T22:48:03:616
0,052026	0,066147	0,000447	2020-10-13T22:48:03:635
0,003858	-0,025962	-0,025901	2020-10-13T22:48:03:657
0,015822	-0,011605	-0,006758	2020-10-13T22:48:03:678
0,014103	0,027699	-0,018697	2020-10-13T22:48:03:698
0,008952	-0,017440	0,024407	2020-10-13T22:48:03:715
-0,010157	-0,085311	-0,061557	2020-10-13T22:48:03:738
-0,009683	0,032195	-0,006644	2020-10-13T22:48:03:757
0,010830	-0,044732	-0,051962	2020-10-13T22:48:03:778
-0,003890	-0,015643	-0,044747	2020-10-13T22:48:03:796
0,012860	-0,030000	-0,027998	2020-10-13T22:48:03:817
-0,006957	-0,015166	0,007951	2020-10-13T22:48:03:836
0,016971	-0,053451	-0,059049	2020-10-13T22:48:03:858
-0,015665	-0,010210	-0,013388	2020-10-13T22:48:03:875
0,000787	-0,033014	-0,022892	2020-10-13T22:48:03:897
-0,011648	-0,024412	-0,032372	2020-10-13T22:48:03:920
0,013290	0,111364	0,039331	2020-10-13T22:48:03:937
-0,060855	-0,037351	-0,063909	2020-10-13T22:48:03:955
0,002352	0,006208	-0,011418	2020-10-13T22:48:03:977
-0,004566	0,008331	0,014769	2020-10-13T22:48:03:997
0,028933	-0,053883	0,021947	2020-10-13T22:48:04:015
0,000486	-0,106091	-0,054386	2020-10-13T22:48:04:034
0,062012	0,001959	-0,032578	2020-10-13T22:48:04:058
-0,010004	-0,028083	0,032102	2020-10-13T22:48:04:076
0,040723	-0,060867	-0,030103	2020-10-13T22:48:04:099
-0,006403	0,000958	-0,001211	2020-10-13T22:48:04:115
0,024704	0,036851	0,013146	2020-10-13T22:48:04:137
-0,014891	-0,001149	-0,049096	2020-10-13T22:48:04:159
0,016061	-0,026412	0,003603	2020-10-13T22:48:04:176
-0,056952	0,030293	-0,010613	2020-10-13T22:48:04:194
-0,014077	-0,020904	-0,013165	2020-10-13T22:48:04:216
0,024987	-0,041706	0,008366	2020-10-13T22:48:04:235
-0,026062	-0,049835	0,001295	2020-10-13T22:48:04:263
0,037340	-0,026434	-0,048928	2020-10-13T22:48:04:278
-0,019227	-0,006649	-0,012927	2020-10-13T22:48:04:297
0,046455	0,010007	-0,039309	2020-10-13T22:48:04:315
-0,055763	0,032477	0,027713	2020-10-13T22:48:04:336
-0,026288	0,018087	-0,068277	2020-10-13T22:48:04:355
0,000685	-0,092726	0,082403	2020-10-13T22:48:04:377
-0,037688	-0,048273	-0,032272	2020-10-13T22:48:04:397
-0,027393	-0,012018	0,008262	2020-10-13T22:48:04:416
-0,028081	-0,000662	0,003361	2020-10-13T22:48:04:435
0,036573	-0,045445	-0,015986	2020-10-13T22:48:04:456
-0,037941	0,071740	-0,008794	2020-10-13T22:48:04:476
0,009744	-0,007311	0,026762	2020-10-13T22:48:04:497
-0,014034	0,021110	-0,009152	2020-10-13T22:48:04:517
-0,051105	-0,038372	0,026586	2020-10-13T22:48:04:537
-0,068577	-0,050610	0,014394	2020-10-13T22:48:04:558
0,003208	-0,043432	-0,043034	2020-10-13T22:48:04:583
0,044792	-0,011031	0,057598	2020-10-13T22:48:04:596
0,032828	0,003325	-0,040508	2020-10-13T22:48:04:618
-0,039133	-0,040547	-0,004533	2020-10-13T22:48:04:640
-0,067793	-0,056270	-0,011675	2020-10-13T22:48:04:657
0,060491	-0,009981	0,017243	2020-10-13T22:48:04:676
0,010242	0,004376	-0,021042	2020-10-13T22:48:04:697
-0,018818	-0,032223	0,019621	2020-10-13T22:48:04:717
0,047629	0,025332	-0,013966	2020-10-13T22:48:04:737
-0,009109	-0,082189	0,017123	2020-10-13T22:48:04:756
0,015497	-0,023978	-0,021049	2020-10-13T22:48:04:777
0,004113	-0,019768	-0,035229	2020-10-13T22:48:04:796
0,022486	-0,021463	-0,030373	2020-10-13T22:48:04:817
0,035490	0,048120	0,010159	2020-10-13T22:48:04:836
-0,005188	-0,049985	0,005374	2020-10-13T22:48:04:857
0,021880	0,051829	0,017361	2020-10-13T22:48:04:878
-0,004957	-0,009622	-0,023478	2020-10-13T22:48:04:897
-0,045042	0,016019	0,036283	2020-10-13T22:48:04:915
-0,002025	0,014386	-0,066802	2020-10-13T22:48:04:937
0,039079	-0,063645	0,021644	2020-10-13T22:48:04:955
-0,007761	0,010145	-0,004516	2020-10-13T22:48:04:978
0,001810	0,036466	0,009841	2020-10-13T22:48:04:996
-0,017903	-0,063915	0,014550	2020-10-13T22:48:05:018
0,039981	0,020031	-0,021246	2020-10-13T22:48:05:037
-0,032991	-0,039423	0,036149	2020-10-13T22:48:05:058
-0,033281	0,035896	-0,021333	2020-10-13T22:48:05:080
0,025621	-0,054642	0,012002	2020-10-13T22:48:05:100
0,033540	-0,076063	-0,021300	2020-10-13T22:48:05:127
0,010380	0,017663	-0,030661	2020-10-13T22:48:05:141
0,015111	0,001169	-0,016400	2020-10-13T22:48:05:156
-0,000121	-0,052459	0,010031	2020-10-13T22:48:05:180
-0,000121	-0,050066	0,043530	2020-10-13T22:48:05:199
0,004341	-0,057558	0,019714	2020-10-13T22:48:05:217
-0,003017	0,001617	-0,023266	2020-10-13T22:48:05:236
0,007063	-0,074038	-0,013790	2020-10-13T22:48:05:257
0,035902	0,073681	0,005429	2020-10-13T22:48:05:276
0,008463	-0,058563	-0,025874	2020-10-13T22:48:05:297
0,034240	-0,040007	0,034058	2020-10-13T22:48:05:316
0,004114	0,046874	0,010236	2020-10-13T22:48:05:338
0,037936	0,007282	-0,013880	2020-10-13T22:48:05:359
-0,050124	-0,008021	-0,021005	2020-10-13T22:48:05:378
0,052117	0,054722	-0,004318	2020-10-13T22:48:05:396
0,008209	-0,026356	-0,011430	2020-10-13T22:48:05:419
0,028359	-0,098608	0,017443	2020-10-13T22:48:05:436
-0,098978	-0,013661	0,010446	2020-10-13T22:48:05:458
-0,051121	-0,023232	0,017624	2020-10-13T22:48:05:477
-0,016989	-0,030011	-0,039940	2020-10-13T22:48:05:498
-0,083142	0,006626	-0,018412	2020-10-13T22:48:05:527
-0,069193	-0,006696	0,019590	2020-10-13T22:48:05:538
-0,001291	-0,057178	0,007451	2020-10-13T22:48:05:557
0,000842	0,043033	0,007562	2020-10-13T22:48:05:580
0,003866	0,005435	-0,033339	2020-10-13T22:48:05:616
0,039940	-0,044277	-0,016684	2020-10-13T22:48:05:618
0,006532	-0,009246	0,033751	2020-10-13T22:48:05:636
0,018691	0,030370	-0,054842	2020-10-13T22:48:05:659
-0,008274	0,005924	-0,004694	2020-10-13T22:48:05:678
0,049894	0,004576	-0,002400	2020-10-13T22:48:05:697
-0,042730	0,000471	0,004786	2020-10-13T22:48:05:718
0,040761	-0,077731	-0,004629	2020-10-13T22:48:05:739
0,050332	-0,072946	0,000156	2020-10-13T22:48:05:757
-0,030888	-0,054688	-0,040118	2020-10-13T22:48:05:779
-0,020587	-0,043092	-0,030489	2020-10-13T22:48:05:797
-0,058872	-0,033521	0,003011	2020-10-13T22:48:05:820
0,022934	-0,002750	-0,013785	2020-10-13T22:48:05:843
0,033794	0,018237	-0,020934	2020-10-13T22:48:05:859
0,041763	-0,030912	-0,013736	2020-10-13T22:48:05:877
0,012575	-0,057587	-0,030246	2020-10-13T22:48:05:898
0,001561	-0,054831	-0,001216	2020-10-13T22:48:05:917
0,001561	0,033703	-0,020358	2020-10-13T22:48:05:938
-0,002406	-0,004223	-0,034966	2020-10-13T22:48:05:957
-0,009585	0,050812	-0,027787	2020-10-13T22:48:05:979
-0,030815	-0,021325	-0,009022	2020-10-13T22:48:05:997
0,076862	0,043281	0,029263	2020-10-13T22:48:06:019
0,033574	0,009848	-0,030521	2020-10-13T22:48:06:037
0,014431	-0,030829	0,000586	2020-10-13T22:48:06:058
0,008972	-0,087286	-0,016086	2020-10-13T22:48:06:085
-0,024928	0,018568	-0,025500	2020-10-13T22:48:06:105
-0,009202	0,025969	-0,023276	2020-10-13T22:48:06:117
0,005810	-0,041222	-0,049749	2020-10-13T22:48:06:139
0,062737	-0,046294	0,039029	2020-10-13T22:48:06:157
0,002916	-0,019973	-0,027970	2020-10-13T22:48:06:179
-0,021958	-0,042673	-0,030258	2020-10-13T22:48:06:198
-0,021495	-0,021482	0,000920	2020-10-13T22:48:06:218
-0,049339	-0,027773	-0,015833	2020-10-13T22:48:06:237
0,042620	-0,021938	-0,008658	2020-10-13T22:48:06:269
-0,041128	-0,014759	-0,025409	2020-10-13T22:48:06:277
-0,035324	0,075169	0,019836	2020-10-13T22:48:06:298
-0,007202	0,013052	-0,021151	2020-10-13T22:48:06:319
0,038189	-0,112134	-0,018788	2020-10-13T22:48:06:339
-0,012574	-0,001420	-0,006427	2020-10-13T22:48:06:360
-0,004943	0,012406	0,038990	2020-10-13T22:48:06:380
0,045614	-0,025203	-0,011355	2020-10-13T22:48:06:397
-0,061353	0,101408	0,000686	2020-10-13T22:48:06:430
0,006466	-0,075006	-0,018920	2020-10-13T22:48:06:439
0,010231	0,042780	-0,049951	2020-10-13T22:48:06:464
-0,040019	-0,026612	-0,006881	2020-10-13T22:48:06:478
-0,049543	-0,028542	-0,028517	2020-10-13T22:48:06:501
-0,013608	-0,011086	-0,019036	2020-10-13T22:48:06:517
0,039720	-0,049647	0,016809	2020-10-13T22:48:06:540
0,056702	0,021771	-0,026061	2020-10-13T22:48:06:561
0,043634	-0,083964	0,038702	2020-10-13T22:48:06:579
-0,035762	-0,060352	-0,011198	2020-10-13T22:48:06:597
0,010766	-0,024099	-0,030266	2020-10-13T22:48:06:619
-0,032781	0,009541	0,012836	2020-10-13T22:48:06:638
-0,081104	0,034110	0,046155	2020-10-13T22:48:06:658
-0,041621	0,024584	-0,023526	2020-10-13T22:48:06:677
0,000941	0,049236	0,007409	2020-10-13T22:48:06:699
0,033799	-0,046435	0,002547	2020-10-13T22:48:06:717
0,063023	-0,006042	-0,011619	2020-10-13T22:48:06:739
0,069696	-0,006621	-0,028249	2020-10-13T22:48:06:758
-0,016712	0,006646	-0,001843	2020-10-13T22:48:06:779
-0,053825	0,000217	-0,004370	2020-10-13T22:48:06:801
-0,010311	-0,039378	0,007390	2020-10-13T22:48:06:819
0,004418	-0,033243	0,043324	2020-10-13T22:48:06:837
-0,026689	0,017006	-0,004531	2020-10-13T22:48:06:859
-0,008458	0,015038	-0,007089	2020-10-13T22:48:06:878
0,001466	-0,039109	-0,009567	2020-10-13T22:48:06:899
0,004006	-0,007038	-0,047816	2020-10-13T22:48:06:917
-0,024822	-0,016931	0,035924	2020-10-13T22:48:06:941
0,009728	-0,014015	-0,011962	2020-10-13T22:48:06:958
0,028510	-0,040718	0,002397	2020-10-13T22:48:06:981
-0,004339	0,032494	-0,007360	2020-10-13T22:48:07:000
-0,027183	-0,015007	-0,026542	2020-10-13T22:48:07:020
0,034841	0,051917	-0,038486	2020-10-13T22:48:07:045
-0,041211	-0,051101	-0,083765	2020-10-13T22:48:07:060
0,049716	-0,170742	0,026305	2020-10-13T22:48:07:081
-0,075904	0,030107	-0,075974	2020-10-13T22:48:07:102
0,042069	0,017975	-0,002183	2020-10-13T22:48:07:118
0,027712	-0,072953	-0,016540	2020-10-13T22:48:07:140
0,021215	-0,086100	-0,001931	2020-10-13T22:48:07:159
-0,015483	0,001053	-0,030445	2020-10-13T22:48:07:204
-0,012158	-0,016613	-0,018572	2020-10-13T22:48:07:205
-0,006842	-0,037774	0,031669	2020-10-13T22:48:07:220
0,038874	-0,048621	0,010173	2020-10-13T22:48:07:239
0,008625	0,000140	0,050970	2020-10-13T22:48:07:260
-0,002825	0,018468	-0,020989	2020-10-13T22:48:07:280
-0,005218	0,013683	0,000546	2020-10-13T22:48:07:299
0,057323	0,011923	-0,013909	2020-10-13T22:48:07:318
-0,018705	-0,011637	-0,021088	2020-10-13T22:48:07:341
0,006622	-0,019265	-0,045107	2020-10-13T22:48:07:358
-0,015870	0,039068	0,010017	2020-10-13T22:48:07:380
0,021806	0,043469	-0,035664	2020-10-13T22:48:07:398
0,031335	0,026167	-0,033402	2020-10-13T22:48:07:420
0,032769	-0,023646	-0,004499	2020-10-13T22:48:07:437
0,022771	0,034007	-0,054486	2020-10-13T22:48:07:460
0,050231	-0,042253	0,000518	2020-10-13T22:48:07:479
-0,040314	-0,024784	-0,004131	2020-10-13T22:48:07:500
-0,037266	-0,058389	-0,009079	2020-10-13T22:48:07:521
0,000829	-0,020581	-0,033031	2020-10-13T22:48:07:540
-0,064037	0,032476	0,026822	2020-10-13T22:48:07:558
-0,027338	-0,006702	-0,033202	2020-10-13T22:48:07:583
0,027697	-0,040202	-0,064309	2020-10-13T22:48:07:598
0,040533	0,049439	0,024353	2020-10-13T22:48:07:620
-0,001922	0,050869	-0,002031	2020-10-13T22:48:07:638
-0,001805	-0,091306	-0,021334	2020-10-13T22:48:07:660
-0,062912	-0,072024	0,045724	2020-10-13T22:48:07:678
0,018107	0,020170	-0,047763	2020-10-13T22:48:07:700
-0,010794	-0,059062	-0,011982	2020-10-13T22:48:07:718
-0,009421	-0,004944	0,004766	2020-10-13T22:48:07:740
0,012765	0,006493	-0,014434	2020-10-13T22:48:07:760
-0,009120	0,043335	-0,045588	2020-10-13T22:48:07:783
-0,049383	-0,047853	0,028449	2020-10-13T22:48:07:799
0,053369	0,040184	0,006886	2020-10-13T22:48:07:822
-0,063316	0,005873	0,004441	2020-10-13T22:48:07:844
0,036065	0,016531	0,006593	2020-10-13T22:48:07:861
0,004011	-0,054836	0,011337	2020-10-13T22:48:07:880
0,032179	-0,035270	-0,005260	2020-10-13T22:48:07:902
0,091017	-0,012188	0,042954	2020-10-13T22:48:07:919
-0,002304	0,009347	-0,028830	2020-10-13T22:48:07:942
0,002650	0,024991	-0,000174	2020-10-13T22:48:07:960
0,035402	-0,002268	-0,031285	2020-10-13T22:48:07:981
0,032162	-0,016612	-0,031120	2020-10-13T22:48:08:001
-0,026662	-0,008852	0,009533	2020-10-13T22:48:08:031
0,052301	-0,083030	0,009533	2020-10-13T22:48:08:043
0,017257	-0,106304	-0,028307	2020-10-13T22:48:08:062
-0,012973	-0,029549	-0,008860	2020-10-13T22:48:08:093
-0,028949	-0,000654	-0,020855	2020-10-13T22:48:08:123
0,009020	-0,001928	0,002909	2020-10-13T22:48:08:124
-0,005867	-0,014188	0,026851	2020-10-13T22:48:08:141
0,012873	-0,011031	-0,004200	2020-10-13T22:48:08:158
-0,004240	-0,057396	0,055596	2020-10-13T22:48:08:181
0,052564	-0,060260	-0,030656	2020-10-13T22:48:08:198
-0,006206	0,019053	0,000535	2020-10-13T22:48:08:220
-0,038403	-0,050487	0,029066	2020-10-13T22:48:08:241
0,026456	-0,011113	-0,006911	2020-10-13T22:48:08:261
0,010971	0,031664	0,012276	2020-10-13T22:48:08:279
-0,018104	-0,009061	-0,028495	2020-10-13T22:48:08:301
0,011424	-0,028389	-0,030937	2020-10-13T22:48:08:318
0,012936	0,039448	0,050502	2020-10-13T22:48:08:340
-0,011640	-0,013036	-0,011781	2020-10-13T22:48:08:359
-0,020843	0,030525	-0,002206	2020-10-13T22:48:08:381
-0,031807	0,042904	-0,059773	2020-10-13T22:48:08:399
-0,028158	0,045455	-0,002510	2020-10-13T22:48:08:421
-0,077204	-0,011642	-0,050518	2020-10-13T22:48:08:439
-0,014700	-0,027251	-0,028960	2020-10-13T22:48:08:461
-0,017093	-0,113393	-0,007425	2020-10-13T22:48:08:484
-0,054947	-0,045573	-0,011979	2020-10-13T22:48:08:501
0,014556	0,044686	0,031045	2020-10-13T22:48:08:519
0,004370	-0,036990	-0,069546	2020-10-13T22:48:08:543
0,032733	-0,040781	-0,016841	2020-10-13T22:48:08:561
0,016390	-0,027790	-0,031052	2020-10-13T22:48:08:583
0,004260	-0,030696	0,016789	2020-10-13T22:48:08:600
-0,026556	0,002317	0,002397	2020-10-13T22:48:08:622
-0,051026	-0,011258	-0,028876	2020-10-13T22:48:08:640
0,049574	-0,039913	-0,038569	2020-10-13T22:48:08:663
0,058673	-0,011385	-0,043112	2020-10-13T22:48:08:681
-0,008874	-0,051699	0,004909	2020-10-13T22:48:08:700
-0,011039	-0,028171	-0,011762	2020-10-13T22:48:08:731
-0,013276	0,059255	-0,052389	2020-10-13T22:48:08:741
-0,007797	-0,063898	-0,018975	2020-10-13T22:48:08:761
-0,001206	-0,029097	-0,052385	2020-10-13T22:48:08:782
0,032705	-0,091978	-0,030560	2020-10-13T22:48:08:821
-0,041794	-0,044838	-0,025802	2020-10-13T22:48:08:823
0,008455	-0,018517	-0,030586	2020-10-13T22:48:08:841
-0,001701	-0,022806	0,010144	2020-10-13T22:48:08:863
0,019941	-0,002373	0,017265	2020-10-13T22:48:08:885
-0,011165	0,035912	0,000516	2020-10-13T22:48:08:901
-0,019361	-0,027381	0,017035	2020-10-13T22:48:08:919
0,045898	-0,033599	-0,049951	2020-10-13T22:48:08:941
-0,016628	-0,036921	-0,066498	2020-10-13T22:48:08:963
-0,009449	0,010560	-0,028119	2020-10-13T22:48:08:981
-0,009111	0,061749	-0,016239	2020-10-13T22:48:08:999
-0,039306	-0,024083	0,012222	2020-10-13T22:48:09:021
-0,009151	-0,109317	0,028941	2020-10-13T22:48:09:040
0,021576	0,015327	0,014835	2020-10-13T22:48:09:061
0,016023	0,042049	0,019567	2020-10-13T22:48:09:081
0,035171	0,019374	0,038547	2020-10-13T22:48:09:102
0,007819	-0,047117	-0,004560	2020-10-13T22:48:09:119
-0,007560	-0,004774	0,000124	2020-10-13T22:48:09:142
-0,041268	0,042611	0,019027	2020-10-13T22:48:09:161
0,011374	-0,077031	-0,052758	2020-10-13T22:48:09:181
-0,021426	-0,005251	-0,038098	2020-10-13T22:48:09:203
0,003267	-0,055328	0,009727	2020-10-13T22:48:09:221
-0,096974	-0,000593	-0,009332	2020-10-13T22:48:09:240
0,003239	-0,050855	-0,028699	2020-10-13T22:48:09:262
0,051454	0,084389	-0,033444	2020-10-13T22:48:09:280
-0,000945	0,016797	-0,028799	2020-10-13T22:48:09:301
-0,038992	0,022109	-0,014540	2020-10-13T22:48:09:320
0,046704	-0,003461	0,045228	2020-10-13T22:48:09:342
0,003265	-0,083575	0,028663	2020-10-13T22:48:09:360
-0,015877	0,028888	-0,038336	2020-10-13T22:48:09:382
-0,028918	-0,014884	-0,014615	2020-10-13T22:48:09:410
-0,018879	0,032003	-0,002945	2020-10-13T22:48:09:422
-0,024190	0,076113	0,015831	2020-10-13T22:48:09:442
0,033836	-0,001227	-0,027186	2020-10-13T22:48:09:462
0,014747	-0,116489	-0,041124	2020-10-13T22:48:09:493
-0,011574	-0,080597	-0,041124	2020-10-13T22:48:09:503
0,000159	0,000652	-0,048079	2020-10-13T22:48:09:521
0,045468	-0,066803	0,004551	2020-10-13T22:48:09:543
-0,018506	0,061949	0,007119	2020-10-13T22:48:09:559
-0,021331	0,018505	-0,012356	2020-10-13T22:48:09:584
0,001853	0,004457	0,004219	2020-10-13T22:48:09:601
0,015064	-0,123778	-0,081822	2020-10-13T22:48:09:623
0,007787	-0,073151	-0,040678	2020-10-13T22:48:09:641
-0,033687	0,085680	0,014549	2020-10-13T22:48:09:662
-0,064816	-0,015917	-0,086337	2020-10-13T22:48:09:688
0,044231	-0,040195	-0,036290	2020-10-13T22:48:09:703
0,046716	-0,045891	0,028498	2020-10-13T22:48:09:721
-0,079821	0,015369	-0,035938	2020-10-13T22:48:09:745
0,008450	-0,036837	0,042711	2020-10-13T22:48:09:761
0,041949	0,018198	-0,048216	2020-10-13T22:48:09:782
-0,089289	-0,048851	-0,019513	2020-10-13T22:48:09:801
0,056105	-0,003971	0,001898	2020-10-13T22:48:09:822
-0,023122	0,028676	-0,029118	2020-10-13T22:48:09:840
-0,043114	0,035308	0,013744	2020-10-13T22:48:09:862
-0,035459	-0,013352	0,011066	2020-10-13T22:48:09:881
0,038175	0,020196	-0,012950	2020-10-13T22:48:09:902
-0,002743	0,007504	-0,077460	2020-10-13T22:48:09:923
-0,020628	-0,049622	-0,010392	2020-10-13T22:48:09:942
0,005108	-0,092573	0,009109	2020-10-13T22:48:09:961
0,017072	0,012711	-0,045925	2020-10-13T22:48:09:983
-0,038470	-0,010481	-0,084261	2020-10-13T22:48:10:001
-0,031663	-0,003805	0,001759	2020-10-13T22:48:10:022
0,041562	-0,018262	0,028005	2020-10-13T22:48:10:041
0,005425	0,023364	0,006641	2020-10-13T22:48:10:062
-0,009915	-0,075755	-0,038820	2020-10-13T22:48:10:097
0,013521	-0,076192	-0,021849	2020-10-13T22:48:10:107
0,036010	0,001981	-0,014415	2020-10-13T22:48:10:122
0,005671	-0,059689	0,014404	2020-10-13T22:48:10:143
0,017265	-0,008311	-0,014350	2020-10-13T22:48:10:182
0,057943	-0,003526	-0,016743	2020-10-13T22:48:10:183
-0,015647	0,006300	-0,007180	2020-10-13T22:48:10:200
0,019208	-0,002353	-0,038421	2020-10-13T22:48:10:226
0,029828	-0,052572	-0,019211	2020-10-13T22:48:10:241
-0,012174	-0,031083	-0,040573	2020-10-13T22:48:10:261
-0,007389	0,000024	0,028819	2020-10-13T22:48:10:287
-0,007594	-0,048583	-0,009609	2020-10-13T22:48:10:303
0,011756	-0,001975	0,035788	2020-10-13T22:48:10:322
0,028506	-0,037868	-0,016855	2020-10-13T22:48:10:343
-0,032981	0,014141	-0,024098	2020-10-13T22:48:10:367
0,002361	0,068285	0,014065	2020-10-13T22:48:10:383
0,014325	-0,142284	-0,038577	2020-10-13T22:48:10:404
-0,000564	-0,003234	-0,047552	2020-10-13T22:48:10:422
0,007738	0,009558	-0,001987	2020-10-13T22:48:10:441
-0,040963	-0,006280	-0,016370	2020-10-13T22:48:10:464
0,028074	-0,017008	0,009796	2020-10-13T22:48:10:481
0,033782	-0,113570	0,000259	2020-10-13T22:48:10:503
0,010404	-0,014195	0,048377	2020-10-13T22:48:10:521
-0,030655	-0,055525	-0,061704	2020-10-13T22:48:10:543
0,054241	0,001251	-0,009039	2020-10-13T22:48:10:561
-0,010296	0,049272	-0,004239	2020-10-13T22:48:10:583
-0,015474	-0,049863	-0,033212	2020-10-13T22:48:10:601
0,044347	-0,009185	-0,011677	2020-10-13T22:48:10:622
0,043364	0,008576	-0,044959	2020-10-13T22:48:10:643
-0,009246	0,026654	-0,068817	2020-10-13T22:48:10:662
-0,013004	0,007243	-0,018742	2020-10-13T22:48:10:682
0,081038	0,052059	-0,102557	2020-10-13T22:48:10:703
-0,049553	-0,122809	0,000737	2020-10-13T22:48:10:721
0,041374	-0,012739	-0,020799	2020-10-13T22:48:10:742
-0,056931	0,051913	-0,056556	2020-10-13T22:48:10:761
-0,017474	0,002237	0,002890	2020-10-13T22:48:10:785
-0,006934	-0,027444	-0,009169	2020-10-13T22:48:10:801
0,043556	-0,019725	-0,013942	2020-10-13T22:48:10:823
0,009023	-0,068143	0,005460	2020-10-13T22:48:10:841
-0,014261	0,050712	-0,003838	2020-10-13T22:48:10:866
0,003418	0,026336	0,019912	2020-10-13T22:48:10:885
-0,027233	-0,047932	0,000632	2020-10-13T22:48:10:904
-0,030353	0,010825	-0,006572	2020-10-13T22:48:10:944
-0,014241	-0,090772	-0,006711	2020-10-13T22:48:10:945
-0,045000	-0,019222	-0,025662	2020-10-13T22:48:10:965
0,039755	0,002225	-0,037448	2020-10-13T22:48:10:989
0,023005	-0,031275	-0,037448	2020-10-13T22:48:11:002
-0,001667	0,066805	-0,020662	2020-10-13T22:48:11:023
-0,002696	0,003584	0,046000	2020-10-13T22:48:11:041
-0,063349	-0,013475	-0,014024	2020-10-13T22:48:11:064
0,062357	-0,007196	-0,011857	2020-10-13T22:48:11:094
0,026440	-0,012961	-0,026137	2020-10-13T22:48:11:102
-0,063098	-0,025158	-0,033275	2020-10-13T22:48:11:127
-0,014057	-0,000916	-0,004726	2020-10-13T22:48:11:144
-0,020392	-0,011399	-0,023953	2020-10-13T22:48:11:161
0,042469	-0,087904	-0,007234	2020-10-13T22:48:11:184
0,054610	-0,021826	-0,030874	2020-10-13T22:48:11:200
0,016306	0,062275	-0,013987	2020-10-13T22:48:11:224
-0,048820	0,015819	0,007421	2020-10-13T22:48:11:243
-0,003495	-0,032380	-0,004672	2020-10-13T22:48:11:264
-0,036424	0,033316	-0,016617	2020-10-13T22:48:11:282
0,002293	-0,053493	0,014210	2020-10-13T22:48:11:305
-0,022918	-0,026428	-0,002563	2020-10-13T22:48:11:322
-0,074657	0,014350	0,035684	2020-10-13T22:48:11:344
0,025252	-0,052719	-0,017280	2020-10-13T22:48:11:364
-0,014409	0,027737	-0,069786	2020-10-13T22:48:11:385
-0,015800	0,029438	-0,005367	2020-10-13T22:48:11:402
0,014602	-0,017824	0,001540	2020-10-13T22:48:11:424
0,010810	0,032196	-0,012982	2020-10-13T22:48:11:442
0,071733	0,125156	0,015451	2020-10-13T22:48:11:465
0,028282	0,050312	-0,054143	2020-10-13T22:48:11:483
0,009063	-0,056053	-0,015678	2020-10-13T22:48:11:504
0,001885	-0,039303	-0,022857	2020-10-13T22:48:11:522
0,008717	-0,131521	-0,063367	2020-10-13T22:48:11:546
-0,069497	0,011450	-0,020151	2020-10-13T22:48:11:563
0,015547	0,056884	-0,032624	2020-10-13T22:48:11:587
-0,041011	0,068055	0,022128	2020-10-13T22:48:11:606
-0,007476	-0,024530	-0,028413	2020-10-13T22:48:11:626
-0,068942	-0,071822	-0,033210	2020-10-13T22:48:11:649
0,030471	-0,107365	-0,033273	2020-10-13T22:48:11:666
-0,032980	-0,107781	-0,061740	2020-10-13T22:48:11:684
0,043065	0,028110	-0,004217	2020-10-13T22:48:11:706
-0,011463	0,021121	-0,020971	2020-10-13T22:48:11:722
-0,044678	-0,035409	-0,004300	2020-10-13T22:48:11:743
0,021417	-0,047492	-0,049737	2020-10-13T22:48:11:762
0,002572	-0,020147	-0,037522	2020-10-13T22:48:11:786
-0,002809	-0,012309	-0,027895	2020-10-13T22:48:11:802
0,007355	-0,079475	-0,039894	2020-10-13T22:48:11:825
0,007687	-0,026768	-0,013482	2020-10-13T22:48:11:851
0,022977	-0,037132	0,000796	2020-10-13T22:48:11:866
-0,029632	-0,037255	0,003181	2020-10-13T22:48:11:882
0,003722	0,018136	0,017446	2020-10-13T22:48:11:907
-0,014732	-0,034530	0,022093	2020-10-13T22:48:11:922
0,075590	-0,025506	-0,013575	2020-10-13T22:48:11:944
0,070804	0,000815	-0,037502	2020-10-13T22:48:11:961
0,010035	0,021586	-0,011054	2020-10-13T22:48:11:985
-0,006032	-0,041352	-0,001547	2020-10-13T22:48:12:003
0,039431	-0,000674	0,012810	2020-10-13T22:48:12:025
0,023188	-0,032445	-0,034984	2020-10-13T22:48:12:043
-0,018289	0,037827	0,032092	2020-10-13T22:48:12:064
0,000645	-0,008496	0,034238	2020-10-13T22:48:12:094
-0,042369	-0,044538	-0,047128	2020-10-13T22:48:12:107
-0,024291	-0,041973	-0,037509	2020-10-13T22:48:12:122
-0,050374	0,085406	-0,037392	2020-10-13T22:48:12:144
-0,012783	0,007140	-0,025688	2020-10-13T22:48:12:163
-0,009742	-0,012933	0,005347	2020-10-13T22:48:12:185
0,031283	-0,051242	-0,006635	2020-10-13T22:48:12:203
0,053428	0,008030	0,019852	2020-10-13T22:48:12:224
0,039282	-0,048143	0,000766	2020-10-13T22:48:12:243
0,003463	-0,107726	-0,008578	2020-10-13T22:48:12:265
0,086674	0,016743	-0,017911	2020-10-13T22:48:12:283
-0,005908	-0,003797	-0,017774	2020-10-13T22:48:12:304
-0,082434	-0,053540	-0,010575	2020-10-13T22:48:12:324
0,014267	-0,016256	-0,022537	2020-10-13T22:48:12:345
0,015572	-0,007670	-0,048742	2020-10-13T22:48:12:362
-0,030923	-0,011695	0,001592	2020-10-13T22:48:12:386
0,010679	-0,106224	-0,022329	2020-10-13T22:48:12:403
-0,035919	-0,043664	-0,017256	2020-10-13T22:48:12:425
-0,013053	0,018413	-0,055504	2020-10-13T22:48:12:447
0,027147	-0,062356	0,045045	2020-10-13T22:48:12:465
-0,027363	-0,015948	-0,052815	2020-10-13T22:48:12:484
-0,051867	0,050703	-0,000278	2020-10-13T22:48:12:538
-0,000872	-0,020033	-0,081960	2020-10-13T22:48:12:539
-0,039354	-0,000282	-0,012530	2020-10-13T22:48:12:548
0,041532	0,001495	0,049562	2020-10-13T22:48:12:566
-0,007564	0,030924	0,001689	2020-10-13T22:48:12:587
0,053118	0,047198	0,013481	2020-10-13T22:48:12:603
-0,004878	-0,043716	-0,019981	2020-10-13T22:48:12:624
0,032711	0,003545	0,013526	2020-10-13T22:48:12:650
0,011176	0,080115	-0,039116	2020-10-13T22:48:12:667
-0,014555	-0,027108	-0,003553	2020-10-13T22:48:12:684
-0,046529	-0,081050	-0,005757	2020-10-13T22:48:12:707
0,058755	-0,016444	-0,024900	2020-10-13T22:48:12:723
0,006298	0,042133	0,001472	2020-10-13T22:48:12:746
0,050273	-0,040689	0,027577	2020-10-13T22:48:12:763
0,023158	-0,133852	-0,034366	2020-10-13T22:48:12:785
-0,067323	-0,038973	-0,031592	2020-10-13T22:48:12:808
-0,053767	0,038384	-0,031754	2020-10-13T22:48:12:826
-0,024424	-0,040972	0,011045	2020-10-13T22:48:12:843
-0,001191	0,034060	0,003822	2020-10-13T22:48:12:865
-0,032019	-0,035071	-0,051322	2020-10-13T22:48:12:884
0,002143	-0,023339	-0,022544	2020-10-13T22:48:12:906
-0,039055	-0,084779	0,011008	2020-10-13T22:48:12:924
-0,000770	-0,024959	0,037330	2020-10-13T22:48:12:945
-0,021957	-0,020301	-0,015335	2020-10-13T22:48:12:964
0,008174	0,041492	0,015684	2020-10-13T22:48:12:987
0,017726	0,009359	-0,010791	2020-10-13T22:48:13:004
0,030972	-0,027024	-0,008367	2020-10-13T22:48:13:025
-0,002464	-0,061081	0,030114	2020-10-13T22:48:13:045
-0,005266	-0,057870	0,020708	2020-10-13T22:48:13:066
0,027948	-0,002192	0,013682	2020-10-13T22:48:13:089
0,004926	0,001972	0,004154	2020-10-13T22:48:13:106
-0,028454	-0,006592	-0,031807	2020-10-13T22:48:13:124
0,021010	-0,007246	0,011156	2020-10-13T22:48:13:146
-0,016059	-0,012182	-0,024686	2020-10-13T22:48:13:170
0,022459	-0,025927	0,018401	2020-10-13T22:48:13:186
-0,027543	-0,062254	-0,014905	2020-10-13T22:48:13:204
-0,049182	-0,084490	-0,031462	2020-10-13T22:48:13:236
-0,001706	0,034282	-0,043342	2020-10-13T22:48:13:246
0,003136	-0,011195	-0,019528	2020-10-13T22:48:13:265
-0,056543	-0,000031	-0,024474	2020-10-13T22:48:13:290
0,020027	-0,004816	0,030560	2020-10-13T22:48:13:310
0,021836	-0,015895	-0,002980	2020-10-13T22:48:13:329
-0,037733	-0,059123	-0,033995	2020-10-13T22:48:13:346
0,005811	-0,062252	-0,031549	2020-10-13T22:48:13:364
0,012982	0,062365	0,006525	2020-10-13T22:48:13:387
-0,010946	0,071936	0,066346	2020-10-13T22:48:13:418
0,007414	-0,031211	-0,005523	2020-10-13T22:48:13:426
0,011297	-0,032740	-0,017405	2020-10-13T22:48:13:443
0,023262	-0,006419	0,001739	2020-10-13T22:48:13:466
0,051880	0,009470	-0,041361	2020-10-13T22:48:13:484
-0,019905	-0,026422	-0,062896	2020-10-13T22:48:13:505
-0,040532	-0,042354	-0,024617	2020-10-13T22:48:13:527
0,063618	-0,044944	-0,050899	2020-10-13T22:48:13:547
-0,027498	-0,053412	-0,043434	2020-10-13T22:48:13:564
-0,046640	-0,034269	-0,017114	2020-10-13T22:48:13:587
-0,069391	-0,058055	-0,012495	2020-10-13T22:48:13:604
0,001322	-0,077593	0,016132	2020-10-13T22:48:13:627
-0,014445	-0,060805	-0,019467	2020-10-13T22:48:13:644
-0,011334	-0,072568	0,011727	2020-10-13T22:48:13:666
0,011062	-0,043616	0,009418	2020-10-13T22:48:13:684
0,056759	-0,018931	-0,052772	2020-10-13T22:48:13:707
-0,036304	0,016126	-0,026388	2020-10-13T22:48:13:724
-0,007937	0,025969	-0,045729	2020-10-13T22:48:13:746
-0,003020	-0,021264	-0,012319	2020-10-13T22:48:13:768
-0,005447	0,022024	0,006836	2020-10-13T22:48:13:788
0,011507	-0,068821	-0,036353	2020-10-13T22:48:13:804
-0,001443	0,027014	0,033203	2020-10-13T22:48:13:827
-0,005936	0,060511	0,006757	2020-10-13T22:48:13:844
0,008537	0,004289	-0,005380	2020-10-13T22:48:13:867
-0,007830	0,052404	0,011143	2020-10-13T22:48:13:886
0,004134	0,018904	0,066178	2020-10-13T22:48:13:906
-0,012837	-0,006667	0,013471	2020-10-13T22:48:13:924
-0,002939	-0,006465	-0,012857	2020-10-13T22:48:13:947
-0,044115	-0,008457	-0,019994	2020-10-13T22:48:13:964
0,077506	0,001071	0,025374	2020-10-13T22:48:13:991
-0,021908	-0,090539	-0,024730	2020-10-13T22:48:14:009
0,045986	0,001638	0,044786	2020-10-13T22:48:14:029
0,025007	-0,013644	-0,041309	2020-10-13T22:48:14:045
-0,012589	-0,072728	-0,024443	2020-10-13T22:48:14:067
0,006125	-0,023395	-0,031421	2020-10-13T22:48:14:100
0,046803	-0,085608	-0,012279	2020-10-13T22:48:14:108
0,035063	-0,044127	0,011905	2020-10-13T22:48:14:125
0,002647	-0,064665	0,026373	2020-10-13T22:48:14:148
-0,052206	-0,010099	0,004918	2020-10-13T22:48:14:165
0,005862	-0,018254	-0,079024	2020-10-13T22:48:14:188
0,032346	-0,006912	-0,035991	2020-10-13T22:48:14:205
0,012043	0,016016	0,004697	2020-10-13T22:48:14:226
0,019760	0,013312	-0,019384	2020-10-13T22:48:14:247
0,007004	0,026298	-0,031373	2020-10-13T22:48:14:268
0,029947	-0,032034	-0,024189	2020-10-13T22:48:14:285
-0,031656	-0,051812	-0,040771	2020-10-13T22:48:14:306
0,037227	-0,007244	-0,009686	2020-10-13T22:48:14:324
0,024363	-0,037257	-0,016881	2020-10-13T22:48:14:347
-0,028096	0,053431	-0,028865	2020-10-13T22:48:14:365
-0,007117	0,014253	-0,026715	2020-10-13T22:48:14:387
0,003060	-0,044433	-0,000480	2020-10-13T22:48:14:405
0,026518	0,041065	-0,017127	2020-10-13T22:48:14:428
0,022778	-0,023893	0,013919	2020-10-13T22:48:14:446
-0,047765	-0,011427	0,028356	2020-10-13T22:48:14:467
-0,041120	0,007963	-0,012403	2020-10-13T22:48:14:487
0,016307	0,004004	0,018517	2020-10-13T22:48:14:514
0,002253	-0,022174	-0,022280	2020-10-13T22:48:14:527
0,026182	-0,041317	-0,010316	2020-10-13T22:48:14:548
-0,054624	-0,054056	0,013770	2020-10-13T22:48:14:565
-0,028777	0,052203	-0,034353	2020-10-13T22:48:14:595
-0,026384	-0,000439	0,001539	2020-10-13T22:48:14:607
0,025892	-0,044642	-0,020145	2020-10-13T22:48:14:628
-0,007120	-0,056283	-0,029501	2020-10-13T22:48:14:646
0,064136	-0,036439	-0,017369	2020-10-13T22:48:14:669
0,073401	0,030115	0,001890	2020-10-13T22:48:14:686
0,008795	-0,024920	-0,000503	2020-10-13T22:48:14:707
0,004175	0,022569	-0,007707	2020-10-13T22:48:14:728
0,022967	-0,045909	-0,031685	2020-10-13T22:48:14:748
-0,052367	-0,006077	0,033048	2020-10-13T22:48:14:765
0,043466	-0,047462	0,013751	2020-10-13T22:48:14:788
-0,013771	-0,012329	-0,055459	2020-10-13T22:48:14:805
-0,010725	0,031141	-0,021974	2020-10-13T22:48:14:828
0,011149	-0,052457	-0,038733	2020-10-13T22:48:14:846
-0,003208	-0,014172	-0,029161	2020-10-13T22:48:14:867
0,022518	-0,062689	-0,029052	2020-10-13T22:48:14:886
0,047576	0,014234	-0,033648	2020-10-13T22:48:14:911
0,013134	0,106799	0,047607	2020-10-13T22:48:14:925
0,004542	0,017586	0,030450	2020-10-13T22:48:14:949
0,035436	-0,079365	0,004084	2020-10-13T22:48:14:970
0,018932	-0,017895	-0,036305	2020-10-13T22:48:14:989
-0,015619	0,068640	-0,014701	2020-10-13T22:48:15:006
0,016272	0,019152	-0,022100	2020-10-13T22:48:15:027
-0,089831	-0,104247	0,030520	2020-10-13T22:48:15:045
-0,058889	-0,008922	0,001780	2020-10-13T22:48:15:068
0,063450	-0,021266	-0,043833	2020-10-13T22:48:15:091
-0,042427	-0,045374	-0,060446	2020-10-13T22:48:15:109
-0,021130	0,022869	-0,048531	2020-10-13T22:48:15:126
-0,001216	-0,057681	0,023145	2020-10-13T22:48:15:149
0,003497	0,016171	0,068707	2020-10-13T22:48:15:165
0,003691	-0,000315	0,006387	2020-10-13T22:48:15:188
-0,014792	-0,052100	-0,017643	2020-10-13T22:48:15:208
-0,015710	-0,003394	-0,024855	2020-10-13T22:48:15:228
0,037792	-0,013724	-0,003395	2020-10-13T22:48:15:245
0,021618	0,034259	-0,055943	2020-10-13T22:48:15:273
-0,085902	0,007349	-0,019970	2020-10-13T22:48:15:287
0,025534	-0,080109	-0,017710	2020-10-13T22:48:15:310
0,037670	-0,006528	0,008909	2020-10-13T22:48:15:327
0,024091	0,059706	0,004168	2020-10-13T22:48:15:359
-0,071823	0,033637	0,049435	2020-10-13T22:48:15:366
0,027836	-0,095302	-0,044172	2020-10-13T22:48:15:391
-0,009700	-0,083784	-0,003220	2020-10-13T22:48:15:405
-0,016522	0,017510	0,001696	2020-10-13T22:48:15:426
-0,039106	0,015605	-0,000849	2020-10-13T22:48:15:450
0,104109	-0,030888	-0,000995	2020-10-13T22:48:15:470
0,009692	-0,092726	-0,029188	2020-10-13T22:48:15:497
0,028834	-0,016156	-0,005260	2020-10-13T22:48:15:511
0,010099	-0,018204	0,006818	2020-10-13T22:48:15:527
-0,041660	0,028289	-0,038978	2020-10-13T22:48:15:549
-0,068200	-0,016268	-0,044052	2020-10-13T22:48:15:566
0,033272	-0,023452	-0,005698	2020-10-13T22:48:15:588
0,023700	0,019618	0,011051	2020-10-13T22:48:15:605
0,057408	-0,083597	0,030284	2020-10-13T22:48:15:629
0,011284	-0,077345	-0,026820	2020-10-13T22:48:15:646
0,027027	0,050035	0,001861	2020-10-13T22:48:15:668
-0,018436	-0,062428	-0,065139	2020-10-13T22:48:15:689
0,015656	-0,013484	0,018741	2020-10-13T22:48:15:709
-0,030175	0,010655	-0,045837	2020-10-13T22:48:15:726
0,007487	0,073585	0,001856	2020-10-13T22:48:15:748
0,021432	-0,021337	-0,003094	2020-10-13T22:48:15:766
-0,030492	-0,012597	-0,022083	2020-10-13T22:48:15:789
0,033024	0,004969	0,044889	2020-10-13T22:48:15:806
-0,057701	0,012161	-0,007645	2020-10-13T22:48:15:828
-0,058161	-0,037368	-0,019787	2020-10-13T22:48:15:847
-0,027054	-0,054118	-0,024572	2020-10-13T22:48:15:869
-0,020341	0,000654	-0,017389	2020-10-13T22:48:15:887
-0,020341	-0,020881	-0,022175	2020-10-13T22:48:15:908
-0,006532	0,019449	0,018398	2020-10-13T22:48:15:929
0,005962	0,005303	0,015880	2020-10-13T22:48:15:949
-0,020348	-0,094241	-0,005721	2020-10-13T22:48:15:966
0,057247	-0,047959	0,001554	2020-10-13T22:48:15:989
0,028489	-0,039985	-0,029398	2020-10-13T22:48:16:006
-0,027831	-0,027153	0,028131	2020-10-13T22:48:16:029
0,021011	-0,063202	0,018616	2020-10-13T22:48:16:047
0,061689	-0,005774	-0,012491	2020-10-13T22:48:16:068
0,055803	-0,011026	0,021273	2020-10-13T22:48:16:089
0,046232	-0,075632	-0,055298	2020-10-13T22:48:16:115
-0,033180	-0,026446	0,028764	2020-10-13T22:48:16:126
0,005824	-0,036030	-0,050123	2020-10-13T22:48:16:150
0,027359	0,004648	0,000126	2020-10-13T22:48:16:172
-0,037409	-0,074670	0,007408	2020-10-13T22:48:16:193
-0,041198	0,010908	0,016675	2020-10-13T22:48:16:207
-0,010899	0,069636	-0,009997	2020-10-13T22:48:16:230
-0,017008	-0,043974	0,001973	2020-10-13T22:48:16:248
0,030848	-0,005689	0,018723	2020-10-13T22:48:16:277
0,058910	-0,019272	-0,071903	2020-10-13T22:48:16:289
0,012989	-0,028594	0,026237	2020-10-13T22:48:16:309
0,015240	-0,063132	0,007164	2020-10-13T22:48:16:327
-0,019141	0,045187	0,002111	2020-10-13T22:48:16:369
0,009573	0,059544	-0,036174	2020-10-13T22:48:16:371
0,008657	-0,016555	-0,021971	2020-10-13T22:48:16:389
-0,003249	-0,016278	-0,012389	2020-10-13T22:48:16:408
-0,003249	0,062685	-0,043495	2020-10-13T22:48:16:431
0,001511	-0,043221	-0,017311	2020-10-13T22:48:16:448
-0,063095	-0,069542	-0,057989	2020-10-13T22:48:16:469
-0,015947	-0,033402	0,016336	2020-10-13T22:48:16:487
-0,004062	0,013695	0,009237	2020-10-13T22:48:16:510
0,034437	-0,002254	0,028296	2020-10-13T22:48:16:527
0,028262	0,042461	0,004401	2020-10-13T22:48:16:549
-0,035195	0,054092	-0,024377	2020-10-13T22:48:16:567
-0,021421	-0,070971	-0,072459	2020-10-13T22:48:16:591
-0,021524	-0,063240	-0,038601	2020-10-13T22:48:16:607
-0,011953	0,003759	0,021219	2020-10-13T22:48:16:629
0,034228	-0,014290	-0,012376	2020-10-13T22:48:16:651
0,019669	0,041332	0,018659	2020-10-13T22:48:16:669
-0,002454	-0,046004	-0,067618	2020-10-13T22:48:16:687
-0,002896	-0,060755	0,001886	2020-10-13T22:48:16:709
0,038179	-0,063310	0,004362	2020-10-13T22:48:16:727
-0,018347	-0,054425	-0,007451	2020-10-13T22:48:16:750
-0,000693	-0,036138	-0,043316	2020-10-13T22:48:16:768
-0,063199	0,024590	-0,000189	2020-10-13T22:48:16:789
-0,030313	0,004591	0,013814	2020-10-13T22:48:16:810
-0,012136	0,014133	0,037337	2020-10-13T22:48:16:831
0,024315	0,002173	-0,015217	2020-10-13T22:48:16:848
0,026708	0,006959	0,008712	2020-10-13T22:48:16:870
-0,002402	-0,007808	0,018400	2020-10-13T22:48:16:896
-0,038400	-0,010973	-0,020031	2020-10-13T22:48:16:916
-0,019257	-0,039687	0,008683	2020-10-13T22:48:16:928
0,046737	-0,031582	-0,058342	2020-10-13T22:48:16:950
-0,015607	0,019844	-0,010309	2020-10-13T22:48:16:971
-0,046974	-0,028224	-0,015208	2020-10-13T22:48:16:991
0,039765	-0,012005	0,003998	2020-10-13T22:48:17:008
0,031298	-0,007757	-0,015107	2020-10-13T22:48:17:030
-0,045604	-0,025951	0,039870	2020-10-13T22:48:17:051
0,008215	-0,096096	-0,005348	2020-10-13T22:48:17:072
-0,024020	0,009041	-0,029455	2020-10-13T22:48:17:102
0,066020	0,023239	-0,003091	2020-10-13T22:48:17:109
0,000904	0,005511	0,032782	2020-10-13T22:48:17:132
0,048760	0,024654	-0,048574	2020-10-13T22:48:17:151
0,003110	-0,033167	-0,012681	2020-10-13T22:48:17:167
-0,042443	0,055418	-0,046173	2020-10-13T22:48:17:190
-0,026464	0,008900	0,018198	2020-10-13T22:48:17:207
-0,044539	-0,061183	-0,024956	2020-10-13T22:48:17:230
0,000725	-0,015577	0,039657	2020-10-13T22:48:17:248
0,079283	-0,017095	0,015788	2020-10-13T22:48:17:269
-0,003168	0,009973	-0,000757	2020-10-13T22:48:17:288
0,042296	0,005188	-0,060578	2020-10-13T22:48:17:310
-0,045932	0,011720	0,016065	2020-10-13T22:48:17:328
0,033254	0,034310	-0,020016	2020-10-13T22:48:17:349
0,003124	0,065169	0,023006	2020-10-13T22:48:17:370
-0,003877	-0,060813	-0,010677	2020-10-13T22:48:17:391
-0,011108	-0,046356	-0,039277	2020-10-13T22:48:17:412
0,015585	0,033412	-0,089510	2020-10-13T22:48:17:431
0,006250	-0,008882	0,013193	2020-10-13T22:48:17:448
0,004062	-0,067111	-0,010781	2020-10-13T22:48:17:470
0,057256	0,015470	0,013174	2020-10-13T22:48:17:488
-0,037455	0,074062	-0,039558	2020-10-13T22:48:17:509
-0,035571	-0,078922	-0,035067	2020-10-13T22:48:17:528
0,020997	-0,032681	-0,054147	2020-10-13T22:48:17:552
0,054999	0,052155	-0,018323	2020-10-13T22:48:17:569
-0,006613	-0,035009	-0,054185	2020-10-13T22:48:17:590
0,010137	-0,046973	-0,003936	2020-10-13T22:48:17:610
0,108046	0,026148	-0,075652	2020-10-13T22:48:17:631
-0,030197	0,040311	0,001014	2020-10-13T22:48:17:648
0,043509	0,035285	0,022341	2020-10-13T22:48:17:670
0,002719	0,012059	0,000857	2020-10-13T22:48:17:688
-0,061690	-0,016040	0,039056	2020-10-13T22:48:17:711
-0,012556	0,004325	-0,011424	2020-10-13T22:48:17:729
0,004193	-0,108137	0,012505	2020-10-13T22:48:17:749
0,007663	-0,030892	-0,025482	2020-10-13T22:48:17:768
-0,045544	0,010930	-0,015834	2020-10-13T22:48:17:792
0,026637	0,011098	0,003077	2020-10-13T22:48:17:808
0,055903	-0,054073	-0,020786	2020-10-13T22:48:17:830
0,040473	-0,032550	0,010816	2020-10-13T22:48:17:855
0,009523	0,040421	-0,008491	2020-10-13T22:48:17:871
0,025988	0,048641	-0,003851	2020-10-13T22:48:17:889
-0,086474	-0,004001	0,005721	2020-10-13T22:48:17:910
-0,008133	-0,075173	-0,080601	2020-10-13T22:48:17:930
-0,006266	-0,042662	0,020086	2020-10-13T22:48:17:950
0,046252	-0,007195	-0,030071	2020-10-13T22:48:17:970
0,014281	-0,032826	-0,041845	2020-10-13T22:48:17:999
0,044640	0,027971	-0,048944	2020-10-13T22:48:18:010
-0,048142	0,011486	0,027627	2020-10-13T22:48:18:031
-0,016957	-0,068634	-0,056295	2020-10-13T22:48:18:051
0,024281	-0,032521	-0,029888	2020-10-13T22:48:18:071
-0,028275	0,060469	-0,053836	2020-10-13T22:48:18:120
-0,008066	0,060827	0,000634	2020-10-13T22:48:18:121
0,085391	0,001428	-0,003904	2020-10-13T22:48:18:128
0,001230	-0,087900	0,015429	2020-10-13T22:48:18:149
-0,018502	-0,004000	0,003280	2020-10-13T22:48:18:176
0,012794	0,023574	0,005513	2020-10-13T22:48:18:191
-0,001879	0,006424	0,019869	2020-10-13T22:48:18:209
-0,034538	-0,068719	-0,047009	2020-10-13T22:48:18:231
0,003747	0,022208	0,017596	2020-10-13T22:48:18:249
0,020185	-0,046253	-0,025521	2020-10-13T22:48:18:272
0,014768	0,034198	0,012858	2020-10-13T22:48:18:289
0,026401	-0,018390	-0,051830	2020-10-13T22:48:18:310
-0,041303	-0,065986	-0,018285	2020-10-13T22:48:18:331
0,054109	-0,032397	0,029572	2020-10-13T22:48:18:351
-0,013041	-0,055693	0,027215	2020-10-13T22:48:18:370
0,025244	-0,015015	0,000895	2020-10-13T22:48:18:391
0,022869	-0,054611	-0,049413	2020-10-13T22:48:18:409
0,007998	-0,046412	0,058333	2020-10-13T22:48:18:431
0,039385	-0,026559	-0,027792	2020-10-13T22:48:18:449
-0,033886	-0,021968	-0,013370	2020-10-13T22:48:18:471
-0,005196	0,051513	0,008019	2020-10-13T22:48:18:489
0,032551	0,070642	-0,016205	2020-10-13T22:48:18:512
0,024256	0,022937	0,048263	2020-10-13T22:48:18:529
-0,022381	-0,045497	0,033904	2020-10-13T22:48:18:551
0,016045	-0,002721	-0,018658	2020-10-13T22:48:18:572
0,043435	-0,055856	0,012594	2020-10-13T22:48:18:592
-0,013490	-0,000267	0,022163	2020-10-13T22:48:18:609
-0,027846	-0,050516	0,019771	2020-10-13T22:48:18:631
-0,065290	-0,030400	0,010301	2020-10-13T22:48:18:649
0,027671	0,017734	0,045986	2020-10-13T22:48:18:672
-0,051642	-0,025151	-0,037839	2020-10-13T22:48:18:690
0,017745	-0,072205	0,002756	2020-10-13T22:48:18:711
-0,021824	-0,007397	0,038821	2020-10-13T22:48:18:729
-0,020263	-0,035209	-0,001996	2020-10-13T22:48:18:752
0,041942	-0,015019	-0,061990	2020-10-13T22:48:18:770
0,002731	0,047526	0,057610	2020-10-13T22:48:18:791
-0,031636	-0,045978	0,009472	2020-10-13T22:48:18:812
-0,019995	-0,078073	-0,014499	2020-10-13T22:48:18:834
-0,000704	-0,002835	0,026317	2020-10-13T22:48:18:849
0,030943	0,075001	-0,000077	2020-10-13T22:48:18:874
-0,015134	-0,001968	-0,014621	2020-10-13T22:48:18:891
0,043155	-0,026064	0,002081	2020-10-13T22:48:18:913
-0,052140	0,001490	0,014192	2020-10-13T22:48:18:953
0,034563	-0,047163	0,004445	2020-10-13T22:48:18:954
0,004611	0,001962	0,028484	2020-10-13T22:48:18:970
0,040503	-0,002824	-0,021765	2020-10-13T22:48:18:995
-0,055545	-0,020870	-0,031158	2020-10-13T22:48:19:009
0,051811	-0,012142	-0,031194	2020-10-13T22:48:19:032
0,010936	0,028801	0,009621	2020-10-13T22:48:19:054
-0,046950	0,000316	-0,016768	2020-10-13T22:48:19:114
0,005437	-0,024085	0,004643	2020-10-13T22:48:19:115
-0,030519	-0,112250	-0,014481	2020-10-13T22:48:19:115
-0,038907	0,014481	0,007195	2020-10-13T22:48:19:129
0,024546	-0,011291	-0,007299	2020-10-13T22:48:19:153
-0,028565	-0,032554	0,081153	2020-10-13T22:48:19:168
-0,026172	-0,032554	0,002191	2020-10-13T22:48:19:191
-0,009878	0,008532	-0,014635	2020-10-13T22:48:19:209
-0,001794	-0,038735	-0,038681	2020-10-13T22:48:19:233
-0,020429	0,045325	0,016342	2020-10-13T22:48:19:249
0,026799	0,031662	0,011303	2020-10-13T22:48:19:271
0,042073	-0,070711	-0,015026	2020-10-13T22:48:19:293
-0,030595	-0,064354	0,002045	2020-10-13T22:48:19:312
0,063484	0,005165	-0,031386	2020-10-13T22:48:19:330
0,041594	-0,010831	0,004569	2020-10-13T22:48:19:352
0,008593	0,000638	0,004640	2020-10-13T22:48:19:370
-0,023638	-0,071072	0,035805	2020-10-13T22:48:19:393
0,034773	-0,032266	-0,045478	2020-10-13T22:48:19:411
-0,033255	-0,018199	0,028737	2020-10-13T22:48:19:431
0,002403	-0,054619	-0,002496	2020-10-13T22:48:19:449
-0,069693	0,038515	0,004790	2020-10-13T22:48:19:472
-0,002054	0,036193	0,023690	2020-10-13T22:48:19:490
0,019120	-0,059357	-0,002707	2020-10-13T22:48:19:511
0,059753	-0,007692	-0,043109	2020-10-13T22:48:19:532
0,029895	-0,073554	-0,023747	2020-10-13T22:48:19:553
-0,026440	0,041309	-0,030761	2020-10-13T22:48:19:570
0,064390	-0,055790	-0,019068	2020-10-13T22:48:19:592
0,013487	-0,039285	-0,035579	2020-10-13T22:48:19:610
-0,020864	0,069889	-0,025903	2020-10-13T22:48:19:633
-0,014986	0,060841	0,016935	2020-10-13T22:48:19:650
0,038580	-0,038243	-0,004786	2020-10-13T22:48:19:675
-0,018877	-0,019261	-0,004576	2020-10-13T22:48:19:690
0,019994	0,003126	-0,040460	2020-10-13T22:48:19:713
0,040733	-0,043151	-0,033277	2020-10-13T22:48:19:731
-0,039498	-0,030184	-0,016423	2020-10-13T22:48:19:751
0,039875	-0,001540	-0,018956	2020-10-13T22:48:19:771
0,009997	-0,007605	-0,021345	2020-10-13T22:48:19:793
0,013711	-0,066538	-0,052261	2020-10-13T22:48:19:810
-0,022181	-0,033039	0,031487	2020-10-13T22:48:19:831
0,012597	0,023192	0,000368	2020-10-13T22:48:19:856
0,009462	-0,046820	0,005164	2020-10-13T22:48:19:874
0,026212	0,017786	-0,037907	2020-10-13T22:48:19:889
-0,006327	-0,041643	0,038649	2020-10-13T22:48:19:916
0,011711	0,034696	-0,004495	2020-10-13T22:48:19:929
-0,038229	-0,037937	0,040818	2020-10-13T22:48:19:952
-0,041535	-0,038290	0,009725	2020-10-13T22:48:19:971
0,022656	-0,020218	-0,016638	2020-10-13T22:48:19:991
-0,047262	-0,061755	-0,042969	2020-10-13T22:48:20:011
0,006600	-0,089412	0,033790	2020-10-13T22:48:20:033
-0,000579	-0,000877	-0,016460	2020-10-13T22:48:20:050
-0,007580	0,069744	-0,002161	2020-10-13T22:48:20:073
0,019877	-0,030698	-0,035699	2020-10-13T22:48:20:091
-0,044935	-0,018040	0,045581	2020-10-13T22:48:20:115
0,009579	0,045831	-0,009561	2020-10-13T22:48:20:131
0,016758	-0,049882	-0,019132	2020-10-13T22:48:20:152
-0,027553	0,002832	-0,033325	2020-10-13T22:48:20:170
-0,062344	0,031093	-0,002291	2020-10-13T22:48:20:194
0,021933	-0,036102	-0,012113	2020-10-13T22:48:20:211
-0,004388	-0,040888	-0,014505	2020-10-13T22:48:20:232
0,019125	0,056968	-0,069429	2020-10-13T22:48:20:252
-0,003658	0,046379	0,021415	2020-10-13T22:48:20:274
0,023587	-0,014983	-0,041006	2020-10-13T22:48:20:291
0,003555	-0,082337	-0,021835	2020-10-13T22:48:20:313
0,024890	-0,058015	-0,021710	2020-10-13T22:48:20:331
-0,012196	0,020161	0,014307	2020-10-13T22:48:20:353
-0,039532	-0,022886	0,004570	2020-10-13T22:48:20:375
-0,057270	0,066194	-0,002653	2020-10-13T22:48:20:394
0,049021	-0,091203	-0,034099	2020-10-13T22:48:20:412
-0,032542	-0,020076	0,009267	2020-10-13T22:48:20:452
0,016752	-0,005142	-0,055385	2020-10-13T22:48:20:452
-0,034279	0,004178	-0,000322	2020-10-13T22:48:20:473
0,012736	-0,031718	0,028316	2020-10-13T22:48:20:495
0,025928	-0,029869	-0,007442	2020-10-13T22:48:20:513
-0,045856	0,010809	-0,014622	2020-10-13T22:48:20:529
0,000690	-0,010450	0,006660	2020-10-13T22:48:20:555
-0,008805	-0,077099	-0,036300	2020-10-13T22:48:20:571
0,014468	0,030607	0,009096	2020-10-13T22:48:20:594
-0,016067	-0,039805	-0,029160	2020-10-13T22:48:20:611
-0,072025	-0,033989	0,001808	2020-10-13T22:48:20:637
0,021295	-0,062703	0,023344	2020-10-13T22:48:20:654
0,005931	0,020983	-0,021976	2020-10-13T22:48:20:675
-0,012900	0,027814	-0,012534	2020-10-13T22:48:20:696
0,014392	-0,043978	-0,055751	2020-10-13T22:48:20:712
0,025889	0,026549	-0,046109	2020-10-13T22:48:20:732
0,017558	-0,035566	0,006492	2020-10-13T22:48:20:754
0,084024	0,001088	-0,007808	2020-10-13T22:48:20:771
-0,051587	-0,006278	-0,019589	2020-10-13T22:48:20:793
0,020333	-0,025716	-0,012544	2020-10-13T22:48:20:811
-0,010838	0,016952	0,016156	2020-10-13T22:48:20:834
0,010937	-0,077986	0,042498	2020-10-13T22:48:20:852
0,042043	-0,039701	-0,031679	2020-10-13T22:48:20:873
0,010417	-0,068670	-0,074522	2020-10-13T22:48:20:894
-0,022052	0,051841	-0,050393	2020-10-13T22:48:20:914
0,016801	-0,003850	0,023631	2020-10-13T22:48:20:931
0,026972	-0,048455	-0,043247	2020-10-13T22:48:20:953
0,026362	-0,006368	-0,004658	2020-10-13T22:48:20:973
0,012665	0,012497	-0,035691	2020-10-13T22:48:20:995
-0,005544	0,042787	0,016770	2020-10-13T22:48:21:011
0,038888	-0,006673	0,016539	2020-10-13T22:48:21:033
-0,041704	-0,052449	0,014212	2020-10-13T22:48:21:051
-0,014056	-0,002366	-0,007296	2020-10-13T22:48:21:079
-0,028445	-0,024878	-0,100771	2020-10-13T22:48:21:104
0,014626	0,006229	0,002121	2020-10-13T22:48:21:113
-0,018800	0,004002	-0,029082	2020-10-13T22:48:21:131
0,049838	-0,033826	-0,007704	2020-10-13T22:48:21:154
0,067448	-0,029225	0,009111	2020-10-13T22:48:21:172
0,054710	-0,052385	0,052366	2020-10-13T22:48:21:193
-0,016683	-0,004909	-0,024024	2020-10-13T22:48:21:217
-0,004719	-0,028837	0,021440	2020-10-13T22:48:21:234
0,019161	-0,010689	-0,019178	2020-10-13T22:48:21:251
-0,010927	0,016147	-0,040625	2020-10-13T22:48:21:277
-0,025484	-0,044112	-0,057384	2020-10-13T22:48:21:293
-0,068416	-0,036342	-0,021374	2020-10-13T22:48:21:315
-0,024742	-0,060503	-0,033393	2020-10-13T22:48:21:348
-0,079064	0,021292	0,007370	2020-10-13T22:48:21:355
-0,022759	-0,011218	-0,043116	2020-10-13T22:48:21:372
-0,007704	-0,020478	-0,012029	2020-10-13T22:48:21:396
-0,000653	-0,031185	0,011959	2020-10-13T22:48:21:415
-0,075135	0,000948	-0,031054	2020-10-13T22:48:21:433
0,021837	-0,090774	-0,009727	2020-10-13T22:48:21:454
0,012906	0,011237	-0,007084	2020-10-13T22:48:21:476
0,059485	0,022928	-0,040521	2020-10-13T22:48:21:500
0,014495	-0,055944	-0,007040	2020-10-13T22:48:21:514
-0,003586	0,076661	-0,016924	2020-10-13T22:48:21:532
0,003592	0,028805	-0,019317	2020-10-13T22:48:21:558
-0,025600	0,010194	0,052413	2020-10-13T22:48:21:572
0,018212	0,003030	-0,000263	2020-10-13T22:48:21:594
-0,037868	-0,108452	-0,023900	2020-10-13T22:48:21:612
0,026738	0,042295	-0,009543	2020-10-13T22:48:21:636
0,066106	0,017455	-0,002439	2020-10-13T22:48:21:652
-0,082555	-0,034727	0,002396	2020-10-13T22:48:21:674
-0,020004	-0,010419	0,023700	2020-10-13T22:48:21:694
-0,002354	0,004015	-0,005054	2020-10-13T22:48:21:715
0,030871	-0,029363	-0,038535	2020-10-13T22:48:21:732
0,064211	-0,022548	-0,083793	2020-10-13T22:48:21:755
-0,003671	-0,000838	-0,002270	2020-10-13T22:48:21:772
-0,055406	0,038770	-0,047822	2020-10-13T22:48:21:795
0,031693	-0,093358	-0,026570	2020-10-13T22:48:21:812
-0,025620	-0,050466	-0,035839	2020-10-13T22:48:21:834
-0,018407	0,004412	0,014286	2020-10-13T22:48:21:852
-0,023193	0,045090	0,004715	2020-10-13T22:48:21:875
0,036297	-0,047862	-0,062568	2020-10-13T22:48:21:893
0,017910	-0,032552	-0,033735	2020-10-13T22:48:21:914
-0,046905	-0,025413	-0,069619	2020-10-13T22:48:21:936
0,025111	0,024440	0,001924	2020-10-13T22:48:21:957
-0,032250	-0,019177	-0,010180	2020-10-13T22:48:21:973
-0,000315	-0,078953	-0,050797	2020-10-13T22:48:21:995
0,006635	-0,023677	-0,000526	2020-10-13T22:48:22:031
0,033672	-0,007497	-0,033970	2020-10-13T22:48:22:052
-0,018970	0,018824	-0,031577	2020-10-13T22:48:22:190
0,059484	-0,024842	-0,010255	2020-10-13T22:48:22:191
-0,000064	0,029925	0,032907	2020-10-13T22:48:22:222
0,012333	-0,032030	-0,007880	2020-10-13T22:48:22:222
0,028077	-0,049356	-0,019722	2020-10-13T22:48:22:225
-0,016807	0,032261	-0,017133	2020-10-13T22:48:22:226
0,000492	-0,043165	-0,007639	2020-10-13T22:48:22:318
-0,044376	0,006095	-0,021967	2020-10-13T22:48:22:346
-0,067242	-0,027120	-0,022219	2020-10-13T22:48:22:347
-0,049254	-0,043812	-0,041531	2020-10-13T22:48:22:347
0,008162	-0,066590	-0,003309	2020-10-13T22:48:22:348
0,039060	-0,046001	-0,046310	2020-10-13T22:48:22:348
0,002010	0,009475	-0,046337	2020-10-13T22:48:22:348
-0,002775	-0,007275	-0,003266	2020-10-13T22:48:22:349
0,038129	0,011519	-0,043970	2020-10-13T22:48:22:349
0,008161	-0,000084	0,034969	2020-10-13T22:48:22:385
-0,011977	-0,017049	0,034797	2020-10-13T22:48:22:385
0,048164	0,004680	-0,010772	2020-10-13T22:48:22:428
-0,014049	-0,007284	0,049048	2020-10-13T22:48:22:434
0,032956	0,003793	0,020226	2020-10-13T22:48:22:437
-0,016644	0,031915	-0,006037	2020-10-13T22:48:22:453
0,017819	-0,041713	-0,025298	2020-10-13T22:48:22:482
0,035629	-0,035501	-0,027572	2020-10-13T22:48:22:491
0,049986	0,002784	-0,006037	2020-10-13T22:48:22:513
0,008679	-0,011342	0,010866	2020-10-13T22:48:22:531
0,053588	-0,089469	-0,020182	2020-10-13T22:48:22:554
-0,016696	-0,009658	0,027849	2020-10-13T22:48:22:573
0,081929	0,004365	-0,026996	2020-10-13T22:48:22:597
-0,011392	0,011544	-0,046138	2020-10-13T22:48:22:613
0,007532	-0,084110	0,037622	2020-10-13T22:48:22:634
0,016634	-0,082956	-0,017244	2020-10-13T22:48:22:656
-0,019296	0,029376	-0,002791	2020-10-13T22:48:22:679
-0,091961	0,050383	-0,046055	2020-10-13T22:48:22:695
0,003065	-0,030921	-0,027204	2020-10-13T22:48:22:716
0,047395	-0,028993	-0,019893	2020-10-13T22:48:22:733
-0,033410	-0,007571	0,023262	2020-10-13T22:48:22:756
0,067017	-0,042731	-0,031952	2020-10-13T22:48:22:773
-0,027340	-0,036382	-0,014976	2020-10-13T22:48:22:795
-0,019359	-0,013053	-0,010155	2020-10-13T22:48:22:813
-0,006671	-0,042057	-0,012593	2020-10-13T22:48:22:836
0,051477	0,008764	-0,017390	2020-10-13T22:48:22:853
0,068201	0,012640	0,006617	2020-10-13T22:48:22:875
-0,028857	-0,023313	-0,029099	2020-10-13T22:48:22:895
-0,059400	-0,054920	-0,017084	2020-10-13T22:48:22:920
-0,052493	0,027269	-0,019445	2020-10-13T22:48:22:934
-0,020305	-0,007815	-0,005320	2020-10-13T22:48:22:956
-0,001162	-0,050886	0,023396	2020-10-13T22:48:22:975
-0,013686	0,031149	0,002014	2020-10-13T22:48:23:001
-0,035012	-0,097491	-0,031571	2020-10-13T22:48:23:015
-0,007263	-0,034066	-0,021918	2020-10-13T22:48:23:035
-0,043370	0,020495	-0,010077	2020-10-13T22:48:23:057
-0,019442	-0,010612	0,001887	2020-10-13T22:48:23:077
0,029625	0,015062	-0,031696	2020-10-13T22:48:23:107
0,042757	0,029901	0,013745	2020-10-13T22:48:23:117
0,026142	-0,007593	-0,038857	2020-10-13T22:48:23:137
0,046801	-0,017025	0,042661	2020-10-13T22:48:23:165
0,042516	-0,016918	-0,019458	2020-10-13T22:48:23:173
-0,025582	-0,050221	-0,038554	2020-10-13T22:48:23:196
-0,025582	0,004814	0,038015	2020-10-13T22:48:23:214
-0,004836	0,042705	-0,019505	2020-10-13T22:48:23:238
-0,008093	-0,040946	-0,007594	2020-10-13T22:48:23:253
-0,058273	-0,053914	-0,019505	2020-10-13T22:48:23:274
-0,005050	0,033189	-0,007641	2020-10-13T22:48:23:294
-0,003501	0,059468	-0,019880	2020-10-13T22:48:23:316
-0,016365	0,025514	-0,036915	2020-10-13T22:48:23:333
-0,065890	-0,011989	-0,008300	2020-10-13T22:48:23:355
0,037194	-0,030377	-0,039497	2020-10-13T22:48:23:375
0,029924	0,030937	0,010929	2020-10-13T22:48:23:396
0,008720	0,012584	0,015746	2020-10-13T22:48:23:413
-0,034176	0,035337	0,013297	2020-10-13T22:48:23:436
0,023283	-0,047120	-0,006101	2020-10-13T22:48:23:467
0,062798	-0,001213	-0,022665	2020-10-13T22:48:23:477
-0,001808	-0,022748	-0,013094	2020-10-13T22:48:23:523
0,052886	-0,040302	-0,010507	2020-10-13T22:48:23:524
-0,017798	0,030990	-0,032210	2020-10-13T22:48:23:534
-0,008644	-0,125883	-0,022384	2020-10-13T22:48:23:557
0,008106	-0,020599	-0,055883	2020-10-13T22:48:23:573
-0,052245	0,001387	0,011160	2020-10-13T22:48:23:595
0,036899	-0,031213	-0,024936	2020-10-13T22:48:23:619
-0,060128	0,028685	0,051699	2020-10-13T22:48:23:636
-0,013706	-0,047628	-0,034687	2020-10-13T22:48:23:653
0,017704	-0,024016	-0,010689	2020-10-13T22:48:23:675
0,040055	0,015879	-0,051228	2020-10-13T22:48:23:694
0,020394	-0,025050	-0,036742	2020-10-13T22:48:23:719
-0,046119	-0,094856	-0,005465	2020-10-13T22:48:23:733
-0,092231	0,052856	-0,024519	2020-10-13T22:48:23:755
0,015341	-0,051111	0,027759	2020-10-13T22:48:23:776
0,022014	0,050696	-0,010449	2020-10-13T22:48:23:799
-0,039280	-0,040572	-0,046384	2020-10-13T22:48:23:817
-0,024631	-0,068403	-0,048656	2020-10-13T22:48:23:836
-0,022213	0,033771	-0,026954	2020-10-13T22:48:23:857
0,021517	-0,030657	-0,062969	2020-10-13T22:48:23:876
0,035467	0,031978	-0,053346	2020-10-13T22:48:23:893
-0,059301	-0,057302	-0,005581	2020-10-13T22:48:23:915
-0,038163	0,049061	-0,051291	2020-10-13T22:48:23:937
-0,069270	0,037097	-0,017791	2020-10-13T22:48:23:966
-0,060695	0,051414	-0,051567	2020-10-13T22:48:23:974
0,020761	-0,054143	0,027173	2020-10-13T22:48:23:995
-0,004755	0,032222	-0,018111	2020-10-13T22:48:24:016
-0,002136	-0,060924	0,022468	2020-10-13T22:48:24:036
0,005240	0,036749	-0,003784	2020-10-13T22:48:24:053
0,024274	0,000358	-0,027824	2020-10-13T22:48:24:080
0,028023	0,028269	0,012869	2020-10-13T22:48:24:101
0,009446	-0,057987	-0,006193	2020-10-13T22:48:24:119
0,009446	-0,031666	-0,027728	2020-10-13T22:48:24:134
0,011059	0,007599	-0,032437	2020-10-13T22:48:24:156
0,036868	-0,046033	-0,053988	2020-10-13T22:48:24:174
0,075480	-0,042049	-0,032292	2020-10-13T22:48:24:197
0,046109	0,025704	-0,058439	2020-10-13T22:48:24:214
-0,039968	-0,049965	-0,067960	2020-10-13T22:48:24:236
-0,062210	-0,095844	-0,048523	2020-10-13T22:48:24:254
0,055039	-0,012095	-0,050917	2020-10-13T22:48:24:277
-0,035490	-0,010522	0,004179	2020-10-13T22:48:24:295
0,010504	-0,004720	-0,007979	2020-10-13T22:48:24:316
-0,040408	-0,065009	0,023139	2020-10-13T22:48:24:338
-0,000034	-0,048628	-0,010377	2020-10-13T22:48:24:357
0,021996	0,052354	-0,063023	2020-10-13T22:48:24:374
0,006542	-0,002072	0,025393	2020-10-13T22:48:24:397
0,022590	-0,050453	-0,029632	2020-10-13T22:48:24:415
0,023738	-0,046229	-0,034282	2020-10-13T22:48:24:437
0,006161	0,067199	0,008867	2020-10-13T22:48:24:455
0,077824	-0,014062	-0,017640	2020-10-13T22:48:24:477
-0,016087	0,030566	-0,058209	2020-10-13T22:48:24:495
-0,005360	0,034844	0,022975	2020-10-13T22:48:24:517
0,012364	-0,020694	-0,020259	2020-10-13T22:48:24:537
-0,024232	-0,018149	-0,010648	2020-10-13T22:48:24:558
-0,000159	-0,083348	-0,005797	2020-10-13T22:48:24:579
-0,003921	0,003101	-0,039025	2020-10-13T22:48:24:599
0,018740	-0,040925	-0,034121	2020-10-13T22:48:24:622
0,022493	0,017068	-0,067645	2020-10-13T22:48:24:637
0,060337	-0,016295	-0,010076	2020-10-13T22:48:24:654
0,043593	0,009498	-0,009981	2020-10-13T22:48:24:680
0,000522	0,016676	-0,005196	2020-10-13T22:48:24:695
0,014539	-0,039012	0,021116	2020-10-13T22:48:24:716
0,057737	0,016126	-0,017152	2020-10-13T22:48:24:734
-0,029666	0,017395	-0,036394	2020-10-13T22:48:24:764
-0,000952	-0,073532	-0,026823	2020-10-13T22:48:24:775
0,066697	-0,008099	-0,002776	2020-10-13T22:48:24:798
0,035591	0,039757	-0,005170	2020-10-13T22:48:24:816
-0,017719	-0,012719	-0,019678	2020-10-13T22:48:24:838
-0,011930	-0,041528	-0,002981	2020-10-13T22:48:24:856
0,066991	-0,003833	0,032986	2020-10-13T22:48:24:877
-0,007848	0,050390	0,011567	2020-10-13T22:48:24:896
0,020919	-0,035554	-0,031593	2020-10-13T22:48:24:918
0,012719	-0,008666	0,040263	2020-10-13T22:48:24:936
-0,049494	-0,003880	-0,031521	2020-10-13T22:48:24:957
-0,038771	-0,008192	0,011395	2020-10-13T22:48:24:976
-0,033985	-0,008192	-0,002962	2020-10-13T22:48:24:999
-0,001414	-0,103911	0,018501	2020-10-13T22:48:25:015
0,020908	0,091092	-0,017287	2020-10-13T22:48:25:037
0,017364	-0,028854	-0,027004	2020-10-13T22:48:25:059
0,011319	-0,051506	-0,007750	2020-10-13T22:48:25:088
0,005595	-0,058853	-0,050687	2020-10-13T22:48:25:101
-0,006928	-0,015887	0,021217	2020-10-13T22:48:25:117
0,041032	-0,003548	0,009264	2020-10-13T22:48:25:136
-0,028327	-0,084274	-0,019309	2020-10-13T22:48:25:160
0,024799	-0,007739	-0,004784	2020-10-13T22:48:25:177
-0,003548	0,045606	0,014175	2020-10-13T22:48:25:201
0,003631	0,009714	-0,040859	2020-10-13T22:48:25:216
-0,035498	-0,006132	0,052324	2020-10-13T22:48:25:245
-0,004392	-0,097059	0,009254	2020-10-13T22:48:25:260
0,012601	-0,018703	-0,016911	2020-10-13T22:48:25:277
-0,023731	0,024210	0,002248	2020-10-13T22:48:25:303
0,016024	-0,011768	-0,031425	2020-10-13T22:48:25:319
-0,026810	-0,008119	-0,021911	2020-10-13T22:48:25:335
-0,050557	-0,005147	0,023355	2020-10-13T22:48:25:359
-0,028167	-0,027759	-0,022309	2020-10-13T22:48:25:377
0,033181	-0,014837	-0,041488	2020-10-13T22:48:25:398
0,005873	0,047204	-0,000769	2020-10-13T22:48:25:418
0,075399	-0,034790	-0,022431	2020-10-13T22:48:25:439
-0,012371	-0,006288	0,001779	2020-10-13T22:48:25:456
0,056956	-0,017434	0,020957	2020-10-13T22:48:25:479
-0,084331	0,047277	-0,007630	2020-10-13T22:48:25:500
-0,041651	-0,045412	-0,005638	2020-10-13T22:48:25:517
0,046884	-0,059769	-0,027173	2020-10-13T22:48:25:538
0,022954	0,022018	0,028090	2020-10-13T22:48:25:558
-0,018495	0,079977	-0,043732	2020-10-13T22:48:25:576
-0,073144	-0,026873	-0,041514	2020-10-13T22:48:25:598
0,001648	-0,080206	-0,060736	2020-10-13T22:48:25:616
0,013249	0,021219	-0,029480	2020-10-13T22:48:25:638
-0,037434	0,016866	-0,000822	2020-10-13T22:48:25:656
0,024143	-0,063187	-0,046413	2020-10-13T22:48:25:677
-0,056331	0,006628	-0,027086	2020-10-13T22:48:25:696
0,004501	-0,014267	-0,036891	2020-10-13T22:48:25:719
-0,049306	-0,034851	-0,010687	2020-10-13T22:48:25:736
-0,000432	0,001551	-0,034757	2020-10-13T22:48:25:758
0,021679	-0,020460	-0,056339	2020-10-13T22:48:25:778
0,049093	-0,019493	-0,044275	2020-10-13T22:48:25:799
-0,029753	-0,057669	-0,048946	2020-10-13T22:48:25:817
0,001155	0,057574	-0,003572	2020-10-13T22:48:25:838
0,000495	-0,027107	0,012869	2020-10-13T22:48:25:867
0,011111	0,020467	0,031951	2020-10-13T22:48:25:879
0,017425	-0,083491	-0,047013	2020-10-13T22:48:25:897
0,013343	-0,060479	-0,049173	2020-10-13T22:48:25:918
-0,020824	-0,034497	-0,017954	2020-10-13T22:48:25:936
-0,050154	-0,024490	-0,013236	2020-10-13T22:48:25:959
-0,002439	-0,006866	-0,068342	2020-10-13T22:48:25:976
-0,009911	-0,035437	-0,022859	2020-10-13T22:48:25:998
-0,009138	0,039410	0,058487	2020-10-13T22:48:26:022
-0,005872	-0,104398	-0,023015	2020-10-13T22:48:26:038
0,018127	-0,050859	-0,005832	2020-10-13T22:48:26:057
-0,005801	-0,074787	-0,032152	2020-10-13T22:48:26:113
-0,023168	-0,024689	-0,058255	2020-10-13T22:48:26:123
-0,006572	-0,006848	-0,027308	2020-10-13T22:48:26:124
0,089141	0,007509	-0,005773	2020-10-13T22:48:26:136
0,037161	0,019550	-0,055922	2020-10-13T22:48:26:157
-0,003559	-0,042130	-0,053390	2020-10-13T22:48:26:176
-0,027488	-0,078022	0,013609	2020-10-13T22:48:26:199
-0,007074	0,016365	-0,058095	2020-10-13T22:48:26:216
0,002690	-0,037729	-0,005522	2020-10-13T22:48:26:238
-0,067315	-0,002031	-0,003123	2020-10-13T22:48:26:262
-0,021851	-0,021173	-0,017481	2020-10-13T22:48:26:280
-0,013864	0,036385	0,001630	2020-10-13T22:48:26:298
-0,078470	-0,037793	-0,022299	2020-10-13T22:48:26:320
0,013638	-0,077648	-0,005586	2020-10-13T22:48:26:336
-0,052485	-0,058728	-0,043610	2020-10-13T22:48:26:359
-0,033833	-0,017568	0,018636	2020-10-13T22:48:26:377
0,005986	-0,069764	-0,007737	2020-10-13T22:48:26:398
-0,004274	-0,076101	-0,000390	2020-10-13T22:48:26:416
0,005270	-0,006201	-0,017015	2020-10-13T22:48:26:439
-0,071220	-0,028934	-0,057748	2020-10-13T22:48:26:457
0,003934	0,045926	0,023481	2020-10-13T22:48:26:479
0,003735	0,031161	-0,002951	2020-10-13T22:48:26:499
-0,008851	-0,052243	-0,029331	2020-10-13T22:48:26:520
0,048708	-0,031542	-0,041234	2020-10-13T22:48:26:537
0,020141	0,038152	-0,043509	2020-10-13T22:48:26:559
0,024410	0,010830	-0,012523	2020-10-13T22:48:26:577
-0,034362	0,031157	-0,057974	2020-10-13T22:48:26:600
0,003408	0,014322	0,006441	2020-10-13T22:48:26:617
0,026486	0,009381	-0,024733	2020-10-13T22:48:26:639
-0,054870	-0,038475	-0,017554	2020-10-13T22:48:26:657
-0,005625	-0,022295	-0,048760	2020-10-13T22:48:26:680
0,020300	-0,039912	-0,036715	2020-10-13T22:48:26:697
-0,001336	0,037161	-0,053327	2020-10-13T22:48:26:719
-0,034836	-0,022660	0,016065	2020-10-13T22:48:26:740
0,060196	-0,019596	-0,070017	2020-10-13T22:48:26:764
-0,018767	0,021082	0,059196	2020-10-13T22:48:26:777
0,011387	-0,034478	-0,031921	2020-10-13T22:48:26:799
-0,045268	-0,102991	-0,055648	2020-10-13T22:48:26:817
-0,011768	0,047757	-0,017363	2020-10-13T22:48:26:841
0,046666	0,024001	0,013503	2020-10-13T22:48:26:857
0,003911	-0,028519	-0,082208	2020-10-13T22:48:26:879
0,023054	-0,026127	0,013505	2020-10-13T22:48:26:899
0,010017	0,074804	-0,007961	2020-10-13T22:48:26:920
0,076693	0,041486	-0,015316	2020-10-13T22:48:26:937
0,054055	-0,029539	0,001645	2020-10-13T22:48:26:959
0,033534	0,040917	-0,003226	2020-10-13T22:48:26:992
-0,002707	0,013645	-0,017606	2020-10-13T22:48:27:002
-0,007921	-0,034053	0,063875	2020-10-13T22:48:27:016
0,023185	-0,029267	0,001661	2020-10-13T22:48:27:038
0,012262	0,010777	-0,000595	2020-10-13T22:48:27:056
-0,052720	-0,052747	-0,038916	2020-10-13T22:48:27:093
-0,038026	-0,053583	-0,034197	2020-10-13T22:48:27:097
-0,012429	0,051190	-0,043771	2020-10-13T22:48:27:119
0,023966	-0,064349	-0,043921	2020-10-13T22:48:27:137
0,025363	-0,040030	-0,043759	2020-10-13T22:48:27:160
0,013780	-0,018469	-0,007670	2020-10-13T22:48:27:177
-0,006762	-0,020085	-0,002786	2020-10-13T22:48:27:199
-0,008690	-0,058485	-0,036313	2020-10-13T22:48:27:220
-0,046564	0,012687	-0,036259	2020-10-13T22:48:27:241
0,056258	-0,017489	-0,053180	2020-10-13T22:48:27:257
0,053762	-0,020141	0,006749	2020-10-13T22:48:27:279
-0,001155	-0,008289	-0,026647	2020-10-13T22:48:27:298
0,013586	0,043721	-0,014727	2020-10-13T22:48:27:320
0,012476	-0,016070	-0,024343	2020-10-13T22:48:27:338
0,011410	0,036899	-0,005136	2020-10-13T22:48:27:358
0,005882	-0,011080	0,021119	2020-10-13T22:48:27:377
0,036866	-0,045288	-0,024368	2020-10-13T22:48:27:401
-0,056220	-0,134598	0,002124	2020-10-13T22:48:27:418
0,043877	0,012333	-0,043200	2020-10-13T22:48:27:440
-0,037141	0,041735	-0,038383	2020-10-13T22:48:27:459
-0,052312	-0,001722	0,009281	2020-10-13T22:48:27:481
0,065019	-0,086189	0,004347	2020-10-13T22:48:27:497
0,048944	-0,064821	-0,000050	2020-10-13T22:48:27:520
-0,008738	0,016524	-0,004608	2020-10-13T22:48:27:538
0,015622	-0,021416	0,021607	2020-10-13T22:48:27:568
-0,047026	-0,031251	0,019225	2020-10-13T22:48:27:579
0,036678	0,000205	-0,002410	2020-10-13T22:48:27:600
-0,005898	-0,022667	-0,011945	2020-10-13T22:48:27:618
0,033652	-0,006987	-0,066969	2020-10-13T22:48:27:648
-0,030954	-0,038094	-0,014327	2020-10-13T22:48:27:660
0,029786	-0,025004	0,014389	2020-10-13T22:48:27:680
-0,034820	-0,032182	-0,011932	2020-10-13T22:48:27:706
0,007707	-0,045287	-0,067005	2020-10-13T22:48:27:723
0,011990	0,018440	0,012046	2020-10-13T22:48:27:738
-0,071328	0,006226	0,021485	2020-10-13T22:48:27:760
-0,004875	-0,036152	-0,012290	2020-10-13T22:48:27:805
-0,028335	0,050846	-0,043384	2020-10-13T22:48:27:806
0,004129	-0,035981	0,004281	2020-10-13T22:48:27:819
0,017497	-0,088759	-0,033863	2020-10-13T22:48:27:840
0,056126	-0,023799	-0,021587	2020-10-13T22:48:27:857
0,007037	-0,012000	-0,030889	2020-10-13T22:48:27:881
-0,002644	0,038027	0,012077	2020-10-13T22:48:27:899
-0,017001	0,033242	0,038398	2020-10-13T22:48:27:919
-0,037475	0,066201	-0,007238	2020-10-13T22:48:27:940
0,011998	-0,047579	0,004494	2020-10-13T22:48:27:961
0,020537	-0,109980	0,026170	2020-10-13T22:48:27:978
-0,012249	0,021673	0,007310	2020-10-13T22:48:28:001
0,014680	0,024577	0,023952	2020-10-13T22:48:28:018
-0,018915	-0,016567	-0,045554	2020-10-13T22:48:28:041
0,025721	-0,001074	-0,012183	2020-10-13T22:48:28:058
-0,039250	0,107017	-0,033781	2020-10-13T22:48:28:101
0,003619	-0,040896	-0,015019	2020-10-13T22:48:28:104
-0,020548	0,020134	-0,022138	2020-10-13T22:48:28:122
0,037738	0,015955	-0,000714	2020-10-13T22:48:28:138
0,089068	-0,074403	-0,031832	2020-10-13T22:48:28:160
-0,058839	-0,027988	-0,005166	2020-10-13T22:48:28:181
0,022132	-0,069029	0,023534	2020-10-13T22:48:28:201
-0,088811	0,026736	0,016497	2020-10-13T22:48:28:219
-0,045775	0,033754	-0,000799	2020-10-13T22:48:28:242
-0,028080	-0,015712	0,006366	2020-10-13T22:48:28:259
0,038523	-0,048564	-0,098661	2020-10-13T22:48:28:282
-0,014119	-0,007886	0,016194	2020-10-13T22:48:28:299
0,031696	-0,066955	-0,048398	2020-10-13T22:48:28:321
0,012582	0,010891	0,002116	2020-10-13T22:48:28:339
0,013571	-0,101593	0,021325	2020-10-13T22:48:28:362
0,011532	-0,060961	-0,018957	2020-10-13T22:48:28:379
-0,002825	0,068251	-0,028529	2020-10-13T22:48:28:403
-0,020751	0,075765	-0,007337	2020-10-13T22:48:28:422
-0,026357	0,055711	-0,017218	2020-10-13T22:48:28:442
0,007820	-0,047571	-0,007792	2020-10-13T22:48:28:458
-0,012956	-0,020842	-0,053062	2020-10-13T22:48:28:498
-0,017485	-0,017889	-0,036303	2020-10-13T22:48:28:501
-0,009531	-0,034714	-0,010023	2020-10-13T22:48:28:522
-0,010584	0,001206	0,011450	2020-10-13T22:48:28:540
0,048055	-0,031174	-0,077195	2020-10-13T22:48:28:560
-0,002543	0,051528	-0,031545	2020-10-13T22:48:28:577
-0,010436	-0,084018	-0,010037	2020-10-13T22:48:28:601
0,017567	-0,064230	0,033290	2020-10-13T22:48:28:618
-0,010296	-0,020027	-0,074166	2020-10-13T22:48:28:640
0,010056	-0,031434	-0,047665	2020-10-13T22:48:28:663
-0,023443	-0,062541	-0,014166	2020-10-13T22:48:28:683
-0,000798	0,005441	-0,018864	2020-10-13T22:48:28:699
-0,014853	-0,052582	-0,076331	2020-10-13T22:48:28:721
-0,015688	-0,024797	0,002618	2020-10-13T22:48:28:739
0,002597	0,008850	-0,064449	2020-10-13T22:48:28:762
-0,030363	0,005120	-0,023854	2020-10-13T22:48:28:779
0,035516	-0,064836	-0,031117	2020-10-13T22:48:28:801
-0,009254	-0,050541	-0,004617	2020-10-13T22:48:28:819
-0,029853	-0,030608	-0,018985	2020-10-13T22:48:28:842
0,040803	-0,022457	0,021572	2020-10-13T22:48:28:860
-0,003377	-0,021027	-0,016816	2020-10-13T22:48:28:881
-0,032090	0,026830	-0,055101	2020-10-13T22:48:28:904
0,065786	-0,090792	-0,050535	2020-10-13T22:48:28:923
0,048634	-0,054186	0,011943	2020-10-13T22:48:28:938
0,042276	0,028032	0,000092	2020-10-13T22:48:28:961
0,060258	-0,051733	0,016763	2020-10-13T22:48:28:980
0,004795	-0,047217	-0,042832	2020-10-13T22:48:29:002
-0,005468	-0,018355	-0,023548	2020-10-13T22:48:29:019
0,009188	-0,025228	-0,028337	2020-10-13T22:48:29:041
-0,052075	-0,014028	-0,002093	2020-10-13T22:48:29:061
0,003995	0,045434	0,033618	2020-10-13T22:48:29:103
0,067828	-0,047272	-0,028634	2020-10-13T22:48:29:104
-0,003902	0,036129	-0,018746	2020-10-13T22:48:29:121
-0,029673	-0,062046	0,014928	2020-10-13T22:48:29:145
-0,022762	-0,068705	-0,013545	2020-10-13T22:48:29:168
0,041844	-0,109383	0,005598	2020-10-13T22:48:29:180
0,000443	0,047694	-0,020294	2020-10-13T22:48:29:202
-0,064992	0,023629	0,000950	2020-10-13T22:48:29:221
-0,007365	0,036463	0,007715	2020-10-13T22:48:29:241
0,022914	0,016360	0,002710	2020-10-13T22:48:29:259
0,017535	-0,043052	0,019403	2020-10-13T22:48:29:281
0,027815	-0,055450	0,009998	2020-10-13T22:48:29:300
-0,001842	-0,028065	0,002911	2020-10-13T22:48:29:322
-0,077699	0,024162	0,002858	2020-10-13T22:48:29:339
-0,037829	-0,085553	0,026506	2020-10-13T22:48:29:361
0,024548	-0,023265	-0,018974	2020-10-13T22:48:29:381
0,040699	0,024219	0,009753	2020-10-13T22:48:29:403
-0,023343	0,000795	-0,059632	2020-10-13T22:48:29:420
0,018009	-0,030299	-0,014200	2020-10-13T22:48:29:442
0,006988	-0,093064	-0,030802	2020-10-13T22:48:29:460
-0,010090	-0,007778	0,029203	2020-10-13T22:48:29:489
-0,003010	0,024859	-0,011507	2020-10-13T22:48:29:501
-0,034117	-0,008641	0,000458	2020-10-13T22:48:29:523
-0,048523	-0,013426	0,021880	2020-10-13T22:48:29:540
0,017242	0,010129	-0,002119	2020-10-13T22:48:29:573
-0,000315	-0,042169	0,043500	2020-10-13T22:48:29:581
-0,010363	-0,016824	-0,073663	2020-10-13T22:48:29:603
-0,000792	-0,040752	-0,066484	2020-10-13T22:48:29:623
-0,048614	-0,017737	-0,016172	2020-10-13T22:48:29:641
-0,067006	0,032017	0,021941	2020-10-13T22:48:29:659
-0,000887	-0,013748	-0,028612	2020-10-13T22:48:29:681
-0,015074	-0,021202	0,014440	2020-10-13T22:48:29:700
-0,018761	0,078980	-0,007160	2020-10-13T22:48:29:723
-0,026259	-0,028952	-0,036189	2020-10-13T22:48:29:740
0,031169	0,040440	-0,048153	2020-10-13T22:48:29:762
0,024924	-0,003676	-0,048231	2020-10-13T22:48:29:780
-0,038436	0,012506	-0,005131	2020-10-13T22:48:29:803
0,023829	-0,015463	-0,010101	2020-10-13T22:48:29:821
0,036895	0,027664	-0,041144	2020-10-13T22:48:29:841
0,030594	0,004242	-0,048217	2020-10-13T22:48:29:864
-0,031620	0,018599	-0,057789	2020-10-13T22:48:29:883
-0,042976	0,020840	0,006569	2020-10-13T22:48:29:902
-0,054940	-0,022230	-0,036502	2020-10-13T22:48:29:922
0,014968	0,004944	-0,000710	2020-10-13T22:48:29:942
-0,009712	-0,026710	0,025622	2020-10-13T22:48:29:964
-0,052884	-0,016879	-0,048862	2020-10-13T22:48:29:981
-0,007421	0,002264	-0,029721	2020-10-13T22:48:30:027
0,003200	-0,059365	-0,029844	2020-10-13T22:48:30:028
-0,047672	-0,006461	-0,024919	2020-10-13T22:48:30:044
-0,012098	0,009774	-0,025037	2020-10-13T22:48:30:060
-0,008389	0,031013	0,001113	2020-10-13T22:48:30:082
0,004924	0,005822	-0,013457	2020-10-13T22:48:30:114
0,017647	-0,005874	-0,013578	2020-10-13T22:48:30:122
0,019667	-0,050064	0,010322	2020-10-13T22:48:30:140
0,022680	-0,030875	-0,003854	2020-10-13T22:48:30:161
0,069400	0,009100	-0,051577	2020-10-13T22:48:30:179
0,010989	-0,007279	-0,049123	2020-10-13T22:48:30:204
0,000876	0,018367	-0,015626	2020-10-13T22:48:30:220
0,027197	0,023153	0,025052	2020-10-13T22:48:30:241
0,058456	-0,047620	-0,027331	2020-10-13T22:48:30:261
0,048885	0,026558	-0,058438	2020-10-13T22:48:30:283
-0,037110	-0,011518	-0,000993	2020-10-13T22:48:30:301
-0,015994	-0,040416	-0,041772	2020-10-13T22:48:30:322
0,018308	-0,041583	-0,068081	2020-10-13T22:48:30:342
0,006591	-0,060500	0,001519	2020-10-13T22:48:30:365
0,033862	-0,054807	0,023259	2020-10-13T22:48:30:380
0,031700	-0,090516	-0,041138	2020-10-13T22:48:30:403
-0,031824	0,013154	0,023664	2020-10-13T22:48:30:420
-0,020110	-0,053584	-0,000456	2020-10-13T22:48:30:443
0,038917	0,045405	-0,033995	2020-10-13T22:48:30:461
0,058908	0,017975	-0,038853	2020-10-13T22:48:30:482
-0,082420	0,023154	-0,019672	2020-10-13T22:48:30:501
-0,004442	-0,018960	-0,077339	2020-10-13T22:48:30:524
-0,033808	0,038129	0,001430	2020-10-13T22:48:30:541
0,026012	0,052486	-0,041641	2020-10-13T22:48:30:563
-0,051273	0,005159	-0,005889	2020-10-13T22:48:30:585
0,044915	-0,010117	-0,044346	2020-10-13T22:48:30:604
0,026061	0,013465	0,005989	2020-10-13T22:48:30:621
-0,022938	0,047703	-0,034701	2020-10-13T22:48:30:643
0,047265	0,044925	-0,022886	2020-10-13T22:48:30:661
-0,043602	-0,050670	0,032169	2020-10-13T22:48:30:684
-0,000932	-0,063014	-0,006131	2020-10-13T22:48:30:701
-0,073195	-0,057870	-0,039498	2020-10-13T22:48:30:722
0,004202	-0,112777	-0,022799	2020-10-13T22:48:30:741
-0,019576	-0,096518	-0,010669	2020-10-13T22:48:30:764
-0,017446	-0,000988	-0,008285	2020-10-13T22:48:30:781
-0,018214	-0,003192	0,051369	2020-10-13T22:48:30:808
-0,016864	-0,055014	0,005780	2020-10-13T22:48:30:831
0,072330	-0,038906	-0,027679	2020-10-13T22:48:30:845
0,087919	-0,020926	0,010821	2020-10-13T22:48:30:862
0,051385	-0,038071	0,015846	2020-10-13T22:48:30:887
0,025064	-0,042857	0,039774	2020-10-13T22:48:30:902
-0,051743	0,021450	0,008667	2020-10-13T22:48:30:923
-0,028851	-0,008567	-0,068231	2020-10-13T22:48:30:942
0,047836	-0,017900	0,003350	2020-10-13T22:48:30:963
-0,052416	0,048467	-0,008538	2020-10-13T22:48:30:981
-0,009527	0,000132	-0,015936	2020-10-13T22:48:31:015
-0,025758	-0,034344	-0,011118	2020-10-13T22:48:31:022
0,036566	-0,035276	-0,051631	2020-10-13T22:48:31:043
0,098974	0,031531	0,005910	2020-10-13T22:48:31:064
0,024796	0,105709	0,003517	2020-10-13T22:48:31:105
0,048248	-0,011864	0,010422	2020-10-13T22:48:31:107
0,064720	-0,013930	-0,008467	2020-10-13T22:48:31:122
-0,020699	0,045568	-0,001429	2020-10-13T22:48:31:140
-0,075734	-0,023824	-0,018179	2020-10-13T22:48:31:165
0,021546	-0,034748	-0,018327	2020-10-13T22:48:31:180
-0,001092	-0,019021	-0,023006	2020-10-13T22:48:31:202
0,044236	0,012914	-0,001432	2020-10-13T22:48:31:221
-0,017269	-0,060420	0,032087	2020-10-13T22:48:31:244
0,039020	-0,034954	-0,025341	2020-10-13T22:48:31:261
0,018258	-0,003461	0,015429	2020-10-13T22:48:31:283
0,003382	-0,095519	0,003447	2020-10-13T22:48:31:304
-0,041417	0,005556	-0,022790	2020-10-13T22:48:31:325
0,047448	0,046355	-0,006260	2020-10-13T22:48:31:342
-0,021402	0,014151	0,031979	2020-10-13T22:48:31:363
0,046928	0,012229	0,050982	2020-10-13T22:48:31:382
-0,004509	-0,005017	-0,028035	2020-10-13T22:48:31:405
0,019533	-0,000551	-0,025661	2020-10-13T22:48:31:422
0,021548	-0,032396	-0,023071	2020-10-13T22:48:31:443
-0,027653	-0,018941	-0,068413	2020-10-13T22:48:31:461
0,075234	-0,005635	0,024752	2020-10-13T22:48:31:485
0,018313	-0,017352	-0,044633	2020-10-13T22:48:31:501
-0,085299	-0,000763	-0,020676	2020-10-13T22:48:31:529
-0,043222	-0,014735	-0,032806	2020-10-13T22:48:31:546
-0,004563	0,070877	0,046005	2020-10-13T22:48:31:566
0,022730	-0,013284	0,021834	2020-10-13T22:48:31:582
-0,005104	0,009180	-0,061809	2020-10-13T22:48:31:606
0,059169	-0,083618	-0,006534	2020-10-13T22:48:31:623
-0,034151	-0,014226	-0,030462	2020-10-13T22:48:31:645
0,026494	0,038885	0,000419	2020-10-13T22:48:31:663
0,035606	-0,019754	0,014662	2020-10-13T22:48:31:684
-0,047986	-0,030752	-0,011518	2020-10-13T22:48:31:708
0,053603	-0,033335	-0,021057	2020-10-13T22:48:31:727
-0,001693	0,027064	0,031734	2020-10-13T22:48:31:741
-0,009483	0,038060	0,021861	2020-10-13T22:48:31:765
-0,013901	0,031543	-0,011722	2020-10-13T22:48:31:788
0,005242	0,033935	0,012207	2020-10-13T22:48:31:808
0,059545	0,020000	-0,033295	2020-10-13T22:48:31:822
0,068152	-0,064113	0,005138	2020-10-13T22:48:31:845
0,016275	0,006600	-0,001708	2020-10-13T22:48:31:861
-0,021005	-0,036203	-0,039916	2020-10-13T22:48:31:884
-0,039134	-0,005978	-0,023160	2020-10-13T22:48:31:904
0,022094	0,006646	-0,023203	2020-10-13T22:48:31:924
-0,040435	0,009752	-0,015866	2020-10-13T22:48:31:942
0,024546	-0,094056	-0,046935	2020-10-13T22:48:31:965
0,009367	-0,054030	0,025255	2020-10-13T22:48:31:982
0,005512	0,006778	-0,024792	2020-10-13T22:48:32:004
0,018518	-0,004594	0,025546	2020-10-13T22:48:32:024
-0,025128	-0,053053	-0,015126	2020-10-13T22:48:32:045
0,022027	0,029453	0,018334	2020-10-13T22:48:32:062
-0,032989	-0,007488	-0,017693	2020-10-13T22:48:32:087
0,004869	-0,004504	0,003678	2020-10-13T22:48:32:113
-0,036533	-0,011664	-0,032295	2020-10-13T22:48:32:125
-0,020889	0,008578	-0,051551	2020-10-13T22:48:32:143
-0,001746	-0,051243	0,034592	2020-10-13T22:48:32:164
0,001359	-0,009279	-0,056321	2020-10-13T22:48:32:182
0,006100	-0,054804	-0,018036	2020-10-13T22:48:32:205
0,029885	0,083793	-0,034694	2020-10-13T22:48:32:222
-0,047577	-0,000221	-0,042023	2020-10-13T22:48:32:244
-0,007066	-0,069947	-0,008643	2020-10-13T22:48:32:265
-0,002358	0,041003	-0,027658	2020-10-13T22:48:32:285
0,068735	-0,042179	-0,027694	2020-10-13T22:48:32:303
0,000489	-0,028182	-0,032225	2020-10-13T22:48:32:324
-0,018267	-0,065719	-0,013073	2020-10-13T22:48:32:343
0,035637	-0,020152	0,008498	2020-10-13T22:48:32:367
-0,010742	-0,061072	-0,032145	2020-10-13T22:48:32:383
-0,011533	0,002223	-0,010646	2020-10-13T22:48:32:405
-0,002718	0,017070	-0,008405	2020-10-13T22:48:32:452
0,056890	-0,036544	0,005924	2020-10-13T22:48:32:453
0,014624	-0,045863	-0,077529	2020-10-13T22:48:32:463
0,000840	-0,076551	0,001634	2020-10-13T22:48:32:485
-0,016851	-0,077458	-0,031668	2020-10-13T22:48:32:515
0,005196	-0,076437	-0,017200	2020-10-13T22:48:32:525
-0,031171	-0,018873	-0,017194	2020-10-13T22:48:32:542
0,014292	0,017020	-0,017194	2020-10-13T22:48:32:564
-0,046991	0,024149	0,023342	2020-10-13T22:48:32:583
-0,037420	-0,033278	0,001806	2020-10-13T22:48:32:605
0,036685	-0,031630	-0,007599	2020-10-13T22:48:32:622
-0,033468	0,001787	-0,026494	2020-10-13T22:48:32:643
-0,012798	-0,034917	0,040397	2020-10-13T22:48:32:662
-0,042962	0,051545	-0,057742	2020-10-13T22:48:32:686
-0,095176	0,035538	-0,026936	2020-10-13T22:48:32:703
0,017168	-0,007509	0,011029	2020-10-13T22:48:32:724
0,049700	0,026072	-0,008062	2020-10-13T22:48:32:745
-0,001520	0,046795	-0,063063	2020-10-13T22:48:32:766
-0,020663	-0,048918	-0,005635	2020-10-13T22:48:32:783
0,000773	-0,071931	0,016037	2020-10-13T22:48:32:805
0,009472	0,006894	-0,002974	2020-10-13T22:48:32:824
0,009255	-0,056321	-0,034014	2020-10-13T22:48:32:846
-0,000317	-0,044357	0,004272	2020-10-13T22:48:32:863
-0,009092	-0,034697	0,059271	2020-10-13T22:48:32:885
-0,014931	0,050824	0,016110	2020-10-13T22:48:32:903
-0,007018	0,011561	-0,012774	2020-10-13T22:48:32:926
0,040113	-0,050404	-0,039049	2020-10-13T22:48:32:946
-0,024550	0,002054	0,001836	2020-10-13T22:48:32:965
-0,053549	-0,009892	-0,003263	2020-10-13T22:48:32:985
-0,000732	-0,065077	0,032711	2020-10-13T22:48:33:007
0,028816	-0,069781	0,006564	2020-10-13T22:48:33:039
-0,015528	0,020817	-0,019920	2020-10-13T22:48:33:045
-0,023403	0,035874	-0,036915	2020-10-13T22:48:33:063
-0,003523	0,025626	-0,008357	2020-10-13T22:48:33:096
-0,021214	-0,017633	-0,018006	2020-10-13T22:48:33:103
0,012285	0,003903	-0,092184	2020-10-13T22:48:33:124
-0,028944	-0,026227	-0,027606	2020-10-13T22:48:33:144
-0,013769	-0,027639	-0,020429	2020-10-13T22:48:33:167
0,055466	-0,047710	0,005958	2020-10-13T22:48:33:184
-0,005075	0,002304	-0,017736	2020-10-13T22:48:33:233
0,037109	-0,033802	-0,003345	2020-10-13T22:48:33:235
-0,015533	0,042768	0,042118	2020-10-13T22:48:33:247
0,019008	-0,035168	-0,051399	2020-10-13T22:48:33:264
-0,024960	0,042313	-0,044143	2020-10-13T22:48:33:287
-0,004355	0,039256	-0,006047	2020-10-13T22:48:33:303
-0,073241	-0,025865	-0,015756	2020-10-13T22:48:33:325
-0,009630	-0,020778	0,022361	2020-10-13T22:48:33:343
0,003091	0,003106	-0,042283	2020-10-13T22:48:33:365
-0,044672	-0,024200	-0,001648	2020-10-13T22:48:33:383
0,036301	-0,092772	-0,042390	2020-10-13T22:48:33:406
