x	y	z	ts
0,645982	-0,508352	9,772138	2020-10-13T22:47:48:156
0,649143	-0,517761	9,771434	2020-10-13T22:47:48:156
0,633347	-0,529649	9,771833	2020-10-13T22:47:48:157
0,629471	-0,533653	9,771866	2020-10-13T22:47:48:157
0,630974	-0,538692	9,771493	2020-10-13T22:47:48:157
0,628228	-0,540747	9,771556	2020-10-13T22:47:48:157
0,621321	-0,541451	9,771958	2020-10-13T22:47:48:158
0,615197	-0,545365	9,772128	2020-10-13T22:47:48:158
0,616453	-0,546464	9,771988	2020-10-13T22:47:48:158
0,612549	-0,550196	9,772024	2020-10-13T22:47:48:159
0,608082	-0,555939	9,771977	2020-10-13T22:47:48:159
0,587499	-0,575942	9,772079	2020-10-13T22:47:48:165
0,587390	-0,575981	9,772083	2020-10-13T22:47:48:169
0,587219	-0,576043	9,772090	2020-10-13T22:47:48:171
0,587114	-0,576081	9,772094	2020-10-13T22:47:48:173
0,586495	-0,576047	9,772133	2020-10-13T22:47:48:178
0,584858	-0,577803	9,772127	2020-10-13T22:47:48:199
0,583051	-0,578924	9,772169	2020-10-13T22:47:48:218
0,579974	-0,576350	9,772504	2020-10-13T22:47:48:238
0,578224	-0,576356	9,772608	2020-10-13T22:47:48:259
0,574430	-0,577561	9,772760	2020-10-13T22:47:48:278
0,573349	-0,572591	9,773116	2020-10-13T22:47:48:300
0,573399	-0,574958	9,772974	2020-10-13T22:47:48:318
0,574251	-0,577337	9,772783	2020-10-13T22:47:48:338
0,576444	-0,582285	9,772361	2020-10-13T22:47:48:360
0,578954	-0,583245	9,772156	2020-10-13T22:47:48:378
0,574722	-0,579431	9,772633	2020-10-13T22:47:48:399
0,572142	-0,581690	9,772649	2020-10-13T22:47:48:418
0,566586	-0,585833	9,772725	2020-10-13T22:47:48:439
0,564788	-0,584605	9,772903	2020-10-13T22:47:48:459
0,567185	-0,583627	9,772822	2020-10-13T22:47:48:479
0,563120	-0,580249	9,773259	2020-10-13T22:47:48:499
0,559614	-0,579451	9,773508	2020-10-13T22:47:48:520
0,559260	-0,579585	9,773520	2020-10-13T22:47:48:542
0,559838	-0,580779	9,773416	2020-10-13T22:47:48:558
0,563086	-0,583536	9,773066	2020-10-13T22:47:48:582
0,562713	-0,581779	9,773191	2020-10-13T22:47:48:599
0,560733	-0,579596	9,773435	2020-10-13T22:47:48:618
0,559293	-0,578484	9,773583	2020-10-13T22:47:48:638
0,556678	-0,578326	9,773742	2020-10-13T22:47:48:659
0,554854	-0,578052	9,773862	2020-10-13T22:47:48:678
0,554478	-0,578813	9,773838	2020-10-13T22:47:48:699
0,554458	-0,578530	9,773856	2020-10-13T22:47:48:719
0,550947	-0,579691	9,773986	2020-10-13T22:47:48:739
0,551653	-0,586881	9,773517	2020-10-13T22:47:48:759
0,551237	-0,587815	9,773484	2020-10-13T22:47:48:779
0,554433	-0,586815	9,773364	2020-10-13T22:47:48:798
0,554253	-0,586644	9,773384	2020-10-13T22:47:48:819
0,554310	-0,586399	9,773396	2020-10-13T22:47:48:838
0,553330	-0,583994	9,773595	2020-10-13T22:47:48:860
0,550615	-0,579493	9,774016	2020-10-13T22:47:48:878
0,549179	-0,578759	9,774140	2020-10-13T22:47:48:899
0,548949	-0,574706	9,774393	2020-10-13T22:47:48:920
0,548850	-0,573578	9,774465	2020-10-13T22:47:48:939
0,549265	-0,573305	9,774457	2020-10-13T22:47:48:959
0,546391	-0,569490	9,774841	2020-10-13T22:47:48:979
0,548335	-0,566283	9,774919	2020-10-13T22:47:48:999
0,548087	-0,562652	9,775143	2020-10-13T22:47:49:020
0,549551	-0,565988	9,774867	2020-10-13T22:47:49:039
0,550833	-0,567646	9,774699	2020-10-13T22:47:49:059
0,549393	-0,568593	9,774725	2020-10-13T22:47:49:092
0,551910	-0,574660	9,774229	2020-10-13T22:47:49:101
0,551700	-0,576522	9,774131	2020-10-13T22:47:49:122
0,550110	-0,572737	9,774443	2020-10-13T22:47:49:142
0,548406	-0,569520	9,774727	2020-10-13T22:47:49:163
0,545019	-0,567747	9,775020	2020-10-13T22:47:49:181
0,544373	-0,570206	9,774912	2020-10-13T22:47:49:203
0,544478	-0,571544	9,774828	2020-10-13T22:47:49:221
0,546132	-0,574495	9,774563	2020-10-13T22:47:49:242
0,544015	-0,575471	9,774624	2020-10-13T22:47:49:264
0,541499	-0,570373	9,775062	2020-10-13T22:47:49:283
0,541439	-0,569898	9,775093	2020-10-13T22:47:49:302
0,541330	-0,564956	9,775386	2020-10-13T22:47:49:322
0,544751	-0,563006	9,775309	2020-10-13T22:47:49:341
0,543878	-0,560836	9,775482	2020-10-13T22:47:49:362
0,544298	-0,557279	9,775661	2020-10-13T22:47:49:381
0,543265	-0,558417	9,775654	2020-10-13T22:47:49:403
0,544305	-0,560351	9,775486	2020-10-13T22:47:49:421
0,547671	-0,564810	9,775042	2020-10-13T22:47:49:442
0,547212	-0,563303	9,775154	2020-10-13T22:47:49:461
0,545839	-0,562603	9,775271	2020-10-13T22:47:49:482
0,545971	-0,561514	9,775326	2020-10-13T22:47:49:504
0,547221	-0,563310	9,775153	2020-10-13T22:47:49:523
0,548769	-0,565805	9,774922	2020-10-13T22:47:49:542
0,549332	-0,566780	9,774834	2020-10-13T22:47:49:563
0,549698	-0,567782	9,774755	2020-10-13T22:47:49:581
0,550642	-0,567615	9,774712	2020-10-13T22:47:49:603
0,549688	-0,568366	9,774722	2020-10-13T22:47:49:622
0,548339	-0,563774	9,775064	2020-10-13T22:47:49:643
0,550189	-0,563404	9,774981	2020-10-13T22:47:49:662
0,552140	-0,564255	9,774822	2020-10-13T22:47:49:683
0,550759	-0,562115	9,775023	2020-10-13T22:47:49:702
0,551437	-0,563628	9,774898	2020-10-13T22:47:49:723
0,548672	-0,563666	9,775051	2020-10-13T22:47:49:745
0,546350	-0,564674	9,775123	2020-10-13T22:47:49:763
0,546298	-0,560694	9,775355	2020-10-13T22:47:49:781
0,544968	-0,556753	9,775655	2020-10-13T22:47:49:803
0,546295	-0,553828	9,775746	2020-10-13T22:47:49:823
0,545588	-0,555513	9,775690	2020-10-13T22:47:49:845
0,549824	-0,557077	9,775364	2020-10-13T22:47:49:862
0,551217	-0,557399	9,775268	2020-10-13T22:47:49:884
0,549607	-0,555584	9,775461	2020-10-13T22:47:49:903
0,548186	-0,551993	9,775744	2020-10-13T22:47:49:925
0,543085	-0,550645	9,776105	2020-10-13T22:47:49:942
0,540404	-0,545003	9,776570	2020-10-13T22:47:49:963
0,541843	-0,544672	9,776508	2020-10-13T22:47:49:985
0,547430	-0,545954	9,776126	2020-10-13T22:47:50:003
0,554558	-0,553041	9,775326	2020-10-13T22:47:50:037
0,557521	-0,560312	9,774743	2020-10-13T22:47:50:044
0,556577	-0,562871	9,774650	2020-10-13T22:47:50:063
0,555787	-0,556874	9,775039	2020-10-13T22:47:50:095
0,549630	-0,538249	9,776430	2020-10-13T22:47:50:101
0,546214	-0,528809	9,777137	2020-10-13T22:47:50:123
0,545734	-0,522274	9,777514	2020-10-13T22:47:50:142
0,550285	-0,528404	9,776930	2020-10-13T22:47:50:164
0,553607	-0,533952	9,776441	2020-10-13T22:47:50:181
0,556805	-0,539226	9,775970	2020-10-13T22:47:50:204
0,557508	-0,541137	9,775825	2020-10-13T22:47:50:224
0,558584	-0,541957	9,775718	2020-10-13T22:47:50:243
0,554875	-0,537948	9,776150	2020-10-13T22:47:50:262
0,551715	-0,536727	9,776396	2020-10-13T22:47:50:283
0,553666	-0,539501	9,776133	2020-10-13T22:47:50:302
0,552076	-0,545125	9,775911	2020-10-13T22:47:50:323
0,552816	-0,547009	9,775764	2020-10-13T22:47:50:342
0,551375	-0,544596	9,775980	2020-10-13T22:47:50:363
0,551472	-0,541553	9,776144	2020-10-13T22:47:50:382
0,549608	-0,537995	9,776445	2020-10-13T22:47:50:404
0,551110	-0,537152	9,776407	2020-10-13T22:47:50:422
0,553644	-0,536087	9,776322	2020-10-13T22:47:50:443
0,555371	-0,531486	9,776475	2020-10-13T22:47:50:466
0,559863	-0,530979	9,776247	2020-10-13T22:47:50:485
0,563726	-0,534418	9,775837	2020-10-13T22:47:50:502
0,568123	-0,537421	9,775418	2020-10-13T22:47:50:524
0,566608	-0,543528	9,775168	2020-10-13T22:47:50:542
0,562975	-0,550746	9,774974	2020-10-13T22:47:50:566
0,560305	-0,553705	9,774961	2020-10-13T22:47:50:584
0,553624	-0,552033	9,775435	2020-10-13T22:47:50:605
0,549636	-0,544608	9,776077	2020-10-13T22:47:50:623
0,545350	-0,538591	9,776650	2020-10-13T22:47:50:645
0,542792	-0,530009	9,777262	2020-10-13T22:47:50:672
0,543605	-0,531258	9,777149	2020-10-13T22:47:50:686
0,546161	-0,539125	9,776576	2020-10-13T22:47:50:706
0,547084	-0,546447	9,776117	2020-10-13T22:47:50:724
0,551467	-0,549186	9,775718	2020-10-13T22:47:50:743
0,553780	-0,548927	9,775601	2020-10-13T22:47:50:765
0,553955	-0,542224	9,775966	2020-10-13T22:47:50:786
0,554899	-0,536938	9,776204	2020-10-13T22:47:50:804
0,552357	-0,529046	9,776778	2020-10-13T22:47:50:823
0,550418	-0,524088	9,777155	2020-10-13T22:47:50:847
0,550299	-0,521489	9,777301	2020-10-13T22:47:50:865
0,550378	-0,524923	9,777112	2020-10-13T22:47:50:885
0,554528	-0,529576	9,776627	2020-10-13T22:47:50:904
0,556120	-0,535828	9,776196	2020-10-13T22:47:50:924
0,559212	-0,539909	9,775795	2020-10-13T22:47:50:944
0,560899	-0,541912	9,775587	2020-10-13T22:47:50:964
0,561140	-0,540107	9,775674	2020-10-13T22:47:50:983
0,559923	-0,539360	9,775784	2020-10-13T22:47:51:006
0,553910	-0,537885	9,776208	2020-10-13T22:47:51:023
0,549677	-0,535720	9,776567	2020-10-13T22:47:51:045
0,546852	-0,534610	9,776785	2020-10-13T22:47:51:064
0,543996	-0,532750	9,777046	2020-10-13T22:47:51:091
0,543418	-0,531961	9,777122	2020-10-13T22:47:51:104
0,544572	-0,532476	9,777029	2020-10-13T22:47:51:124
0,542551	-0,530026	9,777274	2020-10-13T22:47:51:143
0,541793	-0,527141	9,777472	2020-10-13T22:47:51:165
0,542169	-0,530009	9,777296	2020-10-13T22:47:51:184
0,542523	-0,531624	9,777189	2020-10-13T22:47:51:205
0,542081	-0,528742	9,777370	2020-10-13T22:47:51:223
0,538909	-0,527190	9,777629	2020-10-13T22:47:51:245
0,539826	-0,521302	9,777894	2020-10-13T22:47:51:263
0,540163	-0,520818	9,777902	2020-10-13T22:47:51:285
0,540242	-0,522571	9,777803	2020-10-13T22:47:51:304
0,538940	-0,520662	9,777977	2020-10-13T22:47:51:325
0,539114	-0,523434	9,777820	2020-10-13T22:47:51:343
0,536180	-0,523579	9,777973	2020-10-13T22:47:51:366
0,537552	-0,520129	9,778082	2020-10-13T22:47:51:385
0,535785	-0,517909	9,778296	2020-10-13T22:47:51:405
0,537370	-0,515312	9,778347	2020-10-13T22:47:51:426
0,536444	-0,512315	9,778556	2020-10-13T22:47:51:446
0,535790	-0,513915	9,778507	2020-10-13T22:47:51:463
0,535914	-0,512796	9,778559	2020-10-13T22:47:51:485
0,538166	-0,512230	9,778465	2020-10-13T22:47:51:504
0,539277	-0,516646	9,778172	2020-10-13T22:47:51:525
0,537251	-0,519294	9,778143	2020-10-13T22:47:51:544
0,536549	-0,517212	9,778292	2020-10-13T22:47:51:566
0,534917	-0,514851	9,778506	2020-10-13T22:47:51:583
0,534377	-0,517216	9,778411	2020-10-13T22:47:51:606
0,532910	-0,516669	9,778520	2020-10-13T22:47:51:624
0,530044	-0,512894	9,778874	2020-10-13T22:47:51:646
0,528322	-0,510090	9,779114	2020-10-13T22:47:51:666
0,526486	-0,508043	9,779320	2020-10-13T22:47:51:685
0,527805	-0,508490	9,779225	2020-10-13T22:47:51:704
0,527795	-0,507533	9,779275	2020-10-13T22:47:51:726
0,527095	-0,505691	9,779408	2020-10-13T22:47:51:743
0,524157	-0,502982	9,779706	2020-10-13T22:47:51:765
0,524567	-0,497896	9,779944	2020-10-13T22:47:51:784
0,522491	-0,491822	9,780363	2020-10-13T22:47:51:805
0,522143	-0,488472	9,780549	2020-10-13T22:47:51:824
0,517607	-0,489175	9,780755	2020-10-13T22:47:51:845
0,515067	-0,487723	9,780962	2020-10-13T22:47:51:864
0,515108	-0,484046	9,781142	2020-10-13T22:47:51:886
0,515737	-0,477780	9,781417	2020-10-13T22:47:51:907
0,516004	-0,474055	9,781585	2020-10-13T22:47:51:926
0,514151	-0,477259	9,781527	2020-10-13T22:47:51:951
0,519009	-0,474870	9,781386	2020-10-13T22:47:51:971
0,518052	-0,471536	9,781598	2020-10-13T22:47:51:985
0,516564	-0,469445	9,781777	2020-10-13T22:47:52:007
0,520920	-0,469570	9,781540	2020-10-13T22:47:52:028
0,520525	-0,465295	9,781766	2020-10-13T22:47:52:045
0,522894	-0,464519	9,781676	2020-10-13T22:47:52:064
0,520129	-0,459724	9,782050	2020-10-13T22:47:52:105
0,520145	-0,462121	9,781937	2020-10-13T22:47:52:110
0,520871	-0,462704	9,781870	2020-10-13T22:47:52:126
0,520377	-0,461119	9,781971	2020-10-13T22:47:52:145
0,521339	-0,461849	9,781885	2020-10-13T22:47:52:166
0,524394	-0,463449	9,781647	2020-10-13T22:47:52:184
0,523589	-0,463085	9,781707	2020-10-13T22:47:52:206
0,525957	-0,465283	9,781476	2020-10-13T22:47:52:232
0,528443	-0,465477	9,781332	2020-10-13T22:47:52:247
0,531991	-0,469224	9,780961	2020-10-13T22:47:52:267
0,535700	-0,470602	9,780692	2020-10-13T22:47:52:287
0,535027	-0,473798	9,780575	2020-10-13T22:47:52:313
0,532371	-0,474447	9,780688	2020-10-13T22:47:52:328
0,529696	-0,472304	9,780937	2020-10-13T22:47:52:345
0,533548	-0,470763	9,780803	2020-10-13T22:47:52:367
0,535055	-0,470607	9,780727	2020-10-13T22:47:52:385
0,533875	-0,474620	9,780598	2020-10-13T22:47:52:405
0,534830	-0,474277	9,780562	2020-10-13T22:47:52:423
0,533940	-0,473357	9,780656	2020-10-13T22:47:52:447
0,532873	-0,471202	9,780818	2020-10-13T22:47:52:465
0,531473	-0,471092	9,780899	2020-10-13T22:47:52:486
0,530258	-0,469645	9,781034	2020-10-13T22:47:52:505
0,528027	-0,468751	9,781199	2020-10-13T22:47:52:527
0,527617	-0,471782	9,781075	2020-10-13T22:47:52:554
0,527394	-0,471774	9,781087	2020-10-13T22:47:52:567
0,524432	-0,472834	9,781196	2020-10-13T22:47:52:584
0,526993	-0,475028	9,780951	2020-10-13T22:47:52:607
0,526346	-0,471403	9,781161	2020-10-13T22:47:52:628
0,525686	-0,467983	9,781362	2020-10-13T22:47:52:646
0,528094	-0,468322	9,781216	2020-10-13T22:47:52:665
0,528708	-0,467035	9,781244	2020-10-13T22:47:52:687
0,529126	-0,468955	9,781129	2020-10-13T22:47:52:705
0,529341	-0,472694	9,780938	2020-10-13T22:47:52:726
0,528144	-0,476246	9,780830	2020-10-13T22:47:52:744
0,530096	-0,476903	9,780692	2020-10-13T22:47:52:767
0,530404	-0,478216	9,780612	2020-10-13T22:47:52:784
0,532061	-0,478401	9,780513	2020-10-13T22:47:52:807
0,536309	-0,478265	9,780288	2020-10-13T22:47:52:825
0,538683	-0,480105	9,780066	2020-10-13T22:47:52:846
0,539467	-0,478287	9,780112	2020-10-13T22:47:52:868
0,539632	-0,480043	9,780018	2020-10-13T22:47:52:894
0,539841	-0,477180	9,780146	2020-10-13T22:47:52:907
0,541142	-0,476235	9,780120	2020-10-13T22:47:52:928
0,542133	-0,477254	9,780016	2020-10-13T22:47:52:945
0,541110	-0,474265	9,780217	2020-10-13T22:47:52:969
0,539135	-0,473192	9,780378	2020-10-13T22:47:52:986
0,540354	-0,473679	9,780288	2020-10-13T22:47:53:008
0,541041	-0,475796	9,780147	2020-10-13T22:47:53:026
0,542340	-0,478309	9,779953	2020-10-13T22:47:53:052
0,541985	-0,476831	9,780045	2020-10-13T22:47:53:066
0,538125	-0,476749	9,780262	2020-10-13T22:47:53:095
0,538114	-0,474775	9,780358	2020-10-13T22:47:53:109
0,535492	-0,476234	9,780431	2020-10-13T22:47:53:125
0,530176	-0,470720	9,780988	2020-10-13T22:47:53:144
0,529294	-0,471707	9,780988	2020-10-13T22:47:53:167
0,530463	-0,470670	9,780974	2020-10-13T22:47:53:184
0,530389	-0,467808	9,781116	2020-10-13T22:47:53:206
0,531413	-0,468151	9,781044	2020-10-13T22:47:53:226
0,535711	-0,465409	9,780940	2020-10-13T22:47:53:247
0,535155	-0,467505	9,780870	2020-10-13T22:47:53:265
0,537043	-0,464698	9,780901	2020-10-13T22:47:53:287
0,538012	-0,460851	9,781030	2020-10-13T22:47:53:305
0,538023	-0,462251	9,780963	2020-10-13T22:47:53:327
0,539552	-0,461027	9,780936	2020-10-13T22:47:53:347
0,539757	-0,464354	9,780768	2020-10-13T22:47:53:367
0,540951	-0,466918	9,780580	2020-10-13T22:47:53:385
0,541221	-0,466215	9,780599	2020-10-13T22:47:53:407
0,537490	-0,464329	9,780894	2020-10-13T22:47:53:425
0,537141	-0,465998	9,780834	2020-10-13T22:47:53:451
0,535475	-0,468194	9,780820	2020-10-13T22:47:53:466
0,538362	-0,467361	9,780702	2020-10-13T22:47:53:487
0,539057	-0,470773	9,780499	2020-10-13T22:47:53:506
0,538412	-0,470464	9,780550	2020-10-13T22:47:53:528
0,537423	-0,470601	9,780598	2020-10-13T22:47:53:545
0,540257	-0,470801	9,780432	2020-10-13T22:47:53:567
0,539854	-0,471575	9,780417	2020-10-13T22:47:53:588
0,539311	-0,471318	9,780459	2020-10-13T22:47:53:607
0,537472	-0,472224	9,780517	2020-10-13T22:47:53:625
0,537185	-0,471077	9,780588	2020-10-13T22:47:53:648
0,539885	-0,474274	9,780285	2020-10-13T22:47:53:667
0,540540	-0,477967	9,780069	2020-10-13T22:47:53:687
0,542970	-0,476046	9,780028	2020-10-13T22:47:53:706
0,539118	-0,473976	9,780342	2020-10-13T22:47:53:727
0,541442	-0,476360	9,780097	2020-10-13T22:47:53:745
0,541614	-0,477710	9,780022	2020-10-13T22:47:53:768
0,541501	-0,476520	9,780087	2020-10-13T22:47:53:785
0,540795	-0,471938	9,780348	2020-10-13T22:47:53:808
0,540869	-0,473873	9,780250	2020-10-13T22:47:53:828
0,538672	-0,475408	9,780296	2020-10-13T22:47:53:848
0,537027	-0,474960	9,780409	2020-10-13T22:47:53:866
0,534001	-0,471599	9,780737	2020-10-13T22:47:53:888
0,535727	-0,467785	9,780826	2020-10-13T22:47:53:906
0,535011	-0,462543	9,781115	2020-10-13T22:47:53:927
0,532677	-0,463107	9,781216	2020-10-13T22:47:53:946
0,532139	-0,462004	9,781297	2020-10-13T22:47:53:968
0,531281	-0,460218	9,781427	2020-10-13T22:47:53:986
0,527823	-0,462795	9,781493	2020-10-13T22:47:54:008
0,529482	-0,465046	9,781297	2020-10-13T22:47:54:026
0,531837	-0,460878	9,781366	2020-10-13T22:47:54:048
0,532720	-0,461531	9,781287	2020-10-13T22:47:54:069
0,532125	-0,459853	9,781399	2020-10-13T22:47:54:103
0,528502	-0,456639	9,781746	2020-10-13T22:47:54:105
0,525721	-0,458510	9,781808	2020-10-13T22:47:54:131
0,528444	-0,459121	9,781632	2020-10-13T22:47:54:146
0,527126	-0,461458	9,781594	2020-10-13T22:47:54:172
0,525910	-0,459886	9,781734	2020-10-13T22:47:54:191
0,527596	-0,458077	9,781728	2020-10-13T22:47:54:208
0,526491	-0,459647	9,781713	2020-10-13T22:47:54:227
0,521873	-0,456938	9,782087	2020-10-13T22:47:54:248
0,517963	-0,457961	9,782248	2020-10-13T22:47:54:266
0,518339	-0,456080	9,782315	2020-10-13T22:47:54:288
0,517410	-0,456973	9,782323	2020-10-13T22:47:54:315
0,512463	-0,456195	9,782619	2020-10-13T22:47:54:330
0,513553	-0,457430	9,782505	2020-10-13T22:47:54:347
0,508174	-0,458534	9,782734	2020-10-13T22:47:54:370
0,505442	-0,458446	9,782880	2020-10-13T22:47:54:385
0,503739	-0,454036	9,783174	2020-10-13T22:47:54:408
0,501420	-0,453567	9,783315	2020-10-13T22:47:54:425
0,500923	-0,451370	9,783442	2020-10-13T22:47:54:448
0,501261	-0,445000	9,783716	2020-10-13T22:47:54:473
0,499719	-0,442179	9,783922	2020-10-13T22:47:54:489
0,498668	-0,439875	9,784081	2020-10-13T22:47:54:506
0,500167	-0,438380	9,784071	2020-10-13T22:47:54:529
0,501578	-0,437980	9,784017	2020-10-13T22:47:54:549
0,498258	-0,439376	9,784123	2020-10-13T22:47:54:569
0,497995	-0,438794	9,784163	2020-10-13T22:47:54:586
0,501862	-0,441615	9,783838	2020-10-13T22:47:54:609
0,499435	-0,440679	9,784005	2020-10-13T22:47:54:627
0,498354	-0,442121	9,783995	2020-10-13T22:47:54:649
0,501968	-0,443738	9,783737	2020-10-13T22:47:54:667
0,500960	-0,442979	9,783823	2020-10-13T22:47:54:689
0,499589	-0,446319	9,783741	2020-10-13T22:47:54:707
0,499617	-0,451391	9,783507	2020-10-13T22:47:54:729
0,497613	-0,448445	9,783745	2020-10-13T22:47:54:747
0,496332	-0,452281	9,783633	2020-10-13T22:47:54:769
0,494822	-0,451341	9,783753	2020-10-13T22:47:54:790
0,497513	-0,455169	9,783440	2020-10-13T22:47:54:810
0,495849	-0,456665	9,783454	2020-10-13T22:47:54:826
0,497800	-0,455318	9,783418	2020-10-13T22:47:54:849
0,500005	-0,456521	9,783249	2020-10-13T22:47:54:867
0,501628	-0,459323	9,783035	2020-10-13T22:47:54:894
0,501826	-0,460186	9,782985	2020-10-13T22:47:54:908
0,500762	-0,461016	9,783000	2020-10-13T22:47:54:929
0,502215	-0,460333	9,782957	2020-10-13T22:47:54:947
0,500510	-0,462455	9,782945	2020-10-13T22:47:54:975
0,501701	-0,465661	9,782732	2020-10-13T22:47:54:989
0,499664	-0,462013	9,783009	2020-10-13T22:47:55:009
0,495932	-0,458937	9,783343	2020-10-13T22:47:55:028
0,493905	-0,455599	9,783602	2020-10-13T22:47:55:051
0,492383	-0,453539	9,783774	2020-10-13T22:47:55:067
0,495378	-0,455180	9,783547	2020-10-13T22:47:55:090
0,493195	-0,456686	9,783587	2020-10-13T22:47:55:107
0,496007	-0,461197	9,783234	2020-10-13T22:47:55:132
0,494623	-0,455934	9,783550	2020-10-13T22:47:55:150
0,491548	-0,453686	9,783810	2020-10-13T22:47:55:171
0,492296	-0,453564	9,783778	2020-10-13T22:47:55:187
0,494076	-0,455610	9,783593	2020-10-13T22:47:55:217
0,495766	-0,453773	9,783593	2020-10-13T22:47:55:228
0,492886	-0,452224	9,783811	2020-10-13T22:47:55:249
0,495429	-0,453098	9,783641	2020-10-13T22:47:55:270
0,492475	-0,454079	9,783745	2020-10-13T22:47:55:291
0,491916	-0,451247	9,783904	2020-10-13T22:47:55:309
0,491595	-0,447314	9,784101	2020-10-13T22:47:55:328
0,487272	-0,447936	9,784288	2020-10-13T22:47:55:346
0,489065	-0,450271	9,784092	2020-10-13T22:47:55:369
0,489070	-0,453003	9,783966	2020-10-13T22:47:55:386
0,491635	-0,454214	9,783781	2020-10-13T22:47:55:408
0,493515	-0,454135	9,783689	2020-10-13T22:47:55:426
0,493978	-0,455462	9,783605	2020-10-13T22:47:55:449
0,491858	-0,453865	9,783786	2020-10-13T22:47:55:466
0,489223	-0,452544	9,783979	2020-10-13T22:47:55:488
0,487117	-0,450049	9,784200	2020-10-13T22:47:55:509
0,488713	-0,453441	9,783963	2020-10-13T22:47:55:529
0,489563	-0,451947	9,783990	2020-10-13T22:47:55:547
0,487955	-0,446247	9,784331	2020-10-13T22:47:55:569
0,485409	-0,448185	9,784369	2020-10-13T22:47:55:586
0,485655	-0,448932	9,784324	2020-10-13T22:47:55:609
0,486498	-0,447814	9,784332	2020-10-13T22:47:55:626
0,487670	-0,445094	9,784398	2020-10-13T22:47:55:648
0,487666	-0,441715	9,784552	2020-10-13T22:47:55:667
0,486809	-0,438756	9,784728	2020-10-13T22:47:55:689
0,487542	-0,435761	9,784825	2020-10-13T22:47:55:707
0,488747	-0,432553	9,784907	2020-10-13T22:47:55:729
0,491688	-0,436668	9,784577	2020-10-13T22:47:55:751
0,490561	-0,435618	9,784680	2020-10-13T22:47:55:771
0,489950	-0,432451	9,784851	2020-10-13T22:47:55:796
0,489567	-0,430113	9,784974	2020-10-13T22:47:55:818
0,490863	-0,428986	9,784958	2020-10-13T22:47:55:828
0,489475	-0,428552	9,785047	2020-10-13T22:47:55:850
0,493362	-0,429386	9,784815	2020-10-13T22:47:55:868
0,493614	-0,429159	9,784812	2020-10-13T22:47:55:889
0,495292	-0,427734	9,784790	2020-10-13T22:47:55:905
0,494024	-0,423113	9,785055	2020-10-13T22:47:55:929
0,492379	-0,423675	9,785113	2020-10-13T22:47:55:945
0,491919	-0,420633	9,785268	2020-10-13T22:47:55:969
0,490163	-0,417603	9,785486	2020-10-13T22:47:55:989
0,488678	-0,417159	9,785579	2020-10-13T22:47:56:008
0,485621	-0,417874	9,785701	2020-10-13T22:47:56:026
0,488065	-0,420020	9,785487	2020-10-13T22:47:56:049
0,488145	-0,413248	9,785771	2020-10-13T22:47:56:068
0,488791	-0,412412	9,785774	2020-10-13T22:47:56:096
0,488599	-0,412952	9,785762	2020-10-13T22:47:56:108
0,493890	-0,412401	9,785519	2020-10-13T22:47:56:129
0,495340	-0,417560	9,785227	2020-10-13T22:47:56:147
0,499047	-0,425688	9,784688	2020-10-13T22:47:56:171
0,495800	-0,429676	9,784679	2020-10-13T22:47:56:187
0,497395	-0,430052	9,784581	2020-10-13T22:47:56:208
0,499620	-0,427244	9,784592	2020-10-13T22:47:56:228
0,502047	-0,432099	9,784254	2020-10-13T22:47:56:250
0,505664	-0,437375	9,783834	2020-10-13T22:47:56:267
0,504740	-0,443945	9,783585	2020-10-13T22:47:56:290
0,506173	-0,448763	9,783291	2020-10-13T22:47:56:307
0,503662	-0,450986	9,783319	2020-10-13T22:47:56:330
0,500738	-0,452134	9,783416	2020-10-13T22:47:56:347
0,499260	-0,452446	9,783477	2020-10-13T22:47:56:369
0,497362	-0,454831	9,783463	2020-10-13T22:47:56:387
0,496250	-0,451736	9,783663	2020-10-13T22:47:56:411
0,494418	-0,448755	9,783893	2020-10-13T22:47:56:428
0,490108	-0,442761	9,784383	2020-10-13T22:47:56:449
0,489924	-0,442905	9,784386	2020-10-13T22:47:56:469
0,488784	-0,443894	9,784397	2020-10-13T22:47:56:489
0,486677	-0,442398	9,784570	2020-10-13T22:47:56:507
0,487273	-0,442211	9,784549	2020-10-13T22:47:56:533
0,489223	-0,443142	9,784410	2020-10-13T22:47:56:548
0,487572	-0,440843	9,784595	2020-10-13T22:47:56:571
0,488132	-0,442126	9,784510	2020-10-13T22:47:56:588
0,488849	-0,441958	9,784482	2020-10-13T22:47:56:615
0,488485	-0,443928	9,784410	2020-10-13T22:47:56:628
0,487533	-0,446326	9,784349	2020-10-13T22:47:56:650
0,487513	-0,445329	9,784395	2020-10-13T22:47:56:669
0,488100	-0,446252	9,784325	2020-10-13T22:47:56:689
0,483319	-0,447386	9,784510	2020-10-13T22:47:56:712
0,485190	-0,444451	9,784551	2020-10-13T22:47:56:732
0,481803	-0,446159	9,784640	2020-10-13T22:47:56:748
0,483491	-0,452117	9,784284	2020-10-13T22:47:56:771
0,482582	-0,451847	9,784341	2020-10-13T22:47:56:788
0,480583	-0,447348	9,784646	2020-10-13T22:47:56:817
0,481324	-0,442734	9,784820	2020-10-13T22:47:56:829
0,480575	-0,441613	9,784907	2020-10-13T22:47:56:850
0,481517	-0,439856	9,784940	2020-10-13T22:47:56:868
0,482476	-0,439746	9,784898	2020-10-13T22:47:56:890
0,485804	-0,443991	9,784541	2020-10-13T22:47:56:907
0,486899	-0,443132	9,784526	2020-10-13T22:47:56:930
0,486930	-0,439653	9,784681	2020-10-13T22:47:56:950
0,488813	-0,441756	9,784492	2020-10-13T22:47:56:971
0,490516	-0,438518	9,784554	2020-10-13T22:47:56:988
0,491433	-0,436325	9,784605	2020-10-13T22:47:57:010
0,491111	-0,438248	9,784535	2020-10-13T22:47:57:028
0,488648	-0,440078	9,784576	2020-10-13T22:47:57:051
0,489368	-0,439304	9,784575	2020-10-13T22:47:57:069
0,489175	-0,438644	9,784615	2020-10-13T22:47:57:095
0,490317	-0,440325	9,784482	2020-10-13T22:47:57:109
0,490047	-0,445491	9,784262	2020-10-13T22:47:57:131
0,489436	-0,447193	9,784215	2020-10-13T22:47:57:148
0,493863	-0,447224	9,783991	2020-10-13T22:47:57:170
0,495902	-0,447309	9,783884	2020-10-13T22:47:57:189
0,496633	-0,443865	9,784003	2020-10-13T22:47:57:211
0,497808	-0,442582	9,784002	2020-10-13T22:47:57:228
0,499474	-0,445004	9,783807	2020-10-13T22:47:57:250
0,500796	-0,448185	9,783594	2020-10-13T22:47:57:268
0,500811	-0,450970	9,783465	2020-10-13T22:47:57:291
0,501931	-0,455257	9,783210	2020-10-13T22:47:57:308
0,499795	-0,457867	9,783197	2020-10-13T22:47:57:331
0,500317	-0,463192	9,782920	2020-10-13T22:47:57:349
0,502957	-0,467748	9,782568	2020-10-13T22:47:57:372
0,503562	-0,471954	9,782334	2020-10-13T22:47:57:388
0,504228	-0,474006	9,782201	2020-10-13T22:47:57:411
0,506131	-0,478730	9,781873	2020-10-13T22:47:57:430
0,510323	-0,478638	9,781659	2020-10-13T22:47:57:451
0,513213	-0,477146	9,781581	2020-10-13T22:47:57:468
0,510886	-0,471673	9,781968	2020-10-13T22:47:57:490
0,510473	-0,467421	9,782194	2020-10-13T22:47:57:509
0,509802	-0,462953	9,782441	2020-10-13T22:47:57:531
0,508112	-0,461269	9,782609	2020-10-13T22:47:57:548
0,503663	-0,460336	9,782883	2020-10-13T22:47:57:571
0,499525	-0,459425	9,783138	2020-10-13T22:47:57:589
0,499337	-0,458946	9,783170	2020-10-13T22:47:57:613
0,505298	-0,461631	9,782738	2020-10-13T22:47:57:629
0,512285	-0,469335	9,782007	2020-10-13T22:47:57:650
0,512963	-0,470997	9,781892	2020-10-13T22:47:57:671
0,514816	-0,475624	9,781571	2020-10-13T22:47:57:691
0,509103	-0,478612	9,781724	2020-10-13T22:47:57:708
0,509653	-0,478352	9,781709	2020-10-13T22:47:57:731
0,513341	-0,482291	9,781322	2020-10-13T22:47:57:748
0,515586	-0,483030	9,781167	2020-10-13T22:47:57:770
0,519379	-0,486334	9,780803	2020-10-13T22:47:57:789
0,517900	-0,481214	9,781135	2020-10-13T22:47:57:810
0,512830	-0,480853	9,781420	2020-10-13T22:47:57:828
0,509578	-0,478786	9,781691	2020-10-13T22:47:57:850
0,508312	-0,477459	9,781821	2020-10-13T22:47:57:869
0,508793	-0,476099	9,781863	2020-10-13T22:47:57:890
0,506603	-0,477378	9,781915	2020-10-13T22:47:57:912
0,504034	-0,480981	9,781871	2020-10-13T22:47:57:930
0,503019	-0,484437	9,781753	2020-10-13T22:47:57:948
0,503008	-0,483902	9,781779	2020-10-13T22:47:57:971
0,502491	-0,481880	9,781906	2020-10-13T22:47:57:988
0,503622	-0,485185	9,781684	2020-10-13T22:47:58:013
0,503453	-0,488790	9,781513	2020-10-13T22:47:58:028
0,500913	-0,484797	9,781842	2020-10-13T22:47:58:050
0,494514	-0,478722	9,782467	2020-10-13T22:47:58:069
0,495338	-0,476203	9,782549	2020-10-13T22:47:58:134
0,495813	-0,473869	9,782638	2020-10-13T22:47:58:135
0,498292	-0,476338	9,782392	2020-10-13T22:47:58:136
0,503048	-0,483653	9,781790	2020-10-13T22:47:58:149
0,503531	-0,481587	9,781867	2020-10-13T22:47:58:172
0,502564	-0,480017	9,781994	2020-10-13T22:47:58:192
0,498924	-0,475659	9,782393	2020-10-13T22:47:58:212
0,499877	-0,471031	9,782568	2020-10-13T22:47:58:230
0,498378	-0,466692	9,782852	2020-10-13T22:47:58:260
0,500711	-0,467627	9,782689	2020-10-13T22:47:58:271
0,501275	-0,467398	9,782671	2020-10-13T22:47:58:291
0,501449	-0,470782	9,782499	2020-10-13T22:47:58:310
0,503587	-0,467708	9,782537	2020-10-13T22:47:58:330
0,501419	-0,470548	9,782513	2020-10-13T22:47:58:348
0,505910	-0,468521	9,782378	2020-10-13T22:47:58:371
0,506121	-0,468107	9,782388	2020-10-13T22:47:58:391
0,503252	-0,470364	9,782427	2020-10-13T22:47:58:411
0,503686	-0,470288	9,782409	2020-10-13T22:47:58:429
0,501432	-0,466233	9,782719	2020-10-13T22:47:58:451
0,501055	-0,467931	9,782657	2020-10-13T22:47:58:469
0,500708	-0,468918	9,782627	2020-10-13T22:47:58:492
0,501047	-0,464524	9,782820	2020-10-13T22:47:58:509
0,501902	-0,463591	9,782820	2020-10-13T22:47:58:531
0,500978	-0,461385	9,782971	2020-10-13T22:47:58:549
0,500815	-0,456535	9,783207	2020-10-13T22:47:58:572
0,500379	-0,454040	9,783345	2020-10-13T22:47:58:589
0,498644	-0,452908	9,783486	2020-10-13T22:47:58:612
0,498971	-0,452237	9,783501	2020-10-13T22:47:58:633
0,497125	-0,451236	9,783641	2020-10-13T22:47:58:651
0,495810	-0,449811	9,783773	2020-10-13T22:47:58:669
0,493806	-0,449274	9,783899	2020-10-13T22:47:58:692
0,494558	-0,449367	9,783857	2020-10-13T22:47:58:709
0,496410	-0,447306	9,783858	2020-10-13T22:47:58:731
0,497218	-0,448555	9,783760	2020-10-13T22:47:58:749
0,494700	-0,450038	9,783819	2020-10-13T22:47:58:771
0,495350	-0,449831	9,783796	2020-10-13T22:47:58:789
0,495194	-0,449699	9,783810	2020-10-13T22:47:58:812
0,494530	-0,450369	9,783813	2020-10-13T22:47:58:831
0,495467	-0,450527	9,783758	2020-10-13T22:47:58:851
0,497066	-0,453165	9,783555	2020-10-13T22:47:58:871
0,500027	-0,453396	9,783394	2020-10-13T22:47:58:896
0,497993	-0,453027	9,783514	2020-10-13T22:47:58:922
0,497857	-0,452771	9,783533	2020-10-13T22:47:58:934
0,495368	-0,451144	9,783734	2020-10-13T22:47:58:950
0,496988	-0,450451	9,783685	2020-10-13T22:47:58:973
0,495117	-0,448865	9,783853	2020-10-13T22:47:58:991
0,492657	-0,445673	9,784122	2020-10-13T22:47:59:012
0,493794	-0,444343	9,784125	2020-10-13T22:47:59:031
0,492307	-0,445196	9,784162	2020-10-13T22:47:59:052
0,495281	-0,442674	9,784126	2020-10-13T22:47:59:072
0,497056	-0,444769	9,783941	2020-10-13T22:47:59:093
0,499055	-0,442028	9,783963	2020-10-13T22:47:59:111
0,497818	-0,439633	9,784134	2020-10-13T22:47:59:131
0,497139	-0,442025	9,784061	2020-10-13T22:47:59:150
0,495918	-0,442407	9,784105	2020-10-13T22:47:59:172
0,499206	-0,442120	9,783952	2020-10-13T22:47:59:189
0,498325	-0,442782	9,783966	2020-10-13T22:47:59:212
0,497435	-0,443258	9,783990	2020-10-13T22:47:59:230
0,497388	-0,442155	9,784042	2020-10-13T22:47:59:255
0,497474	-0,445157	9,783902	2020-10-13T22:47:59:284
0,499334	-0,442229	9,783940	2020-10-13T22:47:59:295
0,501672	-0,441645	9,783847	2020-10-13T22:47:59:309
0,503463	-0,441490	9,783762	2020-10-13T22:47:59:332
0,503320	-0,441989	9,783747	2020-10-13T22:47:59:361
0,503373	-0,444697	9,783621	2020-10-13T22:47:59:375
0,501436	-0,444043	9,783751	2020-10-13T22:47:59:391
0,501211	-0,440324	9,783930	2020-10-13T22:47:59:413
0,498322	-0,437424	9,784207	2020-10-13T22:47:59:431
0,501559	-0,435411	9,784132	2020-10-13T22:47:59:451
0,501658	-0,437870	9,784018	2020-10-13T22:47:59:470
0,503528	-0,441377	9,783764	2020-10-13T22:47:59:492
0,503908	-0,444829	9,783587	2020-10-13T22:47:59:511
0,498288	-0,444760	9,783878	2020-10-13T22:47:59:532
0,498335	-0,444834	9,783873	2020-10-13T22:47:59:550
0,498259	-0,443969	9,783916	2020-10-13T22:47:59:572
0,498494	-0,444095	9,783898	2020-10-13T22:47:59:592
0,500491	-0,446495	9,783688	2020-10-13T22:47:59:612
0,501322	-0,449380	9,783512	2020-10-13T22:47:59:630
0,503064	-0,448470	9,783464	2020-10-13T22:47:59:652
0,502697	-0,446712	9,783565	2020-10-13T22:47:59:671
0,501136	-0,447601	9,783604	2020-10-13T22:47:59:693
0,502655	-0,447732	9,783520	2020-10-13T22:47:59:712
0,504108	-0,443538	9,783636	2020-10-13T22:47:59:732
0,503916	-0,442778	9,783680	2020-10-13T22:47:59:751
0,504574	-0,439471	9,783795	2020-10-13T22:47:59:773
0,503255	-0,439354	9,783869	2020-10-13T22:47:59:791
0,503310	-0,439977	9,783838	2020-10-13T22:47:59:815
0,502955	-0,441585	9,783784	2020-10-13T22:47:59:836
0,499975	-0,442608	9,783890	2020-10-13T22:47:59:853
0,500339	-0,440409	9,783971	2020-10-13T22:47:59:871
0,503500	-0,437515	9,783938	2020-10-13T22:47:59:895
0,504788	-0,439249	9,783794	2020-10-13T22:47:59:919
0,505129	-0,445403	9,783499	2020-10-13T22:47:59:933
0,504652	-0,448194	9,783396	2020-10-13T22:47:59:951
0,504322	-0,448802	9,783385	2020-10-13T22:47:59:975
0,506436	-0,448310	9,783298	2020-10-13T22:47:59:990
0,507090	-0,449537	9,783208	2020-10-13T22:48:00:013
0,504758	-0,452057	9,783213	2020-10-13T22:48:00:031
0,504350	-0,449872	9,783335	2020-10-13T22:48:00:052
0,504133	-0,450932	9,783297	2020-10-13T22:48:00:075
0,504228	-0,453424	9,783176	2020-10-13T22:48:00:097
0,503581	-0,452092	9,783272	2020-10-13T22:48:00:110
0,505450	-0,451052	9,783223	2020-10-13T22:48:00:133
0,505408	-0,446802	9,783421	2020-10-13T22:48:00:150
0,503776	-0,445610	9,783559	2020-10-13T22:48:00:173
0,504750	-0,444018	9,783581	2020-10-13T22:48:00:192
0,504608	-0,444379	9,783572	2020-10-13T22:48:00:213
0,505172	-0,445492	9,783492	2020-10-13T22:48:00:231
0,502627	-0,439505	9,783895	2020-10-13T22:48:00:253
0,501329	-0,438725	9,783996	2020-10-13T22:48:00:271
0,500247	-0,441751	9,783915	2020-10-13T22:48:00:292
0,502734	-0,443997	9,783686	2020-10-13T22:48:00:313
0,503325	-0,447810	9,783482	2020-10-13T22:48:00:333
0,503900	-0,445409	9,783562	2020-10-13T22:48:00:350
0,504678	-0,444318	9,783571	2020-10-13T22:48:00:374
0,504562	-0,445617	9,783518	2020-10-13T22:48:00:391
0,505295	-0,446045	9,783461	2020-10-13T22:48:00:414
0,504798	-0,449532	9,783327	2020-10-13T22:48:00:431
0,507504	-0,450126	9,783159	2020-10-13T22:48:00:453
0,507740	-0,449270	9,783187	2020-10-13T22:48:00:471
0,504107	-0,451129	9,783289	2020-10-13T22:48:00:494
0,503970	-0,446148	9,783525	2020-10-13T22:48:00:513
0,504122	-0,444298	9,783601	2020-10-13T22:48:00:534
0,505157	-0,447158	9,783417	2020-10-13T22:48:00:554
0,507737	-0,444643	9,783399	2020-10-13T22:48:00:597
0,509196	-0,445525	9,783282	2020-10-13T22:48:00:598
0,508112	-0,444070	9,783404	2020-10-13T22:48:00:614
0,505993	-0,444450	9,783497	2020-10-13T22:48:00:632
0,508356	-0,441666	9,783501	2020-10-13T22:48:00:653
0,509688	-0,445654	9,783251	2020-10-13T22:48:00:675
0,506488	-0,445349	9,783431	2020-10-13T22:48:00:693
0,507210	-0,442861	9,783506	2020-10-13T22:48:00:712
0,506777	-0,443176	9,783515	2020-10-13T22:48:00:733
0,508955	-0,442581	9,783428	2020-10-13T22:48:00:754
0,507627	-0,446440	9,783322	2020-10-13T22:48:00:773
0,508062	-0,447768	9,783238	2020-10-13T22:48:00:794
0,506691	-0,451685	9,783130	2020-10-13T22:48:00:813
0,509527	-0,453716	9,782888	2020-10-13T22:48:00:832
0,509549	-0,454220	9,782864	2020-10-13T22:48:00:853
0,508292	-0,451534	9,783053	2020-10-13T22:48:00:872
0,508361	-0,450199	9,783112	2020-10-13T22:48:00:893
0,510739	-0,449827	9,783005	2020-10-13T22:48:00:913
0,513237	-0,450241	9,782855	2020-10-13T22:48:00:934
0,511504	-0,451971	9,782866	2020-10-13T22:48:00:952
0,511079	-0,450913	9,782937	2020-10-13T22:48:00:974
0,510319	-0,451401	9,782954	2020-10-13T22:48:00:992
0,510394	-0,450837	9,782976	2020-10-13T22:48:01:013
0,509490	-0,452490	9,782948	2020-10-13T22:48:01:034
0,507341	-0,453559	9,783010	2020-10-13T22:48:01:053
0,506129	-0,451412	9,783172	2020-10-13T22:48:01:075
0,502512	-0,449003	9,783469	2020-10-13T22:48:01:098
0,500443	-0,450913	9,783487	2020-10-13T22:48:01:112
0,500572	-0,449743	9,783534	2020-10-13T22:48:01:135
0,502107	-0,452391	9,783334	2020-10-13T22:48:01:153
0,500330	-0,457318	9,783195	2020-10-13T22:48:01:174
0,500191	-0,459832	9,783085	2020-10-13T22:48:01:194
0,496805	-0,458103	9,783339	2020-10-13T22:48:01:215
0,497322	-0,459513	9,783246	2020-10-13T22:48:01:233
0,498585	-0,459728	9,783172	2020-10-13T22:48:01:255
0,496827	-0,458473	9,783320	2020-10-13T22:48:01:279
0,496133	-0,458609	9,783349	2020-10-13T22:48:01:294
0,496764	-0,459080	9,783295	2020-10-13T22:48:01:312
0,494885	-0,460898	9,783304	2020-10-13T22:48:01:336
0,496053	-0,459207	9,783325	2020-10-13T22:48:01:352
0,494717	-0,459464	9,783381	2020-10-13T22:48:01:374
0,493513	-0,457307	9,783543	2020-10-13T22:48:01:393
0,493208	-0,457217	9,783562	2020-10-13T22:48:01:422
0,492713	-0,457183	9,783588	2020-10-13T22:48:01:434
0,492212	-0,454972	9,783717	2020-10-13T22:48:01:456
0,492387	-0,454120	9,783748	2020-10-13T22:48:01:473
0,491752	-0,457456	9,783624	2020-10-13T22:48:01:495
0,490694	-0,455115	9,783786	2020-10-13T22:48:01:516
0,490187	-0,449372	9,784077	2020-10-13T22:48:01:534
0,486855	-0,445485	9,784421	2020-10-13T22:48:01:552
0,484457	-0,447491	9,784449	2020-10-13T22:48:01:574
0,487675	-0,448812	9,784228	2020-10-13T22:48:01:592
0,487557	-0,452249	9,784076	2020-10-13T22:48:01:614
0,488478	-0,451734	9,784054	2020-10-13T22:48:01:633
0,486803	-0,450788	9,784181	2020-10-13T22:48:01:654
0,487757	-0,453099	9,784027	2020-10-13T22:48:01:673
0,488370	-0,454822	9,783916	2020-10-13T22:48:01:695
0,490356	-0,458461	9,783647	2020-10-13T22:48:01:727
0,488804	-0,457467	9,783772	2020-10-13T22:48:01:924
0,489360	-0,453779	9,783916	2020-10-13T22:48:01:925
0,487676	-0,453382	9,784018	2020-10-13T22:48:01:925
0,487670	-0,454514	9,783965	2020-10-13T22:48:01:926
0,490487	-0,455100	9,783797	2020-10-13T22:48:01:927
0,489088	-0,453875	9,783924	2020-10-13T22:48:01:927
0,486982	-0,452803	9,784079	2020-10-13T22:48:01:928
0,484714	-0,452038	9,784227	2020-10-13T22:48:01:929
0,483300	-0,452412	9,784280	2020-10-13T22:48:01:930
0,485306	-0,454848	9,784067	2020-10-13T22:48:01:934
0,488078	-0,455800	9,783885	2020-10-13T22:48:01:934
0,489730	-0,457521	9,783722	2020-10-13T22:48:01:952
0,487893	-0,460201	9,783689	2020-10-13T22:48:01:973
0,488320	-0,458851	9,783731	2020-10-13T22:48:01:994
0,488085	-0,458647	9,783751	2020-10-13T22:48:02:014
0,489983	-0,460572	9,783566	2020-10-13T22:48:02:033
0,489347	-0,455072	9,783855	2020-10-13T22:48:02:056
0,490186	-0,453059	9,783907	2020-10-13T22:48:02:074
0,490181	-0,455310	9,783803	2020-10-13T22:48:02:093
0,491056	-0,456146	9,783720	2020-10-13T22:48:02:140
0,491253	-0,453373	9,783839	2020-10-13T22:48:02:166
0,492690	-0,453367	9,783767	2020-10-13T22:48:02:168
0,493290	-0,451915	9,783804	2020-10-13T22:48:02:183
0,493431	-0,451229	9,783829	2020-10-13T22:48:02:200
0,490076	-0,450437	9,784034	2020-10-13T22:48:02:254
0,488011	-0,450450	9,784137	2020-10-13T22:48:02:255
0,489509	-0,452103	9,783985	2020-10-13T22:48:02:255
0,490505	-0,454304	9,783834	2020-10-13T22:48:02:274
0,490781	-0,455807	9,783750	2020-10-13T22:48:02:294
0,492429	-0,455430	9,783685	2020-10-13T22:48:02:316
0,496048	-0,456466	9,783453	2020-10-13T22:48:02:333
0,497374	-0,458186	9,783305	2020-10-13T22:48:02:352
0,496172	-0,457486	9,783400	2020-10-13T22:48:02:374
0,493338	-0,454808	9,783668	2020-10-13T22:48:02:394
0,496890	-0,454578	9,783499	2020-10-13T22:48:02:436
0,496077	-0,457925	9,783383	2020-10-13T22:48:02:436
0,496915	-0,456743	9,783397	2020-10-13T22:48:02:527
0,498375	-0,453551	9,783471	2020-10-13T22:48:02:530
0,499593	-0,454255	9,783376	2020-10-13T22:48:02:531
0,497470	-0,454833	9,783457	2020-10-13T22:48:02:531
0,497312	-0,454861	9,783463	2020-10-13T22:48:02:535
0,496046	-0,455060	9,783519	2020-10-13T22:48:02:556
0,495571	-0,452475	9,783663	2020-10-13T22:48:02:575
0,495337	-0,450022	9,783788	2020-10-13T22:48:02:592
0,495326	-0,446982	9,783928	2020-10-13T22:48:02:614
0,494149	-0,450878	9,783809	2020-10-13T22:48:02:632
0,492762	-0,447263	9,784044	2020-10-13T22:48:02:655
0,494751	-0,444347	9,784077	2020-10-13T22:48:02:673
0,495324	-0,443083	9,784105	2020-10-13T22:48:02:695
0,492630	-0,444603	9,784172	2020-10-13T22:48:02:718
0,492448	-0,445705	9,784131	2020-10-13T22:48:02:735
0,493330	-0,446654	9,784043	2020-10-13T22:48:02:753
0,492403	-0,450177	9,783929	2020-10-13T22:48:02:776
0,493461	-0,451807	9,783800	2020-10-13T22:48:02:793
0,494032	-0,451553	9,783783	2020-10-13T22:48:02:815
0,496930	-0,446659	9,783861	2020-10-13T22:48:02:834
0,496887	-0,448415	9,783783	2020-10-13T22:48:02:855
0,495382	-0,447299	9,783911	2020-10-13T22:48:02:874
0,494309	-0,443224	9,784150	2020-10-13T22:48:02:895
0,494283	-0,442868	9,784167	2020-10-13T22:48:02:914
0,494645	-0,440426	9,784260	2020-10-13T22:48:02:935
0,495225	-0,437998	9,784339	2020-10-13T22:48:02:956
0,493623	-0,434600	9,784572	2020-10-13T22:48:02:977
0,496080	-0,437672	9,784310	2020-10-13T22:48:02:993
0,494284	-0,441404	9,784234	2020-10-13T22:48:03:015
0,490387	-0,443121	9,784352	2020-10-13T22:48:03:039
0,490413	-0,442250	9,784390	2020-10-13T22:48:03:054
0,491583	-0,440476	9,784411	2020-10-13T22:48:03:099
0,487746	-0,441024	9,784579	2020-10-13T22:48:03:099
0,484919	-0,439437	9,784791	2020-10-13T22:48:03:136
0,484666	-0,439695	9,784792	2020-10-13T22:48:03:137
0,485155	-0,439979	9,784755	2020-10-13T22:48:03:153
0,485416	-0,439354	9,784770	2020-10-13T22:48:03:175
0,486185	-0,438617	9,784765	2020-10-13T22:48:03:195
0,488169	-0,438443	9,784674	2020-10-13T22:48:03:216
0,489250	-0,436421	9,784710	2020-10-13T22:48:03:235
0,490551	-0,438924	9,784534	2020-10-13T22:48:03:256
0,493046	-0,437929	9,784452	2020-10-13T22:48:03:275
0,493421	-0,437897	9,784435	2020-10-13T22:48:03:297
0,492461	-0,439067	9,784431	2020-10-13T22:48:03:315
0,494663	-0,439830	9,784286	2020-10-13T22:48:03:336
0,495646	-0,438592	9,784291	2020-10-13T22:48:03:357
0,496377	-0,440624	9,784163	2020-10-13T22:48:03:376
0,496490	-0,442409	9,784077	2020-10-13T22:48:03:394
0,498212	-0,443084	9,783958	2020-10-13T22:48:03:416
0,498718	-0,442944	9,783939	2020-10-13T22:48:03:438
0,497625	-0,443115	9,783987	2020-10-13T22:48:03:456
0,498151	-0,444384	9,783903	2020-10-13T22:48:03:474
0,498665	-0,448628	9,783683	2020-10-13T22:48:03:496
0,497631	-0,449871	9,783678	2020-10-13T22:48:03:514
0,497263	-0,452595	9,783571	2020-10-13T22:48:03:536
0,497844	-0,455777	9,783394	2020-10-13T22:48:03:554
0,497331	-0,455471	9,783435	2020-10-13T22:48:03:576
0,497905	-0,449089	9,783700	2020-10-13T22:48:03:594
0,495930	-0,448999	9,783805	2020-10-13T22:48:03:616
0,498363	-0,444753	9,783875	2020-10-13T22:48:03:635
0,498635	-0,445424	9,783831	2020-10-13T22:48:03:656
0,499846	-0,445709	9,783756	2020-10-13T22:48:03:678
0,500354	-0,444050	9,783806	2020-10-13T22:48:03:697
0,500719	-0,444375	9,783772	2020-10-13T22:48:03:715
0,500686	-0,448288	9,783595	2020-10-13T22:48:03:738
0,500212	-0,446153	9,783717	2020-10-13T22:48:03:757
0,501234	-0,448190	9,783571	2020-10-13T22:48:03:778
0,501597	-0,448565	9,783536	2020-10-13T22:48:03:796
0,502768	-0,449520	9,783432	2020-10-13T22:48:03:817
0,502271	-0,449041	9,783480	2020-10-13T22:48:03:836
0,503801	-0,451605	9,783282	2020-10-13T22:48:03:858
0,504098	-0,452729	9,783216	2020-10-13T22:48:03:875
0,504569	-0,454152	9,783125	2020-10-13T22:48:03:896
0,503560	-0,453538	9,783206	2020-10-13T22:48:03:920
0,503527	-0,445999	9,783554	2020-10-13T22:48:03:936
0,500140	-0,446487	9,783706	2020-10-13T22:48:03:955
0,499900	-0,444948	9,783788	2020-10-13T22:48:03:976
0,499881	-0,443824	9,783840	2020-10-13T22:48:03:996
0,502006	-0,446651	9,783603	2020-10-13T22:48:04:014
0,502694	-0,451809	9,783330	2020-10-13T22:48:04:034
0,505318	-0,450481	9,783257	2020-10-13T22:48:04:057
0,504841	-0,451197	9,783248	2020-10-13T22:48:04:076
0,507037	-0,453776	9,783015	2020-10-13T22:48:04:098
0,506503	-0,453202	9,783070	2020-10-13T22:48:04:115
0,507812	-0,451095	9,783099	2020-10-13T22:48:04:136
0,507967	-0,452152	9,783042	2020-10-13T22:48:04:157
0,509195	-0,453823	9,782901	2020-10-13T22:48:04:176
0,506999	-0,452875	9,783059	2020-10-13T22:48:04:194
0,506220	-0,453609	9,783065	2020-10-13T22:48:04:216
0,507019	-0,455050	9,782957	2020-10-13T22:48:04:234
0,505830	-0,456916	9,782931	2020-10-13T22:48:04:263
0,507363	-0,457558	9,782822	2020-10-13T22:48:04:278
0,506287	-0,457465	9,782882	2020-10-13T22:48:04:297
0,508007	-0,456006	9,782861	2020-10-13T22:48:04:315
0,504852	-0,453581	9,783137	2020-10-13T22:48:04:336
0,504201	-0,452837	9,783205	2020-10-13T22:48:04:355
0,504289	-0,456612	9,783025	2020-10-13T22:48:04:377
0,501172	-0,456975	9,783169	2020-10-13T22:48:04:397
0,499467	-0,456367	9,783284	2020-10-13T22:48:04:416
0,497027	-0,454655	9,783488	2020-10-13T22:48:04:435
0,497363	-0,454592	9,783474	2020-10-13T22:48:04:456
0,495141	-0,449718	9,783812	2020-10-13T22:48:04:476
0,494991	-0,449425	9,783833	2020-10-13T22:48:04:496
0,493777	-0,447371	9,783988	2020-10-13T22:48:04:516
0,490561	-0,447823	9,784129	2020-10-13T22:48:04:537
0,487321	-0,449490	9,784215	2020-10-13T22:48:04:557
0,487278	-0,451293	9,784134	2020-10-13T22:48:04:583
0,488807	-0,450783	9,784081	2020-10-13T22:48:04:596
0,490406	-0,450185	9,784029	2020-10-13T22:48:04:618
0,488984	-0,452375	9,783999	2020-10-13T22:48:04:639
0,486537	-0,455794	9,783962	2020-10-13T22:48:04:657
0,489858	-0,456619	9,783758	2020-10-13T22:48:04:676
0,490204	-0,455913	9,783773	2020-10-13T22:48:04:697
0,488364	-0,456040	9,783860	2020-10-13T22:48:04:717
0,490066	-0,453803	9,783878	2020-10-13T22:48:04:737
0,489388	-0,456979	9,783765	2020-10-13T22:48:04:756
0,491201	-0,458797	9,783588	2020-10-13T22:48:04:777
0,491971	-0,459494	9,783518	2020-10-13T22:48:04:795
0,492592	-0,458758	9,783521	2020-10-13T22:48:04:817
0,493324	-0,454900	9,783664	2020-10-13T22:48:04:836
0,492577	-0,456216	9,783641	2020-10-13T22:48:04:857
0,493093	-0,452192	9,783801	2020-10-13T22:48:04:877
0,492500	-0,451513	9,783862	2020-10-13T22:48:04:897
0,490161	-0,449880	9,784055	2020-10-13T22:48:04:915
0,489735	-0,448419	9,784143	2020-10-13T22:48:04:937
0,491886	-0,451478	9,783895	2020-10-13T22:48:04:955
0,491112	-0,450425	9,783982	2020-10-13T22:48:04:978
0,491682	-0,448149	9,784059	2020-10-13T22:48:04:995
0,491226	-0,450740	9,783962	2020-10-13T22:48:05:017
0,492413	-0,448713	9,783996	2020-10-13T22:48:05:037
0,490310	-0,449855	9,784049	2020-10-13T22:48:05:058
0,488836	-0,447851	9,784214	2020-10-13T22:48:05:080
0,490488	-0,450358	9,784017	2020-10-13T22:48:05:099
0,492113	-0,453157	9,783806	2020-10-13T22:48:05:128
0,492167	-0,451020	9,783902	2020-10-13T22:48:05:141
0,492898	-0,450534	9,783888	2020-10-13T22:48:05:156
0,493042	-0,452427	9,783792	2020-10-13T22:48:05:179
0,493366	-0,454507	9,783680	2020-10-13T22:48:05:198
0,493545	-0,456254	9,783589	2020-10-13T22:48:05:217
0,493037	-0,454776	9,783685	2020-10-13T22:48:05:236
0,492912	-0,456533	9,783608	2020-10-13T22:48:05:257
0,494030	-0,451108	9,783804	2020-10-13T22:48:05:276
0,494574	-0,452914	9,783693	2020-10-13T22:48:05:297
0,495986	-0,453654	9,783587	2020-10-13T22:48:05:316
0,495663	-0,449955	9,783774	2020-10-13T22:48:05:337
0,497582	-0,449008	9,783721	2020-10-13T22:48:05:359
0,495839	-0,449538	9,783785	2020-10-13T22:48:05:378
0,499070	-0,447423	9,783717	2020-10-13T22:48:05:396
0,500455	-0,449348	9,783559	2020-10-13T22:48:05:418
0,502669	-0,454456	9,783209	2020-10-13T22:48:05:436
0,498579	-0,455333	9,783378	2020-10-13T22:48:05:458
0,495553	-0,455732	9,783513	2020-10-13T22:48:05:476
0,494708	-0,456477	9,783521	2020-10-13T22:48:05:497
0,490330	-0,455119	9,783804	2020-10-13T22:48:05:527
0,487034	-0,454886	9,783979	2020-10-13T22:48:05:538
0,487294	-0,456992	9,783869	2020-10-13T22:48:05:557
0,486662	-0,452893	9,784091	2020-10-13T22:48:05:579
0,486481	-0,451038	9,784185	2020-10-13T22:48:05:616
0,488783	-0,452568	9,784000	2020-10-13T22:48:05:618
0,488587	-0,451507	9,784059	2020-10-13T22:48:05:636
0,489231	-0,448596	9,784161	2020-10-13T22:48:05:659
0,488491	-0,447248	9,784259	2020-10-13T22:48:05:678
0,490188	-0,445536	9,784252	2020-10-13T22:48:05:697
0,487985	-0,444774	9,784397	2020-10-13T22:48:05:717
0,490446	-0,448690	9,784096	2020-10-13T22:48:05:739
0,493982	-0,453069	9,783716	2020-10-13T22:48:05:756
0,492703	-0,454983	9,783691	2020-10-13T22:48:05:778
0,491973	-0,457008	9,783634	2020-10-13T22:48:05:797
0,489130	-0,459064	9,783680	2020-10-13T22:48:05:819
0,490234	-0,458516	9,783650	2020-10-13T22:48:05:843
0,491836	-0,457224	9,783630	2020-10-13T22:48:05:858
0,494704	-0,459262	9,783391	2020-10-13T22:48:05:876
0,495961	-0,462387	9,783179	2020-10-13T22:48:05:898
0,496146	-0,464411	9,783074	2020-10-13T22:48:05:917
0,495733	-0,461029	9,783256	2020-10-13T22:48:05:938
0,495328	-0,459985	9,783325	2020-10-13T22:48:05:957
0,494323	-0,455314	9,783594	2020-10-13T22:48:05:979
0,492629	-0,454846	9,783702	2020-10-13T22:48:05:997
0,496149	-0,450964	9,783704	2020-10-13T22:48:06:018
0,497633	-0,450128	9,783667	2020-10-13T22:48:06:037
0,498306	-0,451099	9,783587	2020-10-13T22:48:06:058
0,498707	-0,454062	9,783430	2020-10-13T22:48:06:084
0,497338	-0,451891	9,783600	2020-10-13T22:48:06:105
0,496683	-0,449307	9,783752	2020-10-13T22:48:06:116
0,496819	-0,450009	9,783713	2020-10-13T22:48:06:139
0,499576	-0,451413	9,783508	2020-10-13T22:48:06:157
0,500523	-0,452641	9,783403	2020-10-13T22:48:06:178
0,500059	-0,454690	9,783332	2020-10-13T22:48:06:197
0,499190	-0,455577	9,783335	2020-10-13T22:48:06:218
0,497115	-0,456750	9,783386	2020-10-13T22:48:06:236
0,498158	-0,456627	9,783339	2020-10-13T22:48:06:259
0,494746	-0,455628	9,783558	2020-10-13T22:48:06:277
0,492945	-0,450938	9,783867	2020-10-13T22:48:06:298
0,493018	-0,450180	9,783897	2020-10-13T22:48:06:319
0,495924	-0,455609	9,783500	2020-10-13T22:48:06:340
0,495471	-0,455078	9,783547	2020-10-13T22:48:06:359
0,495164	-0,453362	9,783643	2020-10-13T22:48:06:380
0,496847	-0,453153	9,783566	2020-10-13T22:48:06:396
0,493634	-0,446630	9,784029	2020-10-13T22:48:06:429
0,493911	-0,449411	9,783888	2020-10-13T22:48:06:438
0,494655	-0,447167	9,783954	2020-10-13T22:48:06:464
0,492215	-0,447629	9,784055	2020-10-13T22:48:06:478
0,489780	-0,448336	9,784145	2020-10-13T22:48:06:500
0,489094	-0,448060	9,784192	2020-10-13T22:48:06:517
0,491254	-0,450086	9,783991	2020-10-13T22:48:06:539
0,494752	-0,449636	9,783835	2020-10-13T22:48:06:561
0,497577	-0,454105	9,783485	2020-10-13T22:48:06:579
0,496512	-0,456858	9,783411	2020-10-13T22:48:06:597
0,496989	-0,456999	9,783381	2020-10-13T22:48:06:618
0,495062	-0,455247	9,783560	2020-10-13T22:48:06:637
0,491472	-0,452900	9,783850	2020-10-13T22:48:06:657
0,489588	-0,451230	9,784021	2020-10-13T22:48:06:677
0,490229	-0,448880	9,784098	2020-10-13T22:48:06:698
0,492112	-0,450987	9,783906	2020-10-13T22:48:06:717
0,495010	-0,450409	9,783787	2020-10-13T22:48:06:739
0,497670	-0,449318	9,783702	2020-10-13T22:48:06:758
0,496497	-0,447675	9,783836	2020-10-13T22:48:06:779
0,493661	-0,446365	9,784040	2020-10-13T22:48:06:801
0,493221	-0,447211	9,784023	2020-10-13T22:48:06:819
0,493289	-0,447714	9,783998	2020-10-13T22:48:06:837
0,491808	-0,445746	9,784162	2020-10-13T22:48:06:859
0,491455	-0,444242	9,784247	2020-10-13T22:48:06:877
0,491308	-0,445206	9,784211	2020-10-13T22:48:06:899
0,491423	-0,444883	9,784221	2020-10-13T22:48:06:917
0,490372	-0,445407	9,784249	2020-10-13T22:48:06:941
0,490732	-0,445025	9,784248	2020-10-13T22:48:06:958
0,491019	-0,444501	9,784258	2020-10-13T22:48:06:981
0,490082	-0,441666	9,784433	2020-10-13T22:48:06:999
0,488998	-0,442022	9,784472	2020-10-13T22:48:07:020
0,491580	-0,439555	9,784453	2020-10-13T22:48:07:044
0,491062	-0,444214	9,784268	2020-10-13T22:48:07:060
0,494648	-0,453637	9,783656	2020-10-13T22:48:07:080
0,490448	-0,450659	9,784005	2020-10-13T22:48:07:102
0,491531	-0,448683	9,784041	2020-10-13T22:48:07:118
0,493242	-0,452285	9,783790	2020-10-13T22:48:07:140
0,494048	-0,455689	9,783590	2020-10-13T22:48:07:159
0,493115	-0,454773	9,783681	2020-10-13T22:48:07:204
0,492585	-0,455148	9,783689	2020-10-13T22:48:07:205
0,492333	-0,456264	9,783650	2020-10-13T22:48:07:220
0,493868	-0,457169	9,783531	2020-10-13T22:48:07:238
0,493471	-0,455377	9,783634	2020-10-13T22:48:07:260
0,493354	-0,453962	9,783706	2020-10-13T22:48:07:279
0,493026	-0,452202	9,783804	2020-10-13T22:48:07:298
0,494876	-0,450178	9,783804	2020-10-13T22:48:07:317
0,493478	-0,449728	9,783895	2020-10-13T22:48:07:341
0,494434	-0,450634	9,783806	2020-10-13T22:48:07:358
0,492651	-0,447856	9,784023	2020-10-13T22:48:07:380
0,492693	-0,444911	9,784155	2020-10-13T22:48:07:398
0,496045	-0,445347	9,783966	2020-10-13T22:48:07:420
0,498864	-0,447965	9,783703	2020-10-13T22:48:07:437
0,500119	-0,445883	9,783734	2020-10-13T22:48:07:460
0,502129	-0,446602	9,783598	2020-10-13T22:48:07:479
0,499081	-0,446496	9,783759	2020-10-13T22:48:07:500
0,496878	-0,448413	9,783784	2020-10-13T22:48:07:521
0,497138	-0,448828	9,783751	2020-10-13T22:48:07:540
0,494512	-0,447506	9,783945	2020-10-13T22:48:07:558
0,493938	-0,447934	9,783955	2020-10-13T22:48:07:583
0,495459	-0,449041	9,783827	2020-10-13T22:48:07:598
0,497236	-0,445684	9,783890	2020-10-13T22:48:07:620
0,497120	-0,442294	9,784050	2020-10-13T22:48:07:638
0,496013	-0,444825	9,783991	2020-10-13T22:48:07:660
0,491565	-0,446092	9,784158	2020-10-13T22:48:07:678
0,491751	-0,443431	9,784269	2020-10-13T22:48:07:700
0,490379	-0,444907	9,784271	2020-10-13T22:48:07:718
0,489728	-0,444380	9,784328	2020-10-13T22:48:07:740
0,490077	-0,442937	9,784376	2020-10-13T22:48:07:760
0,489662	-0,440282	9,784516	2020-10-13T22:48:07:783
0,487409	-0,442178	9,784544	2020-10-13T22:48:07:799
0,489238	-0,438974	9,784596	2020-10-13T22:48:07:821
0,485571	-0,437667	9,784838	2020-10-13T22:48:07:844
0,486518	-0,435693	9,784879	2020-10-13T22:48:07:861
0,487063	-0,438509	9,784726	2020-10-13T22:48:07:880
0,488879	-0,439961	9,784571	2020-10-13T22:48:07:902
0,492832	-0,440055	9,784368	2020-10-13T22:48:07:919
0,492665	-0,438950	9,784426	2020-10-13T22:48:07:942
0,493412	-0,438011	9,784431	2020-10-13T22:48:07:959
0,495447	-0,438087	9,784324	2020-10-13T22:48:07:981
0,496652	-0,438024	9,784266	2020-10-13T22:48:08:001
0,495656	-0,438606	9,784290	2020-10-13T22:48:08:031
0,499592	-0,444046	9,783845	2020-10-13T22:48:08:042
0,501108	-0,449016	9,783540	2020-10-13T22:48:08:061
0,500335	-0,449197	9,783571	2020-10-13T22:48:08:092
0,498259	-0,447923	9,783736	2020-10-13T22:48:08:122
0,498788	-0,447627	9,783723	2020-10-13T22:48:08:124
0,499191	-0,448391	9,783667	2020-10-13T22:48:08:141
0,499554	-0,447489	9,783689	2020-10-13T22:48:08:158
0,497785	-0,447018	9,783801	2020-10-13T22:48:08:180
0,499127	-0,447368	9,783717	2020-10-13T22:48:08:198
0,497825	-0,444827	9,783899	2020-10-13T22:48:08:220
0,495179	-0,445916	9,783984	2020-10-13T22:48:08:241
0,496307	-0,445622	9,783940	2020-10-13T22:48:08:260
0,496669	-0,443183	9,784033	2020-10-13T22:48:08:279
0,495854	-0,442997	9,784082	2020-10-13T22:48:08:301
0,496736	-0,443835	9,783999	2020-10-13T22:48:08:318
0,497383	-0,441600	9,784068	2020-10-13T22:48:08:340
0,497015	-0,442090	9,784064	2020-10-13T22:48:08:359
0,496014	-0,440113	9,784204	2020-10-13T22:48:08:381
0,494758	-0,437878	9,784369	2020-10-13T22:48:08:399
0,493555	-0,435816	9,784521	2020-10-13T22:48:08:421
0,490560	-0,437355	9,784603	2020-10-13T22:48:08:439
0,490871	-0,439349	9,784498	2020-10-13T22:48:08:461
0,490441	-0,444956	9,784266	2020-10-13T22:48:08:484
0,487937	-0,446680	9,784313	2020-10-13T22:48:08:501
0,488552	-0,443967	9,784406	2020-10-13T22:48:08:519
0,488903	-0,444962	9,784343	2020-10-13T22:48:08:543
0,490888	-0,445989	9,784197	2020-10-13T22:48:08:560
0,491054	-0,445476	9,784212	2020-10-13T22:48:08:582
0,490763	-0,444989	9,784248	2020-10-13T22:48:08:600
0,488913	-0,443378	9,784414	2020-10-13T22:48:08:622
0,486418	-0,443437	9,784536	2020-10-13T22:48:08:640
0,489284	-0,445644	9,784293	2020-10-13T22:48:08:663
0,492225	-0,446009	9,784129	2020-10-13T22:48:08:680
0,491996	-0,448001	9,784049	2020-10-13T22:48:08:700
0,491841	-0,449285	9,783998	2020-10-13T22:48:08:732
0,491099	-0,445923	9,784189	2020-10-13T22:48:08:740
0,491147	-0,448166	9,784084	2020-10-13T22:48:08:761
0,491735	-0,449467	9,783995	2020-10-13T22:48:08:782
0,493716	-0,453585	9,783706	2020-10-13T22:48:08:821
0,491645	-0,455262	9,783731	2020-10-13T22:48:08:823
0,492230	-0,455759	9,783679	2020-10-13T22:48:08:840
0,492112	-0,456128	9,783668	2020-10-13T22:48:08:863
0,492123	-0,454656	9,783736	2020-10-13T22:48:08:884
0,490747	-0,451183	9,783966	2020-10-13T22:48:08:901
0,490094	-0,452144	9,783954	2020-10-13T22:48:08:919
0,492800	-0,453608	9,783751	2020-10-13T22:48:08:941
0,492799	-0,455624	9,783657	2020-10-13T22:48:08:962
0,492461	-0,454171	9,783741	2020-10-13T22:48:08:981
0,491549	-0,449696	9,783994	2020-10-13T22:48:08:999
0,490108	-0,450603	9,784024	2020-10-13T22:48:09:021
0,490488	-0,455606	9,783773	2020-10-13T22:48:09:040
0,491256	-0,453615	9,783828	2020-10-13T22:48:09:061
0,491250	-0,450082	9,783991	2020-10-13T22:48:09:082
0,492281	-0,448197	9,784026	2020-10-13T22:48:09:101
0,491815	-0,448770	9,784023	2020-10-13T22:48:09:119
0,490910	-0,447469	9,784128	2020-10-13T22:48:09:142
0,488726	-0,444605	9,784368	2020-10-13T22:48:09:160
0,490419	-0,449385	9,784065	2020-10-13T22:48:09:181
0,489655	-0,449557	9,784096	2020-10-13T22:48:09:202
0,489397	-0,451650	9,784012	2020-10-13T22:48:09:221
0,484896	-0,451638	9,784237	2020-10-13T22:48:09:239
0,484538	-0,452884	9,784197	2020-10-13T22:48:09:262
0,486688	-0,447505	9,784337	2020-10-13T22:48:09:280
0,486449	-0,445638	9,784434	2020-10-13T22:48:09:301
0,484189	-0,443403	9,784648	2020-10-13T22:48:09:320
0,486896	-0,443997	9,784487	2020-10-13T22:48:09:342
0,487263	-0,447632	9,784303	2020-10-13T22:48:09:360
0,485947	-0,444538	9,784510	2020-10-13T22:48:09:382
0,484373	-0,444140	9,784606	2020-10-13T22:48:09:405
0,483087	-0,441176	9,784803	2020-10-13T22:48:09:422
0,481219	-0,435037	9,785171	2020-10-13T22:48:09:442
0,483014	-0,434267	9,785116	2020-10-13T22:48:09:462
0,485353	-0,441039	9,784698	2020-10-13T22:48:09:493
0,485584	-0,445717	9,784473	2020-10-13T22:48:09:503
0,485739	-0,445261	9,784487	2020-10-13T22:48:09:520
0,487500	-0,447193	9,784311	2020-10-13T22:48:09:543
0,485538	-0,442035	9,784643	2020-10-13T22:48:09:559
0,483890	-0,439951	9,784819	2020-10-13T22:48:09:582
0,485036	-0,440929	9,784718	2020-10-13T22:48:09:600
0,487527	-0,448484	9,784251	2020-10-13T22:48:09:622
0,488323	-0,451782	9,784060	2020-10-13T22:48:09:640
0,485952	-0,445898	9,784448	2020-10-13T22:48:09:661
0,482190	-0,445548	9,784650	2020-10-13T22:48:09:688
0,484491	-0,447030	9,784468	2020-10-13T22:48:09:703
0,486601	-0,448470	9,784298	2020-10-13T22:48:09:721
0,482405	-0,446732	9,784585	2020-10-13T22:48:09:745
0,482079	-0,446514	9,784611	2020-10-13T22:48:09:761
0,484104	-0,444070	9,784622	2020-10-13T22:48:09:782
0,479887	-0,445879	9,784747	2020-10-13T22:48:09:801
0,482544	-0,445027	9,784656	2020-10-13T22:48:09:822
0,481001	-0,442088	9,784864	2020-10-13T22:48:09:840
0,478132	-0,438891	9,785150	2020-10-13T22:48:09:862
0,476282	-0,438940	9,785237	2020-10-13T22:48:09:881
0,478915	-0,438212	9,785142	2020-10-13T22:48:09:902
0,480050	-0,438514	9,785072	2020-10-13T22:48:09:923
0,480147	-0,441662	9,784926	2020-10-13T22:48:09:942
0,480635	-0,445812	9,784714	2020-10-13T22:48:09:961
0,481142	-0,444155	9,784764	2020-10-13T22:48:09:983
0,479121	-0,443652	9,784886	2020-10-13T22:48:10:000
0,477681	-0,443553	9,784961	2020-10-13T22:48:10:022
0,480318	-0,444501	9,784789	2020-10-13T22:48:10:041
0,481302	-0,443488	9,784787	2020-10-13T22:48:10:062
0,481793	-0,447836	9,784565	2020-10-13T22:48:10:097
0,483233	-0,451832	9,784309	2020-10-13T22:48:10:106
0,484754	-0,450787	9,784283	2020-10-13T22:48:10:122
0,484857	-0,452375	9,784204	2020-10-13T22:48:10:143
0,485228	-0,451111	9,784245	2020-10-13T22:48:10:182
0,487033	-0,448972	9,784253	2020-10-13T22:48:10:183
0,485677	-0,447498	9,784388	2020-10-13T22:48:10:200
0,487022	-0,447528	9,784320	2020-10-13T22:48:10:226
0,488716	-0,449368	9,784151	2020-10-13T22:48:10:240
0,488346	-0,449874	9,784146	2020-10-13T22:48:10:261
0,487118	-0,448405	9,784275	2020-10-13T22:48:10:287
0,486158	-0,449124	9,784289	2020-10-13T22:48:10:302
0,485951	-0,447875	9,784357	2020-10-13T22:48:10:322
0,486895	-0,448760	9,784269	2020-10-13T22:48:10:343
0,485224	-0,447242	9,784422	2020-10-13T22:48:10:366
0,485775	-0,443958	9,784544	2020-10-13T22:48:10:383
0,488700	-0,453795	9,783947	2020-10-13T22:48:10:403
0,489969	-0,454623	9,783846	2020-10-13T22:48:10:422
0,490814	-0,453142	9,783872	2020-10-13T22:48:10:441
0,488776	-0,451985	9,784027	2020-10-13T22:48:10:464
0,490246	-0,451136	9,783993	2020-10-13T22:48:10:481
0,492088	-0,454798	9,783731	2020-10-13T22:48:10:502
0,492470	-0,454147	9,783742	2020-10-13T22:48:10:521
0,491323	-0,455887	9,783719	2020-10-13T22:48:10:543
0,493647	-0,453659	9,783706	2020-10-13T22:48:10:561
0,492189	-0,448675	9,784009	2020-10-13T22:48:10:583
0,491646	-0,450237	9,783964	2020-10-13T22:48:10:601
0,495021	-0,451248	9,783748	2020-10-13T22:48:10:622
0,497382	-0,450184	9,783677	2020-10-13T22:48:10:643
0,496354	-0,447523	9,783851	2020-10-13T22:48:10:662
0,495632	-0,446875	9,783917	2020-10-13T22:48:10:681
0,500176	-0,445087	9,783768	2020-10-13T22:48:10:703
0,499403	-0,451468	9,783515	2020-10-13T22:48:10:721
0,501996	-0,451515	9,783380	2020-10-13T22:48:10:742
0,498431	-0,447302	9,783755	2020-10-13T22:48:10:761
0,497463	-0,446335	9,783849	2020-10-13T22:48:10:785
0,497222	-0,446876	9,783836	2020-10-13T22:48:10:801
0,500648	-0,448707	9,783578	2020-10-13T22:48:10:823
0,502397	-0,452707	9,783304	2020-10-13T22:48:10:841
0,501467	-0,449865	9,783483	2020-10-13T22:48:10:866
0,501012	-0,447383	9,783620	2020-10-13T22:48:10:885
0,499346	-0,448712	9,783645	2020-10-13T22:48:10:903
0,497591	-0,447613	9,783784	2020-10-13T22:48:10:944
0,497243	-0,452165	9,783592	2020-10-13T22:48:10:945
0,495751	-0,453737	9,783595	2020-10-13T22:48:10:965
0,498630	-0,454468	9,783415	2020-10-13T22:48:10:989
0,499374	-0,454442	9,783379	2020-10-13T22:48:11:002
0,498010	-0,448649	9,783715	2020-10-13T22:48:11:023
0,496450	-0,445947	9,783918	2020-10-13T22:48:11:041
0,492778	-0,445048	9,784144	2020-10-13T22:48:11:064
0,495196	-0,444069	9,784067	2020-10-13T22:48:11:094
0,496199	-0,443836	9,784027	2020-10-13T22:48:11:102
0,492622	-0,444149	9,784193	2020-10-13T22:48:11:124
0,491778	-0,443237	9,784277	2020-10-13T22:48:11:144
0,491131	-0,443303	9,784307	2020-10-13T22:48:11:160
0,493346	-0,447168	9,784019	2020-10-13T22:48:11:184
0,495758	-0,447520	9,783881	2020-10-13T22:48:11:200
0,496277	-0,444134	9,784009	2020-10-13T22:48:11:224
0,494024	-0,443792	9,784139	2020-10-13T22:48:11:242
0,493453	-0,444882	9,784119	2020-10-13T22:48:11:263
0,490629	-0,441822	9,784399	2020-10-13T22:48:11:282
0,489518	-0,442565	9,784421	2020-10-13T22:48:11:304
0,488616	-0,442666	9,784461	2020-10-13T22:48:11:322
0,484419	-0,440203	9,784781	2020-10-13T22:48:11:343
0,485795	-0,441695	9,784646	2020-10-13T22:48:11:364
0,484793	-0,438611	9,784834	2020-10-13T22:48:11:385
0,483105	-0,434419	9,785105	2020-10-13T22:48:11:401
0,482112	-0,431797	9,785270	2020-10-13T22:48:11:424
0,481009	-0,426652	9,785550	2020-10-13T22:48:11:442
0,483782	-0,418807	9,785752	2020-10-13T22:48:11:465
0,485204	-0,416432	9,785783	2020-10-13T22:48:11:483
0,486251	-0,420119	9,785573	2020-10-13T22:48:11:504
0,486597	-0,423614	9,785405	2020-10-13T22:48:11:522
0,485848	-0,427801	9,785260	2020-10-13T22:48:11:546
0,479767	-0,422985	9,785769	2020-10-13T22:48:11:561
0,478897	-0,417407	9,786052	2020-10-13T22:48:11:585
0,476469	-0,413356	9,786343	2020-10-13T22:48:11:606
0,475722	-0,413921	9,786355	2020-10-13T22:48:11:626
0,472022	-0,416663	9,786418	2020-10-13T22:48:11:648
0,473260	-0,421033	9,786171	2020-10-13T22:48:11:665
0,471391	-0,425318	9,786076	2020-10-13T22:48:11:684
0,473278	-0,423115	9,786080	2020-10-13T22:48:11:705
0,472993	-0,421620	9,786159	2020-10-13T22:48:11:722
0,471505	-0,423894	9,786132	2020-10-13T22:48:11:743
0,473599	-0,427311	9,785882	2020-10-13T22:48:11:761
0,474195	-0,427971	9,785825	2020-10-13T22:48:11:786
0,473602	-0,427803	9,785861	2020-10-13T22:48:11:801
0,473270	-0,430261	9,785769	2020-10-13T22:48:11:825
0,472337	-0,429469	9,785849	2020-10-13T22:48:11:849
0,472304	-0,429345	9,785856	2020-10-13T22:48:11:865
0,470057	-0,429701	9,785949	2020-10-13T22:48:11:882
0,469368	-0,427285	9,786087	2020-10-13T22:48:11:905
0,468750	-0,428038	9,786084	2020-10-13T22:48:11:922
0,472367	-0,429131	9,785862	2020-10-13T22:48:11:944
0,475708	-0,428366	9,785734	2020-10-13T22:48:11:961
0,475425	-0,426544	9,785828	2020-10-13T22:48:11:985
0,475026	-0,427641	9,785799	2020-10-13T22:48:12:003
0,476912	-0,426977	9,785736	2020-10-13T22:48:12:025
0,477711	-0,427858	9,785659	2020-10-13T22:48:12:043
0,475526	-0,424605	9,785907	2020-10-13T22:48:12:064
0,475470	-0,424455	9,785916	2020-10-13T22:48:12:093
0,474142	-0,427020	9,785869	2020-10-13T22:48:12:106
0,473903	-0,429973	9,785751	2020-10-13T22:48:12:122
0,472205	-0,425884	9,786012	2020-10-13T22:48:12:144
0,471557	-0,424954	9,786083	2020-10-13T22:48:12:162
0,471209	-0,424930	9,786101	2020-10-13T22:48:12:185
0,472993	-0,426774	9,785935	2020-10-13T22:48:12:203
0,475175	-0,425636	9,785879	2020-10-13T22:48:12:224
0,477494	-0,428266	9,785651	2020-10-13T22:48:12:243
0,478032	-0,433095	9,785413	2020-10-13T22:48:12:265
0,482080	-0,431697	9,785275	2020-10-13T22:48:12:283
0,482036	-0,432203	9,785255	2020-10-13T22:48:12:304
0,478654	-0,435987	9,785254	2020-10-13T22:48:12:325
0,479742	-0,437395	9,785137	2020-10-13T22:48:12:345
0,480774	-0,438155	9,785053	2020-10-13T22:48:12:362
0,479849	-0,439339	9,785046	2020-10-13T22:48:12:385
0,480984	-0,444472	9,784758	2020-10-13T22:48:12:403
0,479654	-0,446728	9,784720	2020-10-13T22:48:12:425
0,480131	-0,447315	9,784670	2020-10-13T22:48:12:447
0,481999	-0,450652	9,784425	2020-10-13T22:48:12:465
0,480182	-0,450304	9,784531	2020-10-13T22:48:12:484
0,477043	-0,446567	9,784855	2020-10-13T22:48:12:538
0,477241	-0,447176	9,784818	2020-10-13T22:48:12:539
0,475317	-0,446560	9,784940	2020-10-13T22:48:12:548
0,476557	-0,444882	9,784956	2020-10-13T22:48:12:566
0,475696	-0,442013	9,785128	2020-10-13T22:48:12:587
0,478657	-0,439635	9,785090	2020-10-13T22:48:12:603
0,478691	-0,441055	9,785025	2020-10-13T22:48:12:624
0,479353	-0,439039	9,785083	2020-10-13T22:48:12:649
0,478762	-0,432314	9,785412	2020-10-13T22:48:12:666
0,478339	-0,434351	9,785342	2020-10-13T22:48:12:684
0,477237	-0,438193	9,785224	2020-10-13T22:48:12:707
0,479445	-0,436949	9,785172	2020-10-13T22:48:12:723
0,478541	-0,433090	9,785388	2020-10-13T22:48:12:746
0,481727	-0,435639	9,785118	2020-10-13T22:48:12:763
0,483674	-0,441985	9,784738	2020-10-13T22:48:12:785
0,479689	-0,442771	9,784899	2020-10-13T22:48:12:806
0,476668	-0,439985	9,785172	2020-10-13T22:48:12:826
0,474970	-0,440840	9,785215	2020-10-13T22:48:12:843
0,474691	-0,438708	9,785325	2020-10-13T22:48:12:865
0,473431	-0,440127	9,785322	2020-10-13T22:48:12:883
0,474029	-0,440868	9,785260	2020-10-13T22:48:12:906
0,472156	-0,444035	9,785208	2020-10-13T22:48:12:924
0,471807	-0,443907	9,785230	2020-10-13T22:48:12:945
0,470390	-0,443486	9,785317	2020-10-13T22:48:12:964
0,470410	-0,440067	9,785471	2020-10-13T22:48:12:987
0,471521	-0,439576	9,785439	2020-10-13T22:48:13:003
0,473850	-0,441412	9,785244	2020-10-13T22:48:13:025
0,474259	-0,444623	9,785079	2020-10-13T22:48:13:045
0,474545	-0,447659	9,784926	2020-10-13T22:48:13:066
0,476031	-0,447037	9,784883	2020-10-13T22:48:13:089
0,475912	-0,445651	9,784952	2020-10-13T22:48:13:105
0,474304	-0,444997	9,785060	2020-10-13T22:48:13:123
0,475481	-0,444847	9,785009	2020-10-13T22:48:13:146
0,475248	-0,445459	9,784993	2020-10-13T22:48:13:170
0,477393	-0,447417	9,784800	2020-10-13T22:48:13:186
0,477497	-0,451503	9,784607	2020-10-13T22:48:13:204
0,475485	-0,455419	9,784523	2020-10-13T22:48:13:236
0,475429	-0,453013	9,784637	2020-10-13T22:48:13:246
0,475606	-0,453142	9,784623	2020-10-13T22:48:13:265
0,472895	-0,452213	9,784798	2020-10-13T22:48:13:289
0,473478	-0,450705	9,784839	2020-10-13T22:48:13:308
0,474548	-0,450719	9,784786	2020-10-13T22:48:13:328
0,473226	-0,452941	9,784747	2020-10-13T22:48:13:346
0,472753	-0,454597	9,784694	2020-10-13T22:48:13:364
0,472761	-0,450002	9,784905	2020-10-13T22:48:13:387
0,472255	-0,445745	9,785125	2020-10-13T22:48:13:417
0,473544	-0,447354	9,784989	2020-10-13T22:48:13:426
0,474445	-0,448217	9,784906	2020-10-13T22:48:13:443
0,475115	-0,446739	9,784941	2020-10-13T22:48:13:466
0,476934	-0,444964	9,784934	2020-10-13T22:48:13:484
0,476026	-0,445781	9,784941	2020-10-13T22:48:13:505
0,474767	-0,447977	9,784902	2020-10-13T22:48:13:527
0,478309	-0,450025	9,784635	2020-10-13T22:48:13:547
0,477348	-0,451474	9,784616	2020-10-13T22:48:13:564
0,473778	-0,451617	9,784782	2020-10-13T22:48:13:586
0,470064	-0,453614	9,784869	2020-10-13T22:48:13:604
0,471474	-0,458438	9,784576	2020-10-13T22:48:13:627
0,470756	-0,461031	9,784489	2020-10-13T22:48:13:644
0,469895	-0,463662	9,784406	2020-10-13T22:48:13:666
0,469662	-0,464419	9,784381	2020-10-13T22:48:13:684
0,471797	-0,463584	9,784318	2020-10-13T22:48:13:707
0,469752	-0,461463	9,784517	2020-10-13T22:48:13:724
0,469620	-0,459693	9,784606	2020-10-13T22:48:13:746
0,469654	-0,459910	9,784595	2020-10-13T22:48:13:768
0,469451	-0,457600	9,784713	2020-10-13T22:48:13:788
0,470437	-0,460115	9,784548	2020-10-13T22:48:13:804
0,470143	-0,457720	9,784674	2020-10-13T22:48:13:827
0,470027	-0,454139	9,784846	2020-10-13T22:48:13:844
0,470187	-0,453029	9,784890	2020-10-13T22:48:13:867
0,469645	-0,449612	9,785073	2020-10-13T22:48:13:885
0,469866	-0,447969	9,785138	2020-10-13T22:48:13:906
0,469540	-0,448171	9,785145	2020-10-13T22:48:13:924
0,470037	-0,448572	9,785103	2020-10-13T22:48:13:947
0,468057	-0,448529	9,785199	2020-10-13T22:48:13:964
0,471759	-0,447846	9,785053	2020-10-13T22:48:13:990
0,470863	-0,451489	9,784928	2020-10-13T22:48:14:009
0,472700	-0,450564	9,784883	2020-10-13T22:48:14:028
0,474404	-0,451300	9,784766	2020-10-13T22:48:14:045
0,474570	-0,454860	9,784594	2020-10-13T22:48:14:066
0,474832	-0,455169	9,784566	2020-10-13T22:48:14:099
0,477001	-0,458366	9,784311	2020-10-13T22:48:14:108
0,478311	-0,459363	9,784201	2020-10-13T22:48:14:125
0,478128	-0,461288	9,784120	2020-10-13T22:48:14:148
0,475096	-0,460311	9,784313	2020-10-13T22:48:14:164
0,474932	-0,459689	9,784350	2020-10-13T22:48:14:188
0,476093	-0,458688	9,784341	2020-10-13T22:48:14:204
0,475554	-0,455984	9,784493	2020-10-13T22:48:14:226
0,476347	-0,454614	9,784518	2020-10-13T22:48:14:247
0,477332	-0,453709	9,784513	2020-10-13T22:48:14:267
0,479114	-0,455466	9,784344	2020-10-13T22:48:14:285
0,477230	-0,456964	9,784366	2020-10-13T22:48:14:306
0,478130	-0,455664	9,784383	2020-10-13T22:48:14:324
0,477947	-0,455425	9,784403	2020-10-13T22:48:14:347
0,476110	-0,452140	9,784645	2020-10-13T22:48:14:365
0,475504	-0,450881	9,784732	2020-10-13T22:48:14:387
0,475975	-0,452631	9,784629	2020-10-13T22:48:14:405
0,477322	-0,449886	9,784690	2020-10-13T22:48:14:427
0,478473	-0,450388	9,784610	2020-10-13T22:48:14:446
0,476614	-0,450635	9,784690	2020-10-13T22:48:14:466
0,474222	-0,449069	9,784878	2020-10-13T22:48:14:487
0,474138	-0,446909	9,784981	2020-10-13T22:48:14:514
0,473918	-0,446819	9,784996	2020-10-13T22:48:14:527
0,475970	-0,449021	9,784795	2020-10-13T22:48:14:548
0,473368	-0,450829	9,784839	2020-10-13T22:48:14:565
0,471449	-0,447018	9,785106	2020-10-13T22:48:14:593
0,469422	-0,445886	9,785254	2020-10-13T22:48:14:607
0,471328	-0,448603	9,785039	2020-10-13T22:48:14:628
0,471856	-0,451696	9,784871	2020-10-13T22:48:14:646
0,474709	-0,452064	9,784717	2020-10-13T22:48:14:669
0,476948	-0,448859	9,784755	2020-10-13T22:48:14:685
0,476782	-0,448492	9,784780	2020-10-13T22:48:14:707
0,477133	-0,447012	9,784830	2020-10-13T22:48:14:727
0,478290	-0,448559	9,784703	2020-10-13T22:48:14:748
0,475777	-0,447852	9,784858	2020-10-13T22:48:14:765
0,477978	-0,449486	9,784676	2020-10-13T22:48:14:787
0,477325	-0,449885	9,784690	2020-10-13T22:48:14:805
0,476260	-0,447883	9,784833	2020-10-13T22:48:14:828
0,476987	-0,450036	9,784699	2020-10-13T22:48:14:846
0,477582	-0,451768	9,784590	2020-10-13T22:48:14:867
0,478845	-0,454513	9,784401	2020-10-13T22:48:14:886
0,479788	-0,451366	9,784501	2020-10-13T22:48:14:911
0,478808	-0,443509	9,784908	2020-10-13T22:48:14:925
0,479021	-0,442271	9,784954	2020-10-13T22:48:14:949
0,481168	-0,446312	9,784665	2020-10-13T22:48:14:970
0,482219	-0,446706	9,784595	2020-10-13T22:48:14:988
0,481435	-0,442682	9,784817	2020-10-13T22:48:15:006
0,482254	-0,441316	9,784838	2020-10-13T22:48:15:027
0,477633	-0,445714	9,784865	2020-10-13T22:48:15:045
0,474935	-0,445335	9,785014	2020-10-13T22:48:15:068
0,477921	-0,445155	9,784877	2020-10-13T22:48:15:090
0,475766	-0,446398	9,784925	2020-10-13T22:48:15:108
0,474995	-0,444812	9,785035	2020-10-13T22:48:15:126
0,475068	-0,446879	9,784937	2020-10-13T22:48:15:148
0,474874	-0,444750	9,785044	2020-10-13T22:48:15:165
0,474214	-0,443214	9,785145	2020-10-13T22:48:15:187
0,472739	-0,444064	9,785178	2020-10-13T22:48:15:208
0,471879	-0,443305	9,785254	2020-10-13T22:48:15:228
0,473697	-0,443431	9,785160	2020-10-13T22:48:15:245
0,475932	-0,442843	9,785079	2020-10-13T22:48:15:273
0,472173	-0,443919	9,785212	2020-10-13T22:48:15:287
0,474394	-0,448108	9,784914	2020-10-13T22:48:15:309
0,476009	-0,447343	9,784870	2020-10-13T22:48:15:326
0,476210	-0,442810	9,785067	2020-10-13T22:48:15:359
0,472264	-0,440690	9,785354	2020-10-13T22:48:15:366
0,473908	-0,445030	9,785078	2020-10-13T22:48:15:391
0,473551	-0,448218	9,784949	2020-10-13T22:48:15:405
0,472207	-0,446313	9,785101	2020-10-13T22:48:15:426
0,470169	-0,445284	9,785247	2020-10-13T22:48:15:450
0,474959	-0,446550	9,784957	2020-10-13T22:48:15:469
0,476051	-0,450445	9,784726	2020-10-13T22:48:15:496
0,477917	-0,450980	9,784610	2020-10-13T22:48:15:511
0,478037	-0,450789	9,784613	2020-10-13T22:48:15:526
0,474761	-0,447033	9,784945	2020-10-13T22:48:15:549
0,470194	-0,445547	9,785233	2020-10-13T22:48:15:566
0,471614	-0,445541	9,785165	2020-10-13T22:48:15:588
0,473799	-0,445217	9,785074	2020-10-13T22:48:15:605
0,476852	-0,449076	9,784750	2020-10-13T22:48:15:629
0,477271	-0,451092	9,784636	2020-10-13T22:48:15:645
0,477858	-0,447244	9,784784	2020-10-13T22:48:15:668
0,477265	-0,450723	9,784654	2020-10-13T22:48:15:688
0,477633	-0,450934	9,784626	2020-10-13T22:48:15:708
0,475864	-0,449259	9,784789	2020-10-13T22:48:15:726
0,476275	-0,445263	9,784952	2020-10-13T22:48:15:748
0,477949	-0,446825	9,784800	2020-10-13T22:48:15:766
0,476647	-0,447641	9,784825	2020-10-13T22:48:15:789
0,478838	-0,447655	9,784718	2020-10-13T22:48:15:806
0,476547	-0,446907	9,784863	2020-10-13T22:48:15:828
0,474512	-0,448375	9,784896	2020-10-13T22:48:15:846
0,473419	-0,451104	9,784823	2020-10-13T22:48:15:869
0,472584	-0,450505	9,784891	2020-10-13T22:48:15:887
0,470740	-0,450157	9,784996	2020-10-13T22:48:15:908
0,470210	-0,447975	9,785122	2020-10-13T22:48:15:929
0,470198	-0,446537	9,785188	2020-10-13T22:48:15:949
0,469174	-0,449748	9,785090	2020-10-13T22:48:15:965
0,471611	-0,450544	9,784936	2020-10-13T22:48:15:989
0,472896	-0,451411	9,784834	2020-10-13T22:48:16:006
0,471637	-0,452071	9,784864	2020-10-13T22:48:16:029
0,471911	-0,453648	9,784779	2020-10-13T22:48:16:047
0,475368	-0,453076	9,784637	2020-10-13T22:48:16:068
0,477796	-0,453182	9,784514	2020-10-13T22:48:16:089
0,480638	-0,456904	9,784202	2020-10-13T22:48:16:115
0,479266	-0,457872	9,784225	2020-10-13T22:48:16:126
0,479919	-0,459285	9,784126	2020-10-13T22:48:16:149
0,481622	-0,458762	9,784067	2020-10-13T22:48:16:172
0,480081	-0,461322	9,784022	2020-10-13T22:48:16:192
0,476692	-0,458366	9,784327	2020-10-13T22:48:16:206
0,475107	-0,452487	9,784678	2020-10-13T22:48:16:229
0,474037	-0,453733	9,784672	2020-10-13T22:48:16:248
0,476269	-0,453819	9,784559	2020-10-13T22:48:16:275
0,479475	-0,454507	9,784370	2020-10-13T22:48:16:289
0,479933	-0,454756	9,784337	2020-10-13T22:48:16:309
0,480074	-0,456111	9,784266	2020-10-13T22:48:16:327
0,478563	-0,451967	9,784534	2020-10-13T22:48:16:369
0,478728	-0,447038	9,784752	2020-10-13T22:48:16:371
0,479479	-0,447652	9,784687	2020-10-13T22:48:16:389
0,479421	-0,447929	9,784677	2020-10-13T22:48:16:408
0,479036	-0,443104	9,784915	2020-10-13T22:48:16:431
0,479446	-0,444915	9,784813	2020-10-13T22:48:16:448
0,477762	-0,449949	9,784665	2020-10-13T22:48:16:469
0,477841	-0,451581	9,784586	2020-10-13T22:48:16:487
0,477627	-0,449989	9,784670	2020-10-13T22:48:16:509
0,479016	-0,449240	9,784636	2020-10-13T22:48:16:527
0,480260	-0,446515	9,784700	2020-10-13T22:48:16:549
0,478451	-0,443485	9,784926	2020-10-13T22:48:16:567
0,478627	-0,447951	9,784715	2020-10-13T22:48:16:591
0,478553	-0,451216	9,784568	2020-10-13T22:48:16:607
0,477836	-0,449917	9,784663	2020-10-13T22:48:16:628
0,478038	-0,448112	9,784736	2020-10-13T22:48:16:651
0,478626	-0,444524	9,784871	2020-10-13T22:48:16:669
0,479067	-0,446524	9,784759	2020-10-13T22:48:16:687
0,478671	-0,448754	9,784676	2020-10-13T22:48:16:709
0,480161	-0,450460	9,784524	2020-10-13T22:48:16:727
0,479257	-0,451998	9,784497	2020-10-13T22:48:16:750
0,479550	-0,452905	9,784441	2020-10-13T22:48:16:767
0,475378	-0,449656	9,784795	2020-10-13T22:48:16:789
0,472911	-0,447017	9,785035	2020-10-13T22:48:16:810
0,471558	-0,444841	9,785200	2020-10-13T22:48:16:830
0,473392	-0,444845	9,785111	2020-10-13T22:48:16:848
0,475928	-0,444781	9,784991	2020-10-13T22:48:16:870
0,476181	-0,444435	9,784994	2020-10-13T22:48:16:895
0,473894	-0,443663	9,785140	2020-10-13T22:48:16:915
0,472506	-0,444590	9,785166	2020-10-13T22:48:16:928
0,475029	-0,445766	9,784989	2020-10-13T22:48:16:949
0,474757	-0,444815	9,785047	2020-10-13T22:48:16:971
0,472896	-0,445555	9,785103	2020-10-13T22:48:16:991
0,474692	-0,445024	9,785040	2020-10-13T22:48:17:008
0,475981	-0,444486	9,785002	2020-10-13T22:48:17:029
0,473920	-0,445435	9,785059	2020-10-13T22:48:17:050
0,475135	-0,449468	9,784815	2020-10-13T22:48:17:071
0,473870	-0,446928	9,784993	2020-10-13T22:48:17:101
0,477151	-0,444376	9,784949	2020-10-13T22:48:17:109
0,477661	-0,443398	9,784969	2020-10-13T22:48:17:132
0,480240	-0,440612	9,784968	2020-10-13T22:48:17:151
0,480329	-0,440662	9,784962	2020-10-13T22:48:17:167
0,478708	-0,437215	9,785196	2020-10-13T22:48:17:189
0,477640	-0,436524	9,785279	2020-10-13T22:48:17:207
0,475447	-0,439059	9,785273	2020-10-13T22:48:17:230
0,475852	-0,439934	9,785213	2020-10-13T22:48:17:248
0,479330	-0,440850	9,785003	2020-10-13T22:48:17:269
0,479339	-0,440681	9,785009	2020-10-13T22:48:17:288
0,481426	-0,440035	9,784937	2020-10-13T22:48:17:310
0,478810	-0,438697	9,785125	2020-10-13T22:48:17:328
0,480226	-0,436056	9,785173	2020-10-13T22:48:17:349
0,480049	-0,432109	9,785357	2020-10-13T22:48:17:369
0,480101	-0,434601	9,785244	2020-10-13T22:48:17:391
0,479729	-0,435406	9,785227	2020-10-13T22:48:17:412
0,479493	-0,431397	9,785416	2020-10-13T22:48:17:431
0,479288	-0,430596	9,785461	2020-10-13T22:48:17:448
0,478736	-0,431821	9,785435	2020-10-13T22:48:17:470
0,480127	-0,428200	9,785525	2020-10-13T22:48:17:488
0,478243	-0,423571	9,785819	2020-10-13T22:48:17:509
0,476710	-0,426741	9,785756	2020-10-13T22:48:17:528
0,477221	-0,426668	9,785734	2020-10-13T22:48:17:551
0,478600	-0,423043	9,785825	2020-10-13T22:48:17:569
0,477999	-0,424413	9,785794	2020-10-13T22:48:17:590
0,478195	-0,425749	9,785727	2020-10-13T22:48:17:610
0,482441	-0,423163	9,785631	2020-10-13T22:48:17:630
0,480519	-0,420529	9,785839	2020-10-13T22:48:17:648
0,483024	-0,418839	9,785788	2020-10-13T22:48:17:669
0,482827	-0,417061	9,785873	2020-10-13T22:48:17:688
0,479388	-0,416408	9,786071	2020-10-13T22:48:17:710
0,479157	-0,415891	9,786104	2020-10-13T22:48:17:729
0,480472	-0,421352	9,785806	2020-10-13T22:48:17:749
0,481038	-0,422496	9,785728	2020-10-13T22:48:17:768
0,478249	-0,420271	9,785961	2020-10-13T22:48:17:791
0,480089	-0,419706	9,785895	2020-10-13T22:48:17:808
0,483924	-0,423436	9,785545	2020-10-13T22:48:17:829
0,485948	-0,424479	9,785400	2020-10-13T22:48:17:855
0,485792	-0,420880	9,785563	2020-10-13T22:48:17:871
0,486076	-0,417136	9,785709	2020-10-13T22:48:17:889
0,481912	-0,417748	9,785890	2020-10-13T22:48:17:910
0,482437	-0,421546	9,785701	2020-10-13T22:48:17:929
0,482561	-0,423513	9,785609	2020-10-13T22:48:17:950
0,485819	-0,424203	9,785419	2020-10-13T22:48:17:969
0,486567	-0,425179	9,785339	2020-10-13T22:48:17:999
0,488421	-0,423052	9,785338	2020-10-13T22:48:18:009
0,485950	-0,421894	9,785512	2020-10-13T22:48:18:031
0,485390	-0,424508	9,785426	2020-10-13T22:48:18:051
0,485304	-0,424178	9,785445	2020-10-13T22:48:18:070
0,482450	-0,418481	9,785831	2020-10-13T22:48:18:120
0,481844	-0,414965	9,786011	2020-10-13T22:48:18:121
0,486494	-0,415386	9,785763	2020-10-13T22:48:18:128
0,486906	-0,419379	9,785572	2020-10-13T22:48:18:149
0,485102	-0,417137	9,785758	2020-10-13T22:48:18:176
0,484913	-0,413604	9,785917	2020-10-13T22:48:18:190
0,485229	-0,413204	9,785918	2020-10-13T22:48:18:209
0,484389	-0,417024	9,785798	2020-10-13T22:48:18:231
0,484700	-0,415562	9,785845	2020-10-13T22:48:18:249
0,485332	-0,417050	9,785750	2020-10-13T22:48:18:271
0,485663	-0,414711	9,785833	2020-10-13T22:48:18:289
0,486368	-0,414971	9,785787	2020-10-13T22:48:18:310
0,484276	-0,417454	9,785786	2020-10-13T22:48:18:331
0,486190	-0,417499	9,785688	2020-10-13T22:48:18:351
0,484427	-0,418086	9,785750	2020-10-13T22:48:18:370
0,484409	-0,416775	9,785808	2020-10-13T22:48:18:391
0,484923	-0,417796	9,785739	2020-10-13T22:48:18:409
0,484643	-0,418506	9,785722	2020-10-13T22:48:18:431
0,486129	-0,418311	9,785657	2020-10-13T22:48:18:449
0,483761	-0,417615	9,785804	2020-10-13T22:48:18:470
0,481906	-0,412816	9,786099	2020-10-13T22:48:18:489
0,483022	-0,408181	9,786239	2020-10-13T22:48:18:512
0,484196	-0,406747	9,786241	2020-10-13T22:48:18:529
0,483633	-0,409251	9,786163	2020-10-13T22:48:18:551
0,484055	-0,408845	9,786160	2020-10-13T22:48:18:572
0,485379	-0,410744	9,786015	2020-10-13T22:48:18:592
0,484876	-0,411298	9,786016	2020-10-13T22:48:18:609
0,484033	-0,414665	9,785915	2020-10-13T22:48:18:631
0,479608	-0,414943	9,786122	2020-10-13T22:48:18:649
0,479957	-0,412735	9,786199	2020-10-13T22:48:18:671
0,477569	-0,413538	9,786282	2020-10-13T22:48:18:690
0,478853	-0,416133	9,786108	2020-10-13T22:48:18:710
0,477293	-0,414641	9,786248	2020-10-13T22:48:18:729
0,474908	-0,413296	9,786421	2020-10-13T22:48:18:752
0,475834	-0,411235	9,786463	2020-10-13T22:48:18:769
0,474308	-0,406265	9,786744	2020-10-13T22:48:18:791
0,472238	-0,407670	9,786786	2020-10-13T22:48:18:812
0,472090	-0,411124	9,786649	2020-10-13T22:48:18:833
0,471550	-0,409996	9,786722	2020-10-13T22:48:18:849
0,472163	-0,404812	9,786908	2020-10-13T22:48:18:874
0,471302	-0,404644	9,786957	2020-10-13T22:48:18:891
0,473276	-0,405877	9,786810	2020-10-13T22:48:18:913
0,470323	-0,405080	9,786985	2020-10-13T22:48:18:953
0,471550	-0,406545	9,786866	2020-10-13T22:48:18:954
0,471561	-0,406349	9,786874	2020-10-13T22:48:18:970
0,474289	-0,407445	9,786696	2020-10-13T22:48:18:995
0,472217	-0,408995	9,786732	2020-10-13T22:48:19:009
0,474807	-0,409260	9,786595	2020-10-13T22:48:19:032
0,475265	-0,407096	9,786663	2020-10-13T22:48:19:054
0,473127	-0,406623	9,786787	2020-10-13T22:48:19:114
0,473191	-0,406993	9,786768	2020-10-13T22:48:19:115
0,472008	-0,411689	9,786629	2020-10-13T22:48:19:115
0,469923	-0,410244	9,786790	2020-10-13T22:48:19:129
0,470768	-0,409846	9,786766	2020-10-13T22:48:19:153
0,468844	-0,410119	9,786847	2020-10-13T22:48:19:168
0,466908	-0,410526	9,786922	2020-10-13T22:48:19:191
0,466002	-0,408723	9,787041	2020-10-13T22:48:19:209
0,465494	-0,409035	9,787052	2020-10-13T22:48:19:232
0,463730	-0,404942	9,787306	2020-10-13T22:48:19:249
0,465206	-0,403068	9,787313	2020-10-13T22:48:19:271
0,468482	-0,407032	9,786993	2020-10-13T22:48:19:292
0,467723	-0,409552	9,786924	2020-10-13T22:48:19:312
0,470470	-0,407913	9,786861	2020-10-13T22:48:19:329
0,472364	-0,407418	9,786791	2020-10-13T22:48:19:352
0,473488	-0,407493	9,786733	2020-10-13T22:48:19:369
0,472505	-0,410406	9,786659	2020-10-13T22:48:19:392
0,473534	-0,410116	9,786621	2020-10-13T22:48:19:412
0,471376	-0,409589	9,786748	2020-10-13T22:48:19:431
0,471687	-0,411795	9,786640	2020-10-13T22:48:19:449
0,468655	-0,409473	9,786883	2020-10-13T22:48:19:472
0,469016	-0,407243	9,786959	2020-10-13T22:48:19:490
0,471454	-0,411052	9,786682	2020-10-13T22:48:19:511
0,474991	-0,412189	9,786464	2020-10-13T22:48:19:532
0,476291	-0,414589	9,786299	2020-10-13T22:48:19:553
0,473995	-0,410811	9,786570	2020-10-13T22:48:19:569
0,477042	-0,412959	9,786331	2020-10-13T22:48:19:592
0,477893	-0,414455	9,786226	2020-10-13T22:48:19:609
0,476800	-0,410194	9,786459	2020-10-13T22:48:19:633
0,475877	-0,406822	9,786645	2020-10-13T22:48:19:650
0,478299	-0,409054	9,786434	2020-10-13T22:48:19:675
0,477713	-0,409906	9,786427	2020-10-13T22:48:19:689
0,478509	-0,409092	9,786422	2020-10-13T22:48:19:712
0,479777	-0,410096	9,786318	2020-10-13T22:48:19:730
0,476975	-0,410025	9,786458	2020-10-13T22:48:19:751
0,477972	-0,408694	9,786465	2020-10-13T22:48:19:771
0,478139	-0,408747	9,786454	2020-10-13T22:48:19:793
0,479210	-0,412026	9,786264	2020-10-13T22:48:19:810
0,477931	-0,413222	9,786277	2020-10-13T22:48:19:832
0,478289	-0,411067	9,786350	2020-10-13T22:48:19:856
0,478674	-0,412602	9,786266	2020-10-13T22:48:19:874
0,480106	-0,410600	9,786281	2020-10-13T22:48:19:889
0,478817	-0,410369	9,786353	2020-10-13T22:48:19:916
0,478508	-0,407128	9,786504	2020-10-13T22:48:19:929
0,477029	-0,409168	9,786491	2020-10-13T22:48:19:952
0,475051	-0,410490	9,786532	2020-10-13T22:48:19:971
0,475578	-0,409631	9,786542	2020-10-13T22:48:19:991
0,473588	-0,412072	9,786536	2020-10-13T22:48:20:010
0,474358	-0,415474	9,786355	2020-10-13T22:48:20:033
0,474181	-0,414310	9,786413	2020-10-13T22:48:20:050
0,473677	-0,409887	9,786624	2020-10-13T22:48:20:073
0,475437	-0,411974	9,786451	2020-10-13T22:48:20:091
0,473251	-0,412668	9,786528	2020-10-13T22:48:20:115
0,473771	-0,409540	9,786633	2020-10-13T22:48:20:131
0,475011	-0,412005	9,786470	2020-10-13T22:48:20:152
0,473910	-0,411552	9,786543	2020-10-13T22:48:20:169
0,470311	-0,408446	9,786846	2020-10-13T22:48:20:194
0,470988	-0,408963	9,786793	2020-10-13T22:48:20:211
0,471404	-0,411106	9,786682	2020-10-13T22:48:20:232
0,472652	-0,407695	9,786765	2020-10-13T22:48:20:252
0,471727	-0,403761	9,786973	2020-10-13T22:48:20:274
0,472616	-0,403406	9,786944	2020-10-13T22:48:20:290
0,472817	-0,406193	9,786819	2020-10-13T22:48:20:312
0,474010	-0,407798	9,786695	2020-10-13T22:48:20:331
0,472633	-0,405429	9,786860	2020-10-13T22:48:20:353
0,471228	-0,405975	9,786905	2020-10-13T22:48:20:375
0,467828	-0,401718	9,787244	2020-10-13T22:48:20:393
0,470428	-0,405846	9,786949	2020-10-13T22:48:20:411
0,468991	-0,406424	9,786994	2020-10-13T22:48:20:451
0,469773	-0,406172	9,786967	2020-10-13T22:48:20:452
0,468221	-0,406168	9,787042	2020-10-13T22:48:20:473
0,468885	-0,407815	9,786942	2020-10-13T22:48:20:494
0,469386	-0,408018	9,786909	2020-10-13T22:48:20:512
0,465911	-0,405901	9,787163	2020-10-13T22:48:20:529
0,466116	-0,405914	9,787152	2020-10-13T22:48:20:553
0,465834	-0,408644	9,787052	2020-10-13T22:48:20:571
0,466489	-0,406281	9,787120	2020-10-13T22:48:20:594
0,465918	-0,407653	9,787089	2020-10-13T22:48:20:611
0,462055	-0,408683	9,787230	2020-10-13T22:48:20:637
0,463062	-0,411013	9,787085	2020-10-13T22:48:20:654
0,462750	-0,408273	9,787214	2020-10-13T22:48:20:674
0,461780	-0,405873	9,787360	2020-10-13T22:48:20:696
0,462247	-0,407008	9,787291	2020-10-13T22:48:20:712
0,463399	-0,404713	9,787332	2020-10-13T22:48:20:732
0,463932	-0,405475	9,787274	2020-10-13T22:48:20:754
0,467938	-0,405288	9,787091	2020-10-13T22:48:20:772
0,465410	-0,404992	9,787224	2020-10-13T22:48:20:793
0,465474	-0,404590	9,787238	2020-10-13T22:48:20:811
0,464538	-0,402674	9,787361	2020-10-13T22:48:20:834
0,465235	-0,405364	9,787217	2020-10-13T22:48:20:852
0,468147	-0,407501	9,786989	2020-10-13T22:48:20:873
0,469510	-0,410764	9,786788	2020-10-13T22:48:20:893
0,468942	-0,407716	9,786942	2020-10-13T22:48:20:914
0,470735	-0,408574	9,786820	2020-10-13T22:48:20:931
0,473738	-0,412376	9,786516	2020-10-13T22:48:20:953
0,475471	-0,412098	9,786444	2020-10-13T22:48:20:973
0,474538	-0,408889	9,786624	2020-10-13T22:48:20:994
0,473176	-0,404892	9,786856	2020-10-13T22:48:21:011
0,474805	-0,404580	9,786790	2020-10-13T22:48:21:033
0,473478	-0,406806	9,786762	2020-10-13T22:48:21:051
0,473285	-0,406365	9,786790	2020-10-13T22:48:21:078
0,471117	-0,405830	9,786917	2020-10-13T22:48:21:103
0,471043	-0,403604	9,787012	2020-10-13T22:48:21:112
0,469405	-0,401668	9,787170	2020-10-13T22:48:21:131
0,470937	-0,401483	9,787105	2020-10-13T22:48:21:154
0,474104	-0,402252	9,786920	2020-10-13T22:48:21:172
0,476652	-0,404359	9,786710	2020-10-13T22:48:21:193
0,476105	-0,404264	9,786740	2020-10-13T22:48:21:217
0,476153	-0,405662	9,786680	2020-10-13T22:48:21:234
0,477528	-0,406178	9,786592	2020-10-13T22:48:21:251
0,477727	-0,405738	9,786600	2020-10-13T22:48:21:276
0,477589	-0,408723	9,786483	2020-10-13T22:48:21:293
0,474593	-0,410883	9,786538	2020-10-13T22:48:21:315
0,473880	-0,413715	9,786453	2020-10-13T22:48:21:348
0,470217	-0,412311	9,786689	2020-10-13T22:48:21:354
0,469519	-0,412623	9,786709	2020-10-13T22:48:21:372
0,469646	-0,413880	9,786650	2020-10-13T22:48:21:396
0,469951	-0,414906	9,786592	2020-10-13T22:48:21:415
0,466299	-0,414112	9,786800	2020-10-13T22:48:21:433
0,468051	-0,418017	9,786551	2020-10-13T22:48:21:454
0,469341	-0,417419	9,786514	2020-10-13T22:48:21:476
0,471722	-0,415351	9,786488	2020-10-13T22:48:21:500
0,471248	-0,415442	9,786507	2020-10-13T22:48:21:514
0,470187	-0,409264	9,786819	2020-10-13T22:48:21:532
0,470665	-0,407403	9,786873	2020-10-13T22:48:21:558
0,469923	-0,407417	9,786908	2020-10-13T22:48:21:572
0,471856	-0,408315	9,786777	2020-10-13T22:48:21:593
0,470969	-0,413183	9,786616	2020-10-13T22:48:21:612
0,472279	-0,409878	9,786692	2020-10-13T22:48:21:636
0,474977	-0,407945	9,786642	2020-10-13T22:48:21:652
0,469855	-0,408325	9,786874	2020-10-13T22:48:21:673
0,468955	-0,408402	9,786913	2020-10-13T22:48:21:694
0,469229	-0,408524	9,786895	2020-10-13T22:48:21:715
0,471781	-0,410553	9,786688	2020-10-13T22:48:21:732
0,475057	-0,410727	9,786522	2020-10-13T22:48:21:754
0,474150	-0,409658	9,786611	2020-10-13T22:48:21:772
0,470800	-0,406742	9,786894	2020-10-13T22:48:21:795
0,473078	-0,411349	9,786592	2020-10-13T22:48:21:812
0,471836	-0,412757	9,786592	2020-10-13T22:48:21:834
0,470650	-0,411191	9,786716	2020-10-13T22:48:21:852
0,468589	-0,406774	9,786999	2020-10-13T22:48:21:875
0,470226	-0,407727	9,786880	2020-10-13T22:48:21:892
0,470434	-0,407688	9,786872	2020-10-13T22:48:21:913
0,467620	-0,407432	9,787018	2020-10-13T22:48:21:936
0,467810	-0,404899	9,787114	2020-10-13T22:48:21:956
0,465351	-0,404352	9,787253	2020-10-13T22:48:21:973
0,464522	-0,406790	9,787192	2020-10-13T22:48:21:995
0,464751	-0,407031	9,787171	2020-10-13T22:48:22:030
0,466427	-0,406462	9,787115	2020-10-13T22:48:22:052
0,464544	-0,403473	9,787328	2020-10-13T22:48:22:190
0,466664	-0,403206	9,787238	2020-10-13T22:48:22:191
0,466231	-0,401070	9,787347	2020-10-13T22:48:22:222
0,467237	-0,402887	9,787224	2020-10-13T22:48:22:222
0,469051	-0,405541	9,787027	2020-10-13T22:48:22:223
0,468502	-0,404293	9,787106	2020-10-13T22:48:22:226
0,467905	-0,405696	9,787076	2020-10-13T22:48:22:227
0,464450	-0,403588	9,787328	2020-10-13T22:48:22:346
0,460820	-0,403646	9,787498	2020-10-13T22:48:22:347
0,458438	-0,404796	9,787561	2020-10-13T22:48:22:347
0,458648	-0,406242	9,787492	2020-10-13T22:48:22:348
0,460023	-0,406230	9,787428	2020-10-13T22:48:22:348
0,459805	-0,404291	9,787519	2020-10-13T22:48:22:348
0,459578	-0,403941	9,787543	2020-10-13T22:48:22:349
0,460832	-0,401910	9,787568	2020-10-13T22:48:22:349
0,459435	-0,399302	9,787741	2020-10-13T22:48:22:383
0,457780	-0,398523	9,787849	2020-10-13T22:48:22:385
0,459114	-0,397103	9,787845	2020-10-13T22:48:22:428
0,457573	-0,396216	9,787953	2020-10-13T22:48:22:433
0,459316	-0,395624	9,787895	2020-10-13T22:48:22:437
0,457855	-0,392905	9,788074	2020-10-13T22:48:22:453
0,458353	-0,393781	9,788014	2020-10-13T22:48:22:482
0,459685	-0,395207	9,787895	2020-10-13T22:48:22:491
0,462707	-0,395438	9,787743	2020-10-13T22:48:22:513
0,463262	-0,396274	9,787683	2020-10-13T22:48:22:531
0,465746	-0,400121	9,787409	2020-10-13T22:48:22:554
0,464153	-0,399515	9,787509	2020-10-13T22:48:22:573
0,468421	-0,399181	9,787319	2020-10-13T22:48:22:597
0,468639	-0,399240	9,787307	2020-10-13T22:48:22:612
0,469109	-0,402787	9,787139	2020-10-13T22:48:22:634
0,469147	-0,405049	9,787044	2020-10-13T22:48:22:656
0,467634	-0,402128	9,787236	2020-10-13T22:48:22:679
0,463535	-0,399787	9,787527	2020-10-13T22:48:22:695
0,464669	-0,401715	9,787395	2020-10-13T22:48:22:716
0,466511	-0,401601	9,787312	2020-10-13T22:48:22:733
0,464189	-0,399941	9,787490	2020-10-13T22:48:22:755
0,467619	-0,401504	9,787263	2020-10-13T22:48:22:773
0,466817	-0,403298	9,787228	2020-10-13T22:48:22:795
0,466093	-0,403008	9,787273	2020-10-13T22:48:22:813
0,465372	-0,403580	9,787285	2020-10-13T22:48:22:836
0,467791	-0,402670	9,787207	2020-10-13T22:48:22:853
0,471530	-0,402610	9,787029	2020-10-13T22:48:22:875
0,470965	-0,404502	9,786979	2020-10-13T22:48:22:896
0,468844	-0,407728	9,786947	2020-10-13T22:48:22:919
0,466452	-0,406185	9,787126	2020-10-13T22:48:22:934
0,465370	-0,406143	9,787178	2020-10-13T22:48:22:956
0,465929	-0,409215	9,787024	2020-10-13T22:48:22:975
0,465720	-0,407394	9,787109	2020-10-13T22:48:23:001
0,464292	-0,410999	9,787027	2020-10-13T22:48:23:015
0,464045	-0,411897	9,787001	2020-10-13T22:48:23:035
0,462114	-0,410525	9,787150	2020-10-13T22:48:23:057
0,460903	-0,409877	9,787234	2020-10-13T22:48:23:076
0,462128	-0,407967	9,787256	2020-10-13T22:48:23:107
0,464387	-0,406365	9,787216	2020-10-13T22:48:23:116
0,466151	-0,406796	9,787114	2020-10-13T22:48:23:137
0,467656	-0,406504	9,787054	2020-10-13T22:48:23:163
0,469548	-0,406611	9,786960	2020-10-13T22:48:23:173
0,468254	-0,409201	9,786914	2020-10-13T22:48:23:196
0,466651	-0,408807	9,787006	2020-10-13T22:48:23:213
0,467515	-0,406511	9,787061	2020-10-13T22:48:23:238
0,467446	-0,407900	9,787006	2020-10-13T22:48:23:253
0,464472	-0,408862	9,787107	2020-10-13T22:48:23:274
0,462923	-0,404035	9,787382	2020-10-13T22:48:23:293
0,461430	-0,398794	9,787667	2020-10-13T22:48:23:316
0,460706	-0,397184	9,787766	2020-10-13T22:48:23:333
0,458121	-0,397938	9,787857	2020-10-13T22:48:23:355
0,460604	-0,399432	9,787680	2020-10-13T22:48:23:375
0,462666	-0,397828	9,787648	2020-10-13T22:48:23:396
0,462491	-0,396653	9,787704	2020-10-13T22:48:23:413
0,460068	-0,393159	9,787959	2020-10-13T22:48:23:436
0,460938	-0,394125	9,787880	2020-10-13T22:48:23:467
0,463623	-0,393603	9,787774	2020-10-13T22:48:23:477
0,464215	-0,394390	9,787714	2020-10-13T22:48:23:523
0,466357	-0,395192	9,787580	2020-10-13T22:48:23:524
0,465256	-0,392306	9,787748	2020-10-13T22:48:23:534
0,465673	-0,398145	9,787493	2020-10-13T22:48:23:556
0,466203	-0,398595	9,787449	2020-10-13T22:48:23:573
0,463201	-0,397102	9,787652	2020-10-13T22:48:23:594
0,464515	-0,397179	9,787587	2020-10-13T22:48:23:619
0,461164	-0,395044	9,787832	2020-10-13T22:48:23:636
0,460860	-0,397120	9,787762	2020-10-13T22:48:23:653
0,462438	-0,398730	9,787622	2020-10-13T22:48:23:675
0,465349	-0,398480	9,787495	2020-10-13T22:48:23:694
0,467256	-0,400458	9,787323	2020-10-13T22:48:23:718
0,465511	-0,404601	9,787235	2020-10-13T22:48:23:733
0,460830	-0,401132	9,787600	2020-10-13T22:48:23:755
0,461336	-0,402441	9,787522	2020-10-13T22:48:23:775
0,462810	-0,399708	9,787565	2020-10-13T22:48:23:799
0,462518	-0,402983	9,787444	2020-10-13T22:48:23:817
0,462493	-0,407051	9,787277	2020-10-13T22:48:23:836
0,461833	-0,404837	9,787400	2020-10-13T22:48:23:857
0,462911	-0,405029	9,787341	2020-10-13T22:48:23:876
0,464633	-0,402865	9,787349	2020-10-13T22:48:23:893
0,461295	-0,404513	9,787439	2020-10-13T22:48:23:915
0,459300	-0,400806	9,787685	2020-10-13T22:48:23:934
0,455510	-0,398374	9,787962	2020-10-13T22:48:23:965
0,453018	-0,395708	9,788185	2020-10-13T22:48:23:974
0,454606	-0,398324	9,788006	2020-10-13T22:48:23:995
0,454380	-0,396105	9,788106	2020-10-13T22:48:24:015
0,454182	-0,398066	9,788036	2020-10-13T22:48:24:036
0,454291	-0,395173	9,788148	2020-10-13T22:48:24:053
0,455327	-0,394370	9,788133	2020-10-13T22:48:24:079
0,456668	-0,392358	9,788151	2020-10-13T22:48:24:101
0,457154	-0,394256	9,788052	2020-10-13T22:48:24:118
0,457934	-0,395236	9,787975	2020-10-13T22:48:24:134
0,458446	-0,394246	9,787992	2020-10-13T22:48:24:156
0,460512	-0,395838	9,787830	2020-10-13T22:48:24:174
0,463562	-0,396591	9,787656	2020-10-13T22:48:24:197
0,465891	-0,395100	9,787605	2020-10-13T22:48:24:214
0,465335	-0,399076	9,787471	2020-10-13T22:48:24:236
0,464204	-0,404256	9,787312	2020-10-13T22:48:24:254
0,466198	-0,403437	9,787251	2020-10-13T22:48:24:277
0,463275	-0,402059	9,787446	2020-10-13T22:48:24:295
0,463938	-0,401591	9,787435	2020-10-13T22:48:24:316
0,461848	-0,403615	9,787450	2020-10-13T22:48:24:338
0,461354	-0,404099	9,787454	2020-10-13T22:48:24:357
0,462451	-0,399922	9,787573	2020-10-13T22:48:24:374
0,463153	-0,399398	9,787561	2020-10-13T22:48:24:397
0,464398	-0,401229	9,787427	2020-10-13T22:48:24:414
0,465226	-0,402194	9,787349	2020-10-13T22:48:24:437
0,465347	-0,397504	9,787535	2020-10-13T22:48:24:455
0,468330	-0,396668	9,787426	2020-10-13T22:48:24:476
0,467175	-0,393767	9,787599	2020-10-13T22:48:24:495
0,466201	-0,390872	9,787761	2020-10-13T22:48:24:517
0,466904	-0,391024	9,787721	2020-10-13T22:48:24:536
0,466760	-0,392823	9,787656	2020-10-13T22:48:24:557
0,468128	-0,397916	9,787385	2020-10-13T22:48:24:579
0,468482	-0,398055	9,787362	2020-10-13T22:48:24:599
0,469396	-0,399354	9,787266	2020-10-13T22:48:24:622
0,470428	-0,397527	9,787291	2020-10-13T22:48:24:637
0,473263	-0,397663	9,787148	2020-10-13T22:48:24:654
0,475650	-0,397135	9,787054	2020-10-13T22:48:24:680
0,475743	-0,395845	9,787102	2020-10-13T22:48:24:695
0,475990	-0,396482	9,787064	2020-10-13T22:48:24:716
0,478255	-0,394192	9,787046	2020-10-13T22:48:24:734
0,477124	-0,393068	9,787147	2020-10-13T22:48:24:763
0,477290	-0,395840	9,787026	2020-10-13T22:48:24:775
0,478866	-0,393895	9,787028	2020-10-13T22:48:24:797
0,479534	-0,389275	9,787180	2020-10-13T22:48:24:815
0,478531	-0,389180	9,787233	2020-10-13T22:48:24:837
0,478572	-0,390983	9,787159	2020-10-13T22:48:24:856
0,481627	-0,390171	9,787042	2020-10-13T22:48:24:877
0,480202	-0,386265	9,787267	2020-10-13T22:48:24:895
0,481574	-0,387976	9,787131	2020-10-13T22:48:24:918
0,482595	-0,388543	9,787059	2020-10-13T22:48:24:936
0,480217	-0,388606	9,787173	2020-10-13T22:48:24:957
0,479050	-0,389016	9,787214	2020-10-13T22:48:24:976
0,477586	-0,389011	9,787286	2020-10-13T22:48:24:998
0,476799	-0,392587	9,787182	2020-10-13T22:48:25:015
0,477951	-0,387497	9,787328	2020-10-13T22:48:25:037
0,479210	-0,388774	9,787216	2020-10-13T22:48:25:059
0,480148	-0,390998	9,787082	2020-10-13T22:48:25:085
0,480707	-0,393285	9,786963	2020-10-13T22:48:25:101
0,480603	-0,393660	9,786952	2020-10-13T22:48:25:117
0,482963	-0,394290	9,786811	2020-10-13T22:48:25:136
0,482479	-0,399040	9,786642	2020-10-13T22:48:25:160
0,483225	-0,398669	9,786620	2020-10-13T22:48:25:176
0,482112	-0,394959	9,786826	2020-10-13T22:48:25:201
0,481812	-0,393506	9,786900	2020-10-13T22:48:25:216
0,480563	-0,393470	9,786962	2020-10-13T22:48:25:245
0,480321	-0,397648	9,786805	2020-10-13T22:48:25:260
0,480760	-0,397490	9,786790	2020-10-13T22:48:25:277
0,479290	-0,395012	9,786963	2020-10-13T22:48:25:302
0,479053	-0,393875	9,787020	2020-10-13T22:48:25:319
0,476479	-0,392061	9,787218	2020-10-13T22:48:25:334
0,473232	-0,390985	9,787418	2020-10-13T22:48:25:359
0,471704	-0,391942	9,787455	2020-10-13T22:48:25:376
0,472691	-0,391771	9,787414	2020-10-13T22:48:25:398
0,472557	-0,388739	9,787540	2020-10-13T22:48:25:418
0,476578	-0,390921	9,787259	2020-10-13T22:48:25:439
0,476644	-0,391739	9,787223	2020-10-13T22:48:25:456
0,479147	-0,391843	9,787097	2020-10-13T22:48:25:479
0,474432	-0,388798	9,787448	2020-10-13T22:48:25:499
0,472359	-0,390082	9,787497	2020-10-13T22:48:25:517
0,474753	-0,392906	9,787269	2020-10-13T22:48:25:538
0,475524	-0,391044	9,787305	2020-10-13T22:48:25:558
0,475138	-0,387085	9,787481	2020-10-13T22:48:25:575
0,472130	-0,388787	9,787560	2020-10-13T22:48:25:598
0,472494	-0,392106	9,787410	2020-10-13T22:48:25:616
0,472928	-0,390146	9,787467	2020-10-13T22:48:25:638
0,471171	-0,389056	9,787595	2020-10-13T22:48:25:656
0,472682	-0,391872	9,787410	2020-10-13T22:48:25:677
0,469278	-0,390120	9,787643	2020-10-13T22:48:25:696
0,468050	-0,388678	9,787760	2020-10-13T22:48:25:719
0,464639	-0,389188	9,787902	2020-10-13T22:48:25:736
0,464063	-0,388713	9,787949	2020-10-13T22:48:25:757
0,465364	-0,389679	9,787848	2020-10-13T22:48:25:778
0,467640	-0,389789	9,787735	2020-10-13T22:48:25:799
0,465445	-0,390176	9,787825	2020-10-13T22:48:25:817
0,463712	-0,384458	9,788133	2020-10-13T22:48:25:838
0,462668	-0,384176	9,788194	2020-10-13T22:48:25:867
0,463533	-0,383110	9,788195	2020-10-13T22:48:25:879
0,465221	-0,386979	9,787962	2020-10-13T22:48:25:897
0,465889	-0,389033	9,787848	2020-10-13T22:48:25:917
0,464112	-0,389469	9,787916	2020-10-13T22:48:25:936
0,461861	-0,390342	9,787988	2020-10-13T22:48:25:959
0,462154	-0,390486	9,787968	2020-10-13T22:48:25:976
0,461382	-0,391154	9,787978	2020-10-13T22:48:25:998
0,460508	-0,388523	9,788124	2020-10-13T22:48:26:022
0,461134	-0,393839	9,787882	2020-10-13T22:48:26:038
0,462831	-0,396599	9,787690	2020-10-13T22:48:26:057
0,463448	-0,401234	9,787472	2020-10-13T22:48:26:084
0,462152	-0,401399	9,787527	2020-10-13T22:48:26:122
0,461208	-0,399932	9,787631	2020-10-13T22:48:26:124
0,465331	-0,397616	9,787531	2020-10-13T22:48:26:136
0,467382	-0,396249	9,787488	2020-10-13T22:48:26:157
0,467767	-0,398150	9,787393	2020-10-13T22:48:26:176
0,466496	-0,401610	9,787312	2020-10-13T22:48:26:199
0,466304	-0,400157	9,787380	2020-10-13T22:48:26:216
0,466925	-0,401918	9,787279	2020-10-13T22:48:26:237
0,464524	-0,402356	9,787375	2020-10-13T22:48:26:262
0,464126	-0,403843	9,787333	2020-10-13T22:48:26:280
0,463714	-0,402487	9,787408	2020-10-13T22:48:26:298
0,460140	-0,405703	9,787444	2020-10-13T22:48:26:320
0,461658	-0,410265	9,787183	2020-10-13T22:48:26:336
0,459756	-0,413140	9,787151	2020-10-13T22:48:26:359
0,458222	-0,413586	9,787204	2020-10-13T22:48:26:377
0,458910	-0,416820	9,787035	2020-10-13T22:48:26:398
0,458938	-0,419722	9,786909	2020-10-13T22:48:26:416
0,458857	-0,418524	9,786964	2020-10-13T22:48:26:439
0,455488	-0,419207	9,787092	2020-10-13T22:48:26:456
0,455687	-0,416405	9,787203	2020-10-13T22:48:26:478
0,456309	-0,414357	9,787261	2020-10-13T22:48:26:499
0,456178	-0,415915	9,787201	2020-10-13T22:48:26:520
0,458423	-0,416218	9,787083	2020-10-13T22:48:26:536
0,458941	-0,412824	9,787203	2020-10-13T22:48:26:559
0,460284	-0,411615	9,787190	2020-10-13T22:48:26:576
0,458406	-0,409138	9,787382	2020-10-13T22:48:26:600
0,457795	-0,407103	9,787496	2020-10-13T22:48:26:617
0,459257	-0,406590	9,787449	2020-10-13T22:48:26:639
0,455475	-0,408413	9,787549	2020-10-13T22:48:26:656
0,455872	-0,409939	9,787467	2020-10-13T22:48:26:680
0,458260	-0,412208	9,787260	2020-10-13T22:48:26:697
0,458365	-0,410441	9,787330	2020-10-13T22:48:26:718
0,457122	-0,411741	9,787333	2020-10-13T22:48:26:740
0,459046	-0,411112	9,787270	2020-10-13T22:48:26:764
0,457115	-0,407906	9,787495	2020-10-13T22:48:26:777
0,457606	-0,408195	9,787459	2020-10-13T22:48:26:799
0,456833	-0,413859	9,787257	2020-10-13T22:48:26:817
0,455827	-0,409245	9,787498	2020-10-13T22:48:26:841
0,457533	-0,406297	9,787541	2020-10-13T22:48:26:857
0,457904	-0,406974	9,787497	2020-10-13T22:48:26:879
0,458976	-0,407407	9,787428	2020-10-13T22:48:26:898
0,459300	-0,402802	9,787603	2020-10-13T22:48:26:920
0,463484	-0,400836	9,787487	2020-10-13T22:48:26:937
0,465188	-0,401169	9,787393	2020-10-13T22:48:26:958
0,466566	-0,397448	9,787478	2020-10-13T22:48:26:992
0,466915	-0,396497	9,787500	2020-10-13T22:48:27:002
0,467343	-0,399048	9,787376	2020-10-13T22:48:27:016
0,468695	-0,400807	9,787240	2020-10-13T22:48:27:038
0,469071	-0,399497	9,787275	2020-10-13T22:48:27:056
0,466341	-0,401053	9,787342	2020-10-13T22:48:27:092
0,464673	-0,402935	9,787344	2020-10-13T22:48:27:096
0,464169	-0,399858	9,787495	2020-10-13T22:48:27:119
0,465166	-0,402642	9,787333	2020-10-13T22:48:27:137
0,467177	-0,405061	9,787137	2020-10-13T22:48:27:160
0,468577	-0,405837	9,787038	2020-10-13T22:48:27:177
0,468112	-0,405723	9,787066	2020-10-13T22:48:27:199
0,467700	-0,407503	9,787011	2020-10-13T22:48:27:220
0,465377	-0,406041	9,787183	2020-10-13T22:48:27:241
0,467873	-0,405781	9,787074	2020-10-13T22:48:27:257
0,470148	-0,405669	9,786970	2020-10-13T22:48:27:279
0,469765	-0,405037	9,787014	2020-10-13T22:48:27:298
0,470874	-0,402674	9,787059	2020-10-13T22:48:27:319
0,471940	-0,403001	9,786994	2020-10-13T22:48:27:337
0,472682	-0,400486	9,787061	2020-10-13T22:48:27:358
0,472805	-0,399777	9,787085	2020-10-13T22:48:27:377
0,474964	-0,401394	9,786914	2020-10-13T22:48:27:401
0,472972	-0,407148	9,786773	2020-10-13T22:48:27:417
0,475028	-0,405444	9,786743	2020-10-13T22:48:27:440
0,473448	-0,402665	9,786935	2020-10-13T22:48:27:459
0,470973	-0,401947	9,787084	2020-10-13T22:48:27:481
0,475084	-0,406565	9,786695	2020-10-13T22:48:27:497
0,477732	-0,408946	9,786467	2020-10-13T22:48:27:519
0,477299	-0,406899	9,786572	2020-10-13T22:48:27:538
0,477734	-0,406636	9,786562	2020-10-13T22:48:27:566
0,475386	-0,406985	9,786662	2020-10-13T22:48:27:578
0,477284	-0,405648	9,786625	2020-10-13T22:48:27:600
0,476889	-0,405124	9,786666	2020-10-13T22:48:27:618
0,478412	-0,404579	9,786614	2020-10-13T22:48:27:647
0,476434	-0,405429	9,786675	2020-10-13T22:48:27:659
0,477492	-0,405704	9,786613	2020-10-13T22:48:27:680
0,475644	-0,406956	9,786651	2020-10-13T22:48:27:705
0,476146	-0,408470	9,786563	2020-10-13T22:48:27:722
0,475715	-0,405827	9,786695	2020-10-13T22:48:27:738
0,471476	-0,404128	9,786970	2020-10-13T22:48:27:760
0,471007	-0,404984	9,786957	2020-10-13T22:48:27:804
0,469650	-0,401906	9,787149	2020-10-13T22:48:27:805
0,470638	-0,404163	9,787008	2020-10-13T22:48:27:818
0,472688	-0,409302	9,786696	2020-10-13T22:48:27:840
0,476313	-0,411529	9,786427	2020-10-13T22:48:27:857
0,476673	-0,411457	9,786412	2020-10-13T22:48:27:881
0,476423	-0,408915	9,786531	2020-10-13T22:48:27:899
0,475361	-0,405981	9,786705	2020-10-13T22:48:27:919
0,473745	-0,402272	9,786937	2020-10-13T22:48:27:940
0,474777	-0,404476	9,786796	2020-10-13T22:48:27:961
0,476457	-0,409310	9,786513	2020-10-13T22:48:27:978
0,475849	-0,407429	9,786621	2020-10-13T22:48:28:000
0,475945	-0,404569	9,786736	2020-10-13T22:48:28:018
0,474379	-0,403313	9,786863	2020-10-13T22:48:28:041
0,474744	-0,401334	9,786926	2020-10-13T22:48:28:058
0,472553	-0,394598	9,787307	2020-10-13T22:48:28:091
0,472791	-0,395807	9,787247	2020-10-13T22:48:28:104
0,471934	-0,394021	9,787359	2020-10-13T22:48:28:121
0,473245	-0,392198	9,787370	2020-10-13T22:48:28:138
0,477583	-0,395542	9,787024	2020-10-13T22:48:28:160
0,475576	-0,397572	9,787040	2020-10-13T22:48:28:181
0,476448	-0,400017	9,786898	2020-10-13T22:48:28:201
0,471129	-0,397179	9,787271	2020-10-13T22:48:28:219
0,469304	-0,395070	9,787444	2020-10-13T22:48:28:242
0,468360	-0,395853	9,787457	2020-10-13T22:48:28:259
0,471148	-0,398894	9,787200	2020-10-13T22:48:28:281
0,470797	-0,399645	9,787187	2020-10-13T22:48:28:299
0,473161	-0,403314	9,786922	2020-10-13T22:48:28:320
0,474565	-0,403292	9,786855	2020-10-13T22:48:28:339
0,476192	-0,408508	9,786559	2020-10-13T22:48:28:362
0,476604	-0,410425	9,786459	2020-10-13T22:48:28:379
0,475387	-0,403582	9,786803	2020-10-13T22:48:28:403
0,473815	-0,397885	9,787112	2020-10-13T22:48:28:422
0,473137	-0,395101	9,787258	2020-10-13T22:48:28:442
0,474771	-0,397902	9,787066	2020-10-13T22:48:28:458
0,474514	-0,398463	9,787055	2020-10-13T22:48:28:494
0,473738	-0,398387	9,787096	2020-10-13T22:48:28:501
0,472399	-0,398415	9,787159	2020-10-13T22:48:28:522
0,471188	-0,397141	9,787270	2020-10-13T22:48:28:539
0,473929	-0,398487	9,787083	2020-10-13T22:48:28:560
0,474643	-0,396940	9,787110	2020-10-13T22:48:28:577
0,475354	-0,402370	9,786855	2020-10-13T22:48:28:601
0,476896	-0,405895	9,786633	2020-10-13T22:48:28:618
0,477229	-0,407276	9,786560	2020-10-13T22:48:28:640
0,478080	-0,408845	9,786453	2020-10-13T22:48:28:663
0,476970	-0,412221	9,786366	2020-10-13T22:48:28:683
0,476667	-0,411626	9,786406	2020-10-13T22:48:28:699
0,475110	-0,413089	9,786420	2020-10-13T22:48:28:721
0,473575	-0,413237	9,786488	2020-10-13T22:48:28:739
0,473035	-0,411900	9,786571	2020-10-13T22:48:28:762
0,471762	-0,411336	9,786655	2020-10-13T22:48:28:779
0,473461	-0,413666	9,786475	2020-10-13T22:48:28:801
0,472526	-0,414457	9,786487	2020-10-13T22:48:28:819
0,470416	-0,414079	9,786605	2020-10-13T22:48:28:842
0,471261	-0,413037	9,786608	2020-10-13T22:48:28:859
0,469977	-0,412074	9,786711	2020-10-13T22:48:28:881
0,467813	-0,409308	9,786930	2020-10-13T22:48:28:904
0,470608	-0,412414	9,786666	2020-10-13T22:48:28:923
0,472181	-0,413276	9,786553	2020-10-13T22:48:28:938
0,473342	-0,410082	9,786632	2020-10-13T22:48:28:961
0,476162	-0,412205	9,786406	2020-10-13T22:48:28:979
0,476854	-0,414746	9,786264	2020-10-13T22:48:29:001
0,476555	-0,415051	9,786266	2020-10-13T22:48:29:019
0,475605	-0,414287	9,786345	2020-10-13T22:48:29:041
0,472177	-0,413929	9,786527	2020-10-13T22:48:29:060
0,472950	-0,412150	9,786564	2020-10-13T22:48:29:103
0,476946	-0,414936	9,786252	2020-10-13T22:48:29:104
0,477681	-0,414195	9,786248	2020-10-13T22:48:29:121
0,477131	-0,418911	9,786074	2020-10-13T22:48:29:145
0,477398	-0,424216	9,785832	2020-10-13T22:48:29:168
0,480515	-0,430546	9,785403	2020-10-13T22:48:29:180
0,478951	-0,425623	9,785695	2020-10-13T22:48:29:201
0,473965	-0,421708	9,786108	2020-10-13T22:48:29:221
0,472400	-0,418354	9,786327	2020-10-13T22:48:29:241
0,472994	-0,416370	9,786384	2020-10-13T22:48:29:259
0,474678	-0,418329	9,786218	2020-10-13T22:48:29:281
0,475621	-0,419393	9,786127	2020-10-13T22:48:29:299
0,474907	-0,418978	9,786180	2020-10-13T22:48:29:322
0,470930	-0,416939	9,786459	2020-10-13T22:48:29:339
0,468374	-0,419407	9,786476	2020-10-13T22:48:29:361
0,468972	-0,419035	9,786463	2020-10-13T22:48:29:381
0,470801	-0,417147	9,786456	2020-10-13T22:48:29:402
0,470127	-0,417159	9,786488	2020-10-13T22:48:29:419
0,471576	-0,419000	9,786340	2020-10-13T22:48:29:442
0,471905	-0,422930	9,786155	2020-10-13T22:48:29:459
0,471965	-0,423296	9,786136	2020-10-13T22:48:29:489
0,472003	-0,422068	9,786187	2020-10-13T22:48:29:501
0,469659	-0,422068	9,786300	2020-10-13T22:48:29:522
0,467206	-0,422097	9,786416	2020-10-13T22:48:29:540
0,468501	-0,421695	9,786371	2020-10-13T22:48:29:572
0,469309	-0,424431	9,786215	2020-10-13T22:48:29:580
0,469785	-0,425849	9,786130	2020-10-13T22:48:29:603
0,469751	-0,427328	9,786067	2020-10-13T22:48:29:622
0,466607	-0,426833	9,786239	2020-10-13T22:48:29:641
0,462702	-0,424138	9,786542	2020-10-13T22:48:29:658
0,462532	-0,423863	9,786562	2020-10-13T22:48:29:681
0,461433	-0,423546	9,786627	2020-10-13T22:48:29:700
0,460162	-0,418101	9,786922	2020-10-13T22:48:29:723
0,459360	-0,418506	9,786942	2020-10-13T22:48:29:740
0,460819	-0,415068	9,787020	2020-10-13T22:48:29:762
0,461965	-0,414501	9,786989	2020-10-13T22:48:29:779
0,459521	-0,412852	9,787174	2020-10-13T22:48:29:803
0,460812	-0,412909	9,787111	2020-10-13T22:48:29:821
0,463359	-0,411534	9,787048	2020-10-13T22:48:29:841
0,464721	-0,411022	9,787005	2020-10-13T22:48:29:864
0,463232	-0,409806	9,787127	2020-10-13T22:48:29:882
0,461720	-0,408478	9,787254	2020-10-13T22:48:29:901
0,458811	-0,409331	9,787355	2020-10-13T22:48:29:922
0,459562	-0,408784	9,787343	2020-10-13T22:48:29:942
0,457834	-0,407964	9,787458	2020-10-13T22:48:29:963
0,454879	-0,406651	9,787651	2020-10-13T22:48:29:981
0,453829	-0,404843	9,787774	2020-10-13T22:48:30:026
0,454452	-0,407497	9,787635	2020-10-13T22:48:30:028
0,452377	-0,406983	9,787753	2020-10-13T22:48:30:043
0,451061	-0,404293	9,787925	2020-10-13T22:48:30:059
0,449712	-0,400637	9,788137	2020-10-13T22:48:30:082
0,448953	-0,398513	9,788259	2020-10-13T22:48:30:114
0,449326	-0,397394	9,788287	2020-10-13T22:48:30:122
0,450230	-0,399040	9,788178	2020-10-13T22:48:30:140
0,451099	-0,399833	9,788106	2020-10-13T22:48:30:161
0,454628	-0,399130	9,787971	2020-10-13T22:48:30:179
0,455611	-0,399501	9,787911	2020-10-13T22:48:30:204
0,456153	-0,398826	9,787913	2020-10-13T22:48:30:220
0,458148	-0,397896	9,787858	2020-10-13T22:48:30:241
0,460786	-0,399838	9,787655	2020-10-13T22:48:30:261
0,463033	-0,397654	9,787638	2020-10-13T22:48:30:283
0,461059	-0,397471	9,787739	2020-10-13T22:48:30:301
0,460257	-0,398696	9,787726	2020-10-13T22:48:30:322
0,462402	-0,401315	9,787519	2020-10-13T22:48:30:342
0,463845	-0,404615	9,787314	2020-10-13T22:48:30:365
0,466008	-0,407191	9,787105	2020-10-13T22:48:30:380
0,467317	-0,410362	9,786910	2020-10-13T22:48:30:403
0,465175	-0,408231	9,787101	2020-10-13T22:48:30:420
0,463576	-0,409114	9,787140	2020-10-13T22:48:30:443
0,465120	-0,405612	9,787212	2020-10-13T22:48:30:460
0,467665	-0,403613	9,787174	2020-10-13T22:48:30:482
0,463864	-0,402176	9,787414	2020-10-13T22:48:30:501
0,464377	-0,402573	9,787374	2020-10-13T22:48:30:524
0,462124	-0,399445	9,787608	2020-10-13T22:48:30:541
0,462839	-0,395189	9,787747	2020-10-13T22:48:30:563
0,459971	-0,394270	9,787919	2020-10-13T22:48:30:585
0,462075	-0,393924	9,787834	2020-10-13T22:48:30:604
0,463218	-0,392270	9,787847	2020-10-13T22:48:30:620
0,462407	-0,389492	9,787995	2020-10-13T22:48:30:643
0,464739	-0,387217	9,787975	2020-10-13T22:48:30:660
0,462747	-0,389230	9,787990	2020-10-13T22:48:30:683
0,463225	-0,391981	9,787858	2020-10-13T22:48:30:701
0,460006	-0,394502	9,787909	2020-10-13T22:48:30:722
0,459855	-0,398796	9,787742	2020-10-13T22:48:30:741
0,457725	-0,401007	9,787751	2020-10-13T22:48:30:764
0,456100	-0,398802	9,787917	2020-10-13T22:48:30:781
0,454751	-0,397230	9,788043	2020-10-13T22:48:30:808
0,454091	-0,398981	9,788003	2020-10-13T22:48:30:831
0,457644	-0,400211	9,787787	2020-10-13T22:48:30:845
0,461341	-0,399790	9,787631	2020-10-13T22:48:30:861
0,463071	-0,399815	9,787548	2020-10-13T22:48:30:886
0,463309	-0,399516	9,787549	2020-10-13T22:48:30:901
0,459560	-0,395820	9,787876	2020-10-13T22:48:30:924
0,457049	-0,393666	9,788080	2020-10-13T22:48:30:942
0,459196	-0,393034	9,788005	2020-10-13T22:48:30:963
0,456984	-0,390162	9,788223	2020-10-13T22:48:30:980
0,457295	-0,390315	9,788203	2020-10-13T22:48:31:015
0,456466	-0,391578	9,788191	2020-10-13T22:48:31:021
0,458748	-0,393039	9,788026	2020-10-13T22:48:31:043
0,463339	-0,390455	9,787913	2020-10-13T22:48:31:064
0,463816	-0,382952	9,788187	2020-10-13T22:48:31:105
0,465942	-0,382804	9,788092	2020-10-13T22:48:31:107
0,468879	-0,383279	9,787933	2020-10-13T22:48:31:122
0,468157	-0,380563	9,788074	2020-10-13T22:48:31:140
0,464197	-0,381604	9,788221	2020-10-13T22:48:31:164
0,465299	-0,382973	9,788116	2020-10-13T22:48:31:180
0,465435	-0,383801	9,788077	2020-10-13T22:48:31:202
0,467120	-0,382252	9,788057	2020-10-13T22:48:31:221
0,465866	-0,383789	9,788057	2020-10-13T22:48:31:244
0,467485	-0,384176	9,787965	2020-10-13T22:48:31:261
0,468004	-0,383045	9,787984	2020-10-13T22:48:31:283
0,467339	-0,386015	9,787899	2020-10-13T22:48:31:304
0,464616	-0,383743	9,788118	2020-10-13T22:48:31:324
0,466467	-0,380253	9,788166	2020-10-13T22:48:31:342
0,465136	-0,378331	9,788304	2020-10-13T22:48:31:363
0,466324	-0,375442	9,788359	2020-10-13T22:48:31:382
0,466210	-0,375122	9,788377	2020-10-13T22:48:31:404
0,468980	-0,376777	9,788180	2020-10-13T22:48:31:421
0,470325	-0,378267	9,788058	2020-10-13T22:48:31:443
0,467936	-0,377217	9,788214	2020-10-13T22:48:31:461
0,469823	-0,375071	9,788206	2020-10-13T22:48:31:485
0,470544	-0,374910	9,788177	2020-10-13T22:48:31:501
0,466752	-0,375295	9,788344	2020-10-13T22:48:31:529
0,463985	-0,374766	9,788496	2020-10-13T22:48:31:545
0,463013	-0,369567	9,788739	2020-10-13T22:48:31:565
0,464525	-0,370496	9,788632	2020-10-13T22:48:31:582
0,465110	-0,370927	9,788589	2020-10-13T22:48:31:606
0,467252	-0,373411	9,788392	2020-10-13T22:48:31:623
0,464034	-0,371487	9,788619	2020-10-13T22:48:31:645
0,464494	-0,367883	9,788733	2020-10-13T22:48:31:662
0,466730	-0,368849	9,788590	2020-10-13T22:48:31:683
0,465639	-0,371052	9,788559	2020-10-13T22:48:31:708
0,468294	-0,371630	9,788410	2020-10-13T22:48:31:727
0,467359	-0,368636	9,788568	2020-10-13T22:48:31:741
0,466512	-0,365877	9,788713	2020-10-13T22:48:31:764
0,466144	-0,364145	9,788795	2020-10-13T22:48:31:787
0,466876	-0,362174	9,788833	2020-10-13T22:48:31:807
0,470233	-0,361810	9,788685	2020-10-13T22:48:31:821
0,474253	-0,365524	9,788353	2020-10-13T22:48:31:845
0,475642	-0,365792	9,788276	2020-10-13T22:48:31:861
0,474627	-0,367302	9,788269	2020-10-13T22:48:31:884
0,473220	-0,367962	9,788312	2020-10-13T22:48:31:904
0,475929	-0,368675	9,788154	2020-10-13T22:48:31:923
0,475554	-0,370152	9,788116	2020-10-13T22:48:31:942
0,478769	-0,376678	9,787710	2020-10-13T22:48:31:965
0,480231	-0,380058	9,787508	2020-10-13T22:48:31:982
0,481581	-0,380650	9,787419	2020-10-13T22:48:32:004
0,482157	-0,380048	9,787414	2020-10-13T22:48:32:024
0,480466	-0,381198	9,787453	2020-10-13T22:48:32:045
0,480447	-0,377756	9,787587	2020-10-13T22:48:32:061
0,478410	-0,376627	9,787730	2020-10-13T22:48:32:086
0,478481	-0,375955	9,787752	2020-10-13T22:48:32:113
0,476813	-0,375974	9,787833	2020-10-13T22:48:32:125
0,475525	-0,374680	9,787946	2020-10-13T22:48:32:143
0,474812	-0,375965	9,787930	2020-10-13T22:48:32:164
0,474857	-0,375904	9,787930	2020-10-13T22:48:32:182
0,475001	-0,378110	9,787839	2020-10-13T22:48:32:205
0,475892	-0,373060	9,787990	2020-10-13T22:48:32:222
0,473666	-0,372725	9,788110	2020-10-13T22:48:32:244
0,473744	-0,375998	9,787981	2020-10-13T22:48:32:264
0,474436	-0,374172	9,788017	2020-10-13T22:48:32:285
0,478075	-0,376205	9,787763	2020-10-13T22:48:32:302
0,477689	-0,376953	9,787753	2020-10-13T22:48:32:324
0,476427	-0,379449	9,787718	2020-10-13T22:48:32:342
0,477343	-0,379207	9,787683	2020-10-13T22:48:32:367
0,475741	-0,380289	9,787719	2020-10-13T22:48:32:383
0,474104	-0,378386	9,787871	2020-10-13T22:48:32:405
0,474317	-0,377414	9,787899	2020-10-13T22:48:32:452
0,478297	-0,380059	9,787603	2020-10-13T22:48:32:453
0,480117	-0,382871	9,787404	2020-10-13T22:48:32:463
0,481059	-0,386749	9,787206	2020-10-13T22:48:32:485
0,480547	-0,390163	9,787095	2020-10-13T22:48:32:514
0,480885	-0,392957	9,786966	2020-10-13T22:48:32:524
0,478629	-0,392693	9,787088	2020-10-13T22:48:32:542
0,478875	-0,390738	9,787154	2020-10-13T22:48:32:564
0,477699	-0,390251	9,787231	2020-10-13T22:48:32:582
0,477772	-0,394292	9,787066	2020-10-13T22:48:32:605
0,480926	-0,396603	9,786818	2020-10-13T22:48:32:622
0,479399	-0,395791	9,786925	2020-10-13T22:48:32:643
0,478456	-0,396111	9,786959	2020-10-13T22:48:32:662
0,475634	-0,392068	9,787259	2020-10-13T22:48:32:685
0,470968	-0,389700	9,787580	2020-10-13T22:48:32:703
0,471935	-0,389781	9,787529	2020-10-13T22:48:32:724
0,474404	-0,388133	9,787476	2020-10-13T22:48:32:745
0,475299	-0,386576	9,787494	2020-10-13T22:48:32:766
0,475399	-0,389884	9,787357	2020-10-13T22:48:32:783
0,476127	-0,393531	9,787176	2020-10-13T22:48:32:805
0,476271	-0,392138	9,787226	2020-10-13T22:48:32:824
0,476488	-0,393530	9,787159	2020-10-13T22:48:32:845
0,475693	-0,393618	9,787194	2020-10-13T22:48:32:863
0,474353	-0,392998	9,787284	2020-10-13T22:48:32:884
0,473619	-0,389627	9,787455	2020-10-13T22:48:32:903
0,474344	-0,389875	9,787409	2020-10-13T22:48:32:925
0,476794	-0,392084	9,787202	2020-10-13T22:48:32:946
0,475264	-0,390605	9,787335	2020-10-13T22:48:32:965
0,472292	-0,389709	9,787515	2020-10-13T22:48:32:985
0,472118	-0,391952	9,787434	2020-10-13T22:48:33:006
0,473677	-0,394427	9,787259	2020-10-13T22:48:33:038
0,472557	-0,391704	9,787422	2020-10-13T22:48:33:045
0,470860	-0,387619	9,787667	2020-10-13T22:48:33:063
0,470124	-0,384549	9,787824	2020-10-13T22:48:33:096
0,468672	-0,384362	9,787901	2020-10-13T22:48:33:103
0,469223	-0,382946	9,787930	2020-10-13T22:48:33:124
0,468406	-0,383926	9,787930	2020-10-13T22:48:33:143
0,468562	-0,385391	9,787866	2020-10-13T22:48:33:167
0,471675	-0,387549	9,787631	2020-10-13T22:48:33:184
0,471335	-0,386846	9,787675	2020-10-13T22:48:33:233
0,472562	-0,387335	9,787597	2020-10-13T22:48:33:235
0,471521	-0,383576	9,787794	2020-10-13T22:48:33:246
0,472418	-0,384486	9,787716	2020-10-13T22:48:33:264
0,470955	-0,381430	9,787906	2020-10-13T22:48:33:286
0,470450	-0,378522	9,788043	2020-10-13T22:48:33:303
0,466659	-0,378824	9,788213	2020-10-13T22:48:33:325
0,465902	-0,378779	9,788250	2020-10-13T22:48:33:343
0,465809	-0,377794	9,788293	2020-10-13T22:48:33:365
0,463799	-0,378614	9,788357	2020-10-13T22:48:33:383
0,465527	-0,381824	9,788150	2020-10-13T22:48:33:406
0,466281	-0,379663	9,788198	2020-10-13T22:48:33:423
0,468734	-0,377637	9,788159	2020-10-13T22:48:33:445
0,469824	-0,376853	9,788137	2020-10-13T22:48:33:467
0,470159	-0,378567	9,788055	2020-10-13T22:48:33:486
0,469064	-0,378485	9,788111	2020-10-13T22:48:33:504
0,469443	-0,375136	9,788221	2020-10-13T22:48:33:525
0,472505	-0,377135	9,787997	2020-10-13T22:48:33:544
0,476731	-0,378181	9,787752	2020-10-13T22:48:33:566
0,479580	-0,375075	9,787732	2020-10-13T22:48:33:584
0,479186	-0,374217	9,787785	2020-10-13T22:48:33:605
0,477548	-0,378234	9,787710	2020-10-13T22:48:33:623
0,474219	-0,377261	9,787910	2020-10-13T22:48:33:646
0,475903	-0,373388	9,787976	2020-10-13T22:48:33:664
0,475125	-0,370502	9,788124	2020-10-13T22:48:33:685
0,478376	-0,373562	9,787849	2020-10-13T22:48:33:706
0,479011	-0,374835	9,787769	2020-10-13T22:48:33:726
0,480106	-0,375564	9,787688	2020-10-13T22:48:33:744
0,481623	-0,379857	9,787448	2020-10-13T22:48:33:766
0,482140	-0,382546	9,787317	2020-10-13T22:48:33:784
0,478467	-0,379786	9,787605	2020-10-13T22:48:33:807
0,474078	-0,382800	9,787702	2020-10-13T22:48:33:825
0,470572	-0,379152	9,788013	2020-10-13T22:48:33:846
0,470408	-0,374053	9,788217	2020-10-13T22:48:33:866
0,472351	-0,373909	9,788129	2020-10-13T22:48:33:894
0,472224	-0,373108	9,788165	2020-10-13T22:48:33:905
0,471485	-0,376182	9,788083	2020-10-13T22:48:33:925
0,473144	-0,375932	9,788013	2020-10-13T22:48:33:949
0,470411	-0,377306	9,788092	2020-10-13T22:48:33:966
0,468732	-0,376041	9,788220	2020-10-13T22:48:33:984
0,472021	-0,376261	9,788054	2020-10-13T22:48:34:006
0,471362	-0,373939	9,788176	2020-10-13T22:48:34:024
0,471009	-0,373005	9,788228	2020-10-13T22:48:34:046
