x	y	z	ts
-0,420000	0,070000	-0,770000	2020-10-13T22:47:48:157
-0,070000	0,350000	-0,980000	2020-10-13T22:47:48:158
0,070000	0,560000	-0,980000	2020-10-13T22:47:48:158
-0,140000	0,420000	-0,910000	2020-10-13T22:47:48:158
-0,070000	0,210000	-0,980000	2020-10-13T22:47:48:159
-0,070000	0,070000	-0,910000	2020-10-13T22:47:48:159
-0,280000	0,070000	-0,910000	2020-10-13T22:47:48:159
-0,210000	-0,070000	-0,770000	2020-10-13T22:47:48:165
1,050000	-0,070000	-0,700000	2020-10-13T22:47:48:169
1,050000	-0,070000	-0,700000	2020-10-13T22:47:48:172
1,050000	-0,070000	-0,700000	2020-10-13T22:47:48:174
0,980000	-0,210000	-0,560000	2020-10-13T22:47:48:178
1,050000	-0,280000	-0,420000	2020-10-13T22:47:48:199
0,910000	-0,210000	-0,350000	2020-10-13T22:47:48:218
0,980000	-0,140000	-0,560000	2020-10-13T22:47:48:238
1,260000	0,070000	-0,560000	2020-10-13T22:47:48:259
1,680000	0,070000	-0,630000	2020-10-13T22:47:48:277
1,540000	-0,070000	-0,700000	2020-10-13T22:47:48:300
0,700000	-0,140000	-0,840000	2020-10-13T22:47:48:318
-0,210000	-0,280000	-0,630000	2020-10-13T22:47:48:338
-0,140000	-0,280000	-0,490000	2020-10-13T22:47:48:360
0,770000	-0,280000	-0,490000	2020-10-13T22:47:48:378
0,700000	0,420000	-0,490000	2020-10-13T22:47:48:399
0,140000	0,210000	-0,630000	2020-10-13T22:47:48:418
0,210000	0,070000	-0,770000	2020-10-13T22:47:48:439
0,700000	-0,140000	-0,840000	2020-10-13T22:47:48:459
0,420000	-0,140000	-0,630000	2020-10-13T22:47:48:479
0,770000	0,140000	-0,630000	2020-10-13T22:47:48:499
1,190000	-0,070000	-0,630000	2020-10-13T22:47:48:520
0,350000	0,070000	-0,560000	2020-10-13T22:47:48:542
0,350000	-0,140000	-0,490000	2020-10-13T22:47:48:558
0,560000	-0,210000	-0,490000	2020-10-13T22:47:48:583
0,910000	0,210000	-0,630000	2020-10-13T22:47:48:598
1,120000	0,140000	-0,770000	2020-10-13T22:47:48:618
0,910000	0,140000	-0,840000	2020-10-13T22:47:48:637
0,560000	0,070000	-0,770000	2020-10-13T22:47:48:659
-0,070000	0,070000	-0,700000	2020-10-13T22:47:48:679
-0,070000	-0,070000	-0,770000	2020-10-13T22:47:48:699
0,070000	0,070000	-0,910000	2020-10-13T22:47:48:720
-0,280000	0,280000	-0,910000	2020-10-13T22:47:48:739
-0,280000	-0,280000	-0,770000	2020-10-13T22:47:48:759
-0,280000	-0,350000	-0,630000	2020-10-13T22:47:48:780
0,210000	-0,350000	-0,490000	2020-10-13T22:47:48:799
0,910000	-0,210000	-0,490000	2020-10-13T22:47:48:818
1,540000	0,070000	-0,560000	2020-10-13T22:47:48:838
1,680000	0,210000	-0,560000	2020-10-13T22:47:48:859
1,330000	0,070000	-0,560000	2020-10-13T22:47:48:878
0,980000	-0,070000	-0,490000	2020-10-13T22:47:48:899
0,770000	-0,280000	-0,420000	2020-10-13T22:47:48:920
0,560000	-0,070000	-0,490000	2020-10-13T22:47:48:939
0,490000	-0,070000	-0,630000	2020-10-13T22:47:48:960
0,910000	0,070000	-0,840000	2020-10-13T22:47:48:979
1,190000	0,070000	-0,700000	2020-10-13T22:47:48:999
0,770000	-0,140000	-0,630000	2020-10-13T22:47:49:020
0,070000	-0,140000	-0,840000	2020-10-13T22:47:49:039
-0,140000	-0,070000	-0,770000	2020-10-13T22:47:49:059
-0,210000	0,070000	-0,770000	2020-10-13T22:47:49:092
-0,210000	-0,490000	-0,700000	2020-10-13T22:47:49:101
0,350000	-0,070000	-0,770000	2020-10-13T22:47:49:122
1,050000	0,070000	-0,910000	2020-10-13T22:47:49:142
0,980000	0,140000	-0,840000	2020-10-13T22:47:49:163
0,700000	-0,210000	-0,770000	2020-10-13T22:47:49:181
0,420000	-0,140000	-0,700000	2020-10-13T22:47:49:203
0,280000	-0,210000	-0,630000	2020-10-13T22:47:49:221
0,280000	-0,420000	-0,560000	2020-10-13T22:47:49:243
0,630000	-0,280000	-0,560000	2020-10-13T22:47:49:262
0,770000	-0,210000	-0,700000	2020-10-13T22:47:49:283
0,770000	-0,210000	-0,630000	2020-10-13T22:47:49:301
0,770000	-0,070000	-0,630000	2020-10-13T22:47:49:323
0,770000	-0,210000	-0,700000	2020-10-13T22:47:49:342
0,910000	0,140000	-0,770000	2020-10-13T22:47:49:362
0,560000	0,140000	-0,840000	2020-10-13T22:47:49:382
0,070000	-0,070000	-0,770000	2020-10-13T22:47:49:403
-0,070000	-0,210000	-0,630000	2020-10-13T22:47:49:422
0,210000	-0,280000	-0,630000	2020-10-13T22:47:49:443
0,560000	-0,070000	-0,770000	2020-10-13T22:47:49:462
0,490000	0,140000	-0,770000	2020-10-13T22:47:49:483
0,210000	-0,070000	-0,840000	2020-10-13T22:47:49:504
-0,070000	-0,280000	-0,840000	2020-10-13T22:47:49:523
-0,070000	-0,070000	-0,770000	2020-10-13T22:47:49:542
0,140000	-0,140000	-0,770000	2020-10-13T22:47:49:563
0,350000	-0,070000	-0,770000	2020-10-13T22:47:49:582
0,490000	-0,070000	-0,770000	2020-10-13T22:47:49:603
0,700000	-0,070000	-0,560000	2020-10-13T22:47:49:621
0,630000	-0,070000	-0,630000	2020-10-13T22:47:49:643
0,700000	-0,350000	-0,560000	2020-10-13T22:47:49:661
0,840000	-0,280000	-0,560000	2020-10-13T22:47:49:683
0,910000	-0,140000	-0,560000	2020-10-13T22:47:49:702
0,630000	-0,210000	-0,560000	2020-10-13T22:47:49:723
0,840000	0,070000	-0,630000	2020-10-13T22:47:49:745
1,120000	-0,070000	-0,560000	2020-10-13T22:47:49:763
0,840000	-0,210000	-0,700000	2020-10-13T22:47:49:783
0,420000	0,070000	-0,910000	2020-10-13T22:47:49:804
0,280000	0,070000	-0,770000	2020-10-13T22:47:49:823
-0,210000	-0,350000	-0,490000	2020-10-13T22:47:49:846
-0,350000	-0,280000	-0,490000	2020-10-13T22:47:49:864
0,140000	-0,070000	-0,770000	2020-10-13T22:47:49:885
0,700000	0,070000	-0,910000	2020-10-13T22:47:49:903
0,840000	0,210000	-0,980000	2020-10-13T22:47:49:925
0,700000	0,280000	-1,120000	2020-10-13T22:47:49:942
0,490000	0,280000	-1,120000	2020-10-13T22:47:49:964
-0,140000	-0,350000	-0,910000	2020-10-13T22:47:49:986
-0,840000	-0,630000	-0,490000	2020-10-13T22:47:50:004
-1,190000	-0,840000	-0,140000	2020-10-13T22:47:50:038
0,140000	-0,560000	-0,140000	2020-10-13T22:47:50:044
2,030000	-0,560000	-0,210000	2020-10-13T22:47:50:063
3,640000	-0,560000	-0,420000	2020-10-13T22:47:50:095
4,060000	0,490000	-0,560000	2020-10-13T22:47:50:102
2,170000	0,350000	-0,630000	2020-10-13T22:47:50:123
0,140000	-0,070000	-0,490000	2020-10-13T22:47:50:142
-1,680000	-0,420000	-0,560000	2020-10-13T22:47:50:164
-1,470000	-0,490000	-0,560000	2020-10-13T22:47:50:182
-0,490000	-0,490000	-0,700000	2020-10-13T22:47:50:204
0,070000	0,210000	-0,770000	2020-10-13T22:47:50:226
0,700000	0,140000	-0,840000	2020-10-13T22:47:50:243
0,630000	0,210000	-0,700000	2020-10-13T22:47:50:262
0,490000	0,070000	-0,700000	2020-10-13T22:47:50:284
0,210000	-0,140000	-0,630000	2020-10-13T22:47:50:302
0,140000	-0,140000	-0,560000	2020-10-13T22:47:50:323
0,420000	-0,420000	-0,630000	2020-10-13T22:47:50:342
0,840000	-0,140000	-0,630000	2020-10-13T22:47:50:364
1,190000	-0,070000	-0,700000	2020-10-13T22:47:50:381
0,980000	0,070000	-0,560000	2020-10-13T22:47:50:404
1,050000	-0,280000	-0,560000	2020-10-13T22:47:50:421
0,910000	-0,350000	-0,560000	2020-10-13T22:47:50:444
0,630000	-0,070000	-0,700000	2020-10-13T22:47:50:467
-0,140000	0,070000	-0,980000	2020-10-13T22:47:50:485
-0,770000	0,070000	-1,120000	2020-10-13T22:47:50:502
-1,260000	-0,140000	-1,190000	2020-10-13T22:47:50:525
-1,330000	-0,070000	-1,190000	2020-10-13T22:47:50:542
-0,840000	0,070000	-1,050000	2020-10-13T22:47:50:567
0,560000	-0,070000	-0,910000	2020-10-13T22:47:50:585
2,030000	0,210000	-0,700000	2020-10-13T22:47:50:606
3,010000	0,210000	-0,630000	2020-10-13T22:47:50:624
2,800000	0,140000	-0,280000	2020-10-13T22:47:50:645
2,100000	-0,280000	-0,070000	2020-10-13T22:47:50:673
1,190000	-0,560000	0,070000	2020-10-13T22:47:50:686
-0,210000	-0,420000	0,490000	2020-10-13T22:47:50:707
-0,350000	-0,280000	0,280000	2020-10-13T22:47:50:725
0,280000	-0,420000	0,350000	2020-10-13T22:47:50:744
1,190000	-0,140000	-0,070000	2020-10-13T22:47:50:766
1,820000	-0,140000	-0,490000	2020-10-13T22:47:50:787
1,750000	0,280000	-0,840000	2020-10-13T22:47:50:805
1,050000	0,490000	-0,980000	2020-10-13T22:47:50:822
0,280000	0,280000	-1,050000	2020-10-13T22:47:50:848
-0,420000	0,140000	-1,120000	2020-10-13T22:47:50:865
-1,050000	0,140000	-1,120000	2020-10-13T22:47:50:885
-1,260000	-0,070000	-1,050000	2020-10-13T22:47:50:904
-0,980000	-0,070000	-0,980000	2020-10-13T22:47:50:925
-0,280000	-0,070000	-1,050000	2020-10-13T22:47:50:944
0,140000	0,070000	-1,190000	2020-10-13T22:47:50:965
0,350000	0,280000	-0,840000	2020-10-13T22:47:50:983
0,490000	0,140000	-0,910000	2020-10-13T22:47:51:005
0,770000	0,210000	-0,700000	2020-10-13T22:47:51:023
0,840000	0,210000	-0,560000	2020-10-13T22:47:51:044
0,840000	-0,070000	-0,630000	2020-10-13T22:47:51:064
0,980000	0,210000	-0,560000	2020-10-13T22:47:51:093
0,630000	0,210000	-0,420000	2020-10-13T22:47:51:102
0,420000	-0,070000	-0,560000	2020-10-13T22:47:51:125
0,560000	0,070000	-0,560000	2020-10-13T22:47:51:143
0,560000	-0,070000	-0,560000	2020-10-13T22:47:51:165
0,560000	-0,070000	-0,630000	2020-10-13T22:47:51:185
0,770000	0,140000	-0,700000	2020-10-13T22:47:51:205
0,770000	0,070000	-0,770000	2020-10-13T22:47:51:223
1,050000	0,210000	-0,770000	2020-10-13T22:47:51:246
0,840000	0,140000	-0,770000	2020-10-13T22:47:51:263
0,420000	-0,070000	-0,700000	2020-10-13T22:47:51:285
0,210000	-0,070000	-0,700000	2020-10-13T22:47:51:304
0,280000	-0,070000	-0,630000	2020-10-13T22:47:51:325
0,490000	-0,140000	-0,700000	2020-10-13T22:47:51:343
0,350000	-0,140000	-0,630000	2020-10-13T22:47:51:366
0,490000	0,070000	-0,700000	2020-10-13T22:47:51:385
0,770000	-0,070000	-0,630000	2020-10-13T22:47:51:406
0,560000	-0,070000	-0,630000	2020-10-13T22:47:51:427
0,490000	-0,070000	-0,770000	2020-10-13T22:47:51:446
0,210000	0,070000	-0,910000	2020-10-13T22:47:51:463
0,350000	0,070000	-0,770000	2020-10-13T22:47:51:485
0,070000	-0,280000	-0,560000	2020-10-13T22:47:51:504
-0,070000	-0,280000	-0,630000	2020-10-13T22:47:51:526
0,350000	0,210000	-0,700000	2020-10-13T22:47:51:544
0,560000	0,070000	-0,770000	2020-10-13T22:47:51:565
0,700000	-0,070000	-0,770000	2020-10-13T22:47:51:584
0,700000	-0,070000	-0,700000	2020-10-13T22:47:51:605
0,630000	-0,070000	-0,700000	2020-10-13T22:47:51:623
0,700000	-0,070000	-0,700000	2020-10-13T22:47:51:646
0,910000	-0,070000	-0,630000	2020-10-13T22:47:51:666
0,770000	-0,140000	-0,490000	2020-10-13T22:47:51:685
0,560000	-0,210000	-0,560000	2020-10-13T22:47:51:704
0,910000	-0,070000	-0,630000	2020-10-13T22:47:51:726
1,120000	-0,070000	-0,700000	2020-10-13T22:47:51:744
1,400000	-0,070000	-0,700000	2020-10-13T22:47:51:765
1,400000	-0,140000	-0,700000	2020-10-13T22:47:51:784
1,190000	-0,280000	-0,630000	2020-10-13T22:47:51:806
1,050000	-0,070000	-0,630000	2020-10-13T22:47:51:824
0,770000	-0,070000	-0,630000	2020-10-13T22:47:51:846
1,330000	-0,070000	-0,700000	2020-10-13T22:47:51:864
1,610000	-0,070000	-0,630000	2020-10-13T22:47:51:887
1,190000	-0,210000	-0,490000	2020-10-13T22:47:51:908
0,490000	-0,420000	-0,420000	2020-10-13T22:47:51:925
0,350000	-0,070000	-0,560000	2020-10-13T22:47:51:946
1,050000	-0,210000	-0,280000	2020-10-13T22:47:51:972
0,980000	0,210000	-0,490000	2020-10-13T22:47:51:986
0,770000	0,140000	-0,420000	2020-10-13T22:47:52:007
1,050000	-0,070000	-0,630000	2020-10-13T22:47:52:028
1,260000	-0,070000	-0,700000	2020-10-13T22:47:52:045
0,700000	-0,140000	-0,560000	2020-10-13T22:47:52:064
0,070000	-0,070000	-0,630000	2020-10-13T22:47:52:107
0,070000	-0,210000	-0,700000	2020-10-13T22:47:52:111
0,280000	-0,070000	-0,770000	2020-10-13T22:47:52:126
0,420000	-0,070000	-0,700000	2020-10-13T22:47:52:145
0,210000	-0,070000	-0,700000	2020-10-13T22:47:52:166
-0,070000	-0,070000	-0,910000	2020-10-13T22:47:52:184
-0,280000	0,210000	-1,050000	2020-10-13T22:47:52:207
-0,420000	-0,070000	-0,980000	2020-10-13T22:47:52:232
-0,840000	-0,420000	-0,770000	2020-10-13T22:47:52:246
-1,050000	-0,140000	-0,770000	2020-10-13T22:47:52:265
-0,280000	-0,070000	-0,910000	2020-10-13T22:47:52:287
0,070000	-0,140000	-1,050000	2020-10-13T22:47:52:313
0,280000	-0,140000	-0,980000	2020-10-13T22:47:52:328
0,490000	-0,210000	-0,840000	2020-10-13T22:47:52:345
0,420000	-0,210000	-0,770000	2020-10-13T22:47:52:368
0,140000	-0,210000	-0,770000	2020-10-13T22:47:52:386
0,280000	-0,420000	-0,770000	2020-10-13T22:47:52:405
0,700000	-0,350000	-0,770000	2020-10-13T22:47:52:423
0,980000	-0,070000	-0,700000	2020-10-13T22:47:52:457
0,630000	-0,140000	-0,700000	2020-10-13T22:47:52:464
0,560000	-0,140000	-0,770000	2020-10-13T22:47:52:486
0,980000	-0,140000	-0,700000	2020-10-13T22:47:52:505
0,910000	0,070000	-0,770000	2020-10-13T22:47:52:528
0,630000	-0,210000	-0,630000	2020-10-13T22:47:52:554
0,560000	-0,210000	-0,560000	2020-10-13T22:47:52:566
0,350000	-0,210000	-0,630000	2020-10-13T22:47:52:583
0,280000	-0,070000	-0,630000	2020-10-13T22:47:52:607
0,560000	-0,070000	-0,700000	2020-10-13T22:47:52:627
0,490000	-0,070000	-0,770000	2020-10-13T22:47:52:646
0,140000	-0,070000	-0,840000	2020-10-13T22:47:52:665
0,280000	-0,070000	-0,840000	2020-10-13T22:47:52:687
0,210000	-0,140000	-0,770000	2020-10-13T22:47:52:704
-0,210000	-0,070000	-0,700000	2020-10-13T22:47:52:726
-0,070000	-0,280000	-0,630000	2020-10-13T22:47:52:744
0,490000	-0,210000	-0,770000	2020-10-13T22:47:52:767
0,700000	-0,070000	-0,770000	2020-10-13T22:47:52:784
0,420000	-0,210000	-0,840000	2020-10-13T22:47:52:807
0,280000	-0,210000	-0,770000	2020-10-13T22:47:52:825
0,280000	-0,210000	-0,700000	2020-10-13T22:47:52:846
0,280000	-0,210000	-0,630000	2020-10-13T22:47:52:869
0,280000	-0,070000	-0,840000	2020-10-13T22:47:52:894
0,560000	-0,070000	-0,840000	2020-10-13T22:47:52:908
0,070000	-0,070000	-0,630000	2020-10-13T22:47:52:928
-0,070000	-0,280000	-0,770000	2020-10-13T22:47:52:946
0,210000	-0,280000	-0,770000	2020-10-13T22:47:52:969
-0,140000	0,140000	-0,840000	2020-10-13T22:47:52:986
-0,140000	-0,070000	-0,770000	2020-10-13T22:47:53:008
-0,140000	-0,210000	-0,770000	2020-10-13T22:47:53:026
0,140000	-0,210000	-0,770000	2020-10-13T22:47:53:053
0,420000	0,070000	-0,840000	2020-10-13T22:47:53:066
0,630000	0,070000	-0,840000	2020-10-13T22:47:53:096
0,770000	-0,140000	-0,770000	2020-10-13T22:47:53:109
0,910000	-0,210000	-0,700000	2020-10-13T22:47:53:126
0,910000	-0,140000	-0,700000	2020-10-13T22:47:53:145
0,700000	-0,280000	-0,630000	2020-10-13T22:47:53:168
0,420000	-0,280000	-0,630000	2020-10-13T22:47:53:185
0,630000	-0,210000	-0,700000	2020-10-13T22:47:53:206
0,490000	-0,070000	-0,700000	2020-10-13T22:47:53:225
0,210000	-0,140000	-0,700000	2020-10-13T22:47:53:247
0,490000	-0,210000	-0,700000	2020-10-13T22:47:53:265
0,840000	-0,070000	-0,770000	2020-10-13T22:47:53:287
0,560000	-0,140000	-0,700000	2020-10-13T22:47:53:306
0,560000	-0,210000	-0,700000	2020-10-13T22:47:53:327
-0,140000	-0,140000	-0,700000	2020-10-13T22:47:53:347
-0,140000	-0,140000	-0,770000	2020-10-13T22:47:53:368
0,280000	-0,140000	-0,840000	2020-10-13T22:47:53:385
0,140000	-0,140000	-0,840000	2020-10-13T22:47:53:408
0,210000	-0,070000	-0,770000	2020-10-13T22:47:53:425
0,280000	-0,140000	-0,770000	2020-10-13T22:47:53:451
0,140000	-0,140000	-0,840000	2020-10-13T22:47:53:466
0,140000	-0,140000	-0,770000	2020-10-13T22:47:53:487
-0,070000	-0,140000	-0,700000	2020-10-13T22:47:53:506
-0,070000	-0,280000	-0,630000	2020-10-13T22:47:53:528
0,280000	-0,280000	-0,630000	2020-10-13T22:47:53:546
0,560000	-0,070000	-0,770000	2020-10-13T22:47:53:568
0,700000	-0,070000	-0,770000	2020-10-13T22:47:53:588
0,700000	-0,070000	-0,700000	2020-10-13T22:47:53:608
0,560000	-0,070000	-0,700000	2020-10-13T22:47:53:625
0,070000	-0,070000	-0,630000	2020-10-13T22:47:53:649
-0,210000	-0,070000	-0,630000	2020-10-13T22:47:53:667
0,630000	-0,280000	-0,700000	2020-10-13T22:47:53:688
0,560000	-0,070000	-0,700000	2020-10-13T22:47:53:706
0,490000	-0,070000	-0,560000	2020-10-13T22:47:53:728
0,280000	-0,280000	-0,560000	2020-10-13T22:47:53:746
0,630000	-0,350000	-0,700000	2020-10-13T22:47:53:768
0,630000	-0,140000	-0,770000	2020-10-13T22:47:53:786
0,420000	0,140000	-0,700000	2020-10-13T22:47:53:808
0,210000	-0,070000	-0,630000	2020-10-13T22:47:53:828
-0,070000	-0,070000	-0,700000	2020-10-13T22:47:53:848
-0,070000	0,070000	-0,840000	2020-10-13T22:47:53:867
0,490000	0,210000	-0,910000	2020-10-13T22:47:53:888
0,700000	0,280000	-0,910000	2020-10-13T22:47:53:906
0,770000	0,070000	-0,840000	2020-10-13T22:47:53:928
0,560000	-0,210000	-0,700000	2020-10-13T22:47:53:946
0,350000	-0,280000	-0,560000	2020-10-13T22:47:53:969
0,350000	-0,210000	-0,630000	2020-10-13T22:47:53:986
0,210000	-0,140000	-0,700000	2020-10-13T22:47:54:008
0,280000	-0,140000	-0,770000	2020-10-13T22:47:54:026
0,490000	-0,140000	-0,770000	2020-10-13T22:47:54:047
0,630000	-0,140000	-0,770000	2020-10-13T22:47:54:069
0,630000	0,210000	-0,770000	2020-10-13T22:47:54:104
0,700000	0,140000	-0,770000	2020-10-13T22:47:54:109
0,420000	0,070000	-0,700000	2020-10-13T22:47:54:131
-0,070000	-0,070000	-0,700000	2020-10-13T22:47:54:145
-0,280000	0,070000	-0,630000	2020-10-13T22:47:54:172
-0,280000	0,070000	-0,700000	2020-10-13T22:47:54:191
0,280000	0,070000	-0,700000	2020-10-13T22:47:54:209
0,490000	0,210000	-0,840000	2020-10-13T22:47:54:227
0,420000	0,210000	-0,840000	2020-10-13T22:47:54:249
0,210000	0,420000	-0,770000	2020-10-13T22:47:54:266
0,280000	0,280000	-0,910000	2020-10-13T22:47:54:289
0,560000	0,350000	-0,840000	2020-10-13T22:47:54:316
0,770000	0,490000	-0,770000	2020-10-13T22:47:54:330
0,700000	0,420000	-0,700000	2020-10-13T22:47:54:347
0,770000	0,630000	-0,630000	2020-10-13T22:47:54:371
0,980000	0,630000	-0,770000	2020-10-13T22:47:54:386
1,400000	0,420000	-0,840000	2020-10-13T22:47:54:408
1,190000	0,280000	-0,700000	2020-10-13T22:47:54:425
0,840000	0,490000	-0,700000	2020-10-13T22:47:54:448
1,260000	0,280000	-0,770000	2020-10-13T22:47:54:474
0,910000	0,210000	-0,770000	2020-10-13T22:47:54:489
0,490000	0,070000	-0,700000	2020-10-13T22:47:54:507
0,350000	-0,210000	-0,630000	2020-10-13T22:47:54:529
0,350000	0,280000	-0,840000	2020-10-13T22:47:54:552
0,420000	0,350000	-0,770000	2020-10-13T22:47:54:570
0,070000	-0,140000	-0,700000	2020-10-13T22:47:54:587
-0,420000	-0,140000	-0,840000	2020-10-13T22:47:54:609
-0,280000	0,280000	-0,770000	2020-10-13T22:47:54:626
-0,350000	0,140000	-0,840000	2020-10-13T22:47:54:649
-0,140000	-0,070000	-0,560000	2020-10-13T22:47:54:667
-0,350000	0,140000	-0,560000	2020-10-13T22:47:54:688
-0,350000	0,350000	-0,770000	2020-10-13T22:47:54:707
-0,140000	0,210000	-1,190000	2020-10-13T22:47:54:730
0,210000	0,420000	-0,770000	2020-10-13T22:47:54:747
-0,210000	0,140000	-0,630000	2020-10-13T22:47:54:769
-0,140000	0,140000	-0,560000	2020-10-13T22:47:54:790
-0,070000	0,140000	-0,700000	2020-10-13T22:47:54:811
0,490000	-0,210000	-0,560000	2020-10-13T22:47:54:826
0,350000	-0,420000	-0,630000	2020-10-13T22:47:54:850
0,210000	-0,420000	-0,630000	2020-10-13T22:47:54:867
0,070000	-0,070000	-0,770000	2020-10-13T22:47:54:895
0,350000	-0,630000	-0,770000	2020-10-13T22:47:54:906
0,630000	-0,210000	-0,770000	2020-10-13T22:47:54:928
0,700000	0,210000	-0,840000	2020-10-13T22:47:54:947
0,560000	0,140000	-0,840000	2020-10-13T22:47:54:975
0,350000	-0,070000	-0,840000	2020-10-13T22:47:54:990
0,700000	0,140000	-0,980000	2020-10-13T22:47:55:008
0,910000	0,140000	-0,980000	2020-10-13T22:47:55:029
0,350000	0,140000	-0,910000	2020-10-13T22:47:55:050
0,210000	0,140000	-0,840000	2020-10-13T22:47:55:067
0,350000	-0,210000	-0,840000	2020-10-13T22:47:55:093
0,210000	-0,210000	-0,770000	2020-10-13T22:47:55:108
0,280000	-0,210000	-0,700000	2020-10-13T22:47:55:132
0,840000	0,070000	-0,700000	2020-10-13T22:47:55:150
0,910000	-0,140000	-0,560000	2020-10-13T22:47:55:171
0,560000	-0,350000	-0,560000	2020-10-13T22:47:55:187
0,980000	-0,280000	-0,630000	2020-10-13T22:47:55:218
1,190000	-0,420000	-0,560000	2020-10-13T22:47:55:229
0,910000	-0,210000	-0,630000	2020-10-13T22:47:55:249
0,560000	-0,210000	-0,700000	2020-10-13T22:47:55:271
0,350000	-0,070000	-0,770000	2020-10-13T22:47:55:291
0,350000	-0,140000	-0,770000	2020-10-13T22:47:55:309
0,350000	-0,140000	-0,770000	2020-10-13T22:47:55:328
0,350000	0,140000	-1,050000	2020-10-13T22:47:55:346
-0,280000	0,140000	-0,910000	2020-10-13T22:47:55:369
-0,280000	-0,070000	-0,770000	2020-10-13T22:47:55:386
0,070000	-0,070000	-0,630000	2020-10-13T22:47:55:409
-0,070000	-0,070000	-0,630000	2020-10-13T22:47:55:426
0,280000	0,140000	-0,770000	2020-10-13T22:47:55:449
0,700000	0,210000	-0,840000	2020-10-13T22:47:55:467
0,840000	0,070000	-0,840000	2020-10-13T22:47:55:488
0,560000	0,070000	-0,700000	2020-10-13T22:47:55:509
0,420000	-0,280000	-0,700000	2020-10-13T22:47:55:530
1,260000	-0,350000	-0,630000	2020-10-13T22:47:55:546
1,330000	-0,140000	-0,700000	2020-10-13T22:47:55:569
0,840000	-0,210000	-0,560000	2020-10-13T22:47:55:587
0,630000	-0,420000	-0,560000	2020-10-13T22:47:55:610
0,980000	-0,490000	-0,630000	2020-10-13T22:47:55:627
1,120000	-0,280000	-0,700000	2020-10-13T22:47:55:649
1,050000	-0,280000	-0,770000	2020-10-13T22:47:55:668
1,260000	-0,140000	-0,770000	2020-10-13T22:47:55:690
0,700000	-0,070000	-0,700000	2020-10-13T22:47:55:707
0,210000	-0,140000	-0,700000	2020-10-13T22:47:55:728
0,420000	-0,350000	-0,770000	2020-10-13T22:47:55:747
0,840000	-0,070000	-0,700000	2020-10-13T22:47:55:771
0,770000	-0,070000	-0,770000	2020-10-13T22:47:55:797
0,700000	-0,070000	-0,700000	2020-10-13T22:47:55:818
0,490000	-0,140000	-0,700000	2020-10-13T22:47:55:828
0,630000	-0,280000	-0,700000	2020-10-13T22:47:55:850
0,700000	-0,210000	-0,700000	2020-10-13T22:47:55:868
0,560000	-0,210000	-0,630000	2020-10-13T22:47:55:890
0,630000	-0,280000	-0,560000	2020-10-13T22:47:55:906
0,770000	-0,210000	-0,560000	2020-10-13T22:47:55:929
1,120000	-0,210000	-0,560000	2020-10-13T22:47:55:946
1,330000	0,070000	-0,630000	2020-10-13T22:47:55:969
1,330000	0,140000	-0,630000	2020-10-13T22:47:55:990
0,560000	-0,140000	-0,630000	2020-10-13T22:47:56:009
0,070000	-0,210000	-0,490000	2020-10-13T22:47:56:027
0,210000	-0,420000	-0,490000	2020-10-13T22:47:56:049
0,490000	-0,210000	-0,560000	2020-10-13T22:47:56:068
0,280000	0,070000	-0,910000	2020-10-13T22:47:56:098
0,070000	0,070000	-0,980000	2020-10-13T22:47:56:107
-0,770000	-0,070000	-0,980000	2020-10-13T22:47:56:129
-1,120000	-0,280000	-0,840000	2020-10-13T22:47:56:147
-1,120000	-0,280000	-0,980000	2020-10-13T22:47:56:171
-0,560000	0,280000	-1,260000	2020-10-13T22:47:56:187
-0,210000	-0,140000	-1,190000	2020-10-13T22:47:56:209
-0,630000	-0,070000	-1,120000	2020-10-13T22:47:56:229
-1,050000	-0,070000	-0,910000	2020-10-13T22:47:56:250
-1,260000	-0,350000	-0,770000	2020-10-13T22:47:56:267
-1,190000	-0,280000	-0,840000	2020-10-13T22:47:56:289
-0,770000	-0,280000	-0,980000	2020-10-13T22:47:56:308
-0,070000	0,070000	-1,050000	2020-10-13T22:47:56:330
0,210000	0,140000	-0,980000	2020-10-13T22:47:56:347
0,280000	-0,070000	-0,910000	2020-10-13T22:47:56:369
0,630000	-0,140000	-0,840000	2020-10-13T22:47:56:387
1,400000	-0,140000	-0,770000	2020-10-13T22:47:56:411
1,820000	-0,070000	-0,490000	2020-10-13T22:47:56:426
1,750000	-0,140000	-0,350000	2020-10-13T22:47:56:450
1,120000	-0,210000	-0,280000	2020-10-13T22:47:56:470
0,490000	-0,420000	-0,350000	2020-10-13T22:47:56:490
0,630000	-0,560000	-0,490000	2020-10-13T22:47:56:508
0,630000	-0,490000	-0,560000	2020-10-13T22:47:56:534
0,490000	-0,350000	-0,490000	2020-10-13T22:47:56:548
0,210000	-0,140000	-0,630000	2020-10-13T22:47:56:572
0,280000	-0,070000	-0,910000	2020-10-13T22:47:56:589
0,140000	0,070000	-0,910000	2020-10-13T22:47:56:616
-0,350000	-0,140000	-1,050000	2020-10-13T22:47:56:629
-0,490000	-0,140000	-0,980000	2020-10-13T22:47:56:651
0,210000	-0,280000	-0,910000	2020-10-13T22:47:56:670
0,560000	-0,070000	-0,840000	2020-10-13T22:47:56:689
0,630000	-0,210000	-0,840000	2020-10-13T22:47:56:712
0,210000	-0,210000	-0,840000	2020-10-13T22:47:56:731
-0,070000	-0,280000	-0,700000	2020-10-13T22:47:56:747
0,070000	-0,280000	-0,700000	2020-10-13T22:47:56:771
0,770000	-0,280000	-0,840000	2020-10-13T22:47:56:791
1,330000	-0,070000	-0,700000	2020-10-13T22:47:56:818
1,190000	-0,280000	-0,630000	2020-10-13T22:47:56:830
0,840000	-0,140000	-0,770000	2020-10-13T22:47:56:851
0,700000	-0,140000	-0,630000	2020-10-13T22:47:56:868
0,210000	-0,210000	-0,490000	2020-10-13T22:47:56:891
-0,140000	-0,420000	-0,630000	2020-10-13T22:47:56:908
0,140000	0,140000	-0,700000	2020-10-13T22:47:56:931
0,560000	0,140000	-0,840000	2020-10-13T22:47:56:950
0,420000	0,070000	-0,910000	2020-10-13T22:47:56:972
0,070000	0,140000	-0,980000	2020-10-13T22:47:56:988
-0,210000	-0,070000	-0,910000	2020-10-13T22:47:57:010
0,140000	0,280000	-1,050000	2020-10-13T22:47:57:028
0,700000	0,280000	-1,050000	2020-10-13T22:47:57:051
0,490000	0,070000	-1,120000	2020-10-13T22:47:57:069
-0,210000	0,140000	-1,120000	2020-10-13T22:47:57:097
-0,280000	-0,280000	-1,120000	2020-10-13T22:47:57:108
-0,420000	-0,210000	-1,050000	2020-10-13T22:47:57:131
-0,350000	-0,070000	-0,910000	2020-10-13T22:47:57:148
0,070000	-0,280000	-0,980000	2020-10-13T22:47:57:171
0,140000	-0,210000	-1,050000	2020-10-13T22:47:57:189
0,070000	-0,210000	-1,050000	2020-10-13T22:47:57:211
-0,210000	-0,210000	-1,120000	2020-10-13T22:47:57:228
-0,560000	-0,280000	-1,190000	2020-10-13T22:47:57:250
-0,560000	-0,280000	-1,120000	2020-10-13T22:47:57:268
-0,560000	-0,280000	-1,190000	2020-10-13T22:47:57:290
-0,490000	-0,140000	-1,330000	2020-10-13T22:47:57:309
-0,490000	-0,280000	-1,400000	2020-10-13T22:47:57:330
-0,490000	-0,420000	-1,260000	2020-10-13T22:47:57:348
-0,490000	-0,210000	-1,260000	2020-10-13T22:47:57:372
-0,350000	-0,280000	-1,260000	2020-10-13T22:47:57:389
-0,210000	-0,280000	-1,120000	2020-10-13T22:47:57:411
-0,350000	-0,420000	-0,910000	2020-10-13T22:47:57:428
0,280000	-0,420000	-0,840000	2020-10-13T22:47:57:451
0,910000	-0,210000	-0,770000	2020-10-13T22:47:57:469
1,260000	-0,140000	-0,770000	2020-10-13T22:47:57:491
1,400000	-0,280000	-0,770000	2020-10-13T22:47:57:509
1,470000	-0,280000	-0,560000	2020-10-13T22:47:57:532
1,260000	-0,280000	-0,350000	2020-10-13T22:47:57:549
1,400000	0,420000	-0,560000	2020-10-13T22:47:57:571
0,420000	0,280000	-1,190000	2020-10-13T22:47:57:588
-0,350000	-0,560000	-1,190000	2020-10-13T22:47:57:613
-1,750000	-0,560000	-1,330000	2020-10-13T22:47:57:629
-0,980000	-0,490000	-0,980000	2020-10-13T22:47:57:651
-0,070000	-0,490000	-0,770000	2020-10-13T22:47:57:669
0,070000	-0,490000	-0,910000	2020-10-13T22:47:57:691
-0,070000	0,070000	-1,190000	2020-10-13T22:47:57:709
-0,560000	0,070000	-1,260000	2020-10-13T22:47:57:731
-1,120000	-0,560000	-1,190000	2020-10-13T22:47:57:749
-0,630000	-0,560000	-0,910000	2020-10-13T22:47:57:771
0,140000	-0,490000	-0,770000	2020-10-13T22:47:57:789
0,910000	-0,140000	-0,700000	2020-10-13T22:47:57:811
1,120000	0,140000	-0,770000	2020-10-13T22:47:57:829
1,260000	0,070000	-0,840000	2020-10-13T22:47:57:851
0,770000	-0,070000	-0,910000	2020-10-13T22:47:57:869
0,490000	-0,070000	-0,630000	2020-10-13T22:47:57:891
0,280000	-0,140000	-0,560000	2020-10-13T22:47:57:913
0,140000	0,140000	-0,700000	2020-10-13T22:47:57:930
0,140000	0,140000	-0,700000	2020-10-13T22:47:57:949
0,210000	0,070000	-0,560000	2020-10-13T22:47:57:971
0,140000	-0,070000	-0,560000	2020-10-13T22:47:57:989
0,210000	0,070000	-0,700000	2020-10-13T22:47:58:014
0,630000	0,350000	-0,770000	2020-10-13T22:47:58:029
1,260000	0,490000	-0,910000	2020-10-13T22:47:58:050
1,190000	0,420000	-0,910000	2020-10-13T22:47:58:069
0,980000	0,280000	-0,840000	2020-10-13T22:47:58:135
0,070000	-0,350000	-0,630000	2020-10-13T22:47:58:135
-0,770000	-0,560000	-0,420000	2020-10-13T22:47:58:135
-0,700000	-0,630000	-0,420000	2020-10-13T22:47:58:149
0,700000	-0,210000	-0,490000	2020-10-13T22:47:58:172
1,750000	0,140000	-0,700000	2020-10-13T22:47:58:193
1,820000	0,280000	-0,840000	2020-10-13T22:47:58:212
1,400000	-0,070000	-0,770000	2020-10-13T22:47:58:230
0,490000	-0,280000	-0,770000	2020-10-13T22:47:58:261
-0,140000	-0,280000	-0,700000	2020-10-13T22:47:58:271
-0,070000	0,070000	-0,700000	2020-10-13T22:47:58:291
0,210000	-0,280000	-0,630000	2020-10-13T22:47:58:310
0,280000	-0,280000	-0,770000	2020-10-13T22:47:58:330
0,280000	-0,070000	-0,910000	2020-10-13T22:47:58:348
0,280000	-0,070000	-0,840000	2020-10-13T22:47:58:371
0,350000	0,210000	-0,700000	2020-10-13T22:47:58:391
0,210000	0,070000	-0,630000	2020-10-13T22:47:58:411
0,700000	0,140000	-0,770000	2020-10-13T22:47:58:429
0,840000	0,210000	-0,910000	2020-10-13T22:47:58:452
0,210000	0,210000	-0,700000	2020-10-13T22:47:58:470
0,070000	-0,560000	-0,560000	2020-10-13T22:47:58:491
0,840000	-0,420000	-0,490000	2020-10-13T22:47:58:510
1,050000	-0,280000	-0,490000	2020-10-13T22:47:58:532
1,330000	-0,140000	-0,560000	2020-10-13T22:47:58:549
1,470000	-0,070000	-0,560000	2020-10-13T22:47:58:572
1,260000	-0,070000	-0,630000	2020-10-13T22:47:58:590
0,840000	-0,070000	-0,560000	2020-10-13T22:47:58:612
0,700000	-0,140000	-0,560000	2020-10-13T22:47:58:629
0,840000	-0,140000	-0,630000	2020-10-13T22:47:58:651
0,840000	-0,140000	-0,700000	2020-10-13T22:47:58:670
0,420000	-0,070000	-0,560000	2020-10-13T22:47:58:691
0,280000	-0,210000	-0,630000	2020-10-13T22:47:58:710
0,420000	-0,280000	-0,700000	2020-10-13T22:47:58:731
0,210000	-0,140000	-0,700000	2020-10-13T22:47:58:750
0,350000	-0,140000	-0,840000	2020-10-13T22:47:58:772
0,700000	-0,140000	-0,980000	2020-10-13T22:47:58:789
0,350000	-0,210000	-0,840000	2020-10-13T22:47:58:812
-0,210000	-0,070000	-0,700000	2020-10-13T22:47:58:832
-0,140000	-0,140000	-0,700000	2020-10-13T22:47:58:851
0,210000	-0,210000	-0,630000	2020-10-13T22:47:58:870
0,350000	-0,070000	-0,560000	2020-10-13T22:47:58:890
0,700000	-0,140000	-0,630000	2020-10-13T22:47:58:923
1,050000	-0,210000	-0,630000	2020-10-13T22:47:58:935
0,770000	0,070000	-0,630000	2020-10-13T22:47:58:949
0,630000	-0,140000	-0,560000	2020-10-13T22:47:58:973
0,840000	-0,140000	-0,630000	2020-10-13T22:47:58:991
0,630000	-0,070000	-0,560000	2020-10-13T22:47:59:010
0,280000	-0,070000	-0,560000	2020-10-13T22:47:59:031
0,420000	-0,070000	-0,560000	2020-10-13T22:47:59:053
0,560000	-0,070000	-0,490000	2020-10-13T22:47:59:072
0,350000	-0,350000	-0,630000	2020-10-13T22:47:59:096
0,350000	-0,350000	-0,770000	2020-10-13T22:47:59:112
0,350000	0,140000	-0,700000	2020-10-13T22:47:59:132
0,280000	-0,210000	-0,700000	2020-10-13T22:47:59:149
0,070000	-0,210000	-0,700000	2020-10-13T22:47:59:172
0,070000	-0,070000	-0,840000	2020-10-13T22:47:59:190
0,280000	0,140000	-0,770000	2020-10-13T22:47:59:213
0,560000	0,140000	-0,700000	2020-10-13T22:47:59:231
0,770000	-0,280000	-0,700000	2020-10-13T22:47:59:255
0,560000	-0,280000	-0,700000	2020-10-13T22:47:59:295
0,770000	-0,210000	-0,700000	2020-10-13T22:47:59:295
0,700000	-0,280000	-0,700000	2020-10-13T22:47:59:310
0,280000	-0,210000	-0,630000	2020-10-13T22:47:59:333
0,280000	-0,070000	-0,560000	2020-10-13T22:47:59:362
0,210000	-0,070000	-0,700000	2020-10-13T22:47:59:375
0,770000	-0,210000	-0,770000	2020-10-13T22:47:59:391
0,840000	0,070000	-0,770000	2020-10-13T22:47:59:414
0,560000	0,070000	-0,770000	2020-10-13T22:47:59:432
0,070000	-0,140000	-0,770000	2020-10-13T22:47:59:452
-0,350000	-0,140000	-0,770000	2020-10-13T22:47:59:471
-0,280000	-0,420000	-0,770000	2020-10-13T22:47:59:492
0,140000	-0,420000	-0,770000	2020-10-13T22:47:59:511
0,350000	0,070000	-0,910000	2020-10-13T22:47:59:533
0,420000	-0,070000	-0,910000	2020-10-13T22:47:59:550
0,210000	-0,140000	-0,980000	2020-10-13T22:47:59:573
-0,070000	0,210000	-0,840000	2020-10-13T22:47:59:593
-0,280000	-0,210000	-0,770000	2020-10-13T22:47:59:613
-0,140000	-0,140000	-0,700000	2020-10-13T22:47:59:630
0,420000	-0,140000	-0,700000	2020-10-13T22:47:59:653
0,770000	-0,210000	-0,700000	2020-10-13T22:47:59:671
0,560000	-0,070000	-0,700000	2020-10-13T22:47:59:692
0,560000	-0,070000	-0,700000	2020-10-13T22:47:59:711
0,700000	-0,140000	-0,700000	2020-10-13T22:47:59:733
0,420000	-0,210000	-0,700000	2020-10-13T22:47:59:750
0,350000	-0,140000	-0,840000	2020-10-13T22:47:59:773
0,420000	-0,140000	-0,840000	2020-10-13T22:47:59:791
0,140000	-0,210000	-0,770000	2020-10-13T22:47:59:816
-0,070000	-0,210000	-0,700000	2020-10-13T22:47:59:837
0,280000	-0,140000	-0,840000	2020-10-13T22:47:59:853
0,560000	-0,140000	-0,840000	2020-10-13T22:47:59:870
-0,070000	-0,140000	-0,770000	2020-10-13T22:47:59:900
-0,700000	-0,280000	-0,770000	2020-10-13T22:47:59:919
-0,350000	-0,210000	-0,840000	2020-10-13T22:47:59:934
0,140000	0,070000	-0,840000	2020-10-13T22:47:59:951
0,070000	-0,140000	-0,770000	2020-10-13T22:47:59:976
-0,280000	-0,070000	-0,770000	2020-10-13T22:47:59:990
-0,210000	-0,070000	-0,840000	2020-10-13T22:48:00:012
0,350000	-0,070000	-0,770000	2020-10-13T22:48:00:031
0,490000	-0,070000	-0,700000	2020-10-13T22:48:00:053
0,560000	-0,280000	-0,630000	2020-10-13T22:48:00:077
0,700000	-0,280000	-0,560000	2020-10-13T22:48:00:097
0,700000	-0,210000	-0,560000	2020-10-13T22:48:00:111
0,700000	-0,210000	-0,630000	2020-10-13T22:48:00:134
1,050000	-0,210000	-0,630000	2020-10-13T22:48:00:151
0,910000	-0,280000	-0,630000	2020-10-13T22:48:00:173
0,350000	-0,070000	-0,560000	2020-10-13T22:48:00:192
0,420000	-0,280000	-0,700000	2020-10-13T22:48:00:213
1,050000	-0,210000	-0,700000	2020-10-13T22:48:00:232
0,770000	0,210000	-0,700000	2020-10-13T22:48:00:253
0,350000	-0,140000	-0,840000	2020-10-13T22:48:00:271
-0,140000	-0,210000	-0,770000	2020-10-13T22:48:00:293
-0,350000	-0,140000	-0,770000	2020-10-13T22:48:00:314
-0,350000	-0,140000	-0,770000	2020-10-13T22:48:00:333
0,630000	-0,070000	-0,840000	2020-10-13T22:48:00:351
0,490000	-0,070000	-0,840000	2020-10-13T22:48:00:373
-0,210000	-0,070000	-0,770000	2020-10-13T22:48:00:390
-0,210000	-0,420000	-0,840000	2020-10-13T22:48:00:413
-0,070000	-0,140000	-0,770000	2020-10-13T22:48:00:431
-0,140000	-0,070000	-0,770000	2020-10-13T22:48:00:453
0,210000	-0,210000	-0,700000	2020-10-13T22:48:00:472
0,490000	0,070000	-0,700000	2020-10-13T22:48:00:499
0,420000	0,070000	-0,630000	2020-10-13T22:48:00:513
0,210000	0,070000	-0,630000	2020-10-13T22:48:00:534
0,280000	-0,070000	-0,630000	2020-10-13T22:48:00:554
0,420000	-0,140000	-0,630000	2020-10-13T22:48:00:597
0,420000	-0,070000	-0,700000	2020-10-13T22:48:00:599
0,560000	-0,070000	-0,700000	2020-10-13T22:48:00:615
0,700000	0,070000	-0,770000	2020-10-13T22:48:00:632
0,560000	0,070000	-0,700000	2020-10-13T22:48:00:653
0,490000	0,070000	-0,700000	2020-10-13T22:48:00:677
0,630000	-0,070000	-0,700000	2020-10-13T22:48:00:693
0,700000	-0,280000	-0,630000	2020-10-13T22:48:00:712
0,350000	-0,210000	-0,560000	2020-10-13T22:48:00:734
0,350000	-0,140000	-0,630000	2020-10-13T22:48:00:754
0,210000	-0,070000	-0,700000	2020-10-13T22:48:00:774
-0,070000	0,070000	-0,770000	2020-10-13T22:48:00:795
-0,140000	-0,070000	-0,770000	2020-10-13T22:48:00:814
-0,210000	-0,140000	-0,630000	2020-10-13T22:48:00:832
0,070000	0,140000	-0,770000	2020-10-13T22:48:00:854
0,350000	0,140000	-0,840000	2020-10-13T22:48:00:872
0,280000	0,140000	-0,770000	2020-10-13T22:48:00:894
0,070000	-0,070000	-0,700000	2020-10-13T22:48:00:913
0,140000	-0,210000	-0,700000	2020-10-13T22:48:00:934
0,280000	-0,140000	-0,630000	2020-10-13T22:48:00:952
0,560000	-0,210000	-0,700000	2020-10-13T22:48:00:974
0,700000	-0,140000	-0,700000	2020-10-13T22:48:00:992
0,490000	-0,070000	-0,700000	2020-10-13T22:48:01:014
0,350000	-0,070000	-0,560000	2020-10-13T22:48:01:034
0,630000	-0,140000	-0,700000	2020-10-13T22:48:01:053
0,770000	-0,140000	-0,770000	2020-10-13T22:48:01:075
0,560000	0,140000	-0,770000	2020-10-13T22:48:01:099
0,210000	0,140000	-0,700000	2020-10-13T22:48:01:112
0,140000	-0,070000	-0,700000	2020-10-13T22:48:01:135
0,070000	-0,210000	-0,630000	2020-10-13T22:48:01:153
0,070000	-0,070000	-0,770000	2020-10-13T22:48:01:174
0,350000	-0,070000	-0,770000	2020-10-13T22:48:01:195
0,350000	0,140000	-0,770000	2020-10-13T22:48:01:215
0,140000	0,070000	-0,770000	2020-10-13T22:48:01:233
0,210000	0,070000	-0,630000	2020-10-13T22:48:01:255
0,280000	-0,140000	-0,630000	2020-10-13T22:48:01:280
0,210000	-0,070000	-0,560000	2020-10-13T22:48:01:295
0,350000	-0,070000	-0,630000	2020-10-13T22:48:01:313
0,560000	-0,070000	-0,630000	2020-10-13T22:48:01:336
0,420000	-0,070000	-0,560000	2020-10-13T22:48:01:352
0,210000	0,140000	-0,490000	2020-10-13T22:48:01:373
0,490000	0,140000	-0,630000	2020-10-13T22:48:01:393
0,490000	0,070000	-0,630000	2020-10-13T22:48:01:422
0,070000	0,070000	-0,560000	2020-10-13T22:48:01:435
-0,350000	0,070000	-0,560000	2020-10-13T22:48:01:456
-0,280000	-0,280000	-0,560000	2020-10-13T22:48:01:474
0,070000	-0,350000	-0,560000	2020-10-13T22:48:01:496
0,770000	-0,280000	-0,700000	2020-10-13T22:48:01:515
1,120000	-0,280000	-0,910000	2020-10-13T22:48:01:534
0,560000	0,280000	-0,840000	2020-10-13T22:48:01:552
-0,070000	-0,210000	-0,700000	2020-10-13T22:48:01:575
-0,350000	-0,280000	-0,630000	2020-10-13T22:48:01:593
-0,420000	-0,210000	-0,770000	2020-10-13T22:48:01:614
-0,070000	-0,070000	-0,910000	2020-10-13T22:48:01:632
0,140000	0,210000	-0,910000	2020-10-13T22:48:01:654
0,210000	-0,210000	-0,910000	2020-10-13T22:48:01:673
0,140000	-0,350000	-0,770000	2020-10-13T22:48:01:696
0,490000	-0,210000	-0,770000	2020-10-13T22:48:01:728
1,120000	-0,070000	-0,700000	2020-10-13T22:48:01:924
1,050000	-0,280000	-0,700000	2020-10-13T22:48:01:925
0,490000	-0,350000	-0,630000	2020-10-13T22:48:01:925
0,350000	-0,280000	-0,560000	2020-10-13T22:48:01:926
0,420000	-0,140000	-0,560000	2020-10-13T22:48:01:927
0,700000	-0,070000	-0,700000	2020-10-13T22:48:01:928
0,700000	0,210000	-0,770000	2020-10-13T22:48:01:928
0,420000	0,070000	-0,840000	2020-10-13T22:48:01:930
0,420000	0,070000	-0,770000	2020-10-13T22:48:01:933
-0,070000	0,070000	-0,770000	2020-10-13T22:48:01:934
0,210000	0,070000	-0,840000	2020-10-13T22:48:01:934
0,210000	0,070000	-0,840000	2020-10-13T22:48:01:951
-0,140000	-0,210000	-0,770000	2020-10-13T22:48:01:973
0,140000	-0,210000	-0,840000	2020-10-13T22:48:01:994
0,490000	-0,210000	-0,770000	2020-10-13T22:48:02:013
0,770000	-0,210000	-0,700000	2020-10-13T22:48:02:032
0,910000	-0,140000	-0,770000	2020-10-13T22:48:02:056
0,490000	-0,140000	-0,630000	2020-10-13T22:48:02:075
0,210000	-0,280000	-0,560000	2020-10-13T22:48:02:094
0,630000	-0,280000	-0,630000	2020-10-13T22:48:02:141
1,050000	-0,140000	-0,630000	2020-10-13T22:48:02:167
0,910000	-0,140000	-0,630000	2020-10-13T22:48:02:169
0,490000	-0,070000	-0,700000	2020-10-13T22:48:02:184
0,280000	-0,070000	-0,770000	2020-10-13T22:48:02:200
0,350000	-0,070000	-0,700000	2020-10-13T22:48:02:254
0,140000	-0,070000	-0,630000	2020-10-13T22:48:02:255
0,140000	-0,140000	-0,840000	2020-10-13T22:48:02:256
0,140000	-0,070000	-0,980000	2020-10-13T22:48:02:274
-0,140000	-0,280000	-0,840000	2020-10-13T22:48:02:294
-0,070000	-0,280000	-0,630000	2020-10-13T22:48:02:316
-0,070000	-0,350000	-0,700000	2020-10-13T22:48:02:333
0,140000	0,070000	-0,770000	2020-10-13T22:48:02:352
0,560000	0,070000	-0,910000	2020-10-13T22:48:02:375
0,700000	0,070000	-0,770000	2020-10-13T22:48:02:397
0,630000	-0,210000	-0,700000	2020-10-13T22:48:02:436
0,560000	-0,210000	-0,630000	2020-10-13T22:48:02:437
0,770000	-0,210000	-0,560000	2020-10-13T22:48:02:527
0,910000	-0,210000	-0,700000	2020-10-13T22:48:02:530
0,770000	-0,070000	-0,630000	2020-10-13T22:48:02:531
0,490000	-0,140000	-0,630000	2020-10-13T22:48:02:531
0,560000	-0,210000	-0,630000	2020-10-13T22:48:02:536
0,770000	0,070000	-0,700000	2020-10-13T22:48:02:556
0,840000	0,070000	-0,770000	2020-10-13T22:48:02:573
0,700000	0,140000	-0,770000	2020-10-13T22:48:02:593
-0,210000	-0,140000	-0,700000	2020-10-13T22:48:02:614
-0,560000	-0,140000	-0,700000	2020-10-13T22:48:02:633
0,280000	-0,140000	-0,840000	2020-10-13T22:48:02:655
0,560000	-0,210000	-0,770000	2020-10-13T22:48:02:674
0,420000	0,070000	-0,840000	2020-10-13T22:48:02:695
0,420000	0,070000	-0,770000	2020-10-13T22:48:02:719
0,420000	-0,210000	-0,770000	2020-10-13T22:48:02:735
-0,070000	-0,210000	-0,770000	2020-10-13T22:48:02:754
-0,140000	-0,070000	-0,770000	2020-10-13T22:48:02:776
0,420000	-0,280000	-0,840000	2020-10-13T22:48:02:794
0,630000	-0,070000	-0,770000	2020-10-13T22:48:02:815
0,420000	0,070000	-0,700000	2020-10-13T22:48:02:835
0,420000	-0,350000	-0,700000	2020-10-13T22:48:02:855
0,490000	-0,140000	-0,700000	2020-10-13T22:48:02:874
0,630000	-0,210000	-0,630000	2020-10-13T22:48:02:896
0,490000	-0,210000	-0,700000	2020-10-13T22:48:02:913
0,630000	-0,210000	-0,840000	2020-10-13T22:48:02:935
0,770000	-0,070000	-0,700000	2020-10-13T22:48:02:956
0,350000	-0,140000	-0,700000	2020-10-13T22:48:02:977
0,350000	-0,280000	-0,770000	2020-10-13T22:48:02:994
0,350000	-0,140000	-0,700000	2020-10-13T22:48:03:016
0,280000	0,210000	-0,700000	2020-10-13T22:48:03:039
0,280000	-0,280000	-0,700000	2020-10-13T22:48:03:055
0,280000	-0,070000	-0,770000	2020-10-13T22:48:03:099
0,280000	0,070000	-0,840000	2020-10-13T22:48:03:100
0,490000	0,070000	-0,840000	2020-10-13T22:48:03:137
0,280000	-0,070000	-0,700000	2020-10-13T22:48:03:137
0,350000	-0,420000	-0,630000	2020-10-13T22:48:03:153
0,700000	-0,210000	-0,700000	2020-10-13T22:48:03:175
0,770000	-0,070000	-0,700000	2020-10-13T22:48:03:195
0,770000	-0,140000	-0,630000	2020-10-13T22:48:03:217
0,630000	-0,140000	-0,630000	2020-10-13T22:48:03:235
0,280000	-0,210000	-0,630000	2020-10-13T22:48:03:255
0,420000	-0,210000	-0,630000	2020-10-13T22:48:03:276
0,420000	0,070000	-0,770000	2020-10-13T22:48:03:297
0,210000	0,070000	-0,700000	2020-10-13T22:48:03:315
0,280000	0,070000	-0,700000	2020-10-13T22:48:03:337
0,280000	-0,070000	-0,700000	2020-10-13T22:48:03:357
0,140000	-0,140000	-0,770000	2020-10-13T22:48:03:376
-0,070000	-0,140000	-0,770000	2020-10-13T22:48:03:394
-0,070000	-0,210000	-0,770000	2020-10-13T22:48:03:416
0,350000	-0,210000	-0,770000	2020-10-13T22:48:03:435
0,140000	-0,070000	-0,840000	2020-10-13T22:48:03:456
0,140000	-0,350000	-0,770000	2020-10-13T22:48:03:475
0,140000	-0,210000	-0,770000	2020-10-13T22:48:03:496
0,210000	-0,280000	-0,700000	2020-10-13T22:48:03:515
0,140000	-0,140000	-0,770000	2020-10-13T22:48:03:536
0,140000	-0,420000	-0,700000	2020-10-13T22:48:03:555
1,050000	0,140000	-0,840000	2020-10-13T22:48:03:577
1,470000	-0,210000	-0,700000	2020-10-13T22:48:03:594
0,840000	-0,210000	-0,700000	2020-10-13T22:48:03:616
0,560000	-0,280000	-0,630000	2020-10-13T22:48:03:635
0,280000	-0,140000	-0,700000	2020-10-13T22:48:03:655
0,210000	-0,210000	-0,700000	2020-10-13T22:48:03:679
0,280000	-0,070000	-0,700000	2020-10-13T22:48:03:698
0,210000	-0,070000	-0,770000	2020-10-13T22:48:03:715
0,210000	-0,140000	-0,840000	2020-10-13T22:48:03:738
0,210000	-0,070000	-0,770000	2020-10-13T22:48:03:757
0,210000	-0,210000	-0,700000	2020-10-13T22:48:03:777
0,350000	-0,350000	-0,700000	2020-10-13T22:48:03:797
0,420000	-0,350000	-0,770000	2020-10-13T22:48:03:817
0,630000	-0,210000	-0,770000	2020-10-13T22:48:03:836
0,280000	-0,280000	-0,700000	2020-10-13T22:48:03:859
-0,140000	-0,350000	-0,700000	2020-10-13T22:48:03:875
0,140000	-0,210000	-0,700000	2020-10-13T22:48:03:897
0,910000	-0,210000	-0,770000	2020-10-13T22:48:03:920
1,050000	-0,210000	-0,770000	2020-10-13T22:48:03:937
0,700000	-0,070000	-0,700000	2020-10-13T22:48:03:955
0,630000	-0,140000	-0,630000	2020-10-13T22:48:03:977
0,490000	-0,350000	-0,560000	2020-10-13T22:48:03:997
0,070000	-0,280000	-0,560000	2020-10-13T22:48:04:015
0,070000	-0,140000	-0,770000	2020-10-13T22:48:04:034
0,630000	-0,140000	-0,700000	2020-10-13T22:48:04:058
0,280000	-0,140000	-0,700000	2020-10-13T22:48:04:077
0,210000	-0,140000	-0,770000	2020-10-13T22:48:04:099
0,210000	0,070000	-0,840000	2020-10-13T22:48:04:114
-0,070000	0,070000	-0,840000	2020-10-13T22:48:04:137
-0,420000	-0,070000	-0,840000	2020-10-13T22:48:04:159
-0,210000	-0,070000	-0,770000	2020-10-13T22:48:04:177
-0,210000	-0,070000	-0,840000	2020-10-13T22:48:04:194
0,070000	0,070000	-0,700000	2020-10-13T22:48:04:217
0,140000	0,140000	-0,770000	2020-10-13T22:48:04:235
0,210000	-0,070000	-0,770000	2020-10-13T22:48:04:264
0,280000	0,070000	-0,770000	2020-10-13T22:48:04:278
0,140000	0,070000	-0,770000	2020-10-13T22:48:04:297
0,420000	0,070000	-0,770000	2020-10-13T22:48:04:315
0,350000	0,070000	-0,700000	2020-10-13T22:48:04:337
0,070000	-0,210000	-0,700000	2020-10-13T22:48:04:355
0,210000	-0,140000	-0,630000	2020-10-13T22:48:04:377
0,770000	0,280000	-0,700000	2020-10-13T22:48:04:398
0,560000	-0,070000	-0,560000	2020-10-13T22:48:04:416
0,700000	0,140000	-0,630000	2020-10-13T22:48:04:435
0,910000	0,210000	-0,700000	2020-10-13T22:48:04:457
0,560000	-0,070000	-0,630000	2020-10-13T22:48:04:476
0,140000	0,210000	-0,700000	2020-10-13T22:48:04:497
0,420000	0,070000	-0,700000	2020-10-13T22:48:04:517
0,560000	0,070000	-0,770000	2020-10-13T22:48:04:537
0,210000	0,070000	-0,630000	2020-10-13T22:48:04:556
0,210000	0,070000	-0,630000	2020-10-13T22:48:04:583
0,490000	-0,140000	-0,700000	2020-10-13T22:48:04:594
0,140000	0,070000	-0,840000	2020-10-13T22:48:04:618
-0,280000	0,070000	-0,840000	2020-10-13T22:48:04:640
-0,140000	-0,280000	-0,630000	2020-10-13T22:48:04:656
-0,140000	-0,070000	-0,700000	2020-10-13T22:48:04:675
0,140000	0,070000	-0,840000	2020-10-13T22:48:04:697
0,490000	0,210000	-0,840000	2020-10-13T22:48:04:717
0,420000	0,070000	-0,770000	2020-10-13T22:48:04:737
0,210000	0,070000	-0,700000	2020-10-13T22:48:04:756
-0,140000	-0,350000	-0,630000	2020-10-13T22:48:04:778
0,280000	-0,350000	-0,560000	2020-10-13T22:48:04:796
0,910000	-0,210000	-0,630000	2020-10-13T22:48:04:817
0,910000	-0,070000	-0,630000	2020-10-13T22:48:04:835
0,560000	-0,070000	-0,490000	2020-10-13T22:48:04:857
0,630000	-0,070000	-0,700000	2020-10-13T22:48:04:878
0,560000	-0,070000	-0,630000	2020-10-13T22:48:04:897
0,420000	-0,140000	-0,630000	2020-10-13T22:48:04:916
0,350000	0,070000	-0,700000	2020-10-13T22:48:04:938
-0,070000	-0,070000	-0,910000	2020-10-13T22:48:04:955
0,210000	0,140000	-0,630000	2020-10-13T22:48:04:977
0,210000	-0,280000	-0,700000	2020-10-13T22:48:04:996
0,280000	-0,280000	-0,700000	2020-10-13T22:48:05:018
0,420000	0,140000	-0,770000	2020-10-13T22:48:05:037
0,210000	0,140000	-0,770000	2020-10-13T22:48:05:058
0,140000	-0,070000	-0,700000	2020-10-13T22:48:05:080
0,070000	-0,210000	-0,700000	2020-10-13T22:48:05:100
0,420000	-0,140000	-0,700000	2020-10-13T22:48:05:128
0,630000	-0,070000	-0,700000	2020-10-13T22:48:05:141
0,210000	-0,070000	-0,770000	2020-10-13T22:48:05:157
0,210000	-0,140000	-0,700000	2020-10-13T22:48:05:180
0,280000	-0,280000	-0,700000	2020-10-13T22:48:05:199
0,490000	-0,210000	-0,700000	2020-10-13T22:48:05:217
0,700000	-0,140000	-0,770000	2020-10-13T22:48:05:236
0,840000	-0,140000	-0,700000	2020-10-13T22:48:05:257
0,840000	-0,140000	-0,700000	2020-10-13T22:48:05:276
0,560000	-0,280000	-0,630000	2020-10-13T22:48:05:298
0,560000	-0,210000	-0,700000	2020-10-13T22:48:05:316
0,630000	-0,070000	-0,700000	2020-10-13T22:48:05:338
0,350000	-0,210000	-0,700000	2020-10-13T22:48:05:359
0,070000	-0,280000	-0,840000	2020-10-13T22:48:05:378
-0,140000	-0,280000	-0,980000	2020-10-13T22:48:05:396
-0,210000	-0,280000	-0,910000	2020-10-13T22:48:05:419
-0,210000	-0,210000	-0,770000	2020-10-13T22:48:05:436
-0,070000	-0,070000	-0,840000	2020-10-13T22:48:05:457
0,350000	-0,070000	-0,840000	2020-10-13T22:48:05:477
0,350000	-0,070000	-0,840000	2020-10-13T22:48:05:498
0,560000	-0,070000	-0,770000	2020-10-13T22:48:05:527
0,350000	-0,210000	-0,630000	2020-10-13T22:48:05:538
0,350000	-0,280000	-0,700000	2020-10-13T22:48:05:557
0,910000	-0,140000	-0,700000	2020-10-13T22:48:05:580
0,840000	-0,210000	-0,630000	2020-10-13T22:48:05:616
0,420000	-0,350000	-0,700000	2020-10-13T22:48:05:619
0,700000	-0,140000	-0,700000	2020-10-13T22:48:05:637
0,770000	-0,210000	-0,700000	2020-10-13T22:48:05:659
0,490000	-0,070000	-0,630000	2020-10-13T22:48:05:679
0,700000	-0,070000	-0,770000	2020-10-13T22:48:05:698
0,350000	-0,070000	-0,840000	2020-10-13T22:48:05:718
-0,280000	-0,140000	-0,770000	2020-10-13T22:48:05:739
-0,140000	-0,210000	-0,840000	2020-10-13T22:48:05:757
0,280000	-0,070000	-0,840000	2020-10-13T22:48:05:777
0,070000	-0,070000	-0,770000	2020-10-13T22:48:05:798
-0,070000	-0,070000	-0,770000	2020-10-13T22:48:05:820
0,350000	-0,140000	-0,840000	2020-10-13T22:48:05:843
0,210000	-0,070000	-0,840000	2020-10-13T22:48:05:859
-0,140000	-0,280000	-0,770000	2020-10-13T22:48:05:877
-0,140000	-0,140000	-0,770000	2020-10-13T22:48:05:899
0,140000	-0,070000	-0,770000	2020-10-13T22:48:05:916
0,630000	-0,070000	-0,700000	2020-10-13T22:48:05:938
0,700000	-0,140000	-0,700000	2020-10-13T22:48:05:956
0,770000	-0,140000	-0,700000	2020-10-13T22:48:05:979
0,770000	-0,140000	-0,700000	2020-10-13T22:48:05:996
0,630000	-0,140000	-0,700000	2020-10-13T22:48:06:019
0,280000	-0,140000	-0,630000	2020-10-13T22:48:06:036
0,280000	-0,070000	-0,700000	2020-10-13T22:48:06:059
0,630000	-0,210000	-0,700000	2020-10-13T22:48:06:088
0,700000	-0,210000	-0,770000	2020-10-13T22:48:06:106
0,700000	-0,210000	-0,770000	2020-10-13T22:48:06:117
0,700000	-0,210000	-0,630000	2020-10-13T22:48:06:139
0,350000	-0,280000	-0,700000	2020-10-13T22:48:06:156
0,070000	-0,280000	-0,770000	2020-10-13T22:48:06:179
0,070000	-0,210000	-0,770000	2020-10-13T22:48:06:198
0,070000	-0,070000	-0,700000	2020-10-13T22:48:06:219
0,140000	-0,140000	-0,700000	2020-10-13T22:48:06:237
0,420000	0,210000	-0,840000	2020-10-13T22:48:06:258
0,630000	0,210000	-0,910000	2020-10-13T22:48:06:277
0,490000	-0,140000	-0,770000	2020-10-13T22:48:06:299
0,140000	-0,210000	-0,700000	2020-10-13T22:48:06:319
0,070000	-0,420000	-0,630000	2020-10-13T22:48:06:340
0,350000	-0,210000	-0,700000	2020-10-13T22:48:06:360
0,560000	-0,280000	-0,630000	2020-10-13T22:48:06:380
0,700000	-0,140000	-0,700000	2020-10-13T22:48:06:397
0,700000	-0,140000	-0,840000	2020-10-13T22:48:06:430
0,350000	-0,070000	-0,770000	2020-10-13T22:48:06:439
0,280000	-0,210000	-0,840000	2020-10-13T22:48:06:463
0,420000	-0,070000	-0,770000	2020-10-13T22:48:06:478
0,350000	-0,070000	-0,770000	2020-10-13T22:48:06:501
0,420000	-0,140000	-0,840000	2020-10-13T22:48:06:518
0,210000	-0,210000	-0,700000	2020-10-13T22:48:06:540
-0,140000	-0,280000	-0,630000	2020-10-13T22:48:06:562
-0,210000	-0,210000	-0,630000	2020-10-13T22:48:06:579
0,140000	-0,280000	-0,700000	2020-10-13T22:48:06:597
0,560000	-0,210000	-0,700000	2020-10-13T22:48:06:619
0,630000	-0,140000	-0,700000	2020-10-13T22:48:06:638
0,490000	-0,420000	-0,770000	2020-10-13T22:48:06:658
0,280000	-0,140000	-0,770000	2020-10-13T22:48:06:677
0,070000	-0,280000	-0,700000	2020-10-13T22:48:06:699
0,070000	-0,140000	-0,630000	2020-10-13T22:48:06:717
0,490000	-0,210000	-0,700000	2020-10-13T22:48:06:739
0,700000	-0,070000	-0,700000	2020-10-13T22:48:06:758
0,630000	-0,140000	-0,700000	2020-10-13T22:48:06:780
0,700000	-0,210000	-0,700000	2020-10-13T22:48:06:801
0,560000	-0,280000	-0,700000	2020-10-13T22:48:06:819
0,490000	-0,210000	-0,630000	2020-10-13T22:48:06:836
0,490000	-0,210000	-0,700000	2020-10-13T22:48:06:859
0,420000	-0,210000	-0,700000	2020-10-13T22:48:06:878
0,420000	-0,070000	-0,630000	2020-10-13T22:48:06:899
0,350000	-0,070000	-0,700000	2020-10-13T22:48:06:918
0,140000	-0,140000	-0,630000	2020-10-13T22:48:06:941
0,560000	-0,210000	-0,700000	2020-10-13T22:48:06:958
1,120000	-0,070000	-0,770000	2020-10-13T22:48:06:981
0,700000	0,070000	-0,770000	2020-10-13T22:48:07:000
0,280000	-0,210000	-0,630000	2020-10-13T22:48:07:021
0,070000	-0,350000	-0,560000	2020-10-13T22:48:07:045
-0,840000	-0,070000	-0,630000	2020-10-13T22:48:07:061
-0,210000	-0,070000	-0,560000	2020-10-13T22:48:07:081
0,840000	-0,070000	-0,630000	2020-10-13T22:48:07:103
0,560000	0,070000	-0,700000	2020-10-13T22:48:07:116
0,140000	-0,070000	-0,770000	2020-10-13T22:48:07:140
0,210000	0,070000	-0,770000	2020-10-13T22:48:07:159
0,420000	-0,070000	-0,770000	2020-10-13T22:48:07:204
0,210000	-0,070000	-0,700000	2020-10-13T22:48:07:206
0,350000	-0,210000	-0,630000	2020-10-13T22:48:07:221
0,700000	-0,210000	-0,630000	2020-10-13T22:48:07:239
0,770000	-0,070000	-0,560000	2020-10-13T22:48:07:260
0,350000	-0,140000	-0,560000	2020-10-13T22:48:07:278
0,490000	-0,210000	-0,630000	2020-10-13T22:48:07:299
0,630000	0,070000	-0,770000	2020-10-13T22:48:07:318
0,420000	0,070000	-0,770000	2020-10-13T22:48:07:341
0,140000	-0,280000	-0,840000	2020-10-13T22:48:07:358
0,140000	0,420000	-0,770000	2020-10-13T22:48:07:380
0,210000	0,420000	-0,840000	2020-10-13T22:48:07:398
-0,560000	-0,490000	-0,700000	2020-10-13T22:48:07:420
-0,630000	-0,210000	-0,770000	2020-10-13T22:48:07:438
0,280000	-0,140000	-0,700000	2020-10-13T22:48:07:460
0,630000	-0,140000	-0,700000	2020-10-13T22:48:07:479
0,420000	0,350000	-0,770000	2020-10-13T22:48:07:500
0,350000	0,070000	-0,770000	2020-10-13T22:48:07:521
0,350000	-0,210000	-0,840000	2020-10-13T22:48:07:541
-0,070000	-0,140000	-0,770000	2020-10-13T22:48:07:558
0,070000	-0,280000	-0,700000	2020-10-13T22:48:07:581
0,560000	-0,210000	-0,630000	2020-10-13T22:48:07:598
0,490000	-0,210000	-0,630000	2020-10-13T22:48:07:620
0,490000	-0,210000	-0,630000	2020-10-13T22:48:07:639
0,700000	0,210000	-0,630000	2020-10-13T22:48:07:660
0,840000	0,210000	-0,630000	2020-10-13T22:48:07:679
0,840000	-0,070000	-0,630000	2020-10-13T22:48:07:700
0,490000	0,210000	-0,630000	2020-10-13T22:48:07:719
0,350000	-0,070000	-0,630000	2020-10-13T22:48:07:740
0,560000	-0,140000	-0,700000	2020-10-13T22:48:07:760
0,280000	-0,070000	-0,700000	2020-10-13T22:48:07:783
0,140000	-0,070000	-0,630000	2020-10-13T22:48:07:799
0,490000	0,070000	-0,840000	2020-10-13T22:48:07:822
0,420000	0,140000	-0,840000	2020-10-13T22:48:07:844
0,420000	0,140000	-0,700000	2020-10-13T22:48:07:862
-0,070000	-0,070000	-0,700000	2020-10-13T22:48:07:881
0,140000	-0,210000	-0,700000	2020-10-13T22:48:07:903
0,280000	-0,210000	-0,770000	2020-10-13T22:48:07:918
0,280000	-0,070000	-0,700000	2020-10-13T22:48:07:942
-0,070000	-0,210000	-0,630000	2020-10-13T22:48:07:960
0,070000	-0,140000	-0,910000	2020-10-13T22:48:07:981
0,420000	-0,070000	-0,910000	2020-10-13T22:48:07:999
-0,070000	-0,070000	-0,700000	2020-10-13T22:48:08:031
-0,350000	-0,210000	-0,560000	2020-10-13T22:48:08:043
0,070000	-0,210000	-0,700000	2020-10-13T22:48:08:062
0,630000	-0,210000	-0,840000	2020-10-13T22:48:08:093
0,560000	0,070000	-0,770000	2020-10-13T22:48:08:123
0,210000	-0,140000	-0,630000	2020-10-13T22:48:08:124
0,070000	-0,350000	-0,560000	2020-10-13T22:48:08:141
0,770000	-0,280000	-0,560000	2020-10-13T22:48:08:158
1,400000	-0,070000	-0,630000	2020-10-13T22:48:08:181
1,190000	-0,070000	-0,560000	2020-10-13T22:48:08:199
0,630000	0,140000	-0,630000	2020-10-13T22:48:08:221
0,490000	0,140000	-0,630000	2020-10-13T22:48:08:241
0,420000	-0,140000	-0,630000	2020-10-13T22:48:08:261
0,420000	-0,140000	-0,630000	2020-10-13T22:48:08:279
0,350000	-0,140000	-0,700000	2020-10-13T22:48:08:301
0,350000	-0,280000	-0,770000	2020-10-13T22:48:08:319
0,070000	-0,070000	-0,700000	2020-10-13T22:48:08:341
0,070000	-0,070000	-0,770000	2020-10-13T22:48:08:359
0,210000	-0,070000	-0,840000	2020-10-13T22:48:08:381
0,140000	-0,070000	-0,840000	2020-10-13T22:48:08:399
-0,140000	0,070000	-0,840000	2020-10-13T22:48:08:421
-0,350000	-0,070000	-0,840000	2020-10-13T22:48:08:440
-0,350000	-0,210000	-0,840000	2020-10-13T22:48:08:460
0,280000	-0,210000	-0,770000	2020-10-13T22:48:08:484
0,210000	-0,070000	-0,700000	2020-10-13T22:48:08:501
0,210000	-0,070000	-0,700000	2020-10-13T22:48:08:519
0,490000	-0,210000	-0,630000	2020-10-13T22:48:08:544
0,630000	-0,490000	-0,630000	2020-10-13T22:48:08:561
0,910000	-0,140000	-0,630000	2020-10-13T22:48:08:583
0,980000	-0,280000	-0,630000	2020-10-13T22:48:08:600
0,700000	-0,070000	-0,700000	2020-10-13T22:48:08:622
0,280000	-0,070000	-0,630000	2020-10-13T22:48:08:641
-0,070000	-0,140000	-0,700000	2020-10-13T22:48:08:663
0,140000	-0,070000	-0,770000	2020-10-13T22:48:08:681
0,210000	-0,140000	-0,840000	2020-10-13T22:48:08:701
0,070000	-0,140000	-0,980000	2020-10-13T22:48:08:732
0,210000	0,070000	-0,980000	2020-10-13T22:48:08:741
0,350000	-0,280000	-0,910000	2020-10-13T22:48:08:761
0,210000	-0,280000	-0,980000	2020-10-13T22:48:08:781
0,210000	-0,140000	-0,840000	2020-10-13T22:48:08:822
0,280000	-0,070000	-0,770000	2020-10-13T22:48:08:823
0,280000	-0,140000	-0,490000	2020-10-13T22:48:08:841
0,350000	-0,140000	-0,700000	2020-10-13T22:48:08:863
0,700000	0,070000	-0,770000	2020-10-13T22:48:08:885
0,560000	0,070000	-0,770000	2020-10-13T22:48:08:901
0,210000	-0,210000	-0,770000	2020-10-13T22:48:08:919
0,210000	-0,280000	-0,770000	2020-10-13T22:48:08:941
0,070000	-0,280000	-0,700000	2020-10-13T22:48:08:964
0,560000	-0,280000	-0,770000	2020-10-13T22:48:08:981
0,700000	-0,070000	-0,770000	2020-10-13T22:48:09:000
0,210000	-0,280000	-0,700000	2020-10-13T22:48:09:022
0,140000	-0,350000	-0,770000	2020-10-13T22:48:09:040
0,630000	-0,210000	-0,700000	2020-10-13T22:48:09:061
0,560000	0,070000	-0,770000	2020-10-13T22:48:09:083
0,350000	0,070000	-0,770000	2020-10-13T22:48:09:102
0,700000	0,070000	-0,770000	2020-10-13T22:48:09:120
0,770000	-0,070000	-0,840000	2020-10-13T22:48:09:141
0,280000	-0,070000	-0,840000	2020-10-13T22:48:09:159
-0,140000	-0,210000	-0,840000	2020-10-13T22:48:09:181
0,070000	-0,070000	-0,910000	2020-10-13T22:48:09:204
0,070000	0,210000	-0,840000	2020-10-13T22:48:09:221
0,140000	-0,140000	-0,840000	2020-10-13T22:48:09:240
0,490000	0,070000	-0,770000	2020-10-13T22:48:09:262
0,560000	-0,070000	-0,770000	2020-10-13T22:48:09:280
0,560000	-0,140000	-0,770000	2020-10-13T22:48:09:301
0,560000	-0,070000	-0,700000	2020-10-13T22:48:09:320
-0,140000	-0,350000	-0,700000	2020-10-13T22:48:09:341
0,210000	-0,140000	-0,700000	2020-10-13T22:48:09:359
0,630000	-0,070000	-0,840000	2020-10-13T22:48:09:382
0,560000	-0,140000	-0,910000	2020-10-13T22:48:09:410
0,840000	-0,140000	-0,980000	2020-10-13T22:48:09:421
0,910000	-0,140000	-0,910000	2020-10-13T22:48:09:443
0,490000	-0,280000	-0,840000	2020-10-13T22:48:09:461
-0,210000	-0,350000	-0,840000	2020-10-13T22:48:09:492
-0,140000	-0,140000	-0,700000	2020-10-13T22:48:09:503
0,280000	-0,140000	-0,560000	2020-10-13T22:48:09:521
0,560000	-0,070000	-0,700000	2020-10-13T22:48:09:543
0,910000	0,070000	-0,770000	2020-10-13T22:48:09:559
0,490000	0,070000	-0,700000	2020-10-13T22:48:09:584
-0,490000	-0,210000	-0,560000	2020-10-13T22:48:09:601
-0,700000	-0,210000	-0,630000	2020-10-13T22:48:09:623
0,140000	-0,140000	-0,840000	2020-10-13T22:48:09:641
0,700000	0,070000	-0,840000	2020-10-13T22:48:09:662
0,560000	0,070000	-0,840000	2020-10-13T22:48:09:689
0,280000	-0,210000	-0,700000	2020-10-13T22:48:09:703
0,350000	-0,140000	-0,630000	2020-10-13T22:48:09:722
0,560000	-0,070000	-0,630000	2020-10-13T22:48:09:745
0,910000	-0,140000	-0,560000	2020-10-13T22:48:09:760
0,700000	-0,210000	-0,630000	2020-10-13T22:48:09:782
0,350000	-0,140000	-0,630000	2020-10-13T22:48:09:801
0,630000	-0,350000	-0,560000	2020-10-13T22:48:09:822
0,770000	-0,140000	-0,700000	2020-10-13T22:48:09:841
0,630000	0,070000	-0,630000	2020-10-13T22:48:09:862
0,280000	-0,070000	-0,630000	2020-10-13T22:48:09:881
0,070000	-0,420000	-0,700000	2020-10-13T22:48:09:902
-0,070000	-0,420000	-0,770000	2020-10-13T22:48:09:924
-0,280000	-0,280000	-0,700000	2020-10-13T22:48:09:942
-0,210000	0,070000	-0,700000	2020-10-13T22:48:09:960
0,350000	0,070000	-0,910000	2020-10-13T22:48:09:983
0,560000	-0,070000	-0,840000	2020-10-13T22:48:10:001
0,140000	-0,070000	-0,700000	2020-10-13T22:48:10:022
0,070000	-0,350000	-0,770000	2020-10-13T22:48:10:041
0,070000	-0,350000	-0,700000	2020-10-13T22:48:10:063
-0,210000	-0,210000	-0,560000	2020-10-13T22:48:10:097
-0,140000	-0,210000	-0,630000	2020-10-13T22:48:10:107
0,490000	-0,140000	-0,630000	2020-10-13T22:48:10:122
0,490000	-0,140000	-0,700000	2020-10-13T22:48:10:143
0,770000	-0,140000	-0,770000	2020-10-13T22:48:10:182
0,910000	0,070000	-0,770000	2020-10-13T22:48:10:183
0,490000	0,070000	-0,700000	2020-10-13T22:48:10:200
0,140000	-0,210000	-0,700000	2020-10-13T22:48:10:226
0,420000	-0,280000	-0,700000	2020-10-13T22:48:10:241
0,560000	-0,280000	-0,770000	2020-10-13T22:48:10:260
0,490000	0,070000	-0,700000	2020-10-13T22:48:10:287
0,630000	0,070000	-0,630000	2020-10-13T22:48:10:301
0,490000	0,070000	-0,560000	2020-10-13T22:48:10:322
0,420000	0,070000	-0,700000	2020-10-13T22:48:10:344
0,490000	-0,070000	-0,770000	2020-10-13T22:48:10:361
-0,140000	-0,070000	-0,630000	2020-10-13T22:48:10:382
-0,840000	-0,210000	-0,490000	2020-10-13T22:48:10:404
-0,070000	-0,490000	-0,630000	2020-10-13T22:48:10:423
0,700000	-0,560000	-0,630000	2020-10-13T22:48:10:441
0,840000	-0,350000	-0,700000	2020-10-13T22:48:10:464
0,980000	-0,560000	-0,630000	2020-10-13T22:48:10:482
0,910000	-0,490000	-0,700000	2020-10-13T22:48:10:503
0,700000	-0,350000	-0,490000	2020-10-13T22:48:10:522
0,630000	-0,350000	-0,560000	2020-10-13T22:48:10:543
1,260000	-0,560000	-0,490000	2020-10-13T22:48:10:562
1,190000	-0,140000	-0,770000	2020-10-13T22:48:10:583
0,350000	-0,140000	-0,770000	2020-10-13T22:48:10:600
-0,070000	-0,350000	-0,770000	2020-10-13T22:48:10:623
0,420000	-0,280000	-0,980000	2020-10-13T22:48:10:643
0,630000	0,070000	-1,120000	2020-10-13T22:48:10:662
0,070000	0,070000	-0,980000	2020-10-13T22:48:10:682
-0,140000	-0,210000	-0,840000	2020-10-13T22:48:10:703
-0,560000	-0,210000	-0,840000	2020-10-13T22:48:10:720
0,420000	-0,350000	-0,560000	2020-10-13T22:48:10:743
0,770000	0,070000	-0,700000	2020-10-13T22:48:10:761
0,420000	-0,140000	-0,700000	2020-10-13T22:48:10:786
0,420000	-0,210000	-0,770000	2020-10-13T22:48:10:801
-0,210000	-0,490000	-0,770000	2020-10-13T22:48:10:824
-0,210000	-0,420000	-0,840000	2020-10-13T22:48:10:841
0,070000	0,140000	-0,840000	2020-10-13T22:48:10:866
0,420000	0,070000	-0,910000	2020-10-13T22:48:10:886
0,350000	0,070000	-0,840000	2020-10-13T22:48:10:904
0,210000	0,070000	-0,770000	2020-10-13T22:48:10:944
-0,210000	0,070000	-0,630000	2020-10-13T22:48:10:945
-0,210000	-0,140000	-0,490000	2020-10-13T22:48:10:965
-0,210000	-0,420000	-0,630000	2020-10-13T22:48:10:989
0,770000	-0,140000	-0,630000	2020-10-13T22:48:11:003
1,120000	0,070000	-0,700000	2020-10-13T22:48:11:023
1,050000	0,070000	-0,700000	2020-10-13T22:48:11:041
0,770000	-0,070000	-0,630000	2020-10-13T22:48:11:065
0,630000	-0,070000	-0,630000	2020-10-13T22:48:11:094
0,420000	-0,070000	-0,700000	2020-10-13T22:48:11:102
0,420000	0,070000	-0,700000	2020-10-13T22:48:11:127
0,490000	-0,140000	-0,630000	2020-10-13T22:48:11:144
0,350000	-0,280000	-0,630000	2020-10-13T22:48:11:161
0,140000	-0,070000	-0,770000	2020-10-13T22:48:11:185
0,350000	-0,070000	-0,840000	2020-10-13T22:48:11:200
0,070000	0,140000	-0,770000	2020-10-13T22:48:11:224
-0,280000	0,140000	-0,770000	2020-10-13T22:48:11:243
0,070000	0,210000	-0,910000	2020-10-13T22:48:11:264
0,490000	0,280000	-0,980000	2020-10-13T22:48:11:282
0,630000	0,280000	-0,840000	2020-10-13T22:48:11:305
0,700000	-0,420000	-0,770000	2020-10-13T22:48:11:322
0,910000	-0,210000	-0,630000	2020-10-13T22:48:11:344
0,630000	-0,350000	-0,490000	2020-10-13T22:48:11:364
0,980000	-0,280000	-0,490000	2020-10-13T22:48:11:386
1,400000	-0,280000	-0,560000	2020-10-13T22:48:11:402
1,610000	-0,070000	-0,560000	2020-10-13T22:48:11:424
1,680000	-0,140000	-0,560000	2020-10-13T22:48:11:442
0,840000	-0,210000	-0,560000	2020-10-13T22:48:11:465
-0,070000	0,070000	-0,420000	2020-10-13T22:48:11:483
-0,770000	0,140000	-0,210000	2020-10-13T22:48:11:503
-0,700000	0,350000	-0,350000	2020-10-13T22:48:11:522
0,770000	0,350000	-0,560000	2020-10-13T22:48:11:546
1,890000	0,280000	-0,560000	2020-10-13T22:48:11:563
1,190000	0,140000	-0,630000	2020-10-13T22:48:11:588
0,210000	0,140000	-0,630000	2020-10-13T22:48:11:606
0,210000	0,140000	-0,700000	2020-10-13T22:48:11:627
0,280000	0,140000	-0,770000	2020-10-13T22:48:11:649
0,210000	0,140000	-0,840000	2020-10-13T22:48:11:666
0,350000	0,140000	-0,840000	2020-10-13T22:48:11:685
0,490000	-0,210000	-0,770000	2020-10-13T22:48:11:706
0,280000	-0,210000	-0,910000	2020-10-13T22:48:11:722
-0,280000	-0,070000	-0,840000	2020-10-13T22:48:11:743
-0,420000	-0,140000	-0,770000	2020-10-13T22:48:11:762
0,280000	-0,280000	-0,770000	2020-10-13T22:48:11:786
0,280000	0,140000	-0,770000	2020-10-13T22:48:11:802
0,560000	0,140000	-0,770000	2020-10-13T22:48:11:826
0,840000	0,210000	-0,770000	2020-10-13T22:48:11:851
0,770000	0,140000	-0,700000	2020-10-13T22:48:11:866
0,560000	0,140000	-0,700000	2020-10-13T22:48:11:882
0,630000	0,070000	-0,630000	2020-10-13T22:48:11:907
0,490000	-0,280000	-0,560000	2020-10-13T22:48:11:922
0,140000	-0,280000	-0,700000	2020-10-13T22:48:11:944
0,280000	0,070000	-0,910000	2020-10-13T22:48:11:961
0,210000	0,280000	-0,770000	2020-10-13T22:48:11:985
0,350000	-0,070000	-0,630000	2020-10-13T22:48:12:002
0,280000	-0,070000	-0,700000	2020-10-13T22:48:12:025
0,280000	0,070000	-0,770000	2020-10-13T22:48:12:043
0,420000	0,420000	-0,980000	2020-10-13T22:48:12:064
0,210000	-0,070000	-0,910000	2020-10-13T22:48:12:094
-0,210000	-0,070000	-0,840000	2020-10-13T22:48:12:107
-0,350000	-0,140000	-0,840000	2020-10-13T22:48:12:123
0,070000	-0,210000	-0,980000	2020-10-13T22:48:12:144
0,280000	-0,070000	-0,910000	2020-10-13T22:48:12:163
0,350000	-0,210000	-0,840000	2020-10-13T22:48:12:185
0,350000	-0,280000	-0,840000	2020-10-13T22:48:12:203
0,350000	-0,070000	-0,770000	2020-10-13T22:48:12:224
-0,140000	-0,070000	-0,770000	2020-10-13T22:48:12:243
0,070000	-0,070000	-0,840000	2020-10-13T22:48:12:266
0,350000	-0,140000	-0,840000	2020-10-13T22:48:12:283
-0,210000	0,070000	-0,910000	2020-10-13T22:48:12:304
-0,560000	0,070000	-0,980000	2020-10-13T22:48:12:325
-0,350000	0,070000	-0,980000	2020-10-13T22:48:12:345
-0,210000	0,070000	-0,910000	2020-10-13T22:48:12:362
-0,280000	-0,070000	-0,910000	2020-10-13T22:48:12:386
-0,140000	-0,070000	-0,980000	2020-10-13T22:48:12:403
-0,070000	-0,070000	-0,910000	2020-10-13T22:48:12:426
-0,630000	-0,070000	-0,840000	2020-10-13T22:48:12:447
-0,210000	-0,140000	-0,840000	2020-10-13T22:48:12:466
0,490000	0,070000	-0,980000	2020-10-13T22:48:12:484
0,560000	0,070000	-0,770000	2020-10-13T22:48:12:538
0,280000	-0,140000	-0,560000	2020-10-13T22:48:12:539
0,350000	-0,140000	-0,630000	2020-10-13T22:48:12:548
0,700000	-0,070000	-0,700000	2020-10-13T22:48:12:566
0,630000	-0,070000	-0,630000	2020-10-13T22:48:12:588
0,210000	-0,350000	-0,490000	2020-10-13T22:48:12:603
0,420000	-0,280000	-0,630000	2020-10-13T22:48:12:624
0,980000	-0,140000	-0,840000	2020-10-13T22:48:12:650
0,840000	0,140000	-0,700000	2020-10-13T22:48:12:667
-0,420000	0,140000	-0,560000	2020-10-13T22:48:12:684
-0,140000	-0,280000	-0,770000	2020-10-13T22:48:12:707
0,910000	-0,070000	-0,700000	2020-10-13T22:48:12:723
0,700000	0,210000	-0,630000	2020-10-13T22:48:12:746
-0,210000	-0,280000	-0,490000	2020-10-13T22:48:12:763
0,070000	-0,210000	-0,700000	2020-10-13T22:48:12:785
0,420000	0,210000	-0,840000	2020-10-13T22:48:12:808
0,420000	0,070000	-0,840000	2020-10-13T22:48:12:826
0,420000	0,070000	-0,840000	2020-10-13T22:48:12:843
0,140000	0,070000	-0,840000	2020-10-13T22:48:12:865
0,210000	-0,140000	-0,770000	2020-10-13T22:48:12:884
0,280000	-0,350000	-0,700000	2020-10-13T22:48:12:905
0,490000	-0,210000	-0,630000	2020-10-13T22:48:12:923
0,630000	-0,210000	-0,630000	2020-10-13T22:48:12:945
0,700000	-0,140000	-0,630000	2020-10-13T22:48:12:964
0,630000	-0,140000	-0,630000	2020-10-13T22:48:12:987
0,070000	-0,140000	-0,630000	2020-10-13T22:48:13:004
-0,140000	-0,280000	-0,700000	2020-10-13T22:48:13:025
-0,140000	-0,140000	-0,630000	2020-10-13T22:48:13:055
-0,140000	-0,140000	-0,630000	2020-10-13T22:48:13:066
0,420000	-0,280000	-0,700000	2020-10-13T22:48:13:091
0,630000	-0,140000	-0,700000	2020-10-13T22:48:13:106
0,490000	-0,070000	-0,700000	2020-10-13T22:48:13:124
0,280000	-0,210000	-0,770000	2020-10-13T22:48:13:147
0,070000	-0,210000	-0,910000	2020-10-13T22:48:13:170
-0,210000	-0,350000	-0,840000	2020-10-13T22:48:13:186
-0,420000	-0,350000	-0,770000	2020-10-13T22:48:13:205
0,070000	-0,070000	-0,770000	2020-10-13T22:48:13:236
0,420000	-0,140000	-0,770000	2020-10-13T22:48:13:246
0,210000	-0,070000	-0,630000	2020-10-13T22:48:13:265
0,560000	-0,140000	-0,630000	2020-10-13T22:48:13:290
0,770000	-0,210000	-0,630000	2020-10-13T22:48:13:310
0,420000	-0,210000	-0,560000	2020-10-13T22:48:13:329
0,280000	-0,210000	-0,420000	2020-10-13T22:48:13:345
0,560000	0,140000	-0,490000	2020-10-13T22:48:13:364
0,490000	0,070000	-0,560000	2020-10-13T22:48:13:386
0,070000	-0,070000	-0,560000	2020-10-13T22:48:13:418
0,070000	-0,490000	-0,630000	2020-10-13T22:48:13:425
0,490000	-0,350000	-0,630000	2020-10-13T22:48:13:442
0,770000	-0,140000	-0,700000	2020-10-13T22:48:13:466
0,770000	-0,140000	-0,840000	2020-10-13T22:48:13:483
0,350000	-0,140000	-0,700000	2020-10-13T22:48:13:505
0,070000	-0,280000	-0,630000	2020-10-13T22:48:13:527
0,210000	-0,280000	-0,700000	2020-10-13T22:48:13:547
0,560000	-0,280000	-0,770000	2020-10-13T22:48:13:563
0,630000	0,140000	-0,770000	2020-10-13T22:48:13:587
0,280000	0,140000	-0,700000	2020-10-13T22:48:13:604
-0,420000	-0,350000	-0,630000	2020-10-13T22:48:13:627
0,070000	0,070000	-0,770000	2020-10-13T22:48:13:644
0,280000	0,070000	-0,700000	2020-10-13T22:48:13:666
0,490000	0,140000	-0,700000	2020-10-13T22:48:13:685
0,910000	-0,140000	-0,770000	2020-10-13T22:48:13:708
0,700000	-0,140000	-0,700000	2020-10-13T22:48:13:724
0,350000	-0,210000	-0,630000	2020-10-13T22:48:13:746
0,490000	-0,280000	-0,630000	2020-10-13T22:48:13:768
0,700000	-0,350000	-0,700000	2020-10-13T22:48:13:788
0,490000	-0,350000	-0,700000	2020-10-13T22:48:13:804
0,490000	-0,140000	-0,770000	2020-10-13T22:48:13:827
0,350000	-0,210000	-0,630000	2020-10-13T22:48:13:844
0,420000	-0,070000	-0,630000	2020-10-13T22:48:13:867
0,560000	-0,140000	-0,770000	2020-10-13T22:48:13:885
0,210000	-0,140000	-0,840000	2020-10-13T22:48:13:906
0,070000	-0,140000	-0,840000	2020-10-13T22:48:13:924
0,070000	-0,280000	-0,770000	2020-10-13T22:48:13:948
0,280000	-0,140000	-0,770000	2020-10-13T22:48:13:965
0,350000	-0,210000	-0,770000	2020-10-13T22:48:13:991
0,280000	-0,070000	-0,840000	2020-10-13T22:48:14:009
0,350000	-0,070000	-0,770000	2020-10-13T22:48:14:029
0,070000	-0,210000	-0,700000	2020-10-13T22:48:14:046
0,070000	-0,280000	-0,770000	2020-10-13T22:48:14:067
0,420000	-0,140000	-0,770000	2020-10-13T22:48:14:101
0,560000	-0,070000	-0,700000	2020-10-13T22:48:14:109
0,490000	-0,070000	-0,700000	2020-10-13T22:48:14:125
0,490000	-0,070000	-0,700000	2020-10-13T22:48:14:148
0,700000	-0,070000	-0,700000	2020-10-13T22:48:14:165
0,770000	-0,070000	-0,630000	2020-10-13T22:48:14:188
0,700000	-0,140000	-0,630000	2020-10-13T22:48:14:205
0,770000	0,140000	-0,700000	2020-10-13T22:48:14:226
0,350000	-0,070000	-0,630000	2020-10-13T22:48:14:247
-0,070000	-0,210000	-0,630000	2020-10-13T22:48:14:268
-0,070000	-0,070000	-0,630000	2020-10-13T22:48:14:285
0,420000	0,070000	-0,700000	2020-10-13T22:48:14:307
0,700000	0,070000	-0,840000	2020-10-13T22:48:14:324
0,770000	0,280000	-0,770000	2020-10-13T22:48:14:348
0,210000	0,210000	-0,770000	2020-10-13T22:48:14:365
0,210000	0,070000	-0,700000	2020-10-13T22:48:14:387
0,210000	-0,210000	-0,770000	2020-10-13T22:48:14:405
0,420000	-0,210000	-0,700000	2020-10-13T22:48:14:428
0,350000	-0,210000	-0,560000	2020-10-13T22:48:14:446
0,280000	-0,350000	-0,490000	2020-10-13T22:48:14:467
0,560000	-0,070000	-0,700000	2020-10-13T22:48:14:487
0,910000	-0,070000	-0,700000	2020-10-13T22:48:14:514
0,560000	-0,070000	-0,630000	2020-10-13T22:48:14:527
0,140000	-0,280000	-0,560000	2020-10-13T22:48:14:548
0,140000	0,140000	-0,840000	2020-10-13T22:48:14:564
0,420000	0,070000	-0,840000	2020-10-13T22:48:14:594
0,420000	0,070000	-0,630000	2020-10-13T22:48:14:607
-0,210000	-0,140000	-0,630000	2020-10-13T22:48:14:628
-0,070000	-0,280000	-0,560000	2020-10-13T22:48:14:647
0,770000	-0,280000	-0,630000	2020-10-13T22:48:14:671
0,980000	-0,070000	-0,700000	2020-10-13T22:48:14:685
0,700000	-0,070000	-0,630000	2020-10-13T22:48:14:707
0,210000	-0,140000	-0,700000	2020-10-13T22:48:14:728
0,350000	-0,140000	-0,700000	2020-10-13T22:48:14:748
0,560000	-0,280000	-0,700000	2020-10-13T22:48:14:765
0,350000	-0,210000	-0,770000	2020-10-13T22:48:14:788
0,070000	0,070000	-0,840000	2020-10-13T22:48:14:805
0,070000	0,280000	-0,770000	2020-10-13T22:48:14:828
0,070000	-0,070000	-0,700000	2020-10-13T22:48:14:845
-0,350000	-0,070000	-0,560000	2020-10-13T22:48:14:867
0,140000	-0,070000	-0,630000	2020-10-13T22:48:14:886
1,120000	0,070000	-0,840000	2020-10-13T22:48:14:912
0,980000	0,280000	-0,770000	2020-10-13T22:48:14:926
0,140000	-0,070000	-0,770000	2020-10-13T22:48:14:949
-0,140000	-0,070000	-0,700000	2020-10-13T22:48:14:971
0,280000	-0,140000	-0,770000	2020-10-13T22:48:14:989
0,350000	-0,070000	-0,840000	2020-10-13T22:48:15:007
0,210000	-0,070000	-0,910000	2020-10-13T22:48:15:027
0,070000	0,210000	-0,910000	2020-10-13T22:48:15:045
0,490000	-0,280000	-0,980000	2020-10-13T22:48:15:068
0,700000	-0,280000	-0,980000	2020-10-13T22:48:15:093
0,490000	-0,070000	-0,770000	2020-10-13T22:48:15:109
0,350000	-0,210000	-0,560000	2020-10-13T22:48:15:126
0,350000	-0,210000	-0,630000	2020-10-13T22:48:15:149
0,630000	-0,210000	-0,560000	2020-10-13T22:48:15:165
0,630000	0,070000	-0,630000	2020-10-13T22:48:15:188
0,700000	0,070000	-0,630000	2020-10-13T22:48:15:208
0,490000	-0,140000	-0,700000	2020-10-13T22:48:15:228
0,280000	-0,140000	-0,770000	2020-10-13T22:48:15:246
-0,350000	-0,280000	-0,770000	2020-10-13T22:48:15:273
-0,700000	0,210000	-0,770000	2020-10-13T22:48:15:287
-0,070000	-0,350000	-0,630000	2020-10-13T22:48:15:310
0,560000	-0,210000	-0,700000	2020-10-13T22:48:15:327
0,630000	0,140000	-0,700000	2020-10-13T22:48:15:359
0,140000	0,140000	-0,560000	2020-10-13T22:48:15:366
0,140000	-0,070000	-0,560000	2020-10-13T22:48:15:391
0,350000	-0,140000	-0,560000	2020-10-13T22:48:15:405
0,420000	0,070000	-0,700000	2020-10-13T22:48:15:426
0,070000	0,070000	-0,770000	2020-10-13T22:48:15:451
0,140000	-0,070000	-0,770000	2020-10-13T22:48:15:470
0,140000	-0,280000	-0,700000	2020-10-13T22:48:15:497
0,210000	-0,210000	-0,700000	2020-10-13T22:48:15:511
0,490000	-0,070000	-0,700000	2020-10-13T22:48:15:525
0,980000	0,070000	-0,770000	2020-10-13T22:48:15:548
1,050000	0,070000	-0,770000	2020-10-13T22:48:15:565
0,560000	-0,140000	-0,700000	2020-10-13T22:48:15:587
-0,210000	-0,280000	-0,630000	2020-10-13T22:48:15:605
0,070000	-0,140000	-0,700000	2020-10-13T22:48:15:629
0,840000	-0,280000	-0,700000	2020-10-13T22:48:15:646
0,770000	-0,070000	-0,700000	2020-10-13T22:48:15:666
0,070000	-0,070000	-0,700000	2020-10-13T22:48:15:689
0,070000	0,140000	-0,770000	2020-10-13T22:48:15:709
0,560000	-0,070000	-0,910000	2020-10-13T22:48:15:727
0,210000	-0,070000	-0,910000	2020-10-13T22:48:15:748
-0,210000	-0,140000	-0,840000	2020-10-13T22:48:15:767
-0,140000	0,070000	-0,840000	2020-10-13T22:48:15:790
-0,070000	-0,280000	-0,910000	2020-10-13T22:48:15:807
0,210000	-0,280000	-0,840000	2020-10-13T22:48:15:828
0,210000	-0,280000	-0,770000	2020-10-13T22:48:15:845
0,140000	-0,140000	-0,700000	2020-10-13T22:48:15:870
0,350000	-0,140000	-0,770000	2020-10-13T22:48:15:885
0,560000	0,070000	-0,700000	2020-10-13T22:48:15:908
0,630000	-0,210000	-0,630000	2020-10-13T22:48:15:930
0,560000	-0,140000	-0,700000	2020-10-13T22:48:15:949
0,560000	-0,140000	-0,700000	2020-10-13T22:48:15:966
0,770000	-0,210000	-0,700000	2020-10-13T22:48:15:989
0,560000	-0,210000	-0,700000	2020-10-13T22:48:16:006
0,350000	-0,210000	-0,630000	2020-10-13T22:48:16:029
0,420000	0,140000	-0,700000	2020-10-13T22:48:16:045
0,490000	-0,280000	-0,630000	2020-10-13T22:48:16:068
0,210000	-0,140000	-0,770000	2020-10-13T22:48:16:086
0,210000	-0,140000	-0,770000	2020-10-13T22:48:16:115
0,140000	-0,140000	-0,700000	2020-10-13T22:48:16:127
0,210000	-0,210000	-0,630000	2020-10-13T22:48:16:150
0,140000	-0,140000	-0,700000	2020-10-13T22:48:16:173
0,350000	-0,140000	-0,700000	2020-10-13T22:48:16:193
0,980000	0,140000	-0,840000	2020-10-13T22:48:16:205
0,910000	0,070000	-0,770000	2020-10-13T22:48:16:230
0,420000	-0,070000	-0,700000	2020-10-13T22:48:16:248
0,210000	-0,350000	-0,630000	2020-10-13T22:48:16:278
0,350000	-0,420000	-0,560000	2020-10-13T22:48:16:289
0,560000	-0,210000	-0,560000	2020-10-13T22:48:16:309
0,770000	-0,070000	-0,700000	2020-10-13T22:48:16:326
0,840000	-0,140000	-0,700000	2020-10-13T22:48:16:369
0,700000	-0,140000	-0,700000	2020-10-13T22:48:16:371
0,140000	-0,210000	-0,700000	2020-10-13T22:48:16:388
0,280000	-0,140000	-0,770000	2020-10-13T22:48:16:407
0,630000	-0,140000	-0,840000	2020-10-13T22:48:16:431
0,070000	-0,140000	-0,770000	2020-10-13T22:48:16:446
-0,280000	-0,420000	-0,770000	2020-10-13T22:48:16:469
0,140000	-0,420000	-0,910000	2020-10-13T22:48:16:487
0,490000	-0,210000	-0,910000	2020-10-13T22:48:16:510
0,350000	-0,070000	-0,980000	2020-10-13T22:48:16:527
0,280000	-0,070000	-0,980000	2020-10-13T22:48:16:549
0,140000	0,070000	-0,770000	2020-10-13T22:48:16:567
-0,350000	-0,210000	-0,700000	2020-10-13T22:48:16:591
-0,210000	-0,210000	-0,700000	2020-10-13T22:48:16:606
0,490000	-0,210000	-0,770000	2020-10-13T22:48:16:629
1,050000	0,140000	-0,630000	2020-10-13T22:48:16:651
0,840000	-0,280000	-0,630000	2020-10-13T22:48:16:669
0,280000	-0,280000	-0,560000	2020-10-13T22:48:16:687
0,210000	0,070000	-0,560000	2020-10-13T22:48:16:709
0,630000	-0,140000	-0,560000	2020-10-13T22:48:16:727
0,560000	-0,210000	-0,560000	2020-10-13T22:48:16:750
0,560000	-0,350000	-0,630000	2020-10-13T22:48:16:768
0,910000	0,070000	-0,630000	2020-10-13T22:48:16:790
1,120000	-0,070000	-0,770000	2020-10-13T22:48:16:811
0,700000	0,070000	-0,770000	2020-10-13T22:48:16:829
0,070000	-0,280000	-0,560000	2020-10-13T22:48:16:847
0,070000	-0,490000	-0,490000	2020-10-13T22:48:16:871
0,490000	-0,420000	-0,700000	2020-10-13T22:48:16:896
0,630000	-0,070000	-0,770000	2020-10-13T22:48:16:916
0,490000	-0,070000	-0,770000	2020-10-13T22:48:16:928
0,280000	-0,210000	-0,770000	2020-10-13T22:48:16:950
0,070000	-0,210000	-0,700000	2020-10-13T22:48:16:971
0,350000	-0,210000	-0,840000	2020-10-13T22:48:16:989
0,560000	-0,210000	-0,840000	2020-10-13T22:48:17:007
0,420000	-0,070000	-0,770000	2020-10-13T22:48:17:030
0,210000	-0,210000	-0,700000	2020-10-13T22:48:17:048
0,490000	-0,490000	-0,770000	2020-10-13T22:48:17:072
1,120000	-0,490000	-0,840000	2020-10-13T22:48:17:106
0,840000	-0,490000	-0,840000	2020-10-13T22:48:17:108
0,420000	-0,420000	-0,840000	2020-10-13T22:48:17:131
0,770000	-0,350000	-0,910000	2020-10-13T22:48:17:151
0,840000	-0,350000	-0,910000	2020-10-13T22:48:17:167
0,490000	-0,350000	-0,840000	2020-10-13T22:48:17:190
0,140000	-0,140000	-0,770000	2020-10-13T22:48:17:208
0,140000	0,070000	-0,770000	2020-10-13T22:48:17:230
-0,070000	-0,140000	-0,770000	2020-10-13T22:48:17:248
-0,140000	0,140000	-0,700000	2020-10-13T22:48:17:269
-0,210000	0,070000	-0,770000	2020-10-13T22:48:17:287
0,140000	0,070000	-0,910000	2020-10-13T22:48:17:311
0,280000	0,070000	-0,980000	2020-10-13T22:48:17:328
0,490000	-0,140000	-1,050000	2020-10-13T22:48:17:349
0,210000	0,070000	-0,840000	2020-10-13T22:48:17:370
0,210000	-0,140000	-0,770000	2020-10-13T22:48:17:391
0,840000	-0,420000	-0,770000	2020-10-13T22:48:17:412
1,190000	-0,070000	-0,700000	2020-10-13T22:48:17:432
0,560000	-0,070000	-0,420000	2020-10-13T22:48:17:448
0,910000	-0,070000	-0,490000	2020-10-13T22:48:17:470
1,330000	-0,140000	-0,490000	2020-10-13T22:48:17:489
0,560000	-0,140000	-0,560000	2020-10-13T22:48:17:510
0,350000	-0,140000	-0,560000	2020-10-13T22:48:17:528
0,840000	-0,140000	-0,630000	2020-10-13T22:48:17:552
0,630000	0,140000	-0,490000	2020-10-13T22:48:17:567
0,140000	0,140000	-0,560000	2020-10-13T22:48:17:589
0,490000	-0,070000	-0,700000	2020-10-13T22:48:17:611
0,770000	-0,070000	-0,700000	2020-10-13T22:48:17:631
0,210000	0,140000	-0,630000	2020-10-13T22:48:17:648
0,070000	-0,280000	-0,630000	2020-10-13T22:48:17:670
0,560000	-0,140000	-0,700000	2020-10-13T22:48:17:689
0,700000	-0,140000	-0,630000	2020-10-13T22:48:17:711
0,280000	-0,280000	-0,490000	2020-10-13T22:48:17:728
0,280000	-0,490000	-0,490000	2020-10-13T22:48:17:750
0,210000	-0,140000	-0,700000	2020-10-13T22:48:17:768
0,840000	-0,140000	-0,700000	2020-10-13T22:48:17:792
0,140000	-0,350000	-0,560000	2020-10-13T22:48:17:808
-0,420000	-0,280000	-0,560000	2020-10-13T22:48:17:830
0,280000	-0,280000	-0,630000	2020-10-13T22:48:17:849
0,700000	-0,070000	-0,770000	2020-10-13T22:48:17:870
0,350000	0,280000	-0,840000	2020-10-13T22:48:17:888
-0,070000	-0,140000	-0,770000	2020-10-13T22:48:17:911
0,070000	-0,280000	-0,700000	2020-10-13T22:48:17:930
0,070000	-0,210000	-0,560000	2020-10-13T22:48:17:951
0,070000	-0,490000	-0,560000	2020-10-13T22:48:17:970
0,350000	-0,140000	-0,630000	2020-10-13T22:48:17:999
0,420000	-0,070000	-0,700000	2020-10-13T22:48:18:010
0,280000	-0,070000	-0,630000	2020-10-13T22:48:18:031
0,420000	-0,210000	-0,630000	2020-10-13T22:48:18:051
0,770000	0,210000	-0,700000	2020-10-13T22:48:18:071
1,120000	0,140000	-0,770000	2020-10-13T22:48:18:120
0,490000	-0,070000	-0,770000	2020-10-13T22:48:18:121
-0,140000	-0,140000	-0,630000	2020-10-13T22:48:18:128
0,140000	-0,140000	-0,770000	2020-10-13T22:48:18:149
1,120000	-0,210000	-0,910000	2020-10-13T22:48:18:176
1,050000	-0,210000	-0,840000	2020-10-13T22:48:18:190
0,070000	-0,210000	-0,770000	2020-10-13T22:48:18:209
-0,070000	-0,210000	-0,700000	2020-10-13T22:48:18:231
0,070000	-0,070000	-0,770000	2020-10-13T22:48:18:249
0,280000	0,070000	-0,770000	2020-10-13T22:48:18:272
0,210000	0,070000	-0,770000	2020-10-13T22:48:18:289
0,210000	0,210000	-0,700000	2020-10-13T22:48:18:310
0,350000	-0,070000	-0,630000	2020-10-13T22:48:18:331
0,700000	-0,140000	-0,630000	2020-10-13T22:48:18:351
0,770000	0,210000	-0,630000	2020-10-13T22:48:18:369
0,770000	0,140000	-0,560000	2020-10-13T22:48:18:391
0,770000	-0,070000	-0,560000	2020-10-13T22:48:18:409
0,630000	-0,070000	-0,560000	2020-10-13T22:48:18:431
0,770000	-0,210000	-0,560000	2020-10-13T22:48:18:449
0,840000	-0,070000	-0,560000	2020-10-13T22:48:18:471
0,840000	0,280000	-0,630000	2020-10-13T22:48:18:490
0,630000	-0,140000	-0,560000	2020-10-13T22:48:18:512
0,140000	-0,140000	-0,420000	2020-10-13T22:48:18:529
-0,140000	-0,140000	-0,490000	2020-10-13T22:48:18:551
0,210000	0,070000	-0,910000	2020-10-13T22:48:18:573
0,210000	0,280000	-0,840000	2020-10-13T22:48:18:591
-0,350000	0,140000	-0,700000	2020-10-13T22:48:18:608
-0,280000	-0,070000	-0,700000	2020-10-13T22:48:18:631
0,350000	0,420000	-0,840000	2020-10-13T22:48:18:649
0,490000	0,140000	-0,840000	2020-10-13T22:48:18:672
0,280000	-0,140000	-0,770000	2020-10-13T22:48:18:690
0,490000	-0,420000	-0,700000	2020-10-13T22:48:18:711
0,910000	-0,280000	-0,700000	2020-10-13T22:48:18:729
1,400000	-0,070000	-0,770000	2020-10-13T22:48:18:752
1,400000	-0,210000	-0,770000	2020-10-13T22:48:18:770
1,050000	0,140000	-0,700000	2020-10-13T22:48:18:791
0,280000	0,140000	-0,560000	2020-10-13T22:48:18:812
0,280000	-0,420000	-0,630000	2020-10-13T22:48:18:834
0,560000	-0,070000	-0,770000	2020-10-13T22:48:18:849
0,630000	0,070000	-0,770000	2020-10-13T22:48:18:875
0,070000	0,070000	-0,770000	2020-10-13T22:48:18:891
-0,070000	0,070000	-0,770000	2020-10-13T22:48:18:913
0,280000	0,070000	-0,840000	2020-10-13T22:48:18:953
0,280000	0,070000	-0,840000	2020-10-13T22:48:18:954
-0,070000	0,140000	-0,840000	2020-10-13T22:48:18:971
-0,420000	0,070000	-0,840000	2020-10-13T22:48:18:995
-0,210000	-0,070000	-0,840000	2020-10-13T22:48:19:009
0,210000	-0,140000	-0,840000	2020-10-13T22:48:19:032
0,350000	-0,140000	-0,840000	2020-10-13T22:48:19:054
0,280000	-0,140000	-0,770000	2020-10-13T22:48:19:114
0,350000	-0,070000	-0,840000	2020-10-13T22:48:19:115
0,210000	-0,070000	-0,770000	2020-10-13T22:48:19:116
0,350000	-0,070000	-0,700000	2020-10-13T22:48:19:129
0,490000	-0,140000	-0,770000	2020-10-13T22:48:19:151
0,560000	-0,140000	-0,700000	2020-10-13T22:48:19:168
0,560000	-0,070000	-0,630000	2020-10-13T22:48:19:192
0,700000	-0,140000	-0,630000	2020-10-13T22:48:19:210
0,770000	-0,140000	-0,770000	2020-10-13T22:48:19:233
0,840000	-0,070000	-0,840000	2020-10-13T22:48:19:250
0,210000	-0,210000	-0,700000	2020-10-13T22:48:19:271
-0,070000	-0,420000	-0,840000	2020-10-13T22:48:19:293
0,350000	-0,420000	-0,980000	2020-10-13T22:48:19:312
0,770000	-0,280000	-0,910000	2020-10-13T22:48:19:330
0,560000	-0,280000	-0,700000	2020-10-13T22:48:19:352
0,070000	-0,350000	-0,630000	2020-10-13T22:48:19:370
0,210000	-0,140000	-0,700000	2020-10-13T22:48:19:393
0,910000	-0,140000	-0,910000	2020-10-13T22:48:19:412
0,630000	-0,070000	-0,770000	2020-10-13T22:48:19:432
0,210000	-0,140000	-0,770000	2020-10-13T22:48:19:450
0,350000	-0,280000	-0,770000	2020-10-13T22:48:19:472
0,280000	-0,350000	-0,770000	2020-10-13T22:48:19:490
-0,350000	-0,490000	-0,770000	2020-10-13T22:48:19:511
-0,280000	-0,070000	-0,700000	2020-10-13T22:48:19:532
0,490000	-0,140000	-0,840000	2020-10-13T22:48:19:553
0,700000	0,140000	-0,840000	2020-10-13T22:48:19:570
0,280000	-0,070000	-0,770000	2020-10-13T22:48:19:593
0,210000	-0,140000	-0,770000	2020-10-13T22:48:19:610
0,350000	-0,070000	-0,700000	2020-10-13T22:48:19:633
0,140000	0,070000	-0,700000	2020-10-13T22:48:19:650
-0,140000	-0,140000	-0,700000	2020-10-13T22:48:19:675
0,070000	-0,140000	-0,700000	2020-10-13T22:48:19:690
0,350000	-0,070000	-0,630000	2020-10-13T22:48:19:713
0,420000	0,140000	-0,770000	2020-10-13T22:48:19:731
0,630000	0,140000	-0,840000	2020-10-13T22:48:19:751
0,560000	0,140000	-0,840000	2020-10-13T22:48:19:771
0,070000	0,140000	-0,630000	2020-10-13T22:48:19:792
0,070000	-0,070000	-0,700000	2020-10-13T22:48:19:809
0,210000	-0,070000	-0,630000	2020-10-13T22:48:19:832
0,490000	-0,140000	-0,630000	2020-10-13T22:48:19:856
0,210000	-0,070000	-0,630000	2020-10-13T22:48:19:874
0,490000	-0,210000	-0,700000	2020-10-13T22:48:19:889
0,980000	-0,070000	-0,770000	2020-10-13T22:48:19:916
0,630000	0,070000	-0,700000	2020-10-13T22:48:19:929
-0,140000	-0,070000	-0,490000	2020-10-13T22:48:19:952
0,280000	-0,140000	-0,700000	2020-10-13T22:48:19:971
0,910000	-0,210000	-0,770000	2020-10-13T22:48:19:991
0,350000	-0,210000	-0,700000	2020-10-13T22:48:20:011
0,140000	-0,280000	-0,700000	2020-10-13T22:48:20:032
0,560000	-0,210000	-0,630000	2020-10-13T22:48:20:051
0,490000	-0,140000	-0,770000	2020-10-13T22:48:20:073
-0,280000	-0,210000	-0,770000	2020-10-13T22:48:20:090
0,070000	-0,070000	-0,770000	2020-10-13T22:48:20:114
0,420000	-0,210000	-0,700000	2020-10-13T22:48:20:130
0,140000	-0,140000	-0,700000	2020-10-13T22:48:20:153
0,210000	-0,140000	-0,840000	2020-10-13T22:48:20:170
0,770000	-0,140000	-0,840000	2020-10-13T22:48:20:194
0,560000	-0,140000	-0,700000	2020-10-13T22:48:20:210
0,140000	-0,280000	-0,630000	2020-10-13T22:48:20:233
0,420000	-0,280000	-0,700000	2020-10-13T22:48:20:253
0,770000	-0,070000	-0,630000	2020-10-13T22:48:20:274
0,560000	-0,140000	-0,700000	2020-10-13T22:48:20:291
0,560000	-0,210000	-0,770000	2020-10-13T22:48:20:313
0,630000	-0,280000	-0,770000	2020-10-13T22:48:20:331
0,560000	0,070000	-0,770000	2020-10-13T22:48:20:354
0,420000	-0,420000	-0,700000	2020-10-13T22:48:20:375
0,350000	0,140000	-0,630000	2020-10-13T22:48:20:394
0,070000	-0,070000	-0,630000	2020-10-13T22:48:20:412
0,210000	-0,140000	-0,770000	2020-10-13T22:48:20:452
0,280000	-0,070000	-0,700000	2020-10-13T22:48:20:453
-0,140000	0,070000	-0,700000	2020-10-13T22:48:20:473
-0,140000	0,070000	-0,770000	2020-10-13T22:48:20:495
0,490000	0,070000	-0,770000	2020-10-13T22:48:20:512
0,560000	0,140000	-0,770000	2020-10-13T22:48:20:529
0,280000	-0,210000	-0,700000	2020-10-13T22:48:20:555
0,280000	-0,070000	-0,700000	2020-10-13T22:48:20:570
0,350000	-0,140000	-0,770000	2020-10-13T22:48:20:593
0,350000	-0,210000	-0,700000	2020-10-13T22:48:20:612
0,350000	-0,070000	-0,700000	2020-10-13T22:48:20:637
0,420000	-0,140000	-0,700000	2020-10-13T22:48:20:655
0,840000	-0,140000	-0,700000	2020-10-13T22:48:20:675
0,490000	-0,070000	-0,560000	2020-10-13T22:48:20:697
0,490000	-0,070000	-0,630000	2020-10-13T22:48:20:712
0,560000	-0,210000	-0,630000	2020-10-13T22:48:20:733
0,420000	-0,070000	-0,630000	2020-10-13T22:48:20:754
0,140000	-0,140000	-0,630000	2020-10-13T22:48:20:772
0,350000	-0,140000	-0,700000	2020-10-13T22:48:20:794
0,700000	0,070000	-0,770000	2020-10-13T22:48:20:811
0,490000	-0,070000	-0,630000	2020-10-13T22:48:20:834
0,350000	-0,280000	-0,560000	2020-10-13T22:48:20:850
0,140000	-0,280000	-0,560000	2020-10-13T22:48:20:873
0,210000	-0,350000	-0,700000	2020-10-13T22:48:20:894
0,420000	-0,350000	-0,770000	2020-10-13T22:48:20:914
-0,210000	-0,350000	-0,630000	2020-10-13T22:48:20:931
-0,490000	-0,420000	-0,700000	2020-10-13T22:48:20:953
0,420000	-0,420000	-0,840000	2020-10-13T22:48:20:973
1,120000	0,140000	-0,840000	2020-10-13T22:48:20:995
0,840000	0,070000	-0,770000	2020-10-13T22:48:21:011
0,280000	-0,070000	-0,630000	2020-10-13T22:48:21:033
0,280000	-0,420000	-0,560000	2020-10-13T22:48:21:051
0,420000	-0,420000	-0,630000	2020-10-13T22:48:21:079
0,840000	0,140000	-0,560000	2020-10-13T22:48:21:105
0,770000	-0,070000	-0,630000	2020-10-13T22:48:21:113
0,840000	-0,070000	-0,630000	2020-10-13T22:48:21:131
0,840000	-0,070000	-0,700000	2020-10-13T22:48:21:154
0,350000	-0,210000	-0,770000	2020-10-13T22:48:21:172
0,140000	-0,070000	-0,770000	2020-10-13T22:48:21:194
0,210000	-0,140000	-0,770000	2020-10-13T22:48:21:213
0,070000	-0,140000	-0,770000	2020-10-13T22:48:21:234
0,070000	-0,210000	-0,770000	2020-10-13T22:48:21:252
-0,070000	-0,210000	-0,840000	2020-10-13T22:48:21:277
-0,280000	-0,210000	-0,910000	2020-10-13T22:48:21:293
-0,210000	0,070000	-0,840000	2020-10-13T22:48:21:315
0,070000	-0,140000	-0,840000	2020-10-13T22:48:21:348
0,280000	-0,210000	-0,770000	2020-10-13T22:48:21:355
0,210000	-0,210000	-0,770000	2020-10-13T22:48:21:372
-0,070000	-0,140000	-0,630000	2020-10-13T22:48:21:396
0,280000	-0,280000	-0,770000	2020-10-13T22:48:21:416
0,490000	-0,210000	-0,700000	2020-10-13T22:48:21:433
0,350000	-0,420000	-0,420000	2020-10-13T22:48:21:454
0,210000	-0,420000	-0,280000	2020-10-13T22:48:21:476
0,700000	-0,280000	-0,420000	2020-10-13T22:48:21:500
1,190000	-0,070000	-0,560000	2020-10-13T22:48:21:513
0,980000	-0,070000	-0,630000	2020-10-13T22:48:21:533
0,140000	-0,140000	-0,770000	2020-10-13T22:48:21:558
-0,280000	-0,070000	-0,840000	2020-10-13T22:48:21:572
-0,420000	-0,210000	-0,840000	2020-10-13T22:48:21:594
-0,210000	-0,070000	-0,770000	2020-10-13T22:48:21:611
0,420000	-0,140000	-0,840000	2020-10-13T22:48:21:636
0,560000	-0,140000	-0,770000	2020-10-13T22:48:21:653
0,490000	0,280000	-0,840000	2020-10-13T22:48:21:674
0,210000	-0,140000	-0,700000	2020-10-13T22:48:21:695
-0,140000	-0,070000	-0,630000	2020-10-13T22:48:21:715
-0,140000	-0,350000	-0,840000	2020-10-13T22:48:21:732
0,630000	-0,350000	-0,910000	2020-10-13T22:48:21:755
0,420000	0,140000	-0,770000	2020-10-13T22:48:21:772
0,420000	0,140000	-0,700000	2020-10-13T22:48:21:795
-0,070000	-0,210000	-0,700000	2020-10-13T22:48:21:812
0,560000	-0,210000	-0,700000	2020-10-13T22:48:21:834
0,770000	-0,210000	-0,560000	2020-10-13T22:48:21:851
0,770000	-0,070000	-0,630000	2020-10-13T22:48:21:875
0,770000	-0,280000	-0,630000	2020-10-13T22:48:21:893
0,770000	-0,070000	-0,560000	2020-10-13T22:48:21:914
0,770000	-0,070000	-0,630000	2020-10-13T22:48:21:936
0,700000	0,070000	-0,700000	2020-10-13T22:48:21:957
0,630000	0,070000	-0,630000	2020-10-13T22:48:21:973
0,630000	0,140000	-0,490000	2020-10-13T22:48:21:994
0,490000	-0,210000	-0,350000	2020-10-13T22:48:22:016
0,560000	-0,280000	-0,280000	2020-10-13T22:48:22:053
0,840000	-0,070000	-0,350000	2020-10-13T22:48:22:191
0,700000	-0,070000	-0,490000	2020-10-13T22:48:22:191
0,210000	0,070000	-0,630000	2020-10-13T22:48:22:222
-0,140000	-0,070000	-0,770000	2020-10-13T22:48:22:223
-0,140000	-0,070000	-0,910000	2020-10-13T22:48:22:225
-0,210000	0,070000	-0,980000	2020-10-13T22:48:22:226
0,140000	0,280000	-1,050000	2020-10-13T22:48:22:346
0,700000	0,280000	-1,050000	2020-10-13T22:48:22:346
0,630000	-0,070000	-0,840000	2020-10-13T22:48:22:347
0,560000	-0,210000	-0,700000	2020-10-13T22:48:22:347
0,910000	-0,350000	-0,560000	2020-10-13T22:48:22:348
1,190000	-0,350000	-0,630000	2020-10-13T22:48:22:348
0,910000	-0,280000	-0,560000	2020-10-13T22:48:22:349
0,350000	-0,140000	-0,420000	2020-10-13T22:48:22:349
0,770000	-0,140000	-0,420000	2020-10-13T22:48:22:349
1,050000	0,210000	-0,420000	2020-10-13T22:48:22:385
0,630000	0,140000	-0,350000	2020-10-13T22:48:22:386
0,560000	0,070000	-0,700000	2020-10-13T22:48:22:428
0,420000	0,070000	-0,700000	2020-10-13T22:48:22:434
0,280000	-0,280000	-0,350000	2020-10-13T22:48:22:438
0,490000	0,070000	-0,560000	2020-10-13T22:48:22:454
0,490000	-0,070000	-0,700000	2020-10-13T22:48:22:483
0,070000	0,210000	-0,560000	2020-10-13T22:48:22:490
-0,140000	-0,070000	-0,630000	2020-10-13T22:48:22:513
-0,210000	0,070000	-0,700000	2020-10-13T22:48:22:531
0,140000	0,070000	-0,840000	2020-10-13T22:48:22:555
0,350000	0,280000	-0,840000	2020-10-13T22:48:22:572
0,140000	-0,140000	-0,770000	2020-10-13T22:48:22:596
-0,210000	-0,140000	-0,700000	2020-10-13T22:48:22:613
0,140000	-0,070000	-0,840000	2020-10-13T22:48:22:635
0,700000	0,070000	-0,910000	2020-10-13T22:48:22:656
0,700000	-0,070000	-0,840000	2020-10-13T22:48:22:679
0,070000	-0,140000	-0,700000	2020-10-13T22:48:22:695
-0,070000	-0,350000	-0,700000	2020-10-13T22:48:22:716
0,770000	-0,210000	-0,840000	2020-10-13T22:48:22:733
0,980000	-0,210000	-0,770000	2020-10-13T22:48:22:756
0,350000	-0,280000	-0,700000	2020-10-13T22:48:22:773
0,070000	-0,210000	-0,770000	2020-10-13T22:48:22:795
0,560000	-0,350000	-0,770000	2020-10-13T22:48:22:813
0,700000	-0,140000	-0,770000	2020-10-13T22:48:22:836
0,280000	-0,140000	-0,770000	2020-10-13T22:48:22:853
-0,210000	-0,140000	-0,770000	2020-10-13T22:48:22:875
-0,280000	-0,140000	-0,910000	2020-10-13T22:48:22:896
-0,280000	-0,070000	-0,840000	2020-10-13T22:48:22:920
0,140000	-0,070000	-0,840000	2020-10-13T22:48:22:934
0,140000	0,070000	-0,770000	2020-10-13T22:48:22:955
-0,140000	-0,140000	-0,770000	2020-10-13T22:48:22:976
0,210000	-0,280000	-0,840000	2020-10-13T22:48:23:001
0,490000	-0,210000	-0,840000	2020-10-13T22:48:23:015
0,420000	-0,210000	-0,700000	2020-10-13T22:48:23:036
0,280000	-0,070000	-0,700000	2020-10-13T22:48:23:057
0,560000	-0,210000	-0,770000	2020-10-13T22:48:23:077
0,630000	-0,210000	-0,700000	2020-10-13T22:48:23:107
0,140000	-0,210000	-0,630000	2020-10-13T22:48:23:117
0,070000	-0,210000	-0,700000	2020-10-13T22:48:23:137
0,490000	-0,070000	-0,770000	2020-10-13T22:48:23:166
0,350000	-0,070000	-0,700000	2020-10-13T22:48:23:172
-0,070000	0,140000	-0,770000	2020-10-13T22:48:23:197
-0,070000	0,140000	-0,840000	2020-10-13T22:48:23:214
0,350000	-0,630000	-0,840000	2020-10-13T22:48:23:238
0,350000	-0,280000	-0,770000	2020-10-13T22:48:23:253
0,910000	-0,350000	-0,700000	2020-10-13T22:48:23:274
1,540000	-0,210000	-0,770000	2020-10-13T22:48:23:294
0,980000	0,140000	-0,910000	2020-10-13T22:48:23:317
0,210000	-0,070000	-0,700000	2020-10-13T22:48:23:333
0,070000	-0,280000	-0,630000	2020-10-13T22:48:23:356
0,140000	-0,350000	-0,700000	2020-10-13T22:48:23:376
0,140000	-0,350000	-0,840000	2020-10-13T22:48:23:397
0,140000	0,210000	-0,840000	2020-10-13T22:48:23:413
0,770000	-0,070000	-0,770000	2020-10-13T22:48:23:436
0,630000	-0,210000	-0,770000	2020-10-13T22:48:23:467
0,350000	-0,140000	-0,770000	2020-10-13T22:48:23:477
0,350000	-0,420000	-0,770000	2020-10-13T22:48:23:523
0,560000	-0,280000	-0,770000	2020-10-13T22:48:23:524
0,630000	-0,210000	-0,700000	2020-10-13T22:48:23:533
0,210000	-0,280000	-0,630000	2020-10-13T22:48:23:556
0,350000	-0,140000	-0,770000	2020-10-13T22:48:23:573
0,700000	-0,140000	-0,840000	2020-10-13T22:48:23:595
0,700000	-0,140000	-0,840000	2020-10-13T22:48:23:619
0,280000	0,070000	-0,770000	2020-10-13T22:48:23:636
0,140000	-0,140000	-0,770000	2020-10-13T22:48:23:653
-0,140000	-0,210000	-0,770000	2020-10-13T22:48:23:676
-0,070000	-0,350000	-0,770000	2020-10-13T22:48:23:694
-0,280000	-0,210000	-0,770000	2020-10-13T22:48:23:719
0,140000	-0,140000	-0,910000	2020-10-13T22:48:23:733
0,490000	-0,140000	-0,910000	2020-10-13T22:48:23:756
0,490000	-0,140000	-0,980000	2020-10-13T22:48:23:776
0,140000	-0,210000	-0,840000	2020-10-13T22:48:23:799
-0,490000	-0,350000	-0,770000	2020-10-13T22:48:23:817
-0,210000	-0,280000	-0,770000	2020-10-13T22:48:23:836
0,420000	-0,350000	-0,700000	2020-10-13T22:48:23:857
0,770000	-0,350000	-0,700000	2020-10-13T22:48:23:876
0,560000	-0,350000	-0,700000	2020-10-13T22:48:23:892
0,560000	-0,070000	-0,770000	2020-10-13T22:48:23:914
0,630000	-0,210000	-0,770000	2020-10-13T22:48:23:938
0,210000	-0,070000	-0,630000	2020-10-13T22:48:23:966
0,210000	-0,210000	-0,630000	2020-10-13T22:48:23:974
0,070000	-0,280000	-0,630000	2020-10-13T22:48:23:995
0,350000	-0,140000	-0,770000	2020-10-13T22:48:24:016
0,420000	-0,140000	-0,770000	2020-10-13T22:48:24:036
0,560000	-0,210000	-0,770000	2020-10-13T22:48:24:053
0,420000	-0,140000	-0,700000	2020-10-13T22:48:24:082
0,280000	-0,140000	-0,770000	2020-10-13T22:48:24:102
0,280000	-0,140000	-0,700000	2020-10-13T22:48:24:117
0,420000	-0,280000	-0,630000	2020-10-13T22:48:24:134
0,350000	-0,140000	-0,630000	2020-10-13T22:48:24:156
0,420000	-0,280000	-0,770000	2020-10-13T22:48:24:175
0,630000	-0,070000	-0,700000	2020-10-13T22:48:24:197
0,210000	-0,140000	-0,700000	2020-10-13T22:48:24:215
-0,630000	-0,140000	-0,560000	2020-10-13T22:48:24:236
-0,350000	-0,420000	-0,770000	2020-10-13T22:48:24:253
0,560000	0,140000	-0,910000	2020-10-13T22:48:24:277
0,770000	0,140000	-0,770000	2020-10-13T22:48:24:295
0,420000	-0,280000	-0,770000	2020-10-13T22:48:24:316
0,560000	-0,210000	-0,630000	2020-10-13T22:48:24:338
0,910000	-0,210000	-0,630000	2020-10-13T22:48:24:357
0,980000	-0,490000	-0,490000	2020-10-13T22:48:24:374
0,420000	-0,420000	-0,560000	2020-10-13T22:48:24:397
0,350000	-0,210000	-0,490000	2020-10-13T22:48:24:415
0,630000	-0,140000	-0,630000	2020-10-13T22:48:24:437
0,700000	-0,280000	-0,700000	2020-10-13T22:48:24:455
0,770000	-0,140000	-0,700000	2020-10-13T22:48:24:477
0,700000	-0,140000	-0,700000	2020-10-13T22:48:24:495
0,490000	0,070000	-0,770000	2020-10-13T22:48:24:517
0,490000	-0,280000	-0,770000	2020-10-13T22:48:24:537
-0,350000	-0,210000	-0,770000	2020-10-13T22:48:24:558
-0,420000	-0,280000	-0,700000	2020-10-13T22:48:24:579
-0,070000	-0,140000	-0,700000	2020-10-13T22:48:24:599
0,280000	-0,140000	-0,770000	2020-10-13T22:48:24:623
0,490000	-0,140000	-0,910000	2020-10-13T22:48:24:636
0,350000	-0,140000	-0,770000	2020-10-13T22:48:24:653
0,070000	-0,140000	-0,630000	2020-10-13T22:48:24:681
0,140000	-0,070000	-0,770000	2020-10-13T22:48:24:695
0,490000	-0,070000	-0,840000	2020-10-13T22:48:24:716
0,700000	-0,140000	-0,700000	2020-10-13T22:48:24:733
0,210000	-0,210000	-0,560000	2020-10-13T22:48:24:764
0,630000	-0,350000	-0,490000	2020-10-13T22:48:24:775
1,190000	-0,070000	-0,630000	2020-10-13T22:48:24:798
0,980000	-0,070000	-0,630000	2020-10-13T22:48:24:816
0,350000	-0,070000	-0,630000	2020-10-13T22:48:24:838
0,210000	-0,350000	-0,630000	2020-10-13T22:48:24:856
0,560000	-0,350000	-0,770000	2020-10-13T22:48:24:877
0,490000	0,210000	-0,770000	2020-10-13T22:48:24:896
-0,070000	-0,140000	-0,840000	2020-10-13T22:48:24:917
-0,070000	-0,140000	-0,770000	2020-10-13T22:48:24:935
0,140000	-0,140000	-0,700000	2020-10-13T22:48:24:957
0,070000	-0,280000	-0,630000	2020-10-13T22:48:24:974
0,280000	-0,280000	-0,840000	2020-10-13T22:48:24:999
0,420000	0,210000	-0,840000	2020-10-13T22:48:25:015
0,350000	-0,210000	-0,700000	2020-10-13T22:48:25:037
0,140000	-0,210000	-0,630000	2020-10-13T22:48:25:059
0,140000	-0,210000	-0,700000	2020-10-13T22:48:25:089
0,350000	-0,210000	-0,770000	2020-10-13T22:48:25:101
0,210000	-0,210000	-0,770000	2020-10-13T22:48:25:117
-0,210000	-0,070000	-0,560000	2020-10-13T22:48:25:136
-0,350000	-0,070000	-0,630000	2020-10-13T22:48:25:160
0,280000	0,070000	-0,840000	2020-10-13T22:48:25:177
0,770000	0,070000	-0,910000	2020-10-13T22:48:25:202
0,350000	0,070000	-0,770000	2020-10-13T22:48:25:217
0,210000	-0,280000	-0,700000	2020-10-13T22:48:25:245
0,420000	-0,140000	-0,630000	2020-10-13T22:48:25:260
0,560000	-0,210000	-0,630000	2020-10-13T22:48:25:278
0,630000	-0,210000	-0,560000	2020-10-13T22:48:25:303
0,770000	0,070000	-0,700000	2020-10-13T22:48:25:319
0,980000	0,070000	-0,700000	2020-10-13T22:48:25:335
0,560000	0,070000	-0,700000	2020-10-13T22:48:25:359
0,140000	0,070000	-0,770000	2020-10-13T22:48:25:377
0,350000	0,140000	-0,840000	2020-10-13T22:48:25:399
0,280000	0,070000	-0,840000	2020-10-13T22:48:25:419
-0,210000	-0,070000	-0,770000	2020-10-13T22:48:25:440
-0,210000	-0,140000	-0,770000	2020-10-13T22:48:25:456
0,350000	-0,140000	-0,840000	2020-10-13T22:48:25:479
0,280000	0,140000	-0,770000	2020-10-13T22:48:25:500
0,280000	0,070000	-0,770000	2020-10-13T22:48:25:516
0,140000	0,070000	-0,770000	2020-10-13T22:48:25:538
0,350000	-0,070000	-0,770000	2020-10-13T22:48:25:559
0,070000	-0,140000	-0,700000	2020-10-13T22:48:25:576
-0,070000	-0,140000	-0,700000	2020-10-13T22:48:25:598
0,280000	-0,140000	-0,630000	2020-10-13T22:48:25:616
0,490000	-0,140000	-0,770000	2020-10-13T22:48:25:638
0,140000	-0,070000	-0,630000	2020-10-13T22:48:25:656
0,140000	-0,140000	-0,630000	2020-10-13T22:48:25:678
0,700000	-0,070000	-0,630000	2020-10-13T22:48:25:697
0,910000	0,210000	-0,630000	2020-10-13T22:48:25:719
0,420000	0,280000	-0,630000	2020-10-13T22:48:25:736
0,070000	0,280000	-0,630000	2020-10-13T22:48:25:758
0,070000	-0,070000	-0,560000	2020-10-13T22:48:25:778
0,490000	-0,210000	-0,630000	2020-10-13T22:48:25:799
1,190000	-0,210000	-0,700000	2020-10-13T22:48:25:817
1,260000	0,140000	-0,700000	2020-10-13T22:48:25:838
0,630000	0,140000	-0,560000	2020-10-13T22:48:25:867
0,070000	-0,210000	-0,630000	2020-10-13T22:48:25:879
0,210000	-0,350000	-0,840000	2020-10-13T22:48:25:897
0,420000	-0,140000	-0,840000	2020-10-13T22:48:25:918
0,490000	0,140000	-0,700000	2020-10-13T22:48:25:936
0,210000	-0,140000	-0,560000	2020-10-13T22:48:25:959
0,210000	-0,210000	-0,630000	2020-10-13T22:48:25:977
0,490000	-0,070000	-0,840000	2020-10-13T22:48:25:998
0,210000	0,070000	-0,840000	2020-10-13T22:48:26:023
-0,210000	-0,140000	-0,770000	2020-10-13T22:48:26:039
-0,210000	-0,280000	-0,840000	2020-10-13T22:48:26:057
-0,210000	-0,140000	-0,700000	2020-10-13T22:48:26:113
0,560000	-0,140000	-0,700000	2020-10-13T22:48:26:124
0,980000	-0,140000	-0,700000	2020-10-13T22:48:26:124
0,910000	-0,280000	-0,700000	2020-10-13T22:48:26:137
0,350000	-0,280000	-0,560000	2020-10-13T22:48:26:157
0,070000	-0,210000	-0,560000	2020-10-13T22:48:26:177
0,350000	-0,210000	-0,770000	2020-10-13T22:48:26:200
0,420000	-0,210000	-0,770000	2020-10-13T22:48:26:216
0,070000	-0,210000	-0,840000	2020-10-13T22:48:26:238
-0,070000	-0,210000	-0,910000	2020-10-13T22:48:26:261
-0,070000	-0,210000	-0,910000	2020-10-13T22:48:26:280
-0,210000	0,070000	-0,910000	2020-10-13T22:48:26:298
-0,490000	0,070000	-0,840000	2020-10-13T22:48:26:321
-0,420000	-0,070000	-0,840000	2020-10-13T22:48:26:336
0,070000	-0,210000	-0,770000	2020-10-13T22:48:26:359
0,210000	-0,140000	-0,700000	2020-10-13T22:48:26:377
0,070000	-0,140000	-0,700000	2020-10-13T22:48:26:398
0,350000	-0,210000	-0,770000	2020-10-13T22:48:26:417
0,770000	-0,210000	-0,770000	2020-10-13T22:48:26:439
0,490000	-0,210000	-0,700000	2020-10-13T22:48:26:457
0,280000	-0,140000	-0,630000	2020-10-13T22:48:26:479
0,350000	-0,350000	-0,630000	2020-10-13T22:48:26:499
0,560000	-0,350000	-0,560000	2020-10-13T22:48:26:520
0,700000	-0,280000	-0,700000	2020-10-13T22:48:26:537
0,770000	-0,140000	-0,770000	2020-10-13T22:48:26:559
0,420000	-0,280000	-0,840000	2020-10-13T22:48:26:577
0,490000	-0,070000	-0,770000	2020-10-13T22:48:26:600
0,560000	0,070000	-0,630000	2020-10-13T22:48:26:617
0,140000	-0,210000	-0,770000	2020-10-13T22:48:26:638
-0,070000	0,420000	-0,770000	2020-10-13T22:48:26:657
-0,140000	-0,140000	-0,770000	2020-10-13T22:48:26:681
0,140000	-0,630000	-0,700000	2020-10-13T22:48:26:697
0,140000	-0,070000	-0,700000	2020-10-13T22:48:26:717
0,070000	-0,280000	-0,840000	2020-10-13T22:48:26:741
0,840000	-0,070000	-0,910000	2020-10-13T22:48:26:764
0,770000	-0,070000	-0,840000	2020-10-13T22:48:26:777
0,770000	-0,350000	-0,630000	2020-10-13T22:48:26:798
-0,070000	-0,420000	-0,630000	2020-10-13T22:48:26:816
0,910000	-0,280000	-0,700000	2020-10-13T22:48:26:842
0,910000	-0,280000	-0,700000	2020-10-13T22:48:26:857
0,420000	-0,210000	-0,700000	2020-10-13T22:48:26:878
0,420000	-0,140000	-0,700000	2020-10-13T22:48:26:899
0,490000	-0,140000	-0,770000	2020-10-13T22:48:26:920
0,140000	-0,350000	-0,770000	2020-10-13T22:48:26:937
0,420000	0,070000	-0,770000	2020-10-13T22:48:26:957
0,770000	-0,280000	-0,840000	2020-10-13T22:48:26:992
0,210000	-0,280000	-0,840000	2020-10-13T22:48:27:002
-0,420000	-0,140000	-0,770000	2020-10-13T22:48:27:015
-0,140000	0,070000	-0,770000	2020-10-13T22:48:27:039
0,350000	-0,070000	-0,910000	2020-10-13T22:48:27:057
0,490000	-0,070000	-0,840000	2020-10-13T22:48:27:093
0,420000	-0,210000	-0,910000	2020-10-13T22:48:27:097
0,350000	-0,140000	-0,770000	2020-10-13T22:48:27:119
0,070000	0,140000	-0,700000	2020-10-13T22:48:27:137
-0,140000	-0,210000	-0,700000	2020-10-13T22:48:27:161
0,210000	-0,420000	-0,700000	2020-10-13T22:48:27:178
0,560000	-0,210000	-0,700000	2020-10-13T22:48:27:199
0,560000	-0,210000	-0,700000	2020-10-13T22:48:27:220
0,490000	-0,140000	-0,700000	2020-10-13T22:48:27:241
0,630000	-0,210000	-0,700000	2020-10-13T22:48:27:257
0,560000	-0,210000	-0,700000	2020-10-13T22:48:27:279
0,490000	-0,070000	-0,700000	2020-10-13T22:48:27:298
0,280000	-0,350000	-0,700000	2020-10-13T22:48:27:320
0,350000	-0,350000	-0,700000	2020-10-13T22:48:27:338
0,490000	-0,350000	-0,770000	2020-10-13T22:48:27:358
0,630000	-0,280000	-0,700000	2020-10-13T22:48:27:378
0,420000	-0,350000	-0,490000	2020-10-13T22:48:27:401
0,210000	-0,210000	-0,630000	2020-10-13T22:48:27:418
0,630000	-0,280000	-0,630000	2020-10-13T22:48:27:441
0,490000	-0,280000	-0,630000	2020-10-13T22:48:27:459
0,490000	-0,280000	-0,490000	2020-10-13T22:48:27:481
-0,140000	-0,350000	-0,630000	2020-10-13T22:48:27:498
0,420000	-0,350000	-0,840000	2020-10-13T22:48:27:520
0,700000	-0,350000	-0,770000	2020-10-13T22:48:27:538
0,630000	-0,210000	-0,700000	2020-10-13T22:48:27:568
0,630000	-0,280000	-0,630000	2020-10-13T22:48:27:579
0,840000	-0,560000	-0,560000	2020-10-13T22:48:27:600
0,910000	-0,420000	-0,560000	2020-10-13T22:48:27:619
0,630000	-0,350000	-0,560000	2020-10-13T22:48:27:648
0,560000	-0,140000	-0,630000	2020-10-13T22:48:27:660
0,420000	-0,140000	-0,700000	2020-10-13T22:48:27:680
0,280000	-0,140000	-0,700000	2020-10-13T22:48:27:706
0,350000	-0,140000	-0,840000	2020-10-13T22:48:27:723
0,700000	0,070000	-0,770000	2020-10-13T22:48:27:739
0,630000	0,070000	-0,700000	2020-10-13T22:48:27:760
0,420000	-0,070000	-0,700000	2020-10-13T22:48:27:805
0,280000	-0,070000	-0,770000	2020-10-13T22:48:27:806
-0,210000	-0,210000	-0,770000	2020-10-13T22:48:27:819
-0,420000	-0,210000	-0,770000	2020-10-13T22:48:27:840
-0,420000	-0,140000	-0,770000	2020-10-13T22:48:27:857
0,350000	-0,140000	-0,840000	2020-10-13T22:48:27:881
0,420000	-0,140000	-0,840000	2020-10-13T22:48:27:898
0,490000	-0,210000	-0,770000	2020-10-13T22:48:27:920
0,210000	-0,140000	-0,700000	2020-10-13T22:48:27:940
0,070000	-0,210000	-0,700000	2020-10-13T22:48:27:961
0,210000	-0,350000	-0,630000	2020-10-13T22:48:27:978
0,420000	-0,210000	-0,630000	2020-10-13T22:48:28:001
0,840000	-0,210000	-0,630000	2020-10-13T22:48:28:018
1,050000	-0,210000	-0,700000	2020-10-13T22:48:28:041
0,980000	-0,140000	-0,700000	2020-10-13T22:48:28:058
0,630000	-0,070000	-0,630000	2020-10-13T22:48:28:102
0,420000	-0,210000	-0,630000	2020-10-13T22:48:28:105
0,490000	-0,280000	-0,700000	2020-10-13T22:48:28:122
0,490000	-0,070000	-0,700000	2020-10-13T22:48:28:138
0,140000	-0,070000	-0,700000	2020-10-13T22:48:28:160
-0,210000	-0,210000	-0,700000	2020-10-13T22:48:28:182
0,350000	-0,070000	-0,770000	2020-10-13T22:48:28:201
0,700000	0,140000	-0,770000	2020-10-13T22:48:28:220
0,420000	-0,280000	-0,700000	2020-10-13T22:48:28:243
0,070000	-0,210000	-0,630000	2020-10-13T22:48:28:259
-0,140000	-0,140000	-0,770000	2020-10-13T22:48:28:281
-0,140000	-0,070000	-0,700000	2020-10-13T22:48:28:299
-0,140000	-0,210000	-0,630000	2020-10-13T22:48:28:321
-0,140000	-0,280000	-0,560000	2020-10-13T22:48:28:339
-0,140000	-0,280000	-0,560000	2020-10-13T22:48:28:362
0,350000	-0,070000	-0,700000	2020-10-13T22:48:28:378
1,260000	-0,210000	-0,700000	2020-10-13T22:48:28:407
0,980000	-0,210000	-0,700000	2020-10-13T22:48:28:422
0,140000	-0,280000	-0,560000	2020-10-13T22:48:28:443
-0,070000	-0,490000	-0,560000	2020-10-13T22:48:28:458
0,350000	-0,280000	-0,560000	2020-10-13T22:48:28:499
0,560000	-0,280000	-0,630000	2020-10-13T22:48:28:502
0,700000	0,070000	-0,700000	2020-10-13T22:48:28:522
0,490000	0,070000	-0,770000	2020-10-13T22:48:28:540
0,210000	-0,210000	-0,770000	2020-10-13T22:48:28:560
-0,420000	-0,070000	-0,700000	2020-10-13T22:48:28:577
-0,630000	-0,070000	-0,770000	2020-10-13T22:48:28:601
-0,280000	-0,140000	-0,910000	2020-10-13T22:48:28:618
-0,070000	-0,210000	-0,910000	2020-10-13T22:48:28:641
-0,070000	-0,070000	-0,840000	2020-10-13T22:48:28:661
-0,070000	0,070000	-0,840000	2020-10-13T22:48:28:684
0,070000	0,140000	-0,840000	2020-10-13T22:48:28:699
0,350000	0,350000	-0,840000	2020-10-13T22:48:28:721
0,350000	0,210000	-0,770000	2020-10-13T22:48:28:739
0,350000	0,210000	-0,770000	2020-10-13T22:48:28:762
0,210000	-0,140000	-0,700000	2020-10-13T22:48:28:779
0,420000	-0,140000	-0,560000	2020-10-13T22:48:28:801
0,770000	-0,140000	-0,560000	2020-10-13T22:48:28:819
0,910000	-0,140000	-0,560000	2020-10-13T22:48:28:842
1,050000	-0,140000	-0,630000	2020-10-13T22:48:28:858
0,840000	0,070000	-0,630000	2020-10-13T22:48:28:880
0,560000	-0,070000	-0,630000	2020-10-13T22:48:28:904
0,560000	-0,070000	-0,630000	2020-10-13T22:48:28:923
0,770000	-0,070000	-0,770000	2020-10-13T22:48:28:939
0,840000	-0,070000	-0,840000	2020-10-13T22:48:28:961
0,140000	-0,070000	-0,630000	2020-10-13T22:48:28:980
-0,070000	-0,070000	-0,630000	2020-10-13T22:48:29:002
0,280000	-0,070000	-0,770000	2020-10-13T22:48:29:019
0,770000	0,280000	-0,840000	2020-10-13T22:48:29:041
0,350000	0,280000	-0,700000	2020-10-13T22:48:29:063
-0,210000	-0,140000	-0,770000	2020-10-13T22:48:29:104
-0,140000	-0,210000	-0,840000	2020-10-13T22:48:29:105
-0,350000	-0,210000	-0,700000	2020-10-13T22:48:29:120
-0,770000	0,070000	-0,560000	2020-10-13T22:48:29:145
-0,840000	-0,070000	-0,420000	2020-10-13T22:48:29:169
-0,210000	-0,140000	-0,560000	2020-10-13T22:48:29:180
1,050000	0,210000	-0,770000	2020-10-13T22:48:29:202
1,190000	0,280000	-0,840000	2020-10-13T22:48:29:221
0,560000	0,280000	-0,700000	2020-10-13T22:48:29:242
0,560000	-0,070000	-0,560000	2020-10-13T22:48:29:259
0,210000	-0,490000	-0,560000	2020-10-13T22:48:29:281
0,770000	-0,210000	-0,700000	2020-10-13T22:48:29:300
0,840000	-0,140000	-0,630000	2020-10-13T22:48:29:323
0,490000	-0,140000	-0,630000	2020-10-13T22:48:29:339
0,630000	0,070000	-0,700000	2020-10-13T22:48:29:361
0,700000	-0,070000	-0,700000	2020-10-13T22:48:29:381
0,350000	-0,140000	-0,770000	2020-10-13T22:48:29:403
0,070000	-0,140000	-0,700000	2020-10-13T22:48:29:420
-0,140000	-0,140000	-0,770000	2020-10-13T22:48:29:442
0,140000	0,070000	-0,840000	2020-10-13T22:48:29:460
0,070000	-0,280000	-0,770000	2020-10-13T22:48:29:490
0,070000	-0,070000	-0,840000	2020-10-13T22:48:29:501
0,070000	0,210000	-0,840000	2020-10-13T22:48:29:523
0,280000	-0,070000	-0,840000	2020-10-13T22:48:29:540
0,070000	-0,280000	-0,840000	2020-10-13T22:48:29:573
-0,280000	-0,210000	-0,700000	2020-10-13T22:48:29:581
-0,070000	-0,280000	-0,700000	2020-10-13T22:48:29:604
0,350000	-0,070000	-0,770000	2020-10-13T22:48:29:624
0,560000	0,140000	-0,770000	2020-10-13T22:48:29:641
0,490000	0,070000	-0,700000	2020-10-13T22:48:29:659
0,490000	-0,140000	-0,700000	2020-10-13T22:48:29:681
0,630000	-0,140000	-0,770000	2020-10-13T22:48:29:700
0,770000	-0,140000	-0,840000	2020-10-13T22:48:29:723
0,630000	-0,420000	-0,770000	2020-10-13T22:48:29:739
0,560000	-0,140000	-0,700000	2020-10-13T22:48:29:762
0,420000	-0,140000	-0,770000	2020-10-13T22:48:29:780
0,420000	0,070000	-0,770000	2020-10-13T22:48:29:803
0,420000	-0,280000	-0,700000	2020-10-13T22:48:29:821
0,210000	-0,420000	-0,770000	2020-10-13T22:48:29:842
0,210000	-0,070000	-0,770000	2020-10-13T22:48:29:865
0,140000	-0,070000	-0,770000	2020-10-13T22:48:29:883
0,350000	-0,350000	-0,630000	2020-10-13T22:48:29:902
0,210000	-0,070000	-0,630000	2020-10-13T22:48:29:923
0,140000	-0,070000	-0,770000	2020-10-13T22:48:29:943
0,840000	0,140000	-0,840000	2020-10-13T22:48:29:964
1,190000	-0,210000	-0,770000	2020-10-13T22:48:29:981
0,700000	-0,070000	-0,630000	2020-10-13T22:48:30:027
0,140000	-0,210000	-0,560000	2020-10-13T22:48:30:028
0,560000	-0,350000	-0,630000	2020-10-13T22:48:30:044
1,120000	-0,210000	-0,630000	2020-10-13T22:48:30:060
0,980000	-0,070000	-0,630000	2020-10-13T22:48:30:083
0,770000	0,070000	-0,770000	2020-10-13T22:48:30:114
0,700000	-0,140000	-0,700000	2020-10-13T22:48:30:123
0,350000	-0,140000	-0,770000	2020-10-13T22:48:30:140
0,280000	-0,070000	-0,630000	2020-10-13T22:48:30:160
0,210000	-0,140000	-0,770000	2020-10-13T22:48:30:178
0,070000	-0,140000	-0,840000	2020-10-13T22:48:30:204
-0,070000	-0,140000	-0,770000	2020-10-13T22:48:30:219
-0,140000	-0,140000	-0,840000	2020-10-13T22:48:30:241
0,070000	-0,070000	-0,840000	2020-10-13T22:48:30:260
0,280000	0,070000	-0,910000	2020-10-13T22:48:30:283
0,350000	-0,070000	-0,840000	2020-10-13T22:48:30:301
0,350000	-0,070000	-0,910000	2020-10-13T22:48:30:322
-0,070000	-0,420000	-0,770000	2020-10-13T22:48:30:343
-0,070000	-0,420000	-0,770000	2020-10-13T22:48:30:365
0,070000	-0,280000	-0,700000	2020-10-13T22:48:30:381
0,560000	-0,070000	-0,700000	2020-10-13T22:48:30:403
0,700000	-0,070000	-0,700000	2020-10-13T22:48:30:420
0,770000	-0,070000	-0,700000	2020-10-13T22:48:30:443
0,700000	-0,210000	-0,700000	2020-10-13T22:48:30:461
0,630000	-0,210000	-0,700000	2020-10-13T22:48:30:483
0,280000	-0,210000	-0,700000	2020-10-13T22:48:30:501
0,490000	-0,490000	-0,770000	2020-10-13T22:48:30:524
0,700000	0,070000	-0,700000	2020-10-13T22:48:30:540
0,490000	0,070000	-0,770000	2020-10-13T22:48:30:563
0,280000	0,070000	-0,700000	2020-10-13T22:48:30:585
0,490000	-0,210000	-0,700000	2020-10-13T22:48:30:605
0,560000	-0,280000	-0,770000	2020-10-13T22:48:30:621
0,280000	-0,210000	-0,770000	2020-10-13T22:48:30:643
0,070000	-0,070000	-0,770000	2020-10-13T22:48:30:661
0,210000	-0,140000	-0,700000	2020-10-13T22:48:30:684
0,210000	-0,280000	-0,700000	2020-10-13T22:48:30:702
0,210000	-0,140000	-0,700000	2020-10-13T22:48:30:722
0,350000	0,140000	-0,770000	2020-10-13T22:48:30:742
0,980000	0,140000	-0,840000	2020-10-13T22:48:30:765
1,120000	-0,210000	-0,700000	2020-10-13T22:48:30:781
0,840000	-0,280000	-0,560000	2020-10-13T22:48:30:808
0,490000	-0,280000	-0,560000	2020-10-13T22:48:30:831
0,420000	-0,280000	-0,770000	2020-10-13T22:48:30:846
0,770000	-0,280000	-0,770000	2020-10-13T22:48:30:862
0,910000	-0,280000	-0,630000	2020-10-13T22:48:30:884
1,050000	-0,140000	-0,700000	2020-10-13T22:48:30:902
1,260000	-0,070000	-0,700000	2020-10-13T22:48:30:924
1,260000	-0,070000	-0,700000	2020-10-13T22:48:30:942
0,840000	-0,420000	-0,700000	2020-10-13T22:48:30:963
0,350000	-0,280000	-0,560000	2020-10-13T22:48:30:981
0,070000	-0,350000	-0,560000	2020-10-13T22:48:31:015
0,140000	-0,140000	-0,700000	2020-10-13T22:48:31:020
0,280000	-0,280000	-0,700000	2020-10-13T22:48:31:042
0,560000	-0,280000	-0,700000	2020-10-13T22:48:31:064
0,560000	0,070000	-0,770000	2020-10-13T22:48:31:106
0,350000	-0,140000	-0,770000	2020-10-13T22:48:31:107
0,140000	-0,210000	-0,770000	2020-10-13T22:48:31:121
0,210000	-0,210000	-0,840000	2020-10-13T22:48:31:139
0,210000	-0,140000	-0,770000	2020-10-13T22:48:31:166
0,140000	-0,070000	-0,700000	2020-10-13T22:48:31:181
0,070000	-0,070000	-0,630000	2020-10-13T22:48:31:203
0,490000	-0,140000	-0,630000	2020-10-13T22:48:31:221
0,630000	-0,140000	-0,700000	2020-10-13T22:48:31:245
0,700000	-0,280000	-0,630000	2020-10-13T22:48:31:261
0,630000	-0,210000	-0,560000	2020-10-13T22:48:31:283
0,700000	0,070000	-0,560000	2020-10-13T22:48:31:304
1,050000	-0,140000	-0,700000	2020-10-13T22:48:31:325
0,560000	-0,140000	-0,630000	2020-10-13T22:48:31:342
0,630000	-0,210000	-0,700000	2020-10-13T22:48:31:363
1,050000	-0,210000	-0,770000	2020-10-13T22:48:31:382
0,350000	-0,210000	-0,420000	2020-10-13T22:48:31:405
-0,560000	-0,490000	-0,560000	2020-10-13T22:48:31:422
0,070000	-0,140000	-0,630000	2020-10-13T22:48:31:443
0,910000	0,070000	-0,840000	2020-10-13T22:48:31:461
1,050000	0,070000	-0,770000	2020-10-13T22:48:31:485
0,560000	-0,210000	-0,490000	2020-10-13T22:48:31:502
-0,070000	-0,070000	-0,700000	2020-10-13T22:48:31:529
0,560000	0,070000	-0,770000	2020-10-13T22:48:31:546
0,700000	-0,070000	-0,770000	2020-10-13T22:48:31:566
-0,140000	-0,140000	-0,700000	2020-10-13T22:48:31:583
-0,350000	-0,070000	-0,700000	2020-10-13T22:48:31:607
0,490000	-0,070000	-0,700000	2020-10-13T22:48:31:621
1,120000	-0,070000	-0,770000	2020-10-13T22:48:31:645
0,840000	-0,140000	-0,770000	2020-10-13T22:48:31:663
0,070000	-0,280000	-0,700000	2020-10-13T22:48:31:684
-0,140000	-0,420000	-0,630000	2020-10-13T22:48:31:708
0,630000	-0,420000	-0,700000	2020-10-13T22:48:31:728
0,770000	-0,070000	-0,770000	2020-10-13T22:48:31:741
0,490000	-0,070000	-0,770000	2020-10-13T22:48:31:763
0,070000	-0,140000	-0,770000	2020-10-13T22:48:31:788
0,070000	-0,210000	-0,770000	2020-10-13T22:48:31:808
-0,210000	-0,140000	-0,840000	2020-10-13T22:48:31:822
-0,280000	-0,140000	-0,840000	2020-10-13T22:48:31:845
-0,280000	-0,070000	-0,910000	2020-10-13T22:48:31:861
0,070000	0,070000	-0,910000	2020-10-13T22:48:31:885
-0,140000	-0,070000	-0,910000	2020-10-13T22:48:31:904
-0,280000	-0,560000	-0,910000	2020-10-13T22:48:31:924
-0,840000	-0,140000	-0,700000	2020-10-13T22:48:31:942
-0,910000	-0,210000	-0,770000	2020-10-13T22:48:31:965
-0,350000	-0,210000	-0,770000	2020-10-13T22:48:31:982
-0,350000	-0,210000	-0,840000	2020-10-13T22:48:32:004
0,350000	-0,070000	-0,840000	2020-10-13T22:48:32:024
0,630000	-0,070000	-0,770000	2020-10-13T22:48:32:045
0,910000	-0,070000	-0,700000	2020-10-13T22:48:32:062
0,770000	-0,210000	-0,700000	2020-10-13T22:48:32:087
0,490000	-0,210000	-0,630000	2020-10-13T22:48:32:102
0,350000	-0,210000	-0,630000	2020-10-13T22:48:32:124
0,420000	-0,070000	-0,700000	2020-10-13T22:48:32:142
0,560000	-0,070000	-0,700000	2020-10-13T22:48:32:164
0,280000	-0,070000	-0,700000	2020-10-13T22:48:32:182
0,140000	0,070000	-0,770000	2020-10-13T22:48:32:206
0,420000	0,070000	-0,910000	2020-10-13T22:48:32:222
0,210000	-0,070000	-0,840000	2020-10-13T22:48:32:244
0,070000	-0,140000	-0,700000	2020-10-13T22:48:32:265
0,070000	-0,350000	-0,700000	2020-10-13T22:48:32:285
0,070000	-0,140000	-0,700000	2020-10-13T22:48:32:303
0,210000	0,140000	-0,700000	2020-10-13T22:48:32:324
0,210000	0,140000	-0,700000	2020-10-13T22:48:32:343
0,490000	0,070000	-0,770000	2020-10-13T22:48:32:367
0,770000	0,140000	-0,840000	2020-10-13T22:48:32:383
0,770000	0,070000	-0,770000	2020-10-13T22:48:32:406
0,140000	-0,210000	-0,560000	2020-10-13T22:48:32:452
-0,280000	-0,420000	-0,630000	2020-10-13T22:48:32:453
-0,140000	-0,280000	-0,840000	2020-10-13T22:48:32:463
-0,070000	-0,280000	-0,840000	2020-10-13T22:48:32:485
0,210000	-0,140000	-0,770000	2020-10-13T22:48:32:515
0,350000	-0,140000	-0,910000	2020-10-13T22:48:32:525
0,420000	0,280000	-0,980000	2020-10-13T22:48:32:542
0,350000	0,070000	-1,120000	2020-10-13T22:48:32:564
-0,210000	-0,280000	-0,910000	2020-10-13T22:48:32:582
-0,770000	-0,350000	-0,770000	2020-10-13T22:48:32:605
-0,210000	-0,490000	-0,910000	2020-10-13T22:48:32:622
0,420000	-0,210000	-0,910000	2020-10-13T22:48:32:643
0,630000	-0,210000	-0,910000	2020-10-13T22:48:32:663
0,700000	0,070000	-0,980000	2020-10-13T22:48:32:686
0,420000	-0,210000	-0,910000	2020-10-13T22:48:32:703
0,140000	-0,140000	-0,840000	2020-10-13T22:48:32:724
0,210000	-0,140000	-0,840000	2020-10-13T22:48:32:745
-0,070000	-0,350000	-0,700000	2020-10-13T22:48:32:765
-0,140000	-0,350000	-0,630000	2020-10-13T22:48:32:783
-0,070000	-0,210000	-0,700000	2020-10-13T22:48:32:805
0,630000	-0,210000	-0,700000	2020-10-13T22:48:32:822
0,700000	-0,210000	-0,630000	2020-10-13T22:48:32:845
0,980000	-0,210000	-0,840000	2020-10-13T22:48:32:863
1,050000	-0,210000	-0,770000	2020-10-13T22:48:32:885
0,420000	-0,210000	-0,700000	2020-10-13T22:48:32:903
-0,280000	-0,280000	-0,770000	2020-10-13T22:48:32:926
0,210000	-0,280000	-0,770000	2020-10-13T22:48:32:946
0,700000	-0,210000	-0,770000	2020-10-13T22:48:32:965
0,700000	-0,070000	-0,770000	2020-10-13T22:48:32:983
0,420000	-0,140000	-0,770000	2020-10-13T22:48:33:005
0,490000	-0,280000	-0,770000	2020-10-13T22:48:33:039
0,840000	-0,280000	-0,770000	2020-10-13T22:48:33:044
1,120000	-0,350000	-0,770000	2020-10-13T22:48:33:062
0,840000	-0,210000	-0,700000	2020-10-13T22:48:33:096
0,490000	-0,070000	-0,770000	2020-10-13T22:48:33:102
0,630000	-0,210000	-0,770000	2020-10-13T22:48:33:125
0,280000	-0,350000	-0,770000	2020-10-13T22:48:33:145
0,070000	-0,350000	-0,700000	2020-10-13T22:48:33:167
0,140000	-0,280000	-0,770000	2020-10-13T22:48:33:184
0,280000	-0,070000	-0,770000	2020-10-13T22:48:33:233
0,490000	-0,070000	-0,840000	2020-10-13T22:48:33:235
0,630000	-0,280000	-0,840000	2020-10-13T22:48:33:247
0,420000	-0,140000	-0,910000	2020-10-13T22:48:33:264
0,490000	-0,070000	-0,840000	2020-10-13T22:48:33:287
0,420000	-0,070000	-0,910000	2020-10-13T22:48:33:303
