v1	v2	v3	v4	ts
0,000000	0,000000	0,000000	0,000000	2020-10-13T22:47:48:169
0,000000	0,000000	0,000000	0,000000	2020-10-13T22:47:48:174
0,000000	0,000000	0,000000	0,000000	2020-10-13T22:47:48:199
0,000000	0,000000	0,000000	0,000000	2020-10-13T22:47:48:238
0,000000	0,000000	0,000000	0,000000	2020-10-13T22:47:48:278
0,000000	0,000000	0,000000	0,000000	2020-10-13T22:47:48:318
0,000000	0,000000	0,000000	0,000000	2020-10-13T22:47:48:360
0,000000	0,000000	0,000000	0,000000	2020-10-13T22:47:48:400
0,000000	0,000000	0,000000	0,000000	2020-10-13T22:47:48:439
0,000000	0,000000	0,000000	0,000000	2020-10-13T22:47:48:479
0,000000	0,000000	0,000000	0,000000	2020-10-13T22:47:48:520
0,000000	0,000000	0,000000	0,000000	2020-10-13T22:47:48:559
0,000000	0,000000	0,000000	0,000000	2020-10-13T22:47:48:599
0,000000	0,000000	0,000000	0,000000	2020-10-13T22:47:48:638
0,000000	0,000000	0,000000	0,000000	2020-10-13T22:47:48:679
0,000000	0,000000	0,000000	0,000000	2020-10-13T22:47:48:720
0,000000	0,000000	0,000000	0,000000	2020-10-13T22:47:48:759
0,000000	0,000000	0,000000	0,000000	2020-10-13T22:47:48:799
0,000000	0,000000	0,000000	0,000000	2020-10-13T22:47:48:839
0,000000	0,000000	0,000000	0,000000	2020-10-13T22:47:48:879
0,000000	0,000000	0,000000	0,000000	2020-10-13T22:47:48:920
0,000000	0,000000	0,000000	0,000000	2020-10-13T22:47:48:960
0,000000	0,000000	0,000000	0,000000	2020-10-13T22:47:48:999
0,000000	0,000000	0,000000	0,000000	2020-10-13T22:47:49:039
0,000000	0,000000	0,000000	0,000000	2020-10-13T22:47:49:093
0,000000	0,000000	0,000000	0,000000	2020-10-13T22:47:49:122
0,000000	0,000000	0,000000	0,000000	2020-10-13T22:47:49:163
0,000000	0,000000	0,000000	0,000000	2020-10-13T22:47:49:203
0,000000	0,000000	0,000000	0,000000	2020-10-13T22:47:49:243
0,000000	0,000000	0,000000	0,000000	2020-10-13T22:47:49:283
0,000000	0,000000	0,000000	0,000000	2020-10-13T22:47:49:323
0,000000	0,000000	0,000000	0,000000	2020-10-13T22:47:49:363
0,000000	0,000000	0,000000	0,000000	2020-10-13T22:47:49:403
0,000000	0,000000	0,000000	0,000000	2020-10-13T22:47:49:443
0,000000	0,000000	0,000000	0,000000	2020-10-13T22:47:49:483
0,000000	0,000000	0,000000	0,000000	2020-10-13T22:47:49:523
0,000000	0,000000	0,000000	0,000000	2020-10-13T22:47:49:563
0,000000	0,000000	0,000000	0,000000	2020-10-13T22:47:49:603
0,000000	0,000000	0,000000	0,000000	2020-10-13T22:47:49:643
0,000000	0,000000	0,000000	0,000000	2020-10-13T22:47:49:683
0,000000	0,000000	0,000000	0,000000	2020-10-13T22:47:49:723
0,000000	0,000000	0,000000	0,000000	2020-10-13T22:47:49:763
0,000000	0,000000	0,000000	0,000000	2020-10-13T22:47:49:804
0,000000	0,000000	0,000000	0,000000	2020-10-13T22:47:49:846
0,000000	0,000000	0,000000	0,000000	2020-10-13T22:47:49:885
0,000000	0,000000	0,000000	0,000000	2020-10-13T22:47:49:925
0,000000	0,000000	0,000000	0,000000	2020-10-13T22:47:49:964
0,000000	0,000000	0,000000	0,000000	2020-10-13T22:47:50:004
0,000000	0,000000	0,000000	0,000000	2020-10-13T22:47:50:044
0,000000	0,000000	0,000000	0,000000	2020-10-13T22:47:50:095
0,000000	0,000000	0,000000	0,000000	2020-10-13T22:47:50:123
0,000000	0,000000	0,000000	0,000000	2020-10-13T22:47:50:164
0,000000	0,000000	0,000000	0,000000	2020-10-13T22:47:50:204
0,000000	0,000000	0,000000	0,000000	2020-10-13T22:47:50:243
0,000000	0,000000	0,000000	0,000000	2020-10-13T22:47:50:284
0,000000	0,000000	0,000000	0,000000	2020-10-13T22:47:50:323
0,000000	0,000000	0,000000	0,000000	2020-10-13T22:47:50:364
0,000000	0,000000	0,000000	0,000000	2020-10-13T22:47:50:404
0,000000	0,000000	0,000000	0,000000	2020-10-13T22:47:50:444
0,000000	0,000000	0,000000	0,000000	2020-10-13T22:47:50:485
0,000000	0,000000	0,000000	0,000000	2020-10-13T22:47:50:525
0,000000	0,000000	0,000000	0,000000	2020-10-13T22:47:50:567
0,000000	0,000000	0,000000	0,000000	2020-10-13T22:47:50:606
0,000000	0,000000	0,000000	0,000000	2020-10-13T22:47:50:646
0,000000	0,000000	0,000000	0,000000	2020-10-13T22:47:50:687
0,000000	0,000000	0,000000	0,000000	2020-10-13T22:47:50:725
0,000000	0,000000	0,000000	0,000000	2020-10-13T22:47:50:766
0,000000	0,000000	0,000000	0,000000	2020-10-13T22:47:50:805
0,000000	0,000000	0,000000	0,000000	2020-10-13T22:47:50:848
0,000000	0,000000	0,000000	0,000000	2020-10-13T22:47:50:886
0,000000	0,000000	0,000000	0,000000	2020-10-13T22:47:50:925
0,000000	0,000000	0,000000	0,000000	2020-10-13T22:47:50:965
0,000000	0,000000	0,000000	0,000000	2020-10-13T22:47:51:005
0,000000	0,000000	0,000000	0,000000	2020-10-13T22:47:51:044
0,000000	0,000000	0,000000	0,000000	2020-10-13T22:47:51:089
0,000000	0,000000	0,000000	0,000000	2020-10-13T22:47:51:125
0,000000	0,000000	0,000000	0,000000	2020-10-13T22:47:51:165
0,000000	0,000000	0,000000	0,000000	2020-10-13T22:47:51:205
0,000000	0,000000	0,000000	0,000000	2020-10-13T22:47:51:246
0,000000	0,000000	0,000000	0,000000	2020-10-13T22:47:51:285
0,000000	0,000000	0,000000	0,000000	2020-10-13T22:47:51:325
0,000000	0,000000	0,000000	0,000000	2020-10-13T22:47:51:367
0,000000	0,000000	0,000000	0,000000	2020-10-13T22:47:51:406
0,000000	0,000000	0,000000	0,000000	2020-10-13T22:47:51:447
0,000000	0,000000	0,000000	0,000000	2020-10-13T22:47:51:485
0,000000	0,000000	0,000000	0,000000	2020-10-13T22:47:51:526
0,000000	0,000000	0,000000	0,000000	2020-10-13T22:47:51:565
0,000000	0,000000	0,000000	0,000000	2020-10-13T22:47:51:605
0,000000	0,000000	0,000000	0,000000	2020-10-13T22:47:51:646
0,000000	0,000000	0,000000	0,000000	2020-10-13T22:47:51:685
0,000000	0,000000	0,000000	0,000000	2020-10-13T22:47:51:726
0,000000	0,000000	0,000000	0,000000	2020-10-13T22:47:51:766
0,000000	0,000000	0,000000	0,000000	2020-10-13T22:47:51:806
0,000000	0,000000	0,000000	0,000000	2020-10-13T22:47:51:846
0,000000	0,000000	0,000000	0,000000	2020-10-13T22:47:51:887
0,000000	0,000000	0,000000	0,000000	2020-10-13T22:47:51:925
0,000000	0,000000	0,000000	0,000000	2020-10-13T22:47:51:972
0,000000	0,000000	0,000000	0,000000	2020-10-13T22:47:52:007
0,000000	0,000000	0,000000	0,000000	2020-10-13T22:47:52:045
0,000000	0,000000	0,000000	0,000000	2020-10-13T22:47:52:108
0,000000	0,000000	0,000000	0,000000	2020-10-13T22:47:52:126
0,000000	0,000000	0,000000	0,000000	2020-10-13T22:47:52:167
0,000000	0,000000	0,000000	0,000000	2020-10-13T22:47:52:207
0,000000	0,000000	0,000000	0,000000	2020-10-13T22:47:52:246
0,000000	0,000000	0,000000	0,000000	2020-10-13T22:47:52:287
0,000000	0,000000	0,000000	0,000000	2020-10-13T22:47:52:328
0,000000	0,000000	0,000000	0,000000	2020-10-13T22:47:52:368
0,000000	0,000000	0,000000	0,000000	2020-10-13T22:47:52:405
0,000000	0,000000	0,000000	0,000000	2020-10-13T22:47:52:458
0,000000	0,000000	0,000000	0,000000	2020-10-13T22:47:52:487
0,000000	0,000000	0,000000	0,000000	2020-10-13T22:47:52:529
0,000000	0,000000	0,000000	0,000000	2020-10-13T22:47:52:567
0,000000	0,000000	0,000000	0,000000	2020-10-13T22:47:52:607
0,000000	0,000000	0,000000	0,000000	2020-10-13T22:47:52:646
0,000000	0,000000	0,000000	0,000000	2020-10-13T22:47:52:687
0,000000	0,000000	0,000000	0,000000	2020-10-13T22:47:52:727
0,000000	0,000000	0,000000	0,000000	2020-10-13T22:47:52:767
0,000000	0,000000	0,000000	0,000000	2020-10-13T22:47:52:807
0,000000	0,000000	0,000000	0,000000	2020-10-13T22:47:52:847
0,000000	0,000000	0,000000	0,000000	2020-10-13T22:47:52:894
0,000000	0,000000	0,000000	0,000000	2020-10-13T22:47:52:928
0,000000	0,000000	0,000000	0,000000	2020-10-13T22:47:52:970
0,000000	0,000000	0,000000	0,000000	2020-10-13T22:47:53:009
0,000000	0,000000	0,000000	0,000000	2020-10-13T22:47:53:053
0,000000	0,000000	0,000000	0,000000	2020-10-13T22:47:53:096
0,000000	0,000000	0,000000	0,000000	2020-10-13T22:47:53:126
0,000000	0,000000	0,000000	0,000000	2020-10-13T22:47:53:168
0,000000	0,000000	0,000000	0,000000	2020-10-13T22:47:53:207
0,000000	0,000000	0,000000	0,000000	2020-10-13T22:47:53:247
0,000000	0,000000	0,000000	0,000000	2020-10-13T22:47:53:288
0,000000	0,000000	0,000000	0,000000	2020-10-13T22:47:53:327
0,000000	0,000000	0,000000	0,000000	2020-10-13T22:47:53:368
0,000000	0,000000	0,000000	0,000000	2020-10-13T22:47:53:408
0,000000	0,000000	0,000000	0,000000	2020-10-13T22:47:53:451
0,000000	0,000000	0,000000	0,000000	2020-10-13T22:47:53:487
0,000000	0,000000	0,000000	0,000000	2020-10-13T22:47:53:528
0,000000	0,000000	0,000000	0,000000	2020-10-13T22:47:53:568
0,000000	0,000000	0,000000	0,000000	2020-10-13T22:47:53:608
0,000000	0,000000	0,000000	0,000000	2020-10-13T22:47:53:649
0,000000	0,000000	0,000000	0,000000	2020-10-13T22:47:53:688
0,000000	0,000000	0,000000	0,000000	2020-10-13T22:47:53:728
0,000000	0,000000	0,000000	0,000000	2020-10-13T22:47:53:768
0,000000	0,000000	0,000000	0,000000	2020-10-13T22:47:53:809
0,000000	0,000000	0,000000	0,000000	2020-10-13T22:47:53:848
0,000000	0,000000	0,000000	0,000000	2020-10-13T22:47:53:888
0,000000	0,000000	0,000000	0,000000	2020-10-13T22:47:53:928
0,000000	0,000000	0,000000	0,000000	2020-10-13T22:47:53:969
0,000000	0,000000	0,000000	0,000000	2020-10-13T22:47:54:009
0,000000	0,000000	0,000000	0,000000	2020-10-13T22:47:54:048
0,000000	0,000000	0,000000	0,000000	2020-10-13T22:47:54:104
0,000000	0,000000	0,000000	0,000000	2020-10-13T22:47:54:131
0,000000	0,000000	0,000000	0,000000	2020-10-13T22:47:54:172
0,000000	0,000000	0,000000	0,000000	2020-10-13T22:47:54:209
0,000000	0,000000	0,000000	0,000000	2020-10-13T22:47:54:249
0,000000	0,000000	0,000000	0,000000	2020-10-13T22:47:54:289
0,000000	0,000000	0,000000	0,000000	2020-10-13T22:47:54:331
0,000000	0,000000	0,000000	0,000000	2020-10-13T22:47:54:371
0,000000	0,000000	0,000000	0,000000	2020-10-13T22:47:54:408
0,000000	0,000000	0,000000	0,000000	2020-10-13T22:47:54:448
0,000000	0,000000	0,000000	0,000000	2020-10-13T22:47:54:489
0,000000	0,000000	0,000000	0,000000	2020-10-13T22:47:54:529
0,000000	0,000000	0,000000	0,000000	2020-10-13T22:47:54:570
0,000000	0,000000	0,000000	0,000000	2020-10-13T22:47:54:609
0,000000	0,000000	0,000000	0,000000	2020-10-13T22:47:54:649
0,000000	0,000000	0,000000	0,000000	2020-10-13T22:47:54:689
0,000000	0,000000	0,000000	0,000000	2020-10-13T22:47:54:730
0,000000	0,000000	0,000000	0,000000	2020-10-13T22:47:54:769
0,000000	0,000000	0,000000	0,000000	2020-10-13T22:47:54:811
0,000000	0,000000	0,000000	0,000000	2020-10-13T22:47:54:850
0,000000	0,000000	0,000000	0,000000	2020-10-13T22:47:54:896
0,000000	0,000000	0,000000	0,000000	2020-10-13T22:47:54:928
0,000000	0,000000	0,000000	0,000000	2020-10-13T22:47:54:976
0,000000	0,000000	0,000000	0,000000	2020-10-13T22:47:55:009
0,000000	0,000000	0,000000	0,000000	2020-10-13T22:47:55:050
0,000000	0,000000	0,000000	0,000000	2020-10-13T22:47:55:094
0,000000	0,000000	0,000000	0,000000	2020-10-13T22:47:55:132
0,000000	0,000000	0,000000	0,000000	2020-10-13T22:47:55:171
0,000000	0,000000	0,000000	0,000000	2020-10-13T22:47:55:218
0,000000	0,000000	0,000000	0,000000	2020-10-13T22:47:55:250
0,000000	0,000000	0,000000	0,000000	2020-10-13T22:47:55:291
0,000000	0,000000	0,000000	0,000000	2020-10-13T22:47:55:329
0,000000	0,000000	0,000000	0,000000	2020-10-13T22:47:55:370
0,000000	0,000000	0,000000	0,000000	2020-10-13T22:47:55:409
0,000000	0,000000	0,000000	0,000000	2020-10-13T22:47:55:450
0,000000	0,000000	0,000000	0,000000	2020-10-13T22:47:55:489
0,000000	0,000000	0,000000	0,000000	2020-10-13T22:47:55:530
0,000000	0,000000	0,000000	0,000000	2020-10-13T22:47:55:569
0,000000	0,000000	0,000000	0,000000	2020-10-13T22:47:55:610
0,000000	0,000000	0,000000	0,000000	2020-10-13T22:47:55:649
0,000000	0,000000	0,000000	0,000000	2020-10-13T22:47:55:690
0,000000	0,000000	0,000000	0,000000	2020-10-13T22:47:55:728
0,000000	0,000000	0,000000	0,000000	2020-10-13T22:47:55:772
0,000000	0,000000	0,000000	0,000000	2020-10-13T22:47:55:819
0,000000	0,000000	0,000000	0,000000	2020-10-13T22:47:55:850
0,000000	0,000000	0,000000	0,000000	2020-10-13T22:47:55:890
0,000000	0,000000	0,000000	0,000000	2020-10-13T22:47:55:929
0,000000	0,000000	0,000000	0,000000	2020-10-13T22:47:55:970
0,000000	0,000000	0,000000	0,000000	2020-10-13T22:47:56:009
0,000000	0,000000	0,000000	0,000000	2020-10-13T22:47:56:049
0,000000	0,000000	0,000000	0,000000	2020-10-13T22:47:56:099
0,000000	0,000000	0,000000	0,000000	2020-10-13T22:47:56:129
0,000000	0,000000	0,000000	0,000000	2020-10-13T22:47:56:172
0,000000	0,000000	0,000000	0,000000	2020-10-13T22:47:56:209
0,000000	0,000000	0,000000	0,000000	2020-10-13T22:47:56:251
0,000000	0,000000	0,000000	0,000000	2020-10-13T22:47:56:290
0,000000	0,000000	0,000000	0,000000	2020-10-13T22:47:56:330
0,000000	0,000000	0,000000	0,000000	2020-10-13T22:47:56:370
0,000000	0,000000	0,000000	0,000000	2020-10-13T22:47:56:411
0,000000	0,000000	0,000000	0,000000	2020-10-13T22:47:56:450
0,000000	0,000000	0,000000	0,000000	2020-10-13T22:47:56:490
0,000000	0,000000	0,000000	0,000000	2020-10-13T22:47:56:535
0,000000	0,000000	0,000000	0,000000	2020-10-13T22:47:56:572
0,000000	0,000000	0,000000	0,000000	2020-10-13T22:47:56:616
0,000000	0,000000	0,000000	0,000000	2020-10-13T22:47:56:651
0,000000	0,000000	0,000000	0,000000	2020-10-13T22:47:56:689
0,000000	0,000000	0,000000	0,000000	2020-10-13T22:47:56:731
0,000000	0,000000	0,000000	0,000000	2020-10-13T22:47:56:772
0,000000	0,000000	0,000000	0,000000	2020-10-13T22:47:56:818
0,000000	0,000000	0,000000	0,000000	2020-10-13T22:47:56:851
0,000000	0,000000	0,000000	0,000000	2020-10-13T22:47:56:891
0,000000	0,000000	0,000000	0,000000	2020-10-13T22:47:56:931
0,000000	0,000000	0,000000	0,000000	2020-10-13T22:47:56:972
0,000000	0,000000	0,000000	0,000000	2020-10-13T22:47:57:011
0,000000	0,000000	0,000000	0,000000	2020-10-13T22:47:57:051
0,000000	0,000000	0,000000	0,000000	2020-10-13T22:47:57:098
0,000000	0,000000	0,000000	0,000000	2020-10-13T22:47:57:131
0,000000	0,000000	0,000000	0,000000	2020-10-13T22:47:57:171
0,000000	0,000000	0,000000	0,000000	2020-10-13T22:47:57:211
0,000000	0,000000	0,000000	0,000000	2020-10-13T22:47:57:250
0,000000	0,000000	0,000000	0,000000	2020-10-13T22:47:57:291
0,000000	0,000000	0,000000	0,000000	2020-10-13T22:47:57:330
0,000000	0,000000	0,000000	0,000000	2020-10-13T22:47:57:372
0,000000	0,000000	0,000000	0,000000	2020-10-13T22:47:57:411
0,000000	0,000000	0,000000	0,000000	2020-10-13T22:47:57:451
0,000000	0,000000	0,000000	0,000000	2020-10-13T22:47:57:491
0,000000	0,000000	0,000000	0,000000	2020-10-13T22:47:57:532
0,000000	0,000000	0,000000	0,000000	2020-10-13T22:47:57:571
0,000000	0,000000	0,000000	0,000000	2020-10-13T22:47:57:613
0,000000	0,000000	0,000000	0,000000	2020-10-13T22:47:57:651
0,000000	0,000000	0,000000	0,000000	2020-10-13T22:47:57:692
78,000000	0,000000	0,000000	0,000000	2020-10-13T22:47:57:731
78,000000	0,000000	0,000000	0,000000	2020-10-13T22:47:57:771
78,000000	0,000000	0,000000	0,000000	2020-10-13T22:47:57:811
78,000000	0,000000	0,000000	0,000000	2020-10-13T22:47:57:851
78,000000	0,000000	0,000000	0,000000	2020-10-13T22:47:57:891
78,000000	0,000000	0,000000	0,000000	2020-10-13T22:47:57:930
78,000000	0,000000	0,000000	0,000000	2020-10-13T22:47:57:971
78,000000	0,000000	0,000000	0,000000	2020-10-13T22:47:58:014
78,000000	0,000000	0,000000	0,000000	2020-10-13T22:47:58:051
78,000000	0,000000	0,000000	0,000000	2020-10-13T22:47:58:135
78,000000	0,000000	0,000000	0,000000	2020-10-13T22:47:58:136
78,000000	0,000000	0,000000	0,000000	2020-10-13T22:47:58:172
78,000000	0,000000	0,000000	0,000000	2020-10-13T22:47:58:212
78,000000	0,000000	0,000000	0,000000	2020-10-13T22:47:58:261
78,000000	0,000000	0,000000	0,000000	2020-10-13T22:47:58:291
78,000000	0,000000	0,000000	0,000000	2020-10-13T22:47:58:330
78,000000	0,000000	0,000000	0,000000	2020-10-13T22:47:58:371
78,000000	0,000000	0,000000	0,000000	2020-10-13T22:47:58:412
78,000000	0,000000	0,000000	0,000000	2020-10-13T22:47:58:452
78,000000	0,000000	0,000000	0,000000	2020-10-13T22:47:58:491
78,000000	0,000000	0,000000	0,000000	2020-10-13T22:47:58:532
78,000000	0,000000	0,000000	0,000000	2020-10-13T22:47:58:572
78,000000	0,000000	0,000000	0,000000	2020-10-13T22:47:58:613
78,000000	0,000000	0,000000	0,000000	2020-10-13T22:47:58:651
78,000000	0,000000	0,000000	0,000000	2020-10-13T22:47:58:692
78,000000	0,000000	0,000000	0,000000	2020-10-13T22:47:58:731
78,000000	0,000000	0,000000	0,000000	2020-10-13T22:47:58:772
78,000000	0,000000	0,000000	0,000000	2020-10-13T22:47:58:812
78,000000	0,000000	0,000000	0,000000	2020-10-13T22:47:58:851
78,000000	0,000000	0,000000	0,000000	2020-10-13T22:47:58:895
78,000000	0,000000	0,000000	0,000000	2020-10-13T22:47:58:935
78,000000	0,000000	0,000000	0,000000	2020-10-13T22:47:58:973
78,000000	0,000000	0,000000	0,000000	2020-10-13T22:47:59:011
78,000000	0,000000	0,000000	0,000000	2020-10-13T22:47:59:053
78,000000	0,000000	0,000000	0,000000	2020-10-13T22:47:59:097
78,000000	0,000000	0,000000	0,000000	2020-10-13T22:47:59:132
78,000000	0,000000	0,000000	0,000000	2020-10-13T22:47:59:173
78,000000	0,000000	0,000000	0,000000	2020-10-13T22:47:59:213
78,000000	0,000000	0,000000	0,000000	2020-10-13T22:47:59:257
78,000000	0,000000	0,000000	0,000000	2020-10-13T22:47:59:296
78,000000	0,000000	0,000000	0,000000	2020-10-13T22:47:59:333
78,000000	0,000000	0,000000	0,000000	2020-10-13T22:47:59:375
78,000000	0,000000	0,000000	0,000000	2020-10-13T22:47:59:414
78,000000	0,000000	0,000000	0,000000	2020-10-13T22:47:59:452
78,000000	0,000000	0,000000	0,000000	2020-10-13T22:47:59:492
78,000000	0,000000	0,000000	0,000000	2020-10-13T22:47:59:533
78,000000	0,000000	0,000000	0,000000	2020-10-13T22:47:59:573
78,000000	0,000000	0,000000	0,000000	2020-10-13T22:47:59:613
78,000000	0,000000	731,000000	0,000000	2020-10-13T22:47:59:653
78,000000	0,000000	731,000000	0,000000	2020-10-13T22:47:59:692
78,000000	0,000000	731,000000	0,000000	2020-10-13T22:47:59:733
78,000000	0,000000	731,000000	0,000000	2020-10-13T22:47:59:773
78,000000	0,000000	731,000000	0,000000	2020-10-13T22:47:59:816
78,000000	0,000000	731,000000	0,000000	2020-10-13T22:47:59:853
78,000000	0,000000	731,000000	0,000000	2020-10-13T22:47:59:901
78,000000	0,000000	731,000000	0,000000	2020-10-13T22:47:59:934
78,000000	0,000000	731,000000	0,000000	2020-10-13T22:47:59:976
78,000000	0,000000	731,000000	0,000000	2020-10-13T22:48:00:013
78,000000	0,000000	731,000000	0,000000	2020-10-13T22:48:00:053
78,000000	0,000000	731,000000	0,000000	2020-10-13T22:48:00:096
78,000000	0,000000	731,000000	0,000000	2020-10-13T22:48:00:134
78,000000	0,000000	731,000000	0,000000	2020-10-13T22:48:00:173
78,000000	0,000000	731,000000	0,000000	2020-10-13T22:48:00:213
78,000000	0,000000	731,000000	0,000000	2020-10-13T22:48:00:253
78,000000	0,000000	731,000000	0,000000	2020-10-13T22:48:00:293
78,000000	0,000000	731,000000	0,000000	2020-10-13T22:48:00:333
78,000000	0,000000	745,000000	0,000000	2020-10-13T22:48:00:373
78,000000	0,000000	745,000000	0,000000	2020-10-13T22:48:00:413
78,000000	0,000000	745,000000	0,000000	2020-10-13T22:48:00:453
78,000000	0,000000	745,000000	0,000000	2020-10-13T22:48:00:503
78,000000	0,000000	745,000000	0,000000	2020-10-13T22:48:00:535
78,000000	0,000000	745,000000	0,000000	2020-10-13T22:48:00:598
78,000000	0,000000	745,000000	0,000000	2020-10-13T22:48:00:615
78,000000	0,000000	745,000000	0,000000	2020-10-13T22:48:00:653
78,000000	0,000000	745,000000	0,000000	2020-10-13T22:48:00:693
78,000000	0,000000	745,000000	0,000000	2020-10-13T22:48:00:734
78,000000	0,000000	745,000000	0,000000	2020-10-13T22:48:00:774
78,000000	0,000000	745,000000	0,000000	2020-10-13T22:48:00:814
78,000000	0,000000	745,000000	0,000000	2020-10-13T22:48:00:854
78,000000	0,000000	745,000000	0,000000	2020-10-13T22:48:00:894
78,000000	0,000000	745,000000	0,000000	2020-10-13T22:48:00:934
78,000000	0,000000	745,000000	0,000000	2020-10-13T22:48:00:974
78,000000	0,000000	745,000000	0,000000	2020-10-13T22:48:01:014
78,000000	0,000000	745,000000	0,000000	2020-10-13T22:48:01:054
78,000000	0,000000	745,000000	0,000000	2020-10-13T22:48:01:099
78,000000	0,000000	745,000000	0,000000	2020-10-13T22:48:01:135
78,000000	0,000000	745,000000	0,000000	2020-10-13T22:48:01:174
78,000000	0,000000	745,000000	0,000000	2020-10-13T22:48:01:215
78,000000	0,000000	745,000000	0,000000	2020-10-13T22:48:01:255
78,000000	0,000000	745,000000	0,000000	2020-10-13T22:48:01:295
78,000000	0,000000	796,000000	0,000000	2020-10-13T22:48:01:336
78,000000	0,000000	796,000000	0,000000	2020-10-13T22:48:01:373
78,000000	0,000000	796,000000	0,000000	2020-10-13T22:48:01:423
78,000000	0,000000	796,000000	0,000000	2020-10-13T22:48:01:456
78,000000	0,000000	796,000000	0,000000	2020-10-13T22:48:01:496
78,000000	0,000000	796,000000	0,000000	2020-10-13T22:48:01:534
78,000000	0,000000	796,000000	0,000000	2020-10-13T22:48:01:575
78,000000	0,000000	796,000000	0,000000	2020-10-13T22:48:01:615
78,000000	0,000000	796,000000	0,000000	2020-10-13T22:48:01:654
78,000000	0,000000	796,000000	0,000000	2020-10-13T22:48:01:696
78,000000	0,000000	796,000000	0,000000	2020-10-13T22:48:01:925
78,000000	0,000000	796,000000	0,000000	2020-10-13T22:48:01:926
78,000000	0,000000	796,000000	0,000000	2020-10-13T22:48:01:927
78,000000	0,000000	796,000000	0,000000	2020-10-13T22:48:01:927
78,000000	0,000000	796,000000	0,000000	2020-10-13T22:48:01:930
78,000000	0,000000	796,000000	0,000000	2020-10-13T22:48:01:935
78,000000	0,000000	796,000000	0,000000	2020-10-13T22:48:01:974
78,000000	0,000000	796,000000	0,000000	2020-10-13T22:48:02:014
78,000000	0,000000	860,000000	0,000000	2020-10-13T22:48:02:056
78,000000	0,000000	860,000000	0,000000	2020-10-13T22:48:02:094
78,000000	0,000000	860,000000	0,000000	2020-10-13T22:48:02:167
78,000000	0,000000	860,000000	0,000000	2020-10-13T22:48:02:184
78,000000	0,000000	860,000000	0,000000	2020-10-13T22:48:02:255
78,000000	0,000000	860,000000	0,000000	2020-10-13T22:48:02:256
78,000000	0,000000	860,000000	0,000000	2020-10-13T22:48:02:294
78,000000	0,000000	860,000000	0,000000	2020-10-13T22:48:02:333
78,000000	0,000000	860,000000	0,000000	2020-10-13T22:48:02:375
78,000000	0,000000	860,000000	0,000000	2020-10-13T22:48:02:436
78,000000	0,000000	860,000000	0,000000	2020-10-13T22:48:02:527
78,000000	0,000000	860,000000	0,000000	2020-10-13T22:48:02:530
78,000000	0,000000	860,000000	0,000000	2020-10-13T22:48:02:536
78,000000	0,000000	860,000000	0,000000	2020-10-13T22:48:02:574
78,000000	0,000000	860,000000	0,000000	2020-10-13T22:48:02:614
78,000000	0,000000	860,000000	0,000000	2020-10-13T22:48:02:655
78,000000	0,000000	860,000000	0,000000	2020-10-13T22:48:02:695
78,000000	0,000000	860,000000	0,000000	2020-10-13T22:48:02:735
78,000000	0,000000	775,000000	0,000000	2020-10-13T22:48:02:776
78,000000	0,000000	775,000000	0,000000	2020-10-13T22:48:02:816
78,000000	0,000000	775,000000	0,000000	2020-10-13T22:48:02:855
78,000000	0,000000	775,000000	0,000000	2020-10-13T22:48:02:896
78,000000	0,000000	775,000000	0,000000	2020-10-13T22:48:02:935
78,000000	0,000000	775,000000	0,000000	2020-10-13T22:48:02:977
78,000000	0,000000	775,000000	0,000000	2020-10-13T22:48:03:016
78,000000	0,000000	775,000000	0,000000	2020-10-13T22:48:03:055
78,000000	0,000000	775,000000	0,000000	2020-10-13T22:48:03:100
78,000000	0,000000	775,000000	0,000000	2020-10-13T22:48:03:138
78,000000	0,000000	775,000000	0,000000	2020-10-13T22:48:03:175
78,000000	0,000000	775,000000	0,000000	2020-10-13T22:48:03:217
78,000000	0,000000	775,000000	0,000000	2020-10-13T22:48:03:255
78,000000	0,000000	775,000000	0,000000	2020-10-13T22:48:03:297
78,000000	0,000000	775,000000	0,000000	2020-10-13T22:48:03:337
78,000000	0,000000	775,000000	0,000000	2020-10-13T22:48:03:377
78,000000	0,000000	775,000000	0,000000	2020-10-13T22:48:03:417
78,000000	0,000000	775,000000	0,000000	2020-10-13T22:48:03:456
78,000000	0,000000	732,000000	0,000000	2020-10-13T22:48:03:496
78,000000	0,000000	732,000000	0,000000	2020-10-13T22:48:03:537
78,000000	0,000000	732,000000	0,000000	2020-10-13T22:48:03:577
78,000000	0,000000	732,000000	0,000000	2020-10-13T22:48:03:617
78,000000	0,000000	732,000000	0,000000	2020-10-13T22:48:03:656
78,000000	0,000000	732,000000	0,000000	2020-10-13T22:48:03:698
78,000000	0,000000	732,000000	0,000000	2020-10-13T22:48:03:738
78,000000	0,000000	732,000000	0,000000	2020-10-13T22:48:03:777
78,000000	0,000000	732,000000	0,000000	2020-10-13T22:48:03:817
78,000000	0,000000	732,000000	0,000000	2020-10-13T22:48:03:859
78,000000	0,000000	732,000000	0,000000	2020-10-13T22:48:03:897
78,000000	0,000000	732,000000	0,000000	2020-10-13T22:48:03:937
78,000000	0,000000	732,000000	0,000000	2020-10-13T22:48:03:977
78,000000	0,000000	732,000000	0,000000	2020-10-13T22:48:04:015
78,000000	0,000000	732,000000	0,000000	2020-10-13T22:48:04:058
78,000000	0,000000	732,000000	0,000000	2020-10-13T22:48:04:099
78,000000	0,000000	732,000000	0,000000	2020-10-13T22:48:04:137
78,000000	0,000000	732,000000	0,000000	2020-10-13T22:48:04:177
78,000000	0,000000	766,000000	0,000000	2020-10-13T22:48:04:217
78,000000	0,000000	766,000000	0,000000	2020-10-13T22:48:04:264
78,000000	0,000000	766,000000	0,000000	2020-10-13T22:48:04:298
78,000000	0,000000	766,000000	0,000000	2020-10-13T22:48:04:337
78,000000	0,000000	766,000000	0,000000	2020-10-13T22:48:04:377
78,000000	0,000000	766,000000	0,000000	2020-10-13T22:48:04:416
78,000000	0,000000	766,000000	0,000000	2020-10-13T22:48:04:457
78,000000	0,000000	766,000000	0,000000	2020-10-13T22:48:04:497
78,000000	0,000000	766,000000	0,000000	2020-10-13T22:48:04:537
78,000000	0,000000	766,000000	0,000000	2020-10-13T22:48:04:583
78,000000	0,000000	766,000000	0,000000	2020-10-13T22:48:04:618
78,000000	0,000000	766,000000	0,000000	2020-10-13T22:48:04:656
78,000000	0,000000	766,000000	0,000000	2020-10-13T22:48:04:698
78,000000	0,000000	766,000000	0,000000	2020-10-13T22:48:04:737
78,000000	0,000000	766,000000	0,000000	2020-10-13T22:48:04:778
78,000000	0,000000	766,000000	0,000000	2020-10-13T22:48:04:817
78,000000	0,000000	766,000000	0,000000	2020-10-13T22:48:04:857
78,000000	0,000000	766,000000	0,000000	2020-10-13T22:48:04:897
78,000000	0,000000	766,000000	0,000000	2020-10-13T22:48:04:938
78,000000	0,000000	766,000000	0,000000	2020-10-13T22:48:04:977
78,000000	0,000000	766,000000	0,000000	2020-10-13T22:48:05:018
78,000000	0,000000	766,000000	0,000000	2020-10-13T22:48:05:059
78,000000	0,000000	766,000000	0,000000	2020-10-13T22:48:05:100
78,000000	0,000000	766,000000	0,000000	2020-10-13T22:48:05:141
78,000000	0,000000	749,000000	0,000000	2020-10-13T22:48:05:180
78,000000	0,000000	749,000000	0,000000	2020-10-13T22:48:05:217
78,000000	0,000000	749,000000	0,000000	2020-10-13T22:48:05:258
78,000000	0,000000	749,000000	0,000000	2020-10-13T22:48:05:298
78,000000	0,000000	749,000000	0,000000	2020-10-13T22:48:05:338
78,000000	0,000000	749,000000	0,000000	2020-10-13T22:48:05:378
78,000000	0,000000	749,000000	0,000000	2020-10-13T22:48:05:419
78,000000	0,000000	749,000000	0,000000	2020-10-13T22:48:05:458
78,000000	0,000000	749,000000	0,000000	2020-10-13T22:48:05:498
78,000000	0,000000	749,000000	0,000000	2020-10-13T22:48:05:539
78,000000	0,000000	749,000000	0,000000	2020-10-13T22:48:05:580
78,000000	0,000000	749,000000	0,000000	2020-10-13T22:48:05:619
78,000000	0,000000	749,000000	0,000000	2020-10-13T22:48:05:659
78,000000	0,000000	749,000000	0,000000	2020-10-13T22:48:05:698
78,000000	0,000000	749,000000	0,000000	2020-10-13T22:48:05:739
78,000000	0,000000	749,000000	0,000000	2020-10-13T22:48:05:778
78,000000	0,000000	749,000000	0,000000	2020-10-13T22:48:05:820
78,000000	0,000000	749,000000	0,000000	2020-10-13T22:48:05:859
78,000000	0,000000	799,000000	0,000000	2020-10-13T22:48:05:899
78,000000	0,000000	799,000000	0,000000	2020-10-13T22:48:05:939
78,000000	0,000000	799,000000	0,000000	2020-10-13T22:48:05:979
78,000000	0,000000	799,000000	0,000000	2020-10-13T22:48:06:019
78,000000	0,000000	799,000000	0,000000	2020-10-13T22:48:06:059
78,000000	0,000000	799,000000	0,000000	2020-10-13T22:48:06:106
78,000000	0,000000	799,000000	0,000000	2020-10-13T22:48:06:139
78,000000	0,000000	799,000000	0,000000	2020-10-13T22:48:06:179
78,000000	0,000000	799,000000	0,000000	2020-10-13T22:48:06:219
78,000000	0,000000	799,000000	0,000000	2020-10-13T22:48:06:258
78,000000	0,000000	799,000000	0,000000	2020-10-13T22:48:06:299
78,000000	0,000000	799,000000	0,000000	2020-10-13T22:48:06:340
78,000000	0,000000	799,000000	0,000000	2020-10-13T22:48:06:381
78,000000	0,000000	799,000000	0,000000	2020-10-13T22:48:06:430
78,000000	0,000000	799,000000	0,000000	2020-10-13T22:48:06:464
79,000000	0,000000	799,000000	0,000000	2020-10-13T22:48:06:501
79,000000	0,000000	799,000000	0,000000	2020-10-13T22:48:06:540
79,000000	0,000000	799,000000	0,000000	2020-10-13T22:48:06:579
79,000000	0,000000	768,000000	0,000000	2020-10-13T22:48:06:619
78,000000	0,000000	768,000000	0,000000	2020-10-13T22:48:06:658
79,000000	0,000000	768,000000	0,000000	2020-10-13T22:48:06:699
79,000000	0,000000	768,000000	0,000000	2020-10-13T22:48:06:740
79,000000	0,000000	768,000000	0,000000	2020-10-13T22:48:06:780
78,000000	0,000000	768,000000	0,000000	2020-10-13T22:48:06:820
79,000000	0,000000	768,000000	0,000000	2020-10-13T22:48:06:859
79,000000	0,000000	768,000000	0,000000	2020-10-13T22:48:06:899
79,000000	0,000000	768,000000	0,000000	2020-10-13T22:48:06:941
79,000000	0,000000	768,000000	0,000000	2020-10-13T22:48:06:981
79,000000	0,000000	768,000000	0,000000	2020-10-13T22:48:07:021
79,000000	0,000000	768,000000	0,000000	2020-10-13T22:48:07:061
79,000000	0,000000	768,000000	0,000000	2020-10-13T22:48:07:103
79,000000	0,000000	768,000000	0,000000	2020-10-13T22:48:07:140
79,000000	0,000000	768,000000	0,000000	2020-10-13T22:48:07:205
79,000000	0,000000	768,000000	0,000000	2020-10-13T22:48:07:221
79,000000	0,000000	768,000000	0,000000	2020-10-13T22:48:07:260
79,000000	0,000000	768,000000	0,000000	2020-10-13T22:48:07:299
79,000000	0,000000	768,000000	0,000000	2020-10-13T22:48:07:341
79,000000	0,000000	768,000000	0,000000	2020-10-13T22:48:07:380
79,000000	0,000000	768,000000	0,000000	2020-10-13T22:48:07:421
79,000000	0,000000	768,000000	0,000000	2020-10-13T22:48:07:460
79,000000	0,000000	768,000000	0,000000	2020-10-13T22:48:07:500
79,000000	0,000000	768,000000	0,000000	2020-10-13T22:48:07:541
79,000000	0,000000	809,000000	0,000000	2020-10-13T22:48:07:582
78,000000	0,000000	809,000000	0,000000	2020-10-13T22:48:07:620
79,000000	0,000000	809,000000	0,000000	2020-10-13T22:48:07:660
79,000000	0,000000	809,000000	0,000000	2020-10-13T22:48:07:700
79,000000	0,000000	809,000000	0,000000	2020-10-13T22:48:07:740
79,000000	0,000000	809,000000	0,000000	2020-10-13T22:48:07:783
79,000000	0,000000	809,000000	0,000000	2020-10-13T22:48:07:822
79,000000	0,000000	809,000000	0,000000	2020-10-13T22:48:07:862
79,000000	0,000000	809,000000	0,000000	2020-10-13T22:48:07:903
79,000000	0,000000	809,000000	0,000000	2020-10-13T22:48:07:943
79,000000	0,000000	809,000000	0,000000	2020-10-13T22:48:07:982
79,000000	0,000000	809,000000	0,000000	2020-10-13T22:48:08:031
78,000000	0,000000	809,000000	0,000000	2020-10-13T22:48:08:062
78,000000	0,000000	809,000000	0,000000	2020-10-13T22:48:08:123
78,000000	0,000000	809,000000	0,000000	2020-10-13T22:48:08:141
78,000000	0,000000	809,000000	0,000000	2020-10-13T22:48:08:181
78,000000	0,000000	809,000000	0,000000	2020-10-13T22:48:08:221
78,000000	0,000000	809,000000	0,000000	2020-10-13T22:48:08:261
78,000000	0,000000	850,000000	0,000000	2020-10-13T22:48:08:301
78,000000	0,000000	850,000000	0,000000	2020-10-13T22:48:08:341
78,000000	0,000000	850,000000	0,000000	2020-10-13T22:48:08:381
78,000000	0,000000	850,000000	0,000000	2020-10-13T22:48:08:421
78,000000	0,000000	850,000000	0,000000	2020-10-13T22:48:08:461
78,000000	0,000000	850,000000	0,000000	2020-10-13T22:48:08:501
78,000000	0,000000	850,000000	0,000000	2020-10-13T22:48:08:544
78,000000	0,000000	850,000000	0,000000	2020-10-13T22:48:08:587
78,000000	0,000000	850,000000	0,000000	2020-10-13T22:48:08:623
78,000000	0,000000	850,000000	0,000000	2020-10-13T22:48:08:663
78,000000	0,000000	850,000000	0,000000	2020-10-13T22:48:08:701
78,000000	0,000000	850,000000	0,000000	2020-10-13T22:48:08:741
78,000000	0,000000	850,000000	0,000000	2020-10-13T22:48:08:781
78,000000	0,000000	850,000000	0,000000	2020-10-13T22:48:08:823
78,000000	0,000000	850,000000	0,000000	2020-10-13T22:48:08:863
78,000000	0,000000	850,000000	0,000000	2020-10-13T22:48:08:901
78,000000	0,000000	850,000000	0,000000	2020-10-13T22:48:08:941
78,000000	0,000000	850,000000	0,000000	2020-10-13T22:48:08:981
78,000000	0,000000	850,000000	0,000000	2020-10-13T22:48:09:022
78,000000	0,000000	850,000000	0,000000	2020-10-13T22:48:09:061
78,000000	0,000000	850,000000	0,000000	2020-10-13T22:48:09:102
78,000000	0,000000	850,000000	0,000000	2020-10-13T22:48:09:141
78,000000	0,000000	850,000000	0,000000	2020-10-13T22:48:09:182
78,000000	0,000000	850,000000	0,000000	2020-10-13T22:48:09:222
78,000000	0,000000	873,000000	0,000000	2020-10-13T22:48:09:262
78,000000	0,000000	873,000000	0,000000	2020-10-13T22:48:09:302
78,000000	0,000000	873,000000	0,000000	2020-10-13T22:48:09:341
78,000000	0,000000	873,000000	0,000000	2020-10-13T22:48:09:382
78,000000	0,000000	873,000000	0,000000	2020-10-13T22:48:09:421
78,000000	0,000000	873,000000	0,000000	2020-10-13T22:48:09:461
78,000000	0,000000	873,000000	0,000000	2020-10-13T22:48:09:503
78,000000	0,000000	873,000000	0,000000	2020-10-13T22:48:09:544
78,000000	0,000000	873,000000	0,000000	2020-10-13T22:48:09:586
78,000000	0,000000	873,000000	0,000000	2020-10-13T22:48:09:623
78,000000	0,000000	873,000000	0,000000	2020-10-13T22:48:09:662
78,000000	0,000000	873,000000	0,000000	2020-10-13T22:48:09:703
77,000000	0,000000	873,000000	0,000000	2020-10-13T22:48:09:746
77,000000	0,000000	873,000000	0,000000	2020-10-13T22:48:09:782
77,000000	0,000000	873,000000	0,000000	2020-10-13T22:48:09:823
77,000000	0,000000	873,000000	0,000000	2020-10-13T22:48:09:863
77,000000	0,000000	873,000000	0,000000	2020-10-13T22:48:09:903
77,000000	0,000000	873,000000	0,000000	2020-10-13T22:48:09:942
77,000000	0,000000	874,000000	0,000000	2020-10-13T22:48:09:983
77,000000	0,000000	874,000000	0,000000	2020-10-13T22:48:10:023
77,000000	0,000000	874,000000	0,000000	2020-10-13T22:48:10:063
77,000000	0,000000	874,000000	0,000000	2020-10-13T22:48:10:107
77,000000	0,000000	874,000000	0,000000	2020-10-13T22:48:10:143
77,000000	0,000000	874,000000	0,000000	2020-10-13T22:48:10:183
77,000000	0,000000	874,000000	0,000000	2020-10-13T22:48:10:227
77,000000	0,000000	874,000000	0,000000	2020-10-13T22:48:10:261
77,000000	0,000000	874,000000	0,000000	2020-10-13T22:48:10:302
77,000000	0,000000	874,000000	0,000000	2020-10-13T22:48:10:344
77,000000	0,000000	874,000000	0,000000	2020-10-13T22:48:10:383
77,000000	0,000000	874,000000	0,000000	2020-10-13T22:48:10:423
77,000000	0,000000	874,000000	0,000000	2020-10-13T22:48:10:464
77,000000	0,000000	874,000000	0,000000	2020-10-13T22:48:10:503
77,000000	0,000000	874,000000	0,000000	2020-10-13T22:48:10:543
77,000000	0,000000	874,000000	0,000000	2020-10-13T22:48:10:583
77,000000	0,000000	874,000000	0,000000	2020-10-13T22:48:10:623
77,000000	0,000000	874,000000	0,000000	2020-10-13T22:48:10:663
77,000000	0,000000	874,000000	0,000000	2020-10-13T22:48:10:703
77,000000	0,000000	874,000000	0,000000	2020-10-13T22:48:10:743
77,000000	0,000000	874,000000	0,000000	2020-10-13T22:48:10:786
77,000000	0,000000	874,000000	0,000000	2020-10-13T22:48:10:824
77,000000	0,000000	874,000000	0,000000	2020-10-13T22:48:10:866
77,000000	0,000000	874,000000	0,000000	2020-10-13T22:48:10:904
77,000000	0,000000	788,000000	0,000000	2020-10-13T22:48:10:945
77,000000	0,000000	788,000000	0,000000	2020-10-13T22:48:10:989
77,000000	0,000000	788,000000	0,000000	2020-10-13T22:48:11:023
77,000000	0,000000	788,000000	0,000000	2020-10-13T22:48:11:065
77,000000	0,000000	788,000000	0,000000	2020-10-13T22:48:11:103
77,000000	0,000000	788,000000	0,000000	2020-10-13T22:48:11:144
77,000000	0,000000	788,000000	0,000000	2020-10-13T22:48:11:185
77,000000	0,000000	788,000000	0,000000	2020-10-13T22:48:11:225
77,000000	0,000000	788,000000	0,000000	2020-10-13T22:48:11:264
77,000000	0,000000	788,000000	0,000000	2020-10-13T22:48:11:305
77,000000	0,000000	788,000000	0,000000	2020-10-13T22:48:11:344
77,000000	0,000000	788,000000	0,000000	2020-10-13T22:48:11:386
76,000000	0,000000	788,000000	0,000000	2020-10-13T22:48:11:424
76,000000	0,000000	788,000000	0,000000	2020-10-13T22:48:11:466
77,000000	0,000000	788,000000	0,000000	2020-10-13T22:48:11:504
77,000000	0,000000	788,000000	0,000000	2020-10-13T22:48:11:546
77,000000	0,000000	788,000000	0,000000	2020-10-13T22:48:11:588
77,000000	0,000000	788,000000	0,000000	2020-10-13T22:48:11:627
76,000000	0,000000	815,000000	0,000000	2020-10-13T22:48:11:666
77,000000	0,000000	815,000000	0,000000	2020-10-13T22:48:11:707
77,000000	0,000000	815,000000	0,000000	2020-10-13T22:48:11:743
76,000000	0,000000	815,000000	0,000000	2020-10-13T22:48:11:786
76,000000	0,000000	815,000000	0,000000	2020-10-13T22:48:11:826
76,000000	0,000000	815,000000	0,000000	2020-10-13T22:48:11:866
76,000000	0,000000	815,000000	0,000000	2020-10-13T22:48:11:907
76,000000	0,000000	815,000000	0,000000	2020-10-13T22:48:11:944
76,000000	0,000000	815,000000	0,000000	2020-10-13T22:48:11:985
76,000000	0,000000	815,000000	0,000000	2020-10-13T22:48:12:025
76,000000	0,000000	815,000000	0,000000	2020-10-13T22:48:12:064
76,000000	0,000000	815,000000	0,000000	2020-10-13T22:48:12:107
76,000000	0,000000	815,000000	0,000000	2020-10-13T22:48:12:144
76,000000	0,000000	815,000000	0,000000	2020-10-13T22:48:12:186
76,000000	0,000000	815,000000	0,000000	2020-10-13T22:48:12:224
76,000000	0,000000	815,000000	0,000000	2020-10-13T22:48:12:266
76,000000	0,000000	815,000000	0,000000	2020-10-13T22:48:12:304
76,000000	0,000000	815,000000	0,000000	2020-10-13T22:48:12:345
76,000000	0,000000	836,000000	0,000000	2020-10-13T22:48:12:386
76,000000	0,000000	836,000000	0,000000	2020-10-13T22:48:12:426
76,000000	0,000000	836,000000	0,000000	2020-10-13T22:48:12:466
76,000000	0,000000	836,000000	0,000000	2020-10-13T22:48:12:538
76,000000	0,000000	836,000000	0,000000	2020-10-13T22:48:12:548
76,000000	0,000000	836,000000	0,000000	2020-10-13T22:48:12:588
76,000000	0,000000	836,000000	0,000000	2020-10-13T22:48:12:624
76,000000	0,000000	836,000000	0,000000	2020-10-13T22:48:12:667
76,000000	0,000000	836,000000	0,000000	2020-10-13T22:48:12:708
76,000000	0,000000	836,000000	0,000000	2020-10-13T22:48:12:747
76,000000	0,000000	836,000000	0,000000	2020-10-13T22:48:12:785
76,000000	0,000000	836,000000	0,000000	2020-10-13T22:48:12:826
76,000000	0,000000	836,000000	0,000000	2020-10-13T22:48:12:866
76,000000	0,000000	836,000000	0,000000	2020-10-13T22:48:12:906
76,000000	0,000000	836,000000	0,000000	2020-10-13T22:48:12:945
76,000000	0,000000	836,000000	0,000000	2020-10-13T22:48:12:987
76,000000	0,000000	836,000000	0,000000	2020-10-13T22:48:13:025
76,000000	0,000000	836,000000	0,000000	2020-10-13T22:48:13:066
76,000000	0,000000	836,000000	0,000000	2020-10-13T22:48:13:106
76,000000	0,000000	836,000000	0,000000	2020-10-13T22:48:13:147
76,000000	0,000000	836,000000	0,000000	2020-10-13T22:48:13:187
76,000000	0,000000	836,000000	0,000000	2020-10-13T22:48:13:236
76,000000	0,000000	836,000000	0,000000	2020-10-13T22:48:13:265
76,000000	0,000000	836,000000	0,000000	2020-10-13T22:48:13:310
76,000000	0,000000	772,000000	0,000000	2020-10-13T22:48:13:345
76,000000	0,000000	772,000000	0,000000	2020-10-13T22:48:13:386
76,000000	0,000000	772,000000	0,000000	2020-10-13T22:48:13:425
76,000000	0,000000	772,000000	0,000000	2020-10-13T22:48:13:466
76,000000	0,000000	772,000000	0,000000	2020-10-13T22:48:13:506
76,000000	0,000000	772,000000	0,000000	2020-10-13T22:48:13:548
76,000000	0,000000	772,000000	0,000000	2020-10-13T22:48:13:587
76,000000	0,000000	772,000000	0,000000	2020-10-13T22:48:13:627
76,000000	0,000000	772,000000	0,000000	2020-10-13T22:48:13:666
76,000000	0,000000	772,000000	0,000000	2020-10-13T22:48:13:708
76,000000	0,000000	772,000000	0,000000	2020-10-13T22:48:13:746
76,000000	0,000000	772,000000	0,000000	2020-10-13T22:48:13:788
76,000000	0,000000	772,000000	0,000000	2020-10-13T22:48:13:828
76,000000	0,000000	772,000000	0,000000	2020-10-13T22:48:13:867
76,000000	0,000000	772,000000	0,000000	2020-10-13T22:48:13:906
76,000000	0,000000	772,000000	0,000000	2020-10-13T22:48:13:948
76,000000	0,000000	772,000000	0,000000	2020-10-13T22:48:13:991
76,000000	0,000000	772,000000	0,000000	2020-10-13T22:48:14:029
76,000000	0,000000	749,000000	0,000000	2020-10-13T22:48:14:067
76,000000	0,000000	749,000000	0,000000	2020-10-13T22:48:14:109
76,000000	0,000000	749,000000	0,000000	2020-10-13T22:48:14:148
76,000000	0,000000	749,000000	0,000000	2020-10-13T22:48:14:188
76,000000	0,000000	749,000000	0,000000	2020-10-13T22:48:14:226
76,000000	0,000000	749,000000	0,000000	2020-10-13T22:48:14:268
76,000000	0,000000	749,000000	0,000000	2020-10-13T22:48:14:307
76,000000	0,000000	749,000000	0,000000	2020-10-13T22:48:14:348
76,000000	0,000000	749,000000	0,000000	2020-10-13T22:48:14:387
76,000000	0,000000	749,000000	0,000000	2020-10-13T22:48:14:428
76,000000	0,000000	749,000000	0,000000	2020-10-13T22:48:14:467
76,000000	0,000000	749,000000	0,000000	2020-10-13T22:48:14:515
76,000000	0,000000	749,000000	0,000000	2020-10-13T22:48:14:549
76,000000	0,000000	749,000000	0,000000	2020-10-13T22:48:14:594
76,000000	0,000000	749,000000	0,000000	2020-10-13T22:48:14:629
76,000000	0,000000	749,000000	0,000000	2020-10-13T22:48:14:671
76,000000	0,000000	749,000000	0,000000	2020-10-13T22:48:14:707
76,000000	0,000000	749,000000	0,000000	2020-10-13T22:48:14:749
76,000000	0,000000	749,000000	0,000000	2020-10-13T22:48:14:788
76,000000	0,000000	749,000000	0,000000	2020-10-13T22:48:14:828
76,000000	0,000000	749,000000	0,000000	2020-10-13T22:48:14:867
76,000000	0,000000	749,000000	0,000000	2020-10-13T22:48:14:912
76,000000	0,000000	749,000000	0,000000	2020-10-13T22:48:14:949
76,000000	0,000000	749,000000	0,000000	2020-10-13T22:48:14:989
76,000000	0,000000	782,000000	0,000000	2020-10-13T22:48:15:028
76,000000	0,000000	782,000000	0,000000	2020-10-13T22:48:15:069
76,000000	0,000000	782,000000	0,000000	2020-10-13T22:48:15:109
76,000000	0,000000	782,000000	0,000000	2020-10-13T22:48:15:149
76,000000	0,000000	782,000000	0,000000	2020-10-13T22:48:15:188
76,000000	0,000000	782,000000	0,000000	2020-10-13T22:48:15:229
76,000000	0,000000	782,000000	0,000000	2020-10-13T22:48:15:274
76,000000	0,000000	782,000000	0,000000	2020-10-13T22:48:15:310
76,000000	0,000000	782,000000	0,000000	2020-10-13T22:48:15:359
76,000000	0,000000	782,000000	0,000000	2020-10-13T22:48:15:391
76,000000	0,000000	782,000000	0,000000	2020-10-13T22:48:15:429
76,000000	0,000000	782,000000	0,000000	2020-10-13T22:48:15:470
75,000000	0,000000	782,000000	0,000000	2020-10-13T22:48:15:511
75,000000	0,000000	782,000000	0,000000	2020-10-13T22:48:15:548
76,000000	0,000000	782,000000	0,000000	2020-10-13T22:48:15:588
76,000000	0,000000	782,000000	0,000000	2020-10-13T22:48:15:629
76,000000	0,000000	782,000000	0,000000	2020-10-13T22:48:15:667
75,000000	0,000000	782,000000	0,000000	2020-10-13T22:48:15:709
75,000000	0,000000	782,000000	0,000000	2020-10-13T22:48:15:748
76,000000	0,000000	782,000000	0,000000	2020-10-13T22:48:15:790
76,000000	0,000000	782,000000	0,000000	2020-10-13T22:48:15:828
76,000000	0,000000	782,000000	0,000000	2020-10-13T22:48:15:870
75,000000	0,000000	782,000000	0,000000	2020-10-13T22:48:15:908
75,000000	0,000000	782,000000	0,000000	2020-10-13T22:48:15:949
75,000000	0,000000	782,000000	0,000000	2020-10-13T22:48:15:989
75,000000	0,000000	782,000000	0,000000	2020-10-13T22:48:16:029
75,000000	0,000000	782,000000	0,000000	2020-10-13T22:48:16:069
75,000000	0,000000	782,000000	0,000000	2020-10-13T22:48:16:116
75,000000	0,000000	782,000000	0,000000	2020-10-13T22:48:16:150
75,000000	0,000000	782,000000	0,000000	2020-10-13T22:48:16:193
75,000000	0,000000	782,000000	0,000000	2020-10-13T22:48:16:230
75,000000	0,000000	782,000000	0,000000	2020-10-13T22:48:16:278
75,000000	0,000000	782,000000	0,000000	2020-10-13T22:48:16:309
75,000000	0,000000	782,000000	0,000000	2020-10-13T22:48:16:370
75,000000	0,000000	782,000000	0,000000	2020-10-13T22:48:16:388
75,000000	0,000000	782,000000	0,000000	2020-10-13T22:48:16:431
75,000000	0,000000	782,000000	0,000000	2020-10-13T22:48:16:470
75,000000	0,000000	782,000000	0,000000	2020-10-13T22:48:16:510
75,000000	0,000000	782,000000	0,000000	2020-10-13T22:48:16:549
75,000000	0,000000	782,000000	0,000000	2020-10-13T22:48:16:591
75,000000	0,000000	782,000000	0,000000	2020-10-13T22:48:16:629
75,000000	0,000000	782,000000	0,000000	2020-10-13T22:48:16:670
75,000000	0,000000	895,000000	0,000000	2020-10-13T22:48:16:711
75,000000	0,000000	895,000000	0,000000	2020-10-13T22:48:16:750
75,000000	0,000000	895,000000	0,000000	2020-10-13T22:48:16:790
75,000000	0,000000	895,000000	0,000000	2020-10-13T22:48:16:830
75,000000	0,000000	895,000000	0,000000	2020-10-13T22:48:16:871
75,000000	0,000000	895,000000	0,000000	2020-10-13T22:48:16:916
75,000000	0,000000	895,000000	0,000000	2020-10-13T22:48:16:950
75,000000	0,000000	895,000000	0,000000	2020-10-13T22:48:16:990
75,000000	0,000000	895,000000	0,000000	2020-10-13T22:48:17:030
75,000000	0,000000	895,000000	0,000000	2020-10-13T22:48:17:072
75,000000	0,000000	895,000000	0,000000	2020-10-13T22:48:17:108
75,000000	0,000000	895,000000	0,000000	2020-10-13T22:48:17:151
74,000000	0,000000	895,000000	0,000000	2020-10-13T22:48:17:190
74,000000	0,000000	895,000000	0,000000	2020-10-13T22:48:17:230
74,000000	0,000000	895,000000	0,000000	2020-10-13T22:48:17:269
75,000000	0,000000	895,000000	0,000000	2020-10-13T22:48:17:311
75,000000	0,000000	895,000000	0,000000	2020-10-13T22:48:17:350
74,000000	0,000000	895,000000	0,000000	2020-10-13T22:48:17:391
74,000000	0,000000	760,000000	0,000000	2020-10-13T22:48:17:432
75,000000	0,000000	760,000000	0,000000	2020-10-13T22:48:17:470
75,000000	0,000000	760,000000	0,000000	2020-10-13T22:48:17:510
74,000000	0,000000	760,000000	0,000000	2020-10-13T22:48:17:552
74,000000	0,000000	760,000000	0,000000	2020-10-13T22:48:17:590
74,000000	0,000000	760,000000	0,000000	2020-10-13T22:48:17:631
75,000000	0,000000	760,000000	0,000000	2020-10-13T22:48:17:670
75,000000	0,000000	760,000000	0,000000	2020-10-13T22:48:17:711
75,000000	0,000000	760,000000	0,000000	2020-10-13T22:48:17:750
74,000000	0,000000	760,000000	0,000000	2020-10-13T22:48:17:792
74,000000	0,000000	760,000000	0,000000	2020-10-13T22:48:17:830
74,000000	0,000000	760,000000	0,000000	2020-10-13T22:48:17:871
75,000000	0,000000	760,000000	0,000000	2020-10-13T22:48:17:911
74,000000	0,000000	760,000000	0,000000	2020-10-13T22:48:17:951
74,000000	0,000000	760,000000	0,000000	2020-10-13T22:48:18:000
74,000000	0,000000	760,000000	0,000000	2020-10-13T22:48:18:032
75,000000	0,000000	760,000000	0,000000	2020-10-13T22:48:18:074
75,000000	0,000000	760,000000	0,000000	2020-10-13T22:48:18:121
75,000000	0,000000	781,000000	0,000000	2020-10-13T22:48:18:149
74,000000	0,000000	781,000000	0,000000	2020-10-13T22:48:18:190
74,000000	0,000000	781,000000	0,000000	2020-10-13T22:48:18:232
74,000000	0,000000	781,000000	0,000000	2020-10-13T22:48:18:272
74,000000	0,000000	781,000000	0,000000	2020-10-13T22:48:18:310
74,000000	0,000000	781,000000	0,000000	2020-10-13T22:48:18:352
74,000000	0,000000	781,000000	0,000000	2020-10-13T22:48:18:391
74,000000	0,000000	781,000000	0,000000	2020-10-13T22:48:18:431
74,000000	0,000000	781,000000	0,000000	2020-10-13T22:48:18:471
75,000000	0,000000	781,000000	0,000000	2020-10-13T22:48:18:512
74,000000	0,000000	781,000000	0,000000	2020-10-13T22:48:18:551
74,000000	0,000000	781,000000	0,000000	2020-10-13T22:48:18:591
74,000000	0,000000	781,000000	0,000000	2020-10-13T22:48:18:631
74,000000	0,000000	781,000000	0,000000	2020-10-13T22:48:18:672
74,000000	0,000000	781,000000	0,000000	2020-10-13T22:48:18:711
74,000000	0,000000	781,000000	0,000000	2020-10-13T22:48:18:752
74,000000	0,000000	781,000000	0,000000	2020-10-13T22:48:18:791
74,000000	0,000000	781,000000	0,000000	2020-10-13T22:48:18:834
74,000000	0,000000	781,000000	0,000000	2020-10-13T22:48:18:875
74,000000	0,000000	781,000000	0,000000	2020-10-13T22:48:18:913
74,000000	0,000000	781,000000	0,000000	2020-10-13T22:48:18:954
74,000000	0,000000	781,000000	0,000000	2020-10-13T22:48:18:995
74,000000	0,000000	781,000000	0,000000	2020-10-13T22:48:19:032
74,000000	0,000000	781,000000	0,000000	2020-10-13T22:48:19:114
74,000000	0,000000	831,000000	0,000000	2020-10-13T22:48:19:116
74,000000	0,000000	831,000000	0,000000	2020-10-13T22:48:19:151
74,000000	0,000000	831,000000	0,000000	2020-10-13T22:48:19:192
74,000000	0,000000	831,000000	0,000000	2020-10-13T22:48:19:233
74,000000	0,000000	831,000000	0,000000	2020-10-13T22:48:19:271
74,000000	0,000000	831,000000	0,000000	2020-10-13T22:48:19:313
74,000000	0,000000	831,000000	0,000000	2020-10-13T22:48:19:352
74,000000	0,000000	831,000000	0,000000	2020-10-13T22:48:19:393
74,000000	0,000000	831,000000	0,000000	2020-10-13T22:48:19:432
74,000000	0,000000	831,000000	0,000000	2020-10-13T22:48:19:473
74,000000	0,000000	831,000000	0,000000	2020-10-13T22:48:19:511
74,000000	0,000000	831,000000	0,000000	2020-10-13T22:48:19:553
74,000000	0,000000	831,000000	0,000000	2020-10-13T22:48:19:593
74,000000	0,000000	831,000000	0,000000	2020-10-13T22:48:19:634
74,000000	0,000000	831,000000	0,000000	2020-10-13T22:48:19:675
74,000000	0,000000	831,000000	0,000000	2020-10-13T22:48:19:713
74,000000	0,000000	831,000000	0,000000	2020-10-13T22:48:19:752
74,000000	0,000000	831,000000	0,000000	2020-10-13T22:48:19:792
74,000000	0,000000	849,000000	0,000000	2020-10-13T22:48:19:832
74,000000	0,000000	849,000000	0,000000	2020-10-13T22:48:19:874
74,000000	0,000000	849,000000	0,000000	2020-10-13T22:48:19:916
74,000000	0,000000	849,000000	0,000000	2020-10-13T22:48:19:952
74,000000	0,000000	849,000000	0,000000	2020-10-13T22:48:19:991
74,000000	0,000000	849,000000	0,000000	2020-10-13T22:48:20:032
74,000000	0,000000	849,000000	0,000000	2020-10-13T22:48:20:073
74,000000	0,000000	849,000000	0,000000	2020-10-13T22:48:20:114
74,000000	0,000000	849,000000	0,000000	2020-10-13T22:48:20:153
74,000000	0,000000	849,000000	0,000000	2020-10-13T22:48:20:194
74,000000	0,000000	849,000000	0,000000	2020-10-13T22:48:20:233
74,000000	0,000000	849,000000	0,000000	2020-10-13T22:48:20:275
74,000000	0,000000	849,000000	0,000000	2020-10-13T22:48:20:313
74,000000	0,000000	849,000000	0,000000	2020-10-13T22:48:20:354
74,000000	0,000000	849,000000	0,000000	2020-10-13T22:48:20:394
74,000000	0,000000	849,000000	0,000000	2020-10-13T22:48:20:452
74,000000	0,000000	849,000000	0,000000	2020-10-13T22:48:20:473
74,000000	0,000000	849,000000	0,000000	2020-10-13T22:48:20:512
74,000000	0,000000	760,000000	0,000000	2020-10-13T22:48:20:555
74,000000	0,000000	760,000000	0,000000	2020-10-13T22:48:20:593
74,000000	0,000000	760,000000	0,000000	2020-10-13T22:48:20:637
74,000000	0,000000	760,000000	0,000000	2020-10-13T22:48:20:675
74,000000	0,000000	760,000000	0,000000	2020-10-13T22:48:20:713
74,000000	0,000000	760,000000	0,000000	2020-10-13T22:48:20:754
74,000000	0,000000	760,000000	0,000000	2020-10-13T22:48:20:794
74,000000	0,000000	760,000000	0,000000	2020-10-13T22:48:20:835
74,000000	0,000000	760,000000	0,000000	2020-10-13T22:48:20:873
74,000000	0,000000	760,000000	0,000000	2020-10-13T22:48:20:914
74,000000	0,000000	760,000000	0,000000	2020-10-13T22:48:20:953
74,000000	0,000000	760,000000	0,000000	2020-10-13T22:48:20:995
74,000000	0,000000	760,000000	0,000000	2020-10-13T22:48:21:033
74,000000	0,000000	760,000000	0,000000	2020-10-13T22:48:21:080
74,000000	0,000000	760,000000	0,000000	2020-10-13T22:48:21:113
74,000000	0,000000	760,000000	0,000000	2020-10-13T22:48:21:155
74,000000	0,000000	760,000000	0,000000	2020-10-13T22:48:21:194
74,000000	0,000000	760,000000	0,000000	2020-10-13T22:48:21:235
74,000000	0,000000	733,000000	0,000000	2020-10-13T22:48:21:277
74,000000	0,000000	733,000000	0,000000	2020-10-13T22:48:21:315
74,000000	0,000000	733,000000	0,000000	2020-10-13T22:48:21:355
74,000000	0,000000	733,000000	0,000000	2020-10-13T22:48:21:396
74,000000	0,000000	733,000000	0,000000	2020-10-13T22:48:21:433
74,000000	0,000000	733,000000	0,000000	2020-10-13T22:48:21:477
74,000000	0,000000	733,000000	0,000000	2020-10-13T22:48:21:513
74,000000	0,000000	733,000000	0,000000	2020-10-13T22:48:21:559
74,000000	0,000000	733,000000	0,000000	2020-10-13T22:48:21:594
74,000000	0,000000	733,000000	0,000000	2020-10-13T22:48:21:636
75,000000	0,000000	733,000000	0,000000	2020-10-13T22:48:21:674
75,000000	0,000000	733,000000	0,000000	2020-10-13T22:48:21:715
75,000000	0,000000	733,000000	0,000000	2020-10-13T22:48:21:755
74,000000	0,000000	733,000000	0,000000	2020-10-13T22:48:21:796
74,000000	0,000000	733,000000	0,000000	2020-10-13T22:48:21:834
74,000000	0,000000	733,000000	0,000000	2020-10-13T22:48:21:875
75,000000	0,000000	733,000000	0,000000	2020-10-13T22:48:21:914
74,000000	0,000000	733,000000	0,000000	2020-10-13T22:48:21:957
74,000000	0,000000	733,000000	0,000000	2020-10-13T22:48:21:994
75,000000	0,000000	733,000000	0,000000	2020-10-13T22:48:22:053
75,000000	0,000000	733,000000	0,000000	2020-10-13T22:48:22:191
75,000000	0,000000	733,000000	0,000000	2020-10-13T22:48:22:223
75,000000	0,000000	733,000000	0,000000	2020-10-13T22:48:22:226
75,000000	0,000000	733,000000	0,000000	2020-10-13T22:48:22:347
75,000000	0,000000	787,000000	0,000000	2020-10-13T22:48:22:347
75,000000	0,000000	787,000000	0,000000	2020-10-13T22:48:22:348
75,000000	0,000000	787,000000	0,000000	2020-10-13T22:48:22:349
75,000000	0,000000	787,000000	0,000000	2020-10-13T22:48:22:385
75,000000	0,000000	787,000000	0,000000	2020-10-13T22:48:22:429
75,000000	0,000000	787,000000	0,000000	2020-10-13T22:48:22:438
75,000000	0,000000	787,000000	0,000000	2020-10-13T22:48:22:483
75,000000	0,000000	787,000000	0,000000	2020-10-13T22:48:22:513
75,000000	0,000000	787,000000	0,000000	2020-10-13T22:48:22:555
75,000000	0,000000	787,000000	0,000000	2020-10-13T22:48:22:597
75,000000	0,000000	787,000000	0,000000	2020-10-13T22:48:22:635
75,000000	0,000000	787,000000	0,000000	2020-10-13T22:48:22:679
75,000000	0,000000	787,000000	0,000000	2020-10-13T22:48:22:716
75,000000	0,000000	787,000000	0,000000	2020-10-13T22:48:22:756
75,000000	0,000000	787,000000	0,000000	2020-10-13T22:48:22:795
75,000000	0,000000	787,000000	0,000000	2020-10-13T22:48:22:836
75,000000	0,000000	787,000000	0,000000	2020-10-13T22:48:22:875
75,000000	0,000000	787,000000	0,000000	2020-10-13T22:48:22:920
75,000000	0,000000	809,000000	0,000000	2020-10-13T22:48:22:955
75,000000	0,000000	809,000000	0,000000	2020-10-13T22:48:23:002
75,000000	0,000000	809,000000	0,000000	2020-10-13T22:48:23:036
75,000000	0,000000	809,000000	0,000000	2020-10-13T22:48:23:077
75,000000	0,000000	809,000000	0,000000	2020-10-13T22:48:23:117
75,000000	0,000000	809,000000	0,000000	2020-10-13T22:48:23:166
75,000000	0,000000	809,000000	0,000000	2020-10-13T22:48:23:197
75,000000	0,000000	809,000000	0,000000	2020-10-13T22:48:23:238
75,000000	0,000000	809,000000	0,000000	2020-10-13T22:48:23:275
75,000000	0,000000	809,000000	0,000000	2020-10-13T22:48:23:317
75,000000	0,000000	809,000000	0,000000	2020-10-13T22:48:23:356
75,000000	0,000000	809,000000	0,000000	2020-10-13T22:48:23:397
75,000000	0,000000	809,000000	0,000000	2020-10-13T22:48:23:437
75,000000	0,000000	809,000000	0,000000	2020-10-13T22:48:23:478
75,000000	0,000000	809,000000	0,000000	2020-10-13T22:48:23:524
75,000000	0,000000	809,000000	0,000000	2020-10-13T22:48:23:556
75,000000	0,000000	809,000000	0,000000	2020-10-13T22:48:23:595
75,000000	0,000000	809,000000	0,000000	2020-10-13T22:48:23:636
75,000000	0,000000	809,000000	0,000000	2020-10-13T22:48:23:676
75,000000	0,000000	809,000000	0,000000	2020-10-13T22:48:23:719
75,000000	0,000000	809,000000	0,000000	2020-10-13T22:48:23:756
75,000000	0,000000	809,000000	0,000000	2020-10-13T22:48:23:799
75,000000	0,000000	809,000000	0,000000	2020-10-13T22:48:23:836
75,000000	0,000000	809,000000	0,000000	2020-10-13T22:48:23:876
75,000000	0,000000	851,000000	0,000000	2020-10-13T22:48:23:914
75,000000	0,000000	851,000000	0,000000	2020-10-13T22:48:23:966
75,000000	0,000000	851,000000	0,000000	2020-10-13T22:48:23:995
75,000000	0,000000	851,000000	0,000000	2020-10-13T22:48:24:036
75,000000	0,000000	851,000000	0,000000	2020-10-13T22:48:24:084
75,000000	0,000000	851,000000	0,000000	2020-10-13T22:48:24:118
75,000000	0,000000	851,000000	0,000000	2020-10-13T22:48:24:157
75,000000	0,000000	851,000000	0,000000	2020-10-13T22:48:24:198
75,000000	0,000000	851,000000	0,000000	2020-10-13T22:48:24:237
75,000000	0,000000	851,000000	0,000000	2020-10-13T22:48:24:278
75,000000	0,000000	851,000000	0,000000	2020-10-13T22:48:24:316
75,000000	0,000000	851,000000	0,000000	2020-10-13T22:48:24:357
75,000000	0,000000	851,000000	0,000000	2020-10-13T22:48:24:397
75,000000	0,000000	851,000000	0,000000	2020-10-13T22:48:24:437
75,000000	0,000000	851,000000	0,000000	2020-10-13T22:48:24:477
75,000000	0,000000	851,000000	0,000000	2020-10-13T22:48:24:518
75,000000	0,000000	851,000000	0,000000	2020-10-13T22:48:24:558
75,000000	0,000000	851,000000	0,000000	2020-10-13T22:48:24:599
75,000000	0,000000	807,000000	0,000000	2020-10-13T22:48:24:637
75,000000	0,000000	807,000000	0,000000	2020-10-13T22:48:24:681
75,000000	0,000000	807,000000	0,000000	2020-10-13T22:48:24:717
75,000000	0,000000	807,000000	0,000000	2020-10-13T22:48:24:764
75,000000	0,000000	807,000000	0,000000	2020-10-13T22:48:24:798
75,000000	0,000000	807,000000	0,000000	2020-10-13T22:48:24:838
75,000000	0,000000	807,000000	0,000000	2020-10-13T22:48:24:877
75,000000	0,000000	807,000000	0,000000	2020-10-13T22:48:24:917
75,000000	0,000000	807,000000	0,000000	2020-10-13T22:48:24:957
75,000000	0,000000	807,000000	0,000000	2020-10-13T22:48:24:999
75,000000	0,000000	807,000000	0,000000	2020-10-13T22:48:25:037
75,000000	0,000000	807,000000	0,000000	2020-10-13T22:48:25:089
75,000000	0,000000	807,000000	0,000000	2020-10-13T22:48:25:117
75,000000	0,000000	807,000000	0,000000	2020-10-13T22:48:25:161
75,000000	0,000000	807,000000	0,000000	2020-10-13T22:48:25:202
75,000000	0,000000	807,000000	0,000000	2020-10-13T22:48:25:245
75,000000	0,000000	807,000000	0,000000	2020-10-13T22:48:25:278
75,000000	0,000000	807,000000	0,000000	2020-10-13T22:48:25:319
75,000000	0,000000	807,000000	0,000000	2020-10-13T22:48:25:359
75,000000	0,000000	807,000000	0,000000	2020-10-13T22:48:25:399
75,000000	0,000000	807,000000	0,000000	2020-10-13T22:48:25:440
75,000000	0,000000	807,000000	0,000000	2020-10-13T22:48:25:479
75,000000	0,000000	807,000000	0,000000	2020-10-13T22:48:25:517
75,000000	0,000000	807,000000	0,000000	2020-10-13T22:48:25:559
75,000000	0,000000	809,000000	0,000000	2020-10-13T22:48:25:599
75,000000	0,000000	809,000000	0,000000	2020-10-13T22:48:25:639
75,000000	0,000000	809,000000	0,000000	2020-10-13T22:48:25:678
75,000000	0,000000	809,000000	0,000000	2020-10-13T22:48:25:719
75,000000	0,000000	809,000000	0,000000	2020-10-13T22:48:25:758
75,000000	0,000000	809,000000	0,000000	2020-10-13T22:48:25:800
75,000000	0,000000	809,000000	0,000000	2020-10-13T22:48:25:838
75,000000	0,000000	809,000000	0,000000	2020-10-13T22:48:25:879
75,000000	0,000000	809,000000	0,000000	2020-10-13T22:48:25:918
75,000000	0,000000	809,000000	0,000000	2020-10-13T22:48:25:959
75,000000	0,000000	809,000000	0,000000	2020-10-13T22:48:25:999
75,000000	0,000000	809,000000	0,000000	2020-10-13T22:48:26:039
75,000000	0,000000	809,000000	0,000000	2020-10-13T22:48:26:114
74,000000	0,000000	809,000000	0,000000	2020-10-13T22:48:26:125
75,000000	0,000000	809,000000	0,000000	2020-10-13T22:48:26:158
75,000000	0,000000	809,000000	0,000000	2020-10-13T22:48:26:200
75,000000	0,000000	809,000000	0,000000	2020-10-13T22:48:26:238
75,000000	0,000000	809,000000	0,000000	2020-10-13T22:48:26:280
75,000000	0,000000	894,000000	0,000000	2020-10-13T22:48:26:321
75,000000	0,000000	894,000000	0,000000	2020-10-13T22:48:26:359
75,000000	0,000000	894,000000	0,000000	2020-10-13T22:48:26:399
75,000000	0,000000	894,000000	0,000000	2020-10-13T22:48:26:440
74,000000	0,000000	894,000000	0,000000	2020-10-13T22:48:26:479
74,000000	0,000000	894,000000	0,000000	2020-10-13T22:48:26:520
74,000000	0,000000	894,000000	0,000000	2020-10-13T22:48:26:559
75,000000	0,000000	894,000000	0,000000	2020-10-13T22:48:26:600
74,000000	0,000000	894,000000	0,000000	2020-10-13T22:48:26:638
74,000000	0,000000	894,000000	0,000000	2020-10-13T22:48:26:681
74,000000	0,000000	894,000000	0,000000	2020-10-13T22:48:26:718
74,000000	0,000000	894,000000	0,000000	2020-10-13T22:48:26:765
74,000000	0,000000	894,000000	0,000000	2020-10-13T22:48:26:799
74,000000	0,000000	894,000000	0,000000	2020-10-13T22:48:26:842
74,000000	0,000000	894,000000	0,000000	2020-10-13T22:48:26:878
74,000000	0,000000	894,000000	0,000000	2020-10-13T22:48:26:920
74,000000	0,000000	894,000000	0,000000	2020-10-13T22:48:26:958
74,000000	0,000000	894,000000	0,000000	2020-10-13T22:48:27:002
74,000000	0,000000	894,000000	0,000000	2020-10-13T22:48:27:039
74,000000	0,000000	894,000000	0,000000	2020-10-13T22:48:27:093
74,000000	0,000000	894,000000	0,000000	2020-10-13T22:48:27:119
74,000000	0,000000	894,000000	0,000000	2020-10-13T22:48:27:161
74,000000	0,000000	894,000000	0,000000	2020-10-13T22:48:27:199
74,000000	0,000000	894,000000	0,000000	2020-10-13T22:48:27:242
74,000000	0,000000	888,000000	0,000000	2020-10-13T22:48:27:279
74,000000	0,000000	888,000000	0,000000	2020-10-13T22:48:27:320
74,000000	0,000000	888,000000	0,000000	2020-10-13T22:48:27:359
74,000000	0,000000	888,000000	0,000000	2020-10-13T22:48:27:401
74,000000	0,000000	888,000000	0,000000	2020-10-13T22:48:27:441
74,000000	0,000000	888,000000	0,000000	2020-10-13T22:48:27:481
74,000000	0,000000	888,000000	0,000000	2020-10-13T22:48:27:520
74,000000	0,000000	888,000000	0,000000	2020-10-13T22:48:27:568
74,000000	0,000000	888,000000	0,000000	2020-10-13T22:48:27:601
74,000000	0,000000	888,000000	0,000000	2020-10-13T22:48:27:648
74,000000	0,000000	888,000000	0,000000	2020-10-13T22:48:27:680
74,000000	0,000000	888,000000	0,000000	2020-10-13T22:48:27:723
74,000000	0,000000	888,000000	0,000000	2020-10-13T22:48:27:761
74,000000	0,000000	888,000000	0,000000	2020-10-13T22:48:27:805
74,000000	0,000000	888,000000	0,000000	2020-10-13T22:48:27:840
74,000000	0,000000	888,000000	0,000000	2020-10-13T22:48:27:881
74,000000	0,000000	888,000000	0,000000	2020-10-13T22:48:27:920
74,000000	0,000000	888,000000	0,000000	2020-10-13T22:48:27:961
74,000000	0,000000	742,000000	0,000000	2020-10-13T22:48:28:001
74,000000	0,000000	742,000000	0,000000	2020-10-13T22:48:28:041
74,000000	0,000000	742,000000	0,000000	2020-10-13T22:48:28:103
74,000000	0,000000	742,000000	0,000000	2020-10-13T22:48:28:122
74,000000	0,000000	742,000000	0,000000	2020-10-13T22:48:28:160
74,000000	0,000000	742,000000	0,000000	2020-10-13T22:48:28:202
74,000000	0,000000	742,000000	0,000000	2020-10-13T22:48:28:243
74,000000	0,000000	742,000000	0,000000	2020-10-13T22:48:28:281
74,000000	0,000000	742,000000	0,000000	2020-10-13T22:48:28:321
74,000000	0,000000	742,000000	0,000000	2020-10-13T22:48:28:363
74,000000	0,000000	742,000000	0,000000	2020-10-13T22:48:28:408
74,000000	0,000000	742,000000	0,000000	2020-10-13T22:48:28:443
74,000000	0,000000	742,000000	0,000000	2020-10-13T22:48:28:499
74,000000	0,000000	742,000000	0,000000	2020-10-13T22:48:28:522
74,000000	0,000000	742,000000	0,000000	2020-10-13T22:48:28:561
74,000000	0,000000	742,000000	0,000000	2020-10-13T22:48:28:601
74,000000	0,000000	742,000000	0,000000	2020-10-13T22:48:28:641
74,000000	0,000000	742,000000	0,000000	2020-10-13T22:48:28:684
74,000000	0,000000	743,000000	0,000000	2020-10-13T22:48:28:721
74,000000	0,000000	743,000000	0,000000	2020-10-13T22:48:28:762
74,000000	0,000000	743,000000	0,000000	2020-10-13T22:48:28:801
74,000000	0,000000	743,000000	0,000000	2020-10-13T22:48:28:842
74,000000	0,000000	743,000000	0,000000	2020-10-13T22:48:28:880
74,000000	0,000000	743,000000	0,000000	2020-10-13T22:48:28:923
74,000000	0,000000	743,000000	0,000000	2020-10-13T22:48:28:961
74,000000	0,000000	743,000000	0,000000	2020-10-13T22:48:29:002
74,000000	0,000000	743,000000	0,000000	2020-10-13T22:48:29:041
74,000000	0,000000	743,000000	0,000000	2020-10-13T22:48:29:104
74,000000	0,000000	743,000000	0,000000	2020-10-13T22:48:29:121
74,000000	0,000000	743,000000	0,000000	2020-10-13T22:48:29:169
74,000000	0,000000	743,000000	0,000000	2020-10-13T22:48:29:202
74,000000	0,000000	743,000000	0,000000	2020-10-13T22:48:29:242
74,000000	0,000000	743,000000	0,000000	2020-10-13T22:48:29:281
74,000000	0,000000	743,000000	0,000000	2020-10-13T22:48:29:323
74,000000	0,000000	743,000000	0,000000	2020-10-13T22:48:29:361
74,000000	0,000000	743,000000	0,000000	2020-10-13T22:48:29:403
74,000000	0,000000	743,000000	0,000000	2020-10-13T22:48:29:442
74,000000	0,000000	743,000000	0,000000	2020-10-13T22:48:29:490
74,000000	0,000000	743,000000	0,000000	2020-10-13T22:48:29:523
74,000000	0,000000	743,000000	0,000000	2020-10-13T22:48:29:573
74,000000	0,000000	743,000000	0,000000	2020-10-13T22:48:29:604
74,000000	0,000000	743,000000	0,000000	2020-10-13T22:48:29:641
74,000000	0,000000	822,000000	0,000000	2020-10-13T22:48:29:682
74,000000	0,000000	822,000000	0,000000	2020-10-13T22:48:29:723
74,000000	0,000000	822,000000	0,000000	2020-10-13T22:48:29:762
74,000000	0,000000	822,000000	0,000000	2020-10-13T22:48:29:804
74,000000	0,000000	822,000000	0,000000	2020-10-13T22:48:29:842
74,000000	0,000000	822,000000	0,000000	2020-10-13T22:48:29:883
74,000000	0,000000	822,000000	0,000000	2020-10-13T22:48:29:923
74,000000	0,000000	822,000000	0,000000	2020-10-13T22:48:29:964
74,000000	0,000000	822,000000	0,000000	2020-10-13T22:48:30:027
74,000000	0,000000	822,000000	0,000000	2020-10-13T22:48:30:044
74,000000	0,000000	822,000000	0,000000	2020-10-13T22:48:30:083
74,000000	0,000000	822,000000	0,000000	2020-10-13T22:48:30:123
74,000000	0,000000	822,000000	0,000000	2020-10-13T22:48:30:161
74,000000	0,000000	822,000000	0,000000	2020-10-13T22:48:30:204
74,000000	0,000000	822,000000	0,000000	2020-10-13T22:48:30:241
74,000000	0,000000	822,000000	0,000000	2020-10-13T22:48:30:284
74,000000	0,000000	822,000000	0,000000	2020-10-13T22:48:30:322
74,000000	0,000000	822,000000	0,000000	2020-10-13T22:48:30:365
74,000000	0,000000	834,000000	0,000000	2020-10-13T22:48:30:403
74,000000	0,000000	834,000000	0,000000	2020-10-13T22:48:30:443
74,000000	0,000000	834,000000	0,000000	2020-10-13T22:48:30:483
74,000000	0,000000	834,000000	0,000000	2020-10-13T22:48:30:524
74,000000	0,000000	834,000000	0,000000	2020-10-13T22:48:30:563
74,000000	0,000000	834,000000	0,000000	2020-10-13T22:48:30:605
74,000000	0,000000	834,000000	0,000000	2020-10-13T22:48:30:643
74,000000	0,000000	834,000000	0,000000	2020-10-13T22:48:30:684
74,000000	0,000000	834,000000	0,000000	2020-10-13T22:48:30:722
74,000000	0,000000	834,000000	0,000000	2020-10-13T22:48:30:765
74,000000	0,000000	834,000000	0,000000	2020-10-13T22:48:30:808
74,000000	0,000000	834,000000	0,000000	2020-10-13T22:48:30:846
74,000000	0,000000	834,000000	0,000000	2020-10-13T22:48:30:886
74,000000	0,000000	834,000000	0,000000	2020-10-13T22:48:30:924
74,000000	0,000000	834,000000	0,000000	2020-10-13T22:48:30:963
74,000000	0,000000	834,000000	0,000000	2020-10-13T22:48:31:015
74,000000	0,000000	834,000000	0,000000	2020-10-13T22:48:31:042
74,000000	0,000000	834,000000	0,000000	2020-10-13T22:48:31:106
74,000000	0,000000	794,000000	0,000000	2020-10-13T22:48:31:122
74,000000	0,000000	794,000000	0,000000	2020-10-13T22:48:31:166
74,000000	0,000000	794,000000	0,000000	2020-10-13T22:48:31:203
74,000000	0,000000	794,000000	0,000000	2020-10-13T22:48:31:245
74,000000	0,000000	794,000000	0,000000	2020-10-13T22:48:31:283
74,000000	0,000000	794,000000	0,000000	2020-10-13T22:48:31:326
74,000000	0,000000	794,000000	0,000000	2020-10-13T22:48:31:364
74,000000	0,000000	794,000000	0,000000	2020-10-13T22:48:31:405
74,000000	0,000000	794,000000	0,000000	2020-10-13T22:48:31:443
74,000000	0,000000	794,000000	0,000000	2020-10-13T22:48:31:485
74,000000	0,000000	794,000000	0,000000	2020-10-13T22:48:31:530
74,000000	0,000000	794,000000	0,000000	2020-10-13T22:48:31:566
74,000000	0,000000	794,000000	0,000000	2020-10-13T22:48:31:607
74,000000	0,000000	794,000000	0,000000	2020-10-13T22:48:31:645
74,000000	0,000000	794,000000	0,000000	2020-10-13T22:48:31:684
74,000000	0,000000	794,000000	0,000000	2020-10-13T22:48:31:728
74,000000	0,000000	794,000000	0,000000	2020-10-13T22:48:31:763
74,000000	0,000000	794,000000	0,000000	2020-10-13T22:48:31:808
74,000000	0,000000	794,000000	0,000000	2020-10-13T22:48:31:846
74,000000	0,000000	794,000000	0,000000	2020-10-13T22:48:31:885
74,000000	0,000000	794,000000	0,000000	2020-10-13T22:48:31:924
74,000000	0,000000	794,000000	0,000000	2020-10-13T22:48:31:965
74,000000	0,000000	794,000000	0,000000	2020-10-13T22:48:32:004
74,000000	0,000000	794,000000	0,000000	2020-10-13T22:48:32:046
74,000000	0,000000	755,000000	0,000000	2020-10-13T22:48:32:087
74,000000	0,000000	755,000000	0,000000	2020-10-13T22:48:32:125
74,000000	0,000000	755,000000	0,000000	2020-10-13T22:48:32:164
74,000000	0,000000	755,000000	0,000000	2020-10-13T22:48:32:206
74,000000	0,000000	755,000000	0,000000	2020-10-13T22:48:32:244
74,000000	0,000000	755,000000	0,000000	2020-10-13T22:48:32:285
74,000000	0,000000	755,000000	0,000000	2020-10-13T22:48:32:325
74,000000	0,000000	755,000000	0,000000	2020-10-13T22:48:32:367
74,000000	0,000000	755,000000	0,000000	2020-10-13T22:48:32:406
74,000000	0,000000	755,000000	0,000000	2020-10-13T22:48:32:453
74,000000	0,000000	755,000000	0,000000	2020-10-13T22:48:32:485
74,000000	0,000000	755,000000	0,000000	2020-10-13T22:48:32:525
74,000000	0,000000	755,000000	0,000000	2020-10-13T22:48:32:564
74,000000	0,000000	755,000000	0,000000	2020-10-13T22:48:32:605
74,000000	0,000000	755,000000	0,000000	2020-10-13T22:48:32:643
74,000000	0,000000	755,000000	0,000000	2020-10-13T22:48:32:686
74,000000	0,000000	755,000000	0,000000	2020-10-13T22:48:32:725
74,000000	0,000000	755,000000	0,000000	2020-10-13T22:48:32:765
74,000000	0,000000	755,000000	0,000000	2020-10-13T22:48:32:805
74,000000	0,000000	755,000000	0,000000	2020-10-13T22:48:32:845
74,000000	0,000000	755,000000	0,000000	2020-10-13T22:48:32:885
74,000000	0,000000	755,000000	0,000000	2020-10-13T22:48:32:926
74,000000	0,000000	755,000000	0,000000	2020-10-13T22:48:32:965
74,000000	0,000000	755,000000	0,000000	2020-10-13T22:48:33:006
74,000000	0,000000	871,000000	0,000000	2020-10-13T22:48:33:044
74,000000	0,000000	871,000000	0,000000	2020-10-13T22:48:33:096
74,000000	0,000000	871,000000	0,000000	2020-10-13T22:48:33:125
74,000000	0,000000	871,000000	0,000000	2020-10-13T22:48:33:167
74,000000	0,000000	871,000000	0,000000	2020-10-13T22:48:33:234
74,000000	0,000000	871,000000	0,000000	2020-10-13T22:48:33:247
74,000000	0,000000	871,000000	0,000000	2020-10-13T22:48:33:287
74,000000	0,000000	871,000000	0,000000	2020-10-13T22:48:33:326
74,000000	0,000000	871,000000	0,000000	2020-10-13T22:48:33:365
74,000000	0,000000	871,000000	0,000000	2020-10-13T22:48:33:407
74,000000	0,000000	871,000000	0,000000	2020-10-13T22:48:33:445
74,000000	0,000000	871,000000	0,000000	2020-10-13T22:48:33:486
74,000000	0,000000	871,000000	0,000000	2020-10-13T22:48:33:526
74,000000	0,000000	871,000000	0,000000	2020-10-13T22:48:33:567
74,000000	0,000000	871,000000	0,000000	2020-10-13T22:48:33:606
74,000000	0,000000	871,000000	0,000000	2020-10-13T22:48:33:647
74,000000	0,000000	871,000000	0,000000	2020-10-13T22:48:33:686
74,000000	0,000000	871,000000	0,000000	2020-10-13T22:48:33:727
74,000000	0,000000	923,000000	0,000000	2020-10-13T22:48:33:766
74,000000	0,000000	923,000000	0,000000	2020-10-13T22:48:33:807
74,000000	0,000000	923,000000	0,000000	2020-10-13T22:48:33:845
74,000000	0,000000	923,000000	0,000000	2020-10-13T22:48:33:895
74,000000	0,000000	923,000000	0,000000	2020-10-13T22:48:33:925
74,000000	0,000000	923,000000	0,000000	2020-10-13T22:48:33:967
74,000000	0,000000	923,000000	0,000000	2020-10-13T22:48:34:007
74,000000	0,000000	923,000000	0,000000	2020-10-13T22:48:34:047
74,000000	0,000000	923,000000	0,000000	2020-10-13T22:48:34:089
74,000000	0,000000	923,000000	0,000000	2020-10-13T22:48:34:127
74,000000	0,000000	923,000000	0,000000	2020-10-13T22:48:34:166
74,000000	0,000000	923,000000	0,000000	2020-10-13T22:48:34:209
74,000000	0,000000	923,000000	0,000000	2020-10-13T22:48:34:270
74,000000	0,000000	923,000000	0,000000	2020-10-13T22:48:34:289
74,000000	0,000000	923,000000	0,000000	2020-10-13T22:48:34:327
74,000000	0,000000	923,000000	0,000000	2020-10-13T22:48:34:367
74,000000	0,000000	923,000000	0,000000	2020-10-13T22:48:34:406
74,000000	0,000000	923,000000	0,000000	2020-10-13T22:48:34:448
74,000000	0,000000	852,000000	0,000000	2020-10-13T22:48:34:487
74,000000	0,000000	852,000000	0,000000	2020-10-13T22:48:34:527
74,000000	0,000000	852,000000	0,000000	2020-10-13T22:48:34:567
74,000000	0,000000	852,000000	0,000000	2020-10-13T22:48:34:608
74,000000	0,000000	852,000000	0,000000	2020-10-13T22:48:34:647
74,000000	0,000000	852,000000	0,000000	2020-10-13T22:48:34:688
73,000000	0,000000	852,000000	0,000000	2020-10-13T22:48:34:727
73,000000	0,000000	852,000000	0,000000	2020-10-13T22:48:34:768
74,000000	0,000000	852,000000	0,000000	2020-10-13T22:48:34:836
74,000000	0,000000	852,000000	0,000000	2020-10-13T22:48:34:848
74,000000	0,000000	852,000000	0,000000	2020-10-13T22:48:34:887
73,000000	0,000000	852,000000	0,000000	2020-10-13T22:48:34:928
73,000000	0,000000	852,000000	0,000000	2020-10-13T22:48:34:980
73,000000	0,000000	852,000000	0,000000	2020-10-13T22:48:35:009
74,000000	0,000000	852,000000	0,000000	2020-10-13T22:48:35:045
73,000000	0,000000	852,000000	0,000000	2020-10-13T22:48:35:092
73,000000	0,000000	852,000000	0,000000	2020-10-13T22:48:35:126
73,000000	0,000000	852,000000	0,000000	2020-10-13T22:48:35:169
73,000000	0,000000	852,000000	0,000000	2020-10-13T22:48:35:208
73,000000	0,000000	852,000000	0,000000	2020-10-13T22:48:35:249
73,000000	0,000000	852,000000	0,000000	2020-10-13T22:48:35:287
73,000000	0,000000	852,000000	0,000000	2020-10-13T22:48:35:329
73,000000	0,000000	852,000000	0,000000	2020-10-13T22:48:35:367
73,000000	0,000000	852,000000	0,000000	2020-10-13T22:48:35:408
73,000000	0,000000	852,000000	0,000000	2020-10-13T22:48:35:448
73,000000	0,000000	852,000000	0,000000	2020-10-13T22:48:35:488
73,000000	0,000000	804,000000	0,000000	2020-10-13T22:48:35:530
73,000000	0,000000	804,000000	0,000000	2020-10-13T22:48:35:570
73,000000	0,000000	804,000000	0,000000	2020-10-13T22:48:35:611
73,000000	0,000000	804,000000	0,000000	2020-10-13T22:48:35:648
73,000000	0,000000	804,000000	0,000000	2020-10-13T22:48:35:689
73,000000	0,000000	804,000000	0,000000	2020-10-13T22:48:35:729
73,000000	0,000000	804,000000	0,000000	2020-10-13T22:48:35:773
73,000000	0,000000	804,000000	0,000000	2020-10-13T22:48:35:810
73,000000	0,000000	804,000000	0,000000	2020-10-13T22:48:35:846
73,000000	0,000000	804,000000	0,000000	2020-10-13T22:48:35:889
73,000000	0,000000	804,000000	0,000000	2020-10-13T22:48:35:928
73,000000	0,000000	804,000000	0,000000	2020-10-13T22:48:35:968
73,000000	0,000000	804,000000	0,000000	2020-10-13T22:48:36:009
73,000000	0,000000	804,000000	0,000000	2020-10-13T22:48:36:049
73,000000	0,000000	804,000000	0,000000	2020-10-13T22:48:36:100
73,000000	0,000000	804,000000	0,000000	2020-10-13T22:48:36:132
73,000000	0,000000	804,000000	0,000000	2020-10-13T22:48:36:169
73,000000	0,000000	804,000000	0,000000	2020-10-13T22:48:36:209
73,000000	0,000000	804,000000	0,000000	2020-10-13T22:48:36:250
73,000000	0,000000	804,000000	0,000000	2020-10-13T22:48:36:289
73,000000	0,000000	804,000000	0,000000	2020-10-13T22:48:36:329
73,000000	0,000000	882,000000	0,000000	2020-10-13T22:48:36:371
73,000000	0,000000	882,000000	0,000000	2020-10-13T22:48:36:411
73,000000	0,000000	882,000000	0,000000	2020-10-13T22:48:36:451
73,000000	0,000000	882,000000	0,000000	2020-10-13T22:48:36:499
73,000000	0,000000	882,000000	0,000000	2020-10-13T22:48:36:529
73,000000	0,000000	882,000000	0,000000	2020-10-13T22:48:36:572
73,000000	0,000000	882,000000	0,000000	2020-10-13T22:48:36:609
73,000000	0,000000	882,000000	0,000000	2020-10-13T22:48:36:649
73,000000	0,000000	882,000000	0,000000	2020-10-13T22:48:36:689
73,000000	0,000000	882,000000	0,000000	2020-10-13T22:48:36:729
73,000000	0,000000	882,000000	0,000000	2020-10-13T22:48:36:771
73,000000	0,000000	882,000000	0,000000	2020-10-13T22:48:36:809
73,000000	0,000000	882,000000	0,000000	2020-10-13T22:48:36:850
73,000000	0,000000	882,000000	0,000000	2020-10-13T22:48:36:889
73,000000	0,000000	882,000000	0,000000	2020-10-13T22:48:36:929
73,000000	0,000000	882,000000	0,000000	2020-10-13T22:48:36:969
73,000000	0,000000	882,000000	0,000000	2020-10-13T22:48:37:011
73,000000	0,000000	882,000000	0,000000	2020-10-13T22:48:37:049
73,000000	0,000000	882,000000	0,000000	2020-10-13T22:48:37:122
73,000000	0,000000	882,000000	0,000000	2020-10-13T22:48:37:129
73,000000	0,000000	882,000000	0,000000	2020-10-13T22:48:37:179
73,000000	0,000000	847,000000	0,000000	2020-10-13T22:48:37:211
73,000000	0,000000	847,000000	0,000000	2020-10-13T22:48:37:252
73,000000	0,000000	847,000000	0,000000	2020-10-13T22:48:37:289
73,000000	0,000000	847,000000	0,000000	2020-10-13T22:48:37:329
73,000000	0,000000	847,000000	0,000000	2020-10-13T22:48:37:368
73,000000	0,000000	847,000000	0,000000	2020-10-13T22:48:37:411
73,000000	0,000000	847,000000	0,000000	2020-10-13T22:48:37:449
73,000000	0,000000	847,000000	0,000000	2020-10-13T22:48:37:490
73,000000	0,000000	847,000000	0,000000	2020-10-13T22:48:37:529
73,000000	0,000000	847,000000	0,000000	2020-10-13T22:48:37:571
73,000000	0,000000	847,000000	0,000000	2020-10-13T22:48:37:610
73,000000	0,000000	847,000000	0,000000	2020-10-13T22:48:37:650
72,000000	0,000000	847,000000	0,000000	2020-10-13T22:48:37:689
72,000000	0,000000	847,000000	0,000000	2020-10-13T22:48:37:731
73,000000	0,000000	847,000000	0,000000	2020-10-13T22:48:37:770
73,000000	0,000000	847,000000	0,000000	2020-10-13T22:48:37:813
73,000000	0,000000	847,000000	0,000000	2020-10-13T22:48:37:851
73,000000	0,000000	847,000000	0,000000	2020-10-13T22:48:37:921
72,000000	0,000000	847,000000	0,000000	2020-10-13T22:48:37:929
73,000000	0,000000	847,000000	0,000000	2020-10-13T22:48:37:971
73,000000	0,000000	847,000000	0,000000	2020-10-13T22:48:38:010
73,000000	0,000000	809,000000	0,000000	2020-10-13T22:48:38:052
72,000000	0,000000	809,000000	0,000000	2020-10-13T22:48:38:099
72,000000	0,000000	809,000000	0,000000	2020-10-13T22:48:38:131
72,000000	0,000000	809,000000	0,000000	2020-10-13T22:48:38:169
73,000000	0,000000	809,000000	0,000000	2020-10-13T22:48:38:213
73,000000	0,000000	809,000000	0,000000	2020-10-13T22:48:38:250
72,000000	0,000000	809,000000	0,000000	2020-10-13T22:48:38:291
72,000000	0,000000	809,000000	0,000000	2020-10-13T22:48:38:331
72,000000	0,000000	809,000000	0,000000	2020-10-13T22:48:38:371
72,000000	0,000000	809,000000	0,000000	2020-10-13T22:48:38:411
72,000000	0,000000	809,000000	0,000000	2020-10-13T22:48:38:451
72,000000	0,000000	809,000000	0,000000	2020-10-13T22:48:38:491
72,000000	0,000000	809,000000	0,000000	2020-10-13T22:48:38:532
72,000000	0,000000	809,000000	0,000000	2020-10-13T22:48:38:571
73,000000	0,000000	809,000000	0,000000	2020-10-13T22:48:38:612
73,000000	0,000000	809,000000	0,000000	2020-10-13T22:48:38:650
73,000000	0,000000	809,000000	0,000000	2020-10-13T22:48:38:691
72,000000	0,000000	809,000000	0,000000	2020-10-13T22:48:38:730
72,000000	0,000000	809,000000	0,000000	2020-10-13T22:48:38:773
72,000000	0,000000	809,000000	0,000000	2020-10-13T22:48:38:813
72,000000	0,000000	809,000000	0,000000	2020-10-13T22:48:38:851
72,000000	0,000000	795,000000	0,000000	2020-10-13T22:48:38:891
72,000000	0,000000	795,000000	0,000000	2020-10-13T22:48:38:935
72,000000	0,000000	795,000000	0,000000	2020-10-13T22:48:38:973
72,000000	0,000000	795,000000	0,000000	2020-10-13T22:48:39:012
73,000000	0,000000	795,000000	0,000000	2020-10-13T22:48:39:051
73,000000	0,000000	795,000000	0,000000	2020-10-13T22:48:39:098
72,000000	0,000000	795,000000	0,000000	2020-10-13T22:48:39:131
72,000000	0,000000	795,000000	0,000000	2020-10-13T22:48:39:172
72,000000	0,000000	795,000000	0,000000	2020-10-13T22:48:39:212
72,000000	0,000000	795,000000	0,000000	2020-10-13T22:48:39:253
72,000000	0,000000	795,000000	0,000000	2020-10-13T22:48:39:291
72,000000	0,000000	795,000000	0,000000	2020-10-13T22:48:39:334
72,000000	0,000000	795,000000	0,000000	2020-10-13T22:48:39:372
72,000000	0,000000	795,000000	0,000000	2020-10-13T22:48:39:413
72,000000	0,000000	795,000000	0,000000	2020-10-13T22:48:39:451
72,000000	0,000000	795,000000	0,000000	2020-10-13T22:48:39:494
72,000000	0,000000	795,000000	0,000000	2020-10-13T22:48:39:533
72,000000	0,000000	795,000000	0,000000	2020-10-13T22:48:39:619
72,000000	0,000000	795,000000	0,000000	2020-10-13T22:48:39:619
72,000000	0,000000	795,000000	0,000000	2020-10-13T22:48:39:653
72,000000	0,000000	795,000000	0,000000	2020-10-13T22:48:39:691
72,000000	0,000000	887,000000	0,000000	2020-10-13T22:48:39:732
72,000000	0,000000	887,000000	0,000000	2020-10-13T22:48:39:773
72,000000	0,000000	887,000000	0,000000	2020-10-13T22:48:39:813
72,000000	0,000000	887,000000	0,000000	2020-10-13T22:48:39:852
72,000000	0,000000	887,000000	0,000000	2020-10-13T22:48:39:893
72,000000	0,000000	887,000000	0,000000	2020-10-13T22:48:39:932
72,000000	0,000000	887,000000	0,000000	2020-10-13T22:48:39:973
72,000000	0,000000	887,000000	0,000000	2020-10-13T22:48:40:013
72,000000	0,000000	887,000000	0,000000	2020-10-13T22:48:40:052
72,000000	0,000000	887,000000	0,000000	2020-10-13T22:48:40:096
72,000000	0,000000	887,000000	0,000000	2020-10-13T22:48:40:133
72,000000	0,000000	887,000000	0,000000	2020-10-13T22:48:40:176
72,000000	0,000000	887,000000	0,000000	2020-10-13T22:48:40:215
72,000000	0,000000	887,000000	0,000000	2020-10-13T22:48:40:252
72,000000	0,000000	887,000000	0,000000	2020-10-13T22:48:40:294
72,000000	0,000000	887,000000	0,000000	2020-10-13T22:48:40:335
72,000000	0,000000	887,000000	0,000000	2020-10-13T22:48:40:373
72,000000	0,000000	887,000000	0,000000	2020-10-13T22:48:40:414
72,000000	0,000000	887,000000	0,000000	2020-10-13T22:48:40:455
72,000000	0,000000	887,000000	0,000000	2020-10-13T22:48:40:492
72,000000	0,000000	887,000000	0,000000	2020-10-13T22:48:40:532
72,000000	0,000000	840,000000	0,000000	2020-10-13T22:48:40:573
72,000000	0,000000	840,000000	0,000000	2020-10-13T22:48:40:614
72,000000	0,000000	840,000000	0,000000	2020-10-13T22:48:40:652
72,000000	0,000000	840,000000	0,000000	2020-10-13T22:48:40:694
72,000000	0,000000	840,000000	0,000000	2020-10-13T22:48:40:733
72,000000	0,000000	840,000000	0,000000	2020-10-13T22:48:40:773
72,000000	0,000000	840,000000	0,000000	2020-10-13T22:48:40:813
72,000000	0,000000	840,000000	0,000000	2020-10-13T22:48:40:855
72,000000	0,000000	840,000000	0,000000	2020-10-13T22:48:40:895
72,000000	0,000000	840,000000	0,000000	2020-10-13T22:48:40:936
72,000000	0,000000	840,000000	0,000000	2020-10-13T22:48:40:973
72,000000	0,000000	840,000000	0,000000	2020-10-13T22:48:41:015
72,000000	0,000000	840,000000	0,000000	2020-10-13T22:48:41:052
72,000000	0,000000	840,000000	0,000000	2020-10-13T22:48:41:106
72,000000	0,000000	748,000000	0,000000	2020-10-13T22:48:41:134
72,000000	0,000000	748,000000	0,000000	2020-10-13T22:48:41:182
72,000000	0,000000	748,000000	0,000000	2020-10-13T22:48:41:214
72,000000	0,000000	748,000000	0,000000	2020-10-13T22:48:41:255
72,000000	0,000000	748,000000	0,000000	2020-10-13T22:48:41:293
72,000000	0,000000	748,000000	0,000000	2020-10-13T22:48:41:335
72,000000	0,000000	748,000000	0,000000	2020-10-13T22:48:41:373
72,000000	0,000000	748,000000	0,000000	2020-10-13T22:48:41:415
72,000000	0,000000	748,000000	0,000000	2020-10-13T22:48:41:453
72,000000	0,000000	748,000000	0,000000	2020-10-13T22:48:41:495
72,000000	0,000000	748,000000	0,000000	2020-10-13T22:48:41:533
72,000000	0,000000	748,000000	0,000000	2020-10-13T22:48:41:575
72,000000	0,000000	748,000000	0,000000	2020-10-13T22:48:41:614
72,000000	0,000000	748,000000	0,000000	2020-10-13T22:48:41:655
72,000000	0,000000	748,000000	0,000000	2020-10-13T22:48:41:693
72,000000	0,000000	748,000000	0,000000	2020-10-13T22:48:41:734
72,000000	0,000000	748,000000	0,000000	2020-10-13T22:48:41:773
72,000000	0,000000	748,000000	0,000000	2020-10-13T22:48:41:817
72,000000	0,000000	748,000000	0,000000	2020-10-13T22:48:41:853
73,000000	0,000000	748,000000	0,000000	2020-10-13T22:48:41:908
73,000000	0,000000	748,000000	0,000000	2020-10-13T22:48:41:935
73,000000	0,000000	777,000000	0,000000	2020-10-13T22:48:41:974
72,000000	0,000000	777,000000	0,000000	2020-10-13T22:48:42:014
72,000000	0,000000	777,000000	0,000000	2020-10-13T22:48:42:055
72,000000	0,000000	777,000000	0,000000	2020-10-13T22:48:42:130
73,000000	0,000000	777,000000	0,000000	2020-10-13T22:48:42:138
73,000000	0,000000	777,000000	0,000000	2020-10-13T22:48:42:175
72,000000	0,000000	777,000000	0,000000	2020-10-13T22:48:42:215
73,000000	0,000000	777,000000	0,000000	2020-10-13T22:48:42:254
73,000000	0,000000	777,000000	0,000000	2020-10-13T22:48:42:295
73,000000	0,000000	777,000000	0,000000	2020-10-13T22:48:42:334
73,000000	0,000000	777,000000	0,000000	2020-10-13T22:48:42:375
73,000000	0,000000	777,000000	0,000000	2020-10-13T22:48:42:414
73,000000	0,000000	777,000000	0,000000	2020-10-13T22:48:42:455
73,000000	0,000000	777,000000	0,000000	2020-10-13T22:48:42:495
73,000000	0,000000	777,000000	0,000000	2020-10-13T22:48:42:536
73,000000	0,000000	777,000000	0,000000	2020-10-13T22:48:42:580
73,000000	0,000000	777,000000	0,000000	2020-10-13T22:48:42:617
73,000000	0,000000	777,000000	0,000000	2020-10-13T22:48:42:654
73,000000	0,000000	777,000000	0,000000	2020-10-13T22:48:42:696
73,000000	0,000000	777,000000	0,000000	2020-10-13T22:48:42:734
73,000000	0,000000	777,000000	0,000000	2020-10-13T22:48:42:775
73,000000	0,000000	777,000000	0,000000	2020-10-13T22:48:42:814
73,000000	0,000000	777,000000	0,000000	2020-10-13T22:48:42:857
73,000000	0,000000	777,000000	0,000000	2020-10-13T22:48:42:894
73,000000	0,000000	777,000000	0,000000	2020-10-13T22:48:42:937
73,000000	0,000000	777,000000	0,000000	2020-10-13T22:48:42:976
73,000000	0,000000	777,000000	0,000000	2020-10-13T22:48:43:017
73,000000	0,000000	777,000000	0,000000	2020-10-13T22:48:43:055
73,000000	0,000000	857,000000	0,000000	2020-10-13T22:48:43:098
73,000000	0,000000	857,000000	0,000000	2020-10-13T22:48:43:136
73,000000	0,000000	857,000000	0,000000	2020-10-13T22:48:43:176
73,000000	0,000000	857,000000	0,000000	2020-10-13T22:48:43:220
73,000000	0,000000	857,000000	0,000000	2020-10-13T22:48:43:256
73,000000	0,000000	857,000000	0,000000	2020-10-13T22:48:43:295
73,000000	0,000000	857,000000	0,000000	2020-10-13T22:48:43:335
73,000000	0,000000	857,000000	0,000000	2020-10-13T22:48:43:375
73,000000	0,000000	857,000000	0,000000	2020-10-13T22:48:43:417
73,000000	0,000000	857,000000	0,000000	2020-10-13T22:48:43:455
73,000000	0,000000	857,000000	0,000000	2020-10-13T22:48:43:497
73,000000	0,000000	857,000000	0,000000	2020-10-13T22:48:43:535
73,000000	0,000000	857,000000	0,000000	2020-10-13T22:48:43:577
73,000000	0,000000	857,000000	0,000000	2020-10-13T22:48:43:616
73,000000	0,000000	887,000000	0,000000	2020-10-13T22:48:43:657
73,000000	0,000000	887,000000	0,000000	2020-10-13T22:48:43:696
73,000000	0,000000	887,000000	0,000000	2020-10-13T22:48:43:742
73,000000	0,000000	887,000000	0,000000	2020-10-13T22:48:43:776
73,000000	0,000000	887,000000	0,000000	2020-10-13T22:48:43:824
73,000000	0,000000	887,000000	0,000000	2020-10-13T22:48:43:856
73,000000	0,000000	887,000000	0,000000	2020-10-13T22:48:43:896
73,000000	0,000000	887,000000	0,000000	2020-10-13T22:48:43:936
73,000000	0,000000	887,000000	0,000000	2020-10-13T22:48:43:979
73,000000	0,000000	887,000000	0,000000	2020-10-13T22:48:44:016
73,000000	0,000000	887,000000	0,000000	2020-10-13T22:48:44:056
73,000000	0,000000	887,000000	0,000000	2020-10-13T22:48:44:097
73,000000	0,000000	887,000000	0,000000	2020-10-13T22:48:44:137
73,000000	0,000000	887,000000	0,000000	2020-10-13T22:48:44:175
73,000000	0,000000	887,000000	0,000000	2020-10-13T22:48:44:218
73,000000	0,000000	887,000000	0,000000	2020-10-13T22:48:44:257
73,000000	0,000000	887,000000	0,000000	2020-10-13T22:48:44:298
73,000000	0,000000	887,000000	0,000000	2020-10-13T22:48:44:337
73,000000	0,000000	887,000000	0,000000	2020-10-13T22:48:44:377
73,000000	0,000000	887,000000	0,000000	2020-10-13T22:48:44:417
73,000000	0,000000	887,000000	0,000000	2020-10-13T22:48:44:458
73,000000	0,000000	748,000000	0,000000	2020-10-13T22:48:44:496
73,000000	0,000000	748,000000	0,000000	2020-10-13T22:48:44:537
73,000000	0,000000	748,000000	0,000000	2020-10-13T22:48:44:577
73,000000	0,000000	748,000000	0,000000	2020-10-13T22:48:44:617
73,000000	0,000000	748,000000	0,000000	2020-10-13T22:48:44:661
73,000000	0,000000	748,000000	0,000000	2020-10-13T22:48:44:697
73,000000	0,000000	748,000000	0,000000	2020-10-13T22:48:44:743
73,000000	0,000000	748,000000	0,000000	2020-10-13T22:48:44:780
73,000000	0,000000	748,000000	0,000000	2020-10-13T22:48:44:818
73,000000	0,000000	748,000000	0,000000	2020-10-13T22:48:44:857
73,000000	0,000000	748,000000	0,000000	2020-10-13T22:48:44:906
73,000000	0,000000	748,000000	0,000000	2020-10-13T22:48:44:939
73,000000	0,000000	748,000000	0,000000	2020-10-13T22:48:44:976
73,000000	0,000000	748,000000	0,000000	2020-10-13T22:48:45:018
73,000000	0,000000	748,000000	0,000000	2020-10-13T22:48:45:057
73,000000	0,000000	748,000000	0,000000	2020-10-13T22:48:45:102
73,000000	0,000000	748,000000	0,000000	2020-10-13T22:48:45:137
73,000000	0,000000	748,000000	0,000000	2020-10-13T22:48:45:178
73,000000	0,000000	748,000000	0,000000	2020-10-13T22:48:45:217
73,000000	0,000000	748,000000	0,000000	2020-10-13T22:48:45:258
73,000000	0,000000	748,000000	0,000000	2020-10-13T22:48:45:297
73,000000	0,000000	807,000000	0,000000	2020-10-13T22:48:45:338
73,000000	0,000000	807,000000	0,000000	2020-10-13T22:48:45:377
73,000000	0,000000	807,000000	0,000000	2020-10-13T22:48:45:419
73,000000	0,000000	807,000000	0,000000	2020-10-13T22:48:45:457
73,000000	0,000000	807,000000	0,000000	2020-10-13T22:48:45:499
73,000000	0,000000	807,000000	0,000000	2020-10-13T22:48:45:537
73,000000	0,000000	807,000000	0,000000	2020-10-13T22:48:45:580
73,000000	0,000000	807,000000	0,000000	2020-10-13T22:48:45:619
73,000000	0,000000	807,000000	0,000000	2020-10-13T22:48:45:666
73,000000	0,000000	807,000000	0,000000	2020-10-13T22:48:45:697
73,000000	0,000000	807,000000	0,000000	2020-10-13T22:48:45:738
73,000000	0,000000	807,000000	0,000000	2020-10-13T22:48:45:779
73,000000	0,000000	807,000000	0,000000	2020-10-13T22:48:45:817
73,000000	0,000000	807,000000	0,000000	2020-10-13T22:48:45:857
73,000000	0,000000	807,000000	0,000000	2020-10-13T22:48:45:899
73,000000	0,000000	807,000000	0,000000	2020-10-13T22:48:45:938
73,000000	0,000000	807,000000	0,000000	2020-10-13T22:48:45:979
73,000000	0,000000	807,000000	0,000000	2020-10-13T22:48:46:019
73,000000	0,000000	807,000000	0,000000	2020-10-13T22:48:46:059
73,000000	0,000000	807,000000	0,000000	2020-10-13T22:48:46:110
73,000000	0,000000	807,000000	0,000000	2020-10-13T22:48:46:139
73,000000	0,000000	807,000000	0,000000	2020-10-13T22:48:46:178
73,000000	0,000000	807,000000	0,000000	2020-10-13T22:48:46:219
73,000000	0,000000	807,000000	0,000000	2020-10-13T22:48:46:258
73,000000	0,000000	807,000000	0,000000	2020-10-13T22:48:46:299
73,000000	0,000000	807,000000	0,000000	2020-10-13T22:48:46:356
73,000000	0,000000	807,000000	0,000000	2020-10-13T22:48:46:382
73,000000	0,000000	807,000000	0,000000	2020-10-13T22:48:46:419
73,000000	0,000000	890,000000	0,000000	2020-10-13T22:48:46:461
73,000000	0,000000	890,000000	0,000000	2020-10-13T22:48:46:500
73,000000	0,000000	890,000000	0,000000	2020-10-13T22:48:46:542
73,000000	0,000000	890,000000	0,000000	2020-10-13T22:48:46:578
73,000000	0,000000	890,000000	0,000000	2020-10-13T22:48:46:619
73,000000	0,000000	890,000000	0,000000	2020-10-13T22:48:46:658
73,000000	0,000000	890,000000	0,000000	2020-10-13T22:48:46:699
73,000000	0,000000	890,000000	0,000000	2020-10-13T22:48:46:739
73,000000	0,000000	890,000000	0,000000	2020-10-13T22:48:46:780
73,000000	0,000000	890,000000	0,000000	2020-10-13T22:48:46:819
72,000000	0,000000	890,000000	0,000000	2020-10-13T22:48:46:860
73,000000	0,000000	890,000000	0,000000	2020-10-13T22:48:46:898
73,000000	0,000000	890,000000	0,000000	2020-10-13T22:48:46:939
73,000000	0,000000	890,000000	0,000000	2020-10-13T22:48:46:979
73,000000	0,000000	901,000000	0,000000	2020-10-13T22:48:47:020
73,000000	0,000000	901,000000	0,000000	2020-10-13T22:48:47:059
73,000000	0,000000	901,000000	0,000000	2020-10-13T22:48:47:100
73,000000	0,000000	901,000000	0,000000	2020-10-13T22:48:47:139
73,000000	0,000000	901,000000	0,000000	2020-10-13T22:48:47:181
72,000000	0,000000	901,000000	0,000000	2020-10-13T22:48:47:230
72,000000	0,000000	901,000000	0,000000	2020-10-13T22:48:47:263
72,000000	0,000000	901,000000	0,000000	2020-10-13T22:48:47:298
73,000000	0,000000	901,000000	0,000000	2020-10-13T22:48:47:341
73,000000	0,000000	901,000000	0,000000	2020-10-13T22:48:47:381
72,000000	0,000000	901,000000	0,000000	2020-10-13T22:48:47:421
72,000000	0,000000	901,000000	0,000000	2020-10-13T22:48:47:458
72,000000	0,000000	901,000000	0,000000	2020-10-13T22:48:47:500
72,000000	0,000000	901,000000	0,000000	2020-10-13T22:48:47:539
73,000000	0,000000	901,000000	0,000000	2020-10-13T22:48:47:581
72,000000	0,000000	901,000000	0,000000	2020-10-13T22:48:47:620
72,000000	0,000000	901,000000	0,000000	2020-10-13T22:48:47:661
72,000000	0,000000	901,000000	0,000000	2020-10-13T22:48:47:700
72,000000	0,000000	901,000000	0,000000	2020-10-13T22:48:47:740
72,000000	0,000000	901,000000	0,000000	2020-10-13T22:48:47:779
72,000000	0,000000	901,000000	0,000000	2020-10-13T22:48:47:821
72,000000	0,000000	812,000000	0,000000	2020-10-13T22:48:47:866
72,000000	0,000000	812,000000	0,000000	2020-10-13T22:48:47:902
72,000000	0,000000	812,000000	0,000000	2020-10-13T22:48:47:944
72,000000	0,000000	812,000000	0,000000	2020-10-13T22:48:47:981
72,000000	0,000000	812,000000	0,000000	2020-10-13T22:48:48:025
72,000000	0,000000	812,000000	0,000000	2020-10-13T22:48:48:062
72,000000	0,000000	812,000000	0,000000	2020-10-13T22:48:48:107
72,000000	0,000000	812,000000	0,000000	2020-10-13T22:48:48:144
72,000000	0,000000	812,000000	0,000000	2020-10-13T22:48:48:181
72,000000	0,000000	812,000000	0,000000	2020-10-13T22:48:48:221
72,000000	0,000000	812,000000	0,000000	2020-10-13T22:48:48:260
72,000000	0,000000	812,000000	0,000000	2020-10-13T22:48:48:301
72,000000	0,000000	812,000000	0,000000	2020-10-13T22:48:48:339
72,000000	0,000000	812,000000	0,000000	2020-10-13T22:48:48:381
72,000000	0,000000	812,000000	0,000000	2020-10-13T22:48:48:420
72,000000	0,000000	812,000000	0,000000	2020-10-13T22:48:48:461
72,000000	0,000000	812,000000	0,000000	2020-10-13T22:48:48:500
72,000000	0,000000	812,000000	0,000000	2020-10-13T22:48:48:541
72,000000	0,000000	812,000000	0,000000	2020-10-13T22:48:48:581
72,000000	0,000000	812,000000	0,000000	2020-10-13T22:48:48:622
72,000000	0,000000	812,000000	0,000000	2020-10-13T22:48:48:661
72,000000	0,000000	816,000000	0,000000	2020-10-13T22:48:48:704
72,000000	0,000000	816,000000	0,000000	2020-10-13T22:48:48:741
72,000000	0,000000	816,000000	0,000000	2020-10-13T22:48:48:783
72,000000	0,000000	816,000000	0,000000	2020-10-13T22:48:48:821
72,000000	0,000000	816,000000	0,000000	2020-10-13T22:48:48:861
72,000000	0,000000	816,000000	0,000000	2020-10-13T22:48:48:901
72,000000	0,000000	816,000000	0,000000	2020-10-13T22:48:48:941
72,000000	0,000000	816,000000	0,000000	2020-10-13T22:48:48:981
72,000000	0,000000	816,000000	0,000000	2020-10-13T22:48:49:023
72,000000	0,000000	816,000000	0,000000	2020-10-13T22:48:49:066
72,000000	0,000000	816,000000	0,000000	2020-10-13T22:48:49:104
72,000000	0,000000	816,000000	0,000000	2020-10-13T22:48:49:141
72,000000	0,000000	816,000000	0,000000	2020-10-13T22:48:49:183
72,000000	0,000000	816,000000	0,000000	2020-10-13T22:48:49:223
72,000000	0,000000	816,000000	0,000000	2020-10-13T22:48:49:261
72,000000	0,000000	816,000000	0,000000	2020-10-13T22:48:49:301
72,000000	0,000000	816,000000	0,000000	2020-10-13T22:48:49:342
72,000000	0,000000	816,000000	0,000000	2020-10-13T22:48:49:381
72,000000	0,000000	816,000000	0,000000	2020-10-13T22:48:49:421
72,000000	0,000000	816,000000	0,000000	2020-10-13T22:48:49:461
72,000000	0,000000	816,000000	0,000000	2020-10-13T22:48:49:502
72,000000	0,000000	816,000000	0,000000	2020-10-13T22:48:49:541
72,000000	0,000000	816,000000	0,000000	2020-10-13T22:48:49:584
72,000000	0,000000	816,000000	0,000000	2020-10-13T22:48:49:622
72,000000	0,000000	816,000000	0,000000	2020-10-13T22:48:49:662
72,000000	0,000000	816,000000	0,000000	2020-10-13T22:48:49:701
72,000000	0,000000	816,000000	0,000000	2020-10-13T22:48:49:743
72,000000	0,000000	816,000000	0,000000	2020-10-13T22:48:49:781
72,000000	0,000000	867,000000	0,000000	2020-10-13T22:48:49:824
72,000000	0,000000	867,000000	0,000000	2020-10-13T22:48:49:863
72,000000	0,000000	867,000000	0,000000	2020-10-13T22:48:49:906
72,000000	0,000000	867,000000	0,000000	2020-10-13T22:48:49:943
72,000000	0,000000	867,000000	0,000000	2020-10-13T22:48:49:983
72,000000	0,000000	867,000000	0,000000	2020-10-13T22:48:50:022
72,000000	0,000000	867,000000	0,000000	2020-10-13T22:48:50:062
72,000000	0,000000	867,000000	0,000000	2020-10-13T22:48:50:103
72,000000	0,000000	867,000000	0,000000	2020-10-13T22:48:50:142
72,000000	0,000000	867,000000	0,000000	2020-10-13T22:48:50:182
72,000000	0,000000	867,000000	0,000000	2020-10-13T22:48:50:223
72,000000	0,000000	867,000000	0,000000	2020-10-13T22:48:50:262
72,000000	0,000000	867,000000	0,000000	2020-10-13T22:48:50:305
72,000000	0,000000	867,000000	0,000000	2020-10-13T22:48:50:342
72,000000	0,000000	867,000000	0,000000	2020-10-13T22:48:50:386
72,000000	0,000000	867,000000	0,000000	2020-10-13T22:48:50:423
72,000000	0,000000	867,000000	0,000000	2020-10-13T22:48:50:463
72,000000	0,000000	867,000000	0,000000	2020-10-13T22:48:50:502
72,000000	0,000000	867,000000	0,000000	2020-10-13T22:48:50:543
72,000000	0,000000	867,000000	0,000000	2020-10-13T22:48:50:584
72,000000	0,000000	867,000000	0,000000	2020-10-13T22:48:50:622
72,000000	0,000000	968,000000	0,000000	2020-10-13T22:48:50:663
71,000000	0,000000	968,000000	0,000000	2020-10-13T22:48:50:703
71,000000	0,000000	968,000000	0,000000	2020-10-13T22:48:50:742
71,000000	0,000000	968,000000	0,000000	2020-10-13T22:48:50:784
72,000000	0,000000	968,000000	0,000000	2020-10-13T22:48:50:823
72,000000	0,000000	968,000000	0,000000	2020-10-13T22:48:50:863
71,000000	0,000000	968,000000	0,000000	2020-10-13T22:48:50:903
71,000000	0,000000	968,000000	0,000000	2020-10-13T22:48:50:944
71,000000	0,000000	968,000000	0,000000	2020-10-13T22:48:50:981
72,000000	0,000000	968,000000	0,000000	2020-10-13T22:48:51:025
71,000000	0,000000	968,000000	0,000000	2020-10-13T22:48:51:064
71,000000	0,000000	968,000000	0,000000	2020-10-13T22:48:51:103
71,000000	0,000000	968,000000	0,000000	2020-10-13T22:48:51:140
71,000000	0,000000	968,000000	0,000000	2020-10-13T22:48:51:184
72,000000	0,000000	968,000000	0,000000	2020-10-13T22:48:51:227
71,000000	0,000000	968,000000	0,000000	2020-10-13T22:48:51:264
71,000000	0,000000	968,000000	0,000000	2020-10-13T22:48:51:302
71,000000	0,000000	968,000000	0,000000	2020-10-13T22:48:51:343
71,000000	0,000000	968,000000	0,000000	2020-10-13T22:48:51:383
71,000000	0,000000	968,000000	0,000000	2020-10-13T22:48:51:425
71,000000	0,000000	968,000000	0,000000	2020-10-13T22:48:51:465
71,000000	0,000000	795,000000	0,000000	2020-10-13T22:48:51:505
71,000000	0,000000	795,000000	0,000000	2020-10-13T22:48:51:543
71,000000	0,000000	795,000000	0,000000	2020-10-13T22:48:51:584
71,000000	0,000000	795,000000	0,000000	2020-10-13T22:48:51:624
71,000000	0,000000	795,000000	0,000000	2020-10-13T22:48:51:664
71,000000	0,000000	795,000000	0,000000	2020-10-13T22:48:51:703
71,000000	0,000000	795,000000	0,000000	2020-10-13T22:48:51:744
71,000000	0,000000	795,000000	0,000000	2020-10-13T22:48:51:784
71,000000	0,000000	795,000000	0,000000	2020-10-13T22:48:51:826
71,000000	0,000000	795,000000	0,000000	2020-10-13T22:48:51:875
71,000000	0,000000	795,000000	0,000000	2020-10-13T22:48:51:906
71,000000	0,000000	795,000000	0,000000	2020-10-13T22:48:51:945
71,000000	0,000000	795,000000	0,000000	2020-10-13T22:48:51:989
72,000000	0,000000	795,000000	0,000000	2020-10-13T22:48:52:024
72,000000	0,000000	795,000000	0,000000	2020-10-13T22:48:52:104
71,000000	0,000000	795,000000	0,000000	2020-10-13T22:48:52:106
71,000000	0,000000	795,000000	0,000000	2020-10-13T22:48:52:146
71,000000	0,000000	795,000000	0,000000	2020-10-13T22:48:52:185
71,000000	0,000000	795,000000	0,000000	2020-10-13T22:48:52:225
71,000000	0,000000	795,000000	0,000000	2020-10-13T22:48:52:264
71,000000	0,000000	795,000000	0,000000	2020-10-13T22:48:52:305
71,000000	0,000000	776,000000	0,000000	2020-10-13T22:48:52:344
71,000000	0,000000	776,000000	0,000000	2020-10-13T22:48:52:385
72,000000	0,000000	776,000000	0,000000	2020-10-13T22:48:52:424
72,000000	0,000000	776,000000	0,000000	2020-10-13T22:48:52:465
72,000000	0,000000	776,000000	0,000000	2020-10-13T22:48:52:505
71,000000	0,000000	776,000000	0,000000	2020-10-13T22:48:52:545
71,000000	0,000000	776,000000	0,000000	2020-10-13T22:48:52:584
71,000000	0,000000	776,000000	0,000000	2020-10-13T22:48:52:626
71,000000	0,000000	776,000000	0,000000	2020-10-13T22:48:52:664
71,000000	0,000000	776,000000	0,000000	2020-10-13T22:48:52:707
71,000000	0,000000	776,000000	0,000000	2020-10-13T22:48:52:745
71,000000	0,000000	776,000000	0,000000	2020-10-13T22:48:52:786
71,000000	0,000000	776,000000	0,000000	2020-10-13T22:48:52:826
71,000000	0,000000	776,000000	0,000000	2020-10-13T22:48:52:865
72,000000	0,000000	776,000000	0,000000	2020-10-13T22:48:52:904
71,000000	0,000000	776,000000	0,000000	2020-10-13T22:48:52:949
71,000000	0,000000	776,000000	0,000000	2020-10-13T22:48:52:986
71,000000	0,000000	776,000000	0,000000	2020-10-13T22:48:53:026
71,000000	0,000000	776,000000	0,000000	2020-10-13T22:48:53:064
71,000000	0,000000	776,000000	0,000000	2020-10-13T22:48:53:105
71,000000	0,000000	776,000000	0,000000	2020-10-13T22:48:53:147
71,000000	0,000000	857,000000	0,000000	2020-10-13T22:48:53:186
71,000000	0,000000	857,000000	0,000000	2020-10-13T22:48:53:225
71,000000	0,000000	857,000000	0,000000	2020-10-13T22:48:53:265
71,000000	0,000000	857,000000	0,000000	2020-10-13T22:48:53:305
71,000000	0,000000	857,000000	0,000000	2020-10-13T22:48:53:346
71,000000	0,000000	857,000000	0,000000	2020-10-13T22:48:53:385
71,000000	0,000000	857,000000	0,000000	2020-10-13T22:48:53:427
71,000000	0,000000	857,000000	0,000000	2020-10-13T22:48:53:465
71,000000	0,000000	857,000000	0,000000	2020-10-13T22:48:53:506
71,000000	0,000000	857,000000	0,000000	2020-10-13T22:48:53:545
71,000000	0,000000	857,000000	0,000000	2020-10-13T22:48:53:587
71,000000	0,000000	857,000000	0,000000	2020-10-13T22:48:53:627
71,000000	0,000000	857,000000	0,000000	2020-10-13T22:48:53:694
71,000000	0,000000	857,000000	0,000000	2020-10-13T22:48:53:706
71,000000	0,000000	857,000000	0,000000	2020-10-13T22:48:53:748
71,000000	0,000000	857,000000	0,000000	2020-10-13T22:48:53:787
71,000000	0,000000	857,000000	0,000000	2020-10-13T22:48:53:832
71,000000	0,000000	857,000000	0,000000	2020-10-13T22:48:53:865
71,000000	0,000000	857,000000	0,000000	2020-10-13T22:48:53:907
71,000000	0,000000	857,000000	0,000000	2020-10-13T22:48:53:946
71,000000	0,000000	857,000000	0,000000	2020-10-13T22:48:53:986
71,000000	0,000000	944,000000	0,000000	2020-10-13T22:48:54:026
71,000000	0,000000	944,000000	0,000000	2020-10-13T22:48:54:067
71,000000	0,000000	944,000000	0,000000	2020-10-13T22:48:54:105
71,000000	0,000000	944,000000	0,000000	2020-10-13T22:48:54:146
71,000000	0,000000	944,000000	0,000000	2020-10-13T22:48:54:186
71,000000	0,000000	944,000000	0,000000	2020-10-13T22:48:54:227
71,000000	0,000000	944,000000	0,000000	2020-10-13T22:48:54:266
71,000000	0,000000	944,000000	0,000000	2020-10-13T22:48:54:307
71,000000	0,000000	944,000000	0,000000	2020-10-13T22:48:54:346
71,000000	0,000000	944,000000	0,000000	2020-10-13T22:48:54:387
71,000000	0,000000	944,000000	0,000000	2020-10-13T22:48:54:427
71,000000	0,000000	944,000000	0,000000	2020-10-13T22:48:54:467
71,000000	0,000000	944,000000	0,000000	2020-10-13T22:48:54:506
71,000000	0,000000	944,000000	0,000000	2020-10-13T22:48:54:547
71,000000	0,000000	944,000000	0,000000	2020-10-13T22:48:54:587
71,000000	0,000000	944,000000	0,000000	2020-10-13T22:48:54:627
71,000000	0,000000	944,000000	0,000000	2020-10-13T22:48:54:666
71,000000	0,000000	944,000000	0,000000	2020-10-13T22:48:54:708
71,000000	0,000000	944,000000	0,000000	2020-10-13T22:48:54:761
71,000000	0,000000	944,000000	0,000000	2020-10-13T22:48:54:788
71,000000	0,000000	944,000000	0,000000	2020-10-13T22:48:54:828
71,000000	0,000000	795,000000	0,000000	2020-10-13T22:48:54:866
71,000000	0,000000	795,000000	0,000000	2020-10-13T22:48:54:905
71,000000	0,000000	795,000000	0,000000	2020-10-13T22:48:54:950
71,000000	0,000000	795,000000	0,000000	2020-10-13T22:48:54:987
71,000000	0,000000	795,000000	0,000000	2020-10-13T22:48:55:028
71,000000	0,000000	795,000000	0,000000	2020-10-13T22:48:55:067
71,000000	0,000000	795,000000	0,000000	2020-10-13T22:48:55:108
71,000000	0,000000	795,000000	0,000000	2020-10-13T22:48:55:147
71,000000	0,000000	795,000000	0,000000	2020-10-13T22:48:55:188
71,000000	0,000000	795,000000	0,000000	2020-10-13T22:48:55:227
71,000000	0,000000	795,000000	0,000000	2020-10-13T22:48:55:268
71,000000	0,000000	795,000000	0,000000	2020-10-13T22:48:55:307
71,000000	0,000000	795,000000	0,000000	2020-10-13T22:48:55:349
71,000000	0,000000	795,000000	0,000000	2020-10-13T22:48:55:387
71,000000	0,000000	765,000000	0,000000	2020-10-13T22:48:55:428
71,000000	0,000000	765,000000	0,000000	2020-10-13T22:48:55:467
71,000000	0,000000	765,000000	0,000000	2020-10-13T22:48:55:508
71,000000	0,000000	765,000000	0,000000	2020-10-13T22:48:55:546
71,000000	0,000000	765,000000	0,000000	2020-10-13T22:48:55:589
71,000000	0,000000	765,000000	0,000000	2020-10-13T22:48:55:628
71,000000	0,000000	765,000000	0,000000	2020-10-13T22:48:55:668
71,000000	0,000000	765,000000	0,000000	2020-10-13T22:48:55:707
71,000000	0,000000	765,000000	0,000000	2020-10-13T22:48:55:749
72,000000	0,000000	765,000000	0,000000	2020-10-13T22:48:55:787
72,000000	0,000000	765,000000	0,000000	2020-10-13T22:48:55:829
72,000000	0,000000	765,000000	0,000000	2020-10-13T22:48:55:868
71,000000	0,000000	765,000000	0,000000	2020-10-13T22:48:55:914
71,000000	0,000000	765,000000	0,000000	2020-10-13T22:48:55:947
71,000000	0,000000	765,000000	0,000000	2020-10-13T22:48:55:991
71,000000	0,000000	765,000000	0,000000	2020-10-13T22:48:56:028
71,000000	0,000000	765,000000	0,000000	2020-10-13T22:48:56:079
71,000000	0,000000	765,000000	0,000000	2020-10-13T22:48:56:109
71,000000	0,000000	765,000000	0,000000	2020-10-13T22:48:56:149
72,000000	0,000000	765,000000	0,000000	2020-10-13T22:48:56:187
72,000000	0,000000	765,000000	0,000000	2020-10-13T22:48:56:229
72,000000	0,000000	765,000000	0,000000	2020-10-13T22:48:56:267
72,000000	0,000000	765,000000	0,000000	2020-10-13T22:48:56:309
72,000000	0,000000	765,000000	0,000000	2020-10-13T22:48:56:348
72,000000	0,000000	765,000000	0,000000	2020-10-13T22:48:56:389
72,000000	0,000000	765,000000	0,000000	2020-10-13T22:48:56:428
72,000000	0,000000	765,000000	0,000000	2020-10-13T22:48:56:469
72,000000	0,000000	765,000000	0,000000	2020-10-13T22:48:56:508
72,000000	0,000000	811,000000	0,000000	2020-10-13T22:48:56:550
72,000000	0,000000	811,000000	0,000000	2020-10-13T22:48:56:588
72,000000	0,000000	811,000000	0,000000	2020-10-13T22:48:56:630
72,000000	0,000000	811,000000	0,000000	2020-10-13T22:48:56:669
72,000000	0,000000	811,000000	0,000000	2020-10-13T22:48:56:711
72,000000	0,000000	811,000000	0,000000	2020-10-13T22:48:56:748
72,000000	0,000000	811,000000	0,000000	2020-10-13T22:48:56:789
72,000000	0,000000	811,000000	0,000000	2020-10-13T22:48:56:830
72,000000	0,000000	811,000000	0,000000	2020-10-13T22:48:56:869
72,000000	0,000000	811,000000	0,000000	2020-10-13T22:48:56:908
72,000000	0,000000	811,000000	0,000000	2020-10-13T22:48:56:950
72,000000	0,000000	811,000000	0,000000	2020-10-13T22:48:56:988
72,000000	0,000000	811,000000	0,000000	2020-10-13T22:48:57:030
72,000000	0,000000	811,000000	0,000000	2020-10-13T22:48:57:069
72,000000	0,000000	811,000000	0,000000	2020-10-13T22:48:57:108
72,000000	0,000000	811,000000	0,000000	2020-10-13T22:48:57:149
72,000000	0,000000	811,000000	0,000000	2020-10-13T22:48:57:190
72,000000	0,000000	811,000000	0,000000	2020-10-13T22:48:57:230
72,000000	0,000000	811,000000	0,000000	2020-10-13T22:48:57:269
72,000000	0,000000	811,000000	0,000000	2020-10-13T22:48:57:310
72,000000	0,000000	811,000000	0,000000	2020-10-13T22:48:57:351
72,000000	0,000000	867,000000	0,000000	2020-10-13T22:48:57:389
72,000000	0,000000	867,000000	0,000000	2020-10-13T22:48:57:432
72,000000	0,000000	867,000000	0,000000	2020-10-13T22:48:57:475
72,000000	0,000000	867,000000	0,000000	2020-10-13T22:48:57:510
72,000000	0,000000	867,000000	0,000000	2020-10-13T22:48:57:548
72,000000	0,000000	867,000000	0,000000	2020-10-13T22:48:57:591
72,000000	0,000000	867,000000	0,000000	2020-10-13T22:48:57:629
72,000000	0,000000	867,000000	0,000000	2020-10-13T22:48:57:670
72,000000	0,000000	867,000000	0,000000	2020-10-13T22:48:57:709
72,000000	0,000000	867,000000	0,000000	2020-10-13T22:48:57:751
72,000000	0,000000	867,000000	0,000000	2020-10-13T22:48:57:789
72,000000	0,000000	867,000000	0,000000	2020-10-13T22:48:57:831
72,000000	0,000000	867,000000	0,000000	2020-10-13T22:48:57:869
72,000000	0,000000	867,000000	0,000000	2020-10-13T22:48:57:911
72,000000	0,000000	888,000000	0,000000	2020-10-13T22:48:57:950
72,000000	0,000000	888,000000	0,000000	2020-10-13T22:48:57:990
72,000000	0,000000	888,000000	0,000000	2020-10-13T22:48:58:030
72,000000	0,000000	888,000000	0,000000	2020-10-13T22:48:58:128
72,000000	0,000000	888,000000	0,000000	2020-10-13T22:48:58:130
72,000000	0,000000	888,000000	0,000000	2020-10-13T22:48:58:177
72,000000	0,000000	888,000000	0,000000	2020-10-13T22:48:58:189
72,000000	0,000000	888,000000	0,000000	2020-10-13T22:48:58:231
72,000000	0,000000	888,000000	0,000000	2020-10-13T22:48:58:269
72,000000	0,000000	888,000000	0,000000	2020-10-13T22:48:58:309
72,000000	0,000000	888,000000	0,000000	2020-10-13T22:48:58:348
72,000000	0,000000	888,000000	0,000000	2020-10-13T22:48:58:391
72,000000	0,000000	888,000000	0,000000	2020-10-13T22:48:58:430
72,000000	0,000000	888,000000	0,000000	2020-10-13T22:48:58:471
72,000000	0,000000	888,000000	0,000000	2020-10-13T22:48:58:512
72,000000	0,000000	888,000000	0,000000	2020-10-13T22:48:58:549
72,000000	0,000000	888,000000	0,000000	2020-10-13T22:48:58:590
72,000000	0,000000	888,000000	0,000000	2020-10-13T22:48:58:632
72,000000	0,000000	888,000000	0,000000	2020-10-13T22:48:58:670
72,000000	0,000000	888,000000	0,000000	2020-10-13T22:48:58:711
72,000000	0,000000	888,000000	0,000000	2020-10-13T22:48:58:750
72,000000	0,000000	762,000000	0,000000	2020-10-13T22:48:58:791
72,000000	0,000000	762,000000	0,000000	2020-10-13T22:48:58:832
72,000000	0,000000	762,000000	0,000000	2020-10-13T22:48:58:871
72,000000	0,000000	762,000000	0,000000	2020-10-13T22:48:58:910
72,000000	0,000000	762,000000	0,000000	2020-10-13T22:48:58:950
72,000000	0,000000	762,000000	0,000000	2020-10-13T22:48:58:991
72,000000	0,000000	762,000000	0,000000	2020-10-13T22:48:59:032
72,000000	0,000000	762,000000	0,000000	2020-10-13T22:48:59:071
72,000000	0,000000	762,000000	0,000000	2020-10-13T22:48:59:111
72,000000	0,000000	762,000000	0,000000	2020-10-13T22:48:59:151
72,000000	0,000000	762,000000	0,000000	2020-10-13T22:48:59:191
72,000000	0,000000	762,000000	0,000000	2020-10-13T22:48:59:232
72,000000	0,000000	762,000000	0,000000	2020-10-13T22:48:59:271
72,000000	0,000000	762,000000	0,000000	2020-10-13T22:48:59:311
72,000000	0,000000	762,000000	0,000000	2020-10-13T22:48:59:352
72,000000	0,000000	762,000000	0,000000	2020-10-13T22:48:59:391
72,000000	0,000000	762,000000	0,000000	2020-10-13T22:48:59:433
72,000000	0,000000	762,000000	0,000000	2020-10-13T22:48:59:479
72,000000	0,000000	762,000000	0,000000	2020-10-13T22:48:59:513
72,000000	0,000000	762,000000	0,000000	2020-10-13T22:48:59:554
72,000000	0,000000	762,000000	0,000000	2020-10-13T22:48:59:593
72,000000	0,000000	749,000000	0,000000	2020-10-13T22:48:59:632
72,000000	0,000000	749,000000	0,000000	2020-10-13T22:48:59:672
72,000000	0,000000	749,000000	0,000000	2020-10-13T22:48:59:711
72,000000	0,000000	749,000000	0,000000	2020-10-13T22:48:59:752
72,000000	0,000000	749,000000	0,000000	2020-10-13T22:48:59:791
72,000000	0,000000	749,000000	0,000000	2020-10-13T22:48:59:833
72,000000	0,000000	749,000000	0,000000	2020-10-13T22:48:59:871
72,000000	0,000000	749,000000	0,000000	2020-10-13T22:48:59:915
72,000000	0,000000	749,000000	0,000000	2020-10-13T22:48:59:952
72,000000	0,000000	749,000000	0,000000	2020-10-13T22:48:59:993
72,000000	0,000000	749,000000	0,000000	2020-10-13T22:49:00:033
72,000000	0,000000	749,000000	0,000000	2020-10-13T22:49:00:072
72,000000	0,000000	749,000000	0,000000	2020-10-13T22:49:00:112
72,000000	0,000000	749,000000	0,000000	2020-10-13T22:49:00:157
72,000000	0,000000	749,000000	0,000000	2020-10-13T22:49:00:192
72,000000	0,000000	749,000000	0,000000	2020-10-13T22:49:00:233
73,000000	0,000000	749,000000	0,000000	2020-10-13T22:49:00:271
73,000000	0,000000	749,000000	0,000000	2020-10-13T22:49:00:313
73,000000	0,000000	749,000000	0,000000	2020-10-13T22:49:00:351
73,000000	0,000000	749,000000	0,000000	2020-10-13T22:49:00:393
73,000000	0,000000	749,000000	0,000000	2020-10-13T22:49:00:435
73,000000	0,000000	771,000000	0,000000	2020-10-13T22:49:00:474
73,000000	0,000000	771,000000	0,000000	2020-10-13T22:49:00:514
73,000000	0,000000	771,000000	0,000000	2020-10-13T22:49:00:554
73,000000	0,000000	771,000000	0,000000	2020-10-13T22:49:00:591
73,000000	0,000000	771,000000	0,000000	2020-10-13T22:49:00:633
73,000000	0,000000	771,000000	0,000000	2020-10-13T22:49:00:672
73,000000	0,000000	771,000000	0,000000	2020-10-13T22:49:00:713
73,000000	0,000000	771,000000	0,000000	2020-10-13T22:49:00:752
73,000000	0,000000	771,000000	0,000000	2020-10-13T22:49:00:794
73,000000	0,000000	771,000000	0,000000	2020-10-13T22:49:00:833
73,000000	0,000000	771,000000	0,000000	2020-10-13T22:49:00:873
73,000000	0,000000	771,000000	0,000000	2020-10-13T22:49:00:913
73,000000	0,000000	771,000000	0,000000	2020-10-13T22:49:00:953
73,000000	0,000000	771,000000	0,000000	2020-10-13T22:49:00:992
73,000000	0,000000	771,000000	0,000000	2020-10-13T22:49:01:034
73,000000	0,000000	771,000000	0,000000	2020-10-13T22:49:01:074
73,000000	0,000000	771,000000	0,000000	2020-10-13T22:49:01:113
73,000000	0,000000	771,000000	0,000000	2020-10-13T22:49:01:154
73,000000	0,000000	771,000000	0,000000	2020-10-13T22:49:01:194
73,000000	0,000000	771,000000	0,000000	2020-10-13T22:49:01:235
73,000000	0,000000	771,000000	0,000000	2020-10-13T22:49:01:274
73,000000	0,000000	857,000000	0,000000	2020-10-13T22:49:01:313
73,000000	0,000000	857,000000	0,000000	2020-10-13T22:49:01:354
73,000000	0,000000	857,000000	0,000000	2020-10-13T22:49:01:393
73,000000	0,000000	857,000000	0,000000	2020-10-13T22:49:01:434
73,000000	0,000000	857,000000	0,000000	2020-10-13T22:49:01:473
73,000000	0,000000	857,000000	0,000000	2020-10-13T22:49:01:521
73,000000	0,000000	857,000000	0,000000	2020-10-13T22:49:01:554
73,000000	0,000000	857,000000	0,000000	2020-10-13T22:49:01:600
73,000000	0,000000	857,000000	0,000000	2020-10-13T22:49:01:634
73,000000	0,000000	857,000000	0,000000	2020-10-13T22:49:01:675
73,000000	0,000000	857,000000	0,000000	2020-10-13T22:49:01:713
73,000000	0,000000	857,000000	0,000000	2020-10-13T22:49:01:754
73,000000	0,000000	857,000000	0,000000	2020-10-13T22:49:01:793
73,000000	0,000000	857,000000	0,000000	2020-10-13T22:49:01:835
73,000000	0,000000	857,000000	0,000000	2020-10-13T22:49:01:873
72,000000	0,000000	857,000000	0,000000	2020-10-13T22:49:01:915
73,000000	0,000000	857,000000	0,000000	2020-10-13T22:49:01:953
73,000000	0,000000	857,000000	0,000000	2020-10-13T22:49:01:996
73,000000	0,000000	857,000000	0,000000	2020-10-13T22:49:02:033
73,000000	0,000000	857,000000	0,000000	2020-10-13T22:49:02:103
73,000000	0,000000	857,000000	0,000000	2020-10-13T22:49:02:116
73,000000	0,000000	953,000000	0,000000	2020-10-13T22:49:02:179
73,000000	0,000000	953,000000	0,000000	2020-10-13T22:49:02:194
73,000000	0,000000	953,000000	0,000000	2020-10-13T22:49:02:235
73,000000	0,000000	953,000000	0,000000	2020-10-13T22:49:02:272
72,000000	0,000000	953,000000	0,000000	2020-10-13T22:49:02:317
73,000000	0,000000	953,000000	0,000000	2020-10-13T22:49:02:355
73,000000	0,000000	953,000000	0,000000	2020-10-13T22:49:02:394
73,000000	0,000000	953,000000	0,000000	2020-10-13T22:49:02:435
73,000000	0,000000	953,000000	0,000000	2020-10-13T22:49:02:475
73,000000	0,000000	953,000000	0,000000	2020-10-13T22:49:02:514
73,000000	0,000000	953,000000	0,000000	2020-10-13T22:49:02:554
73,000000	0,000000	953,000000	0,000000	2020-10-13T22:49:02:595
73,000000	0,000000	953,000000	0,000000	2020-10-13T22:49:02:635
73,000000	0,000000	953,000000	0,000000	2020-10-13T22:49:02:674
72,000000	0,000000	953,000000	0,000000	2020-10-13T22:49:02:715
72,000000	0,000000	953,000000	0,000000	2020-10-13T22:49:02:754
72,000000	0,000000	953,000000	0,000000	2020-10-13T22:49:02:795
73,000000	0,000000	953,000000	0,000000	2020-10-13T22:49:02:835
73,000000	0,000000	953,000000	0,000000	2020-10-13T22:49:02:876
73,000000	0,000000	953,000000	0,000000	2020-10-13T22:49:02:918
72,000000	0,000000	953,000000	0,000000	2020-10-13T22:49:02:955
72,000000	0,000000	800,000000	0,000000	2020-10-13T22:49:02:995
73,000000	0,000000	800,000000	0,000000	2020-10-13T22:49:03:037
73,000000	0,000000	800,000000	0,000000	2020-10-13T22:49:03:086
72,000000	0,000000	800,000000	0,000000	2020-10-13T22:49:03:115
72,000000	0,000000	800,000000	0,000000	2020-10-13T22:49:03:166
72,000000	0,000000	800,000000	0,000000	2020-10-13T22:49:03:195
73,000000	0,000000	800,000000	0,000000	2020-10-13T22:49:03:234
73,000000	0,000000	800,000000	0,000000	2020-10-13T22:49:03:275
72,000000	0,000000	800,000000	0,000000	2020-10-13T22:49:03:315
72,000000	0,000000	800,000000	0,000000	2020-10-13T22:49:03:355
72,000000	0,000000	800,000000	0,000000	2020-10-13T22:49:03:394
72,000000	0,000000	800,000000	0,000000	2020-10-13T22:49:03:436
72,000000	0,000000	800,000000	0,000000	2020-10-13T22:49:03:474
72,000000	0,000000	800,000000	0,000000	2020-10-13T22:49:03:517
72,000000	0,000000	800,000000	0,000000	2020-10-13T22:49:03:555
72,000000	0,000000	800,000000	0,000000	2020-10-13T22:49:03:602
73,000000	0,000000	800,000000	0,000000	2020-10-13T22:49:03:635
73,000000	0,000000	800,000000	0,000000	2020-10-13T22:49:03:684
73,000000	0,000000	800,000000	0,000000	2020-10-13T22:49:03:715
72,000000	0,000000	800,000000	0,000000	2020-10-13T22:49:03:757
72,000000	0,000000	800,000000	0,000000	2020-10-13T22:49:03:795
72,000000	0,000000	802,000000	0,000000	2020-10-13T22:49:03:837
73,000000	0,000000	802,000000	0,000000	2020-10-13T22:49:03:875
72,000000	0,000000	802,000000	0,000000	2020-10-13T22:49:03:916
72,000000	0,000000	802,000000	0,000000	2020-10-13T22:49:03:955
72,000000	0,000000	802,000000	0,000000	2020-10-13T22:49:03:996
73,000000	0,000000	802,000000	0,000000	2020-10-13T22:49:04:037
73,000000	0,000000	802,000000	0,000000	2020-10-13T22:49:04:081
73,000000	0,000000	802,000000	0,000000	2020-10-13T22:49:04:116
72,000000	0,000000	802,000000	0,000000	2020-10-13T22:49:04:157
72,000000	0,000000	802,000000	0,000000	2020-10-13T22:49:04:195
73,000000	0,000000	802,000000	0,000000	2020-10-13T22:49:04:237
73,000000	0,000000	802,000000	0,000000	2020-10-13T22:49:04:280
73,000000	0,000000	802,000000	0,000000	2020-10-13T22:49:04:316
72,000000	0,000000	802,000000	0,000000	2020-10-13T22:49:04:355
73,000000	0,000000	802,000000	0,000000	2020-10-13T22:49:04:400
73,000000	0,000000	802,000000	0,000000	2020-10-13T22:49:04:435
73,000000	0,000000	802,000000	0,000000	2020-10-13T22:49:04:479
73,000000	0,000000	802,000000	0,000000	2020-10-13T22:49:04:515
73,000000	0,000000	802,000000	0,000000	2020-10-13T22:49:04:558
73,000000	0,000000	802,000000	0,000000	2020-10-13T22:49:04:595
73,000000	0,000000	802,000000	0,000000	2020-10-13T22:49:04:636
73,000000	0,000000	778,000000	0,000000	2020-10-13T22:49:04:674
73,000000	0,000000	778,000000	0,000000	2020-10-13T22:49:04:717
73,000000	0,000000	778,000000	0,000000	2020-10-13T22:49:04:756
73,000000	0,000000	778,000000	0,000000	2020-10-13T22:49:04:797
73,000000	0,000000	778,000000	0,000000	2020-10-13T22:49:04:836
