light_intensity	ts
2097152,000000	2020-10-13T22:47:48:172
2097152,000000	2020-10-13T22:47:48:178
2764493,000000	2020-10-13T22:47:48:219
2765007,000000	2020-10-13T22:47:48:259
2765594,000000	2020-10-13T22:47:48:300
2766214,000000	2020-10-13T22:47:48:339
2766719,000000	2020-10-13T22:47:48:378
2767363,000000	2020-10-13T22:47:48:418
2767245,000000	2020-10-13T22:47:48:459
2766739,000000	2020-10-13T22:47:48:499
2766394,000000	2020-10-13T22:47:48:543
2171120,000000	2020-10-13T22:47:48:583
2170742,000000	2020-10-13T22:47:48:619
2170570,000000	2020-10-13T22:47:48:659
2170502,000000	2020-10-13T22:47:48:699
2170223,000000	2020-10-13T22:47:48:739
2119069,000000	2020-10-13T22:47:48:780
2119314,000000	2020-10-13T22:47:48:819
2119322,000000	2020-10-13T22:47:48:859
2120166,000000	2020-10-13T22:47:48:900
2120428,000000	2020-10-13T22:47:48:939
2076340,000000	2020-10-13T22:47:48:979
2078118,000000	2020-10-13T22:47:49:022
2079805,000000	2020-10-13T22:47:49:059
2081459,000000	2020-10-13T22:47:49:101
2082828,000000	2020-10-13T22:47:49:142
2083352,000000	2020-10-13T22:47:49:181
2080933,000000	2020-10-13T22:47:49:221
2077173,000000	2020-10-13T22:47:49:264
2074765,000000	2020-10-13T22:47:49:301
2071999,000000	2020-10-13T22:47:49:342
2069484,000000	2020-10-13T22:47:49:382
2068399,000000	2020-10-13T22:47:49:422
2066953,000000	2020-10-13T22:47:49:462
2066410,000000	2020-10-13T22:47:49:507
2065690,000000	2020-10-13T22:47:49:542
2065277,000000	2020-10-13T22:47:49:582
2064550,000000	2020-10-13T22:47:49:621
2065357,000000	2020-10-13T22:47:49:662
2065974,000000	2020-10-13T22:47:49:703
2067918,000000	2020-10-13T22:47:49:746
2068888,000000	2020-10-13T22:47:49:783
2070644,000000	2020-10-13T22:47:49:823
2072893,000000	2020-10-13T22:47:49:864
2074341,000000	2020-10-13T22:47:49:903
2073328,000000	2020-10-13T22:47:49:942
2069862,000000	2020-10-13T22:47:49:986
2066519,000000	2020-10-13T22:47:50:038
2063534,000000	2020-10-13T22:47:50:063
2061160,000000	2020-10-13T22:47:50:102
2059960,000000	2020-10-13T22:47:50:142
2059157,000000	2020-10-13T22:47:50:182
2058076,000000	2020-10-13T22:47:50:227
2057021,000000	2020-10-13T22:47:50:263
2056663,000000	2020-10-13T22:47:50:303
2056578,000000	2020-10-13T22:47:50:343
2057765,000000	2020-10-13T22:47:50:382
2058977,000000	2020-10-13T22:47:50:421
2060772,000000	2020-10-13T22:47:50:467
2063360,000000	2020-10-13T22:47:50:503
2064982,000000	2020-10-13T22:47:50:543
2066256,000000	2020-10-13T22:47:50:585
2068379,000000	2020-10-13T22:47:50:624
2071007,000000	2020-10-13T22:47:50:673
2075245,000000	2020-10-13T22:47:50:707
2079012,000000	2020-10-13T22:47:50:744
2079758,000000	2020-10-13T22:47:50:787
2078907,000000	2020-10-13T22:47:50:823
2077322,000000	2020-10-13T22:47:50:866
2074925,000000	2020-10-13T22:47:50:904
2072328,000000	2020-10-13T22:47:50:945
2069952,000000	2020-10-13T22:47:50:983
2069682,000000	2020-10-13T22:47:51:023
2069683,000000	2020-10-13T22:47:51:064
2070195,000000	2020-10-13T22:47:51:103
2070914,000000	2020-10-13T22:47:51:143
2071873,000000	2020-10-13T22:47:51:185
2073015,000000	2020-10-13T22:47:51:223
2074509,000000	2020-10-13T22:47:51:263
2076531,000000	2020-10-13T22:47:51:304
2078183,000000	2020-10-13T22:47:51:343
2080931,000000	2020-10-13T22:47:51:385
2083666,000000	2020-10-13T22:47:51:427
2086432,000000	2020-10-13T22:47:51:463
2088990,000000	2020-10-13T22:47:51:504
2092548,000000	2020-10-13T22:47:51:545
2095565,000000	2020-10-13T22:47:51:584
2096232,000000	2020-10-13T22:47:51:623
2095755,000000	2020-10-13T22:47:51:667
2095354,000000	2020-10-13T22:47:51:704
2096140,000000	2020-10-13T22:47:51:744
2097033,000000	2020-10-13T22:47:51:784
2097606,000000	2020-10-13T22:47:51:824
2099655,000000	2020-10-13T22:47:51:864
2102221,000000	2020-10-13T22:47:51:908
2104330,000000	2020-10-13T22:47:51:951
2106807,000000	2020-10-13T22:47:51:986
2109184,000000	2020-10-13T22:47:52:028
2111893,000000	2020-10-13T22:47:52:064
2115011,000000	2020-10-13T22:47:52:111
2117715,000000	2020-10-13T22:47:52:146
2120926,000000	2020-10-13T22:47:52:184
2123797,000000	2020-10-13T22:47:52:232
2128705,000000	2020-10-13T22:47:52:265
2128705,000000	2020-10-13T22:47:52:313
2129786,000000	2020-10-13T22:47:52:345
2128650,000000	2020-10-13T22:47:52:386
2128347,000000	2020-10-13T22:47:52:423
2128641,000000	2020-10-13T22:47:52:464
2127946,000000	2020-10-13T22:47:52:505
2128299,000000	2020-10-13T22:47:52:555
2129948,000000	2020-10-13T22:47:52:584
2131294,000000	2020-10-13T22:47:52:628
2132871,000000	2020-10-13T22:47:52:665
2134077,000000	2020-10-13T22:47:52:704
2135591,000000	2020-10-13T22:47:52:745
2137235,000000	2020-10-13T22:47:52:784
2139508,000000	2020-10-13T22:47:52:825
2141520,000000	2020-10-13T22:47:52:869
2143496,000000	2020-10-13T22:47:52:908
2145919,000000	2020-10-13T22:47:52:946
2148792,000000	2020-10-13T22:47:52:987
2151113,000000	2020-10-13T22:47:53:026
2152290,000000	2020-10-13T22:47:53:066
2151965,000000	2020-10-13T22:47:53:110
2150291,000000	2020-10-13T22:47:53:145
2149990,000000	2020-10-13T22:47:53:185
2149571,000000	2020-10-13T22:47:53:225
2149250,000000	2020-10-13T22:47:53:266
2149290,000000	2020-10-13T22:47:53:306
2150006,000000	2020-10-13T22:47:53:348
2150691,000000	2020-10-13T22:47:53:386
2150983,000000	2020-10-13T22:47:53:425
2151399,000000	2020-10-13T22:47:53:467
2152143,000000	2020-10-13T22:47:53:506
2153979,000000	2020-10-13T22:47:53:546
2154623,000000	2020-10-13T22:47:53:589
2156729,000000	2020-10-13T22:47:53:625
2159037,000000	2020-10-13T22:47:53:667
2161315,000000	2020-10-13T22:47:53:706
2164190,000000	2020-10-13T22:47:53:746
2166353,000000	2020-10-13T22:47:53:786
2169147,000000	2020-10-13T22:47:53:829
2171748,000000	2020-10-13T22:47:53:867
2172439,000000	2020-10-13T22:47:53:906
2172262,000000	2020-10-13T22:47:53:946
2171925,000000	2020-10-13T22:47:53:986
2171948,000000	2020-10-13T22:47:54:027
2171274,000000	2020-10-13T22:47:54:070
2171013,000000	2020-10-13T22:47:54:109
2171148,000000	2020-10-13T22:47:54:145
2171843,000000	2020-10-13T22:47:54:191
2172483,000000	2020-10-13T22:47:54:227
2172765,000000	2020-10-13T22:47:54:266
2173408,000000	2020-10-13T22:47:54:316
2173616,000000	2020-10-13T22:47:54:347
2175042,000000	2020-10-13T22:47:54:386
2176171,000000	2020-10-13T22:47:54:425
2178092,000000	2020-10-13T22:47:54:475
2180118,000000	2020-10-13T22:47:54:507
2181682,000000	2020-10-13T22:47:54:552
2182801,000000	2020-10-13T22:47:54:587
2183754,000000	2020-10-13T22:47:54:626
2184773,000000	2020-10-13T22:47:54:667
2185907,000000	2020-10-13T22:47:54:707
2186377,000000	2020-10-13T22:47:54:747
2186163,000000	2020-10-13T22:47:54:791
2185360,000000	2020-10-13T22:47:54:827
2185855,000000	2020-10-13T22:47:54:867
2187455,000000	2020-10-13T22:47:54:907
2188584,000000	2020-10-13T22:47:54:948
2189747,000000	2020-10-13T22:47:54:990
2190793,000000	2020-10-13T22:47:55:029
2192387,000000	2020-10-13T22:47:55:067
2193060,000000	2020-10-13T22:47:55:109
2193682,000000	2020-10-13T22:47:55:151
2194276,000000	2020-10-13T22:47:55:188
2195176,000000	2020-10-13T22:47:55:229
2197774,000000	2020-10-13T22:47:55:271
2198779,000000	2020-10-13T22:47:55:309
2200426,000000	2020-10-13T22:47:55:346
2201115,000000	2020-10-13T22:47:55:386
2201264,000000	2020-10-13T22:47:55:427
2201252,000000	2020-10-13T22:47:55:467
2199845,000000	2020-10-13T22:47:55:510
2197718,000000	2020-10-13T22:47:55:546
2195891,000000	2020-10-13T22:47:55:587
2194462,000000	2020-10-13T22:47:55:627
2193141,000000	2020-10-13T22:47:55:668
2192569,000000	2020-10-13T22:47:55:707
2191747,000000	2020-10-13T22:47:55:750
2191007,000000	2020-10-13T22:47:55:797
2190778,000000	2020-10-13T22:47:55:829
2190237,000000	2020-10-13T22:47:55:868
2190020,000000	2020-10-13T22:47:55:906
2190094,000000	2020-10-13T22:47:55:946
2190204,000000	2020-10-13T22:47:55:990
2190633,000000	2020-10-13T22:47:56:027
2191337,000000	2020-10-13T22:47:56:068
2191940,000000	2020-10-13T22:47:56:108
2191737,000000	2020-10-13T22:47:56:147
2191087,000000	2020-10-13T22:47:56:187
2188099,000000	2020-10-13T22:47:56:229
2184134,000000	2020-10-13T22:47:56:268
2179005,000000	2020-10-13T22:47:56:308
2174476,000000	2020-10-13T22:47:56:348
2170270,000000	2020-10-13T22:47:56:388
2165920,000000	2020-10-13T22:47:56:427
2164038,000000	2020-10-13T22:47:56:471
2163244,000000	2020-10-13T22:47:56:508
2162115,000000	2020-10-13T22:47:56:549
2161099,000000	2020-10-13T22:47:56:589
2160362,000000	2020-10-13T22:47:56:629
2159246,000000	2020-10-13T22:47:56:670
2157594,000000	2020-10-13T22:47:56:713
2157300,000000	2020-10-13T22:47:56:747
2156767,000000	2020-10-13T22:47:56:791
2157079,000000	2020-10-13T22:47:56:830
2158200,000000	2020-10-13T22:47:56:868
2159512,000000	2020-10-13T22:47:56:908
2161124,000000	2020-10-13T22:47:56:951
2160984,000000	2020-10-13T22:47:56:988
2159066,000000	2020-10-13T22:47:57:028
2156237,000000	2020-10-13T22:47:57:069
2153771,000000	2020-10-13T22:47:57:108
2150019,000000	2020-10-13T22:47:57:149
2147099,000000	2020-10-13T22:47:57:190
2144770,000000	2020-10-13T22:47:57:229
2142446,000000	2020-10-13T22:47:57:269
2140801,000000	2020-10-13T22:47:57:309
2138567,000000	2020-10-13T22:47:57:348
2136240,000000	2020-10-13T22:47:57:389
2134447,000000	2020-10-13T22:47:57:430
2133733,000000	2020-10-13T22:47:57:469
2133515,000000	2020-10-13T22:47:57:509
2134624,000000	2020-10-13T22:47:57:549
2137225,000000	2020-10-13T22:47:57:588
2138702,000000	2020-10-13T22:47:57:629
2138523,000000	2020-10-13T22:47:57:671
2139797,000000	2020-10-13T22:47:57:709
2140102,000000	2020-10-13T22:47:57:749
2138755,000000	2020-10-13T22:47:57:789
2136633,000000	2020-10-13T22:47:57:829
2135359,000000	2020-10-13T22:47:57:869
2133774,000000	2020-10-13T22:47:57:914
2132410,000000	2020-10-13T22:47:57:949
2130299,000000	2020-10-13T22:47:57:989
2129440,000000	2020-10-13T22:47:58:029
2128111,000000	2020-10-13T22:47:58:068
2126952,000000	2020-10-13T22:47:58:135
2125731,000000	2020-10-13T22:47:58:149
2125489,000000	2020-10-13T22:47:58:193
2125687,000000	2020-10-13T22:47:58:230
2126081,000000	2020-10-13T22:47:58:271
2126261,000000	2020-10-13T22:47:58:311
2126927,000000	2020-10-13T22:47:58:348
2127458,000000	2020-10-13T22:47:58:392
2128229,000000	2020-10-13T22:47:58:429
2128710,000000	2020-10-13T22:47:58:470
2127703,000000	2020-10-13T22:47:58:510
2125565,000000	2020-10-13T22:47:58:550
2123853,000000	2020-10-13T22:47:58:590
2122315,000000	2020-10-13T22:47:58:630
2120776,000000	2020-10-13T22:47:58:670
2120246,000000	2020-10-13T22:47:58:710
2118890,000000	2020-10-13T22:47:58:750
2118575,000000	2020-10-13T22:47:58:790
2117747,000000	2020-10-13T22:47:58:833
2116683,000000	2020-10-13T22:47:58:871
2116294,000000	2020-10-13T22:47:58:923
2116584,000000	2020-10-13T22:47:58:949
2116937,000000	2020-10-13T22:47:58:992
2117797,000000	2020-10-13T22:47:59:031
2118957,000000	2020-10-13T22:47:59:072
2120913,000000	2020-10-13T22:47:59:112
2122010,000000	2020-10-13T22:47:59:149
2123123,000000	2020-10-13T22:47:59:190
2124209,000000	2020-10-13T22:47:59:231
2122358,000000	2020-10-13T22:47:59:295
2119867,000000	2020-10-13T22:47:59:310
2117762,000000	2020-10-13T22:47:59:363
2116278,000000	2020-10-13T22:47:59:391
2113875,000000	2020-10-13T22:47:59:432
2112063,000000	2020-10-13T22:47:59:471
2110708,000000	2020-10-13T22:47:59:511
2109097,000000	2020-10-13T22:47:59:551
2107755,000000	2020-10-13T22:47:59:596
2106307,000000	2020-10-13T22:47:59:631
2104953,000000	2020-10-13T22:47:59:671
2104302,000000	2020-10-13T22:47:59:711
2103716,000000	2020-10-13T22:47:59:750
2103885,000000	2020-10-13T22:47:59:791
2104499,000000	2020-10-13T22:47:59:837
2105216,000000	2020-10-13T22:47:59:870
2106069,000000	2020-10-13T22:47:59:919
2106228,000000	2020-10-13T22:47:59:952
2106737,000000	2020-10-13T22:47:59:990
2106857,000000	2020-10-13T22:48:00:032
2106324,000000	2020-10-13T22:48:00:079
2103994,000000	2020-10-13T22:48:00:111
2101013,000000	2020-10-13T22:48:00:151
2097392,000000	2020-10-13T22:48:00:192
2095281,000000	2020-10-13T22:48:00:232
2093379,000000	2020-10-13T22:48:00:272
2092399,000000	2020-10-13T22:48:00:314
2091309,000000	2020-10-13T22:48:00:351
2090243,000000	2020-10-13T22:48:00:391
2088972,000000	2020-10-13T22:48:00:431
2088693,000000	2020-10-13T22:48:00:472
2088556,000000	2020-10-13T22:48:00:513
2088926,000000	2020-10-13T22:48:00:555
2090229,000000	2020-10-13T22:48:00:598
2091207,000000	2020-10-13T22:48:00:633
2092314,000000	2020-10-13T22:48:00:677
2094028,000000	2020-10-13T22:48:00:712
2096023,000000	2020-10-13T22:48:00:755
2097960,000000	2020-10-13T22:48:00:795
2100017,000000	2020-10-13T22:48:00:832
2100882,000000	2020-10-13T22:48:00:873
2099366,000000	2020-10-13T22:48:00:913
2096739,000000	2020-10-13T22:48:00:952
2094518,000000	2020-10-13T22:48:00:992
2093267,000000	2020-10-13T22:48:01:035
2092240,000000	2020-10-13T22:48:01:076
2091283,000000	2020-10-13T22:48:01:113
2091430,000000	2020-10-13T22:48:01:153
2091597,000000	2020-10-13T22:48:01:195
2091675,000000	2020-10-13T22:48:01:234
2092260,000000	2020-10-13T22:48:01:280
2092951,000000	2020-10-13T22:48:01:313
2094219,000000	2020-10-13T22:48:01:352
2095630,000000	2020-10-13T22:48:01:393
2098027,000000	2020-10-13T22:48:01:435
2099669,000000	2020-10-13T22:48:01:474
2100982,000000	2020-10-13T22:48:01:516
2103267,000000	2020-10-13T22:48:01:553
2105064,000000	2020-10-13T22:48:01:593
2107331,000000	2020-10-13T22:48:01:633
2107707,000000	2020-10-13T22:48:01:673
2106803,000000	2020-10-13T22:48:01:729
2104829,000000	2020-10-13T22:48:01:925
2104290,000000	2020-10-13T22:48:01:926
2103803,000000	2020-10-13T22:48:01:927
2103436,000000	2020-10-13T22:48:01:930
2103413,000000	2020-10-13T22:48:01:933
2103781,000000	2020-10-13T22:48:01:951
2103405,000000	2020-10-13T22:48:01:995
2102614,000000	2020-10-13T22:48:02:032
2103075,000000	2020-10-13T22:48:02:075
2103956,000000	2020-10-13T22:48:02:141
2105460,000000	2020-10-13T22:48:02:169
2107595,000000	2020-10-13T22:48:02:200
2109610,000000	2020-10-13T22:48:02:255
2110961,000000	2020-10-13T22:48:02:274
2112770,000000	2020-10-13T22:48:02:316
2114049,000000	2020-10-13T22:48:02:352
2113974,000000	2020-10-13T22:48:02:404
2113121,000000	2020-10-13T22:48:02:437
2111433,000000	2020-10-13T22:48:02:528
2110261,000000	2020-10-13T22:48:02:530
2109825,000000	2020-10-13T22:48:02:556
2109515,000000	2020-10-13T22:48:02:593
2108789,000000	2020-10-13T22:48:02:633
2107918,000000	2020-10-13T22:48:02:674
2107603,000000	2020-10-13T22:48:02:719
2106886,000000	2020-10-13T22:48:02:754
2106734,000000	2020-10-13T22:48:02:794
2106288,000000	2020-10-13T22:48:02:835
2106890,000000	2020-10-13T22:48:02:875
2107568,000000	2020-10-13T22:48:02:913
2108736,000000	2020-10-13T22:48:02:957
2110134,000000	2020-10-13T22:48:02:994
2111063,000000	2020-10-13T22:48:03:040
2112620,000000	2020-10-13T22:48:03:099
2113263,000000	2020-10-13T22:48:03:137
2112298,000000	2020-10-13T22:48:03:154
2109875,000000	2020-10-13T22:48:03:196
2108635,000000	2020-10-13T22:48:03:235
2106833,000000	2020-10-13T22:48:03:276
2105104,000000	2020-10-13T22:48:03:315
2103608,000000	2020-10-13T22:48:03:357
2102595,000000	2020-10-13T22:48:03:394
2101822,000000	2020-10-13T22:48:03:436
2100950,000000	2020-10-13T22:48:03:475
2100490,000000	2020-10-13T22:48:03:515
2100016,000000	2020-10-13T22:48:03:555
2099949,000000	2020-10-13T22:48:03:595
2100863,000000	2020-10-13T22:48:03:635
2102581,000000	2020-10-13T22:48:03:679
2103086,000000	2020-10-13T22:48:03:716
2104657,000000	2020-10-13T22:48:03:761
2105883,000000	2020-10-13T22:48:03:797
2107169,000000	2020-10-13T22:48:03:836
2109087,000000	2020-10-13T22:48:03:875
2109636,000000	2020-10-13T22:48:03:921
2108646,000000	2020-10-13T22:48:03:955
2107032,000000	2020-10-13T22:48:03:997
2105055,000000	2020-10-13T22:48:04:034
2103442,000000	2020-10-13T22:48:04:077
2101233,000000	2020-10-13T22:48:04:114
2099654,000000	2020-10-13T22:48:04:160
2097246,000000	2020-10-13T22:48:04:195
2096585,000000	2020-10-13T22:48:04:235
2095060,000000	2020-10-13T22:48:04:278
2094942,000000	2020-10-13T22:48:04:315
2093911,000000	2020-10-13T22:48:04:355
2093772,000000	2020-10-13T22:48:04:398
2094580,000000	2020-10-13T22:48:04:435
2095815,000000	2020-10-13T22:48:04:476
2096654,000000	2020-10-13T22:48:04:517
2097950,000000	2020-10-13T22:48:04:556
2099904,000000	2020-10-13T22:48:04:595
2101514,000000	2020-10-13T22:48:04:640
2102875,000000	2020-10-13T22:48:04:675
2104725,000000	2020-10-13T22:48:04:717
2104382,000000	2020-10-13T22:48:04:756
2102613,000000	2020-10-13T22:48:04:796
2100718,000000	2020-10-13T22:48:04:835
2099186,000000	2020-10-13T22:48:04:879
2097806,000000	2020-10-13T22:48:04:916
2096171,000000	2020-10-13T22:48:04:956
2095498,000000	2020-10-13T22:48:04:996
2095604,000000	2020-10-13T22:48:05:038
2095145,000000	2020-10-13T22:48:05:080
2094869,000000	2020-10-13T22:48:05:129
2095250,000000	2020-10-13T22:48:05:157
2095678,000000	2020-10-13T22:48:05:199
2096467,000000	2020-10-13T22:48:05:236
2096987,000000	2020-10-13T22:48:05:276
2098929,000000	2020-10-13T22:48:05:316
2100721,000000	2020-10-13T22:48:05:360
2102676,000000	2020-10-13T22:48:05:396
2103537,000000	2020-10-13T22:48:05:436
2104678,000000	2020-10-13T22:48:05:477
2105019,000000	2020-10-13T22:48:05:528
2102281,000000	2020-10-13T22:48:05:557
2099380,000000	2020-10-13T22:48:05:617
2096712,000000	2020-10-13T22:48:05:637
2094035,000000	2020-10-13T22:48:05:679
2091890,000000	2020-10-13T22:48:05:718
2090397,000000	2020-10-13T22:48:05:757
2088709,000000	2020-10-13T22:48:05:798
2087741,000000	2020-10-13T22:48:05:844
2086027,000000	2020-10-13T22:48:05:877
2084624,000000	2020-10-13T22:48:05:916
2083706,000000	2020-10-13T22:48:05:957
2083428,000000	2020-10-13T22:48:05:996
2083460,000000	2020-10-13T22:48:06:037
2083620,000000	2020-10-13T22:48:06:090
2084461,000000	2020-10-13T22:48:06:117
2085904,000000	2020-10-13T22:48:06:157
2086560,000000	2020-10-13T22:48:06:198
2087621,000000	2020-10-13T22:48:06:237
2088908,000000	2020-10-13T22:48:06:277
2088778,000000	2020-10-13T22:48:06:320
2086015,000000	2020-10-13T22:48:06:360
2082153,000000	2020-10-13T22:48:06:397
2079360,000000	2020-10-13T22:48:06:439
2076623,000000	2020-10-13T22:48:06:478
2073287,000000	2020-10-13T22:48:06:518
2070459,000000	2020-10-13T22:48:06:562
2068655,000000	2020-10-13T22:48:06:597
2067076,000000	2020-10-13T22:48:06:638
2066369,000000	2020-10-13T22:48:06:678
2066066,000000	2020-10-13T22:48:06:718
2065322,000000	2020-10-13T22:48:06:759
2065231,000000	2020-10-13T22:48:06:803
2066335,000000	2020-10-13T22:48:06:837
2067084,000000	2020-10-13T22:48:06:878
2068415,000000	2020-10-13T22:48:06:918
2069587,000000	2020-10-13T22:48:06:959
2071597,000000	2020-10-13T22:48:07:000
2073779,000000	2020-10-13T22:48:07:045
2075960,000000	2020-10-13T22:48:07:081
2077645,000000	2020-10-13T22:48:07:116
2079818,000000	2020-10-13T22:48:07:159
2081294,000000	2020-10-13T22:48:07:206
2079947,000000	2020-10-13T22:48:07:239
2077741,000000	2020-10-13T22:48:07:279
2075245,000000	2020-10-13T22:48:07:318
2073818,000000	2020-10-13T22:48:07:358
2071841,000000	2020-10-13T22:48:07:399
2070297,000000	2020-10-13T22:48:07:438
2069282,000000	2020-10-13T22:48:07:479
2068904,000000	2020-10-13T22:48:07:522
2068875,000000	2020-10-13T22:48:07:558
2068935,000000	2020-10-13T22:48:07:598
2069156,000000	2020-10-13T22:48:07:639
2069866,000000	2020-10-13T22:48:07:679
2071306,000000	2020-10-13T22:48:07:719
2073577,000000	2020-10-13T22:48:07:761
2075716,000000	2020-10-13T22:48:07:799
2077855,000000	2020-10-13T22:48:07:844
2081901,000000	2020-10-13T22:48:07:881
2084401,000000	2020-10-13T22:48:07:919
2086843,000000	2020-10-13T22:48:07:960
2089563,000000	2020-10-13T22:48:08:000
2091868,000000	2020-10-13T22:48:08:043
2094302,000000	2020-10-13T22:48:08:121
2094456,000000	2020-10-13T22:48:08:124
2093323,000000	2020-10-13T22:48:08:158
2093571,000000	2020-10-13T22:48:08:199
2094055,000000	2020-10-13T22:48:08:242
2093842,000000	2020-10-13T22:48:08:279
2093872,000000	2020-10-13T22:48:08:319
2094453,000000	2020-10-13T22:48:08:359
2095026,000000	2020-10-13T22:48:08:399
2095299,000000	2020-10-13T22:48:08:440
2095413,000000	2020-10-13T22:48:08:485
2096086,000000	2020-10-13T22:48:08:519
2096640,000000	2020-10-13T22:48:08:561
2098832,000000	2020-10-13T22:48:08:600
2100931,000000	2020-10-13T22:48:08:641
2102750,000000	2020-10-13T22:48:08:681
2104154,000000	2020-10-13T22:48:08:732
2105996,000000	2020-10-13T22:48:08:761
2107056,000000	2020-10-13T22:48:08:822
2108904,000000	2020-10-13T22:48:08:841
2110342,000000	2020-10-13T22:48:08:886
2110697,000000	2020-10-13T22:48:08:920
2108936,000000	2020-10-13T22:48:08:965
2107580,000000	2020-10-13T22:48:09:000
2106090,000000	2020-10-13T22:48:09:040
2104724,000000	2020-10-13T22:48:09:082
2103846,000000	2020-10-13T22:48:09:120
2103112,000000	2020-10-13T22:48:09:160
2102815,000000	2020-10-13T22:48:09:205
2102479,000000	2020-10-13T22:48:09:240
2101468,000000	2020-10-13T22:48:09:281
2101803,000000	2020-10-13T22:48:09:320
2102034,000000	2020-10-13T22:48:09:360
2102742,000000	2020-10-13T22:48:09:411
2103936,000000	2020-10-13T22:48:09:443
2105141,000000	2020-10-13T22:48:09:493
2106980,000000	2020-10-13T22:48:09:521
2108621,000000	2020-10-13T22:48:09:559
2110638,000000	2020-10-13T22:48:09:601
2111953,000000	2020-10-13T22:48:09:641
2111992,000000	2020-10-13T22:48:09:689
2109575,000000	2020-10-13T22:48:09:722
2107968,000000	2020-10-13T22:48:09:760
2106873,000000	2020-10-13T22:48:09:801
2105749,000000	2020-10-13T22:48:09:841
2104904,000000	2020-10-13T22:48:09:881
2103911,000000	2020-10-13T22:48:09:924
2103949,000000	2020-10-13T22:48:09:961
2103642,000000	2020-10-13T22:48:10:001
2104049,000000	2020-10-13T22:48:10:041
2103738,000000	2020-10-13T22:48:10:097
2104196,000000	2020-10-13T22:48:10:122
2105226,000000	2020-10-13T22:48:10:183
2106173,000000	2020-10-13T22:48:10:200
2107263,000000	2020-10-13T22:48:10:241
2109050,000000	2020-10-13T22:48:10:288
2111132,000000	2020-10-13T22:48:10:323
2113191,000000	2020-10-13T22:48:10:362
2116089,000000	2020-10-13T22:48:10:404
2118089,000000	2020-10-13T22:48:10:441
2117359,000000	2020-10-13T22:48:10:482
2115760,000000	2020-10-13T22:48:10:522
2114223,000000	2020-10-13T22:48:10:562
2112295,000000	2020-10-13T22:48:10:601
2108264,000000	2020-10-13T22:48:10:644
2104689,000000	2020-10-13T22:48:10:682
2101060,000000	2020-10-13T22:48:10:721
2098225,000000	2020-10-13T22:48:10:762
2095739,000000	2020-10-13T22:48:10:801
2093503,000000	2020-10-13T22:48:10:842
2091037,000000	2020-10-13T22:48:10:887
2089014,000000	2020-10-13T22:48:10:944
2087732,000000	2020-10-13T22:48:10:965
2086645,000000	2020-10-13T22:48:11:003
2087466,000000	2020-10-13T22:48:11:041
2087553,000000	2020-10-13T22:48:11:094
2088413,000000	2020-10-13T22:48:11:128
2089973,000000	2020-10-13T22:48:11:161
2091246,000000	2020-10-13T22:48:11:200
2093235,000000	2020-10-13T22:48:11:243
2094416,000000	2020-10-13T22:48:11:282
2092863,000000	2020-10-13T22:48:11:322
2089911,000000	2020-10-13T22:48:11:365
2086704,000000	2020-10-13T22:48:11:402
2083177,000000	2020-10-13T22:48:11:443
2079918,000000	2020-10-13T22:48:11:483
2075301,000000	2020-10-13T22:48:11:523
2071016,000000	2020-10-13T22:48:11:564
2068255,000000	2020-10-13T22:48:11:607
2065988,000000	2020-10-13T22:48:11:649
2063599,000000	2020-10-13T22:48:11:685
2061627,000000	2020-10-13T22:48:11:723
2059186,000000	2020-10-13T22:48:11:762
2057642,000000	2020-10-13T22:48:11:802
2056395,000000	2020-10-13T22:48:11:852
2056230,000000	2020-10-13T22:48:11:882
2055882,000000	2020-10-13T22:48:11:922
2056943,000000	2020-10-13T22:48:11:961
2057620,000000	2020-10-13T22:48:12:002
2057800,000000	2020-10-13T22:48:12:043
2057348,000000	2020-10-13T22:48:12:096
2054001,000000	2020-10-13T22:48:12:123
2049035,000000	2020-10-13T22:48:12:163
2042661,000000	2020-10-13T22:48:12:203
2037056,000000	2020-10-13T22:48:12:243
2030463,000000	2020-10-13T22:48:12:283
2024275,000000	2020-10-13T22:48:12:325
2018757,000000	2020-10-13T22:48:12:363
2013242,000000	2020-10-13T22:48:12:403
2008656,000000	2020-10-13T22:48:12:447
2003367,000000	2020-10-13T22:48:12:484
1999469,000000	2020-10-13T22:48:12:539
1996284,000000	2020-10-13T22:48:12:567
1994053,000000	2020-10-13T22:48:12:603
1992868,000000	2020-10-13T22:48:12:650
1991921,000000	2020-10-13T22:48:12:684
1991769,000000	2020-10-13T22:48:12:723
1991274,000000	2020-10-13T22:48:12:763
1991599,000000	2020-10-13T22:48:12:808
1990477,000000	2020-10-13T22:48:12:843
1986927,000000	2020-10-13T22:48:12:884
1980416,000000	2020-10-13T22:48:12:923
1973865,000000	2020-10-13T22:48:12:964
1967326,000000	2020-10-13T22:48:13:004
1961128,000000	2020-10-13T22:48:13:057
1954446,000000	2020-10-13T22:48:13:091
1949633,000000	2020-10-13T22:48:13:124
1946224,000000	2020-10-13T22:48:13:171
1942580,000000	2020-10-13T22:48:13:205
1938877,000000	2020-10-13T22:48:13:247
1936062,000000	2020-10-13T22:48:13:292
1934591,000000	2020-10-13T22:48:13:329
1934343,000000	2020-10-13T22:48:13:365
1935288,000000	2020-10-13T22:48:13:418
1935580,000000	2020-10-13T22:48:13:443
1937253,000000	2020-10-13T22:48:13:483
1939117,000000	2020-10-13T22:48:13:528
1941219,000000	2020-10-13T22:48:13:564
1943416,000000	2020-10-13T22:48:13:604
1945433,000000	2020-10-13T22:48:13:645
1946559,000000	2020-10-13T22:48:13:685
1944701,000000	2020-10-13T22:48:13:725
1940964,000000	2020-10-13T22:48:13:768
1936202,000000	2020-10-13T22:48:13:805
1931683,000000	2020-10-13T22:48:13:845
1925112,000000	2020-10-13T22:48:13:885
1919727,000000	2020-10-13T22:48:13:924
1915214,000000	2020-10-13T22:48:13:965
1911508,000000	2020-10-13T22:48:14:009
1909040,000000	2020-10-13T22:48:14:046
1906439,000000	2020-10-13T22:48:14:102
1904205,000000	2020-10-13T22:48:14:126
1903139,000000	2020-10-13T22:48:14:165
1902535,000000	2020-10-13T22:48:14:205
1903379,000000	2020-10-13T22:48:14:248
1904827,000000	2020-10-13T22:48:14:285
1906164,000000	2020-10-13T22:48:14:325
1907875,000000	2020-10-13T22:48:14:365
1910372,000000	2020-10-13T22:48:14:405
1913098,000000	2020-10-13T22:48:14:447
1915574,000000	2020-10-13T22:48:14:488
1918846,000000	2020-10-13T22:48:14:527
1922364,000000	2020-10-13T22:48:14:564
1926276,000000	2020-10-13T22:48:14:607
1927020,000000	2020-10-13T22:48:14:647
1925091,000000	2020-10-13T22:48:14:685
1923377,000000	2020-10-13T22:48:14:728
1920867,000000	2020-10-13T22:48:14:765
1917409,000000	2020-10-13T22:48:14:806
1914326,000000	2020-10-13T22:48:14:845
1911592,000000	2020-10-13T22:48:14:886
1909795,000000	2020-10-13T22:48:14:926
1908735,000000	2020-10-13T22:48:14:971
1908054,000000	2020-10-13T22:48:15:007
1907745,000000	2020-10-13T22:48:15:045
1907003,000000	2020-10-13T22:48:15:093
1906642,000000	2020-10-13T22:48:15:126
1908208,000000	2020-10-13T22:48:15:166
1909931,000000	2020-10-13T22:48:15:210
1912504,000000	2020-10-13T22:48:15:246
1915174,000000	2020-10-13T22:48:15:288
1917456,000000	2020-10-13T22:48:15:327
1919967,000000	2020-10-13T22:48:15:366
1922970,000000	2020-10-13T22:48:15:405
1927059,000000	2020-10-13T22:48:15:451
1929221,000000	2020-10-13T22:48:15:497
1928712,000000	2020-10-13T22:48:15:526
1927168,000000	2020-10-13T22:48:15:565
1925348,000000	2020-10-13T22:48:15:605
1922877,000000	2020-10-13T22:48:15:646
1919998,000000	2020-10-13T22:48:15:691
1918333,000000	2020-10-13T22:48:15:727
1917924,000000	2020-10-13T22:48:15:767
1917233,000000	2020-10-13T22:48:15:807
1916769,000000	2020-10-13T22:48:15:846
1916852,000000	2020-10-13T22:48:15:886
1917800,000000	2020-10-13T22:48:15:930
1919846,000000	2020-10-13T22:48:15:966
1921706,000000	2020-10-13T22:48:16:006
1924536,000000	2020-10-13T22:48:16:046
1927465,000000	2020-10-13T22:48:16:087
1930096,000000	2020-10-13T22:48:16:127
1933588,000000	2020-10-13T22:48:16:173
1935892,000000	2020-10-13T22:48:16:206
1935721,000000	2020-10-13T22:48:16:248
1934171,000000	2020-10-13T22:48:16:289
1931716,000000	2020-10-13T22:48:16:326
1929360,000000	2020-10-13T22:48:16:370
1926369,000000	2020-10-13T22:48:16:408
1924324,000000	2020-10-13T22:48:16:447
1922363,000000	2020-10-13T22:48:16:487
1921731,000000	2020-10-13T22:48:16:528
1921866,000000	2020-10-13T22:48:16:567
1921888,000000	2020-10-13T22:48:16:607
1921747,000000	2020-10-13T22:48:16:653
1923534,000000	2020-10-13T22:48:16:688
1925191,000000	2020-10-13T22:48:16:728
1927739,000000	2020-10-13T22:48:16:768
1930245,000000	2020-10-13T22:48:16:811
1933005,000000	2020-10-13T22:48:16:847
1936634,000000	2020-10-13T22:48:16:896
1940604,000000	2020-10-13T22:48:16:928
1943855,000000	2020-10-13T22:48:16:971
1946064,000000	2020-10-13T22:48:17:007
1945800,000000	2020-10-13T22:48:17:049
1943212,000000	2020-10-13T22:48:17:106
1940415,000000	2020-10-13T22:48:17:131
1937334,000000	2020-10-13T22:48:17:167
1933849,000000	2020-10-13T22:48:17:208
1930228,000000	2020-10-13T22:48:17:248
1927365,000000	2020-10-13T22:48:17:288
1925542,000000	2020-10-13T22:48:17:328
1924570,000000	2020-10-13T22:48:17:371
1923359,000000	2020-10-13T22:48:17:412
1924059,000000	2020-10-13T22:48:17:448
1925434,000000	2020-10-13T22:48:17:489
1927302,000000	2020-10-13T22:48:17:528
1930119,000000	2020-10-13T22:48:17:568
1934069,000000	2020-10-13T22:48:17:612
1937504,000000	2020-10-13T22:48:17:648
1941772,000000	2020-10-13T22:48:17:689
1945933,000000	2020-10-13T22:48:17:728
1949850,000000	2020-10-13T22:48:17:768
1954280,000000	2020-10-13T22:48:17:809
1958761,000000	2020-10-13T22:48:17:853
1961577,000000	2020-10-13T22:48:17:888
1962240,000000	2020-10-13T22:48:17:931
1961563,000000	2020-10-13T22:48:17:970
1961200,000000	2020-10-13T22:48:18:011
1960347,000000	2020-10-13T22:48:18:051
1959521,000000	2020-10-13T22:48:18:121
1958969,000000	2020-10-13T22:48:18:128
1958824,000000	2020-10-13T22:48:18:176
1959860,000000	2020-10-13T22:48:18:209
1960005,000000	2020-10-13T22:48:18:249
1961118,000000	2020-10-13T22:48:18:289
1962254,000000	2020-10-13T22:48:18:332
1964170,000000	2020-10-13T22:48:18:369
1966513,000000	2020-10-13T22:48:18:409
1969868,000000	2020-10-13T22:48:18:449
1973502,000000	2020-10-13T22:48:18:490
1977409,000000	2020-10-13T22:48:18:529
1981019,000000	2020-10-13T22:48:18:573
1984555,000000	2020-10-13T22:48:18:609
1987852,000000	2020-10-13T22:48:18:649
1989647,000000	2020-10-13T22:48:18:691
1989030,000000	2020-10-13T22:48:18:729
1988085,000000	2020-10-13T22:48:18:770
1987347,000000	2020-10-13T22:48:18:813
1986317,000000	2020-10-13T22:48:18:849
1985076,000000	2020-10-13T22:48:18:891
1983977,000000	2020-10-13T22:48:18:953
1983211,000000	2020-10-13T22:48:18:971
1982719,000000	2020-10-13T22:48:19:010
1982344,000000	2020-10-13T22:48:19:055
1982604,000000	2020-10-13T22:48:19:115
1983201,000000	2020-10-13T22:48:19:129
1983206,000000	2020-10-13T22:48:19:168
1984508,000000	2020-10-13T22:48:19:210
1986180,000000	2020-10-13T22:48:19:250
1988236,000000	2020-10-13T22:48:19:293
1989666,000000	2020-10-13T22:48:19:330
1991969,000000	2020-10-13T22:48:19:370
1994243,000000	2020-10-13T22:48:19:412
1993901,000000	2020-10-13T22:48:19:450
1991614,000000	2020-10-13T22:48:19:491
1987132,000000	2020-10-13T22:48:19:533
1981640,000000	2020-10-13T22:48:19:570
1976970,000000	2020-10-13T22:48:19:610
1970599,000000	2020-10-13T22:48:19:651
1965962,000000	2020-10-13T22:48:19:691
1961744,000000	2020-10-13T22:48:19:731
1958422,000000	2020-10-13T22:48:19:772
1955903,000000	2020-10-13T22:48:19:809
1952608,000000	2020-10-13T22:48:19:857
1950744,000000	2020-10-13T22:48:19:890
1949661,000000	2020-10-13T22:48:19:929
1948937,000000	2020-10-13T22:48:19:971
1949374,000000	2020-10-13T22:48:20:011
1949710,000000	2020-10-13T22:48:20:051
1951027,000000	2020-10-13T22:48:20:090
1952706,000000	2020-10-13T22:48:20:130
1954428,000000	2020-10-13T22:48:20:170
1953990,000000	2020-10-13T22:48:20:210
1950855,000000	2020-10-13T22:48:20:253
1944765,000000	2020-10-13T22:48:20:291
1938692,000000	2020-10-13T22:48:20:331
1931849,000000	2020-10-13T22:48:20:375
1924873,000000	2020-10-13T22:48:20:412
1918477,000000	2020-10-13T22:48:20:453
1912733,000000	2020-10-13T22:48:20:495
1907885,000000	2020-10-13T22:48:20:530
1903764,000000	2020-10-13T22:48:20:571
1900126,000000	2020-10-13T22:48:20:612
1897238,000000	2020-10-13T22:48:20:655
1894428,000000	2020-10-13T22:48:20:697
1893900,000000	2020-10-13T22:48:20:733
1894098,000000	2020-10-13T22:48:20:772
1894698,000000	2020-10-13T22:48:20:811
1896221,000000	2020-10-13T22:48:20:851
1897630,000000	2020-10-13T22:48:20:894
1900275,000000	2020-10-13T22:48:20:931
1901947,000000	2020-10-13T22:48:20:974
1901407,000000	2020-10-13T22:48:21:011
1896254,000000	2020-10-13T22:48:21:051
1889738,000000	2020-10-13T22:48:21:105
1881593,000000	2020-10-13T22:48:21:131
1872566,000000	2020-10-13T22:48:21:172
1864094,000000	2020-10-13T22:48:21:214
1856440,000000	2020-10-13T22:48:21:252
1850208,000000	2020-10-13T22:48:21:293
1845289,000000	2020-10-13T22:48:21:348
1841029,000000	2020-10-13T22:48:21:373
1836951,000000	2020-10-13T22:48:21:416
1833257,000000	2020-10-13T22:48:21:455
1832154,000000	2020-10-13T22:48:21:500
1832451,000000	2020-10-13T22:48:21:533
1833329,000000	2020-10-13T22:48:21:573
1835285,000000	2020-10-13T22:48:21:612
1836736,000000	2020-10-13T22:48:21:653
1838742,000000	2020-10-13T22:48:21:698
1841362,000000	2020-10-13T22:48:21:732
1844024,000000	2020-10-13T22:48:21:773
1846591,000000	2020-10-13T22:48:21:812
1848930,000000	2020-10-13T22:48:21:852
1848072,000000	2020-10-13T22:48:21:893
1842487,000000	2020-10-13T22:48:21:937
1835807,000000	2020-10-13T22:48:21:973
1829399,000000	2020-10-13T22:48:22:017
1822010,000000	2020-10-13T22:48:22:191
1816188,000000	2020-10-13T22:48:22:218
1812043,000000	2020-10-13T22:48:22:223
1808626,000000	2020-10-13T22:48:22:227
1805700,000000	2020-10-13T22:48:22:347
1802269,000000	2020-10-13T22:48:22:348
1800579,000000	2020-10-13T22:48:22:348
1800541,000000	2020-10-13T22:48:22:349
1801944,000000	2020-10-13T22:48:22:385
1804517,000000	2020-10-13T22:48:22:430
1806713,000000	2020-10-13T22:48:22:454
1809861,000000	2020-10-13T22:48:22:491
1813730,000000	2020-10-13T22:48:22:531
1817483,000000	2020-10-13T22:48:22:572
1820940,000000	2020-10-13T22:48:22:613
1824793,000000	2020-10-13T22:48:22:657
1824766,000000	2020-10-13T22:48:22:695
1820111,000000	2020-10-13T22:48:22:733
1813711,000000	2020-10-13T22:48:22:774
1807554,000000	2020-10-13T22:48:22:813
1800783,000000	2020-10-13T22:48:22:853
1794557,000000	2020-10-13T22:48:22:896
1789851,000000	2020-10-13T22:48:22:935
1786153,000000	2020-10-13T22:48:22:976
1782772,000000	2020-10-13T22:48:23:015
1780108,000000	2020-10-13T22:48:23:057
1777749,000000	2020-10-13T22:48:23:107
1777036,000000	2020-10-13T22:48:23:138
1777175,000000	2020-10-13T22:48:23:173
1777934,000000	2020-10-13T22:48:23:214
1778886,000000	2020-10-13T22:48:23:253
1780811,000000	2020-10-13T22:48:23:294
1783436,000000	2020-10-13T22:48:23:333
1787469,000000	2020-10-13T22:48:23:376
1791108,000000	2020-10-13T22:48:23:413
1793471,000000	2020-10-13T22:48:23:467
1783815,000000	2020-10-13T22:48:23:524
1777841,000000	2020-10-13T22:48:23:533
1771122,000000	2020-10-13T22:48:23:573
1765202,000000	2020-10-13T22:48:23:620
1759757,000000	2020-10-13T22:48:23:654
1756313,000000	2020-10-13T22:48:23:694
1754170,000000	2020-10-13T22:48:23:733
1752057,000000	2020-10-13T22:48:23:776
1750825,000000	2020-10-13T22:48:23:817
1750103,000000	2020-10-13T22:48:23:858
1751670,000000	2020-10-13T22:48:23:893
1753262,000000	2020-10-13T22:48:23:938
1755737,000000	2020-10-13T22:48:23:974
1759530,000000	2020-10-13T22:48:24:016
1763759,000000	2020-10-13T22:48:24:053
1768458,000000	2020-10-13T22:48:24:102
1773510,000000	2020-10-13T22:48:24:134
1778384,000000	2020-10-13T22:48:24:175
1783881,000000	2020-10-13T22:48:24:215
1789659,000000	2020-10-13T22:48:24:254
1791546,000000	2020-10-13T22:48:24:295
1790032,000000	2020-10-13T22:48:24:339
1785866,000000	2020-10-13T22:48:24:375
1781988,000000	2020-10-13T22:48:24:415
1778672,000000	2020-10-13T22:48:24:455
1774560,000000	2020-10-13T22:48:24:495
1771809,000000	2020-10-13T22:48:24:537
1770142,000000	2020-10-13T22:48:24:580
1770092,000000	2020-10-13T22:48:24:623
1769817,000000	2020-10-13T22:48:24:653
1770363,000000	2020-10-13T22:48:24:695
1772495,000000	2020-10-13T22:48:24:733
1774859,000000	2020-10-13T22:48:24:775
1779313,000000	2020-10-13T22:48:24:816
1783696,000000	2020-10-13T22:48:24:856
1788961,000000	2020-10-13T22:48:24:896
1794719,000000	2020-10-13T22:48:24:935
1800259,000000	2020-10-13T22:48:24:975
1806398,000000	2020-10-13T22:48:25:016
1812674,000000	2020-10-13T22:48:25:060
1819449,000000	2020-10-13T22:48:25:101
1825558,000000	2020-10-13T22:48:25:136
1831840,000000	2020-10-13T22:48:25:177
1834312,000000	2020-10-13T22:48:25:217
1834079,000000	2020-10-13T22:48:25:261
1833526,000000	2020-10-13T22:48:25:303
1833259,000000	2020-10-13T22:48:25:335
1832292,000000	2020-10-13T22:48:25:377
1831176,000000	2020-10-13T22:48:25:419
1831715,000000	2020-10-13T22:48:25:457
1832668,000000	2020-10-13T22:48:25:500
1834262,000000	2020-10-13T22:48:25:539
1835188,000000	2020-10-13T22:48:25:576
1837316,000000	2020-10-13T22:48:25:616
1840011,000000	2020-10-13T22:48:25:656
1843735,000000	2020-10-13T22:48:25:697
1847806,000000	2020-10-13T22:48:25:737
1852620,000000	2020-10-13T22:48:25:779
1857575,000000	2020-10-13T22:48:25:817
1863197,000000	2020-10-13T22:48:25:867
1868625,000000	2020-10-13T22:48:25:898
1874254,000000	2020-10-13T22:48:25:937
1880201,000000	2020-10-13T22:48:25:977
1885220,000000	2020-10-13T22:48:26:023
1887565,000000	2020-10-13T22:48:26:058
1888249,000000	2020-10-13T22:48:26:124
1888476,000000	2020-10-13T22:48:26:137
1888585,000000	2020-10-13T22:48:26:177
1889467,000000	2020-10-13T22:48:26:216
1890223,000000	2020-10-13T22:48:26:262
1890713,000000	2020-10-13T22:48:26:299
1891816,000000	2020-10-13T22:48:26:337
1893042,000000	2020-10-13T22:48:26:377
1894250,000000	2020-10-13T22:48:26:417
1896301,000000	2020-10-13T22:48:26:457
1899426,000000	2020-10-13T22:48:26:500
1902346,000000	2020-10-13T22:48:26:537
1906589,000000	2020-10-13T22:48:26:577
1910847,000000	2020-10-13T22:48:26:617
1914683,000000	2020-10-13T22:48:26:657
1918663,000000	2020-10-13T22:48:26:698
1922959,000000	2020-10-13T22:48:26:741
1926139,000000	2020-10-13T22:48:26:778
1926169,000000	2020-10-13T22:48:26:816
1926126,000000	2020-10-13T22:48:26:857
1925170,000000	2020-10-13T22:48:26:899
1924300,000000	2020-10-13T22:48:26:937
1924247,000000	2020-10-13T22:48:26:993
1923996,000000	2020-10-13T22:48:27:016
1924231,000000	2020-10-13T22:48:27:057
1924912,000000	2020-10-13T22:48:27:097
1925639,000000	2020-10-13T22:48:27:137
1927061,000000	2020-10-13T22:48:27:178
1928999,000000	2020-10-13T22:48:27:220
1931222,000000	2020-10-13T22:48:27:257
1934102,000000	2020-10-13T22:48:27:298
1937701,000000	2020-10-13T22:48:27:338
1941019,000000	2020-10-13T22:48:27:378
1944925,000000	2020-10-13T22:48:27:418
1949405,000000	2020-10-13T22:48:27:462
1953729,000000	2020-10-13T22:48:27:498
1957654,000000	2020-10-13T22:48:27:539
1959657,000000	2020-10-13T22:48:27:579
1959377,000000	2020-10-13T22:48:27:619
1959316,000000	2020-10-13T22:48:27:660
1959223,000000	2020-10-13T22:48:27:706
1957451,000000	2020-10-13T22:48:27:739
1955697,000000	2020-10-13T22:48:27:805
1955061,000000	2020-10-13T22:48:27:819
1955158,000000	2020-10-13T22:48:27:857
1954817,000000	2020-10-13T22:48:27:899
1955038,000000	2020-10-13T22:48:27:941
1955592,000000	2020-10-13T22:48:27:978
1956455,000000	2020-10-13T22:48:28:019
1958744,000000	2020-10-13T22:48:28:059
1961487,000000	2020-10-13T22:48:28:105
1964870,000000	2020-10-13T22:48:28:138
1968514,000000	2020-10-13T22:48:28:182
1971813,000000	2020-10-13T22:48:28:220
1975969,000000	2020-10-13T22:48:28:260
1979960,000000	2020-10-13T22:48:28:300
1983336,000000	2020-10-13T22:48:28:339
1987728,000000	2020-10-13T22:48:28:378
1989558,000000	2020-10-13T22:48:28:423
1990312,000000	2020-10-13T22:48:28:459
1989567,000000	2020-10-13T22:48:28:502
1989663,000000	2020-10-13T22:48:28:540
1987554,000000	2020-10-13T22:48:28:578
1986007,000000	2020-10-13T22:48:28:619
1984833,000000	2020-10-13T22:48:28:662
1983812,000000	2020-10-13T22:48:28:699
1982849,000000	2020-10-13T22:48:28:739
1982692,000000	2020-10-13T22:48:28:779
1982583,000000	2020-10-13T22:48:28:819
1983589,000000	2020-10-13T22:48:28:859
1985137,000000	2020-10-13T22:48:28:905
1986962,000000	2020-10-13T22:48:28:939
1989264,000000	2020-10-13T22:48:28:980
1991762,000000	2020-10-13T22:48:29:020
1994176,000000	2020-10-13T22:48:29:063
1997700,000000	2020-10-13T22:48:29:104
1999707,000000	2020-10-13T22:48:29:145
2002726,000000	2020-10-13T22:48:29:181
2004782,000000	2020-10-13T22:48:29:221
2005669,000000	2020-10-13T22:48:29:260
2004193,000000	2020-10-13T22:48:29:300
2002480,000000	2020-10-13T22:48:29:339
2000668,000000	2020-10-13T22:48:29:382
1998718,000000	2020-10-13T22:48:29:420
1996617,000000	2020-10-13T22:48:29:460
1995205,000000	2020-10-13T22:48:29:502
1993645,000000	2020-10-13T22:48:29:541
1992519,000000	2020-10-13T22:48:29:581
1991666,000000	2020-10-13T22:48:29:624
1991149,000000	2020-10-13T22:48:29:659
1990445,000000	2020-10-13T22:48:29:700
1990808,000000	2020-10-13T22:48:29:740
1991812,000000	2020-10-13T22:48:29:780
1993239,000000	2020-10-13T22:48:29:821
1995279,000000	2020-10-13T22:48:29:865
1996917,000000	2020-10-13T22:48:29:902
1998851,000000	2020-10-13T22:48:29:943
2000780,000000	2020-10-13T22:48:29:981
1999450,000000	2020-10-13T22:48:30:027
1996656,000000	2020-10-13T22:48:30:060
1993856,000000	2020-10-13T22:48:30:115
1991400,000000	2020-10-13T22:48:30:140
1988636,000000	2020-10-13T22:48:30:179
1985590,000000	2020-10-13T22:48:30:219
1983764,000000	2020-10-13T22:48:30:260
1982005,000000	2020-10-13T22:48:30:301
1980481,000000	2020-10-13T22:48:30:343
1978761,000000	2020-10-13T22:48:30:381
1977725,000000	2020-10-13T22:48:30:420
1977520,000000	2020-10-13T22:48:30:461
1978007,000000	2020-10-13T22:48:30:501
1979165,000000	2020-10-13T22:48:30:541
1980671,000000	2020-10-13T22:48:30:586
1982609,000000	2020-10-13T22:48:30:621
1984111,000000	2020-10-13T22:48:30:661
1986496,000000	2020-10-13T22:48:30:702
1989461,000000	2020-10-13T22:48:30:742
1989239,000000	2020-10-13T22:48:30:781
1986943,000000	2020-10-13T22:48:30:832
1984123,000000	2020-10-13T22:48:30:862
1980775,000000	2020-10-13T22:48:30:902
1978134,000000	2020-10-13T22:48:30:942
1974486,000000	2020-10-13T22:48:30:981
1972638,000000	2020-10-13T22:48:31:021
1971190,000000	2020-10-13T22:48:31:065
1970011,000000	2020-10-13T22:48:31:108
1969414,000000	2020-10-13T22:48:31:140
1967859,000000	2020-10-13T22:48:31:181
1967381,000000	2020-10-13T22:48:31:221
1967462,000000	2020-10-13T22:48:31:261
1970020,000000	2020-10-13T22:48:31:306
1971282,000000	2020-10-13T22:48:31:342
1973613,000000	2020-10-13T22:48:31:382
1976678,000000	2020-10-13T22:48:31:422
1979545,000000	2020-10-13T22:48:31:462
1982555,000000	2020-10-13T22:48:31:502
1986183,000000	2020-10-13T22:48:31:546
1989157,000000	2020-10-13T22:48:31:583
1991091,000000	2020-10-13T22:48:31:622
1990850,000000	2020-10-13T22:48:31:663
1988467,000000	2020-10-13T22:48:31:709
1986104,000000	2020-10-13T22:48:31:741
1982919,000000	2020-10-13T22:48:31:788
1978323,000000	2020-10-13T22:48:31:822
1974382,000000	2020-10-13T22:48:31:861
1971020,000000	2020-10-13T22:48:31:904
1968480,000000	2020-10-13T22:48:31:942
1966575,000000	2020-10-13T22:48:31:983
1964067,000000	2020-10-13T22:48:32:025
1962558,000000	2020-10-13T22:48:32:062
1962392,000000	2020-10-13T22:48:32:102
1962569,000000	2020-10-13T22:48:32:142
1963336,000000	2020-10-13T22:48:32:183
1964566,000000	2020-10-13T22:48:32:223
1965726,000000	2020-10-13T22:48:32:265
1967890,000000	2020-10-13T22:48:32:303
1969522,000000	2020-10-13T22:48:32:343
1971989,000000	2020-10-13T22:48:32:383
1974987,000000	2020-10-13T22:48:32:452
1977123,000000	2020-10-13T22:48:32:463
1979747,000000	2020-10-13T22:48:32:515
1982011,000000	2020-10-13T22:48:32:543
1980784,000000	2020-10-13T22:48:32:582
1976654,000000	2020-10-13T22:48:32:622
1972562,000000	2020-10-13T22:48:32:663
1968215,000000	2020-10-13T22:48:32:703
1963059,000000	2020-10-13T22:48:32:748
1958545,000000	2020-10-13T22:48:32:783
1955106,000000	2020-10-13T22:48:32:823
1952409,000000	2020-10-13T22:48:32:863
1950620,000000	2020-10-13T22:48:32:904
1947650,000000	2020-10-13T22:48:32:946
1945838,000000	2020-10-13T22:48:32:984
1944142,000000	2020-10-13T22:48:33:039
1944119,000000	2020-10-13T22:48:33:063
1944371,000000	2020-10-13T22:48:33:102
1945455,000000	2020-10-13T22:48:33:145
1946663,000000	2020-10-13T22:48:33:185
1947411,000000	2020-10-13T22:48:33:236
1948853,000000	2020-10-13T22:48:33:264
1950311,000000	2020-10-13T22:48:33:304
1952329,000000	2020-10-13T22:48:33:344
1953532,000000	2020-10-13T22:48:33:383
1949962,000000	2020-10-13T22:48:33:424
1945527,000000	2020-10-13T22:48:33:466
1940712,000000	2020-10-13T22:48:33:504
1935794,000000	2020-10-13T22:48:33:544
1930512,000000	2020-10-13T22:48:33:584
1926889,000000	2020-10-13T22:48:33:624
1923527,000000	2020-10-13T22:48:33:664
1921162,000000	2020-10-13T22:48:33:709
1918578,000000	2020-10-13T22:48:33:743
1916519,000000	2020-10-13T22:48:33:784
1914733,000000	2020-10-13T22:48:33:825
1913937,000000	2020-10-13T22:48:33:864
1913827,000000	2020-10-13T22:48:33:904
1914256,000000	2020-10-13T22:48:33:949
1915856,000000	2020-10-13T22:48:33:984
1917794,000000	2020-10-13T22:48:34:025
1919784,000000	2020-10-13T22:48:34:064
1922214,000000	2020-10-13T22:48:34:104
1924830,000000	2020-10-13T22:48:34:144
1926112,000000	2020-10-13T22:48:34:187
1924272,000000	2020-10-13T22:48:34:225
1919061,000000	2020-10-13T22:48:34:271
1914187,000000	2020-10-13T22:48:34:327
1909150,000000	2020-10-13T22:48:34:346
1903199,000000	2020-10-13T22:48:34:384
1896486,000000	2020-10-13T22:48:34:427
1891435,000000	2020-10-13T22:48:34:465
1887665,000000	2020-10-13T22:48:34:505
1884377,000000	2020-10-13T22:48:34:546
1882137,000000	2020-10-13T22:48:34:585
1880169,000000	2020-10-13T22:48:34:625
1878403,000000	2020-10-13T22:48:34:668
1877978,000000	2020-10-13T22:48:34:705
1878301,000000	2020-10-13T22:48:34:748
1879432,000000	2020-10-13T22:48:34:786
1881088,000000	2020-10-13T22:48:34:837
1883702,000000	2020-10-13T22:48:34:866
1886871,000000	2020-10-13T22:48:34:910
1890146,000000	2020-10-13T22:48:34:945
1893596,000000	2020-10-13T22:48:34:985
1897578,000000	2020-10-13T22:48:35:026
1902003,000000	2020-10-13T22:48:35:064
1902228,000000	2020-10-13T22:48:35:105
1898386,000000	2020-10-13T22:48:35:149
1893184,000000	2020-10-13T22:48:35:185
1887889,000000	2020-10-13T22:48:35:225
1882434,000000	2020-10-13T22:48:35:266
1876290,000000	2020-10-13T22:48:35:306
1870696,000000	2020-10-13T22:48:35:346
1866600,000000	2020-10-13T22:48:35:388
1863159,000000	2020-10-13T22:48:35:426
1859802,000000	2020-10-13T22:48:35:468
1857072,000000	2020-10-13T22:48:35:506
1856023,000000	2020-10-13T22:48:35:547
1854364,000000	2020-10-13T22:48:35:587
1855153,000000	2020-10-13T22:48:35:634
1856279,000000	2020-10-13T22:48:35:666
1858901,000000	2020-10-13T22:48:35:707
1860990,000000	2020-10-13T22:48:35:745
1863607,000000	2020-10-13T22:48:35:802
1866292,000000	2020-10-13T22:48:35:825
1869414,000000	2020-10-13T22:48:35:866
1872701,000000	2020-10-13T22:48:35:907
1876282,000000	2020-10-13T22:48:35:946
1875336,000000	2020-10-13T22:48:35:987
1871124,000000	2020-10-13T22:48:36:026
1865644,000000	2020-10-13T22:48:36:066
1861288,000000	2020-10-13T22:48:36:112
1856645,000000	2020-10-13T22:48:36:145
1852046,000000	2020-10-13T22:48:36:188
1848809,000000	2020-10-13T22:48:36:227
1847390,000000	2020-10-13T22:48:36:267
1845362,000000	2020-10-13T22:48:36:315
1843725,000000	2020-10-13T22:48:36:352
1842786,000000	2020-10-13T22:48:36:388
1842039,000000	2020-10-13T22:48:36:427
1842000,000000	2020-10-13T22:48:36:466
1843127,000000	2020-10-13T22:48:36:509
1845305,000000	2020-10-13T22:48:36:547
1847927,000000	2020-10-13T22:48:36:587
1850803,000000	2020-10-13T22:48:36:627
1853955,000000	2020-10-13T22:48:36:667
1857080,000000	2020-10-13T22:48:36:707
1860464,000000	2020-10-13T22:48:36:746
1858642,000000	2020-10-13T22:48:36:787
1854049,000000	2020-10-13T22:48:36:830
1847975,000000	2020-10-13T22:48:36:866
1842567,000000	2020-10-13T22:48:36:907
1836062,000000	2020-10-13T22:48:36:947
1830497,000000	2020-10-13T22:48:36:987
1826622,000000	2020-10-13T22:48:37:028
1824459,000000	2020-10-13T22:48:37:070
1822839,000000	2020-10-13T22:48:37:122
1821405,000000	2020-10-13T22:48:37:148
1820702,000000	2020-10-13T22:48:37:194
1821158,000000	2020-10-13T22:48:37:228
1823213,000000	2020-10-13T22:48:37:267
1825484,000000	2020-10-13T22:48:37:308
1829010,000000	2020-10-13T22:48:37:346
1832758,000000	2020-10-13T22:48:37:386
1837408,000000	2020-10-13T22:48:37:428
1841753,000000	2020-10-13T22:48:37:467
1846269,000000	2020-10-13T22:48:37:510
1851572,000000	2020-10-13T22:48:37:551
1855426,000000	2020-10-13T22:48:37:587
1855627,000000	2020-10-13T22:48:37:628
1850855,000000	2020-10-13T22:48:37:668
1845965,000000	2020-10-13T22:48:37:708
1841401,000000	2020-10-13T22:48:37:748
1836912,000000	2020-10-13T22:48:37:792
1832004,000000	2020-10-13T22:48:37:829
1828168,000000	2020-10-13T22:48:37:870
1825977,000000	2020-10-13T22:48:37:921
1824633,000000	2020-10-13T22:48:37:949
1823822,000000	2020-10-13T22:48:37:986
1823446,000000	2020-10-13T22:48:38:043
1823968,000000	2020-10-13T22:48:38:069
1825754,000000	2020-10-13T22:48:38:116
1829223,000000	2020-10-13T22:48:38:149
1832586,000000	2020-10-13T22:48:38:188
1836741,000000	2020-10-13T22:48:38:228
1840747,000000	2020-10-13T22:48:38:271
1845038,000000	2020-10-13T22:48:38:309
1849824,000000	2020-10-13T22:48:38:349
1854921,000000	2020-10-13T22:48:38:389
1859626,000000	2020-10-13T22:48:38:428
1863883,000000	2020-10-13T22:48:38:468
1863321,000000	2020-10-13T22:48:38:512
1859398,000000	2020-10-13T22:48:38:548
1855233,000000	2020-10-13T22:48:38:588
1851495,000000	2020-10-13T22:48:38:629
1847331,000000	2020-10-13T22:48:38:672
1843458,000000	2020-10-13T22:48:38:709
1841018,000000	2020-10-13T22:48:38:757
1839616,000000	2020-10-13T22:48:38:789
1838950,000000	2020-10-13T22:48:38:829
1838996,000000	2020-10-13T22:48:38:869
1838706,000000	2020-10-13T22:48:38:926
1839673,000000	2020-10-13T22:48:38:950
1840405,000000	2020-10-13T22:48:38:992
1846625,000000	2020-10-13T22:48:39:030
1849851,000000	2020-10-13T22:48:39:070
1853258,000000	2020-10-13T22:48:39:109
1857317,000000	2020-10-13T22:48:39:149
1861255,000000	2020-10-13T22:48:39:189
1865901,000000	2020-10-13T22:48:39:232
1866245,000000	2020-10-13T22:48:39:268
1862405,000000	2020-10-13T22:48:39:310
1857436,000000	2020-10-13T22:48:39:351
1853260,000000	2020-10-13T22:48:39:404
1849241,000000	2020-10-13T22:48:39:429
1845134,000000	2020-10-13T22:48:39:470
1842620,000000	2020-10-13T22:48:39:512
1841395,000000	2020-10-13T22:48:39:551
1840421,000000	2020-10-13T22:48:39:619
1839444,000000	2020-10-13T22:48:39:633
1839792,000000	2020-10-13T22:48:39:670
1840150,000000	2020-10-13T22:48:39:713
1842159,000000	2020-10-13T22:48:39:750
1844161,000000	2020-10-13T22:48:39:790
1847176,000000	2020-10-13T22:48:39:830
1850723,000000	2020-10-13T22:48:39:870
1854099,000000	2020-10-13T22:48:39:911
1858132,000000	2020-10-13T22:48:39:953
1861265,000000	2020-10-13T22:48:39:990
1858387,000000	2020-10-13T22:48:40:030
1852868,000000	2020-10-13T22:48:40:071
1846325,000000	2020-10-13T22:48:40:110
1840696,000000	2020-10-13T22:48:40:151
1834631,000000	2020-10-13T22:48:40:195
1829520,000000	2020-10-13T22:48:40:251
1825874,000000	2020-10-13T22:48:40:270
1823372,000000	2020-10-13T22:48:40:313
1821760,000000	2020-10-13T22:48:40:351
1819960,000000	2020-10-13T22:48:40:404
1819587,000000	2020-10-13T22:48:40:436
1819886,000000	2020-10-13T22:48:40:471
1821340,000000	2020-10-13T22:48:40:510
1823703,000000	2020-10-13T22:48:40:551
1826693,000000	2020-10-13T22:48:40:591
1830099,000000	2020-10-13T22:48:40:630
1833778,000000	2020-10-13T22:48:40:673
1837666,000000	2020-10-13T22:48:40:711
1842013,000000	2020-10-13T22:48:40:751
1845372,000000	2020-10-13T22:48:40:791
1843323,000000	2020-10-13T22:48:40:830
1837390,000000	2020-10-13T22:48:40:883
1830122,000000	2020-10-13T22:48:40:917
1823015,000000	2020-10-13T22:48:40:953
1816360,000000	2020-10-13T22:48:40:991
1809137,000000	2020-10-13T22:48:41:031
1804233,000000	2020-10-13T22:48:41:072
1801073,000000	2020-10-13T22:48:41:120
1798389,000000	2020-10-13T22:48:41:157
1796338,000000	2020-10-13T22:48:41:193
1795347,000000	2020-10-13T22:48:41:232
1794694,000000	2020-10-13T22:48:41:276
1796295,000000	2020-10-13T22:48:41:312
1798105,000000	2020-10-13T22:48:41:351
1801183,000000	2020-10-13T22:48:41:396
1804789,000000	2020-10-13T22:48:41:431
1809431,000000	2020-10-13T22:48:41:472
1812951,000000	2020-10-13T22:48:41:512
1817426,000000	2020-10-13T22:48:41:552
1822332,000000	2020-10-13T22:48:41:592
1827275,000000	2020-10-13T22:48:41:635
1832272,000000	2020-10-13T22:48:41:672
1833998,000000	2020-10-13T22:48:41:713
1830003,000000	2020-10-13T22:48:41:753
1823219,000000	2020-10-13T22:48:41:797
1815624,000000	2020-10-13T22:48:41:831
1808711,000000	2020-10-13T22:48:41:907
1801257,000000	2020-10-13T22:48:41:913
1795287,000000	2020-10-13T22:48:41:952
1791698,000000	2020-10-13T22:48:41:992
1788529,000000	2020-10-13T22:48:42:032
1786213,000000	2020-10-13T22:48:42:081
1784881,000000	2020-10-13T22:48:42:137
1783635,000000	2020-10-13T22:48:42:154
1784121,000000	2020-10-13T22:48:42:194
1785643,000000	2020-10-13T22:48:42:232
1788019,000000	2020-10-13T22:48:42:272
1791430,000000	2020-10-13T22:48:42:313
1795153,000000	2020-10-13T22:48:42:358
1799788,000000	2020-10-13T22:48:42:394
1803431,000000	2020-10-13T22:48:42:433
1807938,000000	2020-10-13T22:48:42:472
1813000,000000	2020-10-13T22:48:42:513
1813206,000000	2020-10-13T22:48:42:553
1808008,000000	2020-10-13T22:48:42:598
1800582,000000	2020-10-13T22:48:42:636
1794527,000000	2020-10-13T22:48:42:676
1787798,000000	2020-10-13T22:48:42:717
1781276,000000	2020-10-13T22:48:42:752
1777301,000000	2020-10-13T22:48:42:794
1773998,000000	2020-10-13T22:48:42:842
1771607,000000	2020-10-13T22:48:42:873
1769893,000000	2020-10-13T22:48:42:913
1769313,000000	2020-10-13T22:48:42:953
1769599,000000	2020-10-13T22:48:42:992
1771064,000000	2020-10-13T22:48:43:033
1773853,000000	2020-10-13T22:48:43:087
1776919,000000	2020-10-13T22:48:43:113
1781326,000000	2020-10-13T22:48:43:153
1785528,000000	2020-10-13T22:48:43:193
1790042,000000	2020-10-13T22:48:43:233
1795216,000000	2020-10-13T22:48:43:273
1798748,000000	2020-10-13T22:48:43:317
1795295,000000	2020-10-13T22:48:43:353
1787823,000000	2020-10-13T22:48:43:393
1779298,000000	2020-10-13T22:48:43:434
1771508,000000	2020-10-13T22:48:43:474
1762987,000000	2020-10-13T22:48:43:514
1755891,000000	2020-10-13T22:48:43:556
1751486,000000	2020-10-13T22:48:43:594
1748938,000000	2020-10-13T22:48:43:634
1746947,000000	2020-10-13T22:48:43:673
1745075,000000	2020-10-13T22:48:43:714
1744223,000000	2020-10-13T22:48:43:755
1744720,000000	2020-10-13T22:48:43:797
1746780,000000	2020-10-13T22:48:43:840
1749663,000000	2020-10-13T22:48:43:875
1753068,000000	2020-10-13T22:48:43:916
1758026,000000	2020-10-13T22:48:43:954
1763114,000000	2020-10-13T22:48:43:994
1767815,000000	2020-10-13T22:48:44:035
1773267,000000	2020-10-13T22:48:44:078
1778905,000000	2020-10-13T22:48:44:116
1783802,000000	2020-10-13T22:48:44:155
1782298,000000	2020-10-13T22:48:44:195
1774667,000000	2020-10-13T22:48:44:233
1765211,000000	2020-10-13T22:48:44:276
1756084,000000	2020-10-13T22:48:44:316
1746409,000000	2020-10-13T22:48:44:355
1736508,000000	2020-10-13T22:48:44:395
1729944,000000	2020-10-13T22:48:44:434
1724711,000000	2020-10-13T22:48:44:475
1721023,000000	2020-10-13T22:48:44:520
1718260,000000	2020-10-13T22:48:44:554
1716745,000000	2020-10-13T22:48:44:595
1716732,000000	2020-10-13T22:48:44:634
1718086,000000	2020-10-13T22:48:44:674
1720839,000000	2020-10-13T22:48:44:716
1725437,000000	2020-10-13T22:48:44:757
1729794,000000	2020-10-13T22:48:44:795
1734296,000000	2020-10-13T22:48:44:834
1740072,000000	2020-10-13T22:48:44:875
1745717,000000	2020-10-13T22:48:44:916
1752289,000000	2020-10-13T22:48:44:953
1758594,000000	2020-10-13T22:48:44:997
1765446,000000	2020-10-13T22:48:45:035
1771504,000000	2020-10-13T22:48:45:078
1770565,000000	2020-10-13T22:48:45:115
1763466,000000	2020-10-13T22:48:45:155
1754328,000000	2020-10-13T22:48:45:196
1745558,000000	2020-10-13T22:48:45:238
1736511,000000	2020-10-13T22:48:45:275
1728072,000000	2020-10-13T22:48:45:315
1722196,000000	2020-10-13T22:48:45:356
1718528,000000	2020-10-13T22:48:45:395
1715837,000000	2020-10-13T22:48:45:436
1713823,000000	2020-10-13T22:48:45:478
1712113,000000	2020-10-13T22:48:45:518
1712237,000000	2020-10-13T22:48:45:557
1713888,000000	2020-10-13T22:48:45:597
1716988,000000	2020-10-13T22:48:45:634
1721103,000000	2020-10-13T22:48:45:687
1726489,000000	2020-10-13T22:48:45:720
1732535,000000	2020-10-13T22:48:45:764
1738035,000000	2020-10-13T22:48:45:794
1743664,000000	2020-10-13T22:48:45:834
1749477,000000	2020-10-13T22:48:45:875
1755596,000000	2020-10-13T22:48:45:916
1758729,000000	2020-10-13T22:48:45:959
1754804,000000	2020-10-13T22:48:45:996
1745371,000000	2020-10-13T22:48:46:036
1736854,000000	2020-10-13T22:48:46:087
1729032,000000	2020-10-13T22:48:46:117
1721871,000000	2020-10-13T22:48:46:156
1715863,000000	2020-10-13T22:48:46:199
1713120,000000	2020-10-13T22:48:46:236
1711461,000000	2020-10-13T22:48:46:278
1710164,000000	2020-10-13T22:48:46:318
1709447,000000	2020-10-13T22:48:46:356
1709486,000000	2020-10-13T22:48:46:397
1711628,000000	2020-10-13T22:48:46:442
1715674,000000	2020-10-13T22:48:46:478
1719908,000000	2020-10-13T22:48:46:525
1725659,000000	2020-10-13T22:48:46:558
1731300,000000	2020-10-13T22:48:46:595
1737425,000000	2020-10-13T22:48:46:636
1743785,000000	2020-10-13T22:48:46:681
1749765,000000	2020-10-13T22:48:46:716
1752911,000000	2020-10-13T22:48:46:757
1747831,000000	2020-10-13T22:48:46:797
1729241,000000	2020-10-13T22:48:46:837
1720813,000000	2020-10-13T22:48:46:877
1711649,000000	2020-10-13T22:48:46:922
1704810,000000	2020-10-13T22:48:46:957
1700868,000000	2020-10-13T22:48:46:997
1699414,000000	2020-10-13T22:48:47:036
1698318,000000	2020-10-13T22:48:47:087
1697834,000000	2020-10-13T22:48:47:119
1699141,000000	2020-10-13T22:48:47:163
1701105,000000	2020-10-13T22:48:47:197
1704214,000000	2020-10-13T22:48:47:243
1709670,000000	2020-10-13T22:48:47:279
1715219,000000	2020-10-13T22:48:47:317
1721446,000000	2020-10-13T22:48:47:358
1727928,000000	2020-10-13T22:48:47:400
1734703,000000	2020-10-13T22:48:47:436
1741835,000000	2020-10-13T22:48:47:476
1748585,000000	2020-10-13T22:48:47:518
1750609,000000	2020-10-13T22:48:47:558
1745908,000000	2020-10-13T22:48:47:597
1735954,000000	2020-10-13T22:48:47:640
1726611,000000	2020-10-13T22:48:47:678
1717574,000000	2020-10-13T22:48:47:718
1708479,000000	2020-10-13T22:48:47:758
1701619,000000	2020-10-13T22:48:47:798
1697672,000000	2020-10-13T22:48:47:838
1695850,000000	2020-10-13T22:48:47:896
1694679,000000	2020-10-13T22:48:47:920
1694165,000000	2020-10-13T22:48:47:960
1695737,000000	2020-10-13T22:48:48:004
1698152,000000	2020-10-13T22:48:48:038
1701527,000000	2020-10-13T22:48:48:080
1706746,000000	2020-10-13T22:48:48:143
1712723,000000	2020-10-13T22:48:48:158
1719664,000000	2020-10-13T22:48:48:197
1726997,000000	2020-10-13T22:48:48:240
1735001,000000	2020-10-13T22:48:48:278
1742079,000000	2020-10-13T22:48:48:319
1749835,000000	2020-10-13T22:48:48:360
1758069,000000	2020-10-13T22:48:48:398
1765930,000000	2020-10-13T22:48:48:438
1774216,000000	2020-10-13T22:48:48:479
1775648,000000	2020-10-13T22:48:48:519
1771065,000000	2020-10-13T22:48:48:559
1763588,000000	2020-10-13T22:48:48:601
1756455,000000	2020-10-13T22:48:48:640
1749318,000000	2020-10-13T22:48:48:679
1742883,000000	2020-10-13T22:48:48:720
1737535,000000	2020-10-13T22:48:48:766
1735492,000000	2020-10-13T22:48:48:799
1734458,000000	2020-10-13T22:48:48:839
1733967,000000	2020-10-13T22:48:48:878
1734050,000000	2020-10-13T22:48:48:919
1734896,000000	2020-10-13T22:48:48:959
1737346,000000	2020-10-13T22:48:48:999
1740786,000000	2020-10-13T22:48:49:039
1745356,000000	2020-10-13T22:48:49:092
1750862,000000	2020-10-13T22:48:49:122
1757225,000000	2020-10-13T22:48:49:161
1763331,000000	2020-10-13T22:48:49:199
1770491,000000	2020-10-13T22:48:49:238
1777233,000000	2020-10-13T22:48:49:280
1783565,000000	2020-10-13T22:48:49:325
1789072,000000	2020-10-13T22:48:49:359
1787196,000000	2020-10-13T22:48:49:399
1780691,000000	2020-10-13T22:48:49:440
1773149,000000	2020-10-13T22:48:49:479
1766959,000000	2020-10-13T22:48:49:520
1760699,000000	2020-10-13T22:48:49:566
1756067,000000	2020-10-13T22:48:49:599
1753600,000000	2020-10-13T22:48:49:640
1752019,000000	2020-10-13T22:48:49:680
1750841,000000	2020-10-13T22:48:49:720
1750171,000000	2020-10-13T22:48:49:760
1750805,000000	2020-10-13T22:48:49:804
1752063,000000	2020-10-13T22:48:49:839
1755132,000000	2020-10-13T22:48:49:881
1759483,000000	2020-10-13T22:48:49:922
1763797,000000	2020-10-13T22:48:49:961
1769153,000000	2020-10-13T22:48:50:000
1775113,000000	2020-10-13T22:48:50:042
1780779,000000	2020-10-13T22:48:50:101
1786655,000000	2020-10-13T22:48:50:121
1787583,000000	2020-10-13T22:48:50:161
1781780,000000	2020-10-13T22:48:50:201
1773050,000000	2020-10-13T22:48:50:240
1764433,000000	2020-10-13T22:48:50:290
1756607,000000	2020-10-13T22:48:50:321
1749116,000000	2020-10-13T22:48:50:360
1743816,000000	2020-10-13T22:48:50:403
1740367,000000	2020-10-13T22:48:50:441
1738131,000000	2020-10-13T22:48:50:480
1737147,000000	2020-10-13T22:48:50:524
1736696,000000	2020-10-13T22:48:50:560
1737193,000000	2020-10-13T22:48:50:600
1739437,000000	2020-10-13T22:48:50:641
1742695,000000	2020-10-13T22:48:50:681
1747115,000000	2020-10-13T22:48:50:721
1752447,000000	2020-10-13T22:48:50:765
1758471,000000	2020-10-13T22:48:50:802
1764378,000000	2020-10-13T22:48:50:841
1770798,000000	2020-10-13T22:48:50:881
1777320,000000	2020-10-13T22:48:50:921
1783581,000000	2020-10-13T22:48:50:961
1784337,000000	2020-10-13T22:48:51:002
1779094,000000	2020-10-13T22:48:51:044
1770351,000000	2020-10-13T22:48:51:100
1760868,000000	2020-10-13T22:48:51:121
1752495,000000	2020-10-13T22:48:51:160
1743156,000000	2020-10-13T22:48:51:202
1736351,000000	2020-10-13T22:48:51:244
1732082,000000	2020-10-13T22:48:51:281
1729880,000000	2020-10-13T22:48:51:321
1727789,000000	2020-10-13T22:48:51:361
1727629,000000	2020-10-13T22:48:51:401
1727955,000000	2020-10-13T22:48:51:441
1729918,000000	2020-10-13T22:48:51:487
1732961,000000	2020-10-13T22:48:51:521
1737809,000000	2020-10-13T22:48:51:562
1743494,000000	2020-10-13T22:48:51:601
1749475,000000	2020-10-13T22:48:51:641
1755458,000000	2020-10-13T22:48:51:682
1762889,000000	2020-10-13T22:48:51:727
1769782,000000	2020-10-13T22:48:51:761
1776877,000000	2020-10-13T22:48:51:803
1784008,000000	2020-10-13T22:48:51:843
1791376,000000	2020-10-13T22:48:51:883
1794109,000000	2020-10-13T22:48:51:924
1790505,000000	2020-10-13T22:48:51:964
1783127,000000	2020-10-13T22:48:52:002
1775210,000000	2020-10-13T22:48:52:041
1766748,000000	2020-10-13T22:48:52:104
1759027,000000	2020-10-13T22:48:52:123
1752727,000000	2020-10-13T22:48:52:161
1748734,000000	2020-10-13T22:48:52:206
1746401,000000	2020-10-13T22:48:52:242
1744801,000000	2020-10-13T22:48:52:282
1744048,000000	2020-10-13T22:48:52:322
1743812,000000	2020-10-13T22:48:52:362
1745722,000000	2020-10-13T22:48:52:402
1747836,000000	2020-10-13T22:48:52:445
1751425,000000	2020-10-13T22:48:52:482
1755830,000000	2020-10-13T22:48:52:523
1760995,000000	2020-10-13T22:48:52:562
1767038,000000	2020-10-13T22:48:52:602
1772804,000000	2020-10-13T22:48:52:643
1778808,000000	2020-10-13T22:48:52:693
1785156,000000	2020-10-13T22:48:52:723
1790972,000000	2020-10-13T22:48:52:776
1791972,000000	2020-10-13T22:48:52:803
1785993,000000	2020-10-13T22:48:52:843
1778322,000000	2020-10-13T22:48:52:884
1771036,000000	2020-10-13T22:48:52:934
1763787,000000	2020-10-13T22:48:52:964
1758099,000000	2020-10-13T22:48:53:004
1754403,000000	2020-10-13T22:48:53:042
1752106,000000	2020-10-13T22:48:53:090
1750360,000000	2020-10-13T22:48:53:123
1749476,000000	2020-10-13T22:48:53:165
1748905,000000	2020-10-13T22:48:53:202
1748890,000000	2020-10-13T22:48:53:243
1750660,000000	2020-10-13T22:48:53:284
1753769,000000	2020-10-13T22:48:53:323
1757924,000000	2020-10-13T22:48:53:363
1762150,000000	2020-10-13T22:48:53:405
1767757,000000	2020-10-13T22:48:53:443
1773143,000000	2020-10-13T22:48:53:483
1778569,000000	2020-10-13T22:48:53:524
1780255,000000	2020-10-13T22:48:53:564
1774102,000000	2020-10-13T22:48:53:607
1763832,000000	2020-10-13T22:48:53:649
1752880,000000	2020-10-13T22:48:53:694
1743462,000000	2020-10-13T22:48:53:724
1734666,000000	2020-10-13T22:48:53:763
1727691,000000	2020-10-13T22:48:53:803
1723482,000000	2020-10-13T22:48:53:847
1721263,000000	2020-10-13T22:48:53:889
1720162,000000	2020-10-13T22:48:53:924
1719437,000000	2020-10-13T22:48:53:964
1718821,000000	2020-10-13T22:48:54:004
1720483,000000	2020-10-13T22:48:54:044
1723409,000000	2020-10-13T22:48:54:093
1727879,000000	2020-10-13T22:48:54:127
1732051,000000	2020-10-13T22:48:54:164
1738009,000000	2020-10-13T22:48:54:204
1743904,000000	2020-10-13T22:48:54:244
1749771,000000	2020-10-13T22:48:54:284
1755231,000000	2020-10-13T22:48:54:325
1752169,000000	2020-10-13T22:48:54:367
1741998,000000	2020-10-13T22:48:54:404
1729782,000000	2020-10-13T22:48:54:444
1719302,000000	2020-10-13T22:48:54:485
1708963,000000	2020-10-13T22:48:54:525
1699954,000000	2020-10-13T22:48:54:564
1693481,000000	2020-10-13T22:48:54:607
1690607,000000	2020-10-13T22:48:54:643
1688180,000000	2020-10-13T22:48:54:690
1687844,000000	2020-10-13T22:48:54:726
1688725,000000	2020-10-13T22:48:54:766
1692066,000000	2020-10-13T22:48:54:805
1696326,000000	2020-10-13T22:48:54:856
1701569,000000	2020-10-13T22:48:54:886
1707946,000000	2020-10-13T22:48:54:942
1714731,000000	2020-10-13T22:48:54:965
1721427,000000	2020-10-13T22:48:55:005
1728741,000000	2020-10-13T22:48:55:044
1736330,000000	2020-10-13T22:48:55:097
1743307,000000	2020-10-13T22:48:55:125
1743487,000000	2020-10-13T22:48:55:165
1735265,000000	2020-10-13T22:48:55:205
1723772,000000	2020-10-13T22:48:55:245
1712815,000000	2020-10-13T22:48:55:286
1702822,000000	2020-10-13T22:48:55:328
1693402,000000	2020-10-13T22:48:55:365
1686008,000000	2020-10-13T22:48:55:405
1683166,000000	2020-10-13T22:48:55:445
1681685,000000	2020-10-13T22:48:55:485
1680977,000000	2020-10-13T22:48:55:526
1681364,000000	2020-10-13T22:48:55:570
1682508,000000	2020-10-13T22:48:55:605
1685786,000000	2020-10-13T22:48:55:645
1689913,000000	2020-10-13T22:48:55:685
1695941,000000	2020-10-13T22:48:55:725
1703118,000000	2020-10-13T22:48:55:766
1710407,000000	2020-10-13T22:48:55:811
1717980,000000	2020-10-13T22:48:55:846
1725905,000000	2020-10-13T22:48:55:886
1733885,000000	2020-10-13T22:48:55:926
1741927,000000	2020-10-13T22:48:55:965
1749731,000000	2020-10-13T22:48:56:007
1754961,000000	2020-10-13T22:48:56:048
1750685,000000	2020-10-13T22:48:56:090
1740542,000000	2020-10-13T22:48:56:127
1730505,000000	2020-10-13T22:48:56:166
1722270,000000	2020-10-13T22:48:56:207
1714974,000000	2020-10-13T22:48:56:246
1708288,000000	2020-10-13T22:48:56:288
1705512,000000	2020-10-13T22:48:56:326
1704036,000000	2020-10-13T22:48:56:366
1703644,000000	2020-10-13T22:48:56:407
1703406,000000	2020-10-13T22:48:56:447
1703738,000000	2020-10-13T22:48:56:486
1706095,000000	2020-10-13T22:48:56:536
1710108,000000	2020-10-13T22:48:56:567
1715466,000000	2020-10-13T22:48:56:606
1721257,000000	2020-10-13T22:48:56:646
1727922,000000	2020-10-13T22:48:56:687
1734789,000000	2020-10-13T22:48:56:727
1742402,000000	2020-10-13T22:48:56:772
1750293,000000	2020-10-13T22:48:56:806
1757601,000000	2020-10-13T22:48:56:846
1756812,000000	2020-10-13T22:48:56:887
1748837,000000	2020-10-13T22:48:56:927
1738375,000000	2020-10-13T22:48:56:966
1728902,000000	2020-10-13T22:48:57:011
1721464,000000	2020-10-13T22:48:57:047
1714428,000000	2020-10-13T22:48:57:094
1710426,000000	2020-10-13T22:48:57:128
1708748,000000	2020-10-13T22:48:57:167
1707533,000000	2020-10-13T22:48:57:207
1706407,000000	2020-10-13T22:48:57:251
1706495,000000	2020-10-13T22:48:57:293
1707690,000000	2020-10-13T22:48:57:329
1710042,000000	2020-10-13T22:48:57:369
1714254,000000	2020-10-13T22:48:57:408
1718385,000000	2020-10-13T22:48:57:474
1723632,000000	2020-10-13T22:48:57:490
1730394,000000	2020-10-13T22:48:57:526
1736573,000000	2020-10-13T22:48:57:567
1740940,000000	2020-10-13T22:48:57:607
1735711,000000	2020-10-13T22:48:57:647
1722506,000000	2020-10-13T22:48:57:687
1708626,000000	2020-10-13T22:48:57:731
1696165,000000	2020-10-13T22:48:57:767
1686325,000000	2020-10-13T22:48:57:807
1677520,000000	2020-10-13T22:48:57:848
1672571,000000	2020-10-13T22:48:57:887
1670380,000000	2020-10-13T22:48:57:928
1669161,000000	2020-10-13T22:48:57:972
1667938,000000	2020-10-13T22:48:58:008
1667589,000000	2020-10-13T22:48:58:048
1668596,000000	2020-10-13T22:48:58:129
1671495,000000	2020-10-13T22:48:58:131
1676752,000000	2020-10-13T22:48:58:178
1682326,000000	2020-10-13T22:48:58:211
1688215,000000	2020-10-13T22:48:58:248
1694857,000000	2020-10-13T22:48:58:294
1702011,000000	2020-10-13T22:48:58:328
1708656,000000	2020-10-13T22:48:58:368
1705553,000000	2020-10-13T22:48:58:408
1691621,000000	2020-10-13T22:48:58:451
1675699,000000	2020-10-13T22:48:58:488
1662767,000000	2020-10-13T22:48:58:529
1650276,000000	2020-10-13T22:48:58:568
1638656,000000	2020-10-13T22:48:58:608
1631295,000000	2020-10-13T22:48:58:649
1628211,000000	2020-10-13T22:48:58:691
1627298,000000	2020-10-13T22:48:58:729
1626563,000000	2020-10-13T22:48:58:769
1626794,000000	2020-10-13T22:48:58:809
1628072,000000	2020-10-13T22:48:58:849
1631548,000000	2020-10-13T22:48:58:889
1636723,000000	2020-10-13T22:48:58:932
1642807,000000	2020-10-13T22:48:58:969
1649914,000000	2020-10-13T22:48:59:009
1656980,000000	2020-10-13T22:48:59:052
1664907,000000	2020-10-13T22:48:59:096
1672217,000000	2020-10-13T22:48:59:143
1679943,000000	2020-10-13T22:48:59:174
1687674,000000	2020-10-13T22:48:59:210
1689431,000000	2020-10-13T22:48:59:249
1678614,000000	2020-10-13T22:48:59:289
1661254,000000	2020-10-13T22:48:59:329
1645687,000000	2020-10-13T22:48:59:369
1631663,000000	2020-10-13T22:48:59:411
1618635,000000	2020-10-13T22:48:59:449
1608793,000000	2020-10-13T22:48:59:491
1604156,000000	2020-10-13T22:48:59:530
1601593,000000	2020-10-13T22:48:59:571
1600028,000000	2020-10-13T22:48:59:611
1599852,000000	2020-10-13T22:48:59:654
1600187,000000	2020-10-13T22:48:59:689
1602800,000000	2020-10-13T22:48:59:730
1606569,000000	2020-10-13T22:48:59:770
1612753,000000	2020-10-13T22:48:59:809
1619870,000000	2020-10-13T22:48:59:850
1627335,000000	2020-10-13T22:48:59:892
1635465,000000	2020-10-13T22:48:59:929
1643612,000000	2020-10-13T22:48:59:969
1652353,000000	2020-10-13T22:49:00:010
1660779,000000	2020-10-13T22:49:00:061
1669016,000000	2020-10-13T22:49:00:101
1678206,000000	2020-10-13T22:49:00:135
1685735,000000	2020-10-13T22:49:00:169
1681214,000000	2020-10-13T22:49:00:210
1666361,000000	2020-10-13T22:49:00:250
1651156,000000	2020-10-13T22:49:00:290
1638456,000000	2020-10-13T22:49:00:330
1627654,000000	2020-10-13T22:49:00:374
1617089,000000	2020-10-13T22:49:00:410
1611705,000000	2020-10-13T22:49:00:449
1609415,000000	2020-10-13T22:49:00:491
1608579,000000	2020-10-13T22:49:00:531
1607779,000000	2020-10-13T22:49:00:578
1608425,000000	2020-10-13T22:49:00:611
1610377,000000	2020-10-13T22:49:00:650
1613991,000000	2020-10-13T22:49:00:690
1619362,000000	2020-10-13T22:49:00:731
1626352,000000	2020-10-13T22:49:00:770
1633981,000000	2020-10-13T22:49:00:811
1641526,000000	2020-10-13T22:49:00:853
1649589,000000	2020-10-13T22:49:00:890
1656997,000000	2020-10-13T22:49:00:931
1665456,000000	2020-10-13T22:49:00:970
1673544,000000	2020-10-13T22:49:01:010
1673795,000000	2020-10-13T22:49:01:051
1661883,000000	2020-10-13T22:49:01:095
1647132,000000	2020-10-13T22:49:01:132
1635596,000000	2020-10-13T22:49:01:172
1626641,000000	2020-10-13T22:49:01:212
1619056,000000	2020-10-13T22:49:01:253
1615280,000000	2020-10-13T22:49:01:291
1614965,000000	2020-10-13T22:49:01:338
1615498,000000	2020-10-13T22:49:01:371
1616145,000000	2020-10-13T22:49:01:411
1617464,000000	2020-10-13T22:49:01:451
1620332,000000	2020-10-13T22:49:01:494
1624878,000000	2020-10-13T22:49:01:533
1631174,000000	2020-10-13T22:49:01:575
1638390,000000	2020-10-13T22:49:01:610
1646810,000000	2020-10-13T22:49:01:652
1655023,000000	2020-10-13T22:49:01:692
1663361,000000	2020-10-13T22:49:01:731
1671877,000000	2020-10-13T22:49:01:771
1680010,000000	2020-10-13T22:49:01:815
1679048,000000	2020-10-13T22:49:01:851
1667801,000000	2020-10-13T22:49:01:891
1653244,000000	2020-10-13T22:49:01:932
1641072,000000	2020-10-13T22:49:01:971
1631379,000000	2020-10-13T22:49:02:011
1621656,000000	2020-10-13T22:49:02:057
1616335,000000	2020-10-13T22:49:02:104
1614804,000000	2020-10-13T22:49:02:133
1614700,000000	2020-10-13T22:49:02:180
1614591,000000	2020-10-13T22:49:02:213
1615394,000000	2020-10-13T22:49:02:252
1618352,000000	2020-10-13T22:49:02:315
1622401,000000	2020-10-13T22:49:02:333
1628365,000000	2020-10-13T22:49:02:373
1635965,000000	2020-10-13T22:49:02:412
1643758,000000	2020-10-13T22:49:02:452
1651761,000000	2020-10-13T22:49:02:492
1668906,000000	2020-10-13T22:49:02:539
1675562,000000	2020-10-13T22:49:02:573
1670520,000000	2020-10-13T22:49:02:613
1656443,000000	2020-10-13T22:49:02:653
1640101,000000	2020-10-13T22:49:02:692
1627129,000000	2020-10-13T22:49:02:732
1615183,000000	2020-10-13T22:49:02:776
1604455,000000	2020-10-13T22:49:02:812
1598451,000000	2020-10-13T22:49:02:852
1596462,000000	2020-10-13T22:49:02:892
1595417,000000	2020-10-13T22:49:02:934
1595074,000000	2020-10-13T22:49:02:971
1595670,000000	2020-10-13T22:49:03:019
1598788,000000	2020-10-13T22:49:03:057
1603136,000000	2020-10-13T22:49:03:103
1608762,000000	2020-10-13T22:49:03:133
1615978,000000	2020-10-13T22:49:03:173
1623848,000000	2020-10-13T22:49:03:215
1631942,000000	2020-10-13T22:49:03:264
1639653,000000	2020-10-13T22:49:03:293
1647450,000000	2020-10-13T22:49:03:333
1648494,000000	2020-10-13T22:49:03:373
1635896,000000	2020-10-13T22:49:03:413
1619348,000000	2020-10-13T22:49:03:453
1605159,000000	2020-10-13T22:49:03:496
1592673,000000	2020-10-13T22:49:03:533
1581181,000000	2020-10-13T22:49:03:573
1573848,000000	2020-10-13T22:49:03:613
1570782,000000	2020-10-13T22:49:03:655
1568951,000000	2020-10-13T22:49:03:696
1568151,000000	2020-10-13T22:49:03:742
1567692,000000	2020-10-13T22:49:03:775
1568167,000000	2020-10-13T22:49:03:820
1571658,000000	2020-10-13T22:49:03:853
1576890,000000	2020-10-13T22:49:03:892
1583134,000000	2020-10-13T22:49:03:935
1589944,000000	2020-10-13T22:49:03:979
1597159,000000	2020-10-13T22:49:04:014
1604638,000000	2020-10-13T22:49:04:054
1609650,000000	2020-10-13T22:49:04:099
1601884,000000	2020-10-13T22:49:04:134
1584391,000000	2020-10-13T22:49:04:174
1568743,000000	2020-10-13T22:49:04:216
1555645,000000	2020-10-13T22:49:04:255
1544528,000000	2020-10-13T22:49:04:294
1534797,000000	2020-10-13T22:49:04:334
1531244,000000	2020-10-13T22:49:04:374
1529228,000000	2020-10-13T22:49:04:415
1527187,000000	2020-10-13T22:49:04:479
1525583,000000	2020-10-13T22:49:04:494
1525364,000000	2020-10-13T22:49:04:533
1527784,000000	2020-10-13T22:49:04:574
1531863,000000	2020-10-13T22:49:04:622
1537955,000000	2020-10-13T22:49:04:653
1543875,000000	2020-10-13T22:49:04:696
1550812,000000	2020-10-13T22:49:04:734
1557320,000000	2020-10-13T22:49:04:774
1561414,000000	2020-10-13T22:49:04:815
1550030,000000	2020-10-13T22:49:04:854
1530975,000000	2020-10-13T22:49:04:894
1513664,000000	2020-10-13T22:49:04:937
1498882,000000	2020-10-13T22:49:04:975
1484564,000000	2020-10-13T22:49:05:015
1474113,000000	2020-10-13T22:49:05:055
1469276,000000	2020-10-13T22:49:05:100
1467920,000000	2020-10-13T22:49:05:136
1467030,000000	2020-10-13T22:49:05:183
1465744,000000	2020-10-13T22:49:05:214
1466111,000000	2020-10-13T22:49:05:254
1469245,000000	2020-10-13T22:49:05:296
1474579,000000	2020-10-13T22:49:05:335
1481222,000000	2020-10-13T22:49:05:373
1488993,000000	2020-10-13T22:49:05:421
1497199,000000	2020-10-13T22:49:05:454
1505858,000000	2020-10-13T22:49:05:495
1514560,000000	2020-10-13T22:49:05:535
1523662,000000	2020-10-13T22:49:05:575
1530707,000000	2020-10-13T22:49:05:615
1524096,000000	2020-10-13T22:49:05:660
1506095,000000	2020-10-13T22:49:05:695
1489388,000000	2020-10-13T22:49:05:736
1475612,000000	2020-10-13T22:49:05:775
1462568,000000	2020-10-13T22:49:05:815
1451661,000000	2020-10-13T22:49:05:856
1448255,000000	2020-10-13T22:49:05:900
1449557,000000	2020-10-13T22:49:05:957
1450824,000000	2020-10-13T22:49:05:975
1453410,000000	2020-10-13T22:49:06:018
1456754,000000	2020-10-13T22:49:06:054
1461367,000000	2020-10-13T22:49:06:112
1468313,000000	2020-10-13T22:49:06:144
1476755,000000	2020-10-13T22:49:06:175
1486664,000000	2020-10-13T22:49:06:215
1497081,000000	2020-10-13T22:49:06:256
1507721,000000	2020-10-13T22:49:06:296
1518822,000000	2020-10-13T22:49:06:336
1529918,000000	2020-10-13T22:49:06:379
1541112,000000	2020-10-13T22:49:06:416
1552758,000000	2020-10-13T22:49:06:456
1564787,000000	2020-10-13T22:49:06:496
1576407,000000	2020-10-13T22:49:06:536
1578711,000000	2020-10-13T22:49:06:584
1568495,000000	2020-10-13T22:49:06:620
1557998,000000	2020-10-13T22:49:06:660
1549569,000000	2020-10-13T22:49:06:697
1542509,000000	2020-10-13T22:49:06:738
1536436,000000	2020-10-13T22:49:06:777
1534612,000000	2020-10-13T22:49:06:818
1536930,000000	2020-10-13T22:49:06:859
1540420,000000	2020-10-13T22:49:06:897
1544024,000000	2020-10-13T22:49:06:937
1548968,000000	2020-10-13T22:49:06:977
1554967,000000	2020-10-13T22:49:07:017
1561764,000000	2020-10-13T22:49:07:057
1570122,000000	2020-10-13T22:49:07:097
1579567,000000	2020-10-13T22:49:07:138
1589346,000000	2020-10-13T22:49:07:182
1599665,000000	2020-10-13T22:49:07:217
1609773,000000	2020-10-13T22:49:07:257
1619847,000000	2020-10-13T22:49:07:297
1630122,000000	2020-10-13T22:49:07:349
1640611,000000	2020-10-13T22:49:07:377
1651917,000000	2020-10-13T22:49:07:417
1660390,000000	2020-10-13T22:49:07:456
1657768,000000	2020-10-13T22:49:07:497
1648530,000000	2020-10-13T22:49:07:537
1640275,000000	2020-10-13T22:49:07:580
1634696,000000	2020-10-13T22:49:07:617
1629208,000000	2020-10-13T22:49:07:657
1626574,000000	2020-10-13T22:49:07:700
1627450,000000	2020-10-13T22:49:07:739
1630478,000000	2020-10-13T22:49:07:786
1633621,000000	2020-10-13T22:49:07:823
1636251,000000	2020-10-13T22:49:07:857
1639905,000000	2020-10-13T22:49:07:897
1645974,000000	2020-10-13T22:49:07:937
1652171,000000	2020-10-13T22:49:07:978
1659874,000000	2020-10-13T22:49:08:018
1668697,000000	2020-10-13T22:49:08:060
1677643,000000	2020-10-13T22:49:08:101
1686716,000000	2020-10-13T22:49:08:138
1695132,000000	2020-10-13T22:49:08:179
1703796,000000	2020-10-13T22:49:08:221
1710042,000000	2020-10-13T22:49:08:260
1706201,000000	2020-10-13T22:49:08:309
1697642,000000	2020-10-13T22:49:08:339
1690535,000000	2020-10-13T22:49:08:377
1686037,000000	2020-10-13T22:49:08:418
1681838,000000	2020-10-13T22:49:08:457
1679336,000000	2020-10-13T22:49:08:498
1678984,000000	2020-10-13T22:49:08:540
1681607,000000	2020-10-13T22:49:08:578
1682927,000000	2020-10-13T22:49:08:618
1684500,000000	2020-10-13T22:49:08:658
1686831,000000	2020-10-13T22:49:08:698
1690510,000000	2020-10-13T22:49:08:739
1695561,000000	2020-10-13T22:49:08:784
1700805,000000	2020-10-13T22:49:08:818
1707558,000000	2020-10-13T22:49:08:861
1713860,000000	2020-10-13T22:49:08:899
1720329,000000	2020-10-13T22:49:08:941
1726761,000000	2020-10-13T22:49:08:978
1734072,000000	2020-10-13T22:49:09:023
1740519,000000	2020-10-13T22:49:09:059
1745911,000000	2020-10-13T22:49:09:099
1741026,000000	2020-10-13T22:49:09:139
1730391,000000	2020-10-13T22:49:09:178
1719633,000000	2020-10-13T22:49:09:219
1711503,000000	2020-10-13T22:49:09:261
1703188,000000	2020-10-13T22:49:09:303
1696616,000000	2020-10-13T22:49:09:339
1693178,000000	2020-10-13T22:49:09:381
1691812,000000	2020-10-13T22:49:09:419
1691651,000000	2020-10-13T22:49:09:460
1690659,000000	2020-10-13T22:49:09:503
1690638,000000	2020-10-13T22:49:09:539
1692742,000000	2020-10-13T22:49:09:579
1696611,000000	2020-10-13T22:49:09:619
1702221,000000	2020-10-13T22:49:09:659
1708466,000000	2020-10-13T22:49:09:699
1715889,000000	2020-10-13T22:49:09:743
1722661,000000	2020-10-13T22:49:09:779
1728988,000000	2020-10-13T22:49:09:819
1735363,000000	2020-10-13T22:49:09:859
1740110,000000	2020-10-13T22:49:09:898
1737007,000000	2020-10-13T22:49:09:940
1727203,000000	2020-10-13T22:49:09:985
1717785,000000	2020-10-13T22:49:10:019
1709999,000000	2020-10-13T22:49:10:061
1703279,000000	2020-10-13T22:49:10:107
1696879,000000	2020-10-13T22:49:10:141
1693970,000000	2020-10-13T22:49:10:180
1693548,000000	2020-10-13T22:49:10:221
1692862,000000	2020-10-13T22:49:10:259
1692763,000000	2020-10-13T22:49:10:299
1694520,000000	2020-10-13T22:49:10:341
1697378,000000	2020-10-13T22:49:10:380
1701719,000000	2020-10-13T22:49:10:420
1706398,000000	2020-10-13T22:49:10:462
1712208,000000	2020-10-13T22:49:10:504
1718220,000000	2020-10-13T22:49:10:539
1722207,000000	2020-10-13T22:49:10:581
1716195,000000	2020-10-13T22:49:10:621
1705443,000000	2020-10-13T22:49:10:661
1695342,000000	2020-10-13T22:49:10:705
1687971,000000	2020-10-13T22:49:10:740
1681826,000000	2020-10-13T22:49:10:780
1676312,000000	2020-10-13T22:49:10:820
1674811,000000	2020-10-13T22:49:10:860
1674769,000000	2020-10-13T22:49:10:900
1675752,000000	2020-10-13T22:49:10:945
1675885,000000	2020-10-13T22:49:10:980
1677617,000000	2020-10-13T22:49:11:046
1680667,000000	2020-10-13T22:49:11:060
1684560,000000	2020-10-13T22:49:11:110
1689915,000000	2020-10-13T22:49:11:139
1695915,000000	2020-10-13T22:49:11:180
1702669,000000	2020-10-13T22:49:11:219
1704955,000000	2020-10-13T22:49:11:261
1697934,000000	2020-10-13T22:49:11:301
1687924,000000	2020-10-13T22:49:11:341
1679500,000000	2020-10-13T22:49:11:395
1673496,000000	2020-10-13T22:49:11:428
1668123,000000	2020-10-13T22:49:11:471
1665375,000000	2020-10-13T22:49:11:502
1665559,000000	2020-10-13T22:49:11:543
1667355,000000	2020-10-13T22:49:11:581
1669330,000000	2020-10-13T22:49:11:622
1672206,000000	2020-10-13T22:49:11:664
1674740,000000	2020-10-13T22:49:11:701
1678355,000000	2020-10-13T22:49:11:741
1683956,000000	2020-10-13T22:49:11:781
1689796,000000	2020-10-13T22:49:11:821
1696414,000000	2020-10-13T22:49:11:861
1703526,000000	2020-10-13T22:49:11:906
1702843,000000	2020-10-13T22:49:11:941
1693977,000000	2020-10-13T22:49:11:981
1685098,000000	2020-10-13T22:49:12:022
1678518,000000	2020-10-13T22:49:12:061
1672496,000000	2020-10-13T22:49:12:104
1668464,000000	2020-10-13T22:49:12:146
1667663,000000	2020-10-13T22:49:12:184
1668979,000000	2020-10-13T22:49:12:221
1670610,000000	2020-10-13T22:49:12:261
1673130,000000	2020-10-13T22:49:12:301
1675449,000000	2020-10-13T22:49:12:342
1679357,000000	2020-10-13T22:49:12:384
1683615,000000	2020-10-13T22:49:12:421
1689231,000000	2020-10-13T22:49:12:464
1696094,000000	2020-10-13T22:49:12:506
1703052,000000	2020-10-13T22:49:12:543
1707673,000000	2020-10-13T22:49:12:607
1701656,000000	2020-10-13T22:49:12:628
1692055,000000	2020-10-13T22:49:12:663
1684049,000000	2020-10-13T22:49:12:703
1678968,000000	2020-10-13T22:49:12:743
1673729,000000	2020-10-13T22:49:12:782
1670421,000000	2020-10-13T22:49:12:822
1670704,000000	2020-10-13T22:49:12:865
1672337,000000	2020-10-13T22:49:12:902
1674352,000000	2020-10-13T22:49:12:942
1676498,000000	2020-10-13T22:49:12:983
1679930,000000	2020-10-13T22:49:13:026
1683708,000000	2020-10-13T22:49:13:061
1689070,000000	2020-10-13T22:49:13:106
1695554,000000	2020-10-13T22:49:13:141
1702980,000000	2020-10-13T22:49:13:181
1710619,000000	2020-10-13T22:49:13:221
1714543,000000	2020-10-13T22:49:13:267
1709371,000000	2020-10-13T22:49:13:303
1698522,000000	2020-10-13T22:49:13:345
1689722,000000	2020-10-13T22:49:13:383
1682436,000000	2020-10-13T22:49:13:423
1676500,000000	2020-10-13T22:49:13:463
1672546,000000	2020-10-13T22:49:13:503
1671843,000000	2020-10-13T22:49:13:543
1672822,000000	2020-10-13T22:49:13:586
1674488,000000	2020-10-13T22:49:13:622
1676418,000000	2020-10-13T22:49:13:663
1679960,000000	2020-10-13T22:49:13:703
1683791,000000	2020-10-13T22:49:13:743
1689572,000000	2020-10-13T22:49:13:783
1696030,000000	2020-10-13T22:49:13:828
1703896,000000	2020-10-13T22:49:13:863
1711037,000000	2020-10-13T22:49:13:909
1718840,000000	2020-10-13T22:49:13:944
1727037,000000	2020-10-13T22:49:13:983
1730273,000000	2020-10-13T22:49:14:023
1724603,000000	2020-10-13T22:49:14:117
1714542,000000	2020-10-13T22:49:14:119
1706756,000000	2020-10-13T22:49:14:145
1700326,000000	2020-10-13T22:49:14:183
1694615,000000	2020-10-13T22:49:14:224
1691919,000000	2020-10-13T22:49:14:263
1690632,000000	2020-10-13T22:49:14:307
1692068,000000	2020-10-13T22:49:14:344
1693765,000000	2020-10-13T22:49:14:384
1696050,000000	2020-10-13T22:49:14:424
1699347,000000	2020-10-13T22:49:14:464
1703678,000000	2020-10-13T22:49:14:504
1709227,000000	2020-10-13T22:49:14:549
1715573,000000	2020-10-13T22:49:14:584
1722735,000000	2020-10-13T22:49:14:624
1730695,000000	2020-10-13T22:49:14:665
1738716,000000	2020-10-13T22:49:14:704
1746293,000000	2020-10-13T22:49:14:744
1754906,000000	2020-10-13T22:49:14:794
1760621,000000	2020-10-13T22:49:14:824
1758560,000000	2020-10-13T22:49:14:875
1751150,000000	2020-10-13T22:49:14:905
1744189,000000	2020-10-13T22:49:14:948
1739237,000000	2020-10-13T22:49:14:985
1735184,000000	2020-10-13T22:49:15:037
1732663,000000	2020-10-13T22:49:15:065
1732377,000000	2020-10-13T22:49:15:106
1733258,000000	2020-10-13T22:49:15:144
1734980,000000	2020-10-13T22:49:15:184
1736657,000000	2020-10-13T22:49:15:225
1739080,000000	2020-10-13T22:49:15:267
1742952,000000	2020-10-13T22:49:15:305
1747537,000000	2020-10-13T22:49:15:345
1753559,000000	2020-10-13T22:49:15:387
1760064,000000	2020-10-13T22:49:15:425
1766674,000000	2020-10-13T22:49:15:464
1773141,000000	2020-10-13T22:49:15:508
1780545,000000	2020-10-13T22:49:15:545
1785765,000000	2020-10-13T22:49:15:585
1783226,000000	2020-10-13T22:49:15:625
1775353,000000	2020-10-13T22:49:15:665
1769564,000000	2020-10-13T22:49:15:705
1764574,000000	2020-10-13T22:49:15:748
1760314,000000	2020-10-13T22:49:15:785
1757741,000000	2020-10-13T22:49:15:825
1757329,000000	2020-10-13T22:49:15:865
1758088,000000	2020-10-13T22:49:15:913
1758076,000000	2020-10-13T22:49:15:948
1759294,000000	2020-10-13T22:49:16:030
1761102,000000	2020-10-13T22:49:16:031
1764751,000000	2020-10-13T22:49:16:066
1768068,000000	2020-10-13T22:49:16:105
1773483,000000	2020-10-13T22:49:16:148
1779163,000000	2020-10-13T22:49:16:187
1784740,000000	2020-10-13T22:49:16:227
1791324,000000	2020-10-13T22:49:16:265
1793929,000000	2020-10-13T22:49:16:306
1789425,000000	2020-10-13T22:49:16:346
1780654,000000	2020-10-13T22:49:16:393
1773550,000000	2020-10-13T22:49:16:426
1767194,000000	2020-10-13T22:49:16:469
1761991,000000	2020-10-13T22:49:16:506
1758657,000000	2020-10-13T22:49:16:546
1757452,000000	2020-10-13T22:49:16:586
1756916,000000	2020-10-13T22:49:16:626
1757324,000000	2020-10-13T22:49:16:666
1757468,000000	2020-10-13T22:49:16:707
1758402,000000	2020-10-13T22:49:16:747
1761018,000000	2020-10-13T22:49:16:787
1764715,000000	2020-10-13T22:49:16:826
1769228,000000	2020-10-13T22:49:16:865
1774211,000000	2020-10-13T22:49:16:907
1779507,000000	2020-10-13T22:49:16:951
1785843,000000	2020-10-13T22:49:16:993
1790324,000000	2020-10-13T22:49:17:027
1787777,000000	2020-10-13T22:49:17:065
1779421,000000	2020-10-13T22:49:17:107
1769941,000000	2020-10-13T22:49:17:148
1762060,000000	2020-10-13T22:49:17:191
1754376,000000	2020-10-13T22:49:17:226
1747317,000000	2020-10-13T22:49:17:267
1743227,000000	2020-10-13T22:49:17:307
1741185,000000	2020-10-13T22:49:17:346
1739681,000000	2020-10-13T22:49:17:387
1738541,000000	2020-10-13T22:49:17:430
1738164,000000	2020-10-13T22:49:17:467
1739075,000000	2020-10-13T22:49:17:507
1741303,000000	2020-10-13T22:49:17:547
1745013,000000	2020-10-13T22:49:17:589
1749521,000000	2020-10-13T22:49:17:626
1754782,000000	2020-10-13T22:49:17:680
1759942,000000	2020-10-13T22:49:17:707
1766504,000000	2020-10-13T22:49:17:752
1771247,000000	2020-10-13T22:49:17:788
1769773,000000	2020-10-13T22:49:17:836
1761550,000000	2020-10-13T22:49:17:873
1751385,000000	2020-10-13T22:49:17:911
1742311,000000	2020-10-13T22:49:17:947
1734146,000000	2020-10-13T22:49:17:987
1727210,000000	2020-10-13T22:49:18:027
1722559,000000	2020-10-13T22:49:18:067
1719929,000000	2020-10-13T22:49:18:112
1716246,000000	2020-10-13T22:49:18:151
1715269,000000	2020-10-13T22:49:18:188
1715713,000000	2020-10-13T22:49:18:232
1717661,000000	2020-10-13T22:49:18:269
1720688,000000	2020-10-13T22:49:18:311
1724880,000000	2020-10-13T22:49:18:348
1730172,000000	2020-10-13T22:49:18:388
1735012,000000	2020-10-13T22:49:18:427
1740557,000000	2020-10-13T22:49:18:467
1744333,000000	2020-10-13T22:49:18:508
1739689,000000	2020-10-13T22:49:18:548
1728555,000000	2020-10-13T22:49:18:587
1717601,000000	2020-10-13T22:49:18:631
1708519,000000	2020-10-13T22:49:18:669
1700478,000000	2020-10-13T22:49:18:713
1694431,000000	2020-10-13T22:49:18:749
1691538,000000	2020-10-13T22:49:18:789
1689395,000000	2020-10-13T22:49:18:828
1688183,000000	2020-10-13T22:49:18:872
1686589,000000	2020-10-13T22:49:18:911
1685842,000000	2020-10-13T22:49:18:948
1687027,000000	2020-10-13T22:49:18:988
1688789,000000	2020-10-13T22:49:19:028
1692290,000000	2020-10-13T22:49:19:068
1695879,000000	2020-10-13T22:49:19:110
1701032,000000	2020-10-13T22:49:19:149
1706071,000000	2020-10-13T22:49:19:188
1705990,000000	2020-10-13T22:49:19:229
1696057,000000	2020-10-13T22:49:19:269
1681437,000000	2020-10-13T22:49:19:309
1669102,000000	2020-10-13T22:49:19:363
1658510,000000	2020-10-13T22:49:19:389
1648960,000000	2020-10-13T22:49:19:436
1641794,000000	2020-10-13T22:49:19:468
1638819,000000	2020-10-13T22:49:19:512
1636641,000000	2020-10-13T22:49:19:550
1633998,000000	2020-10-13T22:49:19:610
1632399,000000	2020-10-13T22:49:19:629
1632746,000000	2020-10-13T22:49:19:667
1633928,000000	2020-10-13T22:49:19:709
1637198,000000	2020-10-13T22:49:19:749
1641755,000000	2020-10-13T22:49:19:789
1646517,000000	2020-10-13T22:49:19:832
1652159,000000	2020-10-13T22:49:19:869
1658392,000000	2020-10-13T22:49:19:910
1658713,000000	2020-10-13T22:49:19:950
1647237,000000	2020-10-13T22:49:19:989
1631509,000000	2020-10-13T22:49:20:030
1618114,000000	2020-10-13T22:49:20:083
1605833,000000	2020-10-13T22:49:20:108
1594275,000000	2020-10-13T22:49:20:150
1586735,000000	2020-10-13T22:49:20:192
1582689,000000	2020-10-13T22:49:20:231
1581014,000000	2020-10-13T22:49:20:292
1578744,000000	2020-10-13T22:49:20:312
1577778,000000	2020-10-13T22:49:20:350
1578348,000000	2020-10-13T22:49:20:390
1580324,000000	2020-10-13T22:49:20:430
1584341,000000	2020-10-13T22:49:20:470
1589523,000000	2020-10-13T22:49:20:510
1596119,000000	2020-10-13T22:49:20:561
1602744,000000	2020-10-13T22:49:20:591
1609524,000000	2020-10-13T22:49:20:632
1616960,000000	2020-10-13T22:49:20:669
1624968,000000	2020-10-13T22:49:20:711
1632515,000000	2020-10-13T22:49:20:751
1633113,000000	2020-10-13T22:49:20:792
1621690,000000	2020-10-13T22:49:20:830
1605054,000000	2020-10-13T22:49:20:870
1591123,000000	2020-10-13T22:49:20:910
1577954,000000	2020-10-13T22:49:20:951
1565177,000000	2020-10-13T22:49:20:991
1557122,000000	2020-10-13T22:49:21:033
1552217,000000	2020-10-13T22:49:21:070
1550602,000000	2020-10-13T22:49:21:110
1549271,000000	2020-10-13T22:49:21:151
1548502,000000	2020-10-13T22:49:21:191
1548556,000000	2020-10-13T22:49:21:230
1551335,000000	2020-10-13T22:49:21:275
1555742,000000	2020-10-13T22:49:21:311
1561756,000000	2020-10-13T22:49:21:353
1568763,000000	2020-10-13T22:49:21:391
1576590,000000	2020-10-13T22:49:21:431
1585003,000000	2020-10-13T22:49:21:471
1593787,000000	2020-10-13T22:49:21:516
1601659,000000	2020-10-13T22:49:21:555
1610666,000000	2020-10-13T22:49:21:590
1619199,000000	2020-10-13T22:49:21:632
1628231,000000	2020-10-13T22:49:21:670
1632600,000000	2020-10-13T22:49:21:711
1623749,000000	2020-10-13T22:49:21:754
1609051,000000	2020-10-13T22:49:21:791
1595803,000000	2020-10-13T22:49:21:831
1585270,000000	2020-10-13T22:49:21:871
1575009,000000	2020-10-13T22:49:21:911
1567564,000000	2020-10-13T22:49:21:952
1564781,000000	2020-10-13T22:49:22:001
1564372,000000	2020-10-13T22:49:22:032
1564134,000000	2020-10-13T22:49:22:071
1563888,000000	2020-10-13T22:49:22:111
1565404,000000	2020-10-13T22:49:22:164
1568394,000000	2020-10-13T22:49:22:191
1572759,000000	2020-10-13T22:49:22:232
1579192,000000	2020-10-13T22:49:22:271
1586517,000000	2020-10-13T22:49:22:312
1593910,000000	2020-10-13T22:49:22:352
1601317,000000	2020-10-13T22:49:22:392
1609347,000000	2020-10-13T22:49:22:432
1618011,000000	2020-10-13T22:49:22:476
1626496,000000	2020-10-13T22:49:22:511
1632284,000000	2020-10-13T22:49:22:552
1625917,000000	2020-10-13T22:49:22:592
1613344,000000	2020-10-13T22:49:22:632
1601760,000000	2020-10-13T22:49:22:672
1593609,000000	2020-10-13T22:49:22:715
1586029,000000	2020-10-13T22:49:22:753
1581121,000000	2020-10-13T22:49:22:792
1580463,000000	2020-10-13T22:49:22:832
1581408,000000	2020-10-13T22:49:22:872
1583012,000000	2020-10-13T22:49:22:912
1583680,000000	2020-10-13T22:49:22:956
1586727,000000	2020-10-13T22:49:22:993
1591018,000000	2020-10-13T22:49:23:033
1596393,000000	2020-10-13T22:49:23:079
1603091,000000	2020-10-13T22:49:23:113
1611317,000000	2020-10-13T22:49:23:153
1619262,000000	2020-10-13T22:49:23:196
1628023,000000	2020-10-13T22:49:23:249
1637098,000000	2020-10-13T22:49:23:272
1646562,000000	2020-10-13T22:49:23:311
1652734,000000	2020-10-13T22:49:23:352
1648675,000000	2020-10-13T22:49:23:393
1636665,000000	2020-10-13T22:49:23:435
1626517,000000	2020-10-13T22:49:23:489
1619109,000000	2020-10-13T22:49:23:535
1612538,000000	2020-10-13T22:49:23:560
1607092,000000	2020-10-13T22:49:23:592
1605842,000000	2020-10-13T22:49:23:634
1606618,000000	2020-10-13T22:49:23:676
1608016,000000	2020-10-13T22:49:23:713
1610192,000000	2020-10-13T22:49:23:753
1612705,000000	2020-10-13T22:49:23:793
1617017,000000	2020-10-13T22:49:23:833
1622641,000000	2020-10-13T22:49:23:873
1630165,000000	2020-10-13T22:49:23:915
1637796,000000	2020-10-13T22:49:23:953
1645880,000000	2020-10-13T22:49:23:992
1654875,000000	2020-10-13T22:49:24:033
1664151,000000	2020-10-13T22:49:24:074
1673184,000000	2020-10-13T22:49:24:113
1682559,000000	2020-10-13T22:49:24:156
1692008,000000	2020-10-13T22:49:24:196
1697568,000000	2020-10-13T22:49:24:235
1691700,000000	2020-10-13T22:49:24:274
1680645,000000	2020-10-13T22:49:24:313
1671873,000000	2020-10-13T22:49:24:358
1664869,000000	2020-10-13T22:49:24:394
1658459,000000	2020-10-13T22:49:24:448
1654210,000000	2020-10-13T22:49:24:475
1652706,000000	2020-10-13T22:49:24:514
1653383,000000	2020-10-13T22:49:24:554
1654926,000000	2020-10-13T22:49:24:594
1656873,000000	2020-10-13T22:49:24:637
1659219,000000	2020-10-13T22:49:24:674
1663083,000000	2020-10-13T22:49:24:714
1669013,000000	2020-10-13T22:49:24:755
1675991,000000	2020-10-13T22:49:24:794
1683317,000000	2020-10-13T22:49:24:834
1691431,000000	2020-10-13T22:49:24:876
1699365,000000	2020-10-13T22:49:24:914
1708574,000000	2020-10-13T22:49:24:955
1717138,000000	2020-10-13T22:49:24:999
1726879,000000	2020-10-13T22:49:25:034
1735747,000000	2020-10-13T22:49:25:078
1745197,000000	2020-10-13T22:49:25:117
1749857,000000	2020-10-13T22:49:25:154
1743622,000000	2020-10-13T22:49:25:195
1732751,000000	2020-10-13T22:49:25:234
1724035,000000	2020-10-13T22:49:25:274
1717336,000000	2020-10-13T22:49:25:314
1711138,000000	2020-10-13T22:49:25:358
1706623,000000	2020-10-13T22:49:25:394
1704868,000000	2020-10-13T22:49:25:434
1704653,000000	2020-10-13T22:49:25:475
1704993,000000	2020-10-13T22:49:25:517
1705620,000000	2020-10-13T22:49:25:554
1707164,000000	2020-10-13T22:49:25:601
1710553,000000	2020-10-13T22:49:25:635
1714979,000000	2020-10-13T22:49:25:675
1720495,000000	2020-10-13T22:49:25:715
1726484,000000	2020-10-13T22:49:25:761
1733335,000000	2020-10-13T22:49:25:795
1740395,000000	2020-10-13T22:49:25:837
1747847,000000	2020-10-13T22:49:25:874
1755325,000000	2020-10-13T22:49:25:915
1758881,000000	2020-10-13T22:49:25:956
1758881,000000	2020-10-13T22:49:25:994
1737813,000000	2020-10-13T22:49:26:035
1729690,000000	2020-10-13T22:49:26:092
1723678,000000	2020-10-13T22:49:26:115
1717633,000000	2020-10-13T22:49:26:155
1715781,000000	2020-10-13T22:49:26:195
1714367,000000	2020-10-13T22:49:26:235
1714626,000000	2020-10-13T22:49:26:275
1713517,000000	2020-10-13T22:49:26:318
1714079,000000	2020-10-13T22:49:26:356
1716388,000000	2020-10-13T22:49:26:399
1719754,000000	2020-10-13T22:49:26:436
1724554,000000	2020-10-13T22:49:26:477
1729246,000000	2020-10-13T22:49:26:516
1734949,000000	2020-10-13T22:49:26:560
1741347,000000	2020-10-13T22:49:26:595
1747475,000000	2020-10-13T22:49:26:639
1750095,000000	2020-10-13T22:49:26:676
1741242,000000	2020-10-13T22:49:26:716
1727167,000000	2020-10-13T22:49:26:756
1715189,000000	2020-10-13T22:49:26:799
1705649,000000	2020-10-13T22:49:26:844
1696942,000000	2020-10-13T22:49:26:877
1689746,000000	2020-10-13T22:49:26:928
1686697,000000	2020-10-13T22:49:26:957
1685658,000000	2020-10-13T22:49:26:999
1684599,000000	2020-10-13T22:49:27:038
1683406,000000	2020-10-13T22:49:27:080
1684226,000000	2020-10-13T22:49:27:117
1685565,000000	2020-10-13T22:49:27:157
1688741,000000	2020-10-13T22:49:27:196
1693614,000000	2020-10-13T22:49:27:236
1698564,000000	2020-10-13T22:49:27:279
1704568,000000	2020-10-13T22:49:27:316
1710547,000000	2020-10-13T22:49:27:357
1716586,000000	2020-10-13T22:49:27:396
1717716,000000	2020-10-13T22:49:27:436
1705815,000000	2020-10-13T22:49:27:476
1690756,000000	2020-10-13T22:49:27:527
1677898,000000	2020-10-13T22:49:27:558
1665797,000000	2020-10-13T22:49:27:613
1655236,000000	2020-10-13T22:49:27:638
1646799,000000	2020-10-13T22:49:27:676
1642532,000000	2020-10-13T22:49:27:716
1640737,000000	2020-10-13T22:49:27:761
1639301,000000	2020-10-13T22:49:27:797
1637941,000000	2020-10-13T22:49:27:836
1638051,000000	2020-10-13T22:49:27:878
1639047,000000	2020-10-13T22:49:27:917
1642570,000000	2020-10-13T22:49:27:958
1646736,000000	2020-10-13T22:49:28:000
1651966,000000	2020-10-13T22:49:28:037
1658325,000000	2020-10-13T22:49:28:099
1664179,000000	2020-10-13T22:49:28:118
1671515,000000	2020-10-13T22:49:28:157
1678403,000000	2020-10-13T22:49:28:197
1680248,000000	2020-10-13T22:49:28:243
1670448,000000	2020-10-13T22:49:28:277
1654932,000000	2020-10-13T22:49:28:331
1641411,000000	2020-10-13T22:49:28:359
1629676,000000	2020-10-13T22:49:28:397
1618435,000000	2020-10-13T22:49:28:440
1609599,000000	2020-10-13T22:49:28:482
1605630,000000	2020-10-13T22:49:28:520
1603503,000000	2020-10-13T22:49:28:559
1602067,000000	2020-10-13T22:49:28:599
1599937,000000	2020-10-13T22:49:28:638
1600459,000000	2020-10-13T22:49:28:679
1602104,000000	2020-10-13T22:49:28:720
1605574,000000	2020-10-13T22:49:28:758
1609677,000000	2020-10-13T22:49:28:798
1614902,000000	2020-10-13T22:49:28:838
1620171,000000	2020-10-13T22:49:28:878
1626606,000000	2020-10-13T22:49:28:919
1633220,000000	2020-10-13T22:49:28:960
1637421,000000	2020-10-13T22:49:28:998
1629854,000000	2020-10-13T22:49:29:038
1614468,000000	2020-10-13T22:49:29:086
1600737,000000	2020-10-13T22:49:29:119
1590128,000000	2020-10-13T22:49:29:158
1579633,000000	2020-10-13T22:49:29:203
1571794,000000	2020-10-13T22:49:29:240
1568281,000000	2020-10-13T22:49:29:279
1567060,000000	2020-10-13T22:49:29:318
1566017,000000	2020-10-13T22:49:29:357
1564804,000000	2020-10-13T22:49:29:399
1564881,000000	2020-10-13T22:49:29:440
1566454,000000	2020-10-13T22:49:29:479
1570149,000000	2020-10-13T22:49:29:519
1574799,000000	2020-10-13T22:49:29:559
1580243,000000	2020-10-13T22:49:29:599
1585481,000000	2020-10-13T22:49:29:638
1591615,000000	2020-10-13T22:49:29:680
1598100,000000	2020-10-13T22:49:29:718
1595996,000000	2020-10-13T22:49:29:759
1582555,000000	2020-10-13T22:49:29:799
1568390,000000	2020-10-13T22:49:29:839
1556858,000000	2020-10-13T22:49:29:879
1546382,000000	2020-10-13T22:49:29:921
1537365,000000	2020-10-13T22:49:29:960
1531454,000000	2020-10-13T22:49:29:999
1530122,000000	2020-10-13T22:49:30:039
1529975,000000	2020-10-13T22:49:30:085
1529547,000000	2020-10-13T22:49:30:120
1529909,000000	2020-10-13T22:49:30:163
1532705,000000	2020-10-13T22:49:30:199
1536390,000000	2020-10-13T22:49:30:239
1541334,000000	2020-10-13T22:49:30:279
1546690,000000	2020-10-13T22:49:30:319
1553120,000000	2020-10-13T22:49:30:359
1560339,000000	2020-10-13T22:49:30:401
1567545,000000	2020-10-13T22:49:30:439
1574755,000000	2020-10-13T22:49:30:479
1574338,000000	2020-10-13T22:49:30:520
1562426,000000	2020-10-13T22:49:30:560
1547827,000000	2020-10-13T22:49:30:602
1535764,000000	2020-10-13T22:49:30:640
1524721,000000	2020-10-13T22:49:30:683
1514607,000000	2020-10-13T22:49:30:720
1509823,000000	2020-10-13T22:49:30:761
1509951,000000	2020-10-13T22:49:30:801
1511462,000000	2020-10-13T22:49:30:840
1512970,000000	2020-10-13T22:49:30:885
1515508,000000	2020-10-13T22:49:30:921
1518815,000000	2020-10-13T22:49:30:960
1523993,000000	2020-10-13T22:49:31:000
1530470,000000	2020-10-13T22:49:31:040
1538233,000000	2020-10-13T22:49:31:084
1545954,000000	2020-10-13T22:49:31:123
1554149,000000	2020-10-13T22:49:31:160
1562868,000000	2020-10-13T22:49:31:200
1572413,000000	2020-10-13T22:49:31:240
1581238,000000	2020-10-13T22:49:31:280
1589655,000000	2020-10-13T22:49:31:322
1587986,000000	2020-10-13T22:49:31:363
1576950,000000	2020-10-13T22:49:31:400
1567444,000000	2020-10-13T22:49:31:444
1558973,000000	2020-10-13T22:49:31:481
1551184,000000	2020-10-13T22:49:31:524
1545545,000000	2020-10-13T22:49:31:562
1544955,000000	2020-10-13T22:49:31:615
1547725,000000	2020-10-13T22:49:31:641
1551441,000000	2020-10-13T22:49:31:682
1554501,000000	2020-10-13T22:49:31:724
1559295,000000	2020-10-13T22:49:31:763
1565312,000000	2020-10-13T22:49:31:800
1572890,000000	2020-10-13T22:49:31:845
1580530,000000	2020-10-13T22:49:31:881
1589938,000000	2020-10-13T22:49:31:921
1599377,000000	2020-10-13T22:49:31:961
1609065,000000	2020-10-13T22:49:32:001
1617806,000000	2020-10-13T22:49:32:041
1627939,000000	2020-10-13T22:49:32:091
1637855,000000	2020-10-13T22:49:32:120
1647563,000000	2020-10-13T22:49:32:162
1653184,000000	2020-10-13T22:49:32:203
1648593,000000	2020-10-13T22:49:32:248
1641215,000000	2020-10-13T22:49:32:282
1635832,000000	2020-10-13T22:49:32:332
1631967,000000	2020-10-13T22:49:32:361
1629232,000000	2020-10-13T22:49:32:401
1628810,000000	2020-10-13T22:49:32:441
1632434,000000	2020-10-13T22:49:32:481
1637049,000000	2020-10-13T22:49:32:521
1641362,000000	2020-10-13T22:49:32:564
1646547,000000	2020-10-13T22:49:32:602
1651630,000000	2020-10-13T22:49:32:642
1659664,000000	2020-10-13T22:49:32:682
1667471,000000	2020-10-13T22:49:32:721
1675770,000000	2020-10-13T22:49:32:762
1684206,000000	2020-10-13T22:49:32:804
1692628,000000	2020-10-13T22:49:32:841
1701432,000000	2020-10-13T22:49:32:882
1709952,000000	2020-10-13T22:49:32:922
1719120,000000	2020-10-13T22:49:32:963
1727476,000000	2020-10-13T22:49:33:002
1727957,000000	2020-10-13T22:49:33:044
1722014,000000	2020-10-13T22:49:33:087
1715960,000000	2020-10-13T22:49:33:122
1713053,000000	2020-10-13T22:49:33:163
1710250,000000	2020-10-13T22:49:33:201
1708037,000000	2020-10-13T22:49:33:243
1710183,000000	2020-10-13T22:49:33:284
1713639,000000	2020-10-13T22:49:33:323
1718156,000000	2020-10-13T22:49:33:365
1721449,000000	2020-10-13T22:49:33:403
1725657,000000	2020-10-13T22:49:33:447
1731609,000000	2020-10-13T22:49:33:484
1737024,000000	2020-10-13T22:49:33:563
1743928,000000	2020-10-13T22:49:33:564
1751776,000000	2020-10-13T22:49:33:603
1759742,000000	2020-10-13T22:49:33:642
1768142,000000	2020-10-13T22:49:33:683
1776220,000000	2020-10-13T22:49:33:723
1784321,000000	2020-10-13T22:49:33:766
1793116,000000	2020-10-13T22:49:33:802
1800949,000000	2020-10-13T22:49:33:843
1806303,000000	2020-10-13T22:49:33:882
1795295,000000	2020-10-13T22:49:33:923
1789545,000000	2020-10-13T22:49:33:963
1785173,000000	2020-10-13T22:49:34:008
1780872,000000	2020-10-13T22:49:34:073
1779088,000000	2020-10-13T22:49:34:107
1779798,000000	2020-10-13T22:49:34:123
1783386,000000	2020-10-13T22:49:34:164
1786153,000000	2020-10-13T22:49:34:202
1788888,000000	2020-10-13T22:49:34:296
1792201,000000	2020-10-13T22:49:34:297
1796593,000000	2020-10-13T22:49:34:326
1802205,000000	2020-10-13T22:49:34:363
1808567,000000	2020-10-13T22:49:34:403
1816032,000000	2020-10-13T22:49:34:443
1824429,000000	2020-10-13T22:49:34:487
1832617,000000	2020-10-13T22:49:34:524
1839946,000000	2020-10-13T22:49:34:563
1847919,000000	2020-10-13T22:49:34:603
1855815,000000	2020-10-13T22:49:34:643
1862879,000000	2020-10-13T22:49:34:684
1870808,000000	2020-10-13T22:49:34:726
1879565,000000	2020-10-13T22:49:34:764
1885719,000000	2020-10-13T22:49:34:804
1883273,000000	2020-10-13T22:49:34:843
1876858,000000	2020-10-13T22:49:34:884
1871789,000000	2020-10-13T22:49:34:924
1867644,000000	2020-10-13T22:49:34:967
1862790,000000	2020-10-13T22:49:35:004
1858910,000000	2020-10-13T22:49:35:044
1858259,000000	2020-10-13T22:49:35:086
1858496,000000	2020-10-13T22:49:35:125
1859852,000000	2020-10-13T22:49:35:199
1861134,000000	2020-10-13T22:49:35:209
1863105,000000	2020-10-13T22:49:35:247
1865968,000000	2020-10-13T22:49:35:283
1869458,000000	2020-10-13T22:49:35:325
1874272,000000	2020-10-13T22:49:35:370
1878862,000000	2020-10-13T22:49:35:405
1884499,000000	2020-10-13T22:49:35:454
1889586,000000	2020-10-13T22:49:35:484
1895603,000000	2020-10-13T22:49:35:525
1901472,000000	2020-10-13T22:49:35:565
1907782,000000	2020-10-13T22:49:35:605
1913929,000000	2020-10-13T22:49:35:645
1920897,000000	2020-10-13T22:49:35:687
1928270,000000	2020-10-13T22:49:35:725
1929636,000000	2020-10-13T22:49:35:765
1924178,000000	2020-10-13T22:49:35:804
1916720,000000	2020-10-13T22:49:35:844
1912049,000000	2020-10-13T22:49:35:885
1906672,000000	2020-10-13T22:49:35:929
1902985,000000	2020-10-13T22:49:35:965
1900280,000000	2020-10-13T22:49:36:005
1899542,000000	2020-10-13T22:49:36:050
1900221,000000	2020-10-13T22:49:36:101
1901625,000000	2020-10-13T22:49:36:136
1902748,000000	2020-10-13T22:49:36:168
1904588,000000	2020-10-13T22:49:36:206
1907212,000000	2020-10-13T22:49:36:244
1909757,000000	2020-10-13T22:49:36:285
1913062,000000	2020-10-13T22:49:36:324
1916469,000000	2020-10-13T22:49:36:365
1921581,000000	2020-10-13T22:49:36:409
1925918,000000	2020-10-13T22:49:36:445
1931066,000000	2020-10-13T22:49:36:485
1936541,000000	2020-10-13T22:49:36:526
1942987,000000	2020-10-13T22:49:36:576
1948898,000000	2020-10-13T22:49:36:606
1952342,000000	2020-10-13T22:49:36:649
1948369,000000	2020-10-13T22:49:36:685
1939826,000000	2020-10-13T22:49:36:726
1933545,000000	2020-10-13T22:49:36:766
1927644,000000	2020-10-13T22:49:36:806
1921801,000000	2020-10-13T22:49:36:846
1916673,000000	2020-10-13T22:49:36:890
1914094,000000	2020-10-13T22:49:36:927
1912095,000000	2020-10-13T22:49:36:967
1911450,000000	2020-10-13T22:49:37:007
1910288,000000	2020-10-13T22:49:37:045
1909999,000000	2020-10-13T22:49:37:093
1911531,000000	2020-10-13T22:49:37:138
1913653,000000	2020-10-13T22:49:37:167
1916693,000000	2020-10-13T22:49:37:207
1920652,000000	2020-10-13T22:49:37:246
1925232,000000	2020-10-13T22:49:37:287
1930186,000000	2020-10-13T22:49:37:328
1935720,000000	2020-10-13T22:49:37:371
1940779,000000	2020-10-13T22:49:37:407
1946275,000000	2020-10-13T22:49:37:447
1951299,000000	2020-10-13T22:49:37:487
1957308,000000	2020-10-13T22:49:37:526
1962234,000000	2020-10-13T22:49:37:567
1960523,000000	2020-10-13T22:49:37:610
1953339,000000	2020-10-13T22:49:37:645
1946434,000000	2020-10-13T22:49:37:687
1940604,000000	2020-10-13T22:49:37:726
1935318,000000	2020-10-13T22:49:37:767
1930174,000000	2020-10-13T22:49:37:812
1926152,000000	2020-10-13T22:49:37:851
1924162,000000	2020-10-13T22:49:37:886
1923445,000000	2020-10-13T22:49:37:927
1922041,000000	2020-10-13T22:49:37:967
1921223,000000	2020-10-13T22:49:38:007
1921462,000000	2020-10-13T22:49:38:067
1923045,000000	2020-10-13T22:49:38:109
1925299,000000	2020-10-13T22:49:38:127
1929164,000000	2020-10-13T22:49:38:166
1933101,000000	2020-10-13T22:49:38:207
1937084,000000	2020-10-13T22:49:38:246
1942363,000000	2020-10-13T22:49:38:287
1947056,000000	2020-10-13T22:49:38:331
1952668,000000	2020-10-13T22:49:38:367
1957721,000000	2020-10-13T22:49:38:407
1960299,000000	2020-10-13T22:49:38:447
1957188,000000	2020-10-13T22:49:38:487
1950674,000000	2020-10-13T22:49:38:528
1944975,000000	2020-10-13T22:49:38:572
1939980,000000	2020-10-13T22:49:38:607
1935948,000000	2020-10-13T22:49:38:647
1933084,000000	2020-10-13T22:49:38:687
1931304,000000	2020-10-13T22:49:38:728
1930467,000000	2020-10-13T22:49:38:770
1929800,000000	2020-10-13T22:49:38:811
1929289,000000	2020-10-13T22:49:38:847
1929588,000000	2020-10-13T22:49:38:887
1930317,000000	2020-10-13T22:49:38:929
1932813,000000	2020-10-13T22:49:38:981
1935560,000000	2020-10-13T22:49:39:011
1938813,000000	2020-10-13T22:49:39:050
1942669,000000	2020-10-13T22:49:39:094
1947234,000000	2020-10-13T22:49:39:128
1950178,000000	2020-10-13T22:49:39:169
1947070,000000	2020-10-13T22:49:39:208
1939172,000000	2020-10-13T22:49:39:247
1930927,000000	2020-10-13T22:49:39:291
1923813,000000	2020-10-13T22:49:39:328
1917460,000000	2020-10-13T22:49:39:368
1912854,000000	2020-10-13T22:49:39:409
1909532,000000	2020-10-13T22:49:39:449
1907778,000000	2020-10-13T22:49:39:488
1906615,000000	2020-10-13T22:49:39:532
1905180,000000	2020-10-13T22:49:39:569
1905005,000000	2020-10-13T22:49:39:614
1905647,000000	2020-10-13T22:49:39:648
1907640,000000	2020-10-13T22:49:39:689
1910770,000000	2020-10-13T22:49:39:729
1914608,000000	2020-10-13T22:49:39:778
1918695,000000	2020-10-13T22:49:39:809
1923984,000000	2020-10-13T22:49:39:849
1927460,000000	2020-10-13T22:49:39:891
1923365,000000	2020-10-13T22:49:39:931
1914752,000000	2020-10-13T22:49:39:970
1905345,000000	2020-10-13T22:49:40:013
1897619,000000	2020-10-13T22:49:40:049
1890589,000000	2020-10-13T22:49:40:098
1883955,000000	2020-10-13T22:49:40:129
1880051,000000	2020-10-13T22:49:40:169
1877805,000000	2020-10-13T22:49:40:209
1876335,000000	2020-10-13T22:49:40:252
1875540,000000	2020-10-13T22:49:40:289
1875310,000000	2020-10-13T22:49:40:328
1875949,000000	2020-10-13T22:49:40:370
1878035,000000	2020-10-13T22:49:40:409
1880849,000000	2020-10-13T22:49:40:457
1885031,000000	2020-10-13T22:49:40:491
1890083,000000	2020-10-13T22:49:40:538
1894742,000000	2020-10-13T22:49:40:570
1899190,000000	2020-10-13T22:49:40:611
1902702,000000	2020-10-13T22:49:40:649
1899380,000000	2020-10-13T22:49:40:689
1890187,000000	2020-10-13T22:49:40:732
1880367,000000	2020-10-13T22:49:40:770
1871944,000000	2020-10-13T22:49:40:809
1863509,000000	2020-10-13T22:49:40:850
1856227,000000	2020-10-13T22:49:40:891
1851846,000000	2020-10-13T22:49:40:930
1849597,000000	2020-10-13T22:49:40:976
1847773,000000	2020-10-13T22:49:41:011
1847260,000000	2020-10-13T22:49:41:049
1846854,000000	2020-10-13T22:49:41:096
1848350,000000	2020-10-13T22:49:41:129
1850492,000000	2020-10-13T22:49:41:170
1853967,000000	2020-10-13T22:49:41:213
1859023,000000	2020-10-13T22:49:41:250
1863843,000000	2020-10-13T22:49:41:290
1869495,000000	2020-10-13T22:49:41:331
1875255,000000	2020-10-13T22:49:41:370
1880975,000000	2020-10-13T22:49:41:409
1887408,000000	2020-10-13T22:49:41:455
1889948,000000	2020-10-13T22:49:41:491
1884160,000000	2020-10-13T22:49:41:559
1875497,000000	2020-10-13T22:49:41:571
1866359,000000	2020-10-13T22:49:41:611
1858917,000000	2020-10-13T22:49:41:652
1851695,000000	2020-10-13T22:49:41:691
1846148,000000	2020-10-13T22:49:41:738
1842817,000000	2020-10-13T22:49:41:773
1841595,000000	2020-10-13T22:49:41:810
1839926,000000	2020-10-13T22:49:41:850
1839817,000000	2020-10-13T22:49:41:891
1841043,000000	2020-10-13T22:49:41:934
1843828,000000	2020-10-13T22:49:41:971
1847371,000000	2020-10-13T22:49:42:011
1851795,000000	2020-10-13T22:49:42:051
1856638,000000	2020-10-13T22:49:42:099
1860650,000000	2020-10-13T22:49:42:131
1865919,000000	2020-10-13T22:49:42:173
1870368,000000	2020-10-13T22:49:42:211
1867099,000000	2020-10-13T22:49:42:251
1857641,000000	2020-10-13T22:49:42:291
1846790,000000	2020-10-13T22:49:42:331
1838253,000000	2020-10-13T22:49:42:372
1830512,000000	2020-10-13T22:49:42:421
1823990,000000	2020-10-13T22:49:42:451
1820820,000000	2020-10-13T22:49:42:495
1819307,000000	2020-10-13T22:49:42:531
1818005,000000	2020-10-13T22:49:42:586
1817186,000000	2020-10-13T22:49:42:612
1816544,000000	2020-10-13T22:49:42:653
1818161,000000	2020-10-13T22:49:42:691
1820637,000000	2020-10-13T22:49:42:731
1824088,000000	2020-10-13T22:49:42:772
1828266,000000	2020-10-13T22:49:42:813
1833381,000000	2020-10-13T22:49:42:852
1838734,000000	2020-10-13T22:49:42:894
1845017,000000	2020-10-13T22:49:42:932
1848794,000000	2020-10-13T22:49:42:972
1844252,000000	2020-10-13T22:49:43:012
1832723,000000	2020-10-13T22:49:43:052
1820182,000000	2020-10-13T22:49:43:104
1809727,000000	2020-10-13T22:49:43:136
1799892,000000	2020-10-13T22:49:43:197
1790864,000000	2020-10-13T22:49:43:213
1785875,000000	2020-10-13T22:49:43:251
1783223,000000	2020-10-13T22:49:43:296
1782011,000000	2020-10-13T22:49:43:334
1780463,000000	2020-10-13T22:49:43:374
1780048,000000	2020-10-13T22:49:43:412
1781564,000000	2020-10-13T22:49:43:453
1783204,000000	2020-10-13T22:49:43:493
1787738,000000	2020-10-13T22:49:43:532
1792510,000000	2020-10-13T22:49:43:573
1797826,000000	2020-10-13T22:49:43:616
1803914,000000	2020-10-13T22:49:43:652
1810269,000000	2020-10-13T22:49:43:693
1817202,000000	2020-10-13T22:49:43:733
1823329,000000	2020-10-13T22:49:43:772
1830573,000000	2020-10-13T22:49:43:812
1834797,000000	2020-10-13T22:49:43:857
1827922,000000	2020-10-13T22:49:43:893
1814273,000000	2020-10-13T22:49:43:933
1800398,000000	2020-10-13T22:49:43:973
1787773,000000	2020-10-13T22:49:44:014
1776161,000000	2020-10-13T22:49:44:054
1765849,000000	2020-10-13T22:49:44:106
1759766,000000	2020-10-13T22:49:44:133
1756752,000000	2020-10-13T22:49:44:184
1754467,000000	2020-10-13T22:49:44:213
1753141,000000	2020-10-13T22:49:44:254
1753264,000000	2020-10-13T22:49:44:294
1755127,000000	2020-10-13T22:49:44:336
1759184,000000	2020-10-13T22:49:44:374
1764716,000000	2020-10-13T22:49:44:413
1772569,000000	2020-10-13T22:49:44:453
1780188,000000	2020-10-13T22:49:44:493
1788617,000000	2020-10-13T22:49:44:533
1797992,000000	2020-10-13T22:49:44:576
1806416,000000	2020-10-13T22:49:44:613
1815022,000000	2020-10-13T22:49:44:655
1823616,000000	2020-10-13T22:49:44:694
1832788,000000	2020-10-13T22:49:44:733
1841384,000000	2020-10-13T22:49:44:774
1846242,000000	2020-10-13T22:49:44:816
1838620,000000	2020-10-13T22:49:44:855
1826930,000000	2020-10-13T22:49:44:901
1816375,000000	2020-10-13T22:49:44:935
1807529,000000	2020-10-13T22:49:44:981
1799392,000000	2020-10-13T22:49:45:024
1792921,000000	2020-10-13T22:49:45:055
1789954,000000	2020-10-13T22:49:45:120
1789178,000000	2020-10-13T22:49:45:135
1789488,000000	2020-10-13T22:49:45:177
1791545,000000	2020-10-13T22:49:45:213
1793861,000000	2020-10-13T22:49:45:254
1796854,000000	2020-10-13T22:49:45:297
1801771,000000	2020-10-13T22:49:45:334
1807500,000000	2020-10-13T22:49:45:374
1813784,000000	2020-10-13T22:49:45:414
1820343,000000	2020-10-13T22:49:45:454
1827369,000000	2020-10-13T22:49:45:494
1834650,000000	2020-10-13T22:49:45:536
1841469,000000	2020-10-13T22:49:45:576
1849366,000000	2020-10-13T22:49:45:614
1852530,000000	2020-10-13T22:49:45:655
1844376,000000	2020-10-13T22:49:45:695
1829960,000000	2020-10-13T22:49:45:735
1817126,000000	2020-10-13T22:49:45:777
1807006,000000	2020-10-13T22:49:45:814
1797216,000000	2020-10-13T22:49:45:854
1788763,000000	2020-10-13T22:49:45:894
1784111,000000	2020-10-13T22:49:45:934
1780883,000000	2020-10-13T22:49:45:975
1778444,000000	2020-10-13T22:49:46:018
1776979,000000	2020-10-13T22:49:46:054
1776162,000000	2020-10-13T22:49:46:105
1777121,000000	2020-10-13T22:49:46:136
1779914,000000	2020-10-13T22:49:46:176
1783079,000000	2020-10-13T22:49:46:216
1787515,000000	2020-10-13T22:49:46:258
1792292,000000	2020-10-13T22:49:46:296
1797907,000000	2020-10-13T22:49:46:358
1804095,000000	2020-10-13T22:49:46:376
1811272,000000	2020-10-13T22:49:46:416
1817876,000000	2020-10-13T22:49:46:455
1813228,000000	2020-10-13T22:49:46:498
1796819,000000	2020-10-13T22:49:46:535
1776275,000000	2020-10-13T22:49:46:576
1759468,000000	2020-10-13T22:49:46:615
1744842,000000	2020-10-13T22:49:46:655
1730958,000000	2020-10-13T22:49:46:697
1721707,000000	2020-10-13T22:49:46:740
1717090,000000	2020-10-13T22:49:46:775
1714854,000000	2020-10-13T22:49:46:815
1712175,000000	2020-10-13T22:49:46:855
1709870,000000	2020-10-13T22:49:46:896
1709911,000000	2020-10-13T22:49:46:936
1711891,000000	2020-10-13T22:49:46:979
1716226,000000	2020-10-13T22:49:47:021
1721492,000000	2020-10-13T22:49:47:055
1728955,000000	2020-10-13T22:49:47:117
1736237,000000	2020-10-13T22:49:47:139
1744629,000000	2020-10-13T22:49:47:177
1752227,000000	2020-10-13T22:49:47:221
1760673,000000	2020-10-13T22:49:47:255
1768490,000000	2020-10-13T22:49:47:295
1776046,000000	2020-10-13T22:49:47:335
1778691,000000	2020-10-13T22:49:47:375
1766590,000000	2020-10-13T22:49:47:415
1745479,000000	2020-10-13T22:49:47:459
1726196,000000	2020-10-13T22:49:47:496
1709619,000000	2020-10-13T22:49:47:536
1694985,000000	2020-10-13T22:49:47:582
1681669,000000	2020-10-13T22:49:47:616
1674251,000000	2020-10-13T22:49:47:656
1670453,000000	2020-10-13T22:49:47:700
1667758,000000	2020-10-13T22:49:47:737
1665904,000000	2020-10-13T22:49:47:777
1665966,000000	2020-10-13T22:49:47:816
1667186,000000	2020-10-13T22:49:47:856
1670576,000000	2020-10-13T22:49:47:896
1676492,000000	2020-10-13T22:49:47:939
1683609,000000	2020-10-13T22:49:47:977
1691533,000000	2020-10-13T22:49:48:017
1699071,000000	2020-10-13T22:49:48:057
1706665,000000	2020-10-13T22:49:48:123
1714795,000000	2020-10-13T22:49:48:137
1723195,000000	2020-10-13T22:49:48:181
1731908,000000	2020-10-13T22:49:48:218
1740691,000000	2020-10-13T22:49:48:259
1747012,000000	2020-10-13T22:49:48:305
1737563,000000	2020-10-13T22:49:48:338
1717802,000000	2020-10-13T22:49:48:400
1698028,000000	2020-10-13T22:49:48:423
1682361,000000	2020-10-13T22:49:48:458
1669492,000000	2020-10-13T22:49:48:498
1658541,000000	2020-10-13T22:49:48:537
1651468,000000	2020-10-13T22:49:48:577
1648725,000000	2020-10-13T22:49:48:617
1647443,000000	2020-10-13T22:49:48:660
1647044,000000	2020-10-13T22:49:48:697
1646881,000000	2020-10-13T22:49:48:737
1649132,000000	2020-10-13T22:49:48:778
1652565,000000	2020-10-13T22:49:48:817
1657461,000000	2020-10-13T22:49:48:864
1664151,000000	2020-10-13T22:49:48:899
1671232,000000	2020-10-13T22:49:48:947
1679544,000000	2020-10-13T22:49:48:979
1688056,000000	2020-10-13T22:49:49:017
1696943,000000	2020-10-13T22:49:49:059
1705774,000000	2020-10-13T22:49:49:105
1714832,000000	2020-10-13T22:49:49:149
1724035,000000	2020-10-13T22:49:49:180
1733086,000000	2020-10-13T22:49:49:218
1731743,000000	2020-10-13T22:49:49:258
1716426,000000	2020-10-13T22:49:49:298
1697155,000000	2020-10-13T22:49:49:337
1682659,000000	2020-10-13T22:49:49:383
1671942,000000	2020-10-13T22:49:49:418
1663397,000000	2020-10-13T22:49:49:458
1657897,000000	2020-10-13T22:49:49:498
1655834,000000	2020-10-13T22:49:49:538
1654986,000000	2020-10-13T22:49:49:579
1653834,000000	2020-10-13T22:49:49:621
1653394,000000	2020-10-13T22:49:49:658
1655097,000000	2020-10-13T22:49:49:698
1658887,000000	2020-10-13T22:49:49:739
1671807,000000	2020-10-13T22:49:49:779
1679339,000000	2020-10-13T22:49:49:821
1687433,000000	2020-10-13T22:49:49:864
1695613,000000	2020-10-13T22:49:49:897
1703870,000000	2020-10-13T22:49:49:938
1712012,000000	2020-10-13T22:49:49:982
1719149,000000	2020-10-13T22:49:50:017
1713180,000000	2020-10-13T22:49:50:057
1696066,000000	2020-10-13T22:49:50:104
1677622,000000	2020-10-13T22:49:50:138
1665286,000000	2020-10-13T22:49:50:179
1656478,000000	2020-10-13T22:49:50:218
1649910,000000	2020-10-13T22:49:50:258
1647513,000000	2020-10-13T22:49:50:299
1646996,000000	2020-10-13T22:49:50:341
1646388,000000	2020-10-13T22:49:50:379
1645396,000000	2020-10-13T22:49:50:419
1646640,000000	2020-10-13T22:49:50:460
1649932,000000	2020-10-13T22:49:50:516
1655061,000000	2020-10-13T22:49:50:540
1661271,000000	2020-10-13T22:49:50:582
1668557,000000	2020-10-13T22:49:50:619
1676446,000000	2020-10-13T22:49:50:669
1684789,000000	2020-10-13T22:49:50:699
1693614,000000	2020-10-13T22:49:50:740
1699604,000000	2020-10-13T22:49:50:780
1691507,000000	2020-10-13T22:49:50:822
1670814,000000	2020-10-13T22:49:50:859
1650213,000000	2020-10-13T22:49:50:899
1635208,000000	2020-10-13T22:49:50:940
1623163,000000	2020-10-13T22:49:50:980
1613202,000000	2020-10-13T22:49:51:030
1607927,000000	2020-10-13T22:49:51:062
1605871,000000	2020-10-13T22:49:51:099
1605442,000000	2020-10-13T22:49:51:140
1604838,000000	2020-10-13T22:49:51:180
1605148,000000	2020-10-13T22:49:51:220
1607765,000000	2020-10-13T22:49:51:259
