x	y	z	ts
-1,110195	1,499030	-0,067517	2020-10-13T22:56:01:308
0,002463	-0,003662	-0,052379	2020-10-13T22:56:01:308
0,064676	-0,116125	-0,138520	2020-10-13T22:56:01:308
0,079514	-0,057048	-0,100214	2020-10-13T22:56:01:309
0,009310	-0,067023	-0,083710	2020-10-13T22:56:01:309
-0,025907	0,060812	-0,088529	2020-10-13T22:56:01:309
0,014194	0,054153	0,009902	2020-10-13T22:56:01:310
-0,048957	-0,119938	-0,083348	2020-10-13T22:56:01:310
-0,039537	-0,009970	-0,098034	2020-10-13T22:56:01:311
0,117347	-0,011426	-0,098034	2020-10-13T22:56:01:311
0,064333	0,078607	-0,002712	2020-10-13T22:56:01:311
0,034609	-0,133007	-0,153394	2020-10-13T22:56:01:312
-0,015454	-0,092509	-0,011091	2020-10-13T22:56:01:312
-0,014335	-0,093904	-0,010967	2020-10-13T22:56:01:313
-0,012437	-0,096267	-0,010757	2020-10-13T22:56:01:313
-0,075973	-0,023419	-0,080031	2020-10-13T22:56:01:313
-0,046849	0,169421	-0,019532	2020-10-13T22:56:01:324
0,002668	0,226341	0,006985	2020-10-13T22:56:01:341
0,002830	-0,006768	-0,066951	2020-10-13T22:56:01:361
-0,033063	0,005196	-0,021487	2020-10-13T22:56:01:379
0,029242	-0,150301	-0,032784	2020-10-13T22:56:01:400
-0,012402	0,001817	-0,018153	2020-10-13T22:56:01:419
0,058083	-0,083143	0,015979	2020-10-13T22:56:01:441
-0,046420	-0,122027	-0,080601	2020-10-13T22:56:01:460
-0,063504	0,054365	0,021248	2020-10-13T22:56:01:480
0,033527	0,008077	0,106350	2020-10-13T22:56:01:500
-0,264258	-0,473573	0,063160	2020-10-13T22:56:01:521
0,141333	1,173971	0,395608	2020-10-13T22:56:01:540
0,204042	0,305573	0,241649	2020-10-13T22:56:01:560
-0,104143	-0,583489	-0,093189	2020-10-13T22:56:01:580
-0,135700	-0,283906	-0,018309	2020-10-13T22:56:01:601
-0,129841	-0,197923	-0,190661	2020-10-13T22:56:01:620
-0,176422	-0,307140	-0,136565	2020-10-13T22:56:01:641
-0,309078	-0,461573	-0,363178	2020-10-13T22:56:01:659
-0,379105	-0,599461	-0,283932	2020-10-13T22:56:01:680
-0,275170	-0,463200	-0,175675	2020-10-13T22:56:01:700
-0,122861	-0,523786	-0,024904	2020-10-13T22:56:01:721
-0,107633	-0,524850	-0,168029	2020-10-13T22:56:01:740
-0,005299	-0,380335	-0,171452	2020-10-13T22:56:01:760
0,064752	-0,158980	-0,062510	2020-10-13T22:56:01:780
0,198721	-0,514860	-0,226400	2020-10-13T22:56:01:800
0,120487	-0,751001	-0,289249	2020-10-13T22:56:01:820
0,152195	-0,459568	-0,254550	2020-10-13T22:56:01:846
0,224195	-0,025905	-0,114900	2020-10-13T22:56:01:860
0,351103	0,024935	0,071188	2020-10-13T22:56:01:880
0,276587	-0,268320	0,077294	2020-10-13T22:56:01:900
0,219884	0,140580	-0,054056	2020-10-13T22:56:01:922
0,163983	0,250086	-0,155598	2020-10-13T22:56:01:941
0,095902	0,066297	-0,296642	2020-10-13T22:56:01:961
0,242889	0,335684	-0,168867	2020-10-13T22:56:01:980
0,427560	0,301833	-0,061787	2020-10-13T22:56:02:001
0,314668	0,262861	0,307574	2020-10-13T22:56:02:020
0,387506	0,553318	0,017541	2020-10-13T22:56:02:042
0,123097	0,429053	-0,075199	2020-10-13T22:56:02:060
0,124643	0,378494	-0,136231	2020-10-13T22:56:02:091
0,136587	0,351646	-0,065812	2020-10-13T22:56:02:102
0,205925	0,365358	-0,163774	2020-10-13T22:56:02:123
0,151136	0,251609	-0,116142	2020-10-13T22:56:02:140
0,004728	-0,015551	-0,092655	2020-10-13T22:56:02:162
-0,007236	0,168697	-0,092655	2020-10-13T22:56:02:180
-0,009040	0,174784	-0,088888	2020-10-13T22:56:02:202
0,084707	0,213761	0,058590	2020-10-13T22:56:02:223
0,132610	0,218336	-0,059087	2020-10-13T22:56:02:243
0,087181	0,124140	-0,062766	2020-10-13T22:56:02:262
0,110848	0,133662	-0,028517	2020-10-13T22:56:02:285
0,147099	0,153207	-0,066673	2020-10-13T22:56:02:302
0,077609	-0,016825	-0,042508	2020-10-13T22:56:02:327
0,046707	-0,082895	-0,160414	2020-10-13T22:56:02:343
0,004557	-0,019710	-0,088877	2020-10-13T22:56:02:365
0,023700	0,035325	0,028372	2020-10-13T22:56:02:382
0,033721	-0,060233	-0,072908	2020-10-13T22:56:02:404
0,012879	-0,062012	-0,007983	2020-10-13T22:56:02:422
-0,001701	0,008034	0,036916	2020-10-13T22:56:02:445
-0,078271	-0,020680	-0,039654	2020-10-13T22:56:02:462
-0,047840	0,176575	-0,012335	2020-10-13T22:56:02:484
0,187075	-0,160529	-0,041882	2020-10-13T22:56:02:502
0,027599	-0,410435	-0,051544	2020-10-13T22:56:02:525
0,065637	-0,308631	-0,028870	2020-10-13T22:56:02:542
0,092080	-0,298159	-0,029032	2020-10-13T22:56:02:567
-0,023653	-0,408503	-0,071386	2020-10-13T22:56:02:584
0,050025	-0,296644	0,031960	2020-10-13T22:56:02:606
0,093700	-0,505119	-0,033264	2020-10-13T22:56:02:623
0,060147	-0,612862	-0,058984	2020-10-13T22:56:02:647
0,070528	-0,405036	-0,050752	2020-10-13T22:56:02:663
0,097438	-0,415298	-0,083648	2020-10-13T22:56:02:687
-0,002436	-0,264261	-0,088716	2020-10-13T22:56:02:703
0,007369	-0,186968	-0,008277	2020-10-13T22:56:02:725
0,011271	-0,148703	-0,006324	2020-10-13T22:56:02:742
-0,037082	-0,186760	-0,061420	2020-10-13T22:56:02:766
-0,074283	-0,094540	-0,168753	2020-10-13T22:56:02:783
-0,001321	0,004295	0,027930	2020-10-13T22:56:02:806
0,087213	0,035402	0,049465	2020-10-13T22:56:02:822
0,004335	-0,119007	-0,012166	2020-10-13T22:56:02:846
-0,125938	-0,500829	0,054205	2020-10-13T22:56:02:862
0,021949	-0,061577	-0,011654	2020-10-13T22:56:02:885
0,065536	0,044943	0,145514	2020-10-13T22:56:02:903
0,089859	0,117771	0,015887	2020-10-13T22:56:02:925
0,072771	0,093935	-0,087260	2020-10-13T22:56:02:943
0,134135	-0,062679	-0,026992	2020-10-13T22:56:02:965
-0,038144	0,156540	-0,016943	2020-10-13T22:56:02:982
-0,074631	0,132873	0,029582	2020-10-13T22:56:03:005
-0,017517	-0,048490	-0,127223	2020-10-13T22:56:03:023
-0,042641	-0,168370	-0,115884	2020-10-13T22:56:03:051
-0,036379	-0,048763	-0,062876	2020-10-13T22:56:03:063
-0,247604	-0,420573	0,067465	2020-10-13T22:56:03:089
0,019242	0,099296	-0,060195	2020-10-13T22:56:03:104
0,107576	-0,157772	0,005492	2020-10-13T22:56:03:125
0,109764	0,022546	-0,081157	2020-10-13T22:56:03:143
0,114473	0,030216	-0,151607	2020-10-13T22:56:03:165
0,122617	0,255813	-0,012738	2020-10-13T22:56:03:184
0,279847	0,108336	0,074072	2020-10-13T22:56:03:205
0,041657	0,029879	-0,179545	2020-10-13T22:56:03:225
-0,017808	0,118233	-0,090124	2020-10-13T22:56:03:247
0,077423	0,282346	-0,037560	2020-10-13T22:56:03:264
-0,021207	0,210014	-0,076735	2020-10-13T22:56:03:311
0,064589	0,096501	-0,011739	2020-10-13T22:56:03:312
-0,021838	0,059049	-0,115832	2020-10-13T22:56:03:326
0,006819	0,066215	-0,096067	2020-10-13T22:56:03:344
0,061887	0,228188	-0,109752	2020-10-13T22:56:03:367
0,018085	0,272682	-0,103694	2020-10-13T22:56:03:386
0,006807	0,344918	-0,076246	2020-10-13T22:56:03:405
0,130813	0,326921	-0,044756	2020-10-13T22:56:03:423
0,025743	0,064118	-0,144087	2020-10-13T22:56:03:446
0,086211	0,032673	-0,108077	2020-10-13T22:56:03:462
0,032656	0,262698	-0,050300	2020-10-13T22:56:03:486
0,007659	0,407878	-0,079625	2020-10-13T22:56:03:502
0,001423	-0,015759	-0,105652	2020-10-13T22:56:03:527
0,068422	-0,121044	-0,069759	2020-10-13T22:56:03:543
0,028988	0,175924	-0,048625	2020-10-13T22:56:03:565
0,109707	0,020832	-0,085455	2020-10-13T22:56:03:584
-0,111133	0,138112	-0,109597	2020-10-13T22:56:03:606
0,016491	0,215031	-0,114113	2020-10-13T22:56:03:623
-0,059368	0,304645	-0,120538	2020-10-13T22:56:03:646
-0,025084	0,350891	-0,146624	2020-10-13T22:56:03:663
0,099954	0,273245	-0,129847	2020-10-13T22:56:03:686
0,016524	0,289639	-0,078457	2020-10-13T22:56:03:703
-0,022149	0,257818	-0,134146	2020-10-13T22:56:03:726
0,000023	-0,013680	-0,093275	2020-10-13T22:56:03:745
0,016773	0,050926	-0,047811	2020-10-13T22:56:03:768
-0,071735	-0,406725	-0,031334	2020-10-13T22:56:03:784
-0,030821	-0,488655	0,047624	2020-10-13T22:56:03:806
-0,012666	-0,214221	0,018847	2020-10-13T22:56:03:824
0,035538	-0,149143	-0,042018	2020-10-13T22:56:03:846
0,023406	0,093934	-0,161140	2020-10-13T22:56:03:864
-0,123972	0,441351	-0,136604	2020-10-13T22:56:03:886
-0,184444	1,835442	-0,128797	2020-10-13T22:56:03:904
0,031369	-3,887960	1,215289	2020-10-13T22:56:03:926
-0,095029	4,532143	0,397170	2020-10-13T22:56:03:944
-0,010376	-3,000094	0,778423	2020-10-13T22:56:03:966
-0,010368	-2,870169	0,789464	2020-10-13T22:56:03:984
-0,016718	-2,880505	0,618951	2020-10-13T22:56:04:015
-0,045751	-2,285264	0,415637	2020-10-13T22:56:04:025
-0,042583	-1,592243	0,278889	2020-10-13T22:56:04:047
-0,011974	-1,298192	0,156881	2020-10-13T22:56:04:064
-0,068428	-1,257052	0,087272	2020-10-13T22:56:04:121
-0,076735	-1,164966	0,140746	2020-10-13T22:56:04:129
-0,080461	-0,828703	0,097339	2020-10-13T22:56:04:130
-0,059788	-0,729419	-0,003201	2020-10-13T22:56:04:145
-0,055427	-0,827870	0,022793	2020-10-13T22:56:04:169
-0,024014	-0,646683	0,077363	2020-10-13T22:56:04:184
-0,087279	-0,567947	0,080849	2020-10-13T22:56:04:206
-0,056847	-0,485818	0,033419	2020-10-13T22:56:04:224
-0,139352	-0,215657	0,012986	2020-10-13T22:56:04:248
-0,020207	-0,380098	-0,014141	2020-10-13T22:56:04:264
-0,031712	-0,385033	-0,024180	2020-10-13T22:56:04:286
-0,037705	-0,240668	-0,043622	2020-10-13T22:56:04:304
0,035052	-0,371982	-0,034800	2020-10-13T22:56:04:327
-0,069330	-0,218197	-0,015381	2020-10-13T22:56:04:344
0,021293	-0,083576	-0,018492	2020-10-13T22:56:04:367
-0,014675	-0,244095	-0,008036	2020-10-13T22:56:04:384
-0,015859	-0,143239	-0,030495	2020-10-13T22:56:04:409
-0,123816	-0,008895	-0,029893	2020-10-13T22:56:04:430
-0,050403	-0,098460	-0,057483	2020-10-13T22:56:04:448
-0,046268	-0,041049	-0,033721	2020-10-13T22:56:04:473
-0,061343	-0,042227	0,002461	2020-10-13T22:56:04:490
-0,114679	0,056156	-0,069435	2020-10-13T22:56:04:505
0,018207	0,190328	-0,020037	2020-10-13T22:56:04:528
-0,036505	-0,015587	-0,094703	2020-10-13T22:56:04:552
0,000050	0,064108	0,017694	2020-10-13T22:56:04:574
-0,050293	-0,240394	0,039349	2020-10-13T22:56:04:587
0,001493	-0,010567	-0,158040	2020-10-13T22:56:04:608
0,240775	0,582853	-0,215468	2020-10-13T22:56:04:627
-0,242306	-0,471227	-0,207007	2020-10-13T22:56:04:647
0,075671	-0,320844	0,067855	2020-10-13T22:56:04:664
-0,122772	-0,061053	0,132994	2020-10-13T22:56:04:687
-0,198026	-0,243957	-0,016663	2020-10-13T22:56:04:704
-0,000140	-0,609353	0,020776	2020-10-13T22:56:04:730
-0,163567	-0,760864	0,183584	2020-10-13T22:56:04:745
-0,125141	-0,540499	0,261476	2020-10-13T22:56:04:767
-0,052655	-0,837177	0,074038	2020-10-13T22:56:04:784
-0,086923	-0,918177	0,019906	2020-10-13T22:56:04:807
-0,140545	-0,917609	-0,055276	2020-10-13T22:56:04:824
-0,085448	-0,717494	0,008088	2020-10-13T22:56:04:847
0,072985	-0,675757	-0,016747	2020-10-13T22:56:04:864
0,000564	-0,179723	0,095286	2020-10-13T22:56:04:887
0,050091	0,035551	0,068515	2020-10-13T22:56:04:904
-0,087837	0,103065	-0,054892	2020-10-13T22:56:04:928
-0,077364	-0,054452	-0,313655	2020-10-13T22:56:04:945
-0,018983	0,039472	-0,422738	2020-10-13T22:56:04:972
0,069950	0,297613	-0,246099	2020-10-13T22:56:04:985
0,016754	0,642258	-0,128472	2020-10-13T22:56:05:008
0,014876	0,750548	-0,063889	2020-10-13T22:56:05:025
-0,111403	0,663261	-0,067487	2020-10-13T22:56:05:048
-0,103742	0,795883	-0,044208	2020-10-13T22:56:05:065
-0,177486	0,557489	-0,016948	2020-10-13T22:56:05:092
-0,123752	0,627870	-0,248816	2020-10-13T22:56:05:104
-0,195576	0,628238	-0,161983	2020-10-13T22:56:05:127
-0,204262	0,448117	-0,270403	2020-10-13T22:56:05:144
-0,130338	0,560429	-0,327694	2020-10-13T22:56:05:168
-0,133660	0,459893	-0,383759	2020-10-13T22:56:05:184
-0,055715	0,391436	-0,257260	2020-10-13T22:56:05:209
0,028345	0,405462	-0,347032	2020-10-13T22:56:05:225
0,111141	0,549207	-0,224166	2020-10-13T22:56:05:248
0,238554	0,503622	0,075447	2020-10-13T22:56:05:264
0,349348	0,329582	0,100229	2020-10-13T22:56:05:288
0,211740	0,246268	-0,015778	2020-10-13T22:56:05:304
0,295027	0,430875	-0,252816	2020-10-13T22:56:05:328
0,372933	0,331038	-0,175838	2020-10-13T22:56:05:345
0,602916	0,149769	-0,062012	2020-10-13T22:56:05:368
0,961350	-0,018018	0,148911	2020-10-13T22:56:05:385
-0,002952	-0,006444	-0,033804	2020-10-13T22:56:05:409
-0,397767	-0,458688	-0,191730	2020-10-13T22:56:05:430
0,001590	0,005603	0,036061	2020-10-13T22:56:05:457
-0,266407	-0,207358	0,134167	2020-10-13T22:56:05:466
0,011761	0,201259	0,165165	2020-10-13T22:56:05:488
-0,005619	0,378944	-0,065538	2020-10-13T22:56:05:507
-0,116163	0,479478	-0,106320	2020-10-13T22:56:05:531
0,008132	0,578761	-0,299984	2020-10-13T22:56:05:545
0,155763	0,580066	-0,152016	2020-10-13T22:56:05:569
0,140765	0,165423	0,041903	2020-10-13T22:56:05:613
0,085048	-0,182866	-0,149713	2020-10-13T22:56:05:615
0,094432	-0,268425	-0,212269	2020-10-13T22:56:05:626
0,000238	0,058529	-0,113206	2020-10-13T22:56:05:650
-0,028874	0,549437	-0,177886	2020-10-13T22:56:05:666
0,001997	0,020961	0,105399	2020-10-13T22:56:05:691
-0,155929	-0,065181	0,036008	2020-10-13T22:56:05:705
0,000982	0,197780	-0,122614	2020-10-13T22:56:05:729
0,201638	-0,254389	0,042353	2020-10-13T22:56:05:746
0,167132	-0,626306	-0,040072	2020-10-13T22:56:05:769
0,103192	-0,613484	-0,018840	2020-10-13T22:56:05:785
0,140654	-0,309645	0,032892	2020-10-13T22:56:05:808
0,152802	-0,220502	0,034979	2020-10-13T22:56:05:826
-0,012471	0,049986	-0,090136	2020-10-13T22:56:05:849
0,083231	0,070421	-0,091052	2020-10-13T22:56:05:865
0,153288	0,009629	0,043940	2020-10-13T22:56:05:889
0,077281	-0,311752	-0,054958	2020-10-13T22:56:05:905
0,038170	-0,150610	-0,024555	2020-10-13T22:56:05:930
0,047924	0,010312	-0,088267	2020-10-13T22:56:05:948
-0,023266	0,050826	-0,057755	2020-10-13T22:56:05:969
0,036559	0,118002	-0,034223	2020-10-13T22:56:05:985
0,134488	-0,187964	-0,043012	2020-10-13T22:56:06:013
0,071765	-0,263446	-0,082717	2020-10-13T22:56:06:026
0,088307	0,007765	-0,015221	2020-10-13T22:56:06:049
0,013483	0,004790	-0,052320	2020-10-13T22:56:06:066
-0,035755	0,276515	-0,051810	2020-10-13T22:56:06:097
-0,048428	0,090786	-0,116226	2020-10-13T22:56:06:106
0,105191	0,036450	0,006400	2020-10-13T22:56:06:129
-0,022831	-0,098425	-0,079041	2020-10-13T22:56:06:146
-0,015473	-0,043929	-0,056877	2020-10-13T22:56:06:173
-0,001063	-0,015996	-0,103884	2020-10-13T22:56:06:187
0,025258	0,022289	-0,029706	2020-10-13T22:56:06:209
0,050175	-0,055445	-0,024480	2020-10-13T22:56:06:226
0,041806	0,753678	-0,206828	2020-10-13T22:56:06:249
0,149861	-0,749519	-0,261435	2020-10-13T22:56:06:266
-0,020662	0,252400	0,003569	2020-10-13T22:56:06:289
-0,093532	-0,087695	-0,083036	2020-10-13T22:56:06:307
-0,084044	-0,129767	-0,089348	2020-10-13T22:56:06:329
-0,043091	-0,017738	-0,044436	2020-10-13T22:56:06:346
-0,041093	0,045251	-0,026736	2020-10-13T22:56:06:369
-0,098037	0,127922	-0,069839	2020-10-13T22:56:06:386
-0,059790	-0,065617	-0,010259	2020-10-13T22:56:06:412
0,044448	-0,004185	0,039227	2020-10-13T22:56:06:427
0,098613	-0,212394	-0,034215	2020-10-13T22:56:06:449
0,032526	-0,363022	0,052149	2020-10-13T22:56:06:466
-0,089411	-0,528987	-0,119102	2020-10-13T22:56:06:489
-0,117658	-0,372601	-0,141250	2020-10-13T22:56:06:506
-0,013651	0,080372	-0,006876	2020-10-13T22:56:06:529
0,006740	0,007338	-0,038790	2020-10-13T22:56:06:547
0,074386	-0,184914	0,020476	2020-10-13T22:56:06:570
0,026584	-0,419630	-0,004414	2020-10-13T22:56:06:597
-0,064785	-0,609021	-0,076337	2020-10-13T22:56:06:612
0,018352	-0,071393	-0,043672	2020-10-13T22:56:06:627
0,064602	0,039541	-0,040880	2020-10-13T22:56:06:654
0,022986	-0,201920	-0,016117	2020-10-13T22:56:06:667
-0,027968	-0,126504	-0,065994	2020-10-13T22:56:06:691
-0,015566	-0,141563	-0,117948	2020-10-13T22:56:06:706
-0,073121	0,027394	-0,033359	2020-10-13T22:56:06:730
-0,004579	-0,156416	-0,009396	2020-10-13T22:56:06:752
0,005256	-0,274342	-0,089199	2020-10-13T22:56:06:769
-0,110053	-0,033690	-0,087782	2020-10-13T22:56:06:786
-0,030679	0,154387	-0,036417	2020-10-13T22:56:06:809
0,019113	0,013664	-0,028524	2020-10-13T22:56:06:827
0,106309	-0,145971	-0,025670	2020-10-13T22:56:06:850
-0,060574	-0,219444	-0,048805	2020-10-13T22:56:06:866
-0,031290	0,034024	-0,070034	2020-10-13T22:56:06:891
-0,034086	0,072237	-0,019286	2020-10-13T22:56:06:907
-0,013059	-0,039713	-0,023375	2020-10-13T22:56:06:930
-0,114089	-0,044941	-0,078893	2020-10-13T22:56:06:947
-0,002752	0,107807	0,009634	2020-10-13T22:56:06:970
0,006622	0,090297	-0,072743	2020-10-13T22:56:06:987
0,018541	-0,013980	-0,040705	2020-10-13T22:56:07:011
-0,022611	0,060617	-0,014164	2020-10-13T22:56:07:029
0,035338	-0,213080	0,045210	2020-10-13T22:56:07:050
0,076958	-0,283319	-0,052743	2020-10-13T22:56:07:067
-0,179619	-0,204392	-0,195306	2020-10-13T22:56:07:096
-0,070951	0,258232	-0,218992	2020-10-13T22:56:07:107
-0,101354	0,683813	-0,024440	2020-10-13T22:56:07:132
0,016427	0,415662	-0,239847	2020-10-13T22:56:07:147
-0,165619	0,275368	-0,094916	2020-10-13T22:56:07:170
0,040589	0,546685	-0,130332	2020-10-13T22:56:07:187
-0,024672	0,301601	-0,086441	2020-10-13T22:56:07:210
-0,014070	0,149417	-0,132224	2020-10-13T22:56:07:227
-0,010022	0,296491	-0,054933	2020-10-13T22:56:07:250
0,026128	0,225635	-0,009556	2020-10-13T22:56:07:267
-0,023040	0,010831	0,024340	2020-10-13T22:56:07:290
-0,067147	0,121304	-0,153858	2020-10-13T22:56:07:307
-0,028226	0,303325	-0,152426	2020-10-13T22:56:07:332
-0,073929	0,602528	-0,162677	2020-10-13T22:56:07:348
-0,055854	0,779048	0,019866	2020-10-13T22:56:07:372
-0,083576	0,474216	-0,116597	2020-10-13T22:56:07:387
-0,045861	0,433840	-0,123827	2020-10-13T22:56:07:410
-0,076734	0,618917	-0,115683	2020-10-13T22:56:07:427
-0,063015	0,914387	-0,126081	2020-10-13T22:56:07:452
-0,041055	1,028013	-0,186837	2020-10-13T22:56:07:467
0,033578	1,137534	-0,079800	2020-10-13T22:56:07:490
-0,047959	1,035037	-0,196680	2020-10-13T22:56:07:508
-0,043422	1,228124	-0,121053	2020-10-13T22:56:07:531
-0,014324	1,742528	-0,066011	2020-10-13T22:56:07:548
0,007693	1,932229	-0,031717	2020-10-13T22:56:07:571
0,008232	1,831778	-0,017449	2020-10-13T22:56:07:587
0,021099	1,809830	-0,073630	2020-10-13T22:56:07:614
-0,016509	1,552846	-0,072850	2020-10-13T22:56:07:628
-0,016102	2,556544	0,015090	2020-10-13T22:56:07:651
0,017843	4,092046	0,337715	2020-10-13T22:56:07:667
0,037784	3,079370	0,164951	2020-10-13T22:56:07:691
-0,081977	0,705454	-0,107995	2020-10-13T22:56:07:707
-0,008607	-0,391747	-0,012901	2020-10-13T22:56:07:731
-0,002637	-0,006319	0,013765	2020-10-13T22:56:07:748
-0,014011	0,197975	-0,073392	2020-10-13T22:56:07:771
-0,042187	0,039087	-0,061131	2020-10-13T22:56:07:787
-0,000043	-0,000955	-0,009824	2020-10-13T22:56:07:812
-0,038329	0,032545	-0,081609	2020-10-13T22:56:07:827
-0,021952	-0,625020	-0,012391	2020-10-13T22:56:07:854
-0,021971	-0,973755	0,104640	2020-10-13T22:56:07:867
-0,000042	-1,661698	0,282330	2020-10-13T22:56:07:890
-0,000749	-1,695959	0,218988	2020-10-13T22:56:07:909
0,015175	-1,501371	0,261910	2020-10-13T22:56:07:935
0,020811	-1,209854	0,125383	2020-10-13T22:56:07:949
0,002270	-0,944804	0,068812	2020-10-13T22:56:07:979
-0,014268	-0,826930	0,105314	2020-10-13T22:56:07:989
-0,027987	-0,811630	0,089507	2020-10-13T22:56:08:014
-0,003526	-1,196106	0,133206	2020-10-13T22:56:08:029
-0,073362	-1,468024	0,098467	2020-10-13T22:56:08:051
-0,016559	2,992699	0,222747	2020-10-13T22:56:08:070
-0,041537	2,447105	0,045007	2020-10-13T22:56:08:123
-0,020300	1,550379	-0,030271	2020-10-13T22:56:08:124
-0,000007	0,000390	0,004373	2020-10-13T22:56:08:132
-0,062221	0,009961	-0,172696	2020-10-13T22:56:08:149
0,040937	-0,039610	-0,077195	2020-10-13T22:56:08:191
0,205125	0,010483	0,031184	2020-10-13T22:56:08:192
0,194661	-0,150376	-0,110259	2020-10-13T22:56:08:211
-0,000112	-0,002213	-0,024020	2020-10-13T22:56:08:228
-0,012076	-0,148175	-0,074270	2020-10-13T22:56:08:251
-0,046737	0,092563	-0,024463	2020-10-13T22:56:08:268
-0,038938	0,174508	-0,085433	2020-10-13T22:56:08:291
-0,045320	0,156418	-0,067741	2020-10-13T22:56:08:308
-0,064050	0,226614	-0,049688	2020-10-13T22:56:08:335
-0,041138	0,210706	-0,053705	2020-10-13T22:56:08:348
-0,050044	0,242007	-0,069836	2020-10-13T22:56:08:371
-0,034972	0,312861	-0,043105	2020-10-13T22:56:08:388
0,105990	0,341376	-0,035181	2020-10-13T22:56:08:412
-0,030640	0,160704	-0,107727	2020-10-13T22:56:08:428
-0,023137	0,204275	-0,069257	2020-10-13T22:56:08:451
-0,014325	0,377473	-0,053755	2020-10-13T22:56:08:468
-0,000209	-0,004206	-0,049969	2020-10-13T22:56:08:492
0,002184	-0,221953	-0,093040	2020-10-13T22:56:08:508
-0,109286	0,206235	-0,054212	2020-10-13T22:56:08:532
-0,070515	0,113785	-0,066516	2020-10-13T22:56:08:549
-0,021549	0,167089	-0,102592	2020-10-13T22:56:08:576
-0,071142	0,261518	-0,030329	2020-10-13T22:56:08:588
0,036028	0,253972	-0,053411	2020-10-13T22:56:08:611
-0,004860	0,093894	-0,035089	2020-10-13T22:56:08:628
0,011956	-0,010587	-0,094517	2020-10-13T22:56:08:653
-0,026638	0,150990	-0,075451	2020-10-13T22:56:08:668
-0,000214	-0,008296	-0,096109	2020-10-13T22:56:08:692
0,002179	-0,044189	-0,045860	2020-10-13T22:56:08:709
-0,048785	-0,133123	0,014137	2020-10-13T22:56:08:732
-0,056909	-0,168041	-0,040997	2020-10-13T22:56:08:751
-0,028305	-0,388229	-0,026578	2020-10-13T22:56:08:771
-0,089652	-0,235460	-0,053427	2020-10-13T22:56:08:789
0,010099	-0,292006	-0,011316	2020-10-13T22:56:08:838
0,034351	-0,301208	0,005817	2020-10-13T22:56:08:839
-0,048894	-0,355558	-0,037593	2020-10-13T22:56:08:853
-0,052675	-0,361885	-0,053695	2020-10-13T22:56:08:869
-0,000015	-0,002315	-0,030922	2020-10-13T22:56:08:894
0,016735	-0,232026	-0,062029	2020-10-13T22:56:08:908
-0,004258	0,117833	-0,072822	2020-10-13T22:56:08:932
-0,005295	0,098390	-0,066211	2020-10-13T22:56:08:949
0,002632	0,180342	-0,073533	2020-10-13T22:56:08:973
0,035739	0,131298	-0,082586	2020-10-13T22:56:08:988
-0,059349	0,134006	-0,053295	2020-10-13T22:56:09:012
0,022158	-0,004163	-0,041367	2020-10-13T22:56:09:029
-0,088874	0,130150	-0,089117	2020-10-13T22:56:09:055
0,002314	0,331157	-0,032636	2020-10-13T22:56:09:069
-0,074740	0,309969	-0,050617	2020-10-13T22:56:09:094
0,001820	-0,000473	-0,103173	2020-10-13T22:56:09:109
0,003435	-0,030458	-0,045065	2020-10-13T22:56:09:134
-0,017276	0,080333	-0,110684	2020-10-13T22:56:09:149
-0,015615	0,296241	-0,082705	2020-10-13T22:56:09:172
-0,033214	0,358546	0,017216	2020-10-13T22:56:09:189
0,000490	0,130384	-0,053249	2020-10-13T22:56:09:212
0,011728	-0,003250	-0,068667	2020-10-13T22:56:09:229
-0,026951	0,102290	-0,042359	2020-10-13T22:56:09:252
-0,011176	0,271983	-0,059474	2020-10-13T22:56:09:269
0,000017	-0,002288	-0,034914	2020-10-13T22:56:09:301
0,019160	-0,057323	-0,063628	2020-10-13T22:56:09:310
-0,070257	-0,159913	-0,073826	2020-10-13T22:56:09:333
-0,042001	0,056510	-0,049353	2020-10-13T22:56:09:350
0,001358	0,082631	-0,061619	2020-10-13T22:56:09:378
-0,086948	0,069538	-0,066019	2020-10-13T22:56:09:392
-0,041874	0,047391	-0,047153	2020-10-13T22:56:09:411
-0,154464	0,037553	-0,062265	2020-10-13T22:56:09:431
-0,000120	-0,002101	-0,025783	2020-10-13T22:56:09:455
-0,088655	-0,191134	-0,059282	2020-10-13T22:56:09:469
0,012759	0,081664	-0,098115	2020-10-13T22:56:09:491
0,044161	0,023990	-0,016127	2020-10-13T22:56:09:509
0,000192	-0,002747	-0,043357	2020-10-13T22:56:09:539
0,024120	0,035538	-0,055321	2020-10-13T22:56:09:551
0,028050	0,120027	-0,027781	2020-10-13T22:56:09:572
-0,028301	0,100840	-0,030321	2020-10-13T22:56:09:589
-0,022713	0,050524	-0,040032	2020-10-13T22:56:09:613
-0,009912	0,002174	-0,059290	2020-10-13T22:56:09:629
-0,006642	0,087341	-0,097221	2020-10-13T22:56:09:653
0,015632	0,156561	-0,067752	2020-10-13T22:56:09:669
0,041064	0,053377	-0,024665	2020-10-13T22:56:09:693
0,034058	0,034697	-0,056399	2020-10-13T22:56:09:709
-0,046808	0,033384	-0,059591	2020-10-13T22:56:09:733
-0,031816	0,086102	0,006189	2020-10-13T22:56:09:750
0,012722	0,097585	-0,081861	2020-10-13T22:56:09:775
-0,030951	0,186253	-0,017114	2020-10-13T22:56:09:791
0,000093	-0,004836	-0,063134	2020-10-13T22:56:09:815
-0,019049	-0,191476	-0,022456	2020-10-13T22:56:09:830
-0,027071	0,143241	-0,052413	2020-10-13T22:56:09:854
-0,046189	0,387782	-0,065655	2020-10-13T22:56:09:891
-0,000097	0,001514	0,018829	2020-10-13T22:56:09:893
0,040581	-0,067878	-0,057741	2020-10-13T22:56:09:909
0,018469	0,353317	-0,117389	2020-10-13T22:56:09:933
-0,024994	0,371973	-0,094143	2020-10-13T22:56:09:950
-0,040295	0,461668	-0,087161	2020-10-13T22:56:09:975
-0,088896	0,396645	-0,044017	2020-10-13T22:56:09:989
-0,029975	0,115264	-0,097197	2020-10-13T22:56:10:015
-0,044328	0,230435	-0,094974	2020-10-13T22:56:10:030
-0,120478	0,110495	-0,085218	2020-10-13T22:56:10:060
-0,037302	0,122252	-0,113238	2020-10-13T22:56:10:072
0,013013	0,134527	-0,054371	2020-10-13T22:56:10:111
-0,014798	0,016291	-0,023913	2020-10-13T22:56:10:112
0,000762	-0,011147	-0,139408	2020-10-13T22:56:10:133
-0,035131	-0,032682	-0,098730	2020-10-13T22:56:10:151
0,067417	-0,028056	-0,056529	2020-10-13T22:56:10:172
0,048781	-0,055562	-0,075006	2020-10-13T22:56:10:190
0,014012	0,015069	-0,079313	2020-10-13T22:56:10:213
0,040765	0,113471	0,014785	2020-10-13T22:56:10:230
0,072986	-0,021799	-0,001062	2020-10-13T22:56:10:254
0,003430	-0,045694	-0,127501	2020-10-13T22:56:10:270
0,066751	0,014629	-0,060124	2020-10-13T22:56:10:292
-0,026768	0,104803	-0,069242	2020-10-13T22:56:10:310
0,000780	0,006247	-0,068776	2020-10-13T22:56:10:333
0,014927	-0,043154	-0,028381	2020-10-13T22:56:10:353
0,030043	-0,144935	0,018539	2020-10-13T22:56:10:373
0,036946	-0,069268	-0,116827	2020-10-13T22:56:10:390
0,106362	0,109481	-0,050589	2020-10-13T22:56:10:413
0,065093	0,138883	-0,014601	2020-10-13T22:56:10:430
0,000465	-0,005782	-0,072592	2020-10-13T22:56:10:454
-0,028248	-0,010568	-0,065413	2020-10-13T22:56:10:470
0,125543	-0,061512	-0,026408	2020-10-13T22:56:10:495
0,037439	-0,197970	-0,058172	2020-10-13T22:56:10:511
0,055917	-0,108557	-0,053859	2020-10-13T22:56:10:533
0,022870	-0,012566	-0,029972	2020-10-13T22:56:10:551
0,025841	-0,170234	-0,035185	2020-10-13T22:56:10:573
0,018827	-0,159457	-0,098672	2020-10-13T22:56:10:590
0,055681	-0,104939	-0,039770	2020-10-13T22:56:10:613
-0,004680	0,067493	-0,111779	2020-10-13T22:56:10:631
0,038557	0,078085	-0,022759	2020-10-13T22:56:10:653
0,019463	-0,073888	-0,032255	2020-10-13T22:56:10:670
-0,003006	-0,101512	-0,080394	2020-10-13T22:56:10:693
0,050721	0,189072	-0,051565	2020-10-13T22:56:10:710
0,024072	-0,000464	-0,060550	2020-10-13T22:56:10:736
-0,035012	-0,088286	-0,070191	2020-10-13T22:56:10:751
0,037609	-0,126226	-0,090111	2020-10-13T22:56:10:773
-0,002517	0,072576	-0,006766	2020-10-13T22:56:10:790
0,039856	0,035948	-0,018680	2020-10-13T22:56:10:814
0,077678	0,001744	-0,069267	2020-10-13T22:56:10:830
0,053690	-0,065968	-0,031700	2020-10-13T22:56:10:853
-0,014943	0,015758	-0,073344	2020-10-13T22:56:10:875
-0,017060	0,112438	-0,030345	2020-10-13T22:56:10:893
0,114898	0,053967	-0,089904	2020-10-13T22:56:10:910
0,002662	-0,003520	-0,047771	2020-10-13T22:56:10:934
0,051552	0,005859	-0,063005	2020-10-13T22:56:10:960
-0,014882	0,001554	-0,073676	2020-10-13T22:56:10:982
-0,035927	0,192026	-0,088133	2020-10-13T22:56:10:993
0,010628	0,088780	-0,027764	2020-10-13T22:56:11:015
0,006857	-0,089631	-0,056735	2020-10-13T22:56:11:035
-0,015924	-0,039386	-0,031274	2020-10-13T22:56:11:056
0,058237	0,091649	-0,019776	2020-10-13T22:56:11:083
-0,002474	0,049264	-0,053508	2020-10-13T22:56:11:101
-0,043106	0,098391	-0,089320	2020-10-13T22:56:11:119
0,000159	-0,001258	-0,017109	2020-10-13T22:56:11:136
0,031266	-0,051507	-0,100858	2020-10-13T22:56:11:151
0,059233	0,140627	-0,050632	2020-10-13T22:56:11:175
0,029610	0,191641	-0,091525	2020-10-13T22:56:11:190
0,032024	0,051164	-0,110872	2020-10-13T22:56:11:214
-0,044828	0,256516	-0,080344	2020-10-13T22:56:11:231
0,034764	0,048994	-0,029986	2020-10-13T22:56:11:254
0,004939	0,091109	-0,035748	2020-10-13T22:56:11:272
0,007820	0,003841	-0,103542	2020-10-13T22:56:11:294
0,068935	0,196691	-0,056190	2020-10-13T22:56:11:311
0,014610	0,139505	-0,049454	2020-10-13T22:56:11:334
-0,049528	0,120700	-0,073815	2020-10-13T22:56:11:352
0,031204	0,119524	-0,097671	2020-10-13T22:56:11:373
0,042522	0,011673	0,021169	2020-10-13T22:56:11:391
-0,056242	-0,006653	-0,135068	2020-10-13T22:56:11:415
0,024820	0,270716	-0,070445	2020-10-13T22:56:11:431
0,043814	0,077490	-0,099326	2020-10-13T22:56:11:456
-0,014248	0,088151	-0,075970	2020-10-13T22:56:11:471
0,018827	0,180865	-0,023546	2020-10-13T22:56:11:494
0,008925	0,185590	-0,093554	2020-10-13T22:56:11:511
-0,004349	0,271786	-0,091290	2020-10-13T22:56:11:535
-0,004876	0,289758	-0,064789	2020-10-13T22:56:11:551
-0,024891	0,028438	-0,129492	2020-10-13T22:56:11:574
0,023438	0,137203	-0,108252	2020-10-13T22:56:11:591
0,046799	0,114100	-0,111628	2020-10-13T22:56:11:614
0,032751	0,193991	-0,079618	2020-10-13T22:56:11:631
0,072871	0,273883	-0,114098	2020-10-13T22:56:11:654
-0,004721	0,347650	-0,003888	2020-10-13T22:56:11:671
0,034183	0,344098	-0,114682	2020-10-13T22:56:11:695
-0,017502	0,351553	-0,094828	2020-10-13T22:56:11:713
0,002859	0,503562	-0,025877	2020-10-13T22:56:11:737
0,000913	0,464322	-0,124705	2020-10-13T22:56:11:751
0,025036	0,450433	-0,094475	2020-10-13T22:56:11:774
0,040781	0,525610	-0,057513	2020-10-13T22:56:11:793
0,034062	0,667848	-0,048688	2020-10-13T22:56:11:821
-0,024054	0,866178	-0,089903	2020-10-13T22:56:11:833
0,033995	0,994161	-0,073359	2020-10-13T22:56:11:855
-0,071425	1,169545	-0,064599	2020-10-13T22:56:11:872
0,012289	0,931388	-0,012877	2020-10-13T22:56:11:895
-0,049239	0,993485	-0,060439	2020-10-13T22:56:11:912
0,029356	0,876479	-0,074361	2020-10-13T22:56:11:938
0,030093	1,190497	-0,087133	2020-10-13T22:56:11:953
-0,014607	1,748391	-0,071575	2020-10-13T22:56:11:993
0,010403	1,816768	-0,012982	2020-10-13T22:56:11:994
0,019890	2,292219	0,042660	2020-10-13T22:56:12:016
-0,002308	3,791070	0,466082	2020-10-13T22:56:12:033
0,083041	4,303873	0,691880	2020-10-13T22:56:12:055
-0,062719	-1,429189	0,121766	2020-10-13T22:56:12:072
-0,000033	-0,000436	-0,006340	2020-10-13T22:56:12:104
-0,038318	0,016314	-0,054196	2020-10-13T22:56:12:116
0,004410	-0,440731	-0,068446	2020-10-13T22:56:12:134
0,054142	-0,394514	-0,055502	2020-10-13T22:56:12:152
0,029609	-0,308520	0,005955	2020-10-13T22:56:12:177
0,016055	-0,339272	-0,045437	2020-10-13T22:56:12:193
-0,032056	-0,264212	-0,063632	2020-10-13T22:56:12:214
-0,020392	-0,187605	-0,020975	2020-10-13T22:56:12:232
0,038234	-0,268038	-0,016271	2020-10-13T22:56:12:255
-0,040399	-0,339852	-0,069284	2020-10-13T22:56:12:272
-0,027910	-0,146027	-0,062501	2020-10-13T22:56:12:294
-0,003997	-0,051757	-0,022860	2020-10-13T22:56:12:312
0,026712	-0,091892	-0,011797	2020-10-13T22:56:12:335
0,024415	-0,183663	-0,032279	2020-10-13T22:56:12:352
0,027773	-0,152689	-0,021474	2020-10-13T22:56:12:375
-0,058743	-0,208451	-0,078055	2020-10-13T22:56:12:392
0,038098	-0,208814	-0,013744	2020-10-13T22:56:12:418
0,012924	-0,251672	-0,049225	2020-10-13T22:56:12:433
0,011682	-0,175420	-0,023709	2020-10-13T22:56:12:456
0,034781	-0,290848	0,014007	2020-10-13T22:56:12:472
-0,017355	-0,215039	-0,048381	2020-10-13T22:56:12:495
-0,014241	-0,162761	-0,046160	2020-10-13T22:56:12:512
0,048521	-0,200522	-0,062954	2020-10-13T22:56:12:535
0,036709	-0,176708	-0,070062	2020-10-13T22:56:12:553
-0,001098	-0,209874	0,021914	2020-10-13T22:56:12:575
-0,042454	-0,124753	-0,019057	2020-10-13T22:56:12:592
0,000609	-0,085916	-0,021687	2020-10-13T22:56:12:620
-0,068871	-0,322886	-0,065121	2020-10-13T22:56:12:633
-0,035876	-0,271079	-0,043350	2020-10-13T22:56:12:660
-0,047901	-0,191929	-0,036746	2020-10-13T22:56:12:673
0,066577	-0,152533	-0,049898	2020-10-13T22:56:12:704
0,013565	-0,147471	-0,006832	2020-10-13T22:56:12:715
-0,039124	-0,158524	-0,072747	2020-10-13T22:56:12:736
0,020760	-0,138526	-0,063420	2020-10-13T22:56:12:755
0,026760	-0,063054	-0,032751	2020-10-13T22:56:12:776
0,032967	-0,053121	-0,059441	2020-10-13T22:56:12:793
0,031684	-0,096908	-0,047763	2020-10-13T22:56:12:815
0,037739	0,022297	-0,072334	2020-10-13T22:56:12:832
0,008004	-0,079563	-0,041465	2020-10-13T22:56:12:865
-0,039954	-0,066133	-0,005842	2020-10-13T22:56:12:873
0,074711	-0,027382	-0,029810	2020-10-13T22:56:12:902
0,003539	-0,082889	-0,046179	2020-10-13T22:56:12:915
-0,022345	-0,161144	-0,068265	2020-10-13T22:56:12:935
-0,005903	0,110656	0,002595	2020-10-13T22:56:12:953
-0,020149	-0,059237	-0,092463	2020-10-13T22:56:12:976
-0,066680	-0,128899	-0,068850	2020-10-13T22:56:12:992
-0,038556	0,066686	-0,038363	2020-10-13T22:56:13:016
-0,032684	-0,015963	-0,078139	2020-10-13T22:56:13:033
-0,009374	0,038572	-0,063918	2020-10-13T22:56:13:056
-0,025453	-0,057874	-0,025749	2020-10-13T22:56:13:073
0,052731	-0,152892	-0,016717	2020-10-13T22:56:13:097
-0,005541	-0,142864	-0,079596	2020-10-13T22:56:13:112
-0,020023	-0,127260	-0,017466	2020-10-13T22:56:13:139
0,002728	-0,150184	-0,056138	2020-10-13T22:56:13:153
-0,030444	-0,086591	-0,057010	2020-10-13T22:56:13:175
0,007447	0,031517	-0,066948	2020-10-13T22:56:13:192
0,005171	-0,088242	0,011869	2020-10-13T22:56:13:215
-0,011327	-0,056247	-0,058185	2020-10-13T22:56:13:232
-0,062939	0,065398	-0,032290	2020-10-13T22:56:13:256
-0,072038	0,065792	-0,065372	2020-10-13T22:56:13:275
0,051185	-0,010490	-0,039073	2020-10-13T22:56:13:295
0,001415	-0,011760	-0,065612	2020-10-13T22:56:13:313
0,000016	0,000779	0,012720	2020-10-13T22:56:13:355
0,026337	-0,039899	-0,042315	2020-10-13T22:56:13:355
0,000030	-0,001296	-0,017692	2020-10-13T22:56:13:380
0,007209	-0,039582	-0,029655	2020-10-13T22:56:13:393
0,001419	0,081660	-0,026697	2020-10-13T22:56:13:417
0,001126	0,046773	-0,075175	2020-10-13T22:56:13:433
0,015184	0,092555	-0,078277	2020-10-13T22:56:13:456
0,040988	0,161997	-0,073494	2020-10-13T22:56:13:473
0,033498	0,285112	0,020258	2020-10-13T22:56:13:495
-0,001814	0,213930	-0,026642	2020-10-13T22:56:13:513
-0,065839	0,122915	-0,115971	2020-10-13T22:56:13:536
0,016834	0,067266	-0,060657	2020-10-13T22:56:13:553
-0,027329	0,094118	-0,064468	2020-10-13T22:56:13:576
0,024763	0,150646	-0,026346	2020-10-13T22:56:13:593
0,057613	0,048810	-0,054852	2020-10-13T22:56:13:618
-0,019756	0,073043	-0,037899	2020-10-13T22:56:13:633
0,045761	0,218065	-0,067923	2020-10-13T22:56:13:656
-0,014120	0,229193	-0,058967	2020-10-13T22:56:13:677
-0,065594	0,230930	-0,034207	2020-10-13T22:56:13:697
0,009905	0,057621	-0,090431	2020-10-13T22:56:13:714
0,038341	0,019336	-0,035397	2020-10-13T22:56:13:738
-0,035702	-0,021926	-0,098275	2020-10-13T22:56:13:762
-0,014283	0,080276	-0,098342	2020-10-13T22:56:13:777
0,081899	0,202936	-0,079103	2020-10-13T22:56:13:794
-0,006135	0,165422	-0,030721	2020-10-13T22:56:13:817
-0,039890	0,226953	-0,041230	2020-10-13T22:56:13:837
-0,018567	0,161647	-0,030383	2020-10-13T22:56:13:858
0,020854	0,184573	-0,057511	2020-10-13T22:56:13:873
0,050904	0,159967	-0,084991	2020-10-13T22:56:13:896
0,036383	0,259994	-0,032101	2020-10-13T22:56:13:914
0,000996	0,464674	-0,075886	2020-10-13T22:56:13:937
0,086839	0,533953	-0,050201	2020-10-13T22:56:13:954
0,020342	-1,100891	0,080173	2020-10-13T22:56:13:976
-0,026417	-0,611545	-0,013921	2020-10-13T22:56:13:994
0,020169	-1,134658	0,116548	2020-10-13T22:56:14:017
0,028316	-0,747241	0,008419	2020-10-13T22:56:14:034
-0,050058	-0,515980	0,061340	2020-10-13T22:56:14:057
-0,021558	-1,391653	0,087611	2020-10-13T22:56:14:075
-0,002822	-2,674235	0,577108	2020-10-13T22:56:14:102
-0,035969	-2,889748	0,548891	2020-10-13T22:56:14:114
-0,054445	1,312342	-0,057914	2020-10-13T22:56:14:136
0,038468	0,447122	-0,073984	2020-10-13T22:56:14:154
0,007011	1,190952	-0,030472	2020-10-13T22:56:14:176
0,004963	1,818507	0,024590	2020-10-13T22:56:14:193
-0,021728	2,777735	0,192017	2020-10-13T22:56:14:216
0,045692	1,338694	-0,016195	2020-10-13T22:56:14:235
0,005043	-1,735288	0,215035	2020-10-13T22:56:14:257
0,004570	-1,241836	0,140875	2020-10-13T22:56:14:274
-0,036745	-1,159122	0,083702	2020-10-13T22:56:14:297
-0,051940	-3,984211	1,092472	2020-10-13T22:56:14:314
0,052027	0,700730	-0,036243	2020-10-13T22:56:14:339
-0,029926	-2,516912	0,391090	2020-10-13T22:56:14:359
-0,017815	1,900441	0,012289	2020-10-13T22:56:14:377
-0,000612	1,320540	-0,068111	2020-10-13T22:56:14:395
-0,000084	-0,002278	-0,034254	2020-10-13T22:56:14:428
-0,000084	-0,026206	-0,031861	2020-10-13T22:56:14:437
0,016882	-0,124425	-0,056097	2020-10-13T22:56:14:458
-0,054321	-0,179266	-0,065494	2020-10-13T22:56:14:476
-0,018921	-0,088340	-0,071381	2020-10-13T22:56:14:497
0,019086	-0,177503	-0,098718	2020-10-13T22:56:14:515
-0,061957	-0,136197	-0,008025	2020-10-13T22:56:14:539
-0,057306	-0,231754	-0,032624	2020-10-13T22:56:14:555
-0,012271	-0,239396	-0,058909	2020-10-13T22:56:14:579
0,007063	-0,296370	-0,030437	2020-10-13T22:56:14:596
-0,017812	-0,240384	-0,096523	2020-10-13T22:56:14:826
-0,055520	-0,161834	-0,044047	2020-10-13T22:56:14:827
-0,050743	-0,234359	-0,035009	2020-10-13T22:56:14:827
-0,034205	-0,266710	-0,033053	2020-10-13T22:56:14:828
-0,001868	-0,339135	-0,009989	2020-10-13T22:56:14:829
0,012149	-0,192156	-0,025910	2020-10-13T22:56:14:829
-0,031866	-0,293290	-0,036666	2020-10-13T22:56:14:830
-0,001660	-0,327635	-0,026408	2020-10-13T22:56:14:830
-0,002005	-0,208128	-0,023046	2020-10-13T22:56:14:831
0,048237	-0,161265	-0,052687	2020-10-13T22:56:14:831
-0,033802	-0,258218	-0,023252	2020-10-13T22:56:14:831
-0,030010	-0,258472	-0,039394	2020-10-13T22:56:14:833
0,035665	-0,367059	0,002151	2020-10-13T22:56:14:856
-0,019305	-0,170275	-0,031231	2020-10-13T22:56:14:874
0,012578	-0,188241	-0,038318	2020-10-13T22:56:14:896
-0,005790	-0,297545	-0,052730	2020-10-13T22:56:14:915
-0,006722	-0,219279	-0,047887	2020-10-13T22:56:14:937
-0,014745	-0,257406	-0,016230	2020-10-13T22:56:14:957
-0,029743	-0,262757	-0,039165	2020-10-13T22:56:14:986
-0,026510	-0,174641	-0,023814	2020-10-13T22:56:14:994
-0,064137	-0,157743	-0,051369	2020-10-13T22:56:15:017
0,011860	-0,440657	-0,051836	2020-10-13T22:56:15:034
0,041081	-0,286407	-0,021505	2020-10-13T22:56:15:061
-0,014779	-0,286455	-0,014481	2020-10-13T22:56:15:080
-0,072105	-0,241463	-0,052921	2020-10-13T22:56:15:100
-0,037978	-0,206016	-0,044950	2020-10-13T22:56:15:115
0,013045	-0,327439	-0,004042	2020-10-13T22:56:15:137
-0,012653	-0,457140	-0,056108	2020-10-13T22:56:15:155
-0,070091	-0,350934	-0,031679	2020-10-13T22:56:15:177
-0,021354	-0,203668	-0,039038	2020-10-13T22:56:15:204
-0,038311	-0,315330	0,009163	2020-10-13T22:56:15:226
0,010367	-0,517082	0,003483	2020-10-13T22:56:15:236
-0,053613	-0,430096	-0,085254	2020-10-13T22:56:15:257
-0,006156	-0,359899	0,002319	2020-10-13T22:56:15:275
-0,000720	-0,452308	-0,066952	2020-10-13T22:56:15:309
-0,009918	-0,510031	0,007261	2020-10-13T22:56:15:324
0,014817	-0,483358	0,024220	2020-10-13T22:56:15:336
0,019969	-0,550660	-0,021330	2020-10-13T22:56:15:354
0,006309	-0,328171	-0,034329	2020-10-13T22:56:15:376
0,065054	-0,264096	-0,081367	2020-10-13T22:56:15:394
0,013789	-0,270654	-0,008725	2020-10-13T22:56:15:416
0,056322	-0,230767	-0,058741	2020-10-13T22:56:15:435
-0,011472	-0,203979	-0,003647	2020-10-13T22:56:15:458
-0,032093	-0,174881	-0,021461	2020-10-13T22:56:15:475
-0,066025	-0,159222	-0,081721	2020-10-13T22:56:15:497
-0,041188	-0,177195	-0,112246	2020-10-13T22:56:15:515
0,063096	-0,160817	-0,006251	2020-10-13T22:56:15:547
-0,026395	-0,174536	-0,060629	2020-10-13T22:56:15:557
-0,082759	-0,193484	-0,034492	2020-10-13T22:56:15:578
-0,013850	-0,180006	-0,050356	2020-10-13T22:56:15:596
0,084323	-0,172236	-0,086121	2020-10-13T22:56:15:622
0,031724	-0,213514	-0,044827	2020-10-13T22:56:15:638
-0,016129	-0,154547	-0,060252	2020-10-13T22:56:15:658
0,003962	-0,176529	-0,017633	2020-10-13T22:56:15:675
-0,010465	-0,243755	-0,085402	2020-10-13T22:56:15:702
0,009225	-0,076896	-0,055028	2020-10-13T22:56:15:715
-0,046167	-0,029400	-0,057549	2020-10-13T22:56:15:738
-0,015200	-0,073049	-0,071571	2020-10-13T22:56:15:755
-0,009979	-0,104774	-0,095308	2020-10-13T22:56:15:789
0,009328	-0,095863	-0,013910	2020-10-13T22:56:15:795
-0,000231	-0,001308	-0,028555	2020-10-13T22:56:15:819
-0,040909	0,072869	-0,035733	2020-10-13T22:56:15:837
-0,034675	0,122184	-0,069132	2020-10-13T22:56:15:870
-0,055083	0,024638	-0,076003	2020-10-13T22:56:15:879
-0,000475	-0,003822	-0,083856	2020-10-13T22:56:15:899
-0,043546	0,211532	-0,052750	2020-10-13T22:56:15:916
-0,058239	-0,119955	-0,057024	2020-10-13T22:56:15:939
0,030501	-0,229631	-0,044536	2020-10-13T22:56:15:955
0,066656	-0,287115	-0,079336	2020-10-13T22:56:15:977
0,031483	-0,120797	-0,039756	2020-10-13T22:56:15:996
0,008121	-0,145427	-0,052185	2020-10-13T22:56:16:020
0,009088	-0,248740	-0,063422	2020-10-13T22:56:16:037
-0,017870	-0,160961	-0,064573	2020-10-13T22:56:16:062
-0,019500	-0,162776	-0,035731	2020-10-13T22:56:16:079
-0,000273	-0,002045	-0,041270	2020-10-13T22:56:16:100
-0,031380	-0,009224	-0,081948	2020-10-13T22:56:16:116
0,021688	0,154465	-0,052367	2020-10-13T22:56:16:138
-0,043819	0,058932	-0,040011	2020-10-13T22:56:16:157
-0,001113	0,114459	-0,123785	2020-10-13T22:56:16:178
-0,017956	0,106361	-0,058937	2020-10-13T22:56:16:196
-0,010573	0,088112	-0,087277	2020-10-13T22:56:16:219
0,040465	0,072542	-0,013049	2020-10-13T22:56:16:236
0,033027	0,040074	-0,065095	2020-10-13T22:56:16:260
0,031588	0,098548	-0,057743	2020-10-13T22:56:16:277
-0,008007	0,094372	-0,038298	2020-10-13T22:56:16:298
-0,024495	0,023385	-0,085969	2020-10-13T22:56:16:316
0,000543	-0,029279	-0,040507	2020-10-13T22:56:16:339
0,043437	0,122564	-0,061982	2020-10-13T22:56:16:356
0,024326	-0,005400	-0,046999	2020-10-13T22:56:16:378
0,020530	-0,036512	-0,089951	2020-10-13T22:56:16:396
-0,006626	0,009302	-0,056580	2020-10-13T22:56:16:419
0,012950	0,021769	-0,027778	2020-10-13T22:56:16:436
-0,045292	0,052107	-0,022720	2020-10-13T22:56:16:464
-0,040930	0,031161	-0,087127	2020-10-13T22:56:16:476
-0,000015	-0,003448	-0,062585	2020-10-13T22:56:16:502
0,033484	0,020480	-0,053013	2020-10-13T22:56:16:517
0,007864	0,050954	-0,031912	2020-10-13T22:56:16:542
-0,045492	-0,019431	-0,005142	2020-10-13T22:56:16:557
0,001893	0,040456	-0,021638	2020-10-13T22:56:16:579
0,042591	0,093901	-0,023808	2020-10-13T22:56:16:598
0,054793	-0,019407	-0,078248	2020-10-13T22:56:16:618
-0,040918	0,018785	-0,056699	2020-10-13T22:56:16:637
-0,003255	-0,028669	-0,056455	2020-10-13T22:56:16:660
0,015897	-0,047400	-0,061127	2020-10-13T22:56:16:686
-0,020922	0,018570	-0,051493	2020-10-13T22:56:16:701
0,001705	0,015426	-0,065672	2020-10-13T22:56:16:717
-0,058691	-0,018741	-0,005390	2020-10-13T22:56:16:745
-0,025010	-0,095916	-0,067435	2020-10-13T22:56:16:757
-0,021485	-0,029518	-0,053047	2020-10-13T22:56:16:778
0,014764	-0,030266	-0,085931	2020-10-13T22:56:16:796
0,013793	-0,010426	-0,063999	2020-10-13T22:56:16:819
0,003364	0,007484	-0,056450	2020-10-13T22:56:16:836
0,012614	-0,048393	-0,103956	2020-10-13T22:56:16:859
0,030674	-0,174988	-0,089311	2020-10-13T22:56:16:877
-0,014692	0,008407	-0,027335	2020-10-13T22:56:16:899
-0,021814	-0,037913	-0,055395	2020-10-13T22:56:16:927
0,001034	-0,062354	-0,069724	2020-10-13T22:56:16:940
0,042091	0,041345	-0,026856	2020-10-13T22:56:16:957
0,035146	-0,123488	-0,038375	2020-10-13T22:56:16:981
-0,007488	0,004627	-0,060138	2020-10-13T22:56:16:997
0,034265	0,080385	-0,062634	2020-10-13T22:56:17:019
0,057279	0,004421	-0,031260	2020-10-13T22:56:17:037
-0,004527	0,056455	-0,060079	2020-10-13T22:56:17:060
-0,051100	-0,016756	-0,053118	2020-10-13T22:56:17:077
-0,000191	-0,003567	-0,051816	2020-10-13T22:56:17:104
0,009380	-0,072959	-0,051816	2020-10-13T22:56:17:118
-0,108150	0,008110	-0,054919	2020-10-13T22:56:17:140
-0,061269	0,065071	-0,067539	2020-10-13T22:56:17:157
-0,050348	0,030001	-0,056021	2020-10-13T22:56:17:179
0,026009	0,049415	-0,036898	2020-10-13T22:56:17:197
0,000293	-0,057904	-0,034001	2020-10-13T22:56:17:221
-0,016256	0,024759	-0,048560	2020-10-13T22:56:17:237
-0,022230	0,132409	-0,046168	2020-10-13T22:56:17:263
0,060465	0,174748	-0,057834	2020-10-13T22:56:17:277
-0,037676	0,079308	-0,040158	2020-10-13T22:56:17:300
-0,028080	0,084697	-0,045254	2020-10-13T22:56:17:317
-0,069905	-0,029585	-0,059512	2020-10-13T22:56:17:339
-0,023448	0,129999	-0,047782	2020-10-13T22:56:17:357
-0,036848	0,088102	-0,049838	2020-10-13T22:56:17:380
-0,006255	0,117371	0,019384	2020-10-13T22:56:17:397
0,000640	0,032215	-0,087533	2020-10-13T22:56:17:420
-0,011905	0,066011	-0,084459	2020-10-13T22:56:17:472
-0,047493	0,112941	-0,005017	2020-10-13T22:56:17:473
-0,009932	0,059991	-0,033140	2020-10-13T22:56:17:480
-0,002700	0,074836	-0,068331	2020-10-13T22:56:17:502
-0,029317	-0,010939	-0,048313	2020-10-13T22:56:17:520
-0,004538	0,053347	-0,078636	2020-10-13T22:56:17:541
-0,035843	-0,032848	-0,065733	2020-10-13T22:56:17:557
-0,003092	-0,045341	-0,077347	2020-10-13T22:56:17:580
0,010849	-0,073220	-0,004327	2020-10-13T22:56:17:599
-0,000070	-0,003451	-0,057287	2020-10-13T22:56:17:621
-0,004856	0,092262	-0,054893	2020-10-13T22:56:17:637
-0,024424	-0,339297	0,003656	2020-10-13T22:56:17:660
0,027954	-0,561409	-0,008330	2020-10-13T22:56:17:677
-0,000126	-0,002036	-0,028513	2020-10-13T22:56:17:702
0,007053	0,009929	-0,090727	2020-10-13T22:56:17:717
-0,032138	-0,056111	-0,015049	2020-10-13T22:56:17:739
-0,066725	-0,082132	-0,036614	2020-10-13T22:56:17:757
-0,030045	-0,214751	-0,070237	2020-10-13T22:56:17:780
-0,033661	-0,088904	0,020030	2020-10-13T22:56:17:797
-0,082290	-0,183573	-0,037665	2020-10-13T22:56:17:819
-0,080403	-0,140713	-0,083135	2020-10-13T22:56:17:837
-0,011251	-0,032713	-0,016179	2020-10-13T22:56:17:860
-0,025332	-0,148026	-0,020752	2020-10-13T22:56:17:877
0,068671	-0,243038	-0,082839	2020-10-13T22:56:17:900
-0,066621	-0,127267	-0,075277	2020-10-13T22:56:17:918
-0,045796	-0,080456	-0,044286	2020-10-13T22:56:17:940
-0,015172	-0,044316	-0,057966	2020-10-13T22:56:17:957
-0,016526	-0,171997	0,013878	2020-10-13T22:56:17:984
-0,084509	-0,191857	-0,056343	2020-10-13T22:56:17:997
-0,003100	-0,129803	-0,012927	2020-10-13T22:56:18:020
0,017954	-0,085717	-0,081864	2020-10-13T22:56:18:037
-0,007471	0,006690	-0,083831	2020-10-13T22:56:18:060
-0,105556	-0,013098	0,024612	2020-10-13T22:56:18:083
-0,012651	-0,092244	-0,050493	2020-10-13T22:56:18:109
0,023457	-0,217719	-0,090718	2020-10-13T22:56:18:117
-0,007142	-0,195536	-0,053220	2020-10-13T22:56:18:141
-0,015569	-0,201811	-0,056956	2020-10-13T22:56:18:158
0,006332	-0,126170	-0,014001	2020-10-13T22:56:18:182
-0,079172	-0,194220	-0,008183	2020-10-13T22:56:18:197
0,005804	-0,134628	-0,018205	2020-10-13T22:56:18:220
-0,057219	-0,205487	-0,018279	2020-10-13T22:56:18:238
-0,067822	-0,283739	-0,074538	2020-10-13T22:56:18:261
-0,020101	-0,331603	-0,058954	2020-10-13T22:56:18:277
0,000143	-0,002733	-0,038912	2020-10-13T22:56:18:301
-0,007035	-0,012304	0,001767	2020-10-13T22:56:18:318
0,059291	-0,132036	-0,063512	2020-10-13T22:56:18:340
0,055290	-0,059087	-0,057354	2020-10-13T22:56:18:360
0,059092	-0,027090	0,018540	2020-10-13T22:56:18:381
0,008928	-0,102806	-0,018749	2020-10-13T22:56:18:397
0,072144	-0,073946	-0,093941	2020-10-13T22:56:18:422
0,020091	-0,018717	-0,046803	2020-10-13T22:56:18:437
0,009099	-0,017313	-0,107118	2020-10-13T22:56:18:460
0,025086	-0,010376	-0,042904	2020-10-13T22:56:18:477
0,015962	-0,109449	-0,046041	2020-10-13T22:56:18:503
0,071345	-0,029627	-0,059208	2020-10-13T22:56:18:518
-0,038145	-0,012683	-0,017258	2020-10-13T22:56:18:541
-0,007702	0,032543	-0,088907	2020-10-13T22:56:18:565
0,002030	0,090572	-0,081759	2020-10-13T22:56:18:589
0,082781	0,097018	-0,053249	2020-10-13T22:56:18:599
0,052181	-0,044294	-0,016355	2020-10-13T22:56:18:622
0,063119	0,184460	-0,046755	2020-10-13T22:56:18:637
-0,000014	-0,001472	-0,028335	2020-10-13T22:56:18:665
0,019129	0,067920	-0,073798	2020-10-13T22:56:18:681
0,013889	-0,156158	-0,041973	2020-10-13T22:56:18:700
-0,099702	-0,157166	-0,054380	2020-10-13T22:56:18:717
-0,000214	-0,001457	-0,028178	2020-10-13T22:56:18:756
-0,040892	-0,037349	-0,090392	2020-10-13T22:56:18:758
-0,035272	0,085652	-0,036864	2020-10-13T22:56:18:779
-0,017287	0,048494	-0,007697	2020-10-13T22:56:18:796
0,011953	-0,054607	-0,079210	2020-10-13T22:56:18:820
-0,025546	0,018268	-0,028749	2020-10-13T22:56:18:836
0,020677	0,003575	-0,057180	2020-10-13T22:56:18:860
-0,055549	-0,045972	-0,094956	2020-10-13T22:56:18:877
-0,010346	0,028162	-0,065837	2020-10-13T22:56:18:904
-0,003322	-0,040984	-0,055721	2020-10-13T22:56:18:919
-0,068210	-0,120671	-0,086644	2020-10-13T22:56:18:940
-0,043590	-0,037368	-0,026382	2020-10-13T22:56:18:957
-0,038995	0,002045	-0,105134	2020-10-13T22:56:18:981
-0,037079	-0,028408	-0,030714	2020-10-13T22:56:18:997
-0,020399	-0,084532	-0,064300	2020-10-13T22:56:19:020
-0,042900	-0,014949	-0,035746	2020-10-13T22:56:19:038
0,030531	0,035928	-0,066168	2020-10-13T22:56:19:061
0,000209	0,003173	-0,063374	2020-10-13T22:56:19:083
0,012611	-0,004044	-0,085057	2020-10-13T22:56:19:102
0,002909	0,013669	-0,032620	2020-10-13T22:56:19:117
0,003543	-0,025556	-0,047360	2020-10-13T22:56:19:143
0,041827	0,043025	-0,049849	2020-10-13T22:56:19:158
0,018549	-0,045638	-0,045052	2020-10-13T22:56:19:180
0,018057	-0,029900	-0,045566	2020-10-13T22:56:19:198
0,015186	-0,051961	-0,012460	2020-10-13T22:56:19:221
-0,004802	-0,030863	0,011356	2020-10-13T22:56:19:238
0,043021	-0,035099	-0,060320	2020-10-13T22:56:19:261
-0,069546	-0,053976	-0,096218	2020-10-13T22:56:19:278
-0,013367	-0,043467	-0,101072	2020-10-13T22:56:19:301
-0,048275	-0,037857	-0,031873	2020-10-13T22:56:19:318
-0,022214	-0,035716	-0,050723	2020-10-13T22:56:19:341
-0,033275	-0,035660	-0,043266	2020-10-13T22:56:19:358
-0,000035	-0,004403	-0,070120	2020-10-13T22:56:19:384
0,016715	-0,054652	-0,048584	2020-10-13T22:56:19:398
0,008805	-0,142427	-0,035572	2020-10-13T22:56:19:421
-0,034613	0,073412	-0,014497	2020-10-13T22:56:19:438
-0,014397	-0,048358	-0,044755	2020-10-13T22:56:19:461
-0,085290	-0,073003	-0,018538	2020-10-13T22:56:19:478
-0,013724	-0,030305	-0,040059	2020-10-13T22:56:19:501
-0,019747	0,015049	-0,071597	2020-10-13T22:56:19:518
-0,004920	0,007924	-0,051583	2020-10-13T22:56:19:541
0,006369	-0,047937	-0,081281	2020-10-13T22:56:19:558
0,017613	-0,119494	-0,052117	2020-10-13T22:56:19:581
0,016937	-0,059457	-0,057684	2020-10-13T22:56:19:598
-0,017036	-0,061018	-0,046224	2020-10-13T22:56:19:624
-0,007085	-0,014997	-0,023968	2020-10-13T22:56:19:638
0,006724	-0,149567	-0,025081	2020-10-13T22:56:19:661
0,015818	-0,104825	-0,023110	2020-10-13T22:56:19:678
-0,061343	-0,016736	-0,040449	2020-10-13T22:56:19:701
-0,039751	-0,167629	-0,034410	2020-10-13T22:56:19:720
-0,023975	-0,107945	-0,013645	2020-10-13T22:56:19:742
-0,032508	-0,147698	-0,039203	2020-10-13T22:56:19:759
-0,030585	-0,120791	-0,050707	2020-10-13T22:56:19:782
0,006655	-0,122619	-0,010746	2020-10-13T22:56:19:798
-0,027265	-0,143603	-0,046852	2020-10-13T22:56:19:829
0,036608	-0,160073	-0,022424	2020-10-13T22:56:19:838
-0,015811	-0,108497	-0,042871	2020-10-13T22:56:19:863
0,061258	-0,126123	-0,027239	2020-10-13T22:56:19:878
-0,025596	-0,162917	-0,067519	2020-10-13T22:56:19:900
0,028649	-0,107509	-0,077119	2020-10-13T22:56:19:917
-0,054332	-0,133655	-0,068061	2020-10-13T22:56:19:941
0,008786	-0,057995	-0,067498	2020-10-13T22:56:19:958
0,000005	-0,001198	-0,021367	2020-10-13T22:56:19:984
0,052647	-0,082554	-0,040509	2020-10-13T22:56:20:015
0,000035	-0,002664	-0,048005	2020-10-13T22:56:20:023
0,057463	0,016478	-0,112611	2020-10-13T22:56:20:039
-0,082658	-0,001386	-0,030662	2020-10-13T22:56:20:061
-0,097868	-0,131557	-0,044981	2020-10-13T22:56:20:086
0,002426	-0,148979	-0,023427	2020-10-13T22:56:20:107
0,059290	-0,104566	-0,026187	2020-10-13T22:56:20:119
-0,011122	-0,116419	-0,069533	2020-10-13T22:56:20:142
-0,044579	-0,065489	-0,043253	2020-10-13T22:56:20:159
0,077028	0,130490	-0,045500	2020-10-13T22:56:20:182
-0,047105	-0,129961	-0,037305	2020-10-13T22:56:20:199
-0,065916	-0,148139	-0,073564	2020-10-13T22:56:20:222
-0,050243	-0,056470	-0,068986	2020-10-13T22:56:20:240
-0,035615	-0,011998	-0,023475	2020-10-13T22:56:20:262
0,006602	-0,040839	0,012711	2020-10-13T22:56:20:278
-0,019232	-0,135610	-0,054783	2020-10-13T22:56:20:302
-0,053623	0,010608	-0,084091	2020-10-13T22:56:20:319
-0,043536	-0,000648	-0,048251	2020-10-13T22:56:20:343
-0,016965	-0,094804	-0,036389	2020-10-13T22:56:20:360
-0,106760	-0,069198	-0,065347	2020-10-13T22:56:20:381
0,006593	-0,047589	-0,086905	2020-10-13T22:56:20:399
-0,012570	-0,046887	-0,034442	2020-10-13T22:56:20:421
0,012248	0,001737	-0,034490	2020-10-13T22:56:20:439
-0,020224	-0,073453	-0,048078	2020-10-13T22:56:20:462
0,013800	-0,004281	-0,042850	2020-10-13T22:56:20:479
0,003392	0,046726	-0,001781	2020-10-13T22:56:20:502
-0,052441	-0,101152	-0,055958	2020-10-13T22:56:20:519
0,016991	-0,056116	-0,022138	2020-10-13T22:56:20:543
0,015867	0,001009	-0,062643	2020-10-13T22:56:20:559
-0,022875	0,015720	-0,100949	2020-10-13T22:56:20:583
-0,038257	-0,020732	-0,009991	2020-10-13T22:56:20:601
-0,055260	-0,089192	-0,045946	2020-10-13T22:56:20:623
0,040984	-0,034130	-0,045803	2020-10-13T22:56:20:640
-0,032597	-0,079698	-0,050731	2020-10-13T22:56:20:663
0,031432	-0,075094	-0,089007	2020-10-13T22:56:20:684
-0,059814	0,045595	0,000666	2020-10-13T22:56:20:704
-0,051865	0,064490	-0,049588	2020-10-13T22:56:20:720
0,000240	-0,002322	-0,031528	2020-10-13T22:56:20:743
0,005026	-0,198533	-0,057850	2020-10-13T22:56:20:761
0,031057	-0,063389	-0,065510	2020-10-13T22:56:20:784
-0,053342	0,003721	-0,013110	2020-10-13T22:56:20:799
0,063137	0,046005	-0,080406	2020-10-13T22:56:20:827
0,113449	0,002095	-0,013850	2020-10-13T22:56:20:879
0,000478	-0,004196	-0,084291	2020-10-13T22:56:20:880
0,062691	0,072374	-0,079506	2020-10-13T22:56:20:880
-0,000008	0,000260	0,005456	2020-10-13T22:56:20:904
-0,007186	-0,042811	-0,030437	2020-10-13T22:56:20:921
0,001661	0,146928	-0,071703	2020-10-13T22:56:20:941
-0,015108	0,169133	-0,083301	2020-10-13T22:56:20:959
-0,038611	0,048614	-0,068605	2020-10-13T22:56:20:982
-0,044100	0,031594	-0,106671	2020-10-13T22:56:20:999
0,051380	0,169543	-0,008213	2020-10-13T22:56:21:023
0,038429	0,105025	-0,063467	2020-10-13T22:56:21:039
0,033305	0,117678	-0,082952	2020-10-13T22:56:21:067
-0,014303	0,209184	-0,090360	2020-10-13T22:56:21:090
-0,026569	0,326445	-0,087868	2020-10-13T22:56:21:103
0,079102	0,241525	0,001126	2020-10-13T22:56:21:119
-0,040046	0,105482	-0,102791	2020-10-13T22:56:21:143
-0,001358	0,260699	0,012984	2020-10-13T22:56:21:160
-0,012819	0,146538	-0,043846	2020-10-13T22:56:21:182
-0,038589	0,131708	-0,134430	2020-10-13T22:56:21:199
0,004879	0,168448	-0,037644	2020-10-13T22:56:21:224
0,011544	0,156282	-0,051992	2020-10-13T22:56:21:240
0,005480	0,136049	-0,071536	2020-10-13T22:56:21:267
-0,016774	0,102276	-0,047818	2020-10-13T22:56:21:279
0,010676	0,281005	-0,066478	2020-10-13T22:56:21:306
0,007487	0,127101	-0,063936	2020-10-13T22:56:21:321
0,045865	0,097391	-0,109123	2020-10-13T22:56:21:346
-0,001538	0,108813	-0,056800	2020-10-13T22:56:21:363
-0,023147	0,101435	-0,030471	2020-10-13T22:56:21:383
0,016398	0,182626	-0,001287	2020-10-13T22:56:21:401
-0,019889	0,149752	-0,015324	2020-10-13T22:56:21:424
-0,037474	0,027151	-0,079061	2020-10-13T22:56:21:443
-0,037425	0,017666	-0,009051	2020-10-13T22:56:21:464
-0,003961	0,013898	-0,130631	2020-10-13T22:56:21:480
-0,007915	0,129791	-0,034461	2020-10-13T22:56:21:503
0,052900	0,014716	-0,026615	2020-10-13T22:56:21:534
-0,022926	0,091558	-0,040591	2020-10-13T22:56:21:544
0,072978	0,101386	-0,012914	2020-10-13T22:56:21:561
0,023479	-0,025440	-0,136063	2020-10-13T22:56:21:584
-0,043736	-0,084289	-0,066109	2020-10-13T22:56:21:600
-0,070462	-0,050098	-0,055464	2020-10-13T22:56:21:623
-0,032577	-0,202968	0,004034	2020-10-13T22:56:21:640
0,021086	-0,250797	-0,012642	2020-10-13T22:56:21:663
-0,001616	-0,153109	-0,089415	2020-10-13T22:56:21:680
-0,008145	-0,084996	-0,045653	2020-10-13T22:56:21:703
0,029253	0,033881	-0,041870	2020-10-13T22:56:21:719
-0,025987	0,047160	-0,061596	2020-10-13T22:56:21:743
-0,006723	0,069042	-0,045237	2020-10-13T22:56:21:761
-0,048259	0,106594	-0,098333	2020-10-13T22:56:21:784
-0,052061	0,061125	-0,089000	2020-10-13T22:56:21:801
-0,019280	0,137546	-0,010264	2020-10-13T22:56:21:823
-0,017331	-0,009257	-0,080088	2020-10-13T22:56:21:841
-0,016832	-0,081488	-0,130776	2020-10-13T22:56:21:865
0,002842	-0,038039	-0,016502	2020-10-13T22:56:21:880
0,037589	-0,035762	-0,086443	2020-10-13T22:56:21:902
-0,013103	0,040404	-0,017576	2020-10-13T22:56:21:920
-0,016427	-0,004999	-0,046817	2020-10-13T22:56:21:944
-0,019308	-0,097585	-0,037785	2020-10-13T22:56:21:960
0,043309	-0,076351	-0,009549	2020-10-13T22:56:21:983
-0,032714	0,015333	-0,009584	2020-10-13T22:56:22:000
-0,081427	0,097726	-0,076427	2020-10-13T22:56:22:025
0,006006	0,060347	-0,025712	2020-10-13T22:56:22:041
-0,026377	-0,040916	-0,069054	2020-10-13T22:56:22:063
0,026733	0,015812	-0,023951	2020-10-13T22:56:22:086
-0,067156	0,053175	-0,086704	2020-10-13T22:56:22:103
-0,027100	0,093859	-0,081915	2020-10-13T22:56:22:120
-0,004979	0,010852	-0,050648	2020-10-13T22:56:22:143
-0,055398	-0,015595	-0,088928	2020-10-13T22:56:22:161
0,030865	0,085907	-0,060059	2020-10-13T22:56:22:183
-0,049866	0,162944	-0,038451	2020-10-13T22:56:22:200
0,004585	0,110385	-0,069071	2020-10-13T22:56:22:223
-0,015381	0,064283	-0,049804	2020-10-13T22:56:22:240
0,011619	0,017859	-0,078276	2020-10-13T22:56:22:265
-0,008117	0,002266	-0,082910	2020-10-13T22:56:22:281
0,001806	0,140431	-0,039607	2020-10-13T22:56:22:303
0,000787	0,160654	-0,053806	2020-10-13T22:56:22:321
0,071702	0,159579	-0,039301	2020-10-13T22:56:22:344
0,048237	0,134051	-0,099578	2020-10-13T22:56:22:361
0,035827	0,122992	-0,080783	2020-10-13T22:56:22:385
-0,033063	0,221492	-0,004432	2020-10-13T22:56:22:401
0,049338	0,128711	-0,068659	2020-10-13T22:56:22:425
0,045999	0,063544	-0,071824	2020-10-13T22:56:22:442
0,042682	0,131086	-0,044072	2020-10-13T22:56:22:472
-0,000934	0,139025	0,002877	2020-10-13T22:56:22:482
-0,000160	-0,003966	-0,072236	2020-10-13T22:56:22:508
-0,045624	0,000820	-0,010023	2020-10-13T22:56:22:522
0,027932	0,069711	-0,052946	2020-10-13T22:56:22:548
-0,012520	-0,026784	-0,108544	2020-10-13T22:56:22:562
0,026299	-0,016211	-0,077604	2020-10-13T22:56:22:585
-0,023210	-0,004396	-0,044450	2020-10-13T22:56:22:619
0,023230	0,093295	-0,030071	2020-10-13T22:56:22:624
0,028993	0,086459	-0,025420	2020-10-13T22:56:22:642
0,046563	0,016121	-0,047141	2020-10-13T22:56:22:665
-0,006599	0,096367	-0,047879	2020-10-13T22:56:22:682
-0,075762	0,038887	-0,031016	2020-10-13T22:56:22:704
0,007541	0,009281	-0,068346	2020-10-13T22:56:22:721
0,007678	0,028211	-0,020247	2020-10-13T22:56:22:745
0,053273	0,096798	-0,046291	2020-10-13T22:56:22:762
-0,014123	0,050920	-0,063495	2020-10-13T22:56:22:795
0,073167	0,022688	-0,017584	2020-10-13T22:56:22:801
0,010102	-0,028364	-0,080115	2020-10-13T22:56:22:824
-0,009680	-0,040089	-0,042191	2020-10-13T22:56:22:841
0,024272	0,015802	-0,085301	2020-10-13T22:56:22:864
0,023366	0,229343	-0,027673	2020-10-13T22:56:22:882
0,008015	0,118414	-0,118443	2020-10-13T22:56:22:904
0,026615	0,049502	-0,084967	2020-10-13T22:56:22:921
0,003602	0,075958	-0,116543	2020-10-13T22:56:22:944
-0,006312	0,146874	0,012596	2020-10-13T22:56:22:962
0,024789	0,034466	-0,071041	2020-10-13T22:56:22:986
-0,048238	0,172148	-0,059479	2020-10-13T22:56:23:001
0,016250	0,082415	-0,079682	2020-10-13T22:56:23:024
-0,023147	0,170969	-0,089726	2020-10-13T22:56:23:041
-0,034014	0,134608	-0,029051	2020-10-13T22:56:23:064
0,082174	0,139039	-0,081061	2020-10-13T22:56:23:084
-0,051221	0,164828	-0,102203	2020-10-13T22:56:23:104
-0,041158	0,161065	-0,054767	2020-10-13T22:56:23:122
-0,044285	0,058578	-0,104156	2020-10-13T22:56:23:144
0,007445	0,111888	-0,063255	2020-10-13T22:56:23:162
0,046853	0,199004	-0,008909	2020-10-13T22:56:23:185
-0,007337	0,074589	-0,083093	2020-10-13T22:56:23:201
0,025740	0,212771	-0,047735	2020-10-13T22:56:23:225
0,056845	0,224269	-0,140141	2020-10-13T22:56:23:241
-0,015888	0,446532	-0,077830	2020-10-13T22:56:23:265
-0,043919	0,381631	-0,072113	2020-10-13T22:56:23:281
0,054922	0,328448	-0,057055	2020-10-13T22:56:23:305
0,051253	0,367116	-0,055316	2020-10-13T22:56:23:322
0,023719	0,362280	-0,108891	2020-10-13T22:56:23:345
-0,033695	0,642415	-0,029303	2020-10-13T22:56:23:363
-0,013408	0,578291	-0,047621	2020-10-13T22:56:23:385
-0,037322	0,595372	-0,107335	2020-10-13T22:56:23:402
-0,018246	0,567671	-0,086253	2020-10-13T22:56:23:426
0,025176	0,449104	-0,090630	2020-10-13T22:56:23:442
0,078430	0,532909	-0,090090	2020-10-13T22:56:23:465
0,005593	0,995208	-0,071336	2020-10-13T22:56:23:482
-0,045116	0,965062	-0,121860	2020-10-13T22:56:23:505
-0,067480	0,786696	-0,015153	2020-10-13T22:56:23:522
-0,007321	0,621110	-0,054365	2020-10-13T22:56:23:545
-0,000264	0,501594	-0,100074	2020-10-13T22:56:23:562
0,015977	0,369904	-0,069597	2020-10-13T22:56:23:585
-0,032081	0,582974	-0,067828	2020-10-13T22:56:23:602
0,020518	0,503557	-0,073374	2020-10-13T22:56:23:625
-0,014560	0,553937	-0,089261	2020-10-13T22:56:23:642
-0,056618	0,461654	-0,079123	2020-10-13T22:56:23:666
-0,005591	0,352379	-0,065639	2020-10-13T22:56:23:705
-0,015319	0,306691	-0,123278	2020-10-13T22:56:23:708
-0,007808	0,281831	-0,053490	2020-10-13T22:56:23:722
0,000235	-0,007114	-0,105400	2020-10-13T22:56:23:747
0,040912	-0,016685	-0,019258	2020-10-13T22:56:23:762
-0,000368	-0,003034	-0,059913	2020-10-13T22:56:23:784
-0,041046	0,080715	-0,019236	2020-10-13T22:56:23:801
0,003325	0,132852	-0,067485	2020-10-13T22:56:23:825
-0,033008	0,133759	-0,030979	2020-10-13T22:56:23:843
0,032686	0,001598	-0,087973	2020-10-13T22:56:23:866
-0,002220	-0,019945	-0,037856	2020-10-13T22:56:23:882
0,066873	0,035033	-0,068550	2020-10-13T22:56:23:906
-0,015702	0,004615	-0,070004	2020-10-13T22:56:23:922
-0,063446	-0,006396	-0,042738	2020-10-13T22:56:23:947
-0,004039	-0,026710	-0,077083	2020-10-13T22:56:23:963
-0,022278	0,009031	-0,053204	2020-10-13T22:56:23:986
0,011204	-0,014073	-0,031990	2020-10-13T22:56:24:002
-0,036146	-0,021009	-0,044136	2020-10-13T22:56:24:026
0,053032	-0,020585	-0,041663	2020-10-13T22:56:24:042
-0,072868	-0,091803	-0,045001	2020-10-13T22:56:24:066
-0,044700	-0,098471	-0,040578	2020-10-13T22:56:24:085
-0,039726	-0,343422	-0,040289	2020-10-13T22:56:24:105
-0,005223	-0,325456	0,047997	2020-10-13T22:56:24:122
-0,014948	-0,333761	-0,022194	2020-10-13T22:56:24:147
0,038144	-0,346948	-0,057746	2020-10-13T22:56:24:163
-0,000139	-0,006105	-0,080331	2020-10-13T22:56:24:187
0,002254	-0,022854	-0,056403	2020-10-13T22:56:24:203
-0,022630	-0,265133	-0,019875	2020-10-13T22:56:24:226
-0,028023	-0,241101	-0,047633	2020-10-13T22:56:24:243
-0,004402	-0,201784	-0,012831	2020-10-13T22:56:24:266
0,045794	-0,259592	-0,048890	2020-10-13T22:56:24:283
-0,064530	-0,128556	-0,022645	2020-10-13T22:56:24:306
0,019690	-0,176795	-0,045009	2020-10-13T22:56:24:323
0,035047	-0,226864	-0,036223	2020-10-13T22:56:24:346
-0,031769	-0,221243	-0,047565	2020-10-13T22:56:24:363
-0,020844	-0,157515	-0,066266	2020-10-13T22:56:24:386
0,015767	-0,159742	0,013251	2020-10-13T22:56:24:403
-0,033149	-0,121996	-0,039915	2020-10-13T22:56:24:428
-0,031076	-0,204126	0,005229	2020-10-13T22:56:24:443
-0,002855	-0,198407	-0,062035	2020-10-13T22:56:24:467
0,003885	-0,190292	-0,013876	2020-10-13T22:56:24:483
-0,035172	-0,165103	-0,018572	2020-10-13T22:56:24:506
-0,037945	-0,107783	-0,030342	2020-10-13T22:56:24:523
0,056915	-0,190547	-0,002382	2020-10-13T22:56:24:546
-0,032679	-0,175392	-0,107237	2020-10-13T22:56:24:564
-0,009311	-0,135565	-0,042379	2020-10-13T22:56:24:586
0,013896	-0,177486	-0,037777	2020-10-13T22:56:24:603
0,050970	-0,369653	-0,064424	2020-10-13T22:56:24:627
0,038272	-0,179796	-0,052578	2020-10-13T22:56:24:643
-0,004913	-0,113270	-0,062994	2020-10-13T22:56:24:667
0,004450	-0,139521	-0,036325	2020-10-13T22:56:24:684
0,046882	-0,148371	-0,055519	2020-10-13T22:56:24:706
-0,061088	-0,187699	-0,066056	2020-10-13T22:56:24:723
-0,019530	-0,125368	0,008626	2020-10-13T22:56:24:746
0,036334	-0,155542	-0,063054	2020-10-13T22:56:24:763
-0,018254	-0,169508	-0,028399	2020-10-13T22:56:24:786
-0,041560	-0,111571	-0,045188	2020-10-13T22:56:24:803
-0,023213	-0,186994	0,005838	2020-10-13T22:56:24:826
0,037499	-0,174312	-0,051471	2020-10-13T22:56:24:843
-0,041016	-0,038453	-0,019473	2020-10-13T22:56:24:868
0,008657	-0,197138	-0,076341	2020-10-13T22:56:24:883
-0,030496	-0,145894	-0,000350	2020-10-13T22:56:24:908
0,061205	-0,137733	-0,030504	2020-10-13T22:56:24:924
0,012531	-0,002026	0,020666	2020-10-13T22:56:24:947
-0,069191	-0,144683	-0,029812	2020-10-13T22:56:24:964
-0,008095	-0,204865	-0,024342	2020-10-13T22:56:24:986
-0,014536	-0,211336	-0,061287	2020-10-13T22:56:25:003
0,045750	-0,196693	-0,037543	2020-10-13T22:56:25:027
0,016833	-0,191756	-0,034378	2020-10-13T22:56:25:044
-0,068061	-0,121012	-0,047213	2020-10-13T22:56:25:067
-0,035613	-0,073356	-0,027599	2020-10-13T22:56:25:090
-0,037064	-0,187413	-0,052699	2020-10-13T22:56:25:107
-0,013950	-0,257496	-0,075767	2020-10-13T22:56:25:123
-0,010398	-0,164711	-0,028855	2020-10-13T22:56:25:147
0,040651	-0,175716	-0,031635	2020-10-13T22:56:25:164
0,016267	-0,143987	-0,065805	2020-10-13T22:56:25:187
-0,077997	-0,154342	-0,047079	2020-10-13T22:56:25:204
-0,040697	-0,051121	-0,040085	2020-10-13T22:56:25:227
0,018420	-0,180418	0,047561	2020-10-13T22:56:25:244
-0,029740	-0,208469	-0,088310	2020-10-13T22:56:25:267
-0,004592	-0,143464	-0,034208	2020-10-13T22:56:25:284
-0,030863	-0,022340	-0,050388	2020-10-13T22:56:25:306
-0,006276	-0,179333	-0,040126	2020-10-13T22:56:25:324
0,006153	-0,224647	-0,080816	2020-10-13T22:56:25:348
0,054154	-0,181744	0,003739	2020-10-13T22:56:25:364
-0,034126	-0,117673	-0,032610	2020-10-13T22:56:25:387
0,042118	-0,034557	0,013226	2020-10-13T22:56:25:404
-0,010297	0,008306	-0,046076	2020-10-13T22:56:25:427
0,013201	-0,068350	-0,048616	2020-10-13T22:56:25:444
0,064319	-0,147145	0,015195	2020-10-13T22:56:25:467
0,028800	-0,121395	-0,001321	2020-10-13T22:56:25:484
0,015853	0,004627	-0,030874	2020-10-13T22:56:25:507
-0,045055	0,086129	0,041806	2020-10-13T22:56:25:524
0,011736	-0,041463	-0,022013	2020-10-13T22:56:25:546
-0,045388	-0,196864	-0,002305	2020-10-13T22:56:25:565
-0,000059	-0,002149	-0,034355	2020-10-13T22:56:25:589
-0,002452	-0,071541	-0,008034	2020-10-13T22:56:25:604
0,007864	-0,041495	-0,073230	2020-10-13T22:56:25:628
-0,013418	0,160615	-0,039886	2020-10-13T22:56:25:645
0,092692	0,252466	-0,058587	2020-10-13T22:56:25:668
-0,022343	0,215267	-0,112833	2020-10-13T22:56:25:684
-0,010207	0,280579	-0,054221	2020-10-13T22:56:25:707
-0,049155	0,214689	-0,069456	2020-10-13T22:56:25:724
0,036001	0,275577	0,002595	2020-10-13T22:56:25:748
-0,047718	0,218420	-0,114723	2020-10-13T22:56:25:765
-0,043834	0,584286	-0,045884	2020-10-13T22:56:25:787
0,069275	0,646157	-0,101214	2020-10-13T22:56:25:804
-0,006867	0,491550	-0,000638	2020-10-13T22:56:25:828
-0,012175	0,417596	-0,077413	2020-10-13T22:56:25:844
-0,068835	0,622059	-0,046555	2020-10-13T22:56:25:869
-0,001748	2,171398	0,120887	2020-10-13T22:56:25:885
-0,051742	3,397651	0,390295	2020-10-13T22:56:25:908
-0,002326	-1,714703	0,176964	2020-10-13T22:56:25:924
-0,020371	-1,231167	0,022524	2020-10-13T22:56:25:948
-0,051087	-0,637708	0,019793	2020-10-13T22:56:25:965
-0,012494	-0,209745	-0,018874	2020-10-13T22:56:25:988
-0,057579	-0,120516	0,047194	2020-10-13T22:56:26:005
0,006849	-0,142048	-0,063068	2020-10-13T22:56:26:029
-0,010754	-0,028299	-0,019510	2020-10-13T22:56:26:046
0,040174	-0,038280	-0,103570	2020-10-13T22:56:26:069
-0,054690	-0,060841	-0,031599	2020-10-13T22:56:26:088
0,026034	-0,044854	-0,004245	2020-10-13T22:56:26:110
-0,023856	-0,043918	-0,072177	2020-10-13T22:56:26:124
-0,024422	-0,000221	-0,033700	2020-10-13T22:56:26:149
-0,058878	0,130462	0,030950	2020-10-13T22:56:26:166
0,053567	-0,159758	-0,019154	2020-10-13T22:56:26:187
-0,009785	-0,106574	-0,017227	2020-10-13T22:56:26:204
0,037628	0,014346	-0,008862	2020-10-13T22:56:26:229
0,025552	0,041459	-0,004707	2020-10-13T22:56:26:245
-0,065225	-0,012352	-0,067823	2020-10-13T22:56:26:267
-0,012953	0,012704	0,017738	2020-10-13T22:56:26:284
-0,046870	0,046127	-0,030634	2020-10-13T22:56:26:308
-0,019672	0,045705	-0,045308	2020-10-13T22:56:26:324
-0,026961	-0,030693	0,033324	2020-10-13T22:56:26:348
0,028119	0,059992	-0,024565	2020-10-13T22:56:26:365
-0,043420	0,135187	-0,034545	2020-10-13T22:56:26:388
-0,025257	0,122282	-0,031898	2020-10-13T22:56:26:405
-0,025389	0,162508	-0,087069	2020-10-13T22:56:26:427
0,019307	0,033757	-0,046698	2020-10-13T22:56:26:446
0,063790	0,142274	0,017000	2020-10-13T22:56:26:469
0,042001	0,061580	-0,029696	2020-10-13T22:56:26:485
0,027006	0,158681	-0,061739	2020-10-13T22:56:26:507
0,034590	0,320254	-0,064818	2020-10-13T22:56:26:525
-0,011266	0,380741	-0,075015	2020-10-13T22:56:26:549
0,038620	0,279861	-0,065461	2020-10-13T22:56:26:565
-0,014473	0,507520	-0,054936	2020-10-13T22:56:26:588
0,026466	0,573676	-0,084379	2020-10-13T22:56:26:605
-0,013458	1,150776	-0,010125	2020-10-13T22:56:26:629
-0,044199	1,026161	0,007523	2020-10-13T22:56:26:645
0,036181	0,560680	0,007354	2020-10-13T22:56:26:668
0,004618	1,997372	0,066378	2020-10-13T22:56:26:685
0,028009	4,163431	0,709108	2020-10-13T22:56:26:709
0,037280	-1,583463	0,122783	2020-10-13T22:56:26:725
0,053222	-0,723868	0,078909	2020-10-13T22:56:26:748
0,023258	-0,579685	-0,088011	2020-10-13T22:56:26:765
-0,022171	-0,403162	-0,027426	2020-10-13T22:56:26:789
-0,019162	-0,250541	-0,043469	2020-10-13T22:56:26:805
-0,009481	-0,183602	-0,003462	2020-10-13T22:56:26:829
0,008606	-0,313287	-0,025028	2020-10-13T22:56:26:845
0,018575	-0,486813	-0,028048	2020-10-13T22:56:26:869
0,016397	-0,390006	-0,101233	2020-10-13T22:56:26:885
-0,002231	-0,072581	-0,027673	2020-10-13T22:56:26:908
0,001964	-0,026866	-0,022005	2020-10-13T22:56:26:925
0,022144	-0,106984	-0,049255	2020-10-13T22:56:26:950
-0,003700	-0,253940	-0,051576	2020-10-13T22:56:26:966
-0,023158	-0,135480	-0,040312	2020-10-13T22:56:26:989
-0,029715	-0,157173	-0,013517	2020-10-13T22:56:27:005
-0,026975	-0,260881	-0,057981	2020-10-13T22:56:27:030
0,010161	-0,255994	-0,041561	2020-10-13T22:56:27:045
-0,036204	-0,284820	-0,021571	2020-10-13T22:56:27:070
-0,011118	-0,299488	-0,023487	2020-10-13T22:56:27:085
0,032022	-0,215782	-0,055509	2020-10-13T22:56:27:109
0,003809	-0,211992	-0,088318	2020-10-13T22:56:27:125
0,027059	-0,135113	0,025807	2020-10-13T22:56:27:148
-0,000788	-0,256965	-0,044426	2020-10-13T22:56:27:166
0,018139	-0,130479	-0,052668	2020-10-13T22:56:27:189
-0,033618	-0,048897	-0,052939	2020-10-13T22:56:27:206
-0,011303	-0,160285	-0,040372	2020-10-13T22:56:27:229
0,020232	-0,227540	-0,050331	2020-10-13T22:56:27:245
-0,055195	-0,085626	-0,068288	2020-10-13T22:56:27:270
-0,040397	-0,089885	-0,015429	2020-10-13T22:56:27:285
-0,017568	-0,192072	-0,053238	2020-10-13T22:56:27:309
-0,057540	-0,191678	0,013476	2020-10-13T22:56:27:326
0,034462	-0,099979	-0,053315	2020-10-13T22:56:27:349
-0,013302	-0,100873	-0,041555	2020-10-13T22:56:27:366
-0,020440	-0,188461	-0,031776	2020-10-13T22:56:27:389
-0,007593	-0,159749	-0,060753	2020-10-13T22:56:27:405
-0,021752	-0,087447	-0,099322	2020-10-13T22:56:27:429
-0,006547	0,035294	-0,053642	2020-10-13T22:56:27:446
-0,001807	-0,098659	-0,024412	2020-10-13T22:56:27:469
-0,021339	-0,152460	-0,012383	2020-10-13T22:56:27:489
-0,000905	-0,002676	-0,078223	2020-10-13T22:56:27:513
-0,041583	0,026038	-0,037545	2020-10-13T22:56:27:525
-0,000083	-0,001105	-0,022676	2020-10-13T22:56:27:551
0,019059	-0,046568	-0,046603	2020-10-13T22:56:27:567
-0,000176	-0,003330	-0,071602	2020-10-13T22:56:27:590
0,026145	-0,003330	0,002576	2020-10-13T22:56:27:606
0,041029	-0,037461	-0,029245	2020-10-13T22:56:27:629
-0,030390	-0,130150	-0,067668	2020-10-13T22:56:27:646
-0,012502	-0,026957	-0,019952	2020-10-13T22:56:27:670
-0,007796	-0,001711	-0,014994	2020-10-13T22:56:27:686
-0,033516	-0,157790	-0,036507	2020-10-13T22:56:27:709
-0,036236	-0,044223	-0,051283	2020-10-13T22:56:27:726
-0,041846	-0,085220	-0,070418	2020-10-13T22:56:27:750
-0,042955	-0,027797	-0,017667	2020-10-13T22:56:27:766
-0,000275	-0,003131	-0,069936	2020-10-13T22:56:27:792
0,021260	-0,067737	-0,022079	2020-10-13T22:56:27:806
-0,028492	-0,071668	-0,035566	2020-10-13T22:56:27:830
-0,043675	-0,007926	-0,059566	2020-10-13T22:56:27:845
0,006225	-0,012899	-0,033154	2020-10-13T22:56:27:870
0,007899	-0,041556	-0,109624	2020-10-13T22:56:27:886
-0,059177	0,005237	-0,061822	2020-10-13T22:56:27:910
-0,049046	0,002714	-0,100021	2020-10-13T22:56:27:926
-0,040557	0,037721	-0,047153	2020-10-13T22:56:27:949
0,011122	-0,086176	-0,011089	2020-10-13T22:56:27:967
0,016976	-0,067394	-0,032703	2020-10-13T22:56:27:990
0,029748	-0,008878	-0,018381	2020-10-13T22:56:28:006
-0,000192	-0,001052	-0,026201	2020-10-13T22:56:28:032
0,045271	0,049197	-0,045343	2020-10-13T22:56:28:047
-0,128969	-0,061298	-0,046779	2020-10-13T22:56:28:072
-0,033745	-0,086658	-0,082799	2020-10-13T22:56:28:092
-0,082832	-0,017885	-0,080503	2020-10-13T22:56:28:109
-0,110406	-0,075249	-0,008650	2020-10-13T22:56:28:126
-0,024308	-0,106780	-0,082862	2020-10-13T22:56:28:150
-0,083444	-0,036093	-0,039970	2020-10-13T22:56:28:167
-0,053414	-0,044465	-0,023205	2020-10-13T22:56:28:189
-0,041648	0,012193	-0,090191	2020-10-13T22:56:28:206
-0,066609	0,013622	-0,042192	2020-10-13T22:56:28:231
-0,047520	-0,071563	0,008215	2020-10-13T22:56:28:246
-0,038703	-0,034688	-0,025348	2020-10-13T22:56:28:271
0,001178	-0,029981	0,022497	2020-10-13T22:56:28:287
-0,068642	0,012509	-0,099505	2020-10-13T22:56:28:310
-0,053683	-0,086211	-0,006070	2020-10-13T22:56:28:326
-0,041292	-0,061501	-0,054104	2020-10-13T22:56:28:350
-0,049228	-0,134422	-0,030251	2020-10-13T22:56:28:367
-0,008621	-0,046349	-0,035259	2020-10-13T22:56:28:390
-0,029423	-0,042428	-0,011408	2020-10-13T22:56:28:407
-0,085021	-0,009333	0,026769	2020-10-13T22:56:28:430
-0,082346	-0,183209	-0,078705	2020-10-13T22:56:28:446
-0,081778	-0,026522	-0,105447	2020-10-13T22:56:28:471
-0,077032	0,010938	-0,007338	2020-10-13T22:56:28:486
0,014003	-0,053775	-0,105128	2020-10-13T22:56:28:511
-0,009042	-0,152945	-0,123749	2020-10-13T22:56:28:527
-0,030044	-0,062594	-0,047024	2020-10-13T22:56:28:550
0,015134	-0,000378	-0,032207	2020-10-13T22:56:28:567
-0,056977	-0,033335	0,006777	2020-10-13T22:56:28:590
0,009226	0,007038	-0,066916	2020-10-13T22:56:28:607
-0,044283	-0,005296	-0,009094	2020-10-13T22:56:28:631
-0,027839	-0,009838	-0,080659	2020-10-13T22:56:28:647
-0,036500	-0,014085	-0,116336	2020-10-13T22:56:28:670
-0,001549	-0,081393	-0,044419	2020-10-13T22:56:28:687
-0,016249	-0,076796	-0,046926	2020-10-13T22:56:28:711
-0,015264	-0,017787	-0,073462	2020-10-13T22:56:28:727
-0,101194	0,032030	-0,042209	2020-10-13T22:56:28:751
-0,034693	0,040080	-0,001226	2020-10-13T22:56:28:768
0,018510	0,001829	-0,053361	2020-10-13T22:56:28:791
-0,076150	-0,071052	-0,036414	2020-10-13T22:56:28:807
0,020422	-0,083395	-0,007569	2020-10-13T22:56:28:830
0,035822	-0,025830	-0,017271	2020-10-13T22:56:28:847
-0,032816	-0,045265	-0,043565	2020-10-13T22:56:28:871
-0,026968	-0,079858	-0,040988	2020-10-13T22:56:28:887
0,009867	-0,010927	-0,072076	2020-10-13T22:56:28:910
-0,026958	0,072958	-0,011992	2020-10-13T22:56:28:927
-0,037977	-0,068232	-0,076204	2020-10-13T22:56:28:951
0,009091	-0,111035	-0,006837	2020-10-13T22:56:28:968
-0,042037	-0,099260	-0,081266	2020-10-13T22:56:28:991
0,069772	-0,063264	-0,064533	2020-10-13T22:56:29:007
-0,082207	-0,063931	-0,038285	2020-10-13T22:56:29:031
-0,023735	-0,037051	-0,054822	2020-10-13T22:56:29:047
-0,034683	-0,082241	-0,023736	2020-10-13T22:56:29:071
-0,033051	-0,053820	-0,059755	2020-10-13T22:56:29:087
0,013267	-0,092324	0,002599	2020-10-13T22:56:29:111
-0,022216	-0,143612	-0,064331	2020-10-13T22:56:29:128
0,013402	-0,034695	-0,009230	2020-10-13T22:56:29:150
-0,033063	-0,024074	-0,068969	2020-10-13T22:56:29:168
-0,015980	-0,053067	-0,001549	2020-10-13T22:56:29:192
-0,070389	-0,191433	0,019959	2020-10-13T22:56:29:207
0,008892	-0,034807	0,005797	2020-10-13T22:56:29:231
-0,009370	-0,109663	-0,039343	2020-10-13T22:56:29:248
-0,005210	-0,067862	-0,024909	2020-10-13T22:56:29:272
0,006758	-0,171148	-0,027417	2020-10-13T22:56:29:287
-0,001086	-0,025278	-0,037528	2020-10-13T22:56:29:310
-0,005727	0,005469	-0,049473	2020-10-13T22:56:29:328
-0,037131	-0,139467	0,001130	2020-10-13T22:56:29:351
0,019295	-0,123828	-0,020488	2020-10-13T22:56:29:368
-0,009216	-0,131200	-0,037350	2020-10-13T22:56:29:390
-0,016309	-0,051057	-0,030375	2020-10-13T22:56:29:408
0,012329	0,015896	-0,054029	2020-10-13T22:56:29:432
-0,032286	-0,099288	0,015806	2020-10-13T22:56:29:447
-0,000217	-0,001405	-0,031680	2020-10-13T22:56:29:474
-0,028931	0,077558	-0,012537	2020-10-13T22:56:29:488
0,057669	-0,156032	-0,053560	2020-10-13T22:56:29:511
0,003699	-0,063575	-0,032647	2020-10-13T22:56:29:528
0,057953	-0,093100	-0,027810	2020-10-13T22:56:29:551
0,009044	-0,040237	-0,028076	2020-10-13T22:56:29:568
-0,010799	-0,072942	-0,008975	2020-10-13T22:56:29:591
0,056345	-0,092731	-0,047359	2020-10-13T22:56:29:608
-0,035150	-0,005974	-0,026242	2020-10-13T22:56:29:631
-0,041067	-0,090333	-0,064368	2020-10-13T22:56:29:648
0,029905	-0,085210	-0,030896	2020-10-13T22:56:29:672
0,040278	-0,129166	-0,036022	2020-10-13T22:56:29:688
-0,000119	-0,000837	-0,016141	2020-10-13T22:56:29:714
-0,019261	-0,137228	-0,032890	2020-10-13T22:56:29:728
-0,025359	0,036909	-0,053867	2020-10-13T22:56:29:752
-0,012349	0,161374	-0,046593	2020-10-13T22:56:29:768
0,003813	0,023536	-0,058072	2020-10-13T22:56:29:791
-0,006337	-0,094664	-0,077169	2020-10-13T22:56:29:808
-0,030250	0,002235	0,011102	2020-10-13T22:56:29:832
-0,034271	0,040667	-0,062981	2020-10-13T22:56:29:849
-0,021655	-0,044973	-0,065189	2020-10-13T22:56:29:871
0,012467	-0,048112	-0,034160	2020-10-13T22:56:29:889
-0,001416	0,003431	-0,086740	2020-10-13T22:56:29:912
0,024104	0,019217	-0,007623	2020-10-13T22:56:29:928
0,000016	-0,001568	-0,032637	2020-10-13T22:56:29:953
0,045480	-0,008746	-0,099636	2020-10-13T22:56:29:969
0,024849	-0,100827	-0,045897	2020-10-13T22:56:29:992
0,053638	-0,076583	-0,036332	2020-10-13T22:56:30:008
-0,003004	-0,061340	-0,029057	2020-10-13T22:56:30:032
0,001453	0,010218	-0,033830	2020-10-13T22:56:30:048
-0,056804	-0,078928	-0,047909	2020-10-13T22:56:30:072
0,016891	-0,064718	-0,081166	2020-10-13T22:56:30:095
0,052972	-0,212834	-0,014045	2020-10-13T22:56:30:111
-0,001684	-0,163142	-0,005270	2020-10-13T22:56:30:129
0,024272	-0,104051	-0,015276	2020-10-13T22:56:30:153
0,059755	-0,068563	-0,039168	2020-10-13T22:56:30:169
0,041548	-0,001006	-0,027207	2020-10-13T22:56:30:194
0,005357	-0,123487	-0,024657	2020-10-13T22:56:30:209
-0,034372	-0,148675	-0,084641	2020-10-13T22:56:30:232
-0,016796	-0,100619	-0,068024	2020-10-13T22:56:30:248
0,023829	-0,069946	-0,048859	2020-10-13T22:56:30:272
-0,043356	-0,073958	-0,019932	2020-10-13T22:56:30:288
-0,070475	0,006283	0,001766	2020-10-13T22:56:30:312
-0,004043	-0,050010	-0,055133	2020-10-13T22:56:30:330
0,045707	-0,179053	-0,040781	2020-10-13T22:56:30:352
0,030451	-0,145391	-0,038971	2020-10-13T22:56:30:369
0,006406	-0,042778	-0,053647	2020-10-13T22:56:30:393
0,000760	0,003674	-0,055964	2020-10-13T22:56:30:409
-0,069311	-0,083358	-0,070157	2020-10-13T22:56:30:433
-0,038336	-0,121283	-0,089216	2020-10-13T22:56:30:449
-0,005393	-0,087759	0,001462	2020-10-13T22:56:30:473
-0,006202	-0,015551	-0,032052	2020-10-13T22:56:30:489
-0,008859	-0,052930	-0,051121	2020-10-13T22:56:30:512
-0,027805	-0,058065	-0,079935	2020-10-13T22:56:30:529
0,004355	-0,114576	-0,075202	2020-10-13T22:56:30:552
0,055664	-0,082993	-0,003547	2020-10-13T22:56:30:569
0,025267	-0,049443	-0,039526	2020-10-13T22:56:30:592
0,085091	-0,171399	-0,044296	2020-10-13T22:56:30:609
0,042582	-0,115757	-0,059327	2020-10-13T22:56:30:634
-0,024167	-0,057491	0,004928	2020-10-13T22:56:30:650
0,038628	0,025561	-0,059651	2020-10-13T22:56:30:673
0,034051	-0,080272	-0,057104	2020-10-13T22:56:30:689
-0,012807	-0,097976	-0,054984	2020-10-13T22:56:30:713
0,040935	-0,053329	-0,031353	2020-10-13T22:56:30:728
0,039211	-0,002533	0,006817	2020-10-13T22:56:30:752
-0,058734	-0,092719	0,009303	2020-10-13T22:56:30:769
0,034852	-0,160194	-0,093698	2020-10-13T22:56:30:793
-0,046011	-0,048755	-0,048697	2020-10-13T22:56:30:809
0,071426	-0,030209	-0,058369	2020-10-13T22:56:30:832
-0,045095	0,023476	0,039831	2020-10-13T22:56:30:848
-0,076120	0,010083	-0,084556	2020-10-13T22:56:30:874
-0,031509	-0,040776	-0,077385	2020-10-13T22:56:30:889
0,004594	-0,117335	-0,008223	2020-10-13T22:56:30:913
-0,022700	0,052468	-0,075415	2020-10-13T22:56:30:929
-0,005236	0,003362	-0,034587	2020-10-13T22:56:30:953
0,037931	-0,070474	-0,034602	2020-10-13T22:56:30:969
-0,029106	-0,134752	-0,068299	2020-10-13T22:56:30:993
-0,047583	0,003825	-0,068498	2020-10-13T22:56:31:009
-0,014618	0,114762	-0,022885	2020-10-13T22:56:31:033
0,016514	0,026826	-0,029680	2020-10-13T22:56:31:050
0,005938	-0,199987	-0,106161	2020-10-13T22:56:31:073
-0,034601	-0,045885	-0,008708	2020-10-13T22:56:31:089
-0,039874	0,075397	0,029492	2020-10-13T22:56:31:114
-0,028601	0,007661	-0,046860	2020-10-13T22:56:31:129
-0,026955	0,008469	-0,010913	2020-10-13T22:56:31:154
0,027443	-0,011276	-0,058758	2020-10-13T22:56:31:170
-0,010338	-0,130439	-0,080197	2020-10-13T22:56:31:193
0,039780	0,024495	-0,101910	2020-10-13T22:56:31:210
0,018687	-0,017475	-0,017988	2020-10-13T22:56:31:233
0,031831	0,050225	-0,015514	2020-10-13T22:56:31:249
0,005970	0,014974	-0,012927	2020-10-13T22:56:31:274
0,015109	-0,045165	-0,036838	2020-10-13T22:56:31:290
-0,009722	-0,138170	-0,075233	2020-10-13T22:56:31:313
-0,079035	0,045661	-0,022879	2020-10-13T22:56:31:330
0,008038	-0,007413	-0,034751	2020-10-13T22:56:31:354
-0,062407	-0,111346	-0,020341	2020-10-13T22:56:31:370
0,036361	0,086414	-0,042068	2020-10-13T22:56:31:394
0,020133	-0,018814	-0,010745	2020-10-13T22:56:31:410
-0,002509	-0,158367	-0,051483	2020-10-13T22:56:31:433
0,037964	-0,133907	-0,042336	2020-10-13T22:56:31:450
-0,040901	-0,029782	-0,083340	2020-10-13T22:56:31:473
0,049694	0,010990	-0,040291	2020-10-13T22:56:31:490
-0,048241	0,016815	-0,040216	2020-10-13T22:56:31:513
-0,000680	-0,068680	-0,042555	2020-10-13T22:56:31:530
0,028180	-0,046010	-0,006807	2020-10-13T22:56:31:553
0,011923	-0,062059	-0,064247	2020-10-13T22:56:31:570
0,005907	0,024695	-0,030763	2020-10-13T22:56:31:594
-0,052292	-0,056064	-0,066478	2020-10-13T22:56:31:610
-0,023832	0,036627	0,002921	2020-10-13T22:56:31:634
0,002263	-0,052371	-0,013827	2020-10-13T22:56:31:650
-0,052760	-0,078544	-0,095288	2020-10-13T22:56:31:674
0,024144	0,064502	-0,071458	2020-10-13T22:56:31:690
-0,023310	0,022037	-0,035280	2020-10-13T22:56:31:713
0,046913	-0,060993	-0,020862	2020-10-13T22:56:31:730
0,039522	-0,029363	-0,047280	2020-10-13T22:56:31:754
-0,046579	-0,104424	-0,020904	2020-10-13T22:56:31:771
-0,042376	-0,001073	-0,037687	2020-10-13T22:56:31:793
-0,055299	0,052277	-0,085387	2020-10-13T22:56:31:810
-0,002848	-0,045616	-0,001466	2020-10-13T22:56:31:834
-0,041303	-0,086452	-0,051706	2020-10-13T22:56:31:850
-0,000081	-0,002497	-0,065529	2020-10-13T22:56:31:876
0,105204	0,035788	-0,022459	2020-10-13T22:56:31:890
-0,056434	-0,007874	-0,015112	2020-10-13T22:56:31:914
-0,046488	-0,020359	-0,089301	2020-10-13T22:56:31:931
-0,060836	-0,105736	-0,017579	2020-10-13T22:56:31:954
0,006413	-0,030981	-0,067987	2020-10-13T22:56:31:971
-0,018297	-0,071892	-0,015326	2020-10-13T22:56:31:994
-0,060928	0,042457	0,008518	2020-10-13T22:56:32:011
-0,000882	-0,043460	0,010971	2020-10-13T22:56:32:033
-0,139804	-0,088951	-0,092018	2020-10-13T22:56:32:050
-0,075103	0,003533	-0,044311	2020-10-13T22:56:32:076
0,008780	-0,048322	-0,005885	2020-10-13T22:56:32:090
-0,040071	-0,039735	-0,010719	2020-10-13T22:56:32:116
-0,043062	-0,073673	-0,094570	2020-10-13T22:56:32:131
-0,043371	0,018396	-0,018168	2020-10-13T22:56:32:154
-0,055903	-0,012352	-0,042031	2020-10-13T22:56:32:171
-0,058214	-0,054456	-0,058746	2020-10-13T22:56:32:193
0,008627	-0,089855	-0,032469	2020-10-13T22:56:32:211
0,026902	-0,018129	-0,063764	2020-10-13T22:56:32:234
-0,003594	-0,130244	0,000846	2020-10-13T22:56:32:251
-0,041789	-0,054008	-0,059256	2020-10-13T22:56:32:274
-0,053816	-0,047244	-0,021075	2020-10-13T22:56:32:291
-0,115671	-0,119572	-0,035533	2020-10-13T22:56:32:315
0,026518	-0,006143	-0,069126	2020-10-13T22:56:32:331
0,003244	-0,020266	-0,078594	2020-10-13T22:56:32:355
-0,040451	-0,033665	0,017182	2020-10-13T22:56:32:371
0,004222	0,037361	-0,056978	2020-10-13T22:56:32:394
0,025157	0,007279	-0,047248	2020-10-13T22:56:32:411
0,004241	-0,010026	-0,068646	2020-10-13T22:56:32:434
-0,053673	-0,048586	0,019904	2020-10-13T22:56:32:451
-0,067193	0,018481	-0,018512	2020-10-13T22:56:32:475
-0,006812	0,008654	-0,039966	2020-10-13T22:56:32:491
0,026509	-0,072697	-0,013543	2020-10-13T22:56:32:514
-0,044428	-0,062164	-0,095025	2020-10-13T22:56:32:531
-0,040291	-0,009409	-0,008903	2020-10-13T22:56:32:555
-0,093761	-0,007332	-0,030340	2020-10-13T22:56:32:572
-0,015815	0,050394	-0,054112	2020-10-13T22:56:32:596
-0,046758	-0,039436	-0,049070	2020-10-13T22:56:32:611
-0,040314	-0,025085	-0,008304	2020-10-13T22:56:32:635
-0,024568	-0,024774	-0,084795	2020-10-13T22:56:32:651
-0,042787	-0,148034	-0,075179	2020-10-13T22:56:32:674
-0,026962	-0,058933	-0,051389	2020-10-13T22:56:32:691
-0,026403	0,021030	-0,051333	2020-10-13T22:56:32:715
-0,028895	-0,078803	-0,015159	2020-10-13T22:56:32:731
-0,070869	-0,019592	-0,041565	2020-10-13T22:56:32:754
-0,005587	-0,043332	-0,022349	2020-10-13T22:56:32:771
0,048733	-0,031060	0,001677	2020-10-13T22:56:32:795
0,015060	-0,121181	-0,039020	2020-10-13T22:56:32:811
-0,003052	-0,039083	-0,034463	2020-10-13T22:56:32:835
-0,015606	-0,013110	-0,065551	2020-10-13T22:56:32:851
0,041691	-0,039077	-0,046318	2020-10-13T22:56:32:875
0,034485	-0,089996	-0,036803	2020-10-13T22:56:32:891
-0,046769	-0,040037	-0,020229	2020-10-13T22:56:32:914
-0,021366	-0,022504	-0,089563	2020-10-13T22:56:32:931
-0,057295	-0,063139	0,011037	2020-10-13T22:56:32:955
-0,011760	-0,123905	-0,029723	2020-10-13T22:56:32:972
-0,061875	-0,026874	0,001122	2020-10-13T22:56:32:994
0,009561	-0,027394	-0,005948	2020-10-13T22:56:33:011
0,006040	-0,058682	-0,116002	2020-10-13T22:56:33:036
-0,011625	-0,045185	0,003580	2020-10-13T22:56:33:051
0,019742	-0,060974	-0,022784	2020-10-13T22:56:33:075
-0,032719	-0,063352	0,017911	2020-10-13T22:56:33:092
-0,007824	-0,058305	0,005928	2020-10-13T22:56:33:115
0,008520	-0,058122	-0,015613	2020-10-13T22:56:33:131
-0,000491	-0,001935	-0,057089	2020-10-13T22:56:33:155
0,042580	-0,009113	-0,059481	2020-10-13T22:56:33:172
-0,108961	0,007097	-0,037517	2020-10-13T22:56:33:195
-0,073455	0,024437	-0,099729	2020-10-13T22:56:33:212
-0,101692	-0,020864	-0,018336	2020-10-13T22:56:33:234
0,001159	0,002842	-0,035139	2020-10-13T22:56:33:251
-0,103169	0,040515	0,010446	2020-10-13T22:56:33:276
0,035892	-0,014980	-0,097198	2020-10-13T22:56:33:291
-0,013126	-0,003650	-0,042210	2020-10-13T22:56:33:317
-0,078765	0,080028	-0,008804	2020-10-13T22:56:33:332
0,031359	-0,038520	0,005649	2020-10-13T22:56:33:355
-0,043079	-0,105329	-0,073371	2020-10-13T22:56:33:372
-0,091914	-0,097112	-0,059228	2020-10-13T22:56:33:394
-0,099758	0,074712	-0,056950	2020-10-13T22:56:33:411
-0,000430	0,087174	-0,080693	2020-10-13T22:56:33:435
0,034177	-0,013870	-0,066055	2020-10-13T22:56:33:452
-0,056930	-0,019701	-0,001383	2020-10-13T22:56:33:475
0,000353	-0,010495	-0,022932	2020-10-13T22:56:33:492
0,001919	-0,019044	0,003447	2020-10-13T22:56:33:516
-0,032007	0,013769	0,003476	2020-10-13T22:56:33:532
-0,057162	-0,017281	-0,017991	2020-10-13T22:56:33:555
-0,083138	0,010828	-0,070642	2020-10-13T22:56:33:572
-0,022536	-0,013618	-0,044252	2020-10-13T22:56:33:595
-0,003569	-0,056346	-0,036998	2020-10-13T22:56:33:612
-0,020869	-0,050398	-0,041821	2020-10-13T22:56:33:635
0,008065	0,026112	-0,013105	2020-10-13T22:56:33:652
-0,037708	-0,026014	-0,013035	2020-10-13T22:56:33:676
0,014436	-0,051993	-0,036996	2020-10-13T22:56:33:692
-0,045758	0,005800	-0,034698	2020-10-13T22:56:33:715
0,017856	0,001240	-0,046599	2020-10-13T22:56:33:732
-0,023924	0,003090	-0,008283	2020-10-13T22:56:33:756
-0,025607	-0,079273	-0,008254	2020-10-13T22:56:33:772
0,001575	-0,051942	-0,049064	2020-10-13T22:56:33:795
-0,067984	-0,008397	0,001085	2020-10-13T22:56:33:812
-0,005067	-0,049888	-0,065917	2020-10-13T22:56:33:836
0,006814	-0,015375	-0,065952	2020-10-13T22:56:33:852
0,012941	-0,074039	-0,077862	2020-10-13T22:56:33:875
-0,038304	0,018249	-0,003807	2020-10-13T22:56:33:892
-0,000182	-0,000723	-0,028656	2020-10-13T22:56:33:916
0,035710	0,063884	-0,074120	2020-10-13T22:56:33:933
0,013364	0,002812	-0,033548	2020-10-13T22:56:33:955
0,002822	0,075256	-0,002376	2020-10-13T22:56:33:972
-0,045425	0,001601	-0,059660	2020-10-13T22:56:33:996
-0,002195	0,011392	-0,047729	2020-10-13T22:56:34:012
0,012548	-0,032039	-0,014222	2020-10-13T22:56:34:037
0,002650	0,015318	-0,047780	2020-10-13T22:56:34:052
0,009433	0,070861	-0,062071	2020-10-13T22:56:34:077
-0,007647	0,014280	-0,018868	2020-10-13T22:56:34:092
-0,004539	0,011917	-0,023662	2020-10-13T22:56:34:115
-0,021122	-0,005151	-0,002117	2020-10-13T22:56:34:134
-0,029615	0,015991	-0,069115	2020-10-13T22:56:34:156
-0,019035	0,053993	-0,052285	2020-10-13T22:56:34:173
0,022279	-0,054597	-0,042609	2020-10-13T22:56:34:195
-0,064974	0,008918	-0,006829	2020-10-13T22:56:34:212
0,010273	-0,035350	-0,064332	2020-10-13T22:56:34:237
-0,004584	-0,004065	-0,054841	2020-10-13T22:56:34:252
-0,038042	-0,033166	-0,011758	2020-10-13T22:56:34:277
-0,083769	-0,036767	-0,064460	2020-10-13T22:56:34:293
-0,050700	-0,088628	-0,062133	2020-10-13T22:56:34:316
0,011898	-0,023184	0,002342	2020-10-13T22:56:34:332
-0,047201	0,014575	-0,057368	2020-10-13T22:56:34:355
0,001699	-0,077207	0,016988	2020-10-13T22:56:34:373
-0,056848	-0,013333	-0,066726	2020-10-13T22:56:34:396
0,029411	0,062368	-0,047496	2020-10-13T22:56:34:414
0,026664	0,071973	-0,044750	2020-10-13T22:56:34:435
-0,049706	0,015782	-0,094686	2020-10-13T22:56:34:452
0,038306	0,014429	-0,022783	2020-10-13T22:56:34:477
0,026543	-0,041364	0,001280	2020-10-13T22:56:34:493
-0,040066	0,051887	0,003694	2020-10-13T22:56:34:517
-0,036281	0,050319	-0,039246	2020-10-13T22:56:34:533
-0,042416	0,010865	-0,003230	2020-10-13T22:56:34:556
-0,034652	0,000671	0,051912	2020-10-13T22:56:34:573
-0,016036	0,035721	-0,022140	2020-10-13T22:56:34:595
0,006424	-0,101569	-0,019607	2020-10-13T22:56:34:613
-0,000024	-0,000131	-0,003542	2020-10-13T22:56:34:636
0,011940	0,169760	-0,001149	2020-10-13T22:56:34:653
0,003768	-0,123452	0,041246	2020-10-13T22:56:34:677
0,033275	-0,400046	0,007329	2020-10-13T22:56:34:693
0,031595	-0,538608	-0,109882	2020-10-13T22:56:34:719
0,017357	-0,331528	0,006745	2020-10-13T22:56:34:733
0,102910	-0,082554	0,048879	2020-10-13T22:56:34:757
0,092511	-0,142115	-0,032361	2020-10-13T22:56:34:775
-0,000458	-0,000324	-0,027543	2020-10-13T22:56:34:798
-0,024387	-0,091251	-0,022758	2020-10-13T22:56:34:813
0,049226	0,102820	-0,031081	2020-10-13T22:56:34:836
-0,036941	0,082321	-0,064539	2020-10-13T22:56:34:854
-0,026604	0,156502	-0,071641	2020-10-13T22:56:34:877
-0,003443	0,067813	-0,054775	2020-10-13T22:56:34:893
0,002009	-0,011106	-0,016443	2020-10-13T22:56:34:916
-0,151443	0,184445	-0,035495	2020-10-13T22:56:34:933
-0,083635	0,229322	-0,037739	2020-10-13T22:56:34:957
-0,071931	0,198446	-0,008782	2020-10-13T22:56:34:974
-0,013352	0,150549	0,017730	2020-10-13T22:56:34:998
-0,080795	0,094696	-0,070650	2020-10-13T22:56:35:017
-0,000322	-0,001001	-0,034629	2020-10-13T22:56:35:042
-0,009894	0,149747	-0,051378	2020-10-13T22:56:35:053
0,054067	-0,111315	0,004900	2020-10-13T22:56:35:085
0,039755	-0,259910	-0,059870	2020-10-13T22:56:35:144
0,012199	-0,220380	-0,041463	2020-10-13T22:56:35:145
0,020315	-0,236400	0,027427	2020-10-13T22:56:35:146
0,094097	-0,333243	0,079577	2020-10-13T22:56:35:157
-0,000155	-0,283350	-0,069705	2020-10-13T22:56:35:173
-0,028477	-0,012335	0,018009	2020-10-13T22:56:35:196
0,048094	0,051745	-0,020198	2020-10-13T22:56:35:324
0,067343	-0,093912	-0,003261	2020-10-13T22:56:35:328
0,020692	-0,450930	-0,032372	2020-10-13T22:56:35:334
-0,035356	-0,208596	-0,038470	2020-10-13T22:56:35:339
-0,024868	-0,026198	-0,046239	2020-10-13T22:56:35:344
0,020078	0,068992	-0,053280	2020-10-13T22:56:35:350
-0,037987	-0,068025	-0,021853	2020-10-13T22:56:35:350
-0,034922	-0,045083	-0,103212	2020-10-13T22:56:35:356
-0,015387	-0,121028	-0,052937	2020-10-13T22:56:35:373
-0,068037	-0,132878	-0,110293	2020-10-13T22:56:35:396
-0,029359	0,094702	-0,040606	2020-10-13T22:56:35:414
-0,074445	0,001429	-0,109337	2020-10-13T22:56:35:437
0,040773	0,015555	-0,025078	2020-10-13T22:56:35:454
-0,001843	0,053290	-0,079401	2020-10-13T22:56:35:478
-0,011312	0,044464	0,036221	2020-10-13T22:56:35:494
-0,060460	0,029836	-0,006117	2020-10-13T22:56:35:518
-0,040507	0,071655	-0,089319	2020-10-13T22:56:35:534
0,015532	0,084249	0,011764	2020-10-13T22:56:35:557
-0,015774	0,166545	-0,009029	2020-10-13T22:56:35:575
0,015884	0,082111	-0,061090	2020-10-13T22:56:35:599
-0,101152	-0,026923	-0,130194	2020-10-13T22:56:35:615
-0,086304	0,076757	-0,061043	2020-10-13T22:56:35:639
-0,068469	0,066280	-0,108921	2020-10-13T22:56:35:654
-0,126281	-0,115428	-0,082653	2020-10-13T22:56:35:679
-0,028574	-0,144010	-0,039881	2020-10-13T22:56:35:694
0,030313	-0,178546	-0,034788	2020-10-13T22:56:35:718
0,021969	-0,053357	-0,012629	2020-10-13T22:56:35:734
-0,000636	0,081831	-0,008887	2020-10-13T22:56:35:758
-0,023360	0,087849	-0,035531	2020-10-13T22:56:35:775
-0,043431	0,227149	-0,024015	2020-10-13T22:56:35:798
0,045145	0,107154	-0,043303	2020-10-13T22:56:35:815
-0,000405	-0,001050	-0,016544	2020-10-13T22:56:35:839
-0,076976	-0,034549	-0,105079	2020-10-13T22:56:35:855
-0,110478	0,304684	-0,067016	2020-10-13T22:56:35:878
-0,050732	0,176744	-0,049232	2020-10-13T22:56:35:895
-0,094763	-0,115029	-0,027120	2020-10-13T22:56:35:919
-0,104292	-0,117113	-0,029918	2020-10-13T22:56:35:935
0,010224	0,146567	0,003481	2020-10-13T22:56:35:959
-0,013998	-0,004933	-0,038571	2020-10-13T22:56:35:975
-0,056881	-0,040408	-0,026483	2020-10-13T22:56:35:999
-0,062083	-0,045220	-0,144110	2020-10-13T22:56:36:015
-0,013694	0,021919	0,008630	2020-10-13T22:56:36:039
0,016967	0,059669	-0,099042	2020-10-13T22:56:36:055
-0,028440	-0,009152	-0,038600	2020-10-13T22:56:36:079
-0,070660	-0,066466	-0,057449	2020-10-13T22:56:36:095
-0,000374	-0,003676	-0,046126	2020-10-13T22:56:36:119
0,011590	0,034610	-0,034162	2020-10-13T22:56:36:135
0,046718	0,008865	-0,070074	2020-10-13T22:56:36:159
0,059868	-0,043172	-0,085882	2020-10-13T22:56:36:175
0,082599	-0,057714	0,005482	2020-10-13T22:56:36:199
0,057040	-0,092342	-0,035262	2020-10-13T22:56:36:215
0,009955	0,016393	0,078944	2020-10-13T22:56:36:240
0,040476	0,008094	-0,010283	2020-10-13T22:56:36:255
0,008671	-0,041238	-0,033223	2020-10-13T22:56:36:279
-0,125177	-0,257128	-0,052342	2020-10-13T22:56:36:295
0,075226	0,016655	-0,057339	2020-10-13T22:56:36:319
0,048790	0,102319	0,015533	2020-10-13T22:56:36:336
-0,000183	-0,001646	-0,022670	2020-10-13T22:56:36:359
-0,002576	-0,193071	-0,060954	2020-10-13T22:56:36:376
0,028497	-0,051382	-0,059675	2020-10-13T22:56:36:399
-0,027248	0,080989	-0,077394	2020-10-13T22:56:36:415
-0,057082	0,130199	-0,168678	2020-10-13T22:56:36:439
-0,052344	-0,062100	-0,142728	2020-10-13T22:56:36:455
0,026999	-0,221750	-0,222118	2020-10-13T22:56:36:480
0,086898	-0,521033	-0,122184	2020-10-13T22:56:36:495
-0,034030	-0,310145	-0,305339	2020-10-13T22:56:36:518
-0,115683	0,700656	-0,098680	2020-10-13T22:56:36:535
-0,017375	1,644981	0,273811	2020-10-13T22:56:36:559
-0,021139	1,252295	0,000396	2020-10-13T22:56:36:576
-0,018685	0,241955	0,032229	2020-10-13T22:56:36:598
0,092825	-0,457483	-0,084585	2020-10-13T22:56:36:615
-0,000966	-0,001686	-0,071414	2020-10-13T22:56:36:640
-0,079929	0,003100	-0,164734	2020-10-13T22:56:36:656
-0,031873	-0,186631	-0,055270	2020-10-13T22:56:36:680
0,040921	0,200050	-0,039055	2020-10-13T22:56:36:696
0,108004	0,210762	-0,026583	2020-10-13T22:56:36:719
0,093140	0,290848	-0,061560	2020-10-13T22:56:36:736
0,107144	-0,120478	-0,096411	2020-10-13T22:56:36:758
0,121954	-0,168796	0,006628	2020-10-13T22:56:36:775
0,078453	0,296057	-0,047798	2020-10-13T22:56:36:799
-0,064834	0,485245	-0,081677	2020-10-13T22:56:36:816
-0,058666	0,419673	-0,077003	2020-10-13T22:56:36:839
0,142701	0,094452	0,026170	2020-10-13T22:56:36:855
-0,024869	0,225392	-0,142319	2020-10-13T22:56:36:880
0,037242	0,524022	-0,055321	2020-10-13T22:56:36:896
0,045793	0,640118	-0,087558	2020-10-13T22:56:36:920
0,027673	0,524742	-0,112397	2020-10-13T22:56:36:936
-0,067639	0,525367	-0,063314	2020-10-13T22:56:36:960
0,015492	0,733695	-0,048936	2020-10-13T22:56:36:976
-0,019125	0,742769	-0,062757	2020-10-13T22:56:36:999
0,056041	0,868944	-0,026836	2020-10-13T22:56:37:016
-0,100239	0,756979	-0,267357	2020-10-13T22:56:37:040
-0,117998	0,621819	-0,211885	2020-10-13T22:56:37:056
-0,083401	0,806544	-0,173293	2020-10-13T22:56:37:084
-0,148361	0,654470	-0,226922	2020-10-13T22:56:37:098
-0,151388	0,250685	-0,106343	2020-10-13T22:56:37:120
-0,060012	0,018599	-0,067769	2020-10-13T22:56:37:136
-0,000455	-0,007241	-0,030149	2020-10-13T22:56:37:161
-0,177524	0,177006	-0,006221	2020-10-13T22:56:37:177
0,097555	0,102811	-0,032518	2020-10-13T22:56:37:200
0,201874	0,416113	-0,107453	2020-10-13T22:56:37:216
0,263172	0,968009	-0,313627	2020-10-13T22:56:37:239
0,108879	4,234035	0,040992	2020-10-13T22:56:37:256
0,131566	-1,900316	0,350664	2020-10-13T22:56:37:280
0,061546	-0,641629	0,167764	2020-10-13T22:56:37:296
0,305168	0,199980	0,119741	2020-10-13T22:56:37:319
0,268565	-0,226263	0,035794	2020-10-13T22:56:37:336
0,172210	-0,345122	0,048765	2020-10-13T22:56:37:361
0,223772	-0,480291	0,089240	2020-10-13T22:56:37:376
0,115822	-0,279655	-0,018988	2020-10-13T22:56:37:401
-0,075814	0,355023	-0,134781	2020-10-13T22:56:37:416
0,148290	1,239412	-0,220060	2020-10-13T22:56:37:441
0,071534	1,414279	-0,068921	2020-10-13T22:56:37:456
0,122585	0,650058	-0,114232	2020-10-13T22:56:37:480
0,044047	-0,535734	-0,033206	2020-10-13T22:56:37:496
-0,038408	-0,648168	-0,058164	2020-10-13T22:56:37:520
0,021507	-0,026897	0,080157	2020-10-13T22:56:37:537
-0,001313	-0,006317	-0,055952	2020-10-13T22:56:37:560
-0,058741	0,474640	-0,072701	2020-10-13T22:56:37:577
0,013051	-0,231580	-0,029730	2020-10-13T22:56:37:601
0,276783	-0,481323	0,001342	2020-10-13T22:56:37:616
0,137049	-0,551499	0,015377	2020-10-13T22:56:37:641
0,024886	-0,566762	0,057892	2020-10-13T22:56:37:657
0,010208	-0,213230	0,045373	2020-10-13T22:56:37:681
0,019700	0,037280	0,043991	2020-10-13T22:56:37:696
0,139680	-0,369228	0,001138	2020-10-13T22:56:37:720
0,197627	-0,304434	-0,044842	2020-10-13T22:56:37:741
0,059264	0,070847	-0,021943	2020-10-13T22:56:37:761
0,305203	0,108612	-0,344608	2020-10-13T22:56:37:777
0,087545	0,211340	-0,035776	2020-10-13T22:56:37:800
0,419155	-0,160639	-0,002665	2020-10-13T22:56:37:816
0,000119	-0,000515	-0,002614	2020-10-13T22:56:37:842
0,289651	-0,562828	0,088314	2020-10-13T22:56:37:856
-0,204747	-0,341570	-0,118946	2020-10-13T22:56:37:881
-0,100259	-0,364406	-0,112373	2020-10-13T22:56:37:897
0,159138	-0,145740	0,014223	2020-10-13T22:56:37:921
0,297781	-0,164268	-0,017080	2020-10-13T22:56:37:937
0,000394	-0,019004	-0,157824	2020-10-13T22:56:37:961
-0,090533	0,067138	-0,098003	2020-10-13T22:56:37:977
0,122140	0,177832	-0,008781	2020-10-13T22:56:38:001
0,053872	-0,097433	-0,167237	2020-10-13T22:56:38:017
-0,094093	0,383621	-0,117842	2020-10-13T22:56:38:041
-0,105568	0,588528	-0,025335	2020-10-13T22:56:38:057
-0,015016	0,563864	-0,039392	2020-10-13T22:56:38:083
0,004019	0,165395	-0,090794	2020-10-13T22:56:38:103
-0,066153	-0,030629	-0,071482	2020-10-13T22:56:38:121
0,108725	-0,216365	0,125661	2020-10-13T22:56:38:137
-0,000483	-0,020836	-0,193081	2020-10-13T22:56:38:162
-0,239766	0,038985	-0,068654	2020-10-13T22:56:38:177
0,119133	0,435769	-0,020427	2020-10-13T22:56:38:201
0,158692	0,284354	-0,047954	2020-10-13T22:56:38:217
0,199440	-0,005922	-0,053403	2020-10-13T22:56:38:241
0,061348	-0,228747	-0,118869	2020-10-13T22:56:38:257
0,008354	-0,076841	-0,056403	2020-10-13T22:56:38:281
0,125285	0,089286	0,023349	2020-10-13T22:56:38:297
0,148948	0,079301	-0,035396	2020-10-13T22:56:38:322
0,039236	0,369797	-0,153357	2020-10-13T22:56:38:337
0,042070	0,138193	-0,093413	2020-10-13T22:56:38:361
0,143275	-0,033311	0,014847	2020-10-13T22:56:38:378
0,114208	-0,062366	-0,059814	2020-10-13T22:56:38:401
0,075781	-0,038930	-0,071681	2020-10-13T22:56:38:417
0,000045	-0,000432	-0,003852	2020-10-13T22:56:38:441
0,050295	0,100067	0,015290	2020-10-13T22:56:38:457
-0,023270	-0,173794	-0,094867	2020-10-13T22:56:38:482
0,038349	-0,042198	0,057018	2020-10-13T22:56:38:497
0,024156	0,053591	-0,035098	2020-10-13T22:56:38:521
-0,113828	0,107919	-0,037701	2020-10-13T22:56:38:537
0,006275	-0,061086	-0,012482	2020-10-13T22:56:38:562
0,101574	-0,417106	-0,047057	2020-10-13T22:56:38:578
0,096278	-0,471092	-0,036334	2020-10-13T22:56:38:601
0,049829	-0,120185	-0,104010	2020-10-13T22:56:38:618
-0,072851	-0,066374	-0,017161	2020-10-13T22:56:38:642
-0,063931	0,094468	-0,062760	2020-10-13T22:56:38:657
0,000604	-0,006540	-0,046010	2020-10-13T22:56:38:682
0,077174	-0,023290	-0,053188	2020-10-13T22:56:38:697
-0,014229	-0,145867	-0,005073	2020-10-13T22:56:38:722
-0,024412	-0,063147	-0,057254	2020-10-13T22:56:38:738
-0,035088	0,149314	0,028644	2020-10-13T22:56:38:761
0,022638	0,176201	-0,011942	2020-10-13T22:56:38:777
0,002104	0,233952	-0,050399	2020-10-13T22:56:38:802
0,036034	0,251996	0,001307	2020-10-13T22:56:38:818
-0,041327	0,276902	0,003143	2020-10-13T22:56:38:842
-0,120539	0,181368	-0,014391	2020-10-13T22:56:38:858
-0,118016	-0,089688	-0,080021	2020-10-13T22:56:38:882
-0,082632	-0,119304	0,028339	2020-10-13T22:56:38:897
-0,036614	-0,016481	-0,039466	2020-10-13T22:56:38:921
-0,070976	0,128658	0,062047	2020-10-13T22:56:38:938
0,011461	0,255880	-0,007469	2020-10-13T22:56:38:962
-0,012205	0,025889	-0,009461	2020-10-13T22:56:38:978
0,035464	-0,062584	0,011894	2020-10-13T22:56:39:001
0,041434	-0,261142	0,057626	2020-10-13T22:56:39:017
-0,030532	-0,402210	-0,046658	2020-10-13T22:56:39:043
-0,003146	-0,432363	-0,004679	2020-10-13T22:56:39:059
-0,059975	-0,165041	0,027274	2020-10-13T22:56:39:083
-0,051447	-0,148988	0,002456	2020-10-13T22:56:39:099
-0,003934	-0,193837	-0,033086	2020-10-13T22:56:39:122
-0,042377	-0,338929	-0,030229	2020-10-13T22:56:39:138
-0,057220	-0,421863	-0,098463	2020-10-13T22:56:39:162
0,002542	-0,153021	-0,041165	2020-10-13T22:56:39:179
-0,008577	0,035612	-0,126094	2020-10-13T22:56:39:202
-0,048795	0,345979	-0,071242	2020-10-13T22:56:39:219
0,076610	0,303767	-0,092392	2020-10-13T22:56:39:242
0,024420	0,133389	-0,069163	2020-10-13T22:56:39:258
0,016247	-0,001322	-0,103444	2020-10-13T22:56:39:283
-0,068706	0,009460	-0,067513	2020-10-13T22:56:39:298
0,000293	-0,011291	-0,107343	2020-10-13T22:56:39:324
0,060113	0,031780	-0,102557	2020-10-13T22:56:39:338
0,016002	0,132124	-0,105772	2020-10-13T22:56:39:362
0,061134	0,136597	0,050089	2020-10-13T22:56:39:379
0,043241	0,081874	0,035770	2020-10-13T22:56:39:402
-0,148547	-0,128894	0,056087	2020-10-13T22:56:39:418
-0,025147	-0,357522	0,009647	2020-10-13T22:56:39:443
-0,054939	-0,232988	0,009624	2020-10-13T22:56:39:458
0,027836	-0,316831	-0,030143	2020-10-13T22:56:39:482
-0,098073	-0,081517	0,019166	2020-10-13T22:56:39:498
0,066404	-0,030485	0,035653	2020-10-13T22:56:39:523
-0,047433	-0,354270	0,031948	2020-10-13T22:56:39:538
-0,043672	-0,530468	-0,000206	2020-10-13T22:56:39:563
-0,057044	-0,556363	0,024958	2020-10-13T22:56:39:579
-0,006281	-0,479587	0,003040	2020-10-13T22:56:39:603
-0,025292	-0,228774	-0,027913	2020-10-13T22:56:39:618
0,013875	-0,109315	0,005609	2020-10-13T22:56:39:642
0,023604	-0,236377	0,041742	2020-10-13T22:56:39:659
-0,007726	-0,334023	-0,085011	2020-10-13T22:56:39:683
-0,046075	-0,325932	-0,037652	2020-10-13T22:56:39:699
-0,016392	-0,191944	-0,021691	2020-10-13T22:56:39:722
-0,099197	-0,036779	-0,034818	2020-10-13T22:56:39:739
-0,117103	0,022995	-0,074924	2020-10-13T22:56:39:763
-0,029950	0,180061	-0,098163	2020-10-13T22:56:39:779
0,033404	0,210893	-0,073840	2020-10-13T22:56:39:813
0,044792	0,287639	-0,031771	2020-10-13T22:56:39:819
-0,135768	0,189101	-0,002526	2020-10-13T22:56:39:843
-0,095211	0,317788	-0,035384	2020-10-13T22:56:39:859
0,001897	3,319240	0,165512	2020-10-13T22:56:39:883
-0,013198	4,201243	0,371387	2020-10-13T22:56:39:899
-0,045380	-1,166301	0,205767	2020-10-13T22:56:39:923
-0,054949	0,009259	-0,001163	2020-10-13T22:56:39:939
-0,039875	-0,014472	-0,117994	2020-10-13T22:56:39:962
-0,034084	0,180599	-0,086006	2020-10-13T22:56:39:979
-0,034150	0,358836	-0,106540	2020-10-13T22:56:40:003
0,070582	0,701798	-0,093311	2020-10-13T22:56:40:019
0,084916	1,866956	-0,039978	2020-10-13T22:56:40:043
0,034333	3,462222	0,166540	2020-10-13T22:56:40:059
-0,023984	4,036103	0,362991	2020-10-13T22:56:40:083
-0,004531	3,510877	0,260220	2020-10-13T22:56:40:099
0,021009	3,929805	0,382241	2020-10-13T22:56:40:122
0,040386	-3,729131	1,119337	2020-10-13T22:56:40:139
-0,010601	-2,650673	0,614280	2020-10-13T22:56:40:163
0,037816	-2,445130	0,677985	2020-10-13T22:56:40:180
-0,006030	-1,895861	0,403008	2020-10-13T22:56:40:202
-0,008657	-2,011677	0,372396	2020-10-13T22:56:40:219
0,019762	-2,071386	0,400439	2020-10-13T22:56:40:244
0,074933	-1,902874	0,260658	2020-10-13T22:56:40:259
-0,023707	-1,084583	0,175211	2020-10-13T22:56:40:284
-0,082846	-1,115971	0,152762	2020-10-13T22:56:40:299
0,042614	-1,387625	0,210731	2020-10-13T22:56:40:323
0,080170	-1,220145	0,243163	2020-10-13T22:56:40:339
0,109583	-1,123978	0,144333	2020-10-13T22:56:40:362
0,089154	-0,820537	0,136574	2020-10-13T22:56:40:380
0,028502	-0,598228	0,082552	2020-10-13T22:56:40:403
0,047286	-0,622894	0,022763	2020-10-13T22:56:40:420
-0,014646	-0,595949	0,108626	2020-10-13T22:56:40:442
0,038682	-0,522324	-0,028347	2020-10-13T22:56:40:459
-0,030449	-0,487502	0,077596	2020-10-13T22:56:40:484
-0,030680	-0,294583	0,031888	2020-10-13T22:56:40:500
-0,016312	-0,223965	0,000302	2020-10-13T22:56:40:523
-0,013952	-0,124487	-0,008012	2020-10-13T22:56:40:540
-0,005081	-0,234669	-0,014853	2020-10-13T22:56:40:563
0,005445	-0,248965	0,037124	2020-10-13T22:56:40:580
-0,023951	-0,115040	-0,039987	2020-10-13T22:56:40:602
0,070351	-0,123465	-0,010376	2020-10-13T22:56:40:620
0,032566	-0,024331	-0,023257	2020-10-13T22:56:40:643
-0,104721	-0,079145	-0,053554	2020-10-13T22:56:40:660
-0,124381	0,010948	-0,061659	2020-10-13T22:56:40:683
-0,012573	0,273547	-0,057386	2020-10-13T22:56:40:700
-0,040383	0,288697	-0,100370	2020-10-13T22:56:40:724
-0,081474	0,261627	-0,060462	2020-10-13T22:56:40:740
-0,015146	0,286440	-0,118920	2020-10-13T22:56:40:764
-0,008931	0,271130	-0,036081	2020-10-13T22:56:40:780
-0,013591	0,314460	-0,068602	2020-10-13T22:56:40:804
-0,069038	0,295799	-0,075666	2020-10-13T22:56:40:820
-0,082375	0,232220	-0,005371	2020-10-13T22:56:40:843
0,028207	-0,061444	-0,035974	2020-10-13T22:56:40:860
0,074886	-0,525629	0,010607	2020-10-13T22:56:40:884
0,021987	-0,621886	0,018969	2020-10-13T22:56:40:900
-0,020360	-0,480935	0,003419	2020-10-13T22:56:40:923
0,055898	-0,425259	0,006595	2020-10-13T22:56:40:940
0,007031	-0,273779	0,020594	2020-10-13T22:56:40:964
-0,008205	-0,348055	0,033546	2020-10-13T22:56:40:980
0,027036	-0,516447	0,049759	2020-10-13T22:56:41:004
0,012914	-0,570229	0,050621	2020-10-13T22:56:41:020
0,009490	-0,482447	0,014527	2020-10-13T22:56:41:044
0,024927	-0,299424	0,029832	2020-10-13T22:56:41:060
-0,030282	-0,319839	0,039782	2020-10-13T22:56:41:084
0,008845	-0,200521	0,041387	2020-10-13T22:56:41:100
0,014268	-0,318703	-0,042371	2020-10-13T22:56:41:124
-0,037358	-0,153421	-0,001863	2020-10-13T22:56:41:140
0,019907	-0,141396	-0,016545	2020-10-13T22:56:41:163
0,004228	-0,243830	-0,065055	2020-10-13T22:56:41:181
0,042546	-0,346080	0,014128	2020-10-13T22:56:41:205
0,000920	-0,115972	-0,041125	2020-10-13T22:56:41:220
-0,013068	-0,024185	0,020411	2020-10-13T22:56:41:245
0,001283	-0,042036	-0,038130	2020-10-13T22:56:41:261
-0,078316	-0,108482	-0,063649	2020-10-13T22:56:41:284
-0,030087	-0,100160	-0,062577	2020-10-13T22:56:41:300
-0,023443	0,020537	0,013285	2020-10-13T22:56:41:323
-0,003647	-0,076187	0,033116	2020-10-13T22:56:41:340
0,029648	-0,094821	-0,027336	2020-10-13T22:56:41:364
-0,008335	-0,181664	-0,042736	2020-10-13T22:56:41:381
-0,073306	-0,084806	-0,012890	2020-10-13T22:56:41:403
-0,029497	-0,107452	0,024668	2020-10-13T22:56:41:420
-0,076894	-0,067884	-0,086110	2020-10-13T22:56:41:444
-0,083491	-0,081419	-0,046374	2020-10-13T22:56:41:460
0,005035	-0,040650	0,034684	2020-10-13T22:56:41:484
-0,078670	-0,104892	0,048014	2020-10-13T22:56:41:500
-0,074362	-0,078173	0,034729	2020-10-13T22:56:41:524
-0,127872	-0,305944	0,015924	2020-10-13T22:56:41:540
-0,081173	-0,389027	-0,004964	2020-10-13T22:56:41:563
-0,307374	-0,750443	-0,194039	2020-10-13T22:56:41:581
-0,258843	-1,672218	0,526936	2020-10-13T22:56:41:604
0,114425	4,754564	0,808513	2020-10-13T22:56:41:621
0,004492	-2,196406	0,136374	2020-10-13T22:56:41:643
0,040298	-1,960827	0,315618	2020-10-13T22:56:41:661
0,045933	-0,971532	0,389962	2020-10-13T22:56:41:685
0,292136	-1,085411	0,332348	2020-10-13T22:56:41:700
0,009791	-0,001522	0,137108	2020-10-13T22:56:41:727
-0,014137	0,010443	-0,150030	2020-10-13T22:56:41:741
0,041362	-0,275821	-0,407471	2020-10-13T22:56:41:764
-1,044275	-1,114930	-0,506010	2020-10-13T22:56:41:781
-0,158539	0,743529	-0,184954	2020-10-13T22:56:41:804
-1,827376	2,061668	0,004355	2020-10-13T22:56:41:822
0,000906	0,026920	0,126854	2020-10-13T22:56:41:845
0,168403	-0,221934	-0,026286	2020-10-13T22:56:41:861
0,124735	-0,161106	-0,209081	2020-10-13T22:56:41:885
0,328125	-0,551324	-0,384173	2020-10-13T22:56:41:901
0,585965	-1,016780	-0,298424	2020-10-13T22:56:41:925
0,657013	-0,318108	0,043310	2020-10-13T22:56:41:941
0,699398	0,008555	0,073550	2020-10-13T22:56:41:965
0,284847	-0,136891	0,026475	2020-10-13T22:56:41:981
0,127007	-0,457485	-0,028627	2020-10-13T22:56:42:005
-0,071175	-0,210964	0,076250	2020-10-13T22:56:42:021
0,092962	-0,051899	0,294738	2020-10-13T22:56:42:045
0,254181	-0,433154	0,300923	2020-10-13T22:56:42:061
0,156405	-0,358722	0,077401	2020-10-13T22:56:42:085
0,003800	-0,165590	-0,046293	2020-10-13T22:56:42:101
0,124434	-0,043487	-0,047469	2020-10-13T22:56:42:124
0,217417	-0,320186	0,050170	2020-10-13T22:56:42:141
0,085306	-0,200226	-0,043150	2020-10-13T22:56:42:166
0,379399	-0,028175	-0,112035	2020-10-13T22:56:42:181
0,452900	-0,066922	-0,173192	2020-10-13T22:56:42:205
0,659854	-0,160971	-0,162650	2020-10-13T22:56:42:221
0,975958	-0,208161	-0,278287	2020-10-13T22:56:42:245
1,006262	-0,858491	0,113912	2020-10-13T22:56:42:261
0,991429	-0,898426	0,381819	2020-10-13T22:56:42:285
0,783808	0,001766	0,149788	2020-10-13T22:56:42:301
0,358032	0,375550	-0,193684	2020-10-13T22:56:42:325
-0,037101	0,497401	-0,340707	2020-10-13T22:56:42:341
-0,052495	0,191716	-0,136800	2020-10-13T22:56:42:365
-0,040992	-0,292133	-0,011844	2020-10-13T22:56:42:381
-0,170470	-0,587158	0,315217	2020-10-13T22:56:42:406
-0,121286	-0,109968	-0,012133	2020-10-13T22:56:42:421
-0,018402	-0,291297	-0,107390	2020-10-13T22:56:42:445
-0,230836	-0,364353	-0,111526	2020-10-13T22:56:42:461
-0,400302	-0,229562	-0,137958	2020-10-13T22:56:42:486
-0,323726	0,100662	-0,028963	2020-10-13T22:56:42:501
-0,242703	0,681821	-0,129617	2020-10-13T22:56:42:525
-0,372348	0,643965	-0,162844	2020-10-13T22:56:42:541
-0,316646	0,818711	-0,089555	2020-10-13T22:56:42:565
-0,019497	0,531634	0,043510	2020-10-13T22:56:42:582
0,075571	0,093785	0,009080	2020-10-13T22:56:42:604
0,168303	-0,320077	0,040261	2020-10-13T22:56:42:621
0,188488	-0,537320	-0,091711	2020-10-13T22:56:42:646
-0,031448	-0,270861	-0,068331	2020-10-13T22:56:42:661
0,035203	0,181571	-0,079310	2020-10-13T22:56:42:686
0,122760	0,311867	0,115192	2020-10-13T22:56:42:701
-0,032223	0,018157	0,039108	2020-10-13T22:56:42:726
-0,319093	0,027818	-0,059247	2020-10-13T22:56:42:741
-0,332488	0,210174	-0,091672	2020-10-13T22:56:42:765
-0,185188	0,582354	-0,074506	2020-10-13T22:56:42:781
-0,200190	0,762436	-0,155618	2020-10-13T22:56:42:806
-0,066554	1,061466	-0,024824	2020-10-13T22:56:42:822
0,038003	0,244763	-0,049486	2020-10-13T22:56:42:845
0,012342	-0,192587	0,002653	2020-10-13T22:56:42:861
0,018970	-0,332569	-0,105947	2020-10-13T22:56:42:887
-0,009064	-0,386867	-0,056731	2020-10-13T22:56:42:902
-0,011496	-0,195537	-0,025757	2020-10-13T22:56:42:926
-0,024174	0,081417	-0,041999	2020-10-13T22:56:42:942
-0,019365	0,279092	-0,050119	2020-10-13T22:56:42:966
0,002040	0,237162	-0,025981	2020-10-13T22:56:42:982
-0,081990	-0,005242	-0,062799	2020-10-13T22:56:43:005
-0,053878	-0,194372	-0,019189	2020-10-13T22:56:43:022
-0,040457	-0,191092	-0,024984	2020-10-13T22:56:43:046
-0,069693	-0,057715	-0,087142	2020-10-13T22:56:43:062
0,029748	0,148437	-0,010894	2020-10-13T22:56:43:085
-0,022869	0,185861	-0,049667	2020-10-13T22:56:43:102
-0,000397	-0,001794	-0,010266	2020-10-13T22:56:43:128
-0,117646	-0,114256	0,097411	2020-10-13T22:56:43:142
-0,001244	-0,006284	-0,038218	2020-10-13T22:56:43:167
0,015506	-0,247959	-0,004718	2020-10-13T22:56:43:183
0,049880	0,052416	-0,086370	2020-10-13T22:56:43:206
-0,100849	-0,048870	-0,133358	2020-10-13T22:56:43:222
0,037492	0,369027	0,020767	2020-10-13T22:56:43:245
0,154300	0,165663	-0,112410	2020-10-13T22:56:43:262
-0,007297	0,072727	-0,072397	2020-10-13T22:56:43:287
-0,026719	0,212307	-0,089948	2020-10-13T22:56:43:303
-0,040278	0,432086	-0,067160	2020-10-13T22:56:43:325
-0,032509	0,560321	-0,040326	2020-10-13T22:56:43:342
-0,086117	0,294801	-0,038255	2020-10-13T22:56:43:366
-0,014380	0,192789	-0,187780	2020-10-13T22:56:43:383
0,043420	0,247244	0,017227	2020-10-13T22:56:43:406
0,031365	-0,245789	0,016873	2020-10-13T22:56:43:423
-0,010484	-0,153139	-0,019567	2020-10-13T22:56:43:446
-0,066013	-0,156675	-0,060410	2020-10-13T22:56:43:462
0,007118	0,083963	-0,034813	2020-10-13T22:56:43:487
0,010520	0,276310	-0,062967	2020-10-13T22:56:43:502
0,032535	0,100993	-0,085251	2020-10-13T22:56:43:527
-0,002813	0,047469	-0,112191	2020-10-13T22:56:43:543
-0,058032	0,060079	-0,094754	2020-10-13T22:56:43:566
-0,003707	0,090408	0,002212	2020-10-13T22:56:43:583
0,003082	0,104237	-0,104175	2020-10-13T22:56:43:607
0,003772	0,037064	-0,012444	2020-10-13T22:56:43:622
0,000017	0,000089	0,000515	2020-10-13T22:56:43:648
-0,045447	0,126908	-0,126305	2020-10-13T22:56:43:663
0,077932	-0,205336	0,015192	2020-10-13T22:56:43:688
0,021798	-0,295230	0,043451	2020-10-13T22:56:43:703
-0,120477	-0,217204	-0,026455	2020-10-13T22:56:43:725
-0,048292	-0,061550	-0,018388	2020-10-13T22:56:43:743
0,000343	0,002480	0,012440	2020-10-13T22:56:43:767
0,033843	0,002480	0,012440	2020-10-13T22:56:43:783
0,004345	-0,245060	-0,006089	2020-10-13T22:56:43:806
-0,033329	-0,215307	-0,010049	2020-10-13T22:56:43:823
0,039752	-0,006837	-0,079027	2020-10-13T22:56:43:847
0,013930	0,144637	0,045785	2020-10-13T22:56:43:863
0,083042	-0,205895	0,002954	2020-10-13T22:56:43:887
-0,051535	-0,156941	0,024498	2020-10-13T22:56:43:903
-0,005126	-0,508839	-0,012617	2020-10-13T22:56:43:927
-0,136900	-0,310017	0,040776	2020-10-13T22:56:43:943
0,075890	-0,138088	0,029345	2020-10-13T22:56:43:966
0,061018	-0,317198	0,070391	2020-10-13T22:56:43:983
0,004674	-0,123550	-0,015840	2020-10-13T22:56:44:006
0,036522	-0,107596	0,069515	2020-10-13T22:56:44:023
0,117795	-0,166263	-0,072242	2020-10-13T22:56:44:047
-0,009063	-0,399442	0,058863	2020-10-13T22:56:44:063
0,034357	-0,566847	-0,072683	2020-10-13T22:56:44:088
-0,010860	-0,468567	-0,019008	2020-10-13T22:56:44:103
-0,092692	-0,296699	0,048292	2020-10-13T22:56:44:127
0,009106	-0,098130	-0,049697	2020-10-13T22:56:44:143
-0,040175	0,016508	-0,010639	2020-10-13T22:56:44:168
0,032351	-0,058833	0,037869	2020-10-13T22:56:44:183
0,015704	-0,061432	-0,043927	2020-10-13T22:56:44:207
0,081821	-0,117106	0,036668	2020-10-13T22:56:44:223
-0,009929	-0,145192	-0,070213	2020-10-13T22:56:44:247
-0,064764	-0,071456	-0,017510	2020-10-13T22:56:44:263
0,010482	-0,079167	0,001973	2020-10-13T22:56:44:287
0,005246	-0,012997	0,011683	2020-10-13T22:56:44:303
0,062411	-0,020489	0,067137	2020-10-13T22:56:44:328
-0,000745	-0,127292	-0,021066	2020-10-13T22:56:44:343
-0,084201	-0,059606	-0,072156	2020-10-13T22:56:44:367
-0,031500	-0,093721	-0,015142	2020-10-13T22:56:44:384
0,022127	-0,083333	-0,046402	2020-10-13T22:56:44:408
-0,008045	-0,057799	-0,037030	2020-10-13T22:56:44:423
0,022475	-0,161991	-0,012888	2020-10-13T22:56:44:446
-0,063548	-0,041528	-0,047169	2020-10-13T22:56:44:463
-0,001904	-0,176249	-0,015645	2020-10-13T22:56:44:488
-0,019052	-0,196277	-0,026154	2020-10-13T22:56:44:504
0,020253	0,012404	-0,044088	2020-10-13T22:56:44:526
0,050476	-0,109396	-0,064914	2020-10-13T22:56:44:543
0,032210	-0,117700	-0,014380	2020-10-13T22:56:44:568
0,043408	-0,057206	-0,014026	2020-10-13T22:56:44:585
-0,000626	-0,003265	-0,022814	2020-10-13T22:56:44:608
-0,019768	0,042199	-0,044349	2020-10-13T22:56:44:624
0,070384	0,152896	0,040751	2020-10-13T22:56:44:647
0,014292	-0,108701	-0,072499	2020-10-13T22:56:44:663
-0,058590	-0,023329	-0,044349	2020-10-13T22:56:44:687
-0,006962	0,044541	-0,047315	2020-10-13T22:56:44:703
0,076691	0,004864	-0,001293	2020-10-13T22:56:44:727
0,102923	-0,060175	-0,067754	2020-10-13T22:56:44:744
0,002239	0,036206	-0,001429	2020-10-13T22:56:44:766
0,021278	-0,125416	0,000807	2020-10-13T22:56:44:783
0,038470	-0,075627	-0,038411	2020-10-13T22:56:44:808
0,020727	-0,240965	-0,012316	2020-10-13T22:56:44:824
-0,002692	-0,013988	-0,101040	2020-10-13T22:56:44:849
0,047557	-0,080988	-0,010112	2020-10-13T22:56:44:864
0,033378	0,116849	0,005773	2020-10-13T22:56:44:888
-0,028834	0,086035	-0,065798	2020-10-13T22:56:44:904
0,031496	0,094045	-0,020247	2020-10-13T22:56:44:927
0,032135	0,157042	-0,066231	2020-10-13T22:56:44:944
-0,030517	0,090905	-0,066054	2020-10-13T22:56:44:967
-0,039708	0,086543	-0,028262	2020-10-13T22:56:44:984
-0,033451	0,150088	-0,005301	2020-10-13T22:56:45:007
-0,086742	0,109105	-0,068584	2020-10-13T22:56:45:024
-0,060976	0,157384	-0,024700	2020-10-13T22:56:45:048
-0,029118	0,103962	-0,026068	2020-10-13T22:56:45:064
-0,000444	-0,002229	-0,014856	2020-10-13T22:56:45:089
0,006734	0,069555	-0,026820	2020-10-13T22:56:45:104
0,052790	-0,181944	-0,024639	2020-10-13T22:56:45:128
-0,020969	-0,115098	0,040528	2020-10-13T22:56:45:144
-0,004923	-0,114252	-0,034982	2020-10-13T22:56:45:167
-0,063515	-0,019336	-0,002911	2020-10-13T22:56:45:184
0,030985	-0,083552	0,018074	2020-10-13T22:56:45:207
0,026915	-0,081140	0,043691	2020-10-13T22:56:45:224
0,024828	-0,134687	0,031183	2020-10-13T22:56:45:247
0,001629	-0,105272	-0,032209	2020-10-13T22:56:45:264
0,008285	-0,069737	0,010188	2020-10-13T22:56:45:288
-0,035965	-0,018191	-0,042618	2020-10-13T22:56:45:304
0,012630	-0,087104	0,010298	2020-10-13T22:56:45:328
0,016522	-0,152969	-0,002185	2020-10-13T22:56:45:344
-0,003435	-0,121502	-0,005718	2020-10-13T22:56:45:368
0,040122	-0,123377	0,003020	2020-10-13T22:56:45:384
0,012137	-0,116594	-0,031099	2020-10-13T22:56:45:407
-0,055351	-0,102635	0,004503	2020-10-13T22:56:45:424
-0,001371	-0,004993	-0,036232	2020-10-13T22:56:45:449
-0,154512	-0,038492	-0,026660	2020-10-13T22:56:45:465
0,016271	0,417823	-0,066846	2020-10-13T22:56:45:488
0,114788	0,435686	0,035525	2020-10-13T22:56:45:504
0,143887	0,152844	-0,075187	2020-10-13T22:56:45:528
-0,064862	0,006781	-0,075603	2020-10-13T22:56:45:544
0,081466	-0,094837	-0,063896	2020-10-13T22:56:45:568
0,056896	-0,205856	0,006189	2020-10-13T22:56:45:585
0,308210	0,330285	0,303419	2020-10-13T22:56:45:608
0,129362	-0,133345	-0,104336	2020-10-13T22:56:45:624
0,097134	-0,214171	-0,165244	2020-10-13T22:56:45:647
0,094871	-0,051833	0,003180	2020-10-13T22:56:45:664
0,117433	0,018358	-0,078457	2020-10-13T22:56:45:688
0,041630	-0,146814	0,024998	2020-10-13T22:56:45:705
0,064790	-0,158315	-0,044149	2020-10-13T22:56:45:727
0,065091	-0,106660	-0,027226	2020-10-13T22:56:45:744
0,079017	-0,168876	-0,018939	2020-10-13T22:56:45:769
0,100405	-0,107675	-0,006740	2020-10-13T22:56:45:784
0,000026	0,000100	0,000745	2020-10-13T22:56:45:810
-0,016724	0,040778	-0,078218	2020-10-13T22:56:45:826
0,054288	-0,023621	-0,001604	2020-10-13T22:56:45:848
0,009086	-0,033543	-0,071206	2020-10-13T22:56:45:864
-0,002767	-0,016255	-0,026145	2020-10-13T22:56:45:888
0,023783	-0,084016	-0,069445	2020-10-13T22:56:45:904
0,043813	-0,024580	-0,014956	2020-10-13T22:56:45:928
-0,036880	-0,074643	-0,036785	2020-10-13T22:56:45:945
0,074339	-0,049344	0,037170	2020-10-13T22:56:45:968
0,043945	-0,022092	-0,032214	2020-10-13T22:56:45:985
-0,000222	-0,000719	-0,005559	2020-10-13T22:56:46:009
-0,095935	-0,024647	0,008798	2020-10-13T22:56:46:025
0,021226	0,054335	-0,036242	2020-10-13T22:56:46:049
-0,028157	0,047273	-0,042465	2020-10-13T22:56:46:065
-0,001499	-0,005033	-0,040174	2020-10-13T22:56:46:090
-0,008677	0,095466	-0,023423	2020-10-13T22:56:46:105
-0,014295	-0,141923	-0,004865	2020-10-13T22:56:46:129
0,038483	-0,092191	-0,048528	2020-10-13T22:56:46:145
0,027194	-0,034768	0,015814	2020-10-13T22:56:46:169
0,007260	-0,004279	0,018321	2020-10-13T22:56:46:185
-0,002563	-0,050128	-0,069821	2020-10-13T22:56:46:208
-0,050156	0,092463	-0,038589	2020-10-13T22:56:46:225
0,019363	0,006890	-0,047341	2020-10-13T22:56:46:250
-0,009802	0,050956	-0,006453	2020-10-13T22:56:46:265
0,051084	-0,154135	-0,068471	2020-10-13T22:56:46:289
-0,048521	-0,101916	-0,000618	2020-10-13T22:56:46:305
-0,001530	-0,125754	-0,028411	2020-10-13T22:56:46:329
-0,043727	-0,086569	-0,024758	2020-10-13T22:56:46:345
