x	y	z	ts
1,750000	-1,680000	-3,080000	2020-10-13T22:56:01:308
0,070000	0,210000	-0,770000	2020-10-13T22:56:01:309
0,910000	0,070000	-0,700000	2020-10-13T22:56:01:309
0,630000	-0,070000	-0,630000	2020-10-13T22:56:01:309
-0,210000	-0,070000	-0,630000	2020-10-13T22:56:01:310
-0,560000	-0,070000	-0,700000	2020-10-13T22:56:01:310
-0,070000	-0,350000	-0,700000	2020-10-13T22:56:01:311
0,070000	-0,980000	-0,490000	2020-10-13T22:56:01:311
0,210000	-0,280000	-0,630000	2020-10-13T22:56:01:311
-0,980000	1,190000	-0,980000	2020-10-13T22:56:01:312
6,090000	1,330000	-0,700000	2020-10-13T22:56:01:312
6,090000	1,330000	-0,700000	2020-10-13T22:56:01:313
6,090000	1,330000	-0,700000	2020-10-13T22:56:01:313
9,310000	1,120000	-0,560000	2020-10-13T22:56:01:314
11,200000	1,120000	-0,490000	2020-10-13T22:56:01:324
11,200000	1,260000	-0,560000	2020-10-13T22:56:01:341
9,730000	1,540000	-0,910000	2020-10-13T22:56:01:361
5,530000	1,260000	-1,400000	2020-10-13T22:56:01:379
2,240000	1,680000	-2,310000	2020-10-13T22:56:01:400
-0,630000	2,380000	-2,940000	2020-10-13T22:56:01:419
-4,480000	2,450000	-3,640000	2020-10-13T22:56:01:441
-6,790000	3,360000	-4,620000	2020-10-13T22:56:01:460
-10,430000	3,570000	-5,320000	2020-10-13T22:56:01:480
-14,770000	3,430000	-5,810000	2020-10-13T22:56:01:500
18,129999	0,420000	-4,760000	2020-10-13T22:56:01:521
22,820000	-1,540000	-11,690000	2020-10-13T22:56:01:540
-1,330000	7,350000	-14,000000	2020-10-13T22:56:01:560
-8,750000	11,760000	-14,350000	2020-10-13T22:56:01:580
2,590000	9,730000	-17,430000	2020-10-13T22:56:01:601
7,630000	8,470000	-17,639999	2020-10-13T22:56:01:620
6,510000	8,190000	-17,920000	2020-10-13T22:56:01:641
8,050000	6,930000	-17,920000	2020-10-13T22:56:01:660
12,880000	4,410000	-18,340000	2020-10-13T22:56:01:680
14,350000	-0,210000	-18,129999	2020-10-13T22:56:01:700
11,760000	-1,610000	-17,570000	2020-10-13T22:56:01:721
14,770000	-2,240000	-15,400000	2020-10-13T22:56:01:740
15,540000	-4,900000	-13,510000	2020-10-13T22:56:01:760
13,370000	-5,530000	-14,770000	2020-10-13T22:56:01:780
6,930000	-6,090000	-11,900000	2020-10-13T22:56:01:801
7,000000	-6,090000	-11,200000	2020-10-13T22:56:01:820
11,830000	-8,190000	-9,450000	2020-10-13T22:56:01:846
11,200000	-9,660000	-8,120000	2020-10-13T22:56:01:860
4,130000	-10,780000	-4,970000	2020-10-13T22:56:01:880
-0,840000	-6,930000	-3,430000	2020-10-13T22:56:01:900
11,830000	-5,530000	-5,110000	2020-10-13T22:56:01:922
12,110000	-4,130000	-5,250000	2020-10-13T22:56:01:941
7,840000	-4,130000	-4,760000	2020-10-13T22:56:01:961
12,460000	-7,140000	-4,620000	2020-10-13T22:56:01:980
13,860000	-8,190000	-3,010000	2020-10-13T22:56:02:001
16,309999	-7,070000	-1,680000	2020-10-13T22:56:02:020
20,299999	-4,130000	-3,850000	2020-10-13T22:56:02:042
17,639999	0,070000	-3,920000	2020-10-13T22:56:02:060
15,680000	-0,140000	-4,410000	2020-10-13T22:56:02:092
13,440001	-0,070000	-4,970000	2020-10-13T22:56:02:102
12,460000	-0,350000	-5,740000	2020-10-13T22:56:02:123
12,810000	0,210000	-4,760000	2020-10-13T22:56:02:140
14,490000	-0,140000	-3,010000	2020-10-13T22:56:02:162
15,330000	-0,630000	-2,660000	2020-10-13T22:56:02:180
14,000000	-1,120000	-2,380000	2020-10-13T22:56:02:202
11,690000	-2,100000	-2,030000	2020-10-13T22:56:02:223
8,820000	-1,820000	-1,820000	2020-10-13T22:56:02:243
6,790000	-0,420000	-1,260000	2020-10-13T22:56:02:262
4,970000	-0,350000	-0,910000	2020-10-13T22:56:02:285
3,430000	0,420000	-0,630000	2020-10-13T22:56:02:302
1,470000	1,610000	-0,490000	2020-10-13T22:56:02:327
3,080000	2,240000	0,700000	2020-10-13T22:56:02:344
4,130000	2,380000	2,030000	2020-10-13T22:56:02:364
2,940000	1,470000	2,520000	2020-10-13T22:56:02:382
-0,980000	0,420000	3,500000	2020-10-13T22:56:02:404
-3,150000	0,560000	3,780000	2020-10-13T22:56:02:422
-5,670000	0,840000	3,500000	2020-10-13T22:56:02:444
-8,540000	0,910000	3,850000	2020-10-13T22:56:02:463
-12,950000	0,140000	4,620000	2020-10-13T22:56:02:485
-17,990000	-0,630000	4,900000	2020-10-13T22:56:02:502
-19,110001	0,980000	6,160000	2020-10-13T22:56:02:526
-17,430000	-0,350000	6,720000	2020-10-13T22:56:02:543
-15,820000	-0,490000	6,370000	2020-10-13T22:56:02:567
-15,120000	0,140000	6,090000	2020-10-13T22:56:02:585
-14,560000	0,210000	5,320000	2020-10-13T22:56:02:606
-13,580000	0,560000	4,970000	2020-10-13T22:56:02:623
-9,240000	0,490000	4,480000	2020-10-13T22:56:02:647
-3,500000	0,140000	4,130000	2020-10-13T22:56:02:663
0,560000	0,280000	3,640000	2020-10-13T22:56:02:687
3,220000	-0,280000	2,940000	2020-10-13T22:56:02:703
3,640000	-0,560000	2,310000	2020-10-13T22:56:02:725
3,010000	-0,210000	2,170000	2020-10-13T22:56:02:742
3,570000	0,420000	1,960000	2020-10-13T22:56:02:766
2,520000	-0,210000	1,960000	2020-10-13T22:56:02:783
-0,560000	-1,960000	2,240000	2020-10-13T22:56:02:805
-2,100000	-2,660000	2,940000	2020-10-13T22:56:02:823
-2,240000	-2,170000	2,870000	2020-10-13T22:56:02:847
-1,890000	-2,100000	3,010000	2020-10-13T22:56:02:862
1,190000	-4,760000	3,290000	2020-10-13T22:56:02:885
0,840000	-4,830000	3,570000	2020-10-13T22:56:02:903
-0,210000	-4,550000	2,380000	2020-10-13T22:56:02:926
-1,400000	-3,010000	2,030000	2020-10-13T22:56:02:943
-1,820000	-1,120000	1,400000	2020-10-13T22:56:02:965
-1,260000	0,280000	1,750000	2020-10-13T22:56:02:983
-3,010000	1,050000	3,080000	2020-10-13T22:56:03:006
-4,340000	0,840000	3,500000	2020-10-13T22:56:03:023
-4,830000	0,350000	3,010000	2020-10-13T22:56:03:052
-3,430000	-0,490000	3,920000	2020-10-13T22:56:03:063
-3,290000	-2,660000	4,200000	2020-10-13T22:56:03:089
-0,350000	-7,070000	6,230000	2020-10-13T22:56:03:104
0,280000	-7,000000	6,930000	2020-10-13T22:56:03:125
1,540000	-6,300000	5,670000	2020-10-13T22:56:03:144
-1,190000	-3,290000	4,480000	2020-10-13T22:56:03:165
0,560000	-4,270000	3,010000	2020-10-13T22:56:03:184
1,400000	-3,220000	1,120000	2020-10-13T22:56:03:205
3,640000	-0,350000	0,700000	2020-10-13T22:56:03:226
5,740000	-0,070000	0,560000	2020-10-13T22:56:03:247
5,390000	-1,400000	0,140000	2020-10-13T22:56:03:264
2,660000	-2,030000	0,070000	2020-10-13T22:56:03:311
0,980000	-2,100000	0,070000	2020-10-13T22:56:03:313
2,730000	-0,770000	0,490000	2020-10-13T22:56:03:326
5,110000	-1,400000	0,420000	2020-10-13T22:56:03:344
6,580000	-1,820000	0,560000	2020-10-13T22:56:03:368
5,320000	-2,030000	0,280000	2020-10-13T22:56:03:386
2,520000	-2,450000	1,330000	2020-10-13T22:56:03:405
1,050000	-2,590000	1,330000	2020-10-13T22:56:03:424
-1,470000	-2,240000	0,840000	2020-10-13T22:56:03:446
-0,700000	-1,680000	1,050000	2020-10-13T22:56:03:462
0,770000	-1,960000	1,260000	2020-10-13T22:56:03:486
-0,770000	-1,960000	0,910000	2020-10-13T22:56:03:502
-3,990000	-1,610000	1,540000	2020-10-13T22:56:03:526
-5,250000	-2,100000	2,240000	2020-10-13T22:56:03:543
-4,620000	-2,800000	2,380000	2020-10-13T22:56:03:566
-2,870000	-2,100000	2,590000	2020-10-13T22:56:03:585
-0,210000	-0,840000	2,240000	2020-10-13T22:56:03:606
0,700000	-1,260000	4,200000	2020-10-13T22:56:03:623
0,140000	-1,820000	3,290000	2020-10-13T22:56:03:646
-1,960000	-2,310000	2,870000	2020-10-13T22:56:03:664
-4,200000	-1,890000	1,750000	2020-10-13T22:56:03:686
-4,690000	-0,770000	1,260000	2020-10-13T22:56:03:703
-2,730000	-0,350000	2,310000	2020-10-13T22:56:03:727
-2,730000	-0,770000	1,820000	2020-10-13T22:56:03:744
-3,990000	-0,070000	1,120000	2020-10-13T22:56:03:768
-5,530000	0,770000	0,840000	2020-10-13T22:56:03:784
-5,600000	1,120000	1,120000	2020-10-13T22:56:03:806
-4,620000	1,050000	1,190000	2020-10-13T22:56:03:824
-4,760000	0,910000	1,750000	2020-10-13T22:56:03:847
-1,260000	2,310000	2,450000	2020-10-13T22:56:03:865
0,980000	2,520000	1,680000	2020-10-13T22:56:03:886
-2,170000	3,430000	2,800000	2020-10-13T22:56:03:904
-2,170000	2,940000	1,750000	2020-10-13T22:56:03:927
-0,490000	2,310000	1,820000	2020-10-13T22:56:03:944
-3,570000	2,100000	0,980000	2020-10-13T22:56:03:966
-6,930000	2,240000	0,350000	2020-10-13T22:56:03:984
-7,700000	1,890000	-0,700000	2020-10-13T22:56:04:016
-4,970000	1,820000	-1,120000	2020-10-13T22:56:04:026
-2,380000	1,820000	-0,840000	2020-10-13T22:56:04:047
-1,330000	2,380000	-0,910000	2020-10-13T22:56:04:064
-0,560000	3,220000	-1,400000	2020-10-13T22:56:04:121
-0,630000	2,870000	-1,890000	2020-10-13T22:56:04:129
-0,630000	2,030000	-1,540000	2020-10-13T22:56:04:130
-1,120000	1,680000	-1,400000	2020-10-13T22:56:04:145
-2,170000	0,840000	-1,680000	2020-10-13T22:56:04:169
-1,330000	-0,070000	-1,190000	2020-10-13T22:56:04:184
-0,630000	-0,210000	-0,910000	2020-10-13T22:56:04:206
-0,350000	-0,840000	-0,700000	2020-10-13T22:56:04:224
-0,560000	-1,050000	-0,700000	2020-10-13T22:56:04:248
-2,030000	-1,400000	-0,140000	2020-10-13T22:56:04:264
-2,030000	-1,330000	-0,280000	2020-10-13T22:56:04:286
-0,980000	-1,540000	-0,280000	2020-10-13T22:56:04:304
-0,350000	-1,050000	-0,420000	2020-10-13T22:56:04:327
1,120000	-0,700000	-0,350000	2020-10-13T22:56:04:344
0,980000	-0,770000	-0,490000	2020-10-13T22:56:04:367
0,210000	-0,980000	-0,490000	2020-10-13T22:56:04:384
0,420000	-0,560000	-0,490000	2020-10-13T22:56:04:409
0,840000	-0,910000	-0,280000	2020-10-13T22:56:04:430
0,210000	-1,470000	0,070000	2020-10-13T22:56:04:448
-0,980000	-1,330000	0,140000	2020-10-13T22:56:04:475
-1,330000	-1,610000	0,280000	2020-10-13T22:56:04:491
-2,520000	-2,870000	0,770000	2020-10-13T22:56:04:505
-4,340000	-4,620000	1,750000	2020-10-13T22:56:04:528
-7,210000	-5,600000	2,240000	2020-10-13T22:56:04:552
-7,140000	-6,160000	4,130000	2020-10-13T22:56:04:574
-4,690000	-7,700000	8,190000	2020-10-13T22:56:04:587
1,120000	-8,330000	16,309999	2020-10-13T22:56:04:608
3,640000	-9,030000	23,660000	2020-10-13T22:56:04:627
9,240000	-5,880000	14,560000	2020-10-13T22:56:04:647
9,100000	-10,360000	13,160000	2020-10-13T22:56:04:664
4,130000	-11,130000	12,390000	2020-10-13T22:56:04:687
3,010000	-8,330000	12,390000	2020-10-13T22:56:04:704
4,970000	-3,570000	7,840000	2020-10-13T22:56:04:730
2,100000	-1,960000	7,630000	2020-10-13T22:56:04:755
-4,620000	-1,190000	7,700000	2020-10-13T22:56:04:767
-16,100000	0,770000	7,700000	2020-10-13T22:56:04:784
-9,660000	2,730000	8,400000	2020-10-13T22:56:04:807
-0,700000	3,430000	10,360000	2020-10-13T22:56:04:825
6,020000	4,340000	11,970000	2020-10-13T22:56:04:848
7,140000	4,410000	14,210000	2020-10-13T22:56:04:864
8,820000	4,760000	16,799999	2020-10-13T22:56:04:887
11,970000	6,020000	17,850000	2020-10-13T22:56:04:904
11,690000	8,120000	18,129999	2020-10-13T22:56:04:928
7,560000	8,050000	17,010000	2020-10-13T22:56:04:945
5,180000	7,070000	16,379999	2020-10-13T22:56:04:972
11,550000	5,810000	16,590000	2020-10-13T22:56:04:985
15,050000	4,620000	15,330000	2020-10-13T22:56:05:008
16,450001	3,710000	15,540000	2020-10-13T22:56:05:025
11,340000	2,660000	15,470000	2020-10-13T22:56:05:048
11,410000	0,630000	14,560000	2020-10-13T22:56:05:065
13,090000	0,140000	13,160000	2020-10-13T22:56:05:093
18,340000	-0,980000	11,550000	2020-10-13T22:56:05:105
17,150000	-3,360000	11,830000	2020-10-13T22:56:05:128
12,810000	-3,640000	12,810000	2020-10-13T22:56:05:145
14,700000	-5,250000	12,600000	2020-10-13T22:56:05:168
12,530000	-6,790000	13,720000	2020-10-13T22:56:05:184
9,450000	-7,770000	13,720000	2020-10-13T22:56:05:209
11,830000	-7,560000	12,670000	2020-10-13T22:56:05:225
12,530000	-6,930000	12,180000	2020-10-13T22:56:05:248
11,340000	-5,180000	10,920000	2020-10-13T22:56:05:264
6,580000	-2,380000	10,080000	2020-10-13T22:56:05:288
1,750000	-2,240000	10,500000	2020-10-13T22:56:05:305
-3,080000	-1,820000	8,960000	2020-10-13T22:56:05:328
-8,400000	-0,560000	7,420000	2020-10-13T22:56:05:345
-16,240000	-0,560000	6,230000	2020-10-13T22:56:05:368
-16,030001	-2,170000	3,500000	2020-10-13T22:56:05:385
-12,040000	-0,350000	4,060000	2020-10-13T22:56:05:410
-13,020000	7,700000	-0,490000	2020-10-13T22:56:05:430
-13,020000	8,680000	-1,960000	2020-10-13T22:56:05:457
-11,410000	10,010000	-2,170000	2020-10-13T22:56:05:466
-4,900000	9,380000	-2,730000	2020-10-13T22:56:05:489
-1,050000	8,330000	-2,450000	2020-10-13T22:56:05:508
-1,260000	7,350000	-2,310000	2020-10-13T22:56:05:532
-3,570000	4,130000	-1,960000	2020-10-13T22:56:05:545
-10,500000	1,260000	-2,030000	2020-10-13T22:56:05:569
-15,610000	0,700000	-1,820000	2020-10-13T22:56:05:614
-12,460000	2,310000	-2,870000	2020-10-13T22:56:05:615
-2,940000	2,940000	-3,220000	2020-10-13T22:56:05:626
8,540000	2,380000	-2,730000	2020-10-13T22:56:05:651
14,560000	0,210000	-2,240000	2020-10-13T22:56:05:666
12,460000	0,140000	-2,170000	2020-10-13T22:56:05:691
3,780000	1,540000	-2,940000	2020-10-13T22:56:05:706
-5,670000	1,680000	-3,990000	2020-10-13T22:56:05:729
-13,020000	-0,280000	-2,520000	2020-10-13T22:56:05:746
-12,250000	0,280000	-0,350000	2020-10-13T22:56:05:769
-5,880000	0,350000	0,490000	2020-10-13T22:56:05:785
0,840000	-0,840000	-0,070000	2020-10-13T22:56:05:808
4,970000	0,420000	-0,350000	2020-10-13T22:56:05:826
5,880000	0,910000	-0,700000	2020-10-13T22:56:05:849
3,220000	-0,070000	-1,260000	2020-10-13T22:56:05:865
1,120000	0,280000	-1,540000	2020-10-13T22:56:05:889
1,260000	1,470000	-1,890000	2020-10-13T22:56:05:906
4,830000	0,980000	-1,890000	2020-10-13T22:56:05:930
5,810000	0,350000	-1,120000	2020-10-13T22:56:05:948
3,570000	0,630000	-0,980000	2020-10-13T22:56:05:969
0,210000	-0,490000	-1,470000	2020-10-13T22:56:05:986
-1,120000	-0,490000	-1,750000	2020-10-13T22:56:06:013
2,520000	0,560000	-1,470000	2020-10-13T22:56:06:026
5,180000	0,630000	-1,470000	2020-10-13T22:56:06:049
7,210000	0,910000	-1,260000	2020-10-13T22:56:06:066
5,320000	1,190000	-1,400000	2020-10-13T22:56:06:098
1,330000	0,140000	-1,680000	2020-10-13T22:56:06:106
-0,700000	-0,560000	-1,820000	2020-10-13T22:56:06:129
0,280000	0,560000	-1,400000	2020-10-13T22:56:06:146
1,960000	0,140000	-1,260000	2020-10-13T22:56:06:173
2,310000	-0,280000	-1,610000	2020-10-13T22:56:06:186
1,120000	-0,630000	-1,750000	2020-10-13T22:56:06:209
1,120000	-0,630000	-1,960000	2020-10-13T22:56:06:226
-4,690000	2,030000	-1,400000	2020-10-13T22:56:06:249
-14,420000	3,570000	-3,010000	2020-10-13T22:56:06:266
2,100000	-0,980000	-1,680000	2020-10-13T22:56:06:289
1,610000	-0,070000	-2,660000	2020-10-13T22:56:06:307
0,700000	-0,840000	-2,380000	2020-10-13T22:56:06:329
1,470000	-0,070000	-1,330000	2020-10-13T22:56:06:346
0,280000	-0,770000	-1,330000	2020-10-13T22:56:06:370
-2,030000	-1,050000	0,630000	2020-10-13T22:56:06:386
-5,740000	-1,960000	1,190000	2020-10-13T22:56:06:412
-8,610000	-3,010000	0,980000	2020-10-13T22:56:06:427
-11,130000	-2,170000	0,770000	2020-10-13T22:56:06:450
-11,200000	-0,700000	0,350000	2020-10-13T22:56:06:466
-7,420000	1,260000	0,140000	2020-10-13T22:56:06:489
-2,030000	1,120000	0,840000	2020-10-13T22:56:06:506
-0,420000	-0,770000	1,120000	2020-10-13T22:56:06:529
-6,020000	-0,840000	0,910000	2020-10-13T22:56:06:547
-8,960000	-0,910000	0,560000	2020-10-13T22:56:06:571
-10,010000	0,140000	0,210000	2020-10-13T22:56:06:597
-5,740000	1,470000	0,560000	2020-10-13T22:56:06:612
-0,490000	0,770000	0,210000	2020-10-13T22:56:06:627
-1,190000	0,910000	0,070000	2020-10-13T22:56:06:655
-4,200000	1,190000	0,420000	2020-10-13T22:56:06:667
-3,920000	1,680000	0,280000	2020-10-13T22:56:06:691
-2,730000	1,750000	0,490000	2020-10-13T22:56:06:707
-3,290000	1,190000	0,210000	2020-10-13T22:56:06:730
-4,690000	0,910000	-0,350000	2020-10-13T22:56:06:752
-2,730000	0,980000	-0,490000	2020-10-13T22:56:06:770
0,770000	1,050000	-0,490000	2020-10-13T22:56:06:787
1,330000	0,280000	-0,770000	2020-10-13T22:56:06:810
-0,840000	-0,280000	-1,120000	2020-10-13T22:56:06:828
-1,260000	0,420000	-1,120000	2020-10-13T22:56:06:850
0,280000	1,050000	-1,050000	2020-10-13T22:56:06:866
2,380000	0,280000	-1,330000	2020-10-13T22:56:06:891
1,890000	0,140000	-1,260000	2020-10-13T22:56:06:907
1,400000	0,560000	-1,190000	2020-10-13T22:56:06:930
1,820000	0,210000	-1,190000	2020-10-13T22:56:06:947
2,170000	-0,140000	-1,260000	2020-10-13T22:56:06:970
1,890000	0,140000	-1,260000	2020-10-13T22:56:06:987
1,680000	0,210000	-1,050000	2020-10-13T22:56:07:011
1,820000	0,840000	-1,260000	2020-10-13T22:56:07:029
3,010000	1,330000	-1,820000	2020-10-13T22:56:07:050
7,980000	3,080000	-2,170000	2020-10-13T22:56:07:067
11,760000	4,130000	-2,030000	2020-10-13T22:56:07:096
18,200001	3,710000	-1,960000	2020-10-13T22:56:07:107
15,680000	0,840000	-2,310000	2020-10-13T22:56:07:132
-11,130000	0,070000	1,330000	2020-10-13T22:56:07:148
-2,590000	2,030000	-1,120000	2020-10-13T22:56:07:170
-1,120000	-0,560000	-0,770000	2020-10-13T22:56:07:187
-4,410000	-0,210000	-0,490000	2020-10-13T22:56:07:210
-4,970000	0,280000	-0,140000	2020-10-13T22:56:07:227
-4,830000	-0,210000	0,070000	2020-10-13T22:56:07:251
-4,620000	-0,140000	0,070000	2020-10-13T22:56:07:268
-2,520000	1,120000	0,210000	2020-10-13T22:56:07:290
1,960000	2,100000	0,910000	2020-10-13T22:56:07:307
4,970000	1,610000	1,120000	2020-10-13T22:56:07:332
4,130000	1,400000	0,770000	2020-10-13T22:56:07:348
-0,560000	0,490000	-0,070000	2020-10-13T22:56:07:372
-4,970000	1,050000	-0,420000	2020-10-13T22:56:07:387
-5,810000	1,120000	-0,350000	2020-10-13T22:56:07:410
-3,710000	0,070000	-0,070000	2020-10-13T22:56:07:428
-1,820000	-0,070000	-0,140000	2020-10-13T22:56:07:452
-2,030000	-0,700000	-0,070000	2020-10-13T22:56:07:467
-2,520000	-0,490000	-0,140000	2020-10-13T22:56:07:490
-2,940000	-0,070000	-0,140000	2020-10-13T22:56:07:508
-2,800000	-0,770000	-0,350000	2020-10-13T22:56:07:532
-2,660000	-1,190000	-0,700000	2020-10-13T22:56:07:548
-3,500000	-0,770000	-0,840000	2020-10-13T22:56:07:571
-3,640000	-0,560000	-0,630000	2020-10-13T22:56:07:587
-2,590000	-0,420000	-0,700000	2020-10-13T22:56:07:614
-1,050000	-0,070000	-0,490000	2020-10-13T22:56:07:628
-0,490000	-0,840000	-0,630000	2020-10-13T22:56:07:651
-2,380000	-0,770000	-0,980000	2020-10-13T22:56:07:667
-3,360000	-0,560000	-0,840000	2020-10-13T22:56:07:692
-1,540000	-0,140000	-0,490000	2020-10-13T22:56:07:708
0,840000	-0,770000	-0,210000	2020-10-13T22:56:07:731
-0,070000	-0,910000	-0,420000	2020-10-13T22:56:07:748
-2,240000	-0,070000	-0,420000	2020-10-13T22:56:07:771
-2,730000	0,280000	-0,280000	2020-10-13T22:56:07:787
-1,750000	-0,420000	-0,280000	2020-10-13T22:56:07:810
-1,470000	-0,630000	-0,280000	2020-10-13T22:56:07:828
-2,170000	-0,560000	-0,210000	2020-10-13T22:56:07:855
-2,870000	-0,420000	-0,280000	2020-10-13T22:56:07:867
-2,590000	-0,350000	-0,210000	2020-10-13T22:56:07:890
-1,820000	-0,420000	-0,280000	2020-10-13T22:56:07:909
-0,840000	-0,350000	-0,420000	2020-10-13T22:56:07:935
-1,260000	-0,350000	-0,630000	2020-10-13T22:56:07:949
-0,980000	0,140000	-0,700000	2020-10-13T22:56:07:980
-0,350000	-0,070000	-0,630000	2020-10-13T22:56:07:989
-0,700000	-0,490000	-0,700000	2020-10-13T22:56:08:014
-2,380000	-0,350000	-0,630000	2020-10-13T22:56:08:029
-3,850000	0,070000	-0,210000	2020-10-13T22:56:08:051
-3,150000	-0,770000	-0,280000	2020-10-13T22:56:08:070
-1,120000	-0,910000	0,070000	2020-10-13T22:56:08:123
0,840000	-0,560000	0,210000	2020-10-13T22:56:08:124
0,840000	-0,280000	0,420000	2020-10-13T22:56:08:132
0,420000	0,140000	0,560000	2020-10-13T22:56:08:149
0,490000	0,490000	0,980000	2020-10-13T22:56:08:192
-1,120000	-0,280000	1,050000	2020-10-13T22:56:08:193
-2,310000	0,770000	1,120000	2020-10-13T22:56:08:211
-2,660000	-0,070000	0,770000	2020-10-13T22:56:08:228
-3,150000	0,490000	0,700000	2020-10-13T22:56:08:251
-2,240000	0,350000	0,490000	2020-10-13T22:56:08:268
-1,820000	0,630000	0,280000	2020-10-13T22:56:08:291
-1,750000	0,280000	0,070000	2020-10-13T22:56:08:308
-1,190000	0,350000	-0,140000	2020-10-13T22:56:08:335
-0,910000	0,490000	-0,420000	2020-10-13T22:56:08:348
-0,630000	0,350000	-0,770000	2020-10-13T22:56:08:371
-1,330000	0,210000	-1,050000	2020-10-13T22:56:08:388
-2,380000	-0,140000	-1,260000	2020-10-13T22:56:08:412
-2,240000	0,490000	-0,770000	2020-10-13T22:56:08:429
-0,560000	0,210000	-0,700000	2020-10-13T22:56:08:452
0,070000	-0,140000	-0,700000	2020-10-13T22:56:08:468
-1,190000	-0,420000	-0,840000	2020-10-13T22:56:08:491
-1,540000	0,140000	-0,770000	2020-10-13T22:56:08:508
-1,120000	0,140000	-0,700000	2020-10-13T22:56:08:532
-0,490000	0,070000	-0,700000	2020-10-13T22:56:08:549
0,280000	-0,140000	-0,770000	2020-10-13T22:56:08:577
0,490000	-0,560000	-0,910000	2020-10-13T22:56:08:589
-0,210000	-0,490000	-1,190000	2020-10-13T22:56:08:611
-1,050000	-0,140000	-1,400000	2020-10-13T22:56:08:628
-0,700000	0,070000	-1,400000	2020-10-13T22:56:08:653
0,350000	0,070000	-1,330000	2020-10-13T22:56:08:669
0,630000	-0,420000	-1,400000	2020-10-13T22:56:08:691
-1,330000	-0,630000	-1,540000	2020-10-13T22:56:08:709
-3,640000	-0,560000	-1,680000	2020-10-13T22:56:08:733
-4,270000	-0,350000	-1,610000	2020-10-13T22:56:08:751
-2,450000	-0,350000	-1,400000	2020-10-13T22:56:08:772
-0,630000	-0,210000	-0,980000	2020-10-13T22:56:08:789
-0,490000	-0,770000	-0,700000	2020-10-13T22:56:08:838
-1,960000	-0,140000	-0,630000	2020-10-13T22:56:08:839
-2,100000	0,420000	-0,560000	2020-10-13T22:56:08:853
-1,680000	0,210000	-0,420000	2020-10-13T22:56:08:869
-2,310000	0,070000	-0,350000	2020-10-13T22:56:08:894
-2,520000	0,070000	-0,560000	2020-10-13T22:56:08:909
-1,680000	0,490000	-0,490000	2020-10-13T22:56:08:932
-0,560000	0,210000	-0,560000	2020-10-13T22:56:08:949
-0,490000	-0,140000	-0,560000	2020-10-13T22:56:08:973
-0,630000	-0,070000	-0,560000	2020-10-13T22:56:08:989
-0,280000	-0,070000	-0,630000	2020-10-13T22:56:09:012
0,910000	0,070000	-0,630000	2020-10-13T22:56:09:029
2,660000	0,420000	-0,630000	2020-10-13T22:56:09:055
2,730000	-0,140000	-0,700000	2020-10-13T22:56:09:069
0,140000	-0,350000	-0,700000	2020-10-13T22:56:09:094
-2,030000	-0,350000	-0,770000	2020-10-13T22:56:09:109
-0,280000	0,420000	-0,770000	2020-10-13T22:56:09:134
2,520000	0,420000	-0,700000	2020-10-13T22:56:09:149
2,870000	0,420000	-0,630000	2020-10-13T22:56:09:172
1,190000	-0,560000	-0,770000	2020-10-13T22:56:09:189
-1,050000	-0,350000	-0,770000	2020-10-13T22:56:09:212
-0,140000	0,070000	-0,630000	2020-10-13T22:56:09:229
1,820000	0,070000	-0,630000	2020-10-13T22:56:09:252
1,750000	-0,280000	-0,770000	2020-10-13T22:56:09:269
-0,210000	-0,280000	-0,770000	2020-10-13T22:56:09:298
-0,350000	-0,070000	-0,840000	2020-10-13T22:56:09:310
1,540000	0,350000	-0,700000	2020-10-13T22:56:09:333
3,850000	0,350000	-0,770000	2020-10-13T22:56:09:350
3,430000	0,140000	-0,840000	2020-10-13T22:56:09:379
1,470000	0,140000	-0,980000	2020-10-13T22:56:09:392
0,560000	0,140000	-0,980000	2020-10-13T22:56:09:412
1,680000	0,350000	-0,700000	2020-10-13T22:56:09:431
2,520000	-0,280000	-0,770000	2020-10-13T22:56:09:455
1,260000	0,070000	-0,700000	2020-10-13T22:56:09:469
0,630000	0,350000	-0,700000	2020-10-13T22:56:09:492
0,840000	0,350000	-0,770000	2020-10-13T22:56:09:509
1,120000	0,350000	-0,700000	2020-10-13T22:56:09:535
1,330000	-0,070000	-0,700000	2020-10-13T22:56:09:551
0,770000	-0,070000	-0,700000	2020-10-13T22:56:09:572
0,280000	-0,280000	-0,700000	2020-10-13T22:56:09:589
-0,350000	-0,140000	-0,840000	2020-10-13T22:56:09:613
0,420000	0,140000	-0,700000	2020-10-13T22:56:09:630
1,680000	0,140000	-0,630000	2020-10-13T22:56:09:653
1,190000	-0,140000	-0,700000	2020-10-13T22:56:09:669
0,350000	-0,140000	-0,770000	2020-10-13T22:56:09:693
-0,560000	-0,140000	-0,770000	2020-10-13T22:56:09:710
0,280000	0,280000	-0,840000	2020-10-13T22:56:09:733
1,680000	-0,070000	-0,910000	2020-10-13T22:56:09:750
1,960000	-0,070000	-0,910000	2020-10-13T22:56:09:775
0,770000	0,140000	-0,840000	2020-10-13T22:56:09:791
-0,280000	0,070000	-0,910000	2020-10-13T22:56:09:815
0,420000	0,910000	-0,980000	2020-10-13T22:56:09:831
2,450000	0,420000	-0,840000	2020-10-13T22:56:09:855
3,010000	0,140000	-0,770000	2020-10-13T22:56:09:892
1,050000	-0,280000	-0,700000	2020-10-13T22:56:09:892
-0,350000	-0,350000	-0,700000	2020-10-13T22:56:09:909
0,070000	0,210000	-0,770000	2020-10-13T22:56:09:934
1,960000	0,070000	-0,840000	2020-10-13T22:56:09:951
2,450000	-0,140000	-0,770000	2020-10-13T22:56:09:975
1,820000	-0,140000	-0,910000	2020-10-13T22:56:09:989
1,260000	0,350000	-0,910000	2020-10-13T22:56:10:015
1,750000	0,280000	-0,840000	2020-10-13T22:56:10:030
1,470000	0,280000	-0,980000	2020-10-13T22:56:10:061
1,050000	0,280000	-0,910000	2020-10-13T22:56:10:072
1,330000	0,630000	-0,980000	2020-10-13T22:56:10:111
1,190000	0,490000	-1,120000	2020-10-13T22:56:10:112
1,680000	0,280000	-1,190000	2020-10-13T22:56:10:132
2,240000	0,420000	-0,980000	2020-10-13T22:56:10:151
2,380000	0,420000	-0,980000	2020-10-13T22:56:10:173
2,660000	0,280000	-1,260000	2020-10-13T22:56:10:190
2,940000	0,280000	-1,120000	2020-10-13T22:56:10:213
2,730000	0,070000	-1,050000	2020-10-13T22:56:10:230
0,840000	0,350000	-0,840000	2020-10-13T22:56:10:254
0,910000	0,490000	-0,840000	2020-10-13T22:56:10:270
1,470000	0,140000	-0,770000	2020-10-13T22:56:10:293
0,560000	-0,070000	-0,630000	2020-10-13T22:56:10:310
-1,050000	-0,070000	-0,770000	2020-10-13T22:56:10:334
-2,170000	-0,350000	-0,630000	2020-10-13T22:56:10:353
-1,890000	-0,490000	-0,420000	2020-10-13T22:56:10:373
-1,890000	-0,210000	-0,350000	2020-10-13T22:56:10:390
0,490000	-0,280000	-0,350000	2020-10-13T22:56:10:413
-1,260000	-0,210000	-0,560000	2020-10-13T22:56:10:430
-2,730000	0,420000	-0,560000	2020-10-13T22:56:10:453
-2,800000	0,420000	-0,560000	2020-10-13T22:56:10:470
-2,100000	-0,210000	-0,630000	2020-10-13T22:56:10:496
-0,980000	0,560000	-0,490000	2020-10-13T22:56:10:511
0,070000	0,350000	-0,490000	2020-10-13T22:56:10:533
-0,420000	-0,350000	-0,560000	2020-10-13T22:56:10:551
-1,470000	-0,420000	-0,630000	2020-10-13T22:56:10:574
-0,350000	-0,280000	-0,700000	2020-10-13T22:56:10:590
1,680000	-0,210000	-0,770000	2020-10-13T22:56:10:613
2,450000	-0,210000	-0,840000	2020-10-13T22:56:10:631
0,980000	-0,350000	-0,910000	2020-10-13T22:56:10:653
0,490000	-0,070000	-0,840000	2020-10-13T22:56:10:670
1,820000	0,280000	-0,700000	2020-10-13T22:56:10:693
2,590000	-0,420000	-0,910000	2020-10-13T22:56:10:711
1,680000	-0,350000	-0,910000	2020-10-13T22:56:10:737
0,210000	-0,490000	-0,980000	2020-10-13T22:56:10:751
0,700000	-0,070000	-0,840000	2020-10-13T22:56:10:773
1,470000	-0,490000	-0,770000	2020-10-13T22:56:10:790
0,350000	-0,490000	-0,770000	2020-10-13T22:56:10:814
-0,840000	-0,490000	-0,910000	2020-10-13T22:56:10:831
-0,490000	-0,630000	-0,910000	2020-10-13T22:56:10:853
0,770000	-0,280000	-0,770000	2020-10-13T22:56:10:875
0,770000	-0,280000	-0,700000	2020-10-13T22:56:10:893
-0,700000	-0,700000	-0,560000	2020-10-13T22:56:10:910
-2,170000	-0,490000	-0,560000	2020-10-13T22:56:10:934
-1,330000	-0,770000	-0,700000	2020-10-13T22:56:10:960
0,070000	-0,140000	-0,560000	2020-10-13T22:56:10:982
0,980000	-0,350000	-0,630000	2020-10-13T22:56:10:993
-0,210000	-0,420000	-0,700000	2020-10-13T22:56:11:015
-0,770000	-0,420000	-0,770000	2020-10-13T22:56:11:035
0,350000	-0,420000	-0,700000	2020-10-13T22:56:11:056
0,980000	-0,350000	-0,910000	2020-10-13T22:56:11:083
0,210000	-0,070000	-0,630000	2020-10-13T22:56:11:101
-0,210000	-0,280000	-0,630000	2020-10-13T22:56:11:120
-1,540000	-0,700000	-0,700000	2020-10-13T22:56:11:136
-1,680000	-0,210000	-0,560000	2020-10-13T22:56:11:152
-0,980000	-0,280000	-0,560000	2020-10-13T22:56:11:176
-1,120000	-0,490000	-0,630000	2020-10-13T22:56:11:191
-1,400000	-0,490000	-0,490000	2020-10-13T22:56:11:214
-1,680000	-0,630000	-0,560000	2020-10-13T22:56:11:231
-2,240000	-0,770000	-0,630000	2020-10-13T22:56:11:254
-3,010000	-0,700000	-0,700000	2020-10-13T22:56:11:272
-1,820000	-0,280000	-0,630000	2020-10-13T22:56:11:294
-0,210000	-0,490000	-0,700000	2020-10-13T22:56:11:311
-0,910000	-0,560000	-0,700000	2020-10-13T22:56:11:334
-2,170000	-0,210000	-0,560000	2020-10-13T22:56:11:352
-2,030000	-0,700000	-0,700000	2020-10-13T22:56:11:374
-0,770000	-0,420000	-0,630000	2020-10-13T22:56:11:391
1,190000	-0,420000	-0,490000	2020-10-13T22:56:11:415
1,680000	-0,770000	-0,630000	2020-10-13T22:56:11:431
0,210000	-0,420000	-0,700000	2020-10-13T22:56:11:456
0,560000	-0,560000	-0,700000	2020-10-13T22:56:11:471
1,120000	-0,910000	-0,700000	2020-10-13T22:56:11:494
1,470000	-0,490000	-0,630000	2020-10-13T22:56:11:511
1,260000	-0,420000	-0,700000	2020-10-13T22:56:11:536
-0,140000	-0,560000	-0,770000	2020-10-13T22:56:11:552
-1,540000	-0,350000	-0,910000	2020-10-13T22:56:11:574
-0,700000	-0,840000	-0,490000	2020-10-13T22:56:11:591
-0,070000	-0,980000	-0,420000	2020-10-13T22:56:11:614
0,210000	-0,630000	-0,350000	2020-10-13T22:56:11:632
0,350000	-1,120000	-0,700000	2020-10-13T22:56:11:655
0,350000	-0,980000	-0,770000	2020-10-13T22:56:11:672
0,350000	-1,050000	-0,910000	2020-10-13T22:56:11:695
1,400000	-0,980000	-0,840000	2020-10-13T22:56:11:713
1,750000	-0,910000	-0,910000	2020-10-13T22:56:11:738
0,700000	-1,050000	-0,980000	2020-10-13T22:56:11:751
0,210000	-1,050000	-0,910000	2020-10-13T22:56:11:774
0,070000	-1,120000	-0,910000	2020-10-13T22:56:11:793
0,490000	-0,700000	-0,840000	2020-10-13T22:56:11:821
1,260000	-0,280000	-0,700000	2020-10-13T22:56:11:833
1,400000	-0,560000	-0,700000	2020-10-13T22:56:11:855
-0,630000	-0,420000	-0,630000	2020-10-13T22:56:11:873
-2,240000	-0,560000	-0,560000	2020-10-13T22:56:11:896
-2,170000	-0,140000	-0,560000	2020-10-13T22:56:11:912
-0,840000	-0,140000	-0,490000	2020-10-13T22:56:11:938
0,350000	-0,280000	-0,490000	2020-10-13T22:56:11:953
0,350000	0,140000	-0,490000	2020-10-13T22:56:11:993
-0,840000	-0,140000	-0,630000	2020-10-13T22:56:11:995
-1,680000	-0,210000	-0,630000	2020-10-13T22:56:12:016
-2,450000	-0,560000	-0,630000	2020-10-13T22:56:12:033
-2,380000	-0,980000	-0,350000	2020-10-13T22:56:12:055
-1,400000	-0,280000	-0,210000	2020-10-13T22:56:12:072
-0,560000	-0,630000	-0,350000	2020-10-13T22:56:12:106
-1,260000	-0,350000	-0,490000	2020-10-13T22:56:12:118
-1,400000	-0,140000	-0,560000	2020-10-13T22:56:12:135
-0,560000	-0,140000	-0,560000	2020-10-13T22:56:12:152
-0,070000	-0,070000	-0,630000	2020-10-13T22:56:12:177
0,280000	0,280000	-0,700000	2020-10-13T22:56:12:193
0,420000	0,210000	-0,700000	2020-10-13T22:56:12:214
0,420000	0,070000	-0,910000	2020-10-13T22:56:12:232
-0,490000	-0,070000	-0,910000	2020-10-13T22:56:12:255
0,560000	0,350000	-0,840000	2020-10-13T22:56:12:272
1,820000	0,490000	-0,770000	2020-10-13T22:56:12:295
1,890000	-0,280000	-0,840000	2020-10-13T22:56:12:312
0,350000	-0,490000	-0,910000	2020-10-13T22:56:12:335
-0,840000	-0,140000	-0,770000	2020-10-13T22:56:12:352
-0,140000	-0,700000	-0,910000	2020-10-13T22:56:12:375
0,560000	-0,840000	-0,770000	2020-10-13T22:56:12:392
0,840000	-0,840000	-0,840000	2020-10-13T22:56:12:418
0,840000	-0,280000	-0,910000	2020-10-13T22:56:12:433
0,770000	-0,140000	-0,910000	2020-10-13T22:56:12:456
0,630000	-0,070000	-0,840000	2020-10-13T22:56:12:472
0,630000	-0,070000	-0,840000	2020-10-13T22:56:12:495
0,630000	-0,070000	-0,700000	2020-10-13T22:56:12:512
-0,420000	0,070000	-0,700000	2020-10-13T22:56:12:535
-0,490000	-0,070000	-0,630000	2020-10-13T22:56:12:553
-0,280000	-0,350000	-0,560000	2020-10-13T22:56:12:575
-0,490000	0,140000	-0,490000	2020-10-13T22:56:12:592
-1,190000	-0,070000	-0,560000	2020-10-13T22:56:12:620
-1,750000	0,210000	-0,630000	2020-10-13T22:56:12:633
-0,210000	0,210000	-0,630000	2020-10-13T22:56:12:660
1,190000	-0,140000	-0,630000	2020-10-13T22:56:12:674
0,980000	0,210000	-0,630000	2020-10-13T22:56:12:705
0,560000	0,280000	-0,630000	2020-10-13T22:56:12:715
0,420000	0,210000	-0,700000	2020-10-13T22:56:12:736
1,120000	-0,070000	-0,770000	2020-10-13T22:56:12:755
1,750000	0,140000	-0,840000	2020-10-13T22:56:12:776
1,820000	0,140000	-0,840000	2020-10-13T22:56:12:793
1,540000	0,210000	-0,840000	2020-10-13T22:56:12:815
1,400000	0,350000	-0,840000	2020-10-13T22:56:12:832
1,190000	0,140000	-0,840000	2020-10-13T22:56:12:866
1,050000	0,140000	-0,770000	2020-10-13T22:56:12:873
0,630000	-0,280000	-0,770000	2020-10-13T22:56:12:902
0,630000	0,280000	-0,770000	2020-10-13T22:56:12:915
0,490000	0,420000	-0,700000	2020-10-13T22:56:12:935
0,910000	-0,070000	-0,700000	2020-10-13T22:56:12:953
-0,280000	0,140000	-0,700000	2020-10-13T22:56:12:976
-0,490000	0,350000	-0,700000	2020-10-13T22:56:12:993
-0,280000	-0,350000	-0,630000	2020-10-13T22:56:13:016
-0,700000	0,070000	-0,560000	2020-10-13T22:56:13:033
-1,260000	0,070000	-0,560000	2020-10-13T22:56:13:056
-1,750000	0,140000	-0,630000	2020-10-13T22:56:13:073
-1,820000	-0,280000	-0,700000	2020-10-13T22:56:13:097
-0,910000	-0,210000	-0,560000	2020-10-13T22:56:13:113
-0,350000	0,070000	-0,490000	2020-10-13T22:56:13:139
-0,140000	0,210000	-0,700000	2020-10-13T22:56:13:153
0,560000	0,210000	-0,560000	2020-10-13T22:56:13:175
0,630000	0,210000	-0,630000	2020-10-13T22:56:13:193
-0,070000	0,210000	-0,770000	2020-10-13T22:56:13:216
0,210000	0,210000	-0,770000	2020-10-13T22:56:13:233
1,190000	-0,070000	-0,770000	2020-10-13T22:56:13:256
1,330000	0,070000	-0,840000	2020-10-13T22:56:13:275
1,190000	0,210000	-0,840000	2020-10-13T22:56:13:296
1,190000	0,210000	-0,910000	2020-10-13T22:56:13:313
1,610000	0,070000	-0,840000	2020-10-13T22:56:13:336
2,100000	0,210000	-0,840000	2020-10-13T22:56:13:355
2,450000	0,140000	-0,840000	2020-10-13T22:56:13:382
2,100000	-0,070000	-0,910000	2020-10-13T22:56:13:394
0,840000	-0,140000	-0,840000	2020-10-13T22:56:13:417
0,560000	-0,140000	-0,770000	2020-10-13T22:56:13:433
1,470000	0,070000	-0,700000	2020-10-13T22:56:13:457
1,120000	-0,420000	-0,630000	2020-10-13T22:56:13:473
0,280000	-0,140000	-0,630000	2020-10-13T22:56:13:495
-0,070000	0,210000	-0,700000	2020-10-13T22:56:13:513
-0,070000	0,070000	-0,630000	2020-10-13T22:56:13:536
0,350000	-0,140000	-0,700000	2020-10-13T22:56:13:553
0,560000	0,210000	-0,560000	2020-10-13T22:56:13:576
0,490000	0,210000	-0,630000	2020-10-13T22:56:13:593
-0,140000	-0,140000	-0,630000	2020-10-13T22:56:13:618
-0,070000	-0,070000	-0,700000	2020-10-13T22:56:13:633
0,560000	-0,140000	-0,700000	2020-10-13T22:56:13:656
0,560000	0,210000	-0,630000	2020-10-13T22:56:13:678
0,420000	0,210000	-0,700000	2020-10-13T22:56:13:697
0,210000	0,070000	-0,700000	2020-10-13T22:56:13:714
0,280000	-0,140000	-0,700000	2020-10-13T22:56:13:738
0,980000	0,140000	-0,700000	2020-10-13T22:56:13:762
1,890000	-0,140000	-0,700000	2020-10-13T22:56:13:777
0,910000	-0,280000	-0,700000	2020-10-13T22:56:13:794
-0,280000	-0,280000	-0,770000	2020-10-13T22:56:13:817
0,350000	0,070000	-0,700000	2020-10-13T22:56:13:837
1,260000	0,070000	-0,770000	2020-10-13T22:56:13:858
1,330000	-0,070000	-0,770000	2020-10-13T22:56:13:874
0,630000	-0,070000	-0,770000	2020-10-13T22:56:13:896
0,490000	-0,070000	-0,700000	2020-10-13T22:56:13:914
0,490000	-0,140000	-0,770000	2020-10-13T22:56:13:937
0,210000	-0,140000	-0,770000	2020-10-13T22:56:13:954
0,210000	-0,140000	-0,770000	2020-10-13T22:56:13:976
0,420000	-0,140000	-0,770000	2020-10-13T22:56:13:994
0,140000	-0,210000	-0,700000	2020-10-13T22:56:14:017
-0,770000	-0,210000	-0,770000	2020-10-13T22:56:14:034
-0,280000	-0,210000	-0,770000	2020-10-13T22:56:14:057
0,560000	0,140000	-0,560000	2020-10-13T22:56:14:075
1,190000	0,070000	-0,560000	2020-10-13T22:56:14:102
0,140000	-0,210000	-0,560000	2020-10-13T22:56:14:114
-0,350000	-0,280000	-0,630000	2020-10-13T22:56:14:137
-0,910000	-0,420000	-0,700000	2020-10-13T22:56:14:154
0,070000	0,280000	-0,700000	2020-10-13T22:56:14:177
1,890000	-0,210000	-0,700000	2020-10-13T22:56:14:193
1,050000	-0,140000	-0,700000	2020-10-13T22:56:14:216
-0,560000	-0,210000	-0,700000	2020-10-13T22:56:14:235
-0,630000	-0,070000	-0,770000	2020-10-13T22:56:14:257
0,280000	-0,210000	-0,700000	2020-10-13T22:56:14:274
0,980000	0,210000	-0,700000	2020-10-13T22:56:14:297
0,910000	0,140000	-0,630000	2020-10-13T22:56:14:314
-0,070000	-0,490000	-0,630000	2020-10-13T22:56:14:339
-0,560000	-0,490000	-0,630000	2020-10-13T22:56:14:359
0,420000	-0,140000	-0,560000	2020-10-13T22:56:14:378
0,630000	-0,210000	-0,560000	2020-10-13T22:56:14:395
0,070000	-0,070000	-0,700000	2020-10-13T22:56:14:428
-0,350000	-0,280000	-0,630000	2020-10-13T22:56:14:437
-0,350000	-0,490000	-0,630000	2020-10-13T22:56:14:458
-0,210000	-0,350000	-0,490000	2020-10-13T22:56:14:477
-0,140000	-0,560000	-0,630000	2020-10-13T22:56:14:498
-0,980000	-0,560000	-0,560000	2020-10-13T22:56:14:515
-1,120000	-0,350000	-0,560000	2020-10-13T22:56:14:539
-0,910000	-0,420000	-0,700000	2020-10-13T22:56:14:555
-0,770000	-0,210000	-0,700000	2020-10-13T22:56:14:580
-0,350000	-0,280000	-0,630000	2020-10-13T22:56:14:596
-0,070000	-0,140000	-0,560000	2020-10-13T22:56:14:826
-0,280000	-0,140000	-0,560000	2020-10-13T22:56:14:827
-1,260000	-0,140000	-0,490000	2020-10-13T22:56:14:828
-1,120000	-0,210000	-0,490000	2020-10-13T22:56:14:828
-0,700000	-0,210000	-0,490000	2020-10-13T22:56:14:829
-0,840000	-0,210000	-0,560000	2020-10-13T22:56:14:829
-1,260000	-0,070000	-0,560000	2020-10-13T22:56:14:830
-0,770000	-0,210000	-0,560000	2020-10-13T22:56:14:830
-0,420000	-0,070000	-0,490000	2020-10-13T22:56:14:831
-0,490000	-0,420000	-0,490000	2020-10-13T22:56:14:831
-1,540000	-0,140000	-0,490000	2020-10-13T22:56:14:832
-1,470000	-0,210000	-0,560000	2020-10-13T22:56:14:833
-0,630000	-0,210000	-0,560000	2020-10-13T22:56:14:856
0,210000	-0,070000	-0,490000	2020-10-13T22:56:14:874
0,210000	-0,490000	-0,630000	2020-10-13T22:56:14:896
-0,070000	-0,560000	-0,700000	2020-10-13T22:56:14:915
-0,210000	-0,560000	-0,700000	2020-10-13T22:56:14:938
0,350000	-0,630000	-0,700000	2020-10-13T22:56:14:957
0,910000	-0,280000	-0,770000	2020-10-13T22:56:14:986
0,630000	-0,280000	-0,700000	2020-10-13T22:56:14:995
-0,490000	-0,560000	-0,700000	2020-10-13T22:56:15:018
-0,770000	-0,560000	-0,630000	2020-10-13T22:56:15:034
0,350000	-0,560000	-0,630000	2020-10-13T22:56:15:062
0,770000	-0,280000	-0,630000	2020-10-13T22:56:15:080
0,350000	-0,210000	-0,560000	2020-10-13T22:56:15:100
-0,350000	-0,490000	-0,630000	2020-10-13T22:56:15:115
-1,470000	-0,560000	-0,630000	2020-10-13T22:56:15:138
-0,910000	-0,280000	-0,560000	2020-10-13T22:56:15:155
1,190000	-0,070000	-0,490000	2020-10-13T22:56:15:178
1,260000	-0,560000	-0,560000	2020-10-13T22:56:15:204
-0,700000	-0,490000	-0,560000	2020-10-13T22:56:15:227
-1,470000	-0,560000	-0,630000	2020-10-13T22:56:15:236
-0,420000	-0,350000	-0,630000	2020-10-13T22:56:15:257
0,210000	-0,980000	-0,700000	2020-10-13T22:56:15:275
-0,770000	-0,980000	-0,770000	2020-10-13T22:56:15:309
-1,680000	-0,980000	-0,770000	2020-10-13T22:56:15:324
-0,910000	-0,630000	-0,910000	2020-10-13T22:56:15:336
0,280000	-0,210000	-0,840000	2020-10-13T22:56:15:354
1,890000	-0,350000	-0,840000	2020-10-13T22:56:15:376
1,750000	-0,140000	-0,840000	2020-10-13T22:56:15:394
0,840000	0,070000	-0,770000	2020-10-13T22:56:15:416
0,420000	-0,210000	-0,770000	2020-10-13T22:56:15:435
-0,280000	0,140000	-0,630000	2020-10-13T22:56:15:458
0,280000	0,210000	-0,700000	2020-10-13T22:56:15:475
0,350000	0,070000	-0,630000	2020-10-13T22:56:15:498
0,210000	-0,280000	-0,560000	2020-10-13T22:56:15:515
-0,490000	-0,210000	-0,490000	2020-10-13T22:56:15:547
-0,980000	-0,140000	-0,630000	2020-10-13T22:56:15:557
-0,420000	0,140000	-0,700000	2020-10-13T22:56:15:579
0,490000	-0,280000	-0,700000	2020-10-13T22:56:15:596
0,350000	-0,350000	-0,700000	2020-10-13T22:56:15:622
0,350000	-0,350000	-0,630000	2020-10-13T22:56:15:638
0,210000	0,070000	-0,700000	2020-10-13T22:56:15:659
0,630000	0,070000	-0,770000	2020-10-13T22:56:15:675
1,470000	0,070000	-0,770000	2020-10-13T22:56:15:702
1,890000	0,070000	-0,770000	2020-10-13T22:56:15:715
1,260000	0,070000	-0,840000	2020-10-13T22:56:15:738
0,560000	-0,140000	-0,840000	2020-10-13T22:56:15:756
0,630000	-0,140000	-0,770000	2020-10-13T22:56:15:789
0,770000	0,070000	-0,700000	2020-10-13T22:56:15:796
0,840000	0,070000	-0,700000	2020-10-13T22:56:15:817
1,050000	0,210000	-0,770000	2020-10-13T22:56:15:838
0,420000	-0,210000	-0,700000	2020-10-13T22:56:15:870
-0,140000	-0,280000	-0,700000	2020-10-13T22:56:15:879
0,350000	0,070000	-0,630000	2020-10-13T22:56:15:899
0,910000	-0,070000	-0,770000	2020-10-13T22:56:15:916
0,070000	-0,140000	-0,700000	2020-10-13T22:56:15:939
-0,280000	-0,280000	-0,700000	2020-10-13T22:56:15:955
-0,210000	-0,280000	-0,630000	2020-10-13T22:56:15:977
0,280000	-0,140000	-0,630000	2020-10-13T22:56:15:996
-0,420000	-0,490000	-0,700000	2020-10-13T22:56:16:022
-0,280000	-0,070000	-0,630000	2020-10-13T22:56:16:037
0,490000	-0,070000	-0,630000	2020-10-13T22:56:16:062
0,420000	-0,140000	-0,700000	2020-10-13T22:56:16:080
0,490000	0,070000	-0,700000	2020-10-13T22:56:16:099
1,190000	0,280000	-0,700000	2020-10-13T22:56:16:116
0,910000	0,070000	-0,770000	2020-10-13T22:56:16:138
-0,070000	-0,070000	-0,770000	2020-10-13T22:56:16:157
-0,070000	-0,070000	-0,630000	2020-10-13T22:56:16:179
0,560000	-0,280000	-0,700000	2020-10-13T22:56:16:196
0,420000	0,140000	-0,700000	2020-10-13T22:56:16:219
0,070000	-0,350000	-0,700000	2020-10-13T22:56:16:236
0,280000	0,070000	-0,630000	2020-10-13T22:56:16:260
0,350000	0,070000	-0,630000	2020-10-13T22:56:16:277
-0,420000	-0,070000	-0,630000	2020-10-13T22:56:16:298
-0,700000	-0,070000	-0,630000	2020-10-13T22:56:16:316
0,420000	-0,070000	-0,630000	2020-10-13T22:56:16:339
0,630000	-0,140000	-0,630000	2020-10-13T22:56:16:357
-0,350000	-0,140000	-0,700000	2020-10-13T22:56:16:379
-0,280000	0,070000	-0,630000	2020-10-13T22:56:16:397
0,980000	0,070000	-0,700000	2020-10-13T22:56:16:419
1,190000	-0,070000	-0,700000	2020-10-13T22:56:16:436
0,840000	-0,070000	-0,770000	2020-10-13T22:56:16:465
0,770000	0,140000	-0,770000	2020-10-13T22:56:16:477
1,050000	0,140000	-0,630000	2020-10-13T22:56:16:503
1,260000	0,070000	-0,770000	2020-10-13T22:56:16:518
1,190000	-0,140000	-0,770000	2020-10-13T22:56:16:543
1,260000	-0,140000	-0,770000	2020-10-13T22:56:16:558
1,260000	0,070000	-0,700000	2020-10-13T22:56:16:579
0,980000	-0,070000	-0,700000	2020-10-13T22:56:16:598
0,910000	0,140000	-0,700000	2020-10-13T22:56:16:618
1,120000	-0,070000	-0,700000	2020-10-13T22:56:16:637
0,560000	-0,070000	-0,770000	2020-10-13T22:56:16:660
0,630000	-0,070000	-0,770000	2020-10-13T22:56:16:686
1,400000	0,070000	-0,770000	2020-10-13T22:56:16:701
1,120000	-0,210000	-0,770000	2020-10-13T22:56:16:717
0,140000	-0,140000	-0,840000	2020-10-13T22:56:16:745
0,770000	-0,070000	-0,840000	2020-10-13T22:56:16:757
2,170000	-0,280000	-0,840000	2020-10-13T22:56:16:778
2,450000	-0,070000	-0,910000	2020-10-13T22:56:16:796
1,750000	-0,070000	-0,980000	2020-10-13T22:56:16:819
1,120000	-0,070000	-0,980000	2020-10-13T22:56:16:836
0,700000	-0,210000	-0,980000	2020-10-13T22:56:16:859
0,980000	-0,280000	-0,980000	2020-10-13T22:56:16:877
1,540000	-0,280000	-0,980000	2020-10-13T22:56:16:899
1,470000	0,140000	-0,910000	2020-10-13T22:56:16:927
1,190000	0,210000	-0,980000	2020-10-13T22:56:16:940
0,840000	-0,070000	-0,840000	2020-10-13T22:56:16:957
1,120000	-0,070000	-0,910000	2020-10-13T22:56:16:982
1,470000	0,350000	-0,910000	2020-10-13T22:56:16:997
1,960000	0,350000	-0,910000	2020-10-13T22:56:17:019
0,980000	0,350000	-0,840000	2020-10-13T22:56:17:037
0,630000	0,490000	-0,770000	2020-10-13T22:56:17:060
0,910000	0,490000	-0,700000	2020-10-13T22:56:17:077
0,980000	0,280000	-0,770000	2020-10-13T22:56:17:100
0,210000	0,420000	-0,770000	2020-10-13T22:56:17:119
0,210000	0,350000	-0,770000	2020-10-13T22:56:17:140
0,560000	0,350000	-0,770000	2020-10-13T22:56:17:157
0,350000	-0,140000	-0,770000	2020-10-13T22:56:17:179
-0,560000	-0,280000	-0,840000	2020-10-13T22:56:17:197
-0,140000	0,070000	-0,840000	2020-10-13T22:56:17:221
1,890000	0,210000	-0,840000	2020-10-13T22:56:17:237
3,290000	0,210000	-0,700000	2020-10-13T22:56:17:264
2,380000	0,210000	-0,770000	2020-10-13T22:56:17:277
0,560000	0,280000	-0,840000	2020-10-13T22:56:17:300
0,070000	-0,070000	-0,770000	2020-10-13T22:56:17:317
0,910000	-0,070000	-0,770000	2020-10-13T22:56:17:339
1,190000	-0,070000	-0,630000	2020-10-13T22:56:17:358
0,840000	0,070000	-0,700000	2020-10-13T22:56:17:380
0,280000	-0,280000	-0,630000	2020-10-13T22:56:17:397
0,280000	-0,280000	-0,700000	2020-10-13T22:56:17:420
0,490000	-0,140000	-0,700000	2020-10-13T22:56:17:472
0,840000	-0,280000	-0,700000	2020-10-13T22:56:17:473
0,420000	-0,210000	-0,700000	2020-10-13T22:56:17:481
0,140000	-0,210000	-0,700000	2020-10-13T22:56:17:502
0,070000	-0,280000	-0,700000	2020-10-13T22:56:17:521
-0,070000	-0,210000	-0,700000	2020-10-13T22:56:17:541
-0,070000	-0,070000	-0,700000	2020-10-13T22:56:17:558
0,700000	-0,280000	-0,770000	2020-10-13T22:56:17:580
1,190000	-0,560000	-0,910000	2020-10-13T22:56:17:600
1,190000	-0,700000	-1,050000	2020-10-13T22:56:17:621
1,400000	-0,420000	-0,980000	2020-10-13T22:56:17:637
1,260000	-0,700000	-0,980000	2020-10-13T22:56:17:661
0,210000	-0,630000	-0,910000	2020-10-13T22:56:17:677
-0,280000	-0,490000	-0,700000	2020-10-13T22:56:17:700
-0,350000	-0,140000	-0,560000	2020-10-13T22:56:17:717
-0,840000	-0,140000	-0,490000	2020-10-13T22:56:17:739
-1,960000	-0,140000	-0,350000	2020-10-13T22:56:17:758
-2,310000	-0,210000	-0,420000	2020-10-13T22:56:17:780
-1,400000	-0,070000	-0,420000	2020-10-13T22:56:17:797
-0,560000	0,070000	-0,490000	2020-10-13T22:56:17:819
-0,210000	0,210000	-0,560000	2020-10-13T22:56:17:837
-0,140000	-0,140000	-0,490000	2020-10-13T22:56:17:861
-0,630000	-0,280000	-0,630000	2020-10-13T22:56:17:877
-0,350000	-0,070000	-0,630000	2020-10-13T22:56:17:900
1,540000	0,350000	-0,700000	2020-10-13T22:56:17:918
2,800000	-0,070000	-0,770000	2020-10-13T22:56:17:941
1,610000	0,140000	-0,840000	2020-10-13T22:56:17:958
0,420000	0,280000	-0,700000	2020-10-13T22:56:17:984
0,910000	0,210000	-0,700000	2020-10-13T22:56:17:997
1,540000	-0,280000	-0,700000	2020-10-13T22:56:18:021
1,470000	-0,280000	-0,700000	2020-10-13T22:56:18:037
1,610000	-0,140000	-0,700000	2020-10-13T22:56:18:061
0,910000	-0,210000	-0,630000	2020-10-13T22:56:18:083
-0,350000	-0,210000	-0,700000	2020-10-13T22:56:18:110
-1,260000	-0,350000	-0,560000	2020-10-13T22:56:18:117
-1,330000	-0,770000	-0,630000	2020-10-13T22:56:18:141
-0,910000	-0,210000	-0,490000	2020-10-13T22:56:18:158
-0,350000	-0,700000	-0,490000	2020-10-13T22:56:18:182
-0,560000	-0,140000	-0,490000	2020-10-13T22:56:18:198
-0,980000	-0,280000	-0,560000	2020-10-13T22:56:18:220
-1,680000	-0,700000	-0,630000	2020-10-13T22:56:18:238
-1,050000	-0,560000	-0,490000	2020-10-13T22:56:18:261
-0,490000	-0,210000	-0,420000	2020-10-13T22:56:18:277
-0,980000	-0,210000	-0,490000	2020-10-13T22:56:18:300
-2,030000	-0,070000	-0,420000	2020-10-13T22:56:18:318
-1,960000	-0,350000	-0,490000	2020-10-13T22:56:18:341
-0,910000	-0,280000	-0,420000	2020-10-13T22:56:18:360
-0,910000	-0,840000	-0,490000	2020-10-13T22:56:18:381
-1,260000	-0,420000	-0,490000	2020-10-13T22:56:18:397
-0,560000	-0,210000	-0,420000	2020-10-13T22:56:18:422
-0,210000	-0,210000	-0,560000	2020-10-13T22:56:18:437
-0,560000	-0,140000	-0,490000	2020-10-13T22:56:18:460
-0,350000	-0,350000	-0,560000	2020-10-13T22:56:18:477
-0,070000	-0,560000	-0,560000	2020-10-13T22:56:18:503
0,420000	-0,280000	-0,630000	2020-10-13T22:56:18:518
0,840000	-0,140000	-0,700000	2020-10-13T22:56:18:541
0,910000	-0,140000	-0,700000	2020-10-13T22:56:18:566
1,260000	-0,280000	-0,770000	2020-10-13T22:56:18:589
0,560000	-0,210000	-0,770000	2020-10-13T22:56:18:603
0,140000	-0,280000	-0,770000	2020-10-13T22:56:18:622
0,420000	-0,210000	-0,700000	2020-10-13T22:56:18:637
0,630000	-0,280000	-0,630000	2020-10-13T22:56:18:665
0,280000	-0,420000	-0,630000	2020-10-13T22:56:18:681
0,210000	-0,210000	-0,630000	2020-10-13T22:56:18:701
0,070000	0,140000	-0,700000	2020-10-13T22:56:18:717
0,210000	-0,210000	-0,770000	2020-10-13T22:56:18:756
0,420000	-0,140000	-0,630000	2020-10-13T22:56:18:759
0,700000	-0,140000	-0,700000	2020-10-13T22:56:18:779
-0,210000	-0,140000	-0,630000	2020-10-13T22:56:18:797
-0,630000	-0,490000	-0,630000	2020-10-13T22:56:18:820
-0,280000	-0,210000	-0,630000	2020-10-13T22:56:18:836
0,280000	-0,490000	-0,700000	2020-10-13T22:56:18:860
0,630000	-0,210000	-0,700000	2020-10-13T22:56:18:877
0,770000	-0,280000	-0,700000	2020-10-13T22:56:18:905
0,280000	-0,210000	-0,700000	2020-10-13T22:56:18:919
0,560000	-0,140000	-0,700000	2020-10-13T22:56:18:940
0,980000	0,070000	-0,700000	2020-10-13T22:56:18:958
0,840000	0,070000	-0,630000	2020-10-13T22:56:18:981
0,980000	0,280000	-0,770000	2020-10-13T22:56:18:997
1,470000	0,210000	-0,770000	2020-10-13T22:56:19:021
1,750000	-0,140000	-0,770000	2020-10-13T22:56:19:038
1,120000	-0,070000	-0,770000	2020-10-13T22:56:19:061
0,630000	0,210000	-0,700000	2020-10-13T22:56:19:085
0,630000	0,210000	-0,700000	2020-10-13T22:56:19:103
0,350000	0,350000	-0,560000	2020-10-13T22:56:19:118
0,280000	0,070000	-0,560000	2020-10-13T22:56:19:143
-0,490000	0,070000	-0,490000	2020-10-13T22:56:19:158
-1,400000	0,140000	-0,490000	2020-10-13T22:56:19:181
-1,050000	0,140000	-0,490000	2020-10-13T22:56:19:198
-0,350000	-0,070000	-0,560000	2020-10-13T22:56:19:221
-0,140000	-0,140000	-0,490000	2020-10-13T22:56:19:238
-0,840000	-0,210000	-0,560000	2020-10-13T22:56:19:261
-0,840000	0,070000	-0,630000	2020-10-13T22:56:19:278
0,140000	0,140000	-0,630000	2020-10-13T22:56:19:302
0,700000	-0,070000	-0,700000	2020-10-13T22:56:19:318
1,050000	-0,070000	-0,630000	2020-10-13T22:56:19:341
1,050000	0,070000	-0,700000	2020-10-13T22:56:19:358
1,120000	0,140000	-0,700000	2020-10-13T22:56:19:382
0,910000	-0,070000	-0,770000	2020-10-13T22:56:19:398
1,260000	0,070000	-0,630000	2020-10-13T22:56:19:421
1,610000	-0,210000	-0,630000	2020-10-13T22:56:19:438
0,140000	0,070000	-0,630000	2020-10-13T22:56:19:462
-0,700000	0,210000	-0,700000	2020-10-13T22:56:19:478
-0,210000	0,210000	-0,630000	2020-10-13T22:56:19:501
0,980000	-0,210000	-0,630000	2020-10-13T22:56:19:519
0,700000	-0,420000	-0,630000	2020-10-13T22:56:19:541
-0,070000	-0,210000	-0,630000	2020-10-13T22:56:19:559
-0,140000	0,070000	-0,700000	2020-10-13T22:56:19:581
0,350000	0,140000	-0,770000	2020-10-13T22:56:19:598
0,910000	-0,210000	-0,700000	2020-10-13T22:56:19:624
0,560000	-0,420000	-0,700000	2020-10-13T22:56:19:638
0,070000	-0,070000	-0,630000	2020-10-13T22:56:19:661
0,490000	0,070000	-0,630000	2020-10-13T22:56:19:678
0,490000	-0,210000	-0,630000	2020-10-13T22:56:19:701
0,070000	-0,280000	-0,630000	2020-10-13T22:56:19:720
0,280000	-0,070000	-0,700000	2020-10-13T22:56:19:743
0,840000	0,140000	-0,630000	2020-10-13T22:56:19:760
0,840000	-0,070000	-0,700000	2020-10-13T22:56:19:782
0,210000	-0,070000	-0,630000	2020-10-13T22:56:19:798
0,070000	0,140000	-0,700000	2020-10-13T22:56:19:829
0,210000	-0,210000	-0,700000	2020-10-13T22:56:19:838
0,140000	-0,140000	-0,700000	2020-10-13T22:56:19:863
0,070000	-0,140000	-0,560000	2020-10-13T22:56:19:878
-0,070000	0,140000	-0,630000	2020-10-13T22:56:19:900
0,140000	-0,140000	-0,700000	2020-10-13T22:56:19:919
0,140000	0,280000	-0,630000	2020-10-13T22:56:19:941
-0,350000	0,280000	-0,630000	2020-10-13T22:56:19:959
-1,400000	-0,140000	-0,560000	2020-10-13T22:56:20:014
-0,980000	0,070000	-0,490000	2020-10-13T22:56:20:015
0,420000	0,140000	-0,560000	2020-10-13T22:56:20:023
0,560000	-0,070000	-0,490000	2020-10-13T22:56:20:039
-0,630000	-0,070000	-0,560000	2020-10-13T22:56:20:062
-1,470000	-0,210000	-0,560000	2020-10-13T22:56:20:087
-0,560000	-0,210000	-0,560000	2020-10-13T22:56:20:107
0,350000	-0,210000	-0,560000	2020-10-13T22:56:20:119
0,630000	-0,210000	-0,630000	2020-10-13T22:56:20:142
1,120000	-0,070000	-0,490000	2020-10-13T22:56:20:159
0,770000	-0,490000	-0,630000	2020-10-13T22:56:20:182
-0,560000	0,140000	-0,700000	2020-10-13T22:56:20:199
-0,070000	0,140000	-0,700000	2020-10-13T22:56:20:223
1,190000	0,140000	-0,700000	2020-10-13T22:56:20:240
1,050000	-0,070000	-0,630000	2020-10-13T22:56:20:262
-0,350000	0,350000	-0,560000	2020-10-13T22:56:20:279
-0,560000	0,210000	-0,560000	2020-10-13T22:56:20:303
0,350000	0,210000	-0,560000	2020-10-13T22:56:20:319
0,980000	0,280000	-0,560000	2020-10-13T22:56:20:343
0,770000	0,140000	-0,560000	2020-10-13T22:56:20:360
0,490000	0,210000	-0,700000	2020-10-13T22:56:20:382
0,700000	0,140000	-0,770000	2020-10-13T22:56:20:399
1,470000	0,140000	-0,770000	2020-10-13T22:56:20:422
1,610000	-0,350000	-0,840000	2020-10-13T22:56:20:439
1,470000	-0,210000	-0,770000	2020-10-13T22:56:20:462
1,890000	-0,070000	-0,770000	2020-10-13T22:56:20:479
1,540000	-0,280000	-0,840000	2020-10-13T22:56:20:502
0,700000	-0,070000	-0,840000	2020-10-13T22:56:20:519
0,840000	-0,140000	-0,770000	2020-10-13T22:56:20:543
1,050000	0,140000	-0,700000	2020-10-13T22:56:20:560
0,700000	0,140000	-0,700000	2020-10-13T22:56:20:583
0,490000	0,140000	-0,700000	2020-10-13T22:56:20:606
0,770000	0,070000	-0,700000	2020-10-13T22:56:20:623
0,910000	0,070000	-0,770000	2020-10-13T22:56:20:640
0,770000	0,070000	-0,770000	2020-10-13T22:56:20:663
0,420000	0,560000	-0,700000	2020-10-13T22:56:20:685
0,980000	1,260000	-0,630000	2020-10-13T22:56:20:704
0,560000	1,960000	-0,420000	2020-10-13T22:56:20:720
-0,840000	1,960000	-0,350000	2020-10-13T22:56:20:744
-3,010000	1,120000	-0,210000	2020-10-13T22:56:20:761
-3,290000	0,630000	-0,210000	2020-10-13T22:56:20:784
-2,310000	-0,280000	-0,210000	2020-10-13T22:56:20:799
-1,680000	-0,700000	-0,210000	2020-10-13T22:56:20:827
-0,980000	-0,280000	-0,420000	2020-10-13T22:56:20:879
0,210000	-0,350000	-0,560000	2020-10-13T22:56:20:880
0,980000	-0,490000	-0,630000	2020-10-13T22:56:20:881
0,770000	-0,280000	-0,770000	2020-10-13T22:56:20:904
1,470000	-0,070000	-0,840000	2020-10-13T22:56:20:921
2,380000	-0,070000	-0,910000	2020-10-13T22:56:20:941
2,030000	-0,210000	-1,050000	2020-10-13T22:56:20:960
1,540000	-0,140000	-1,050000	2020-10-13T22:56:20:982
2,590000	-0,070000	-1,050000	2020-10-13T22:56:21:000
3,780000	-0,630000	-1,120000	2020-10-13T22:56:21:023
2,940000	-0,560000	-1,260000	2020-10-13T22:56:21:040
2,590000	-0,350000	-1,330000	2020-10-13T22:56:21:067
2,730000	-0,560000	-1,330000	2020-10-13T22:56:21:091
2,380000	-0,490000	-1,190000	2020-10-13T22:56:21:103
0,630000	-0,420000	-1,050000	2020-10-13T22:56:21:120
-0,070000	0,350000	-0,910000	2020-10-13T22:56:21:143
0,980000	0,140000	-0,630000	2020-10-13T22:56:21:160
1,120000	-0,070000	-0,630000	2020-10-13T22:56:21:182
0,350000	0,420000	-0,280000	2020-10-13T22:56:21:200
-0,420000	-0,140000	-0,350000	2020-10-13T22:56:21:224
-1,120000	-0,350000	-0,420000	2020-10-13T22:56:21:240
-0,840000	-0,210000	-0,560000	2020-10-13T22:56:21:267
0,280000	0,140000	-0,420000	2020-10-13T22:56:21:279
0,910000	-0,210000	-0,490000	2020-10-13T22:56:21:306
-0,910000	0,210000	-0,350000	2020-10-13T22:56:21:321
-1,400000	0,140000	-0,350000	2020-10-13T22:56:21:346
-0,560000	-0,070000	-0,350000	2020-10-13T22:56:21:364
-0,210000	0,070000	-0,350000	2020-10-13T22:56:21:383
0,140000	0,140000	-0,350000	2020-10-13T22:56:21:401
-0,280000	0,280000	-0,350000	2020-10-13T22:56:21:426
-0,700000	0,280000	-0,420000	2020-10-13T22:56:21:443
-0,420000	0,210000	-0,280000	2020-10-13T22:56:21:464
0,490000	0,280000	-0,420000	2020-10-13T22:56:21:480
-0,420000	0,280000	-0,350000	2020-10-13T22:56:21:503
-1,050000	0,420000	-0,350000	2020-10-13T22:56:21:534
-0,560000	0,700000	-0,210000	2020-10-13T22:56:21:545
-0,980000	0,770000	-0,280000	2020-10-13T22:56:21:561
-1,890000	1,540000	-0,280000	2020-10-13T22:56:21:584
-2,310000	1,120000	0,140000	2020-10-13T22:56:21:601
-3,080000	0,560000	0,070000	2020-10-13T22:56:21:623
-4,200000	-0,210000	-0,070000	2020-10-13T22:56:21:640
-2,940000	-1,050000	-0,350000	2020-10-13T22:56:21:663
-0,210000	-0,910000	-0,560000	2020-10-13T22:56:21:680
1,050000	-0,630000	-0,700000	2020-10-13T22:56:21:703
1,750000	-0,700000	-0,770000	2020-10-13T22:56:21:720
1,190000	-0,560000	-0,770000	2020-10-13T22:56:21:743
0,280000	-0,560000	-0,700000	2020-10-13T22:56:21:761
-0,840000	-0,560000	-0,630000	2020-10-13T22:56:21:784
-1,750000	-0,350000	-0,560000	2020-10-13T22:56:21:801
-2,590000	-0,560000	-0,490000	2020-10-13T22:56:21:823
-3,640000	-0,070000	-0,280000	2020-10-13T22:56:21:841
-3,430000	-0,070000	-0,070000	2020-10-13T22:56:21:865
-1,400000	-0,420000	0,210000	2020-10-13T22:56:21:880
-0,630000	-0,420000	0,070000	2020-10-13T22:56:21:902
-0,770000	-0,700000	-0,140000	2020-10-13T22:56:21:921
-1,400000	-0,560000	-0,210000	2020-10-13T22:56:21:944
-1,260000	-0,280000	-0,420000	2020-10-13T22:56:21:960
0,280000	0,210000	-0,560000	2020-10-13T22:56:21:983
1,190000	-0,070000	-0,770000	2020-10-13T22:56:22:000
0,840000	-0,140000	-0,770000	2020-10-13T22:56:22:026
-0,140000	-0,490000	-0,770000	2020-10-13T22:56:22:042
-0,490000	-0,420000	-0,700000	2020-10-13T22:56:22:063
0,560000	-0,840000	-0,770000	2020-10-13T22:56:22:086
1,540000	-0,770000	-0,840000	2020-10-13T22:56:22:103
1,960000	-0,420000	-0,910000	2020-10-13T22:56:22:120
1,820000	-0,280000	-0,980000	2020-10-13T22:56:22:143
2,100000	-0,280000	-1,050000	2020-10-13T22:56:22:162
2,870000	-0,280000	-1,050000	2020-10-13T22:56:22:183
2,800000	-0,350000	-1,190000	2020-10-13T22:56:22:200
2,660000	-0,420000	-1,260000	2020-10-13T22:56:22:223
2,170000	-0,140000	-1,190000	2020-10-13T22:56:22:240
3,080000	-0,140000	-1,260000	2020-10-13T22:56:22:265
3,920000	-0,210000	-1,330000	2020-10-13T22:56:22:281
3,920000	-0,630000	-1,400000	2020-10-13T22:56:22:303
3,150000	-0,560000	-1,330000	2020-10-13T22:56:22:321
2,240000	-0,560000	-1,260000	2020-10-13T22:56:22:344
1,120000	-0,280000	-1,050000	2020-10-13T22:56:22:361
1,050000	-0,140000	-0,910000	2020-10-13T22:56:22:387
0,630000	-0,280000	-0,700000	2020-10-13T22:56:22:401
-0,700000	-0,420000	-0,700000	2020-10-13T22:56:22:425
-1,190000	-0,420000	-0,560000	2020-10-13T22:56:22:442
-0,910000	-0,350000	-0,560000	2020-10-13T22:56:22:472
-1,050000	-0,490000	-0,560000	2020-10-13T22:56:22:482
-0,560000	-0,210000	-0,630000	2020-10-13T22:56:22:506
-0,560000	-0,070000	-0,630000	2020-10-13T22:56:22:526
-0,140000	-0,420000	-0,700000	2020-10-13T22:56:22:548
-0,210000	-0,070000	-0,770000	2020-10-13T22:56:22:562
0,700000	-0,210000	-0,840000	2020-10-13T22:56:22:585
1,470000	-0,140000	-0,910000	2020-10-13T22:56:22:623
1,330000	-0,210000	-0,840000	2020-10-13T22:56:22:624
0,980000	-0,140000	-0,980000	2020-10-13T22:56:22:643
0,490000	-0,280000	-0,910000	2020-10-13T22:56:22:665
0,350000	-0,070000	-0,910000	2020-10-13T22:56:22:682
0,070000	0,280000	-0,770000	2020-10-13T22:56:22:705
0,280000	0,210000	-0,700000	2020-10-13T22:56:22:721
0,210000	0,210000	-0,700000	2020-10-13T22:56:22:745
0,070000	-0,140000	-0,630000	2020-10-13T22:56:22:762
-0,140000	0,210000	-0,630000	2020-10-13T22:56:22:795
-0,700000	0,140000	-0,700000	2020-10-13T22:56:22:801
-0,700000	-0,070000	-0,700000	2020-10-13T22:56:22:824
1,750000	-0,070000	-0,840000	2020-10-13T22:56:22:841
2,800000	0,070000	-1,050000	2020-10-13T22:56:22:865
2,870000	-0,070000	-1,120000	2020-10-13T22:56:22:882
2,240000	-0,140000	-1,120000	2020-10-13T22:56:22:904
2,030000	-0,140000	-1,050000	2020-10-13T22:56:22:921
2,520000	-0,140000	-1,120000	2020-10-13T22:56:22:944
3,010000	-0,210000	-1,190000	2020-10-13T22:56:22:962
2,800000	-0,070000	-1,190000	2020-10-13T22:56:22:986
2,380000	-0,070000	-1,260000	2020-10-13T22:56:23:001
2,520000	-0,210000	-1,190000	2020-10-13T22:56:23:024
2,940000	-0,070000	-1,120000	2020-10-13T22:56:23:041
2,660000	-0,210000	-1,120000	2020-10-13T22:56:23:064
1,960000	-0,210000	-1,120000	2020-10-13T22:56:23:085
1,890000	0,140000	-1,050000	2020-10-13T22:56:23:105
2,590000	-0,210000	-1,120000	2020-10-13T22:56:23:122
2,800000	-0,420000	-1,120000	2020-10-13T22:56:23:145
2,240000	-0,490000	-1,190000	2020-10-13T22:56:23:162
1,120000	-0,910000	-1,330000	2020-10-13T22:56:23:185
0,980000	-0,420000	-1,470000	2020-10-13T22:56:23:202
2,590000	-0,630000	-1,680000	2020-10-13T22:56:23:225
3,430000	-0,350000	-1,750000	2020-10-13T22:56:23:242
3,500000	-0,140000	-1,750000	2020-10-13T22:56:23:265
2,310000	-0,700000	-1,750000	2020-10-13T22:56:23:282
0,490000	-0,560000	-1,540000	2020-10-13T22:56:23:305
0,280000	-0,560000	-1,330000	2020-10-13T22:56:23:323
1,190000	-0,560000	-1,260000	2020-10-13T22:56:23:346
2,240000	-0,280000	-1,190000	2020-10-13T22:56:23:363
2,030000	-0,350000	-1,260000	2020-10-13T22:56:23:385
1,050000	0,210000	-1,190000	2020-10-13T22:56:23:402
0,140000	-0,280000	-1,050000	2020-10-13T22:56:23:426
-0,490000	-0,280000	-0,840000	2020-10-13T22:56:23:442
-0,490000	0,140000	-0,700000	2020-10-13T22:56:23:466
-0,280000	-0,140000	-0,630000	2020-10-13T22:56:23:482
-1,330000	-0,280000	-0,490000	2020-10-13T22:56:23:506
-1,890000	-0,210000	-0,280000	2020-10-13T22:56:23:522
-3,220000	-0,210000	-0,210000	2020-10-13T22:56:23:545
-3,920000	-0,210000	-0,140000	2020-10-13T22:56:23:562
-2,870000	0,350000	-0,140000	2020-10-13T22:56:23:586
-1,050000	0,350000	-0,280000	2020-10-13T22:56:23:603
-0,490000	-0,280000	-0,280000	2020-10-13T22:56:23:625
-1,120000	0,140000	-0,350000	2020-10-13T22:56:23:642
-0,980000	0,140000	-0,420000	2020-10-13T22:56:23:666
-0,350000	-0,210000	-0,490000	2020-10-13T22:56:23:705
0,140000	-0,210000	-0,560000	2020-10-13T22:56:23:709
0,560000	0,070000	-0,560000	2020-10-13T22:56:23:722
0,210000	0,210000	-0,630000	2020-10-13T22:56:23:746
-0,910000	-0,070000	-0,630000	2020-10-13T22:56:23:762
-1,190000	-0,140000	-0,630000	2020-10-13T22:56:23:783
-0,700000	0,070000	-0,490000	2020-10-13T22:56:23:801
-0,210000	-0,140000	-0,350000	2020-10-13T22:56:23:826
-0,700000	-0,210000	-0,420000	2020-10-13T22:56:23:843
-1,260000	0,070000	-0,420000	2020-10-13T22:56:23:866
-0,070000	-0,210000	-0,630000	2020-10-13T22:56:23:882
1,470000	-0,210000	-0,770000	2020-10-13T22:56:23:906
2,310000	-0,280000	-0,910000	2020-10-13T22:56:23:923
1,820000	-0,490000	-1,120000	2020-10-13T22:56:23:947
1,750000	-0,770000	-1,120000	2020-10-13T22:56:23:963
2,310000	-0,490000	-1,120000	2020-10-13T22:56:23:986
2,100000	-0,630000	-0,980000	2020-10-13T22:56:24:003
1,260000	-0,490000	-0,840000	2020-10-13T22:56:24:026
0,140000	-0,700000	-0,700000	2020-10-13T22:56:24:043
-1,330000	-0,770000	-0,490000	2020-10-13T22:56:24:066
-2,520000	-0,910000	-0,420000	2020-10-13T22:56:24:086
-2,240000	-0,490000	-0,420000	2020-10-13T22:56:24:105
-0,910000	-0,210000	-0,490000	2020-10-13T22:56:24:122
0,140000	-0,140000	-0,630000	2020-10-13T22:56:24:147
0,700000	0,140000	-0,630000	2020-10-13T22:56:24:163
0,910000	-0,070000	-0,560000	2020-10-13T22:56:24:185
-0,070000	-0,140000	-0,630000	2020-10-13T22:56:24:203
-0,770000	0,280000	-0,560000	2020-10-13T22:56:24:226
-0,770000	0,280000	-0,630000	2020-10-13T22:56:24:243
-0,210000	-0,140000	-0,560000	2020-10-13T22:56:24:266
-0,280000	-0,140000	-0,490000	2020-10-13T22:56:24:283
-0,350000	-0,140000	-0,490000	2020-10-13T22:56:24:306
-1,050000	-0,210000	-0,420000	2020-10-13T22:56:24:323
-1,540000	-0,210000	-0,420000	2020-10-13T22:56:24:346
-0,630000	-0,140000	-0,490000	2020-10-13T22:56:24:363
0,490000	-0,140000	-0,560000	2020-10-13T22:56:24:387
0,560000	-0,140000	-0,560000	2020-10-13T22:56:24:403
-0,140000	0,210000	-0,560000	2020-10-13T22:56:24:428
-0,420000	0,140000	-0,490000	2020-10-13T22:56:24:443
-0,420000	-0,280000	-0,560000	2020-10-13T22:56:24:467
0,070000	-0,280000	-0,490000	2020-10-13T22:56:24:483
0,630000	0,140000	-0,420000	2020-10-13T22:56:24:506
-0,070000	-0,140000	-0,490000	2020-10-13T22:56:24:523
-1,190000	-0,350000	-0,560000	2020-10-13T22:56:24:546
-0,630000	0,070000	-0,560000	2020-10-13T22:56:24:564
-0,070000	-0,560000	-0,560000	2020-10-13T22:56:24:586
-0,700000	-0,280000	-0,630000	2020-10-13T22:56:24:603
-0,700000	-0,140000	-0,630000	2020-10-13T22:56:24:627
0,350000	-0,280000	-0,700000	2020-10-13T22:56:24:643
0,630000	-0,210000	-0,630000	2020-10-13T22:56:24:667
0,140000	-0,210000	-0,630000	2020-10-13T22:56:24:684
-0,490000	-0,210000	-0,700000	2020-10-13T22:56:24:707
-0,210000	0,070000	-0,630000	2020-10-13T22:56:24:723
-0,140000	-0,070000	-0,630000	2020-10-13T22:56:24:746
-0,350000	-0,070000	-0,490000	2020-10-13T22:56:24:763
-0,490000	-0,140000	-0,490000	2020-10-13T22:56:24:786
-0,630000	-0,210000	-0,420000	2020-10-13T22:56:24:803
-0,700000	-0,140000	-0,420000	2020-10-13T22:56:24:826
-0,630000	-0,070000	-0,560000	2020-10-13T22:56:24:843
-0,490000	-0,070000	-0,490000	2020-10-13T22:56:24:868
-0,420000	-0,210000	-0,560000	2020-10-13T22:56:24:883
-0,630000	-0,350000	-0,560000	2020-10-13T22:56:24:909
-0,420000	-0,140000	-0,560000	2020-10-13T22:56:24:924
-0,140000	0,070000	-0,490000	2020-10-13T22:56:24:947
-0,630000	0,070000	-0,630000	2020-10-13T22:56:24:964
-0,980000	0,140000	-0,630000	2020-10-13T22:56:24:987
-0,770000	-0,140000	-0,560000	2020-10-13T22:56:25:003
-0,420000	-0,140000	-0,630000	2020-10-13T22:56:25:027
-0,490000	-0,140000	-0,560000	2020-10-13T22:56:25:044
0,140000	0,140000	-0,630000	2020-10-13T22:56:25:067
0,140000	-0,350000	-0,700000	2020-10-13T22:56:25:090
-0,210000	-0,140000	-0,700000	2020-10-13T22:56:25:108
0,770000	0,210000	-0,700000	2020-10-13T22:56:25:124
1,610000	0,140000	-0,770000	2020-10-13T22:56:25:147
1,120000	-0,350000	-0,770000	2020-10-13T22:56:25:164
1,260000	-0,070000	-0,840000	2020-10-13T22:56:25:187
2,030000	-0,070000	-0,840000	2020-10-13T22:56:25:204
2,380000	-0,070000	-0,840000	2020-10-13T22:56:25:227
2,100000	0,280000	-0,910000	2020-10-13T22:56:25:244
2,240000	-0,140000	-0,910000	2020-10-13T22:56:25:268
3,290000	-0,070000	-0,910000	2020-10-13T22:56:25:284
3,570000	-0,350000	-0,980000	2020-10-13T22:56:25:307
2,590000	0,070000	-1,050000	2020-10-13T22:56:25:324
2,170000	0,210000	-1,050000	2020-10-13T22:56:25:348
2,730000	0,280000	-0,980000	2020-10-13T22:56:25:364
3,850000	0,210000	-0,980000	2020-10-13T22:56:25:388
3,920000	-0,070000	-1,050000	2020-10-13T22:56:25:404
2,870000	-0,420000	-0,980000	2020-10-13T22:56:25:428
1,960000	-0,420000	-1,050000	2020-10-13T22:56:25:444
2,100000	-0,560000	-1,050000	2020-10-13T22:56:25:467
3,150000	0,210000	-0,840000	2020-10-13T22:56:25:484
2,940000	-0,140000	-0,630000	2020-10-13T22:56:25:508
-0,350000	-0,140000	-0,210000	2020-10-13T22:56:25:524
-3,360000	0,350000	0,140000	2020-10-13T22:56:25:547
-4,130000	0,490000	0,350000	2020-10-13T22:56:25:565
-3,430000	0,140000	0,420000	2020-10-13T22:56:25:588
-2,800000	0,630000	0,350000	2020-10-13T22:56:25:604
-1,260000	1,400000	0,210000	2020-10-13T22:56:25:628
-0,210000	1,190000	0,070000	2020-10-13T22:56:25:645
-0,980000	0,770000	-0,070000	2020-10-13T22:56:25:668
-1,540000	0,700000	-0,210000	2020-10-13T22:56:25:684
-2,100000	0,560000	-0,420000	2020-10-13T22:56:25:707
-2,590000	0,630000	-0,420000	2020-10-13T22:56:25:724
-1,540000	0,770000	-0,350000	2020-10-13T22:56:25:748
0,280000	1,750000	0,070000	2020-10-13T22:56:25:765
0,420000	0,560000	0,280000	2020-10-13T22:56:25:787
-1,960000	0,560000	0,280000	2020-10-13T22:56:25:804
-3,920000	0,700000	0,280000	2020-10-13T22:56:25:829
-3,640000	1,120000	0,350000	2020-10-13T22:56:25:844
-2,730000	1,050000	0,280000	2020-10-13T22:56:25:869
-0,700000	1,050000	-0,140000	2020-10-13T22:56:25:885
-0,070000	-0,140000	-0,420000	2020-10-13T22:56:25:908
-0,070000	0,210000	-0,770000	2020-10-13T22:56:25:925
0,840000	-0,490000	-1,050000	2020-10-13T22:56:25:948
1,750000	-1,050000	-1,120000	2020-10-13T22:56:25:965
0,910000	-1,260000	-1,050000	2020-10-13T22:56:25:988
-0,980000	-1,260000	-0,910000	2020-10-13T22:56:26:005
-2,030000	-1,260000	-0,700000	2020-10-13T22:56:26:029
-2,380000	-1,050000	-0,420000	2020-10-13T22:56:26:046
-3,220000	-0,840000	-0,210000	2020-10-13T22:56:26:069
-3,850000	-0,350000	-0,140000	2020-10-13T22:56:26:088
-3,570000	-0,280000	-0,070000	2020-10-13T22:56:26:110
-2,590000	0,350000	0,070000	2020-10-13T22:56:26:125
-1,540000	0,140000	-0,070000	2020-10-13T22:56:26:149
-2,170000	-0,070000	-0,280000	2020-10-13T22:56:26:167
-3,290000	-0,280000	-0,350000	2020-10-13T22:56:26:187
-2,240000	-0,420000	-0,560000	2020-10-13T22:56:26:205
-0,700000	-0,350000	-0,630000	2020-10-13T22:56:26:229
-0,420000	-0,490000	-0,700000	2020-10-13T22:56:26:245
-0,490000	-0,560000	-0,700000	2020-10-13T22:56:26:268
-0,350000	-0,490000	-0,700000	2020-10-13T22:56:26:285
-0,420000	-0,630000	-0,770000	2020-10-13T22:56:26:308
-0,700000	-0,490000	-0,840000	2020-10-13T22:56:26:325
-0,490000	-0,630000	-0,840000	2020-10-13T22:56:26:348
0,210000	-0,350000	-0,840000	2020-10-13T22:56:26:365
0,350000	-0,280000	-0,770000	2020-10-13T22:56:26:388
0,350000	-0,630000	-0,770000	2020-10-13T22:56:26:405
-0,630000	-0,910000	-0,840000	2020-10-13T22:56:26:427
-1,190000	-1,050000	-0,840000	2020-10-13T22:56:26:446
-0,770000	-0,910000	-0,770000	2020-10-13T22:56:26:469
-0,630000	-0,350000	-0,630000	2020-10-13T22:56:26:485
-0,630000	-0,280000	-0,490000	2020-10-13T22:56:26:507
-0,630000	-0,560000	-0,560000	2020-10-13T22:56:26:525
-0,840000	-0,420000	-0,560000	2020-10-13T22:56:26:549
-0,910000	-0,350000	-0,560000	2020-10-13T22:56:26:565
-0,140000	-0,210000	-0,560000	2020-10-13T22:56:26:588
0,560000	-0,210000	-0,630000	2020-10-13T22:56:26:605
0,630000	-0,140000	-0,770000	2020-10-13T22:56:26:629
-0,490000	-0,280000	-0,770000	2020-10-13T22:56:26:645
-0,630000	-0,700000	-0,840000	2020-10-13T22:56:26:669
0,350000	-0,350000	-0,840000	2020-10-13T22:56:26:685
1,750000	-0,560000	-0,840000	2020-10-13T22:56:26:709
1,750000	-0,490000	-0,840000	2020-10-13T22:56:26:725
0,910000	-0,490000	-0,910000	2020-10-13T22:56:26:748
0,280000	-0,420000	-0,980000	2020-10-13T22:56:26:765
1,750000	-0,210000	-0,980000	2020-10-13T22:56:26:789
3,010000	-0,350000	-0,910000	2020-10-13T22:56:26:805
1,750000	-0,700000	-0,910000	2020-10-13T22:56:26:829
-0,140000	-0,770000	-1,050000	2020-10-13T22:56:26:845
0,350000	-0,420000	-1,120000	2020-10-13T22:56:26:869
2,730000	-0,350000	-1,120000	2020-10-13T22:56:26:885
4,130000	-0,280000	-1,260000	2020-10-13T22:56:26:908
3,780000	-0,560000	-1,190000	2020-10-13T22:56:26:925
1,680000	-0,420000	-1,120000	2020-10-13T22:56:26:950
0,840000	-0,210000	-1,050000	2020-10-13T22:56:26:966
1,260000	-0,210000	-0,840000	2020-10-13T22:56:26:989
0,700000	-0,490000	-0,770000	2020-10-13T22:56:27:005
-0,910000	-0,070000	-0,700000	2020-10-13T22:56:27:030
-1,470000	-0,210000	-0,700000	2020-10-13T22:56:27:045
-1,190000	-0,350000	-0,700000	2020-10-13T22:56:27:070
-0,420000	-0,210000	-0,490000	2020-10-13T22:56:27:085
0,280000	-0,140000	-0,560000	2020-10-13T22:56:27:109
0,280000	-0,210000	-0,630000	2020-10-13T22:56:27:125
-0,350000	-0,140000	-0,630000	2020-10-13T22:56:27:149
0,070000	-0,070000	-0,700000	2020-10-13T22:56:27:166
0,980000	-0,280000	-0,700000	2020-10-13T22:56:27:189
0,770000	-0,350000	-0,770000	2020-10-13T22:56:27:206
-0,210000	-0,070000	-0,700000	2020-10-13T22:56:27:229
-0,350000	-0,070000	-0,770000	2020-10-13T22:56:27:245
0,420000	0,070000	-0,770000	2020-10-13T22:56:27:270
0,420000	-0,280000	-0,770000	2020-10-13T22:56:27:285
0,350000	-0,070000	-0,770000	2020-10-13T22:56:27:310
1,120000	0,280000	-0,700000	2020-10-13T22:56:27:326
1,400000	-0,280000	-0,700000	2020-10-13T22:56:27:349
0,350000	-0,280000	-0,770000	2020-10-13T22:56:27:366
-0,280000	-0,070000	-0,770000	2020-10-13T22:56:27:389
0,490000	-0,070000	-0,770000	2020-10-13T22:56:27:406
1,260000	-0,070000	-0,770000	2020-10-13T22:56:27:429
1,400000	-0,140000	-0,770000	2020-10-13T22:56:27:446
0,700000	-0,210000	-0,700000	2020-10-13T22:56:27:469
-0,210000	-0,210000	-0,700000	2020-10-13T22:56:27:489
-0,490000	-0,560000	-0,700000	2020-10-13T22:56:27:513
0,490000	-0,140000	-0,700000	2020-10-13T22:56:27:525
1,050000	-0,070000	-0,630000	2020-10-13T22:56:27:549
0,560000	-0,420000	-0,700000	2020-10-13T22:56:27:567
-0,070000	0,140000	-0,630000	2020-10-13T22:56:27:589
-0,210000	-0,280000	-0,700000	2020-10-13T22:56:27:606
-0,280000	-0,070000	-0,770000	2020-10-13T22:56:27:629
0,420000	-0,140000	-0,560000	2020-10-13T22:56:27:646
0,700000	-0,280000	-0,560000	2020-10-13T22:56:27:670
0,700000	0,140000	-0,630000	2020-10-13T22:56:27:686
-0,350000	0,140000	-0,630000	2020-10-13T22:56:27:709
0,070000	-0,070000	-0,700000	2020-10-13T22:56:27:726
0,280000	-0,350000	-0,630000	2020-10-13T22:56:27:750
0,210000	-0,420000	-0,630000	2020-10-13T22:56:27:766
0,070000	0,070000	-0,700000	2020-10-13T22:56:27:789
0,280000	-0,140000	-0,770000	2020-10-13T22:56:27:806
0,980000	0,140000	-0,770000	2020-10-13T22:56:27:830
1,260000	0,070000	-0,910000	2020-10-13T22:56:27:846
0,770000	-0,140000	-0,840000	2020-10-13T22:56:27:870
0,840000	0,210000	-0,910000	2020-10-13T22:56:27:886
1,260000	0,140000	-0,840000	2020-10-13T22:56:27:910
0,840000	-0,420000	-0,910000	2020-10-13T22:56:27:927
0,280000	-0,210000	-0,770000	2020-10-13T22:56:27:949
-0,070000	-0,350000	-0,770000	2020-10-13T22:56:27:967
-0,070000	-0,350000	-0,770000	2020-10-13T22:56:27:990
0,490000	-0,210000	-0,700000	2020-10-13T22:56:28:006
0,630000	-0,350000	-0,770000	2020-10-13T22:56:28:030
0,070000	-0,140000	-0,770000	2020-10-13T22:56:28:047
0,210000	0,070000	-0,700000	2020-10-13T22:56:28:072
0,560000	-0,140000	-0,770000	2020-10-13T22:56:28:092
0,770000	-0,140000	-0,770000	2020-10-13T22:56:28:109
0,210000	-0,350000	-0,840000	2020-10-13T22:56:28:126
0,070000	-0,210000	-0,840000	2020-10-13T22:56:28:150
0,490000	-0,140000	-0,840000	2020-10-13T22:56:28:167
0,630000	-0,140000	-0,840000	2020-10-13T22:56:28:190
0,560000	-0,210000	-0,840000	2020-10-13T22:56:28:206
0,350000	-0,350000	-0,770000	2020-10-13T22:56:28:231
-0,140000	-0,350000	-0,770000	2020-10-13T22:56:28:247
0,140000	-0,140000	-0,770000	2020-10-13T22:56:28:271
0,560000	-0,140000	-0,700000	2020-10-13T22:56:28:287
0,560000	-0,070000	-0,840000	2020-10-13T22:56:28:310
0,070000	0,070000	-0,770000	2020-10-13T22:56:28:327
-0,210000	-0,210000	-0,770000	2020-10-13T22:56:28:350
0,210000	-0,070000	-0,700000	2020-10-13T22:56:28:367
0,770000	0,210000	-0,770000	2020-10-13T22:56:28:390
0,350000	0,210000	-0,700000	2020-10-13T22:56:28:407
-0,630000	0,350000	-0,770000	2020-10-13T22:56:28:430
-0,490000	0,420000	-0,910000	2020-10-13T22:56:28:447
1,610000	0,420000	-1,120000	2020-10-13T22:56:28:472
1,400000	-0,420000	-1,050000	2020-10-13T22:56:28:487
1,050000	-1,400000	-1,190000	2020-10-13T22:56:28:511
1,680000	-0,910000	-1,540000	2020-10-13T22:56:28:527
2,940000	-0,630000	-1,750000	2020-10-13T22:56:28:551
3,570000	-0,700000	-1,890000	2020-10-13T22:56:28:567
3,150000	-0,350000	-2,030000	2020-10-13T22:56:28:590
2,590000	-0,070000	-2,240000	2020-10-13T22:56:28:607
1,820000	0,070000	-1,820000	2020-10-13T22:56:28:631
1,120000	-0,140000	-1,400000	2020-10-13T22:56:28:647
0,420000	-0,140000	-0,980000	2020-10-13T22:56:28:670
-0,140000	-0,210000	-0,840000	2020-10-13T22:56:28:687
-0,140000	0,070000	-0,770000	2020-10-13T22:56:28:711
0,560000	-0,210000	-0,700000	2020-10-13T22:56:28:727
1,190000	-0,140000	-0,770000	2020-10-13T22:56:28:751
1,400000	-0,420000	-0,770000	2020-10-13T22:56:28:768
0,490000	-0,210000	-0,840000	2020-10-13T22:56:28:791
0,490000	-0,210000	-0,840000	2020-10-13T22:56:28:807
0,420000	-0,140000	-0,770000	2020-10-13T22:56:28:830
1,120000	0,070000	-0,840000	2020-10-13T22:56:28:847
1,050000	-0,210000	-0,910000	2020-10-13T22:56:28:871
0,770000	-0,140000	-0,910000	2020-10-13T22:56:28:887
1,470000	-0,140000	-0,910000	2020-10-13T22:56:28:910
1,260000	-0,070000	-0,910000	2020-10-13T22:56:28:927
-0,070000	-0,140000	-0,910000	2020-10-13T22:56:28:951
-0,350000	-0,210000	-0,840000	2020-10-13T22:56:28:968
0,490000	-0,140000	-0,840000	2020-10-13T22:56:28:991
0,980000	-0,070000	-0,770000	2020-10-13T22:56:29:007
0,560000	-0,280000	-0,840000	2020-10-13T22:56:29:032
-0,140000	-0,070000	-0,700000	2020-10-13T22:56:29:047
-0,210000	-0,070000	-0,630000	2020-10-13T22:56:29:071
-0,070000	-0,350000	-0,630000	2020-10-13T22:56:29:087
-0,280000	-0,630000	-0,700000	2020-10-13T22:56:29:111
0,070000	-0,630000	-0,630000	2020-10-13T22:56:29:128
0,770000	-0,140000	-0,700000	2020-10-13T22:56:29:150
0,420000	-0,560000	-0,700000	2020-10-13T22:56:29:168
0,210000	-0,070000	-0,770000	2020-10-13T22:56:29:192
0,490000	-0,420000	-0,700000	2020-10-13T22:56:29:208
0,700000	-0,490000	-0,700000	2020-10-13T22:56:29:231
0,280000	-0,490000	-0,630000	2020-10-13T22:56:29:248
-0,280000	-0,140000	-0,700000	2020-10-13T22:56:29:272
-0,280000	-0,140000	-0,770000	2020-10-13T22:56:29:287
0,910000	0,070000	-0,700000	2020-10-13T22:56:29:311
1,330000	-0,210000	-0,630000	2020-10-13T22:56:29:328
0,280000	-0,210000	-0,700000	2020-10-13T22:56:29:351
-0,140000	-0,560000	-0,700000	2020-10-13T22:56:29:368
0,560000	-0,140000	-0,770000	2020-10-13T22:56:29:391
1,190000	-0,350000	-0,630000	2020-10-13T22:56:29:408
0,840000	-0,420000	-0,630000	2020-10-13T22:56:29:432
-0,350000	-0,420000	-0,630000	2020-10-13T22:56:29:448
-0,770000	-0,210000	-0,560000	2020-10-13T22:56:29:471
-0,280000	-0,420000	-0,630000	2020-10-13T22:56:29:488
0,140000	-0,350000	-0,560000	2020-10-13T22:56:29:512
0,280000	-0,280000	-0,560000	2020-10-13T22:56:29:528
0,350000	-0,280000	-0,560000	2020-10-13T22:56:29:551
-0,070000	-0,140000	-0,560000	2020-10-13T22:56:29:568
-0,560000	-0,210000	-0,630000	2020-10-13T22:56:29:592
-0,490000	-0,140000	-0,630000	2020-10-13T22:56:29:608
-0,280000	-0,210000	-0,560000	2020-10-13T22:56:29:631
-0,490000	-0,210000	-0,630000	2020-10-13T22:56:29:648
-0,280000	-0,070000	-0,560000	2020-10-13T22:56:29:673
-0,140000	-0,210000	-0,560000	2020-10-13T22:56:29:688
-0,840000	-0,490000	-0,490000	2020-10-13T22:56:29:711
-1,050000	-0,350000	-0,490000	2020-10-13T22:56:29:728
-0,210000	-0,070000	-0,490000	2020-10-13T22:56:29:752
-0,210000	-0,490000	-0,490000	2020-10-13T22:56:29:768
-1,260000	-0,280000	-0,630000	2020-10-13T22:56:29:791
-1,330000	-0,210000	-0,490000	2020-10-13T22:56:29:808
-0,630000	-0,350000	-0,420000	2020-10-13T22:56:29:832
-1,120000	-0,490000	-0,560000	2020-10-13T22:56:29:849
-1,190000	-0,280000	-0,560000	2020-10-13T22:56:29:872
-0,770000	-0,700000	-0,560000	2020-10-13T22:56:29:889
-0,280000	-0,420000	-0,560000	2020-10-13T22:56:29:912
-0,140000	-0,630000	-0,560000	2020-10-13T22:56:29:928
-0,070000	-0,980000	-0,560000	2020-10-13T22:56:29:951
0,070000	-0,630000	-0,560000	2020-10-13T22:56:29:969
0,070000	-0,490000	-0,630000	2020-10-13T22:56:29:992
0,140000	-0,630000	-0,560000	2020-10-13T22:56:30:008
0,280000	-0,210000	-0,630000	2020-10-13T22:56:30:032
0,350000	-0,350000	-0,560000	2020-10-13T22:56:30:048
0,350000	-0,420000	-0,560000	2020-10-13T22:56:30:073
-0,910000	-0,700000	-0,560000	2020-10-13T22:56:30:096
-1,190000	-0,630000	-0,490000	2020-10-13T22:56:30:111
-0,770000	-0,210000	-0,560000	2020-10-13T22:56:30:129
0,350000	-0,700000	-0,630000	2020-10-13T22:56:30:153
0,630000	-0,420000	-0,630000	2020-10-13T22:56:30:169
0,140000	-0,350000	-0,630000	2020-10-13T22:56:30:194
-0,490000	-0,560000	-0,630000	2020-10-13T22:56:30:209
-0,140000	-0,420000	-0,770000	2020-10-13T22:56:30:233
0,840000	-0,350000	-0,910000	2020-10-13T22:56:30:248
1,960000	-0,490000	-0,910000	2020-10-13T22:56:30:272
2,240000	-0,070000	-0,840000	2020-10-13T22:56:30:288
1,330000	-0,630000	-0,840000	2020-10-13T22:56:30:313
-0,490000	-0,350000	-0,700000	2020-10-13T22:56:30:330
-0,630000	-0,420000	-0,700000	2020-10-13T22:56:30:352
0,350000	-0,350000	-0,700000	2020-10-13T22:56:30:370
0,910000	-0,210000	-0,700000	2020-10-13T22:56:30:393
0,280000	-0,280000	-0,630000	2020-10-13T22:56:30:409
-0,560000	-0,560000	-0,700000	2020-10-13T22:56:30:433
-0,490000	-0,070000	-0,700000	2020-10-13T22:56:30:449
0,070000	-0,490000	-0,630000	2020-10-13T22:56:30:473
-0,140000	-0,280000	-0,630000	2020-10-13T22:56:30:489
-0,420000	-0,140000	-0,700000	2020-10-13T22:56:30:512
-0,140000	-0,140000	-0,630000	2020-10-13T22:56:30:529
-0,070000	-0,490000	-0,630000	2020-10-13T22:56:30:552
-0,490000	-0,700000	-0,700000	2020-10-13T22:56:30:569
-0,420000	-0,560000	-0,700000	2020-10-13T22:56:30:592
0,070000	0,070000	-0,700000	2020-10-13T22:56:30:609
0,280000	0,070000	-0,700000	2020-10-13T22:56:30:634
0,770000	-0,210000	-0,700000	2020-10-13T22:56:30:650
0,280000	-0,140000	-0,700000	2020-10-13T22:56:30:673
-0,490000	0,070000	-0,770000	2020-10-13T22:56:30:689
-0,140000	0,210000	-0,770000	2020-10-13T22:56:30:713
0,490000	0,140000	-0,770000	2020-10-13T22:56:30:729
0,490000	-0,140000	-0,770000	2020-10-13T22:56:30:752
0,140000	-0,140000	-0,770000	2020-10-13T22:56:30:769
-0,070000	0,070000	-0,770000	2020-10-13T22:56:30:793
0,350000	0,210000	-0,700000	2020-10-13T22:56:30:809
1,050000	-0,140000	-0,700000	2020-10-13T22:56:30:832
0,770000	0,280000	-0,630000	2020-10-13T22:56:30:848
-0,070000	0,070000	-0,700000	2020-10-13T22:56:30:874
-0,350000	0,490000	-0,560000	2020-10-13T22:56:30:889
0,070000	-0,280000	-0,560000	2020-10-13T22:56:30:913
0,070000	-0,140000	-0,560000	2020-10-13T22:56:30:929
-0,700000	-0,140000	-0,490000	2020-10-13T22:56:30:953
-1,330000	-0,350000	-0,560000	2020-10-13T22:56:30:970
-0,210000	-0,350000	-0,630000	2020-10-13T22:56:30:993
1,260000	-0,070000	-0,630000	2020-10-13T22:56:31:009
1,330000	-0,140000	-0,630000	2020-10-13T22:56:31:033
-0,210000	-0,140000	-0,700000	2020-10-13T22:56:31:050
-0,140000	0,420000	-0,700000	2020-10-13T22:56:31:073
0,350000	0,140000	-0,700000	2020-10-13T22:56:31:089
1,260000	0,070000	-0,700000	2020-10-13T22:56:31:114
0,980000	0,210000	-0,770000	2020-10-13T22:56:31:130
0,770000	0,280000	-0,700000	2020-10-13T22:56:31:154
0,420000	-0,210000	-0,630000	2020-10-13T22:56:31:170
0,420000	-0,210000	-0,700000	2020-10-13T22:56:31:193
1,050000	0,070000	-0,700000	2020-10-13T22:56:31:210
0,910000	-0,070000	-0,700000	2020-10-13T22:56:31:233
0,070000	-0,210000	-0,700000	2020-10-13T22:56:31:250
-0,630000	-0,140000	-0,630000	2020-10-13T22:56:31:274
-0,630000	-0,140000	-0,630000	2020-10-13T22:56:31:290
-0,210000	-0,140000	-0,560000	2020-10-13T22:56:31:313
0,070000	-0,140000	-0,560000	2020-10-13T22:56:31:330
-0,350000	-0,350000	-0,560000	2020-10-13T22:56:31:354
-0,420000	-0,140000	-0,490000	2020-10-13T22:56:31:370
-0,280000	-0,140000	-0,560000	2020-10-13T22:56:31:394
-0,700000	-0,140000	-0,560000	2020-10-13T22:56:31:410
-0,980000	-0,140000	-0,630000	2020-10-13T22:56:31:433
-0,140000	-0,070000	-0,560000	2020-10-13T22:56:31:450
0,490000	0,070000	-0,630000	2020-10-13T22:56:31:473
0,420000	0,070000	-0,630000	2020-10-13T22:56:31:490
0,140000	-0,070000	-0,700000	2020-10-13T22:56:31:513
0,070000	0,070000	-0,700000	2020-10-13T22:56:31:530
0,280000	-0,210000	-0,700000	2020-10-13T22:56:31:553
0,630000	-0,210000	-0,700000	2020-10-13T22:56:31:571
0,980000	-0,140000	-0,770000	2020-10-13T22:56:31:594
0,770000	-0,140000	-0,700000	2020-10-13T22:56:31:610
0,770000	0,560000	-0,700000	2020-10-13T22:56:31:634
0,140000	0,070000	-0,700000	2020-10-13T22:56:31:650
0,560000	0,070000	-0,700000	2020-10-13T22:56:31:674
0,560000	-0,350000	-0,630000	2020-10-13T22:56:31:690
-0,140000	-0,140000	-0,630000	2020-10-13T22:56:31:713
-0,140000	-0,140000	-0,700000	2020-10-13T22:56:31:730
0,700000	-0,140000	-0,700000	2020-10-13T22:56:31:754
1,330000	-0,140000	-0,700000	2020-10-13T22:56:31:771
1,400000	-0,140000	-0,700000	2020-10-13T22:56:31:793
0,840000	-0,070000	-0,770000	2020-10-13T22:56:31:810
0,840000	-0,070000	-0,700000	2020-10-13T22:56:31:834
0,210000	-0,070000	-0,700000	2020-10-13T22:56:31:850
0,910000	-0,070000	-0,630000	2020-10-13T22:56:31:874
0,980000	-0,280000	-0,700000	2020-10-13T22:56:31:890
0,280000	0,070000	-0,700000	2020-10-13T22:56:31:914
-0,070000	0,070000	-0,700000	2020-10-13T22:56:31:931
0,280000	-0,140000	-0,700000	2020-10-13T22:56:31:954
0,490000	-0,140000	-0,700000	2020-10-13T22:56:31:971
0,420000	-0,140000	-0,630000	2020-10-13T22:56:31:994
-0,280000	-0,140000	-0,700000	2020-10-13T22:56:32:011
-0,350000	-0,140000	-0,700000	2020-10-13T22:56:32:034
0,070000	0,140000	-0,630000	2020-10-13T22:56:32:051
0,560000	-0,420000	-0,560000	2020-10-13T22:56:32:076
-0,070000	-0,280000	-0,630000	2020-10-13T22:56:32:091
-0,560000	-0,140000	-0,630000	2020-10-13T22:56:32:117
-0,490000	-0,070000	-0,630000	2020-10-13T22:56:32:131
0,210000	-0,070000	-0,630000	2020-10-13T22:56:32:155
0,420000	-0,070000	-0,700000	2020-10-13T22:56:32:171
-0,140000	-0,280000	-0,560000	2020-10-13T22:56:32:193
-0,350000	-0,210000	-0,560000	2020-10-13T22:56:32:211
-0,350000	-0,280000	-0,630000	2020-10-13T22:56:32:234
0,350000	0,070000	-0,630000	2020-10-13T22:56:32:251
0,280000	0,140000	-0,630000	2020-10-13T22:56:32:274
-0,070000	0,070000	-0,630000	2020-10-13T22:56:32:291
0,280000	-0,070000	-0,630000	2020-10-13T22:56:32:315
0,770000	-0,140000	-0,630000	2020-10-13T22:56:32:331
0,700000	-0,140000	-0,700000	2020-10-13T22:56:32:355
0,490000	-0,140000	-0,700000	2020-10-13T22:56:32:371
0,490000	-0,140000	-0,700000	2020-10-13T22:56:32:394
0,630000	-0,210000	-0,700000	2020-10-13T22:56:32:411
-0,070000	-0,140000	-0,630000	2020-10-13T22:56:32:434
0,210000	0,280000	-0,630000	2020-10-13T22:56:32:451
0,420000	-0,070000	-0,630000	2020-10-13T22:56:32:475
0,280000	-0,210000	-0,700000	2020-10-13T22:56:32:491
0,210000	-0,070000	-0,630000	2020-10-13T22:56:32:514
0,560000	-0,140000	-0,630000	2020-10-13T22:56:32:531
1,050000	-0,070000	-0,770000	2020-10-13T22:56:32:555
0,980000	-0,280000	-0,770000	2020-10-13T22:56:32:572
1,260000	-0,140000	-0,770000	2020-10-13T22:56:32:596
0,980000	-0,210000	-0,770000	2020-10-13T22:56:32:611
0,630000	-0,210000	-0,700000	2020-10-13T22:56:32:635
0,630000	-0,070000	-0,770000	2020-10-13T22:56:32:651
0,560000	-0,280000	-0,700000	2020-10-13T22:56:32:674
0,840000	-0,280000	-0,630000	2020-10-13T22:56:32:691
0,700000	-0,560000	-0,630000	2020-10-13T22:56:32:715
0,210000	-0,140000	-0,560000	2020-10-13T22:56:32:732
0,420000	-0,140000	-0,630000	2020-10-13T22:56:32:754
0,490000	-0,420000	-0,630000	2020-10-13T22:56:32:772
0,140000	-0,140000	-0,630000	2020-10-13T22:56:32:795
0,140000	-0,210000	-0,630000	2020-10-13T22:56:32:811
-0,070000	-0,350000	-0,560000	2020-10-13T22:56:32:835
-0,210000	-0,420000	-0,490000	2020-10-13T22:56:32:852
-0,280000	-0,210000	-0,560000	2020-10-13T22:56:32:875
-0,280000	-0,280000	-0,630000	2020-10-13T22:56:32:891
0,210000	-0,350000	-0,560000	2020-10-13T22:56:32:915
-0,070000	-0,490000	-0,490000	2020-10-13T22:56:32:932
-0,560000	-0,210000	-0,560000	2020-10-13T22:56:32:955
-0,420000	-0,210000	-0,560000	2020-10-13T22:56:32:972
0,070000	-0,420000	-0,560000	2020-10-13T22:56:32:994
-0,280000	-0,350000	-0,560000	2020-10-13T22:56:33:012
-0,140000	-0,280000	-0,490000	2020-10-13T22:56:33:036
0,070000	-0,140000	-0,560000	2020-10-13T22:56:33:052
0,070000	-0,560000	-0,560000	2020-10-13T22:56:33:076
0,140000	-0,280000	-0,560000	2020-10-13T22:56:33:092
0,210000	-0,350000	-0,560000	2020-10-13T22:56:33:115
-0,070000	-0,420000	-0,560000	2020-10-13T22:56:33:131
-0,350000	-0,350000	-0,560000	2020-10-13T22:56:33:153
-0,280000	-0,280000	-0,560000	2020-10-13T22:56:33:172
-0,140000	-0,350000	-0,630000	2020-10-13T22:56:33:195
-0,140000	-0,280000	-0,770000	2020-10-13T22:56:33:212
-0,140000	-0,140000	-0,630000	2020-10-13T22:56:33:234
0,490000	-0,560000	-0,560000	2020-10-13T22:56:33:251
0,560000	0,210000	-0,630000	2020-10-13T22:56:33:276
-0,210000	0,210000	-0,700000	2020-10-13T22:56:33:292
-0,770000	0,210000	-0,630000	2020-10-13T22:56:33:317
-0,910000	-0,630000	-0,490000	2020-10-13T22:56:33:332
-1,330000	-0,770000	-0,420000	2020-10-13T22:56:33:355
-1,120000	-0,490000	-0,420000	2020-10-13T22:56:33:372
0,070000	-0,210000	-0,560000	2020-10-13T22:56:33:395
1,050000	-0,210000	-0,560000	2020-10-13T22:56:33:412
0,910000	-0,420000	-0,630000	2020-10-13T22:56:33:435
0,140000	-0,420000	-0,630000	2020-10-13T22:56:33:452
-0,140000	-0,280000	-0,630000	2020-10-13T22:56:33:475
0,280000	-0,350000	-0,700000	2020-10-13T22:56:33:492
0,630000	-0,070000	-0,700000	2020-10-13T22:56:33:516
0,560000	-0,070000	-0,630000	2020-10-13T22:56:33:532
0,490000	0,070000	-0,700000	2020-10-13T22:56:33:556
0,140000	-0,350000	-0,700000	2020-10-13T22:56:33:573
0,140000	-0,560000	-0,700000	2020-10-13T22:56:33:595
0,280000	-0,280000	-0,630000	2020-10-13T22:56:33:612
0,560000	-0,280000	-0,700000	2020-10-13T22:56:33:635
0,350000	0,070000	-0,700000	2020-10-13T22:56:33:652
0,350000	0,070000	-0,630000	2020-10-13T22:56:33:676
0,350000	0,210000	-0,630000	2020-10-13T22:56:33:692
0,070000	-0,350000	-0,630000	2020-10-13T22:56:33:715
-0,070000	-0,140000	-0,630000	2020-10-13T22:56:33:732
-0,070000	-0,210000	-0,560000	2020-10-13T22:56:33:756
-0,210000	-0,210000	-0,630000	2020-10-13T22:56:33:773
-0,280000	-0,070000	-0,630000	2020-10-13T22:56:33:796
0,140000	-0,070000	-0,630000	2020-10-13T22:56:33:812
0,490000	-0,070000	-0,630000	2020-10-13T22:56:33:836
0,350000	-0,280000	-0,630000	2020-10-13T22:56:33:852
-0,140000	-0,140000	-0,630000	2020-10-13T22:56:33:875
-0,140000	-0,140000	-0,700000	2020-10-13T22:56:33:892
0,420000	0,140000	-0,630000	2020-10-13T22:56:33:915
0,770000	-0,070000	-0,700000	2020-10-13T22:56:33:933
0,560000	-0,070000	-0,700000	2020-10-13T22:56:33:955
0,210000	-0,070000	-0,700000	2020-10-13T22:56:33:973
0,070000	0,210000	-0,560000	2020-10-13T22:56:33:996
0,070000	0,140000	-0,630000	2020-10-13T22:56:34:012
0,070000	0,140000	-0,630000	2020-10-13T22:56:34:037
0,350000	-0,070000	-0,630000	2020-10-13T22:56:34:053
0,420000	0,140000	-0,630000	2020-10-13T22:56:34:077
-0,140000	0,140000	-0,560000	2020-10-13T22:56:34:092
-0,280000	-0,070000	-0,630000	2020-10-13T22:56:34:115
0,350000	0,070000	-0,630000	2020-10-13T22:56:34:134
0,700000	-0,070000	-0,560000	2020-10-13T22:56:34:156
0,210000	-0,070000	-0,560000	2020-10-13T22:56:34:173
-0,560000	-0,070000	-0,560000	2020-10-13T22:56:34:195
-0,700000	0,070000	-0,560000	2020-10-13T22:56:34:212
-0,560000	-0,070000	-0,560000	2020-10-13T22:56:34:237
0,070000	-0,070000	-0,560000	2020-10-13T22:56:34:253
0,280000	0,140000	-0,630000	2020-10-13T22:56:34:277
0,280000	0,140000	-0,630000	2020-10-13T22:56:34:293
0,350000	0,140000	-0,700000	2020-10-13T22:56:34:316
1,190000	-0,350000	-0,700000	2020-10-13T22:56:34:333
1,540000	-0,350000	-0,770000	2020-10-13T22:56:34:356
1,750000	-0,210000	-0,840000	2020-10-13T22:56:34:373
1,890000	0,140000	-0,840000	2020-10-13T22:56:34:396
2,170000	-0,350000	-0,840000	2020-10-13T22:56:34:415
1,680000	-0,210000	-0,840000	2020-10-13T22:56:34:436
1,190000	-0,070000	-0,770000	2020-10-13T22:56:34:453
0,840000	-0,070000	-0,630000	2020-10-13T22:56:34:477
0,420000	-0,280000	-0,700000	2020-10-13T22:56:34:493
0,560000	-0,140000	-0,560000	2020-10-13T22:56:34:517
0,070000	-0,280000	-0,490000	2020-10-13T22:56:34:533
-0,280000	-0,700000	-0,420000	2020-10-13T22:56:34:556
-0,910000	-1,120000	-0,210000	2020-10-13T22:56:34:573
-1,890000	-1,260000	-0,210000	2020-10-13T22:56:34:595
-2,100000	-1,260000	0,070000	2020-10-13T22:56:34:613
-1,960000	-1,120000	0,140000	2020-10-13T22:56:34:635
-3,290000	-1,890000	0,490000	2020-10-13T22:56:34:653
-7,210000	-2,170000	0,700000	2020-10-13T22:56:34:677
-9,030000	-2,030000	0,630000	2020-10-13T22:56:34:693
-6,580000	-1,890000	0,560000	2020-10-13T22:56:34:719
-2,870000	-2,520000	0,840000	2020-10-13T22:56:34:733
-2,240000	-2,730000	0,910000	2020-10-13T22:56:34:757
-3,220000	-1,540000	0,770000	2020-10-13T22:56:34:775
-4,200000	-0,070000	0,420000	2020-10-13T22:56:34:797
-2,870000	0,630000	0,420000	2020-10-13T22:56:34:813
-0,210000	0,910000	-0,280000	2020-10-13T22:56:34:837
1,680000	1,330000	-0,350000	2020-10-13T22:56:34:854
1,680000	1,330000	-0,630000	2020-10-13T22:56:34:877
0,910000	0,630000	-0,770000	2020-10-13T22:56:34:894
1,750000	0,840000	-0,910000	2020-10-13T22:56:34:916
3,780000	0,910000	-1,050000	2020-10-13T22:56:34:933
4,060000	0,910000	-1,050000	2020-10-13T22:56:34:958
3,290000	0,700000	-1,260000	2020-10-13T22:56:34:974
2,660000	0,980000	-1,120000	2020-10-13T22:56:34:998
2,660000	0,840000	-1,050000	2020-10-13T22:56:35:017
2,660000	0,070000	-0,700000	2020-10-13T22:56:35:042
1,260000	-0,560000	-0,490000	2020-10-13T22:56:35:058
-1,120000	-0,980000	-0,280000	2020-10-13T22:56:35:085
-2,660000	-1,610000	-0,140000	2020-10-13T22:56:35:144
-1,960000	-1,400000	0,070000	2020-10-13T22:56:35:145
-0,980000	-1,540000	0,070000	2020-10-13T22:56:35:146
-0,350000	-0,700000	0,140000	2020-10-13T22:56:35:158
2,310000	1,540000	0,210000	2020-10-13T22:56:35:173
3,290000	1,050000	0,280000	2020-10-13T22:56:35:197
1,120000	0,210000	0,910000	2020-10-13T22:56:35:324
-2,030000	0,700000	-0,700000	2020-10-13T22:56:35:328
-1,750000	2,240000	-1,120000	2020-10-13T22:56:35:338
0,490000	2,380000	-1,190000	2020-10-13T22:56:35:339
4,480000	1,190000	-1,470000	2020-10-13T22:56:35:348
4,480000	1,050000	-1,610000	2020-10-13T22:56:35:350
3,290000	1,120000	-1,680000	2020-10-13T22:56:35:351
3,010000	0,980000	-1,890000	2020-10-13T22:56:35:356
4,340000	0,560000	-2,030000	2020-10-13T22:56:35:373
6,370000	-0,420000	-2,240000	2020-10-13T22:56:35:396
7,140000	-0,280000	-2,380000	2020-10-13T22:56:35:415
6,300000	-0,560000	-2,660000	2020-10-13T22:56:35:438
5,670000	-1,260000	-2,870000	2020-10-13T22:56:35:454
5,460000	-1,260000	-2,940000	2020-10-13T22:56:35:478
5,670000	-1,120000	-2,940000	2020-10-13T22:56:35:494
5,530000	-0,210000	-3,430000	2020-10-13T22:56:35:518
5,880000	0,420000	-3,780000	2020-10-13T22:56:35:534
5,460000	-0,070000	-3,010000	2020-10-13T22:56:35:558
3,780000	0,490000	-2,590000	2020-10-13T22:56:35:575
2,450000	0,770000	-2,240000	2020-10-13T22:56:35:599
1,960000	1,330000	-1,890000	2020-10-13T22:56:35:615
1,680000	0,910000	-1,260000	2020-10-13T22:56:35:639
0,630000	0,560000	-1,400000	2020-10-13T22:56:35:654
0,140000	-0,280000	-1,890000	2020-10-13T22:56:35:679
1,330000	-2,170000	-2,660000	2020-10-13T22:56:35:694
3,990000	-2,450000	-3,920000	2020-10-13T22:56:35:719
7,350000	-2,520000	-5,250000	2020-10-13T22:56:35:735
9,240000	-2,870000	-5,880000	2020-10-13T22:56:35:758
8,190000	-2,310000	-6,300000	2020-10-13T22:56:35:775
7,560000	-2,310000	-5,600000	2020-10-13T22:56:35:798
4,900000	-2,590000	-5,180000	2020-10-13T22:56:35:815
3,990000	-1,540000	-4,060000	2020-10-13T22:56:35:838
4,200000	-0,140000	-2,870000	2020-10-13T22:56:35:855
3,290000	0,490000	-1,960000	2020-10-13T22:56:35:878
0,350000	-0,280000	-1,330000	2020-10-13T22:56:35:895
-0,560000	-0,070000	-0,840000	2020-10-13T22:56:35:919
1,260000	-0,210000	-0,350000	2020-10-13T22:56:35:935
2,380000	-0,700000	-0,280000	2020-10-13T22:56:35:959
0,630000	-0,140000	-0,210000	2020-10-13T22:56:35:976
0,070000	0,770000	-0,210000	2020-10-13T22:56:35:999
0,840000	1,190000	-0,420000	2020-10-13T22:56:36:015
1,190000	0,700000	-0,700000	2020-10-13T22:56:36:039
1,400000	-0,560000	-1,050000	2020-10-13T22:56:36:055
1,890000	-0,070000	-1,470000	2020-10-13T22:56:36:079
3,080000	-0,350000	-1,960000	2020-10-13T22:56:36:095
3,850000	-0,770000	-2,170000	2020-10-13T22:56:36:117
2,800000	-1,190000	-2,030000	2020-10-13T22:56:36:135
1,120000	-0,630000	-2,170000	2020-10-13T22:56:36:160
1,120000	-0,280000	-1,890000	2020-10-13T22:56:36:176
-0,070000	-0,070000	-1,400000	2020-10-13T22:56:36:199
0,280000	0,560000	-0,910000	2020-10-13T22:56:36:215
-0,420000	0,980000	-0,630000	2020-10-13T22:56:36:240
-3,010000	1,470000	-0,630000	2020-10-13T22:56:36:255
-4,830000	2,100000	-0,420000	2020-10-13T22:56:36:279
-4,900000	1,890000	-0,420000	2020-10-13T22:56:36:295
-3,990000	1,400000	0,210000	2020-10-13T22:56:36:319
-2,800000	1,400000	0,210000	2020-10-13T22:56:36:336
-3,990000	1,470000	0,210000	2020-10-13T22:56:36:358
-4,480000	0,980000	0,350000	2020-10-13T22:56:36:376
-2,450000	1,260000	0,700000	2020-10-13T22:56:36:399
-0,770000	1,120000	0,910000	2020-10-13T22:56:36:416
-2,170000	0,910000	0,770000	2020-10-13T22:56:36:439
-2,870000	-0,070000	0,840000	2020-10-13T22:56:36:456
-2,870000	-1,400000	1,050000	2020-10-13T22:56:36:480
8,960000	-1,050000	1,400000	2020-10-13T22:56:36:496
21,629999	1,960000	5,740000	2020-10-13T22:56:36:519
28,910000	0,840000	12,600000	2020-10-13T22:56:36:536
19,740000	-2,240000	15,610000	2020-10-13T22:56:36:559
-2,030000	-2,030000	15,890000	2020-10-13T22:56:36:576
-18,549999	-1,820000	18,969999	2020-10-13T22:56:36:599
-20,580000	-1,540000	19,320000	2020-10-13T22:56:36:616
-15,330000	-1,120000	19,320000	2020-10-13T22:56:36:639
-10,360000	-0,070000	12,670000	2020-10-13T22:56:36:656
-5,670000	-0,560000	6,720000	2020-10-13T22:56:36:680
0,560000	-2,310000	3,360000	2020-10-13T22:56:36:696
3,220000	-3,150000	2,100000	2020-10-13T22:56:36:720
4,410000	-2,100000	0,280000	2020-10-13T22:56:36:736
5,600000	0,070000	-2,520000	2020-10-13T22:56:36:759
13,160000	0,280000	-3,360000	2020-10-13T22:56:36:775
21,910000	1,890000	-3,360000	2020-10-13T22:56:36:799
23,870001	3,430000	-4,550000	2020-10-13T22:56:36:816
24,150000	2,660000	-5,670000	2020-10-13T22:56:36:839
25,480000	-1,470000	-8,680000	2020-10-13T22:56:36:856
30,100000	-3,290000	-11,270000	2020-10-13T22:56:36:880
34,650002	-4,480000	-14,560000	2020-10-13T22:56:36:896
37,380001	-4,130000	-15,050000	2020-10-13T22:56:36:920
34,230000	-2,520000	-16,870001	2020-10-13T22:56:36:936
36,470001	-1,820000	-17,710001	2020-10-13T22:56:36:960
36,820000	-1,680000	-18,760000	2020-10-13T22:56:36:976
38,709999	-1,750000	-19,040001	2020-10-13T22:56:36:999
28,980000	-5,670000	-19,250000	2020-10-13T22:56:37:016
19,670000	-6,720000	-19,250000	2020-10-13T22:56:37:040
18,410000	-5,810000	-21,210001	2020-10-13T22:56:37:056
16,450001	-4,900000	-22,049999	2020-10-13T22:56:37:084
10,780000	-3,430000	-18,900000	2020-10-13T22:56:37:098
5,320000	-3,570000	-16,799999	2020-10-13T22:56:37:121
2,730000	-4,620000	-14,910000	2020-10-13T22:56:37:136
3,010000	-3,850000	-9,730000	2020-10-13T22:56:37:159
1,610000	-2,940000	-4,200000	2020-10-13T22:56:37:177
-2,450000	-2,870000	-0,280000	2020-10-13T22:56:37:200
-7,630000	-3,570000	1,190000	2020-10-13T22:56:37:216
-13,440001	-1,610000	1,610000	2020-10-13T22:56:37:240
-14,280000	1,400000	2,940000	2020-10-13T22:56:37:256
-11,270000	1,680000	3,080000	2020-10-13T22:56:37:281
-7,210000	0,560000	3,570000	2020-10-13T22:56:37:297
-6,370000	-1,120000	3,920000	2020-10-13T22:56:37:320
-8,190000	1,680000	3,920000	2020-10-13T22:56:37:336
-8,540000	2,940000	4,480000	2020-10-13T22:56:37:361
-4,620000	3,850000	5,110000	2020-10-13T22:56:37:377
7,350000	4,900000	7,140000	2020-10-13T22:56:37:401
11,550000	3,850000	10,710000	2020-10-13T22:56:37:416
3,710000	0,280000	13,160000	2020-10-13T22:56:37:441
-17,780001	0,840000	13,930000	2020-10-13T22:56:37:456
-37,730000	1,050000	13,790000	2020-10-13T22:56:37:480
-45,360001	1,470000	10,990000	2020-10-13T22:56:37:496
-32,970001	-0,280000	8,960000	2020-10-13T22:56:37:520
-21,139999	-2,660000	6,930000	2020-10-13T22:56:37:537
-13,860000	-3,990000	6,650000	2020-10-13T22:56:37:559
-9,870000	-3,570000	5,810000	2020-10-13T22:56:37:577
-11,690000	-3,010000	5,180000	2020-10-13T22:56:37:601
-11,760000	-3,990000	4,130000	2020-10-13T22:56:37:617
-7,770000	-0,910000	1,960000	2020-10-13T22:56:37:641
-1,190000	1,960000	0,770000	2020-10-13T22:56:37:657
2,660000	2,660000	0,420000	2020-10-13T22:56:37:681
1,890000	2,940000	-0,770000	2020-10-13T22:56:37:697
-0,070000	2,590000	-1,750000	2020-10-13T22:56:37:720
3,920000	3,010000	-2,240000	2020-10-13T22:56:37:741
8,750000	6,020000	-3,010000	2020-10-13T22:56:37:761
9,310000	8,680000	-3,710000	2020-10-13T22:56:37:777
11,900000	12,180000	-3,990000	2020-10-13T22:56:37:800
-7,980000	-2,590000	-4,060000	2020-10-13T22:56:37:817
-4,060000	14,420000	-4,340000	2020-10-13T22:56:37:841
-6,790000	6,790000	-4,200000	2020-10-13T22:56:37:857
-6,790000	7,770000	-3,640000	2020-10-13T22:56:37:881
-3,010000	5,810000	-3,010000	2020-10-13T22:56:37:897
1,960000	2,170000	-2,240000	2020-10-13T22:56:37:921
4,410000	2,380000	-3,080000	2020-10-13T22:56:37:937
5,530000	4,340000	-4,830000	2020-10-13T22:56:37:960
6,510000	4,060000	-6,720000	2020-10-13T22:56:37:977
7,210000	2,240000	-8,890000	2020-10-13T22:56:38:001
9,730000	3,710000	-9,100000	2020-10-13T22:56:38:017
12,530000	3,640000	-7,280000	2020-10-13T22:56:38:041
7,840000	1,400000	-5,810000	2020-10-13T22:56:38:057
-1,890000	-0,630000	-3,500000	2020-10-13T22:56:38:083
-11,060000	-1,120000	-2,520000	2020-10-13T22:56:38:103
-15,190001	-0,770000	-1,400000	2020-10-13T22:56:38:121
-13,300000	-1,610000	-0,350000	2020-10-13T22:56:38:138
-8,750000	0,700000	-0,140000	2020-10-13T22:56:38:161
-6,300000	1,260000	1,330000	2020-10-13T22:56:38:177
-7,000000	-1,960000	2,240000	2020-10-13T22:56:38:201
-10,780000	-2,310000	2,590000	2020-10-13T22:56:38:217
-11,200000	-0,770000	2,030000	2020-10-13T22:56:38:241
-7,840000	0,840000	1,610000	2020-10-13T22:56:38:257
-3,990000	-0,630000	1,750000	2020-10-13T22:56:38:281
-1,820000	-1,820000	1,050000	2020-10-13T22:56:38:297
-1,120000	-0,910000	0,560000	2020-10-13T22:56:38:322
-2,380000	-1,190000	0,140000	2020-10-13T22:56:38:337
-4,970000	-1,750000	0,140000	2020-10-13T22:56:38:362
-4,620000	-2,100000	-0,280000	2020-10-13T22:56:38:378
-3,010000	-1,750000	-0,420000	2020-10-13T22:56:38:402
0,210000	-1,750000	-0,630000	2020-10-13T22:56:38:417
2,100000	0,350000	-0,630000	2020-10-13T22:56:38:440
1,260000	-0,630000	-0,840000	2020-10-13T22:56:38:457
-0,630000	-0,910000	-1,260000	2020-10-13T22:56:38:482
0,420000	-1,400000	-1,120000	2020-10-13T22:56:38:498
2,730000	-1,400000	-0,770000	2020-10-13T22:56:38:521
0,770000	1,050000	-0,490000	2020-10-13T22:56:38:537
-1,680000	1,050000	-0,910000	2020-10-13T22:56:38:563
-0,840000	0,140000	-1,190000	2020-10-13T22:56:38:578
4,200000	0,770000	-1,610000	2020-10-13T22:56:38:602
9,100000	1,610000	-2,450000	2020-10-13T22:56:38:618
11,830000	2,030000	-2,800000	2020-10-13T22:56:38:642
11,900000	0,910000	-2,660000	2020-10-13T22:56:38:657
10,780000	-0,280000	-2,800000	2020-10-13T22:56:38:681
8,890000	-0,140000	-3,080000	2020-10-13T22:56:38:698
8,470000	0,070000	-3,430000	2020-10-13T22:56:38:722
9,240000	-0,420000	-3,500000	2020-10-13T22:56:38:738
10,010000	-0,070000	-4,200000	2020-10-13T22:56:38:761
8,330000	0,350000	-5,670000	2020-10-13T22:56:38:777
5,950000	-0,140000	-3,150000	2020-10-13T22:56:38:802
4,900000	0,140000	-2,100000	2020-10-13T22:56:38:818
3,430000	1,050000	-0,980000	2020-10-13T22:56:38:842
0,910000	1,820000	-0,630000	2020-10-13T22:56:38:858
-3,640000	1,470000	-0,350000	2020-10-13T22:56:38:882
-5,950000	-0,280000	0,770000	2020-10-13T22:56:38:897
-6,300000	-0,910000	1,960000	2020-10-13T22:56:38:921
-7,630000	-1,750000	2,520000	2020-10-13T22:56:38:938
-10,570000	-1,330000	3,010000	2020-10-13T22:56:38:962
-14,420000	-0,840000	3,710000	2020-10-13T22:56:38:978
-16,240000	-0,140000	3,500000	2020-10-13T22:56:39:002
-16,450001	0,350000	3,220000	2020-10-13T22:56:39:017
-14,840000	0,210000	3,290000	2020-10-13T22:56:39:043
-11,340000	-0,490000	3,430000	2020-10-13T22:56:39:059
-6,650000	-0,420000	2,520000	2020-10-13T22:56:39:083
-4,900000	-1,120000	1,610000	2020-10-13T22:56:39:099
-4,340000	-1,190000	0,490000	2020-10-13T22:56:39:123
-3,080000	-0,210000	-0,420000	2020-10-13T22:56:39:139
-0,140000	0,490000	-0,910000	2020-10-13T22:56:39:162
4,340000	-0,840000	-0,350000	2020-10-13T22:56:39:179
7,210000	-1,330000	0,630000	2020-10-13T22:56:39:202
7,210000	-1,960000	0,070000	2020-10-13T22:56:39:219
4,760000	-2,800000	-0,560000	2020-10-13T22:56:39:242
1,750000	-2,310000	-1,120000	2020-10-13T22:56:39:258
0,700000	-1,330000	-1,190000	2020-10-13T22:56:39:283
1,400000	-1,540000	-1,050000	2020-10-13T22:56:39:298
2,380000	-2,870000	-0,910000	2020-10-13T22:56:39:321
3,850000	-3,640000	-0,980000	2020-10-13T22:56:39:338
5,390000	-4,130000	-1,050000	2020-10-13T22:56:39:362
5,740000	-3,640000	-1,400000	2020-10-13T22:56:39:379
3,220000	-1,610000	-1,960000	2020-10-13T22:56:39:402
0,630000	-1,610000	-2,380000	2020-10-13T22:56:39:418
-0,560000	-0,070000	-1,750000	2020-10-13T22:56:39:443
-0,070000	-0,630000	-1,400000	2020-10-13T22:56:39:458
1,400000	-0,070000	-0,980000	2020-10-13T22:56:39:482
1,050000	-0,070000	-0,560000	2020-10-13T22:56:39:498
-2,730000	-0,420000	-0,280000	2020-10-13T22:56:39:523
-7,210000	0,630000	-0,280000	2020-10-13T22:56:39:538
-7,910000	0,420000	-0,350000	2020-10-13T22:56:39:563
-5,180000	-0,070000	-0,070000	2020-10-13T22:56:39:579
-1,820000	-0,070000	0,070000	2020-10-13T22:56:39:604
-0,350000	-0,140000	0,070000	2020-10-13T22:56:39:618
-1,750000	0,350000	0,140000	2020-10-13T22:56:39:642
-3,500000	1,470000	-0,280000	2020-10-13T22:56:39:659
-4,480000	1,960000	-0,490000	2020-10-13T22:56:39:683
-3,010000	1,540000	-0,630000	2020-10-13T22:56:39:699
-0,770000	1,120000	-0,700000	2020-10-13T22:56:39:722
1,050000	1,680000	-0,700000	2020-10-13T22:56:39:739
1,750000	1,120000	-0,910000	2020-10-13T22:56:39:763
2,870000	-0,210000	-1,260000	2020-10-13T22:56:39:779
5,180000	-0,700000	-1,400000	2020-10-13T22:56:39:813
6,020000	-0,700000	-1,400000	2020-10-13T22:56:39:819
3,360000	1,470000	-1,400000	2020-10-13T22:56:39:843
0,840000	0,910000	-1,050000	2020-10-13T22:56:39:859
0,350000	-0,140000	-0,630000	2020-10-13T22:56:39:883
0,350000	-1,190000	-0,490000	2020-10-13T22:56:39:899
-2,100000	-1,050000	-0,350000	2020-10-13T22:56:39:923
-3,430000	-0,910000	-0,070000	2020-10-13T22:56:39:940
-2,240000	-1,610000	-0,280000	2020-10-13T22:56:39:963
-0,840000	-1,960000	-0,560000	2020-10-13T22:56:39:980
2,100000	-3,360000	-0,840000	2020-10-13T22:56:40:004
5,250000	-4,130000	-1,190000	2020-10-13T22:56:40:019
6,860000	-2,870000	-1,260000	2020-10-13T22:56:40:044
4,130000	-1,190000	-1,260000	2020-10-13T22:56:40:059
-1,260000	-0,350000	-1,120000	2020-10-13T22:56:40:083
-3,290000	-0,210000	-0,980000	2020-10-13T22:56:40:099
-1,400000	-0,770000	-0,840000	2020-10-13T22:56:40:123
1,820000	-1,120000	-0,910000	2020-10-13T22:56:40:139
3,150000	-1,190000	-1,050000	2020-10-13T22:56:40:163
3,010000	-1,260000	-1,050000	2020-10-13T22:56:40:180
1,120000	-1,540000	-1,120000	2020-10-13T22:56:40:202
-0,770000	-1,540000	-1,050000	2020-10-13T22:56:40:219
0,070000	-2,730000	-1,190000	2020-10-13T22:56:40:244
2,730000	-2,380000	-1,470000	2020-10-13T22:56:40:259
5,390000	-1,470000	-1,610000	2020-10-13T22:56:40:284
4,480000	-1,680000	-1,400000	2020-10-13T22:56:40:299
2,660000	-2,730000	-0,910000	2020-10-13T22:56:40:324
2,100000	-3,430000	-0,700000	2020-10-13T22:56:40:339
3,150000	-2,450000	-0,770000	2020-10-13T22:56:40:362
4,830000	-0,490000	-0,910000	2020-10-13T22:56:40:380
4,830000	0,490000	-1,330000	2020-10-13T22:56:40:403
3,430000	1,260000	-1,470000	2020-10-13T22:56:40:420
2,100000	1,120000	-1,400000	2020-10-13T22:56:40:443
2,450000	1,050000	-1,330000	2020-10-13T22:56:40:460
3,640000	1,470000	-1,330000	2020-10-13T22:56:40:485
4,270000	1,610000	-1,470000	2020-10-13T22:56:40:500
4,200000	1,890000	-1,610000	2020-10-13T22:56:40:523
2,170000	1,540000	-1,750000	2020-10-13T22:56:40:540
1,050000	1,400000	-1,610000	2020-10-13T22:56:40:563
1,400000	1,960000	-1,470000	2020-10-13T22:56:40:580
1,680000	2,170000	-1,540000	2020-10-13T22:56:40:603
1,400000	1,750000	-1,680000	2020-10-13T22:56:40:620
0,770000	2,450000	-1,890000	2020-10-13T22:56:40:643
0,840000	2,800000	-2,100000	2020-10-13T22:56:40:660
1,680000	2,240000	-1,750000	2020-10-13T22:56:40:683
2,450000	1,260000	-1,400000	2020-10-13T22:56:40:700
1,330000	1,120000	-1,190000	2020-10-13T22:56:40:724
-0,910000	1,120000	-1,260000	2020-10-13T22:56:40:740
-2,940000	0,210000	-1,260000	2020-10-13T22:56:40:764
-4,200000	-0,280000	-1,260000	2020-10-13T22:56:40:780
-4,970000	-0,630000	-1,260000	2020-10-13T22:56:40:804
-7,490000	-1,190000	-1,260000	2020-10-13T22:56:40:820
-12,250000	-2,870000	-1,330000	2020-10-13T22:56:40:843
-15,260000	-3,500000	-1,610000	2020-10-13T22:56:40:860
-14,910000	-1,820000	-1,610000	2020-10-13T22:56:40:884
-8,470000	-1,400000	-0,350000	2020-10-13T22:56:40:900
-3,150000	-1,750000	0,140000	2020-10-13T22:56:40:923
-3,150000	-1,470000	0,140000	2020-10-13T22:56:40:940
0,140000	-1,400000	-0,070000	2020-10-13T22:56:40:964
-0,700000	-1,610000	-0,140000	2020-10-13T22:56:40:980
-0,560000	-1,540000	-0,420000	2020-10-13T22:56:41:004
-0,280000	-1,260000	-0,560000	2020-10-13T22:56:41:020
1,680000	-0,350000	-0,630000	2020-10-13T22:56:41:044
3,150000	0,490000	-0,840000	2020-10-13T22:56:41:060
3,150000	0,840000	-0,980000	2020-10-13T22:56:41:084
2,660000	0,490000	-0,980000	2020-10-13T22:56:41:100
1,960000	0,840000	-0,700000	2020-10-13T22:56:41:124
1,540000	0,210000	-0,630000	2020-10-13T22:56:41:141
-0,280000	-0,210000	-0,560000	2020-10-13T22:56:41:163
-1,190000	0,070000	-0,700000	2020-10-13T22:56:41:181
0,210000	0,560000	-0,770000	2020-10-13T22:56:41:205
1,820000	0,210000	-0,560000	2020-10-13T22:56:41:221
1,680000	-0,280000	-0,490000	2020-10-13T22:56:41:245
0,560000	-0,280000	-0,490000	2020-10-13T22:56:41:261
0,140000	0,630000	-0,420000	2020-10-13T22:56:41:285
0,350000	0,210000	-0,210000	2020-10-13T22:56:41:300
-0,560000	-0,210000	0,070000	2020-10-13T22:56:41:323
-2,380000	-0,210000	0,350000	2020-10-13T22:56:41:340
-3,220000	-0,350000	0,700000	2020-10-13T22:56:41:364
-2,940000	-0,350000	1,050000	2020-10-13T22:56:41:381
-3,290000	-0,140000	1,470000	2020-10-13T22:56:41:403
-3,570000	-0,420000	1,750000	2020-10-13T22:56:41:420
-5,390000	-0,280000	2,240000	2020-10-13T22:56:41:444
-7,210000	-0,700000	3,150000	2020-10-13T22:56:41:460
-9,520000	-2,030000	4,830000	2020-10-13T22:56:41:485
-12,040000	-1,890000	5,600000	2020-10-13T22:56:41:500
-14,420000	-1,960000	6,440000	2020-10-13T22:56:41:524
-16,170000	-2,240000	7,560000	2020-10-13T22:56:41:541
-18,620001	-3,430000	10,360000	2020-10-13T22:56:41:563
-17,219999	-7,000000	12,810000	2020-10-13T22:56:41:581
3,010000	-0,490000	10,080000	2020-10-13T22:56:41:604
-0,420000	-6,790000	11,550000	2020-10-13T22:56:41:621
-16,030001	-12,390000	15,470000	2020-10-13T22:56:41:643
-16,170000	-11,130000	15,190001	2020-10-13T22:56:41:661
-9,240000	-13,230000	17,990000	2020-10-13T22:56:41:685
-5,180000	-12,600000	17,920000	2020-10-13T22:56:41:701
-8,820000	-14,000000	19,600000	2020-10-13T22:56:41:724
-10,080000	-11,060000	20,370001	2020-10-13T22:56:41:741
-1,680000	-8,540000	23,660000	2020-10-13T22:56:41:764
17,710001	-4,200000	29,330000	2020-10-13T22:56:41:781
69,790001	-10,010000	29,889999	2020-10-13T22:56:41:804
84,769997	-9,660000	30,590000	2020-10-13T22:56:41:822
58,799999	-7,910000	30,100000	2020-10-13T22:56:41:844
32,619999	-8,400000	28,490000	2020-10-13T22:56:41:861
10,780000	-7,560000	29,889999	2020-10-13T22:56:41:885
4,060000	-5,670000	27,719999	2020-10-13T22:56:41:901
12,180000	-1,260000	25,129999	2020-10-13T22:56:41:926
25,059999	-0,280000	22,680000	2020-10-13T22:56:41:941
20,719999	0,770000	23,590000	2020-10-13T22:56:41:965
4,340000	4,480000	24,850000	2020-10-13T22:56:41:981
-3,080000	7,280000	25,059999	2020-10-13T22:56:42:005
0,490000	7,070000	22,610001	2020-10-13T22:56:42:021
0,420000	5,670000	20,650000	2020-10-13T22:56:42:045
-3,150000	4,690000	19,740000	2020-10-13T22:56:42:061
-7,210000	4,970000	17,990000	2020-10-13T22:56:42:085
1,960000	3,850000	17,500000	2020-10-13T22:56:42:103
7,840000	0,350000	17,360001	2020-10-13T22:56:42:124
6,720000	0,280000	16,799999	2020-10-13T22:56:42:141
7,140000	0,490000	15,750000	2020-10-13T22:56:42:167
2,450000	1,610000	12,950000	2020-10-13T22:56:42:181
-7,140000	5,180000	10,080000	2020-10-13T22:56:42:205
-16,240000	8,330000	7,350000	2020-10-13T22:56:42:221
-24,570000	10,920000	4,690000	2020-10-13T22:56:42:245
-26,389999	11,900000	3,780000	2020-10-13T22:56:42:261
-15,960000	8,820000	4,550000	2020-10-13T22:56:42:285
6,790000	3,780000	2,870000	2020-10-13T22:56:42:301
13,860000	4,270000	1,540000	2020-10-13T22:56:42:325
6,090000	4,410000	-0,910000	2020-10-13T22:56:42:341
-5,950000	2,240000	-3,500000	2020-10-13T22:56:42:365
-20,299999	-0,070000	-3,360000	2020-10-13T22:56:42:381
-15,820000	2,590000	-6,300000	2020-10-13T22:56:42:406
4,130000	6,440000	-7,070000	2020-10-13T22:56:42:421
7,560000	-0,140000	-1,680000	2020-10-13T22:56:42:445
5,740000	4,760000	-3,010000	2020-10-13T22:56:42:462
8,750000	3,640000	-4,620000	2020-10-13T22:56:42:486
24,430000	4,200000	-7,770000	2020-10-13T22:56:42:501
29,540001	2,520000	-8,960000	2020-10-13T22:56:42:525
23,520000	0,420000	-9,870000	2020-10-13T22:56:42:541
17,150000	-1,120000	-11,900000	2020-10-13T22:56:42:565
13,510000	-2,450000	-12,180000	2020-10-13T22:56:42:582
4,970000	-4,410000	-10,430000	2020-10-13T22:56:42:605
-3,640000	-4,480000	-6,300000	2020-10-13T22:56:42:621
-3,430000	-2,100000	-4,270000	2020-10-13T22:56:42:646
0,630000	-0,560000	0,630000	2020-10-13T22:56:42:661
3,150000	-1,890000	4,200000	2020-10-13T22:56:42:686
1,960000	-0,700000	6,370000	2020-10-13T22:56:42:702
-6,580000	-0,140000	8,190000	2020-10-13T22:56:42:726
-2,450000	3,150000	7,070000	2020-10-13T22:56:42:741
4,130000	1,260000	6,160000	2020-10-13T22:56:42:765
8,050000	0,210000	4,340000	2020-10-13T22:56:42:781
9,100000	0,280000	0,980000	2020-10-13T22:56:42:806
8,750000	0,420000	-2,450000	2020-10-13T22:56:42:822
-7,070000	-0,350000	-3,080000	2020-10-13T22:56:42:845
-13,230000	-0,280000	-3,430000	2020-10-13T22:56:42:861
-10,570000	0,070000	-3,430000	2020-10-13T22:56:42:887
-5,180000	1,190000	-3,290000	2020-10-13T22:56:42:902
0,630000	1,610000	-2,520000	2020-10-13T22:56:42:926
4,480000	1,120000	-2,520000	2020-10-13T22:56:42:942
4,340000	1,190000	-2,800000	2020-10-13T22:56:42:966
0,910000	0,910000	-3,080000	2020-10-13T22:56:42:982
-2,240000	1,750000	-3,220000	2020-10-13T22:56:43:006
-2,590000	2,100000	-3,150000	2020-10-13T22:56:43:022
0,280000	2,030000	-2,520000	2020-10-13T22:56:43:047
3,080000	1,610000	-2,170000	2020-10-13T22:56:43:062
4,340000	1,190000	-1,820000	2020-10-13T22:56:43:086
4,270000	1,330000	-1,750000	2020-10-13T22:56:43:102
2,310000	1,750000	-1,680000	2020-10-13T22:56:43:126
2,310000	1,750000	-1,470000	2020-10-13T22:56:43:142
-1,120000	1,190000	-1,610000	2020-10-13T22:56:43:165
-0,980000	0,770000	-1,470000	2020-10-13T22:56:43:183
0,980000	0,070000	-1,120000	2020-10-13T22:56:43:206
4,480000	0,280000	-1,190000	2020-10-13T22:56:43:222
10,570000	0,560000	-2,730000	2020-10-13T22:56:43:245
7,350000	0,210000	-2,100000	2020-10-13T22:56:43:262
6,230000	1,540000	-1,050000	2020-10-13T22:56:43:287
8,120000	0,770000	-0,840000	2020-10-13T22:56:43:303
8,050000	0,420000	-1,120000	2020-10-13T22:56:43:326
3,780000	0,560000	-0,840000	2020-10-13T22:56:43:343
-1,260000	0,210000	-1,260000	2020-10-13T22:56:43:367
-0,840000	-0,210000	-1,400000	2020-10-13T22:56:43:383
-0,840000	-0,490000	-1,400000	2020-10-13T22:56:43:407
-2,450000	0,070000	0,560000	2020-10-13T22:56:43:423
-2,590000	0,560000	1,260000	2020-10-13T22:56:43:446
2,450000	0,490000	-0,210000	2020-10-13T22:56:43:463
6,300000	0,140000	-1,120000	2020-10-13T22:56:43:487
4,760000	-0,280000	-1,890000	2020-10-13T22:56:43:503
1,120000	-0,140000	-2,240000	2020-10-13T22:56:43:527
-0,280000	-0,210000	-1,190000	2020-10-13T22:56:43:543
0,700000	-0,490000	-0,980000	2020-10-13T22:56:43:566
1,120000	-0,210000	-0,560000	2020-10-13T22:56:43:583
0,350000	0,420000	-0,980000	2020-10-13T22:56:43:607
-0,070000	0,700000	-0,980000	2020-10-13T22:56:43:622
0,420000	1,260000	-0,700000	2020-10-13T22:56:43:646
0,350000	1,050000	-0,140000	2020-10-13T22:56:43:663
-0,840000	0,210000	0,840000	2020-10-13T22:56:43:688
-0,210000	1,400000	2,100000	2020-10-13T22:56:43:703
3,290000	2,450000	1,540000	2020-10-13T22:56:43:726
6,160000	0,420000	1,540000	2020-10-13T22:56:43:743
5,180000	-0,700000	-0,980000	2020-10-13T22:56:43:766
0,910000	-0,770000	-1,540000	2020-10-13T22:56:43:783
-2,170000	-0,980000	-1,190000	2020-10-13T22:56:43:806
-2,170000	-0,420000	-1,400000	2020-10-13T22:56:43:823
-1,470000	-0,280000	-1,960000	2020-10-13T22:56:43:847
-5,250000	-0,490000	-2,170000	2020-10-13T22:56:43:863
-10,430000	0,770000	-1,400000	2020-10-13T22:56:43:887
-12,530000	1,680000	-1,050000	2020-10-13T22:56:43:903
-12,600000	1,330000	-0,840000	2020-10-13T22:56:43:927
-9,450000	0,420000	-0,420000	2020-10-13T22:56:43:943
-7,140000	-1,470000	-0,910000	2020-10-13T22:56:43:966
-7,210000	-0,840000	-0,910000	2020-10-13T22:56:43:984
-7,000000	-0,140000	-0,910000	2020-10-13T22:56:44:006
-8,750000	-1,120000	-0,700000	2020-10-13T22:56:44:023
-11,340000	-0,420000	0,210000	2020-10-13T22:56:44:047
-12,950000	1,330000	0,490000	2020-10-13T22:56:44:063
-10,710000	1,680000	0,840000	2020-10-13T22:56:44:088
-4,830000	1,680000	0,070000	2020-10-13T22:56:44:103
1,190000	0,770000	-0,980000	2020-10-13T22:56:44:128
3,430000	-0,210000	-1,330000	2020-10-13T22:56:44:143
4,760000	-1,330000	-1,400000	2020-10-13T22:56:44:168
3,430000	-1,260000	-1,190000	2020-10-13T22:56:44:184
3,080000	-0,980000	-1,190000	2020-10-13T22:56:44:207
3,080000	-0,630000	-1,330000	2020-10-13T22:56:44:223
3,150000	0,140000	-1,260000	2020-10-13T22:56:44:248
3,290000	0,420000	-1,050000	2020-10-13T22:56:44:263
2,450000	0,210000	-0,770000	2020-10-13T22:56:44:287
1,540000	0,070000	-0,700000	2020-10-13T22:56:44:303
0,700000	-0,210000	-0,700000	2020-10-13T22:56:44:328
0,350000	0,140000	-0,700000	2020-10-13T22:56:44:343
0,770000	0,420000	-0,770000	2020-10-13T22:56:44:367
0,770000	-0,210000	-0,630000	2020-10-13T22:56:44:384
0,490000	-0,140000	-0,490000	2020-10-13T22:56:44:408
0,490000	-0,420000	-0,490000	2020-10-13T22:56:44:423
-0,350000	-0,560000	-0,350000	2020-10-13T22:56:44:447
0,350000	-0,560000	-0,700000	2020-10-13T22:56:44:463
0,280000	-0,210000	-0,840000	2020-10-13T22:56:44:488
0,770000	0,140000	-0,700000	2020-10-13T22:56:44:504
1,610000	0,140000	-1,050000	2020-10-13T22:56:44:527
1,050000	-0,630000	-0,910000	2020-10-13T22:56:44:543
1,610000	-0,630000	-0,980000	2020-10-13T22:56:44:568
1,750000	-0,350000	-1,050000	2020-10-13T22:56:44:585
1,610000	-0,070000	-0,910000	2020-10-13T22:56:44:606
1,820000	0,490000	-1,190000	2020-10-13T22:56:44:624
0,560000	-0,140000	-1,120000	2020-10-13T22:56:44:647
-0,490000	-0,210000	-0,490000	2020-10-13T22:56:44:664
-0,350000	0,350000	-0,630000	2020-10-13T22:56:44:687
-0,420000	-0,280000	-0,840000	2020-10-13T22:56:44:704
-1,120000	-0,700000	-0,560000	2020-10-13T22:56:44:727
-1,890000	-0,140000	-0,140000	2020-10-13T22:56:44:744
-2,030000	-0,210000	-0,420000	2020-10-13T22:56:44:766
-2,170000	-0,630000	-0,420000	2020-10-13T22:56:44:784
-2,030000	-0,910000	-0,420000	2020-10-13T22:56:44:808
-1,190000	-1,190000	0,280000	2020-10-13T22:56:44:824
1,050000	-1,050000	0,280000	2020-10-13T22:56:44:847
2,100000	-1,330000	0,280000	2020-10-13T22:56:44:865
3,780000	-1,050000	-0,560000	2020-10-13T22:56:44:888
4,270000	-1,050000	-1,050000	2020-10-13T22:56:44:904
4,550000	0,350000	-1,120000	2020-10-13T22:56:44:927
4,340000	-0,140000	-1,120000	2020-10-13T22:56:44:944
3,920000	-0,070000	-1,120000	2020-10-13T22:56:44:968
2,870000	0,070000	-1,190000	2020-10-13T22:56:44:984
1,680000	0,210000	-1,050000	2020-10-13T22:56:45:007
1,120000	0,210000	-0,910000	2020-10-13T22:56:45:024
0,560000	0,140000	-0,910000	2020-10-13T22:56:45:048
0,560000	-0,350000	-0,350000	2020-10-13T22:56:45:064
0,210000	-0,280000	-0,210000	2020-10-13T22:56:45:087
0,070000	-0,280000	-0,280000	2020-10-13T22:56:45:104
-0,560000	0,280000	-0,350000	2020-10-13T22:56:45:128
-0,770000	0,210000	-0,420000	2020-10-13T22:56:45:144
-0,700000	0,420000	-0,280000	2020-10-13T22:56:45:167
-0,770000	0,140000	-0,350000	2020-10-13T22:56:45:184
-0,910000	-0,210000	-0,350000	2020-10-13T22:56:45:208
-1,330000	-0,560000	-0,420000	2020-10-13T22:56:45:224
-1,330000	-0,350000	-0,350000	2020-10-13T22:56:45:247
-0,700000	-0,280000	-0,490000	2020-10-13T22:56:45:264
-0,210000	-0,420000	-0,560000	2020-10-13T22:56:45:289
-0,280000	-0,490000	-0,490000	2020-10-13T22:56:45:304
-0,350000	-0,210000	-0,630000	2020-10-13T22:56:45:328
-0,420000	-0,070000	-0,770000	2020-10-13T22:56:45:344
0,280000	0,140000	-0,840000	2020-10-13T22:56:45:368
1,120000	0,210000	-0,840000	2020-10-13T22:56:45:385
1,820000	0,210000	-0,840000	2020-10-13T22:56:45:407
2,730000	-0,140000	-0,980000	2020-10-13T22:56:45:424
4,060000	-0,210000	-1,260000	2020-10-13T22:56:45:447
6,300000	-0,420000	-1,610000	2020-10-13T22:56:45:465
7,910000	-1,050000	-2,100000	2020-10-13T22:56:45:488
4,480000	-1,890000	-2,380000	2020-10-13T22:56:45:504
-1,190000	-0,700000	-1,610000	2020-10-13T22:56:45:529
-3,360000	-0,490000	-1,540000	2020-10-13T22:56:45:544
-3,290000	-2,170000	-1,750000	2020-10-13T22:56:45:568
-0,700000	-2,170000	-2,100000	2020-10-13T22:56:45:585
2,170000	-2,730000	-2,100000	2020-10-13T22:56:45:608
-16,170000	-5,740000	0,350000	2020-10-13T22:56:45:624
-17,290001	-1,400000	-0,070000	2020-10-13T22:56:45:648
-2,310000	-1,120000	-0,490000	2020-10-13T22:56:45:664
0,070000	-0,420000	-0,420000	2020-10-13T22:56:45:688
-2,310000	0,280000	-0,700000	2020-10-13T22:56:45:705
-2,520000	0,210000	-1,050000	2020-10-13T22:56:45:728
-2,310000	-0,210000	-1,190000	2020-10-13T22:56:45:745
-1,540000	0,420000	-0,630000	2020-10-13T22:56:45:769
-0,770000	0,770000	-0,210000	2020-10-13T22:56:45:784
-0,210000	0,700000	-0,560000	2020-10-13T22:56:45:808
-0,210000	0,490000	-0,840000	2020-10-13T22:56:45:826
-0,350000	0,140000	-0,630000	2020-10-13T22:56:45:848
-0,560000	0,210000	-0,490000	2020-10-13T22:56:45:864
-0,770000	-0,070000	-0,560000	2020-10-13T22:56:45:888
-1,120000	-0,280000	-0,490000	2020-10-13T22:56:45:904
-0,700000	0,070000	-0,490000	2020-10-13T22:56:45:928
0,140000	-0,280000	-0,490000	2020-10-13T22:56:45:945
0,210000	-0,210000	-0,630000	2020-10-13T22:56:45:969
-0,490000	-0,350000	-0,700000	2020-10-13T22:56:45:985
-0,140000	-0,140000	-0,630000	2020-10-13T22:56:46:008
0,770000	-0,210000	-0,630000	2020-10-13T22:56:46:025
1,610000	-0,070000	-0,630000	2020-10-13T22:56:46:049
1,260000	-0,490000	-0,700000	2020-10-13T22:56:46:065
0,350000	-0,630000	-0,490000	2020-10-13T22:56:46:088
0,420000	-0,210000	-0,630000	2020-10-13T22:56:46:105
0,560000	-0,210000	-0,910000	2020-10-13T22:56:46:129
1,050000	0,210000	-0,770000	2020-10-13T22:56:46:145
1,470000	0,350000	-1,050000	2020-10-13T22:56:46:169
1,400000	0,140000	-1,050000	2020-10-13T22:56:46:185
1,610000	0,280000	-0,910000	2020-10-13T22:56:46:208
1,190000	0,210000	-1,050000	2020-10-13T22:56:46:225
0,630000	0,280000	-0,840000	2020-10-13T22:56:46:250
-0,140000	0,210000	-0,770000	2020-10-13T22:56:46:265
-1,680000	0,280000	-1,190000	2020-10-13T22:56:46:289
