light_intensity	ts
2097152,000000	2020-10-13T22:56:01:312
2097152,000000	2020-10-13T22:56:01:313
2592524,000000	2020-10-13T22:56:01:324
2591928,000000	2020-10-13T22:56:01:361
2591544,000000	2020-10-13T22:56:01:400
2591378,000000	2020-10-13T22:56:01:442
2590903,000000	2020-10-13T22:56:01:480
2590483,000000	2020-10-13T22:56:01:521
2590568,000000	2020-10-13T22:56:01:561
2590721,000000	2020-10-13T22:56:01:602
2590653,000000	2020-10-13T22:56:01:641
2146597,000000	2020-10-13T22:56:01:680
2144647,000000	2020-10-13T22:56:01:721
2143414,000000	2020-10-13T22:56:01:760
2142806,000000	2020-10-13T22:56:01:801
2142578,000000	2020-10-13T22:56:01:846
2125568,000000	2020-10-13T22:56:01:880
2126167,000000	2020-10-13T22:56:01:922
2126974,000000	2020-10-13T22:56:01:961
2127777,000000	2020-10-13T22:56:02:001
2128607,000000	2020-10-13T22:56:02:043
2096419,000000	2020-10-13T22:56:02:093
2097864,000000	2020-10-13T22:56:02:123
2099298,000000	2020-10-13T22:56:02:162
2101604,000000	2020-10-13T22:56:02:203
2103634,000000	2020-10-13T22:56:02:244
2105534,000000	2020-10-13T22:56:02:285
2107401,000000	2020-10-13T22:56:02:328
2108925,000000	2020-10-13T22:56:02:364
2110360,000000	2020-10-13T22:56:02:405
2111445,000000	2020-10-13T22:56:02:445
2109441,000000	2020-10-13T22:56:02:487
2101834,000000	2020-10-13T22:56:02:527
2094591,000000	2020-10-13T22:56:02:567
2090674,000000	2020-10-13T22:56:02:606
2090095,000000	2020-10-13T22:56:02:648
2091129,000000	2020-10-13T22:56:02:687
2095205,000000	2020-10-13T22:56:02:725
2099507,000000	2020-10-13T22:56:02:767
2104959,000000	2020-10-13T22:56:02:805
2110149,000000	2020-10-13T22:56:02:846
2116079,000000	2020-10-13T22:56:02:885
2122735,000000	2020-10-13T22:56:02:925
2129929,000000	2020-10-13T22:56:02:965
2136999,000000	2020-10-13T22:56:03:006
2144567,000000	2020-10-13T22:56:03:053
2152919,000000	2020-10-13T22:56:03:090
2161488,000000	2020-10-13T22:56:03:126
2171079,000000	2020-10-13T22:56:03:165
2181072,000000	2020-10-13T22:56:03:205
2191533,000000	2020-10-13T22:56:03:247
2201212,000000	2020-10-13T22:56:03:312
2207088,000000	2020-10-13T22:56:03:327
2209416,000000	2020-10-13T22:56:03:368
2212448,000000	2020-10-13T22:56:03:405
2216177,000000	2020-10-13T22:56:03:446
2220803,000000	2020-10-13T22:56:03:486
2225015,000000	2020-10-13T22:56:03:526
2230188,000000	2020-10-13T22:56:03:566
2235596,000000	2020-10-13T22:56:03:606
2240862,000000	2020-10-13T22:56:03:647
2246037,000000	2020-10-13T22:56:03:687
2251431,000000	2020-10-13T22:56:03:727
2256345,000000	2020-10-13T22:56:03:769
2261805,000000	2020-10-13T22:56:03:807
2267723,000000	2020-10-13T22:56:03:847
2274162,000000	2020-10-13T22:56:03:886
2280418,000000	2020-10-13T22:56:03:927
2286394,000000	2020-10-13T22:56:03:967
2293299,000000	2020-10-13T22:56:04:016
2298904,000000	2020-10-13T22:56:04:048
2301112,000000	2020-10-13T22:56:04:128
2301711,000000	2020-10-13T22:56:04:130
2301406,000000	2020-10-13T22:56:04:169
2302900,000000	2020-10-13T22:56:04:207
2304667,000000	2020-10-13T22:56:04:249
2306283,000000	2020-10-13T22:56:04:287
2308555,000000	2020-10-13T22:56:04:328
2312079,000000	2020-10-13T22:56:04:367
2315088,000000	2020-10-13T22:56:04:409
2317671,000000	2020-10-13T22:56:04:448
2320733,000000	2020-10-13T22:56:04:491
2323908,000000	2020-10-13T22:56:04:526
2326534,000000	2020-10-13T22:56:04:575
2330150,000000	2020-10-13T22:56:04:609
2333998,000000	2020-10-13T22:56:04:647
2336462,000000	2020-10-13T22:56:04:688
2338400,000000	2020-10-13T22:56:04:731
2339728,000000	2020-10-13T22:56:04:767
2338897,000000	2020-10-13T22:56:04:808
2333612,000000	2020-10-13T22:56:04:848
2329022,000000	2020-10-13T22:56:04:888
2325706,000000	2020-10-13T22:56:04:928
2322791,000000	2020-10-13T22:56:04:972
2321071,000000	2020-10-13T22:56:05:008
2320613,000000	2020-10-13T22:56:05:048
2321039,000000	2020-10-13T22:56:05:095
2322242,000000	2020-10-13T22:56:05:128
2323873,000000	2020-10-13T22:56:05:168
2326082,000000	2020-10-13T22:56:05:209
2328525,000000	2020-10-13T22:56:05:249
2337148,000000	2020-10-13T22:56:05:288
2347556,000000	2020-10-13T22:56:05:329
2357424,000000	2020-10-13T22:56:05:369
2365392,000000	2020-10-13T22:56:05:410
2371962,000000	2020-10-13T22:56:05:460
2377351,000000	2020-10-13T22:56:05:489
2380287,000000	2020-10-13T22:56:05:532
2382343,000000	2020-10-13T22:56:05:569
2381326,000000	2020-10-13T22:56:05:614
2377691,000000	2020-10-13T22:56:05:651
2374740,000000	2020-10-13T22:56:05:692
2374019,000000	2020-10-13T22:56:05:729
2371763,000000	2020-10-13T22:56:05:770
2368786,000000	2020-10-13T22:56:05:809
2366247,000000	2020-10-13T22:56:05:849
2364469,000000	2020-10-13T22:56:05:889
2363108,000000	2020-10-13T22:56:05:931
2361997,000000	2020-10-13T22:56:05:969
2361038,000000	2020-10-13T22:56:06:014
2360907,000000	2020-10-13T22:56:06:049
2360439,000000	2020-10-13T22:56:06:098
2360790,000000	2020-10-13T22:56:06:130
2361311,000000	2020-10-13T22:56:06:173
2361718,000000	2020-10-13T22:56:06:209
2362017,000000	2020-10-13T22:56:06:250
2362623,000000	2020-10-13T22:56:06:289
2363287,000000	2020-10-13T22:56:06:330
2363991,000000	2020-10-13T22:56:06:370
2363888,000000	2020-10-13T22:56:06:413
2358950,000000	2020-10-13T22:56:06:450
2352880,000000	2020-10-13T22:56:06:490
2348163,000000	2020-10-13T22:56:06:530
2345341,000000	2020-10-13T22:56:06:571
2342702,000000	2020-10-13T22:56:06:612
2341213,000000	2020-10-13T22:56:06:655
2340362,000000	2020-10-13T22:56:06:691
2340458,000000	2020-10-13T22:56:06:729
2339820,000000	2020-10-13T22:56:06:770
2339890,000000	2020-10-13T22:56:06:809
2340123,000000	2020-10-13T22:56:06:850
2340980,000000	2020-10-13T22:56:06:892
2342205,000000	2020-10-13T22:56:06:931
2343919,000000	2020-10-13T22:56:06:971
2345810,000000	2020-10-13T22:56:07:011
2348547,000000	2020-10-13T22:56:07:051
2351136,000000	2020-10-13T22:56:07:097
2353982,000000	2020-10-13T22:56:07:133
2357217,000000	2020-10-13T22:56:07:170
2354223,000000	2020-10-13T22:56:07:210
2350062,000000	2020-10-13T22:56:07:251
2347245,000000	2020-10-13T22:56:07:291
2345561,000000	2020-10-13T22:56:07:333
2344593,000000	2020-10-13T22:56:07:373
2344424,000000	2020-10-13T22:56:07:411
2344686,000000	2020-10-13T22:56:07:452
2345036,000000	2020-10-13T22:56:07:490
2344973,000000	2020-10-13T22:56:07:532
2345593,000000	2020-10-13T22:56:07:571
2346339,000000	2020-10-13T22:56:07:615
2347334,000000	2020-10-13T22:56:07:651
2348802,000000	2020-10-13T22:56:07:692
2350565,000000	2020-10-13T22:56:07:731
2352578,000000	2020-10-13T22:56:07:772
2354643,000000	2020-10-13T22:56:07:811
2356493,000000	2020-10-13T22:56:07:855
2356384,000000	2020-10-13T22:56:07:891
2353471,000000	2020-10-13T22:56:07:936
2350954,000000	2020-10-13T22:56:07:980
2350126,000000	2020-10-13T22:56:08:015
2349722,000000	2020-10-13T22:56:08:051
2349464,000000	2020-10-13T22:56:08:124
2349991,000000	2020-10-13T22:56:08:132
2351079,000000	2020-10-13T22:56:08:192
2351858,000000	2020-10-13T22:56:08:211
2352715,000000	2020-10-13T22:56:08:251
2353636,000000	2020-10-13T22:56:08:291
2355197,000000	2020-10-13T22:56:08:336
2356743,000000	2020-10-13T22:56:08:371
2358765,000000	2020-10-13T22:56:08:412
2360971,000000	2020-10-13T22:56:08:452
2362505,000000	2020-10-13T22:56:08:492
2364602,000000	2020-10-13T22:56:08:533
2363767,000000	2020-10-13T22:56:08:577
2361062,000000	2020-10-13T22:56:08:612
2359061,000000	2020-10-13T22:56:08:653
2357848,000000	2020-10-13T22:56:08:691
2357590,000000	2020-10-13T22:56:08:733
2357409,000000	2020-10-13T22:56:08:772
2358476,000000	2020-10-13T22:56:08:839
2358717,000000	2020-10-13T22:56:08:854
2358989,000000	2020-10-13T22:56:08:895
2359465,000000	2020-10-13T22:56:08:932
2359867,000000	2020-10-13T22:56:08:973
2360972,000000	2020-10-13T22:56:09:013
2363655,000000	2020-10-13T22:56:09:056
2363655,000000	2020-10-13T22:56:09:095
2366705,000000	2020-10-13T22:56:09:134
2368367,000000	2020-10-13T22:56:09:172
2365477,000000	2020-10-13T22:56:09:213
2361534,000000	2020-10-13T22:56:09:253
2358553,000000	2020-10-13T22:56:09:301
2356487,000000	2020-10-13T22:56:09:333
2354686,000000	2020-10-13T22:56:09:378
2353390,000000	2020-10-13T22:56:09:412
2353066,000000	2020-10-13T22:56:09:456
2353058,000000	2020-10-13T22:56:09:492
2352529,000000	2020-10-13T22:56:09:538
2352533,000000	2020-10-13T22:56:09:572
2352513,000000	2020-10-13T22:56:09:614
2352778,000000	2020-10-13T22:56:09:653
2353871,000000	2020-10-13T22:56:09:694
2354209,000000	2020-10-13T22:56:09:734
2355872,000000	2020-10-13T22:56:09:776
2356612,000000	2020-10-13T22:56:09:815
2357965,000000	2020-10-13T22:56:09:854
2356085,000000	2020-10-13T22:56:09:893
2351209,000000	2020-10-13T22:56:09:933
2345410,000000	2020-10-13T22:56:09:975
2341330,000000	2020-10-13T22:56:10:015
2338480,000000	2020-10-13T22:56:10:061
2334799,000000	2020-10-13T22:56:10:111
2332778,000000	2020-10-13T22:56:10:133
2331059,000000	2020-10-13T22:56:10:173
2327582,000000	2020-10-13T22:56:10:213
2323476,000000	2020-10-13T22:56:10:255
2319395,000000	2020-10-13T22:56:10:293
2316182,000000	2020-10-13T22:56:10:334
2314100,000000	2020-10-13T22:56:10:372
2312927,000000	2020-10-13T22:56:10:413
2312985,000000	2020-10-13T22:56:10:453
2313095,000000	2020-10-13T22:56:10:499
2314278,000000	2020-10-13T22:56:10:533
2315427,000000	2020-10-13T22:56:10:574
2313279,000000	2020-10-13T22:56:10:613
2306233,000000	2020-10-13T22:56:10:654
2299124,000000	2020-10-13T22:56:10:694
2293761,000000	2020-10-13T22:56:10:737
2289302,000000	2020-10-13T22:56:10:773
2285908,000000	2020-10-13T22:56:10:815
2282839,000000	2020-10-13T22:56:10:854
2280229,000000	2020-10-13T22:56:10:893
2277503,000000	2020-10-13T22:56:10:935
2274430,000000	2020-10-13T22:56:10:983
2272106,000000	2020-10-13T22:56:11:016
2270859,000000	2020-10-13T22:56:11:056
2269564,000000	2020-10-13T22:56:11:101
2269149,000000	2020-10-13T22:56:11:136
2269262,000000	2020-10-13T22:56:11:176
2269600,000000	2020-10-13T22:56:11:214
2270167,000000	2020-10-13T22:56:11:254
2270975,000000	2020-10-13T22:56:11:294
2268685,000000	2020-10-13T22:56:11:334
2259980,000000	2020-10-13T22:56:11:374
2249768,000000	2020-10-13T22:56:11:416
2241981,000000	2020-10-13T22:56:11:457
2236691,000000	2020-10-13T22:56:11:494
2232735,000000	2020-10-13T22:56:11:536
2229789,000000	2020-10-13T22:56:11:574
2227694,000000	2020-10-13T22:56:11:615
2225726,000000	2020-10-13T22:56:11:655
2223507,000000	2020-10-13T22:56:11:696
2221813,000000	2020-10-13T22:56:11:740
2220870,000000	2020-10-13T22:56:11:775
2220703,000000	2020-10-13T22:56:11:821
2221919,000000	2020-10-13T22:56:11:855
2222663,000000	2020-10-13T22:56:11:896
2224124,000000	2020-10-13T22:56:11:939
2225261,000000	2020-10-13T22:56:11:994
2226066,000000	2020-10-13T22:56:12:016
2221930,000000	2020-10-13T22:56:12:056
2210337,000000	2020-10-13T22:56:12:112
2200787,000000	2020-10-13T22:56:12:135
2194820,000000	2020-10-13T22:56:12:177
2190278,000000	2020-10-13T22:56:12:215
2187326,000000	2020-10-13T22:56:12:256
2186165,000000	2020-10-13T22:56:12:295
2184562,000000	2020-10-13T22:56:12:335
2182405,000000	2020-10-13T22:56:12:375
2180232,000000	2020-10-13T22:56:12:419
2179545,000000	2020-10-13T22:56:12:456
2179393,000000	2020-10-13T22:56:12:496
2179984,000000	2020-10-13T22:56:12:535
2180842,000000	2020-10-13T22:56:12:575
2182012,000000	2020-10-13T22:56:12:620
2183433,000000	2020-10-13T22:56:12:661
2183866,000000	2020-10-13T22:56:12:705
2176351,000000	2020-10-13T22:56:12:737
2164829,000000	2020-10-13T22:56:12:777
2156337,000000	2020-10-13T22:56:12:814
2151315,000000	2020-10-13T22:56:12:866
2147728,000000	2020-10-13T22:56:12:906
2145592,000000	2020-10-13T22:56:12:935
2145315,000000	2020-10-13T22:56:12:976
2144769,000000	2020-10-13T22:56:13:016
2143659,000000	2020-10-13T22:56:13:056
2143085,000000	2020-10-13T22:56:13:098
2143191,000000	2020-10-13T22:56:13:140
2144287,000000	2020-10-13T22:56:13:176
2145859,000000	2020-10-13T22:56:13:216
2148035,000000	2020-10-13T22:56:13:256
2150419,000000	2020-10-13T22:56:13:295
2153182,000000	2020-10-13T22:56:13:337
2155320,000000	2020-10-13T22:56:13:383
2151455,000000	2020-10-13T22:56:13:415
2142890,000000	2020-10-13T22:56:13:457
2136614,000000	2020-10-13T22:56:13:496
2133379,000000	2020-10-13T22:56:13:537
2131101,000000	2020-10-13T22:56:13:576
2130619,000000	2020-10-13T22:56:13:619
2130952,000000	2020-10-13T22:56:13:656
2131947,000000	2020-10-13T22:56:13:698
2132769,000000	2020-10-13T22:56:13:739
2133686,000000	2020-10-13T22:56:13:778
2135675,000000	2020-10-13T22:56:13:818
2137393,000000	2020-10-13T22:56:13:857
2140744,000000	2020-10-13T22:56:13:897
2144171,000000	2020-10-13T22:56:13:937
2148086,000000	2020-10-13T22:56:13:976
2151649,000000	2020-10-13T22:56:14:017
2156371,000000	2020-10-13T22:56:14:057
2160137,000000	2020-10-13T22:56:14:103
2158222,000000	2020-10-13T22:56:14:137
2153422,000000	2020-10-13T22:56:14:177
2150970,000000	2020-10-13T22:56:14:216
2150423,000000	2020-10-13T22:56:14:257
2150744,000000	2020-10-13T22:56:14:297
2151335,000000	2020-10-13T22:56:14:340
2153622,000000	2020-10-13T22:56:14:378
2156364,000000	2020-10-13T22:56:14:428
2158769,000000	2020-10-13T22:56:14:459
2160931,000000	2020-10-13T22:56:14:498
2164197,000000	2020-10-13T22:56:14:539
2168009,000000	2020-10-13T22:56:14:580
2172436,000000	2020-10-13T22:56:14:827
2176546,000000	2020-10-13T22:56:14:827
2180930,000000	2020-10-13T22:56:14:828
2185368,000000	2020-10-13T22:56:14:828
2189434,000000	2020-10-13T22:56:14:829
2193896,000000	2020-10-13T22:56:14:830
2198067,000000	2020-10-13T22:56:14:857
2202260,000000	2020-10-13T22:56:14:896
2201310,000000	2020-10-13T22:56:14:937
2199554,000000	2020-10-13T22:56:14:987
2199407,000000	2020-10-13T22:56:15:018
2200317,000000	2020-10-13T22:56:15:062
2201684,000000	2020-10-13T22:56:15:100
2203535,000000	2020-10-13T22:56:15:138
2206484,000000	2020-10-13T22:56:15:179
2208950,000000	2020-10-13T22:56:15:227
2211255,000000	2020-10-13T22:56:15:258
2213897,000000	2020-10-13T22:56:15:319
2217501,000000	2020-10-13T22:56:15:336
2221851,000000	2020-10-13T22:56:15:377
2226421,000000	2020-10-13T22:56:15:416
2230450,000000	2020-10-13T22:56:15:459
2234946,000000	2020-10-13T22:56:15:498
2239066,000000	2020-10-13T22:56:15:547
2242950,000000	2020-10-13T22:56:15:579
2246939,000000	2020-10-13T22:56:15:622
2249735,000000	2020-10-13T22:56:15:658
2249307,000000	2020-10-13T22:56:15:702
2248732,000000	2020-10-13T22:56:15:738
2249438,000000	2020-10-13T22:56:15:790
2250632,000000	2020-10-13T22:56:15:818
2251849,000000	2020-10-13T22:56:15:878
2254688,000000	2020-10-13T22:56:15:899
2256949,000000	2020-10-13T22:56:15:939
2259705,000000	2020-10-13T22:56:15:977
2261567,000000	2020-10-13T22:56:16:023
2264240,000000	2020-10-13T22:56:16:063
2267518,000000	2020-10-13T22:56:16:100
2270319,000000	2020-10-13T22:56:16:139
2273728,000000	2020-10-13T22:56:16:179
2277501,000000	2020-10-13T22:56:16:219
2280915,000000	2020-10-13T22:56:16:261
2284620,000000	2020-10-13T22:56:16:299
2287499,000000	2020-10-13T22:56:16:340
2290268,000000	2020-10-13T22:56:16:379
2290086,000000	2020-10-13T22:56:16:419
2288726,000000	2020-10-13T22:56:16:465
2288172,000000	2020-10-13T22:56:16:504
2288791,000000	2020-10-13T22:56:16:543
2289319,000000	2020-10-13T22:56:16:580
2291089,000000	2020-10-13T22:56:16:618
2292101,000000	2020-10-13T22:56:16:661
2294438,000000	2020-10-13T22:56:16:702
2295853,000000	2020-10-13T22:56:16:750
2298031,000000	2020-10-13T22:56:16:780
2299981,000000	2020-10-13T22:56:16:820
2302423,000000	2020-10-13T22:56:16:860
2305212,000000	2020-10-13T22:56:16:900
2308220,000000	2020-10-13T22:56:16:940
2311149,000000	2020-10-13T22:56:16:983
2314454,000000	2020-10-13T22:56:17:019
2316970,000000	2020-10-13T22:56:17:060
2319889,000000	2020-10-13T22:56:17:101
2323055,000000	2020-10-13T22:56:17:139
2323900,000000	2020-10-13T22:56:17:180
2322904,000000	2020-10-13T22:56:17:222
2321932,000000	2020-10-13T22:56:17:264
2321577,000000	2020-10-13T22:56:17:300
2321688,000000	2020-10-13T22:56:17:339
2321552,000000	2020-10-13T22:56:17:381
2322566,000000	2020-10-13T22:56:17:420
2324657,000000	2020-10-13T22:56:17:480
2326104,000000	2020-10-13T22:56:17:502
2327272,000000	2020-10-13T22:56:17:542
2329225,000000	2020-10-13T22:56:17:581
2331696,000000	2020-10-13T22:56:17:622
2334848,000000	2020-10-13T22:56:17:662
2337704,000000	2020-10-13T22:56:17:701
2340321,000000	2020-10-13T22:56:17:740
2342521,000000	2020-10-13T22:56:17:780
2345152,000000	2020-10-13T22:56:17:820
2347537,000000	2020-10-13T22:56:17:861
2349737,000000	2020-10-13T22:56:17:901
2352164,000000	2020-10-13T22:56:17:941
2354103,000000	2020-10-13T22:56:17:984
2353330,000000	2020-10-13T22:56:18:021
2352148,000000	2020-10-13T22:56:18:061
2351606,000000	2020-10-13T22:56:18:111
2352046,000000	2020-10-13T22:56:18:140
2352383,000000	2020-10-13T22:56:18:183
2353691,000000	2020-10-13T22:56:18:220
2354961,000000	2020-10-13T22:56:18:261
2356414,000000	2020-10-13T22:56:18:300
2357093,000000	2020-10-13T22:56:18:341
2358378,000000	2020-10-13T22:56:18:382
2360147,000000	2020-10-13T22:56:18:423
2361778,000000	2020-10-13T22:56:18:461
2363819,000000	2020-10-13T22:56:18:503
2366210,000000	2020-10-13T22:56:18:541
2368830,000000	2020-10-13T22:56:18:589
2371748,000000	2020-10-13T22:56:18:621
2374108,000000	2020-10-13T22:56:18:666
2376733,000000	2020-10-13T22:56:18:701
2379449,000000	2020-10-13T22:56:18:757
2381514,000000	2020-10-13T22:56:18:778
2381121,000000	2020-10-13T22:56:18:820
2379857,000000	2020-10-13T22:56:18:860
2379874,000000	2020-10-13T22:56:18:906
2380298,000000	2020-10-13T22:56:18:940
2380947,000000	2020-10-13T22:56:18:981
2382177,000000	2020-10-13T22:56:19:021
2383355,000000	2020-10-13T22:56:19:061
2385330,000000	2020-10-13T22:56:19:100
2386237,000000	2020-10-13T22:56:19:142
2387138,000000	2020-10-13T22:56:19:181
2388502,000000	2020-10-13T22:56:19:221
2389953,000000	2020-10-13T22:56:19:261
2392062,000000	2020-10-13T22:56:19:301
2393835,000000	2020-10-13T22:56:19:341
2395851,000000	2020-10-13T22:56:19:383
2398203,000000	2020-10-13T22:56:19:421
2399910,000000	2020-10-13T22:56:19:462
2402496,000000	2020-10-13T22:56:19:501
2403327,000000	2020-10-13T22:56:19:541
2403134,000000	2020-10-13T22:56:19:581
2402131,000000	2020-10-13T22:56:19:625
2401751,000000	2020-10-13T22:56:19:662
2401559,000000	2020-10-13T22:56:19:702
2402208,000000	2020-10-13T22:56:19:744
2403147,000000	2020-10-13T22:56:19:781
2404200,000000	2020-10-13T22:56:19:830
2405203,000000	2020-10-13T22:56:19:862
2406374,000000	2020-10-13T22:56:19:900
2407497,000000	2020-10-13T22:56:19:941
2408968,000000	2020-10-13T22:56:20:014
2410677,000000	2020-10-13T22:56:20:023
2412425,000000	2020-10-13T22:56:20:063
2414528,000000	2020-10-13T22:56:20:108
2416546,000000	2020-10-13T22:56:20:142
2418454,000000	2020-10-13T22:56:20:182
2420834,000000	2020-10-13T22:56:20:223
2422458,000000	2020-10-13T22:56:20:263
2424560,000000	2020-10-13T22:56:20:303
2426599,000000	2020-10-13T22:56:20:344
2425057,000000	2020-10-13T22:56:20:382
2423423,000000	2020-10-13T22:56:20:422
2422675,000000	2020-10-13T22:56:20:463
2422718,000000	2020-10-13T22:56:20:502
2422102,000000	2020-10-13T22:56:20:543
2422048,000000	2020-10-13T22:56:20:584
2422313,000000	2020-10-13T22:56:20:623
2423253,000000	2020-10-13T22:56:20:662
2423338,000000	2020-10-13T22:56:20:704
2423897,000000	2020-10-13T22:56:20:744
2424123,000000	2020-10-13T22:56:20:782
2424355,000000	2020-10-13T22:56:20:826
2424793,000000	2020-10-13T22:56:20:880
2426635,000000	2020-10-13T22:56:20:905
2427465,000000	2020-10-13T22:56:20:941
2429201,000000	2020-10-13T22:56:20:983
2431513,000000	2020-10-13T22:56:21:023
2433230,000000	2020-10-13T22:56:21:067
2434547,000000	2020-10-13T22:56:21:103
2436781,000000	2020-10-13T22:56:21:144
2438700,000000	2020-10-13T22:56:21:183
2439019,000000	2020-10-13T22:56:21:224
2437161,000000	2020-10-13T22:56:21:269
2434761,000000	2020-10-13T22:56:21:307
2432836,000000	2020-10-13T22:56:21:347
2431518,000000	2020-10-13T22:56:21:382
2430527,000000	2020-10-13T22:56:21:427
2429618,000000	2020-10-13T22:56:21:465
2429491,000000	2020-10-13T22:56:21:503
2429690,000000	2020-10-13T22:56:21:544
2428730,000000	2020-10-13T22:56:21:585
2428203,000000	2020-10-13T22:56:21:624
2428191,000000	2020-10-13T22:56:21:664
2428197,000000	2020-10-13T22:56:21:703
2429145,000000	2020-10-13T22:56:21:744
2429958,000000	2020-10-13T22:56:21:785
2431126,000000	2020-10-13T22:56:21:823
2432148,000000	2020-10-13T22:56:21:866
2433110,000000	2020-10-13T22:56:21:903
2434714,000000	2020-10-13T22:56:21:944
2435895,000000	2020-10-13T22:56:21:984
2437565,000000	2020-10-13T22:56:22:026
2438193,000000	2020-10-13T22:56:22:063
2435574,000000	2020-10-13T22:56:22:104
2431792,000000	2020-10-13T22:56:22:143
2428956,000000	2020-10-13T22:56:22:183
2426742,000000	2020-10-13T22:56:22:223
2424808,000000	2020-10-13T22:56:22:265
2423210,000000	2020-10-13T22:56:22:303
2422468,000000	2020-10-13T22:56:22:344
2421364,000000	2020-10-13T22:56:22:387
2420079,000000	2020-10-13T22:56:22:425
2418697,000000	2020-10-13T22:56:22:473
2417574,000000	2020-10-13T22:56:22:507
2416965,000000	2020-10-13T22:56:22:548
2416765,000000	2020-10-13T22:56:22:585
2416529,000000	2020-10-13T22:56:22:625
2416998,000000	2020-10-13T22:56:22:666
2417772,000000	2020-10-13T22:56:22:705
2417872,000000	2020-10-13T22:56:22:746
2418048,000000	2020-10-13T22:56:22:795
2414285,000000	2020-10-13T22:56:22:824
2406513,000000	2020-10-13T22:56:22:865
2399509,000000	2020-10-13T22:56:22:905
2393690,000000	2020-10-13T22:56:22:945
2388856,000000	2020-10-13T22:56:22:987
2384280,000000	2020-10-13T22:56:23:025
2381399,000000	2020-10-13T22:56:23:065
2378902,000000	2020-10-13T22:56:23:104
2375968,000000	2020-10-13T22:56:23:145
2372980,000000	2020-10-13T22:56:23:185
2370594,000000	2020-10-13T22:56:23:227
2368865,000000	2020-10-13T22:56:23:266
2367978,000000	2020-10-13T22:56:23:305
2367546,000000	2020-10-13T22:56:23:346
2367520,000000	2020-10-13T22:56:23:385
2367541,000000	2020-10-13T22:56:23:426
2367153,000000	2020-10-13T22:56:23:466
2367291,000000	2020-10-13T22:56:23:506
2366992,000000	2020-10-13T22:56:23:545
2360182,000000	2020-10-13T22:56:23:586
2348934,000000	2020-10-13T22:56:23:625
2338143,000000	2020-10-13T22:56:23:667
2330062,000000	2020-10-13T22:56:23:709
2322671,000000	2020-10-13T22:56:23:747
2316150,000000	2020-10-13T22:56:23:784
2311029,000000	2020-10-13T22:56:23:826
2307361,000000	2020-10-13T22:56:23:866
2303142,000000	2020-10-13T22:56:23:907
2298837,000000	2020-10-13T22:56:23:948
2295770,000000	2020-10-13T22:56:23:987
2294129,000000	2020-10-13T22:56:24:026
2292690,000000	2020-10-13T22:56:24:067
2292690,000000	2020-10-13T22:56:24:105
2292718,000000	2020-10-13T22:56:24:147
2292956,000000	2020-10-13T22:56:24:187
2293725,000000	2020-10-13T22:56:24:227
2294326,000000	2020-10-13T22:56:24:266
2294414,000000	2020-10-13T22:56:24:307
2289674,000000	2020-10-13T22:56:24:346
2278228,000000	2020-10-13T22:56:24:387
2266235,000000	2020-10-13T22:56:24:429
2256466,000000	2020-10-13T22:56:24:467
2249682,000000	2020-10-13T22:56:24:506
2243029,000000	2020-10-13T22:56:24:547
2237258,000000	2020-10-13T22:56:24:586
2233811,000000	2020-10-13T22:56:24:628
2230718,000000	2020-10-13T22:56:24:668
2227083,000000	2020-10-13T22:56:24:707
2223619,000000	2020-10-13T22:56:24:746
2221121,000000	2020-10-13T22:56:24:787
2219514,000000	2020-10-13T22:56:24:826
2218551,000000	2020-10-13T22:56:24:868
2218288,000000	2020-10-13T22:56:24:909
2217780,000000	2020-10-13T22:56:24:947
2217563,000000	2020-10-13T22:56:24:987
2217660,000000	2020-10-13T22:56:25:028
2214705,000000	2020-10-13T22:56:25:067
2203020,000000	2020-10-13T22:56:25:107
2189511,000000	2020-10-13T22:56:25:148
2179366,000000	2020-10-13T22:56:25:187
2172348,000000	2020-10-13T22:56:25:227
2166568,000000	2020-10-13T22:56:25:268
2162651,000000	2020-10-13T22:56:25:307
2160298,000000	2020-10-13T22:56:25:348
2158119,000000	2020-10-13T22:56:25:388
2155995,000000	2020-10-13T22:56:25:428
2154495,000000	2020-10-13T22:56:25:468
2153485,000000	2020-10-13T22:56:25:508
2153549,000000	2020-10-13T22:56:25:547
2153708,000000	2020-10-13T22:56:25:588
2154300,000000	2020-10-13T22:56:25:629
2154465,000000	2020-10-13T22:56:25:669
2154974,000000	2020-10-13T22:56:25:708
2152889,000000	2020-10-13T22:56:25:748
2141696,000000	2020-10-13T22:56:25:787
2128907,000000	2020-10-13T22:56:25:829
2118913,000000	2020-10-13T22:56:25:869
2111473,000000	2020-10-13T22:56:25:908
2105616,000000	2020-10-13T22:56:25:948
2102424,000000	2020-10-13T22:56:25:988
2099704,000000	2020-10-13T22:56:26:029
2097865,000000	2020-10-13T22:56:26:069
2096555,000000	2020-10-13T22:56:26:109
2096458,000000	2020-10-13T22:56:26:149
2097417,000000	2020-10-13T22:56:26:188
2098779,000000	2020-10-13T22:56:26:229
2100257,000000	2020-10-13T22:56:26:268
2102843,000000	2020-10-13T22:56:26:309
2105111,000000	2020-10-13T22:56:26:349
2103468,000000	2020-10-13T22:56:26:388
2093807,000000	2020-10-13T22:56:26:428
2084476,000000	2020-10-13T22:56:26:469
2078655,000000	2020-10-13T22:56:26:508
2075203,000000	2020-10-13T22:56:26:549
2073549,000000	2020-10-13T22:56:26:589
2073564,000000	2020-10-13T22:56:26:629
2074606,000000	2020-10-13T22:56:26:669
2075476,000000	2020-10-13T22:56:26:709
2075472,000000	2020-10-13T22:56:26:748
2076351,000000	2020-10-13T22:56:26:790
2078199,000000	2020-10-13T22:56:26:830
2081002,000000	2020-10-13T22:56:26:870
2084281,000000	2020-10-13T22:56:26:909
2088456,000000	2020-10-13T22:56:26:950
2092146,000000	2020-10-13T22:56:26:989
2096539,000000	2020-10-13T22:56:27:030
2096701,000000	2020-10-13T22:56:27:071
2089007,000000	2020-10-13T22:56:27:109
2079784,000000	2020-10-13T22:56:27:149
2074401,000000	2020-10-13T22:56:27:190
2072208,000000	2020-10-13T22:56:27:229
2071084,000000	2020-10-13T22:56:27:270
2071767,000000	2020-10-13T22:56:27:310
2073224,000000	2020-10-13T22:56:27:350
2074379,000000	2020-10-13T22:56:27:388
2075233,000000	2020-10-13T22:56:27:430
2076329,000000	2020-10-13T22:56:27:469
2078669,000000	2020-10-13T22:56:27:512
2080900,000000	2020-10-13T22:56:27:550
2083961,000000	2020-10-13T22:56:27:590
2087514,000000	2020-10-13T22:56:27:629
2091346,000000	2020-10-13T22:56:27:670
2094953,000000	2020-10-13T22:56:27:709
2096042,000000	2020-10-13T22:56:27:751
2088799,000000	2020-10-13T22:56:27:791
2080265,000000	2020-10-13T22:56:27:830
2075297,000000	2020-10-13T22:56:27:871
2073476,000000	2020-10-13T22:56:27:911
2072123,000000	2020-10-13T22:56:27:950
2071977,000000	2020-10-13T22:56:27:991
2073114,000000	2020-10-13T22:56:28:032
2074812,000000	2020-10-13T22:56:28:072
2075974,000000	2020-10-13T22:56:28:110
2077420,000000	2020-10-13T22:56:28:151
2080289,000000	2020-10-13T22:56:28:190
2082981,000000	2020-10-13T22:56:28:231
2086747,000000	2020-10-13T22:56:28:272
2090165,000000	2020-10-13T22:56:28:311
2094153,000000	2020-10-13T22:56:28:351
2098288,000000	2020-10-13T22:56:28:391
2102002,000000	2020-10-13T22:56:28:430
2104686,000000	2020-10-13T22:56:28:472
2101707,000000	2020-10-13T22:56:28:511
2093440,000000	2020-10-13T22:56:28:551
2087326,000000	2020-10-13T22:56:28:590
2083970,000000	2020-10-13T22:56:28:631
2082567,000000	2020-10-13T22:56:28:671
2081278,000000	2020-10-13T22:56:28:712
2081449,000000	2020-10-13T22:56:28:752
2082718,000000	2020-10-13T22:56:28:791
2084245,000000	2020-10-13T22:56:28:831
2085568,000000	2020-10-13T22:56:28:872
2087577,000000	2020-10-13T22:56:28:911
2090278,000000	2020-10-13T22:56:28:952
2093136,000000	2020-10-13T22:56:28:992
2097124,000000	2020-10-13T22:56:29:032
2101465,000000	2020-10-13T22:56:29:071
2105945,000000	2020-10-13T22:56:29:111
2110305,000000	2020-10-13T22:56:29:151
2114750,000000	2020-10-13T22:56:29:192
2119224,000000	2020-10-13T22:56:29:232
2123819,000000	2020-10-13T22:56:29:272
2128731,000000	2020-10-13T22:56:29:311
2130357,000000	2020-10-13T22:56:29:351
2125079,000000	2020-10-13T22:56:29:391
2119076,000000	2020-10-13T22:56:29:432
2116328,000000	2020-10-13T22:56:29:473
2115375,000000	2020-10-13T22:56:29:512
2115107,000000	2020-10-13T22:56:29:551
2116136,000000	2020-10-13T22:56:29:592
2117204,000000	2020-10-13T22:56:29:631
2119005,000000	2020-10-13T22:56:29:673
2120509,000000	2020-10-13T22:56:29:713
2122247,000000	2020-10-13T22:56:29:752
2124413,000000	2020-10-13T22:56:29:791
2127222,000000	2020-10-13T22:56:29:832
2130793,000000	2020-10-13T22:56:29:872
2135833,000000	2020-10-13T22:56:29:913
2140722,000000	2020-10-13T22:56:29:952
2145459,000000	2020-10-13T22:56:29:993
2150142,000000	2020-10-13T22:56:30:032
2154662,000000	2020-10-13T22:56:30:073
2159370,000000	2020-10-13T22:56:30:112
2163893,000000	2020-10-13T22:56:30:153
2168575,000000	2020-10-13T22:56:30:195
2166818,000000	2020-10-13T22:56:30:233
2161476,000000	2020-10-13T22:56:30:272
2157450,000000	2020-10-13T22:56:30:313
2155984,000000	2020-10-13T22:56:30:352
2156270,000000	2020-10-13T22:56:30:393
2156816,000000	2020-10-13T22:56:30:434
2158275,000000	2020-10-13T22:56:30:473
2159509,000000	2020-10-13T22:56:30:512
2160611,000000	2020-10-13T22:56:30:553
2161617,000000	2020-10-13T22:56:30:592
2163198,000000	2020-10-13T22:56:30:635
2164199,000000	2020-10-13T22:56:30:674
2167197,000000	2020-10-13T22:56:30:713
2169898,000000	2020-10-13T22:56:30:752
2172703,000000	2020-10-13T22:56:30:793
2175354,000000	2020-10-13T22:56:30:833
2177422,000000	2020-10-13T22:56:30:874
2179344,000000	2020-10-13T22:56:30:914
2180559,000000	2020-10-13T22:56:30:953
2175901,000000	2020-10-13T22:56:30:994
2167172,000000	2020-10-13T22:56:31:034
2161068,000000	2020-10-13T22:56:31:074
2157859,000000	2020-10-13T22:56:31:114
2156534,000000	2020-10-13T22:56:31:155
2155681,000000	2020-10-13T22:56:31:193
2155795,000000	2020-10-13T22:56:31:234
2156219,000000	2020-10-13T22:56:31:274
2156237,000000	2020-10-13T22:56:31:313
2155944,000000	2020-10-13T22:56:31:354
2156189,000000	2020-10-13T22:56:31:395
2157936,000000	2020-10-13T22:56:31:434
2159050,000000	2020-10-13T22:56:31:474
2160654,000000	2020-10-13T22:56:31:514
2163093,000000	2020-10-13T22:56:31:553
2165465,000000	2020-10-13T22:56:31:594
2167771,000000	2020-10-13T22:56:31:635
2171008,000000	2020-10-13T22:56:31:674
2172322,000000	2020-10-13T22:56:31:713
2166493,000000	2020-10-13T22:56:31:754
2156662,000000	2020-10-13T22:56:31:793
2149609,000000	2020-10-13T22:56:31:835
2144228,000000	2020-10-13T22:56:31:875
2140826,000000	2020-10-13T22:56:31:914
2138056,000000	2020-10-13T22:56:31:955
2137451,000000	2020-10-13T22:56:31:994
2136326,000000	2020-10-13T22:56:32:034
2135270,000000	2020-10-13T22:56:32:076
2134103,000000	2020-10-13T22:56:32:117
2133818,000000	2020-10-13T22:56:32:155
2133806,000000	2020-10-13T22:56:32:194
2134675,000000	2020-10-13T22:56:32:235
2136543,000000	2020-10-13T22:56:32:274
2138338,000000	2020-10-13T22:56:32:315
2140022,000000	2020-10-13T22:56:32:356
2142227,000000	2020-10-13T22:56:32:395
2144734,000000	2020-10-13T22:56:32:434
2147384,000000	2020-10-13T22:56:32:475
2149096,000000	2020-10-13T22:56:32:514
2144835,000000	2020-10-13T22:56:32:555
2134679,000000	2020-10-13T22:56:32:597
2124848,000000	2020-10-13T22:56:32:635
2118092,000000	2020-10-13T22:56:32:675
2113315,000000	2020-10-13T22:56:32:715
2109503,000000	2020-10-13T22:56:32:754
2107201,000000	2020-10-13T22:56:32:795
2105707,000000	2020-10-13T22:56:32:836
2104857,000000	2020-10-13T22:56:32:876
2103050,000000	2020-10-13T22:56:32:915
2101955,000000	2020-10-13T22:56:32:955
2101523,000000	2020-10-13T22:56:32:995
2102579,000000	2020-10-13T22:56:33:036
2104209,000000	2020-10-13T22:56:33:076
2106158,000000	2020-10-13T22:56:33:115
2107871,000000	2020-10-13T22:56:33:154
2110450,000000	2020-10-13T22:56:33:195
2112667,000000	2020-10-13T22:56:33:235
2114580,000000	2020-10-13T22:56:33:277
2117361,000000	2020-10-13T22:56:33:317
2118669,000000	2020-10-13T22:56:33:355
2110759,000000	2020-10-13T22:56:33:395
2098711,000000	2020-10-13T22:56:33:435
2090072,000000	2020-10-13T22:56:33:475
2084351,000000	2020-10-13T22:56:33:517
2080042,000000	2020-10-13T22:56:33:556
2077548,000000	2020-10-13T22:56:33:596
2076939,000000	2020-10-13T22:56:33:635
2075575,000000	2020-10-13T22:56:33:676
2074142,000000	2020-10-13T22:56:33:715
2072505,000000	2020-10-13T22:56:33:756
2071867,000000	2020-10-13T22:56:33:797
2072307,000000	2020-10-13T22:56:33:836
2073614,000000	2020-10-13T22:56:33:875
2074782,000000	2020-10-13T22:56:33:916
2076786,000000	2020-10-13T22:56:33:955
2079549,000000	2020-10-13T22:56:33:997
2081516,000000	2020-10-13T22:56:34:038
2083258,000000	2020-10-13T22:56:34:077
2081902,000000	2020-10-13T22:56:34:116
2070339,000000	2020-10-13T22:56:34:157
2057969,000000	2020-10-13T22:56:34:195
2048214,000000	2020-10-13T22:56:34:237
2042453,000000	2020-10-13T22:56:34:278
2037864,000000	2020-10-13T22:56:34:317
2035358,000000	2020-10-13T22:56:34:356
2034002,000000	2020-10-13T22:56:34:397
2033494,000000	2020-10-13T22:56:34:435
2031516,000000	2020-10-13T22:56:34:477
2030026,000000	2020-10-13T22:56:34:518
2030007,000000	2020-10-13T22:56:34:557
2030881,000000	2020-10-13T22:56:34:595
2032685,000000	2020-10-13T22:56:34:636
2036768,000000	2020-10-13T22:56:34:677
2037992,000000	2020-10-13T22:56:34:719
2039357,000000	2020-10-13T22:56:34:758
2040883,000000	2020-10-13T22:56:34:797
2038940,000000	2020-10-13T22:56:34:837
2026918,000000	2020-10-13T22:56:34:878
2012024,000000	2020-10-13T22:56:34:917
2001713,000000	2020-10-13T22:56:34:957
1994778,000000	2020-10-13T22:56:34:999
1989297,000000	2020-10-13T22:56:35:043
1985614,000000	2020-10-13T22:56:35:085
1983962,000000	2020-10-13T22:56:35:144
1981942,000000	2020-10-13T22:56:35:158
1978759,000000	2020-10-13T22:56:35:198
1976427,000000	2020-10-13T22:56:35:326
1975134,000000	2020-10-13T22:56:35:329
1975447,000000	2020-10-13T22:56:35:350
1976599,000000	2020-10-13T22:56:35:357
1979616,000000	2020-10-13T22:56:35:397
1982598,000000	2020-10-13T22:56:35:439
1986226,000000	2020-10-13T22:56:35:479
1990151,000000	2020-10-13T22:56:35:519
1994031,000000	2020-10-13T22:56:35:558
1997826,000000	2020-10-13T22:56:35:601
1999952,000000	2020-10-13T22:56:35:639
1990670,000000	2020-10-13T22:56:35:679
1978625,000000	2020-10-13T22:56:35:719
1970600,000000	2020-10-13T22:56:35:759
1968177,000000	2020-10-13T22:56:35:798
1968613,000000	2020-10-13T22:56:35:839
1970247,000000	2020-10-13T22:56:35:879
1973253,000000	2020-10-13T22:56:35:920
1975812,000000	2020-10-13T22:56:35:961
1976780,000000	2020-10-13T22:56:35:999
1977226,000000	2020-10-13T22:56:36:039
1978118,000000	2020-10-13T22:56:36:080
1980934,000000	2020-10-13T22:56:36:118
1984938,000000	2020-10-13T22:56:36:160
1989989,000000	2020-10-13T22:56:36:200
1995547,000000	2020-10-13T22:56:36:240
2000732,000000	2020-10-13T22:56:36:280
2005520,000000	2020-10-13T22:56:36:319
2009205,000000	2020-10-13T22:56:36:358
2013123,000000	2020-10-13T22:56:36:400
2017384,000000	2020-10-13T22:56:36:440
2021418,000000	2020-10-13T22:56:36:480
2014951,000000	2020-10-13T22:56:36:519
2002381,000000	2020-10-13T22:56:36:560
1991488,000000	2020-10-13T22:56:36:599
1985765,000000	2020-10-13T22:56:36:640
1984759,000000	2020-10-13T22:56:36:681
1987559,000000	2020-10-13T22:56:36:720
1992942,000000	2020-10-13T22:56:36:759
1998358,000000	2020-10-13T22:56:36:800
2002713,000000	2020-10-13T22:56:36:839
2006652,000000	2020-10-13T22:56:36:881
2010926,000000	2020-10-13T22:56:36:920
2016517,000000	2020-10-13T22:56:36:961
2023270,000000	2020-10-13T22:56:37:000
2032582,000000	2020-10-13T22:56:37:041
2040073,000000	2020-10-13T22:56:37:085
2047163,000000	2020-10-13T22:56:37:120
2053746,000000	2020-10-13T22:56:37:160
2061696,000000	2020-10-13T22:56:37:200
2068847,000000	2020-10-13T22:56:37:240
2070777,000000	2020-10-13T22:56:37:281
2065650,000000	2020-10-13T22:56:37:320
2062976,000000	2020-10-13T22:56:37:361
2060190,000000	2020-10-13T22:56:37:401
2055724,000000	2020-10-13T22:56:37:441
2053028,000000	2020-10-13T22:56:37:481
2052434,000000	2020-10-13T22:56:37:521
2053754,000000	2020-10-13T22:56:37:560
2056637,000000	2020-10-13T22:56:37:601
2061672,000000	2020-10-13T22:56:37:641
2067979,000000	2020-10-13T22:56:37:681
2073789,000000	2020-10-13T22:56:37:720
2079272,000000	2020-10-13T22:56:37:761
2084363,000000	2020-10-13T22:56:37:800
2088105,000000	2020-10-13T22:56:37:841
2089143,000000	2020-10-13T22:56:37:882
2089967,000000	2020-10-13T22:56:37:921
2090151,000000	2020-10-13T22:56:37:960
2089134,000000	2020-10-13T22:56:38:001
2088574,000000	2020-10-13T22:56:38:041
2088678,000000	2020-10-13T22:56:38:084
2083772,000000	2020-10-13T22:56:38:122
2071257,000000	2020-10-13T22:56:38:161
2057456,000000	2020-10-13T22:56:38:201
2047737,000000	2020-10-13T22:56:38:241
2040319,000000	2020-10-13T22:56:38:281
2035029,000000	2020-10-13T22:56:38:322
2032733,000000	2020-10-13T22:56:38:363
2033683,000000	2020-10-13T22:56:38:402
2036008,000000	2020-10-13T22:56:38:441
2039020,000000	2020-10-13T22:56:38:483
2044097,000000	2020-10-13T22:56:38:521
2048789,000000	2020-10-13T22:56:38:562
2053486,000000	2020-10-13T22:56:38:602
2058406,000000	2020-10-13T22:56:38:642
2063904,000000	2020-10-13T22:56:38:681
2069466,000000	2020-10-13T22:56:38:722
2074117,000000	2020-10-13T22:56:38:761
2079324,000000	2020-10-13T22:56:38:803
2084008,000000	2020-10-13T22:56:38:843
2089017,000000	2020-10-13T22:56:38:883
2094439,000000	2020-10-13T22:56:38:922
2095149,000000	2020-10-13T22:56:38:963
2088076,000000	2020-10-13T22:56:39:002
2079099,000000	2020-10-13T22:56:39:043
2073196,000000	2020-10-13T22:56:39:084
2070285,000000	2020-10-13T22:56:39:123
2068854,000000	2020-10-13T22:56:39:162
2068925,000000	2020-10-13T22:56:39:203
2071573,000000	2020-10-13T22:56:39:242
2075508,000000	2020-10-13T22:56:39:284
2079030,000000	2020-10-13T22:56:39:323
2083617,000000	2020-10-13T22:56:39:363
2089802,000000	2020-10-13T22:56:39:402
2098456,000000	2020-10-13T22:56:39:443
2107396,000000	2020-10-13T22:56:39:483
2115280,000000	2020-10-13T22:56:39:523
2122925,000000	2020-10-13T22:56:39:563
2128058,000000	2020-10-13T22:56:39:603
2132098,000000	2020-10-13T22:56:39:643
2134497,000000	2020-10-13T22:56:39:683
2128092,000000	2020-10-13T22:56:39:723
2118895,000000	2020-10-13T22:56:39:764
2112782,000000	2020-10-13T22:56:39:814
2111380,000000	2020-10-13T22:56:39:843
2112153,000000	2020-10-13T22:56:39:883
2113352,000000	2020-10-13T22:56:39:923
2115938,000000	2020-10-13T22:56:39:963
2119237,000000	2020-10-13T22:56:40:004
2123687,000000	2020-10-13T22:56:40:044
2128904,000000	2020-10-13T22:56:40:084
2134957,000000	2020-10-13T22:56:40:123
2141062,000000	2020-10-13T22:56:40:164
2148198,000000	2020-10-13T22:56:40:203
2156558,000000	2020-10-13T22:56:40:244
2165196,000000	2020-10-13T22:56:40:285
2173966,000000	2020-10-13T22:56:40:324
2183069,000000	2020-10-13T22:56:40:363
2189843,000000	2020-10-13T22:56:40:403
2187616,000000	2020-10-13T22:56:40:443
2183381,000000	2020-10-13T22:56:40:484
2181385,000000	2020-10-13T22:56:40:524
2181942,000000	2020-10-13T22:56:40:563
2182693,000000	2020-10-13T22:56:40:603
2184019,000000	2020-10-13T22:56:40:644
2185827,000000	2020-10-13T22:56:40:683
2188444,000000	2020-10-13T22:56:40:724
2191287,000000	2020-10-13T22:56:40:764
2194120,000000	2020-10-13T22:56:40:804
2197521,000000	2020-10-13T22:56:40:843
2203271,000000	2020-10-13T22:56:40:884
2210059,000000	2020-10-13T22:56:40:923
2216196,000000	2020-10-13T22:56:40:964
2221773,000000	2020-10-13T22:56:41:005
2227626,000000	2020-10-13T22:56:41:045
2233164,000000	2020-10-13T22:56:41:085
2238237,000000	2020-10-13T22:56:41:124
2237012,000000	2020-10-13T22:56:41:163
2230444,000000	2020-10-13T22:56:41:204
2224629,000000	2020-10-13T22:56:41:245
2221942,000000	2020-10-13T22:56:41:285
2220880,000000	2020-10-13T22:56:41:324
2220043,000000	2020-10-13T22:56:41:364
2219261,000000	2020-10-13T22:56:41:404
2218876,000000	2020-10-13T22:56:41:445
2217269,000000	2020-10-13T22:56:41:485
2214757,000000	2020-10-13T22:56:41:524
2212308,000000	2020-10-13T22:56:41:564
2210985,000000	2020-10-13T22:56:41:604
2213799,000000	2020-10-13T22:56:41:644
2218008,000000	2020-10-13T22:56:41:685
2224994,000000	2020-10-13T22:56:41:725
2230574,000000	2020-10-13T22:56:41:765
2235802,000000	2020-10-13T22:56:41:804
2245882,000000	2020-10-13T22:56:41:845
2258208,000000	2020-10-13T22:56:41:885
2264010,000000	2020-10-13T22:56:41:926
2263015,000000	2020-10-13T22:56:41:966
2263851,000000	2020-10-13T22:56:42:005
2266262,000000	2020-10-13T22:56:42:045
2269551,000000	2020-10-13T22:56:42:086
2273031,000000	2020-10-13T22:56:42:125
2277522,000000	2020-10-13T22:56:42:166
2282428,000000	2020-10-13T22:56:42:206
2286556,000000	2020-10-13T22:56:42:246
2288368,000000	2020-10-13T22:56:42:285
2289912,000000	2020-10-13T22:56:42:326
2294357,000000	2020-10-13T22:56:42:365
2299765,000000	2020-10-13T22:56:42:406
2304329,000000	2020-10-13T22:56:42:446
2309386,000000	2020-10-13T22:56:42:486
2315707,000000	2020-10-13T22:56:42:525
2323958,000000	2020-10-13T22:56:42:566
2333146,000000	2020-10-13T22:56:42:605
2339554,000000	2020-10-13T22:56:42:646
2341240,000000	2020-10-13T22:56:42:687
2343804,000000	2020-10-13T22:56:42:726
2349529,000000	2020-10-13T22:56:42:765
2354652,000000	2020-10-13T22:56:42:806
2360127,000000	2020-10-13T22:56:42:845
2364553,000000	2020-10-13T22:56:42:887
2367435,000000	2020-10-13T22:56:42:927
2368654,000000	2020-10-13T22:56:42:966
2369863,000000	2020-10-13T22:56:43:006
2370337,000000	2020-10-13T22:56:43:047
2370542,000000	2020-10-13T22:56:43:086
2371922,000000	2020-10-13T22:56:43:127
2373707,000000	2020-10-13T22:56:43:166
2375926,000000	2020-10-13T22:56:43:207
2377068,000000	2020-10-13T22:56:43:246
2380034,000000	2020-10-13T22:56:43:287
2383162,000000	2020-10-13T22:56:43:326
2383512,000000	2020-10-13T22:56:43:367
2377570,000000	2020-10-13T22:56:43:407
2371614,000000	2020-10-13T22:56:43:446
2364692,000000	2020-10-13T22:56:43:487
2363385,000000	2020-10-13T22:56:43:527
2363158,000000	2020-10-13T22:56:43:567
2364732,000000	2020-10-13T22:56:43:607
2366054,000000	2020-10-13T22:56:43:647
2367573,000000	2020-10-13T22:56:43:688
2368718,000000	2020-10-13T22:56:43:726
2370565,000000	2020-10-13T22:56:43:767
2373274,000000	2020-10-13T22:56:43:806
2376879,000000	2020-10-13T22:56:43:847
2379516,000000	2020-10-13T22:56:43:888
2380959,000000	2020-10-13T22:56:43:927
2381864,000000	2020-10-13T22:56:43:966
2382669,000000	2020-10-13T22:56:44:007
2383121,000000	2020-10-13T22:56:44:047
2377850,000000	2020-10-13T22:56:44:088
2368703,000000	2020-10-13T22:56:44:128
2360885,000000	2020-10-13T22:56:44:168
2356240,000000	2020-10-13T22:56:44:207
2354459,000000	2020-10-13T22:56:44:248
2353774,000000	2020-10-13T22:56:44:287
2354470,000000	2020-10-13T22:56:44:328
2355154,000000	2020-10-13T22:56:44:368
2356102,000000	2020-10-13T22:56:44:408
2357101,000000	2020-10-13T22:56:44:447
2358288,000000	2020-10-13T22:56:44:488
2359734,000000	2020-10-13T22:56:44:527
2362001,000000	2020-10-13T22:56:44:568
2364920,000000	2020-10-13T22:56:44:607
2367964,000000	2020-10-13T22:56:44:648
2371511,000000	2020-10-13T22:56:44:687
2374981,000000	2020-10-13T22:56:44:728
2378317,000000	2020-10-13T22:56:44:767
2380964,000000	2020-10-13T22:56:44:808
2381368,000000	2020-10-13T22:56:44:848
2376023,000000	2020-10-13T22:56:44:888
2369257,000000	2020-10-13T22:56:44:927
2364718,000000	2020-10-13T22:56:44:968
2362456,000000	2020-10-13T22:56:45:007
2361854,000000	2020-10-13T22:56:45:049
2362373,000000	2020-10-13T22:56:45:089
2362125,000000	2020-10-13T22:56:45:128
2362157,000000	2020-10-13T22:56:45:167
2361694,000000	2020-10-13T22:56:45:208
2360677,000000	2020-10-13T22:56:45:247
2360342,000000	2020-10-13T22:56:45:289
2361051,000000	2020-10-13T22:56:45:329
2362289,000000	2020-10-13T22:56:45:368
2364184,000000	2020-10-13T22:56:45:408
2365807,000000	2020-10-13T22:56:45:448
2368911,000000	2020-10-13T22:56:45:488
2372489,000000	2020-10-13T22:56:45:529
2374866,000000	2020-10-13T22:56:45:571
2372337,000000	2020-10-13T22:56:45:609
2363865,000000	2020-10-13T22:56:45:648
2355107,000000	2020-10-13T22:56:45:689
2349010,000000	2020-10-13T22:56:45:728
2345295,000000	2020-10-13T22:56:45:769
2342274,000000	2020-10-13T22:56:45:809
2341191,000000	2020-10-13T22:56:45:849
2339609,000000	2020-10-13T22:56:45:888
2337967,000000	2020-10-13T22:56:45:929
2335971,000000	2020-10-13T22:56:45:969
2334703,000000	2020-10-13T22:56:46:009
2333771,000000	2020-10-13T22:56:46:050
2334655,000000	2020-10-13T22:56:46:089
2335728,000000	2020-10-13T22:56:46:129
2337235,000000	2020-10-13T22:56:46:169
2339324,000000	2020-10-13T22:56:46:208
2341583,000000	2020-10-13T22:56:46:251
2343384,000000	2020-10-13T22:56:46:290
2341001,000000	2020-10-13T22:56:46:329
2330083,000000	2020-10-13T22:56:46:369
2318615,000000	2020-10-13T22:56:46:409
2310755,000000	2020-10-13T22:56:46:449
2306188,000000	2020-10-13T22:56:46:490
2303003,000000	2020-10-13T22:56:46:530
2300744,000000	2020-10-13T22:56:46:569
2300549,000000	2020-10-13T22:56:46:609
2300759,000000	2020-10-13T22:56:46:650
2299794,000000	2020-10-13T22:56:46:689
2299259,000000	2020-10-13T22:56:46:730
2298839,000000	2020-10-13T22:56:46:771
2300032,000000	2020-10-13T22:56:46:810
2301416,000000	2020-10-13T22:56:46:849
2303764,000000	2020-10-13T22:56:46:890
2306642,000000	2020-10-13T22:56:46:929
2309422,000000	2020-10-13T22:56:46:971
2312085,000000	2020-10-13T22:56:47:011
2314266,000000	2020-10-13T22:56:47:051
2317021,000000	2020-10-13T22:56:47:090
2312838,000000	2020-10-13T22:56:47:130
2301918,000000	2020-10-13T22:56:47:169
2291961,000000	2020-10-13T22:56:47:211
2284934,000000	2020-10-13T22:56:47:250
2280851,000000	2020-10-13T22:56:47:290
2277724,000000	2020-10-13T22:56:47:330
2275577,000000	2020-10-13T22:56:47:370
2274630,000000	2020-10-13T22:56:47:409
2274196,000000	2020-10-13T22:56:47:451
2272779,000000	2020-10-13T22:56:47:491
2272026,000000	2020-10-13T22:56:47:530
2272476,000000	2020-10-13T22:56:47:570
2273227,000000	2020-10-13T22:56:47:611
2275008,000000	2020-10-13T22:56:47:650
2278017,000000	2020-10-13T22:56:47:691
2280125,000000	2020-10-13T22:56:47:731
2282871,000000	2020-10-13T22:56:47:771
2285433,000000	2020-10-13T22:56:47:810
2288371,000000	2020-10-13T22:56:47:851
2290965,000000	2020-10-13T22:56:47:890
2294013,000000	2020-10-13T22:56:47:931
2292498,000000	2020-10-13T22:56:47:978
2282629,000000	2020-10-13T22:56:48:011
2271706,000000	2020-10-13T22:56:48:051
2264041,000000	2020-10-13T22:56:48:096
2259759,000000	2020-10-13T22:56:48:130
2255997,000000	2020-10-13T22:56:48:171
2254081,000000	2020-10-13T22:56:48:212
2253350,000000	2020-10-13T22:56:48:251
2251991,000000	2020-10-13T22:56:48:291
2250639,000000	2020-10-13T22:56:48:331
2250100,000000	2020-10-13T22:56:48:370
2249427,000000	2020-10-13T22:56:48:412
2250216,000000	2020-10-13T22:56:48:452
2252073,000000	2020-10-13T22:56:48:492
2254665,000000	2020-10-13T22:56:48:531
2257735,000000	2020-10-13T22:56:48:571
2260176,000000	2020-10-13T22:56:48:610
2262949,000000	2020-10-13T22:56:48:652
2265826,000000	2020-10-13T22:56:48:692
2268740,000000	2020-10-13T22:56:48:732
2271462,000000	2020-10-13T22:56:48:771
2267022,000000	2020-10-13T22:56:48:812
2255374,000000	2020-10-13T22:56:48:851
2245668,000000	2020-10-13T22:56:48:892
2240059,000000	2020-10-13T22:56:48:932
2236520,000000	2020-10-13T22:56:48:971
2234235,000000	2020-10-13T22:56:49:012
2233569,000000	2020-10-13T22:56:49:051
2232852,000000	2020-10-13T22:56:49:091
2231810,000000	2020-10-13T22:56:49:131
2230160,000000	2020-10-13T22:56:49:172
2229493,000000	2020-10-13T22:56:49:211
2229366,000000	2020-10-13T22:56:49:251
2230208,000000	2020-10-13T22:56:49:292
2231955,000000	2020-10-13T22:56:49:331
2234005,000000	2020-10-13T22:56:49:371
2236321,000000	2020-10-13T22:56:49:412
2238743,000000	2020-10-13T22:56:49:451
2240373,000000	2020-10-13T22:56:49:491
2239722,000000	2020-10-13T22:56:49:531
2229782,000000	2020-10-13T22:56:49:571
2217284,000000	2020-10-13T22:56:49:612
2207932,000000	2020-10-13T22:56:49:652
2201729,000000	2020-10-13T22:56:49:692
2197455,000000	2020-10-13T22:56:49:731
2194063,000000	2020-10-13T22:56:49:771
2193144,000000	2020-10-13T22:56:49:811
2191946,000000	2020-10-13T22:56:49:852
2189980,000000	2020-10-13T22:56:49:892
2188112,000000	2020-10-13T22:56:49:932
2187410,000000	2020-10-13T22:56:49:971
2187034,000000	2020-10-13T22:56:50:012
2187981,000000	2020-10-13T22:56:50:052
2189674,000000	2020-10-13T22:56:50:094
2191438,000000	2020-10-13T22:56:50:133
2193808,000000	2020-10-13T22:56:50:173
2195954,000000	2020-10-13T22:56:50:211
2198131,000000	2020-10-13T22:56:50:252
2198750,000000	2020-10-13T22:56:50:292
2189401,000000	2020-10-13T22:56:50:333
2174826,000000	2020-10-13T22:56:50:373
2163436,000000	2020-10-13T22:56:50:412
2155946,000000	2020-10-13T22:56:50:452
2150365,000000	2020-10-13T22:56:50:493
2145673,000000	2020-10-13T22:56:50:532
2143426,000000	2020-10-13T22:56:50:573
2141563,000000	2020-10-13T22:56:50:613
2139758,000000	2020-10-13T22:56:50:652
2137636,000000	2020-10-13T22:56:50:692
2136082,000000	2020-10-13T22:56:50:733
2136215,000000	2020-10-13T22:56:50:772
2136788,000000	2020-10-13T22:56:50:813
2138224,000000	2020-10-13T22:56:50:853
2140310,000000	2020-10-13T22:56:50:893
2142859,000000	2020-10-13T22:56:50:932
2144757,000000	2020-10-13T22:56:50:973
2147043,000000	2020-10-13T22:56:51:013
2149681,000000	2020-10-13T22:56:51:053
2152181,000000	2020-10-13T22:56:51:100
2154664,000000	2020-10-13T22:56:51:135
2148753,000000	2020-10-13T22:56:51:173
2133747,000000	2020-10-13T22:56:51:213
2120136,000000	2020-10-13T22:56:51:253
2111290,000000	2020-10-13T22:56:51:294
2105089,000000	2020-10-13T22:56:51:334
2100018,000000	2020-10-13T22:56:51:373
2097145,000000	2020-10-13T22:56:51:413
2095656,000000	2020-10-13T22:56:51:453
2093924,000000	2020-10-13T22:56:51:493
2092160,000000	2020-10-13T22:56:51:533
2090581,000000	2020-10-13T22:56:51:574
2090025,000000	2020-10-13T22:56:51:613
2090720,000000	2020-10-13T22:56:51:653
2092840,000000	2020-10-13T22:56:51:694
2095228,000000	2020-10-13T22:56:51:733
2097810,000000	2020-10-13T22:56:51:774
2100830,000000	2020-10-13T22:56:51:813
2103769,000000	2020-10-13T22:56:51:854
2106985,000000	2020-10-13T22:56:51:893
2109992,000000	2020-10-13T22:56:51:934
2113179,000000	2020-10-13T22:56:51:974
2116948,000000	2020-10-13T22:56:52:014
2120987,000000	2020-10-13T22:56:52:055
2122965,000000	2020-10-13T22:56:52:095
2113924,000000	2020-10-13T22:56:52:133
2099514,000000	2020-10-13T22:56:52:174
2089385,000000	2020-10-13T22:56:52:213
2083295,000000	2020-10-13T22:56:52:254
2078089,000000	2020-10-13T22:56:52:295
2077860,000000	2020-10-13T22:56:52:335
2078074,000000	2020-10-13T22:56:52:374
2078009,000000	2020-10-13T22:56:52:415
2077712,000000	2020-10-13T22:56:52:454
2078552,000000	2020-10-13T22:56:52:494
2080449,000000	2020-10-13T22:56:52:535
2083164,000000	2020-10-13T22:56:52:574
2086887,000000	2020-10-13T22:56:52:613
2090760,000000	2020-10-13T22:56:52:654
2094533,000000	2020-10-13T22:56:52:694
2098143,000000	2020-10-13T22:56:52:734
2102235,000000	2020-10-13T22:56:52:775
2106285,000000	2020-10-13T22:56:52:814
2110793,000000	2020-10-13T22:56:52:853
2115434,000000	2020-10-13T22:56:52:895
2119876,000000	2020-10-13T22:56:52:934
2120248,000000	2020-10-13T22:56:52:975
2110202,000000	2020-10-13T22:56:53:016
2099969,000000	2020-10-13T22:56:53:055
2094585,000000	2020-10-13T22:56:53:095
2092701,000000	2020-10-13T22:56:53:135
2092262,000000	2020-10-13T22:56:53:174
2093339,000000	2020-10-13T22:56:53:215
2095555,000000	2020-10-13T22:56:53:256
2097239,000000	2020-10-13T22:56:53:295
2098746,000000	2020-10-13T22:56:53:335
2100180,000000	2020-10-13T22:56:53:375
2102204,000000	2020-10-13T22:56:53:415
2106060,000000	2020-10-13T22:56:53:456
2110170,000000	2020-10-13T22:56:53:496
2115381,000000	2020-10-13T22:56:53:536
2120516,000000	2020-10-13T22:56:53:575
2125690,000000	2020-10-13T22:56:53:615
2130797,000000	2020-10-13T22:56:53:655
2136036,000000	2020-10-13T22:56:53:696
2141227,000000	2020-10-13T22:56:53:736
2146270,000000	2020-10-13T22:56:53:776
2151751,000000	2020-10-13T22:56:53:815
2151827,000000	2020-10-13T22:56:53:855
2143848,000000	2020-10-13T22:56:53:895
2136038,000000	2020-10-13T22:56:53:936
2132752,000000	2020-10-13T22:56:53:976
2132174,000000	2020-10-13T22:56:54:016
2132693,000000	2020-10-13T22:56:54:056
2133840,000000	2020-10-13T22:56:54:096
2136323,000000	2020-10-13T22:56:54:135
2138970,000000	2020-10-13T22:56:54:177
2141069,000000	2020-10-13T22:56:54:217
2143266,000000	2020-10-13T22:56:54:256
2146573,000000	2020-10-13T22:56:54:296
2150274,000000	2020-10-13T22:56:54:336
2154952,000000	2020-10-13T22:56:54:376
2160241,000000	2020-10-13T22:56:54:417
2165904,000000	2020-10-13T22:56:54:456
2171275,000000	2020-10-13T22:56:54:497
2176557,000000	2020-10-13T22:56:54:535
2181417,000000	2020-10-13T22:56:54:576
2186907,000000	2020-10-13T22:56:54:616
2191729,000000	2020-10-13T22:56:54:657
2195459,000000	2020-10-13T22:56:54:697
2191301,000000	2020-10-13T22:56:54:737
2183771,000000	2020-10-13T22:56:54:776
2179575,000000	2020-10-13T22:56:54:816
2178424,000000	2020-10-13T22:56:54:856
2178522,000000	2020-10-13T22:56:54:897
2178962,000000	2020-10-13T22:56:54:937
2180977,000000	2020-10-13T22:56:54:977
2183082,000000	2020-10-13T22:56:55:016
2184854,000000	2020-10-13T22:56:55:057
2185982,000000	2020-10-13T22:56:55:097
2187825,000000	2020-10-13T22:56:55:137
2190462,000000	2020-10-13T22:56:55:178
2194079,000000	2020-10-13T22:56:55:217
2198257,000000	2020-10-13T22:56:55:256
2202447,000000	2020-10-13T22:56:55:297
2207759,000000	2020-10-13T22:56:55:337
2211789,000000	2020-10-13T22:56:55:378
2215928,000000	2020-10-13T22:56:55:417
2220520,000000	2020-10-13T22:56:55:459
2224671,000000	2020-10-13T22:56:55:497
2226621,000000	2020-10-13T22:56:55:537
2220999,000000	2020-10-13T22:56:55:577
2214517,000000	2020-10-13T22:56:55:618
2209591,000000	2020-10-13T22:56:55:658
2208581,000000	2020-10-13T22:56:55:698
2208142,000000	2020-10-13T22:56:55:737
2208176,000000	2020-10-13T22:56:55:778
2209755,000000	2020-10-13T22:56:55:817
2210846,000000	2020-10-13T22:56:55:858
2211029,000000	2020-10-13T22:56:55:899
2211230,000000	2020-10-13T22:56:55:938
2212522,000000	2020-10-13T22:56:55:977
2214531,000000	2020-10-13T22:56:56:018
2217406,000000	2020-10-13T22:56:56:058
2220114,000000	2020-10-13T22:56:56:100
2223380,000000	2020-10-13T22:56:56:139
2225886,000000	2020-10-13T22:56:56:178
2228922,000000	2020-10-13T22:56:56:218
2231989,000000	2020-10-13T22:56:56:259
2232618,000000	2020-10-13T22:56:56:298
2224524,000000	2020-10-13T22:56:56:339
2214753,000000	2020-10-13T22:56:56:379
2208432,000000	2020-10-13T22:56:56:418
2204230,000000	2020-10-13T22:56:56:457
2201260,000000	2020-10-13T22:56:56:498
2199080,000000	2020-10-13T22:56:56:538
2198028,000000	2020-10-13T22:56:56:578
2197492,000000	2020-10-13T22:56:56:618
2196844,000000	2020-10-13T22:56:56:659
2195517,000000	2020-10-13T22:56:56:699
2194698,000000	2020-10-13T22:56:56:739
2195673,000000	2020-10-13T22:56:56:778
2197141,000000	2020-10-13T22:56:56:819
2199654,000000	2020-10-13T22:56:56:859
2201987,000000	2020-10-13T22:56:56:900
2204648,000000	2020-10-13T22:56:56:938
2207229,000000	2020-10-13T22:56:56:979
2209267,000000	2020-10-13T22:56:57:019
2211371,000000	2020-10-13T22:56:57:059
2211244,000000	2020-10-13T22:56:57:102
2201118,000000	2020-10-13T22:56:57:139
2189140,000000	2020-10-13T22:56:57:178
2181001,000000	2020-10-13T22:56:57:219
2175269,000000	2020-10-13T22:56:57:259
2170788,000000	2020-10-13T22:56:57:300
2166567,000000	2020-10-13T22:56:57:339
2165110,000000	2020-10-13T22:56:57:379
2163524,000000	2020-10-13T22:56:57:418
2162044,000000	2020-10-13T22:56:57:459
2160299,000000	2020-10-13T22:56:57:500
2159992,000000	2020-10-13T22:56:57:539
2160043,000000	2020-10-13T22:56:57:579
2160933,000000	2020-10-13T22:56:57:620
2162682,000000	2020-10-13T22:56:57:659
2164813,000000	2020-10-13T22:56:57:700
2167586,000000	2020-10-13T22:56:57:739
2170403,000000	2020-10-13T22:56:57:780
2173525,000000	2020-10-13T22:56:57:820
2176338,000000	2020-10-13T22:56:57:860
2180005,000000	2020-10-13T22:56:57:899
2183251,000000	2020-10-13T22:56:57:939
2187242,000000	2020-10-13T22:56:57:979
2182879,000000	2020-10-13T22:56:58:019
2171639,000000	2020-10-13T22:56:58:061
2160533,000000	2020-10-13T22:56:58:111
2153305,000000	2020-10-13T22:56:58:139
2149095,000000	2020-10-13T22:56:58:179
2145239,000000	2020-10-13T22:56:58:219
2142977,000000	2020-10-13T22:56:58:286
2141873,000000	2020-10-13T22:56:58:302
2141269,000000	2020-10-13T22:56:58:342
2140242,000000	2020-10-13T22:56:58:381
2139570,000000	2020-10-13T22:56:58:420
2139985,000000	2020-10-13T22:56:58:460
2141521,000000	2020-10-13T22:56:58:501
2143560,000000	2020-10-13T22:56:58:540
2145974,000000	2020-10-13T22:56:58:580
2148411,000000	2020-10-13T22:56:58:620
2150630,000000	2020-10-13T22:56:58:661
2153768,000000	2020-10-13T22:56:58:700
2156125,000000	2020-10-13T22:56:58:741
2158288,000000	2020-10-13T22:56:58:780
2160985,000000	2020-10-13T22:56:58:821
2163981,000000	2020-10-13T22:56:58:860
2167737,000000	2020-10-13T22:56:58:901
2169669,000000	2020-10-13T22:56:58:940
2163222,000000	2020-10-13T22:56:58:981
2151837,000000	2020-10-13T22:56:59:024
2142757,000000	2020-10-13T22:56:59:061
2137300,000000	2020-10-13T22:56:59:100
2133517,000000	2020-10-13T22:56:59:141
2130108,000000	2020-10-13T22:56:59:180
2127957,000000	2020-10-13T22:56:59:221
2126891,000000	2020-10-13T22:56:59:261
2126727,000000	2020-10-13T22:56:59:301
2125577,000000	2020-10-13T22:56:59:340
2125000,000000	2020-10-13T22:56:59:381
2124906,000000	2020-10-13T22:56:59:420
2126151,000000	2020-10-13T22:56:59:461
2128653,000000	2020-10-13T22:56:59:502
2130983,000000	2020-10-13T22:56:59:541
2134300,000000	2020-10-13T22:56:59:580
2137496,000000	2020-10-13T22:56:59:621
2141447,000000	2020-10-13T22:56:59:661
2144860,000000	2020-10-13T22:56:59:702
2148009,000000	2020-10-13T22:56:59:741
2150627,000000	2020-10-13T22:56:59:781
2144761,000000	2020-10-13T22:56:59:821
2134463,000000	2020-10-13T22:56:59:861
2125683,000000	2020-10-13T22:56:59:901
2121200,000000	2020-10-13T22:56:59:942
2119014,000000	2020-10-13T22:56:59:982
2117679,000000	2020-10-13T22:57:00:022
2117696,000000	2020-10-13T22:57:00:061
2118239,000000	2020-10-13T22:57:00:102
2118598,000000	2020-10-13T22:57:00:141
2118368,000000	2020-10-13T22:57:00:182
2118681,000000	2020-10-13T22:57:00:221
2120153,000000	2020-10-13T22:57:00:262
2121966,000000	2020-10-13T22:57:00:302
2125012,000000	2020-10-13T22:57:00:342
2128468,000000	2020-10-13T22:57:00:381
2132997,000000	2020-10-13T22:57:00:422
2136942,000000	2020-10-13T22:57:00:463
2141191,000000	2020-10-13T22:57:00:503
2145805,000000	2020-10-13T22:57:00:542
2150466,000000	2020-10-13T22:57:00:582
2152359,000000	2020-10-13T22:57:00:621
2145358,000000	2020-10-13T22:57:00:664
2134232,000000	2020-10-13T22:57:00:703
2127081,000000	2020-10-13T22:57:00:743
2122338,000000	2020-10-13T22:57:00:782
2120095,000000	2020-10-13T22:57:00:823
2117729,000000	2020-10-13T22:57:00:862
2118029,000000	2020-10-13T22:57:00:904
2118646,000000	2020-10-13T22:57:00:945
2119995,000000	2020-10-13T22:57:00:983
2120784,000000	2020-10-13T22:57:01:022
2122114,000000	2020-10-13T22:57:01:063
2124094,000000	2020-10-13T22:57:01:104
2126988,000000	2020-10-13T22:57:01:143
2129531,000000	2020-10-13T22:57:01:183
2135164,000000	2020-10-13T22:57:01:224
2138112,000000	2020-10-13T22:57:01:264
2141435,000000	2020-10-13T22:57:01:304
2144343,000000	2020-10-13T22:57:01:343
2148142,000000	2020-10-13T22:57:01:383
2152162,000000	2020-10-13T22:57:01:425
2156426,000000	2020-10-13T22:57:01:463
2156329,000000	2020-10-13T22:57:01:503
2145767,000000	2020-10-13T22:57:01:543
2134103,000000	2020-10-13T22:57:01:582
2126660,000000	2020-10-13T22:57:01:623
2122216,000000	2020-10-13T22:57:01:663
2118314,000000	2020-10-13T22:57:01:705
2115554,000000	2020-10-13T22:57:01:742
2112724,000000	2020-10-13T22:57:01:783
2111085,000000	2020-10-13T22:57:01:823
2108920,000000	2020-10-13T22:57:01:864
2106586,000000	2020-10-13T22:57:01:904
2105123,000000	2020-10-13T22:57:01:944
2105252,000000	2020-10-13T22:57:01:984
2106774,000000	2020-10-13T22:57:02:024
2110640,000000	2020-10-13T22:57:02:064
2115265,000000	2020-10-13T22:57:02:105
2119238,000000	2020-10-13T22:57:02:144
2123848,000000	2020-10-13T22:57:02:184
2127123,000000	2020-10-13T22:57:02:223
2130671,000000	2020-10-13T22:57:02:264
2135064,000000	2020-10-13T22:57:02:304
2140851,000000	2020-10-13T22:57:02:344
2144511,000000	2020-10-13T22:57:02:384
2136329,000000	2020-10-13T22:57:02:424
2124574,000000	2020-10-13T22:57:02:463
2116155,000000	2020-10-13T22:57:02:505
2112026,000000	2020-10-13T22:57:02:544
2110986,000000	2020-10-13T22:57:02:584
2110971,000000	2020-10-13T22:57:02:625
2113367,000000	2020-10-13T22:57:02:664
2116228,000000	2020-10-13T22:57:02:704
2117144,000000	2020-10-13T22:57:02:744
2117526,000000	2020-10-13T22:57:02:784
2117607,000000	2020-10-13T22:57:02:825
2119310,000000	2020-10-13T22:57:02:865
2121072,000000	2020-10-13T22:57:02:905
2124095,000000	2020-10-13T22:57:02:944
2127225,000000	2020-10-13T22:57:02:985
2131158,000000	2020-10-13T22:57:03:025
2135194,000000	2020-10-13T22:57:03:066
2140131,000000	2020-10-13T22:57:03:105
2143284,000000	2020-10-13T22:57:03:145
2135297,000000	2020-10-13T22:57:03:184
2122441,000000	2020-10-13T22:57:03:225
2113604,000000	2020-10-13T22:57:03:264
2109269,000000	2020-10-13T22:57:03:306
2107794,000000	2020-10-13T22:57:03:346
2107454,000000	2020-10-13T22:57:03:385
2109502,000000	2020-10-13T22:57:03:424
2111801,000000	2020-10-13T22:57:03:465
2113365,000000	2020-10-13T22:57:03:505
2114558,000000	2020-10-13T22:57:03:546
2116182,000000	2020-10-13T22:57:03:586
2119166,000000	2020-10-13T22:57:03:625
2123299,000000	2020-10-13T22:57:03:665
2127578,000000	2020-10-13T22:57:03:706
2132281,000000	2020-10-13T22:57:03:745
2138004,000000	2020-10-13T22:57:03:786
2143644,000000	2020-10-13T22:57:03:826
2149688,000000	2020-10-13T22:57:03:866
2148339,000000	2020-10-13T22:57:03:904
2136464,000000	2020-10-13T22:57:03:945
2124880,000000	2020-10-13T22:57:03:985
2118160,000000	2020-10-13T22:57:04:026
2114587,000000	2020-10-13T22:57:04:067
2113080,000000	2020-10-13T22:57:04:106
2112423,000000	2020-10-13T22:57:04:145
2114265,000000	2020-10-13T22:57:04:185
2116077,000000	2020-10-13T22:57:04:225
2117138,000000	2020-10-13T22:57:04:266
2118076,000000	2020-10-13T22:57:04:306
2120274,000000	2020-10-13T22:57:04:346
2123389,000000	2020-10-13T22:57:04:385
2127787,000000	2020-10-13T22:57:04:447
2132421,000000	2020-10-13T22:57:04:465
2137106,000000	2020-10-13T22:57:04:507
2142293,000000	2020-10-13T22:57:04:547
2147773,000000	2020-10-13T22:57:04:586
2152707,000000	2020-10-13T22:57:04:626
2156032,000000	2020-10-13T22:57:04:666
2147371,000000	2020-10-13T22:57:04:706
2133904,000000	2020-10-13T22:57:04:747
2124568,000000	2020-10-13T22:57:04:787
2119395,000000	2020-10-13T22:57:04:827
2116648,000000	2020-10-13T22:57:04:866
2115627,000000	2020-10-13T22:57:04:907
2115973,000000	2020-10-13T22:57:04:946
2117365,000000	2020-10-13T22:57:04:987
2119315,000000	2020-10-13T22:57:05:028
2120773,000000	2020-10-13T22:57:05:067
2121492,000000	2020-10-13T22:57:05:106
2124214,000000	2020-10-13T22:57:05:147
2127598,000000	2020-10-13T22:57:05:186
2131493,000000	2020-10-13T22:57:05:227
2136351,000000	2020-10-13T22:57:05:268
2140962,000000	2020-10-13T22:57:05:307
2145847,000000	2020-10-13T22:57:05:346
2150566,000000	2020-10-13T22:57:05:387
2155354,000000	2020-10-13T22:57:05:426
2158291,000000	2020-10-13T22:57:05:467
2149959,000000	2020-10-13T22:57:05:508
2137499,000000	2020-10-13T22:57:05:547
2129424,000000	2020-10-13T22:57:05:587
2125125,000000	2020-10-13T22:57:05:627
2123527,000000	2020-10-13T22:57:05:667
2122997,000000	2020-10-13T22:57:05:708
2124157,000000	2020-10-13T22:57:05:748
2125664,000000	2020-10-13T22:57:05:787
2126910,000000	2020-10-13T22:57:05:827
2127299,000000	2020-10-13T22:57:05:867
2128342,000000	2020-10-13T22:57:05:907
2131159,000000	2020-10-13T22:57:05:948
2134401,000000	2020-10-13T22:57:05:988
2138180,000000	2020-10-13T22:57:06:028
2142366,000000	2020-10-13T22:57:06:067
2146520,000000	2020-10-13T22:57:06:109
2151173,000000	2020-10-13T22:57:06:147
2155074,000000	2020-10-13T22:57:06:188
2156165,000000	2020-10-13T22:57:06:228
2145317,000000	2020-10-13T22:57:06:269
2132793,000000	2020-10-13T22:57:06:308
2124650,000000	2020-10-13T22:57:06:348
2120842,000000	2020-10-13T22:57:06:387
2118771,000000	2020-10-13T22:57:06:429
2118170,000000	2020-10-13T22:57:06:468
2118628,000000	2020-10-13T22:57:06:509
2119706,000000	2020-10-13T22:57:06:547
2119928,000000	2020-10-13T22:57:06:588
2119757,000000	2020-10-13T22:57:06:628
2120912,000000	2020-10-13T22:57:06:669
2123521,000000	2020-10-13T22:57:06:709
2126794,000000	2020-10-13T22:57:06:748
2130848,000000	2020-10-13T22:57:06:788
2135077,000000	2020-10-13T22:57:06:828
2139007,000000	2020-10-13T22:57:06:867
2143399,000000	2020-10-13T22:57:06:909
2146135,000000	2020-10-13T22:57:06:949
2138235,000000	2020-10-13T22:57:06:989
2124515,000000	2020-10-13T22:57:07:028
2114402,000000	2020-10-13T22:57:07:069
2109292,000000	2020-10-13T22:57:07:108
2106060,000000	2020-10-13T22:57:07:149
2104232,000000	2020-10-13T22:57:07:189
2104296,000000	2020-10-13T22:57:07:229
2105358,000000	2020-10-13T22:57:07:268
2105946,000000	2020-10-13T22:57:07:309
2106123,000000	2020-10-13T22:57:07:348
2106840,000000	2020-10-13T22:57:07:389
2108863,000000	2020-10-13T22:57:07:429
2111990,000000	2020-10-13T22:57:07:469
2115797,000000	2020-10-13T22:57:07:509
2119970,000000	2020-10-13T22:57:07:549
2124516,000000	2020-10-13T22:57:07:588
2128821,000000	2020-10-13T22:57:07:629
2133191,000000	2020-10-13T22:57:07:670
2137183,000000	2020-10-13T22:57:07:709
2134381,000000	2020-10-13T22:57:07:748
2120859,000000	2020-10-13T22:57:07:789
2108620,000000	2020-10-13T22:57:07:828
2101309,000000	2020-10-13T22:57:07:869
2096872,000000	2020-10-13T22:57:07:910
2093852,000000	2020-10-13T22:57:07:951
2092570,000000	2020-10-13T22:57:07:989
2093078,000000	2020-10-13T22:57:08:029
2094088,000000	2020-10-13T22:57:08:069
2093688,000000	2020-10-13T22:57:08:110
2093490,000000	2020-10-13T22:57:08:150
2095074,000000	2020-10-13T22:57:08:190
2097722,000000	2020-10-13T22:57:08:229
2100836,000000	2020-10-13T22:57:08:270
2105025,000000	2020-10-13T22:57:08:309
2108821,000000	2020-10-13T22:57:08:351
2112899,000000	2020-10-13T22:57:08:390
2117517,000000	2020-10-13T22:57:08:430
2121251,000000	2020-10-13T22:57:08:469
2125219,000000	2020-10-13T22:57:08:511
2129736,000000	2020-10-13T22:57:08:549
2128441,000000	2020-10-13T22:57:08:590
2116108,000000	2020-10-13T22:57:08:631
2103500,000000	2020-10-13T22:57:08:670
2095660,000000	2020-10-13T22:57:08:710
2091371,000000	2020-10-13T22:57:08:750
2088345,000000	2020-10-13T22:57:08:790
2086639,000000	2020-10-13T22:57:08:831
2086753,000000	2020-10-13T22:57:08:870
2087029,000000	2020-10-13T22:57:08:911
2086945,000000	2020-10-13T22:57:08:950
2086852,000000	2020-10-13T22:57:08:991
2088768,000000	2020-10-13T22:57:09:030
2091433,000000	2020-10-13T22:57:09:072
2094802,000000	2020-10-13T22:57:09:111
2098622,000000	2020-10-13T22:57:09:151
2103114,000000	2020-10-13T22:57:09:189
2106783,000000	2020-10-13T22:57:09:230
2111171,000000	2020-10-13T22:57:09:270
2114829,000000	2020-10-13T22:57:09:311
2117824,000000	2020-10-13T22:57:09:353
2110052,000000	2020-10-13T22:57:09:391
2097344,000000	2020-10-13T22:57:09:430
2088015,000000	2020-10-13T22:57:09:471
2083871,000000	2020-10-13T22:57:09:511
2081469,000000	2020-10-13T22:57:09:551
2080444,000000	2020-10-13T22:57:09:591
2081286,000000	2020-10-13T22:57:09:632
2082505,000000	2020-10-13T22:57:09:670
2082424,000000	2020-10-13T22:57:09:711
2082362,000000	2020-10-13T22:57:09:750
2083138,000000	2020-10-13T22:57:09:792
2086063,000000	2020-10-13T22:57:09:831
2089323,000000	2020-10-13T22:57:09:871
2097628,000000	2020-10-13T22:57:09:911
2097628,000000	2020-10-13T22:57:09:951
2106496,000000	2020-10-13T22:57:09:991
2108153,000000	2020-10-13T22:57:10:032
2099535,000000	2020-10-13T22:57:10:072
2087443,000000	2020-10-13T22:57:10:111
2079999,000000	2020-10-13T22:57:10:152
2076425,000000	2020-10-13T22:57:10:191
2073987,000000	2020-10-13T22:57:10:230
2073455,000000	2020-10-13T22:57:10:272
2075215,000000	2020-10-13T22:57:10:312
2076244,000000	2020-10-13T22:57:10:352
2077011,000000	2020-10-13T22:57:10:390
2077823,000000	2020-10-13T22:57:10:431
2079983,000000	2020-10-13T22:57:10:471
2083401,000000	2020-10-13T22:57:10:513
2087311,000000	2020-10-13T22:57:10:553
2092080,000000	2020-10-13T22:57:10:592
2096636,000000	2020-10-13T22:57:10:631
2101791,000000	2020-10-13T22:57:10:672
2106320,000000	2020-10-13T22:57:10:711
2110146,000000	2020-10-13T22:57:10:752
2104239,000000	2020-10-13T22:57:10:793
2092916,000000	2020-10-13T22:57:10:832
2085274,000000	2020-10-13T22:57:10:871
2081189,000000	2020-10-13T22:57:10:913
2078223,000000	2020-10-13T22:57:10:952
2077217,000000	2020-10-13T22:57:10:993
2078337,000000	2020-10-13T22:57:11:034
2079963,000000	2020-10-13T22:57:11:073
2081453,000000	2020-10-13T22:57:11:117
2082882,000000	2020-10-13T22:57:11:153
2084785,000000	2020-10-13T22:57:11:192
2088263,000000	2020-10-13T22:57:11:233
2092724,000000	2020-10-13T22:57:11:274
2097508,000000	2020-10-13T22:57:11:313
2102617,000000	2020-10-13T22:57:11:353
2108111,000000	2020-10-13T22:57:11:393
2113245,000000	2020-10-13T22:57:11:432
2118501,000000	2020-10-13T22:57:11:473
2123133,000000	2020-10-13T22:57:11:515
2124436,000000	2020-10-13T22:57:11:553
2116823,000000	2020-10-13T22:57:11:592
2109172,000000	2020-10-13T22:57:11:633
2105439,000000	2020-10-13T22:57:11:672
2103094,000000	2020-10-13T22:57:11:714
2102502,000000	2020-10-13T22:57:11:753
2103878,000000	2020-10-13T22:57:11:793
2106851,000000	2020-10-13T22:57:11:832
2109857,000000	2020-10-13T22:57:11:873
2111918,000000	2020-10-13T22:57:11:913
2115272,000000	2020-10-13T22:57:11:954
2119486,000000	2020-10-13T22:57:11:994
2124530,000000	2020-10-13T22:57:12:033
2130491,000000	2020-10-13T22:57:12:074
2136957,000000	2020-10-13T22:57:12:113
2143596,000000	2020-10-13T22:57:12:153
2149281,000000	2020-10-13T22:57:12:194
2155539,000000	2020-10-13T22:57:12:234
2161930,000000	2020-10-13T22:57:12:274
2168064,000000	2020-10-13T22:57:12:313
2168767,000000	2020-10-13T22:57:12:354
2164435,000000	2020-10-13T22:57:12:393
2160449,000000	2020-10-13T22:57:12:434
2159766,000000	2020-10-13T22:57:12:475
2160441,000000	2020-10-13T22:57:12:514
2162110,000000	2020-10-13T22:57:12:553
2165498,000000	2020-10-13T22:57:12:594
2169808,000000	2020-10-13T22:57:12:633
2173044,000000	2020-10-13T22:57:12:674
2175526,000000	2020-10-13T22:57:12:716
2179249,000000	2020-10-13T22:57:12:754
2183703,000000	2020-10-13T22:57:12:794
2188943,000000	2020-10-13T22:57:12:834
2194569,000000	2020-10-13T22:57:12:873
2200438,000000	2020-10-13T22:57:12:915
2206290,000000	2020-10-13T22:57:12:955
2212192,000000	2020-10-13T22:57:12:994
2218166,000000	2020-10-13T22:57:13:034
2223858,000000	2020-10-13T22:57:13:075
2226890,000000	2020-10-13T22:57:13:114
2224363,000000	2020-10-13T22:57:13:155
2221519,000000	2020-10-13T22:57:13:196
2221308,000000	2020-10-13T22:57:13:235
2222302,000000	2020-10-13T22:57:13:275
2223179,000000	2020-10-13T22:57:13:315
2226479,000000	2020-10-13T22:57:13:354
2230079,000000	2020-10-13T22:57:13:395
2233793,000000	2020-10-13T22:57:13:436
2237756,000000	2020-10-13T22:57:13:475
2241125,000000	2020-10-13T22:57:13:515
2245442,000000	2020-10-13T22:57:13:555
2250560,000000	2020-10-13T22:57:13:594
2255764,000000	2020-10-13T22:57:13:635
2261399,000000	2020-10-13T22:57:13:676
2267033,000000	2020-10-13T22:57:13:716
2272875,000000	2020-10-13T22:57:13:755
2278897,000000	2020-10-13T22:57:13:795
2284188,000000	2020-10-13T22:57:13:835
2289520,000000	2020-10-13T22:57:13:875
2295311,000000	2020-10-13T22:57:13:916
2296968,000000	2020-10-13T22:57:13:956
2294309,000000	2020-10-13T22:57:13:995
2292529,000000	2020-10-13T22:57:14:035
2292226,000000	2020-10-13T22:57:14:076
2292894,000000	2020-10-13T22:57:14:116
2293990,000000	2020-10-13T22:57:14:156
2295735,000000	2020-10-13T22:57:14:197
2299070,000000	2020-10-13T22:57:14:235
2301923,000000	2020-10-13T22:57:14:276
2304843,000000	2020-10-13T22:57:14:316
2308267,000000	2020-10-13T22:57:14:356
2312124,000000	2020-10-13T22:57:14:395
2316006,000000	2020-10-13T22:57:14:436
2320367,000000	2020-10-13T22:57:14:475
2325585,000000	2020-10-13T22:57:14:516
2330523,000000	2020-10-13T22:57:14:555
2335417,000000	2020-10-13T22:57:14:596
2340522,000000	2020-10-13T22:57:14:636
2345111,000000	2020-10-13T22:57:14:676
2350378,000000	2020-10-13T22:57:14:715
2355522,000000	2020-10-13T22:57:14:756
2360915,000000	2020-10-13T22:57:14:795
2361540,000000	2020-10-13T22:57:14:837
2359409,000000	2020-10-13T22:57:14:876
2357605,000000	2020-10-13T22:57:14:917
2358206,000000	2020-10-13T22:57:14:955
2358574,000000	2020-10-13T22:57:14:996
2359599,000000	2020-10-13T22:57:15:036
2361167,000000	2020-10-13T22:57:15:076
2363592,000000	2020-10-13T22:57:15:117
2365712,000000	2020-10-13T22:57:15:156
2367697,000000	2020-10-13T22:57:15:195
2368954,000000	2020-10-13T22:57:15:236
2371833,000000	2020-10-13T22:57:15:276
2374589,000000	2020-10-13T22:57:15:317
2378547,000000	2020-10-13T22:57:15:357
2382329,000000	2020-10-13T22:57:15:396
2386331,000000	2020-10-13T22:57:15:436
2389705,000000	2020-10-13T22:57:15:477
2393502,000000	2020-10-13T22:57:15:517
2397206,000000	2020-10-13T22:57:15:557
2400462,000000	2020-10-13T22:57:15:597
2400505,000000	2020-10-13T22:57:15:637
2396906,000000	2020-10-13T22:57:15:676
2392901,000000	2020-10-13T22:57:15:717
2391004,000000	2020-10-13T22:57:15:756
2389964,000000	2020-10-13T22:57:15:797
2388165,000000	2020-10-13T22:57:15:837
2387894,000000	2020-10-13T22:57:15:877
2388787,000000	2020-10-13T22:57:15:917
2389567,000000	2020-10-13T22:57:15:957
2390007,000000	2020-10-13T22:57:15:997
2390496,000000	2020-10-13T22:57:16:038
2392105,000000	2020-10-13T22:57:16:077
2394038,000000	2020-10-13T22:57:16:119
2396377,000000	2020-10-13T22:57:16:157
2399320,000000	2020-10-13T22:57:16:198
2401563,000000	2020-10-13T22:57:16:237
2404443,000000	2020-10-13T22:57:16:279
2407092,000000	2020-10-13T22:57:16:319
2410123,000000	2020-10-13T22:57:16:358
2412925,000000	2020-10-13T22:57:16:398
2414200,000000	2020-10-13T22:57:16:437
2410014,000000	2020-10-13T22:57:16:477
2404673,000000	2020-10-13T22:57:16:518
2400575,000000	2020-10-13T22:57:16:558
2397975,000000	2020-10-13T22:57:16:598
2395569,000000	2020-10-13T22:57:16:637
2393819,000000	2020-10-13T22:57:16:678
2393144,000000	2020-10-13T22:57:16:719
2393502,000000	2020-10-13T22:57:16:758
2393055,000000	2020-10-13T22:57:16:799
2392362,000000	2020-10-13T22:57:16:838
2392115,000000	2020-10-13T22:57:16:878
2392910,000000	2020-10-13T22:57:16:919
2394401,000000	2020-10-13T22:57:16:958
2396315,000000	2020-10-13T22:57:16:999
2398208,000000	2020-10-13T22:57:17:039
2400486,000000	2020-10-13T22:57:17:079
2403038,000000	2020-10-13T22:57:17:118
2405053,000000	2020-10-13T22:57:17:158
2407443,000000	2020-10-13T22:57:17:197
2410017,000000	2020-10-13T22:57:17:239
2411400,000000	2020-10-13T22:57:17:281
2406214,000000	2020-10-13T22:57:17:319
2398836,000000	2020-10-13T22:57:17:358
2392893,000000	2020-10-13T22:57:17:399
2388604,000000	2020-10-13T22:57:17:438
2384940,000000	2020-10-13T22:57:17:479
2382291,000000	2020-10-13T22:57:17:519
2380526,000000	2020-10-13T22:57:17:559
2378964,000000	2020-10-13T22:57:17:598
2377154,000000	2020-10-13T22:57:17:639
2376001,000000	2020-10-13T22:57:17:678
2375110,000000	2020-10-13T22:57:17:720
2375616,000000	2020-10-13T22:57:17:759
2376258,000000	2020-10-13T22:57:17:799
2377370,000000	2020-10-13T22:57:17:838
2378726,000000	2020-10-13T22:57:17:879
2380311,000000	2020-10-13T22:57:17:919
2382085,000000	2020-10-13T22:57:17:959
2383719,000000	2020-10-13T22:57:17:999
2385873,000000	2020-10-13T22:57:18:040
2386826,000000	2020-10-13T22:57:18:080
2381333,000000	2020-10-13T22:57:18:120
2372417,000000	2020-10-13T22:57:18:159
2365480,000000	2020-10-13T22:57:18:200
2360342,000000	2020-10-13T22:57:18:240
2356140,000000	2020-10-13T22:57:18:279
2352760,000000	2020-10-13T22:57:18:319
2350748,000000	2020-10-13T22:57:18:360
2349208,000000	2020-10-13T22:57:18:399
2347057,000000	2020-10-13T22:57:18:440
2344841,000000	2020-10-13T22:57:18:479
2342832,000000	2020-10-13T22:57:18:520
2342314,000000	2020-10-13T22:57:18:559
2342639,000000	2020-10-13T22:57:18:600
2342934,000000	2020-10-13T22:57:18:639
2343716,000000	2020-10-13T22:57:18:680
2345798,000000	2020-10-13T22:57:18:720
2346273,000000	2020-10-13T22:57:18:761
2339209,000000	2020-10-13T22:57:18:800
2328077,000000	2020-10-13T22:57:18:840
2317203,000000	2020-10-13T22:57:18:880
2310112,000000	2020-10-13T22:57:18:921
2304464,000000	2020-10-13T22:57:18:961
2299663,000000	2020-10-13T22:57:19:000
2296274,000000	2020-10-13T22:57:19:039
2294073,000000	2020-10-13T22:57:19:080
2291476,000000	2020-10-13T22:57:19:120
2288585,000000	2020-10-13T22:57:19:160
2286430,000000	2020-10-13T22:57:19:203
2285342,000000	2020-10-13T22:57:19:240
2285033,000000	2020-10-13T22:57:19:279
2285405,000000	2020-10-13T22:57:19:321
2286351,000000	2020-10-13T22:57:19:360
2287485,000000	2020-10-13T22:57:19:401
2288503,000000	2020-10-13T22:57:19:442
2289213,000000	2020-10-13T22:57:19:481
2283043,000000	2020-10-13T22:57:19:522
2269422,000000	2020-10-13T22:57:19:561
2256822,000000	2020-10-13T22:57:19:600
2247426,000000	2020-10-13T22:57:19:641
2240351,000000	2020-10-13T22:57:19:682
2234073,000000	2020-10-13T22:57:19:721
2230209,000000	2020-10-13T22:57:19:760
2227227,000000	2020-10-13T22:57:19:801
2224494,000000	2020-10-13T22:57:19:841
2221630,000000	2020-10-13T22:57:19:882
2218479,000000	2020-10-13T22:57:19:922
2217527,000000	2020-10-13T22:57:19:961
2217560,000000	2020-10-13T22:57:20:001
2217898,000000	2020-10-13T22:57:20:041
2218993,000000	2020-10-13T22:57:20:085
2220363,000000	2020-10-13T22:57:20:122
2221565,000000	2020-10-13T22:57:20:162
2223524,000000	2020-10-13T22:57:20:202
2222280,000000	2020-10-13T22:57:20:241
2211329,000000	2020-10-13T22:57:20:281
2196933,000000	2020-10-13T22:57:20:321
2186099,000000	2020-10-13T22:57:20:362
2178227,000000	2020-10-13T22:57:20:402
2171629,000000	2020-10-13T22:57:20:442
2166767,000000	2020-10-13T22:57:20:481
2164116,000000	2020-10-13T22:57:20:522
2161322,000000	2020-10-13T22:57:20:561
2158976,000000	2020-10-13T22:57:20:602
2157005,000000	2020-10-13T22:57:20:643
2155710,000000	2020-10-13T22:57:20:682
2155740,000000	2020-10-13T22:57:20:722
2156579,000000	2020-10-13T22:57:20:762
2158056,000000	2020-10-13T22:57:20:801
2160356,000000	2020-10-13T22:57:20:842
2162491,000000	2020-10-13T22:57:20:883
2164171,000000	2020-10-13T22:57:20:923
2166602,000000	2020-10-13T22:57:20:962
2167663,000000	2020-10-13T22:57:21:002
2158566,000000	2020-10-13T22:57:21:042
2144416,000000	2020-10-13T22:57:21:083
2133827,000000	2020-10-13T22:57:21:125
2127709,000000	2020-10-13T22:57:21:164
2123173,000000	2020-10-13T22:57:21:201
2119543,000000	2020-10-13T22:57:21:245
2118024,000000	2020-10-13T22:57:21:283
2116882,000000	2020-10-13T22:57:21:323
2114963,000000	2020-10-13T22:57:21:365
2112836,000000	2020-10-13T22:57:21:403
2112093,000000	2020-10-13T22:57:21:443
2112992,000000	2020-10-13T22:57:21:483
2115099,000000	2020-10-13T22:57:21:523
2116628,000000	2020-10-13T22:57:21:563
2119783,000000	2020-10-13T22:57:21:603
2121943,000000	2020-10-13T22:57:21:643
2124041,000000	2020-10-13T22:57:21:682
2122742,000000	2020-10-13T22:57:21:723
2111241,000000	2020-10-13T22:57:21:763
2097361,000000	2020-10-13T22:57:21:803
2088947,000000	2020-10-13T22:57:21:844
2083564,000000	2020-10-13T22:57:21:883
2079551,000000	2020-10-13T22:57:21:923
2077150,000000	2020-10-13T22:57:21:963
2076546,000000	2020-10-13T22:57:22:003
2076191,000000	2020-10-13T22:57:22:044
2074919,000000	2020-10-13T22:57:22:084
2074737,000000	2020-10-13T22:57:22:124
2075391,000000	2020-10-13T22:57:22:163
2076931,000000	2020-10-13T22:57:22:204
2079890,000000	2020-10-13T22:57:22:243
2082914,000000	2020-10-13T22:57:22:284
2086062,000000	2020-10-13T22:57:22:325
2089577,000000	2020-10-13T22:57:22:364
2092859,000000	2020-10-13T22:57:22:403
2094801,000000	2020-10-13T22:57:22:444
2086468,000000	2020-10-13T22:57:22:483
2073130,000000	2020-10-13T22:57:22:525
2064066,000000	2020-10-13T22:57:22:565
2058705,000000	2020-10-13T22:57:22:604
2054576,000000	2020-10-13T22:57:22:643
2052120,000000	2020-10-13T22:57:22:684
2051490,000000	2020-10-13T22:57:22:723
2052006,000000	2020-10-13T22:57:22:764
2052088,000000	2020-10-13T22:57:22:804
2052193,000000	2020-10-13T22:57:22:844
2053512,000000	2020-10-13T22:57:22:883
2056139,000000	2020-10-13T22:57:22:925
2059291,000000	2020-10-13T22:57:22:963
2062928,000000	2020-10-13T22:57:23:005
2067157,000000	2020-10-13T22:57:23:046
2071002,000000	2020-10-13T22:57:23:086
2075146,000000	2020-10-13T22:57:23:124
2079069,000000	2020-10-13T22:57:23:164
2083636,000000	2020-10-13T22:57:23:204
2087014,000000	2020-10-13T22:57:23:245
2079910,000000	2020-10-13T22:57:23:285
2067941,000000	2020-10-13T22:57:23:325
2060433,000000	2020-10-13T22:57:23:363
2055715,000000	2020-10-13T22:57:23:404
2052083,000000	2020-10-13T22:57:23:443
2050033,000000	2020-10-13T22:57:23:485
2050694,000000	2020-10-13T22:57:23:525
2051917,000000	2020-10-13T22:57:23:564
2051997,000000	2020-10-13T22:57:23:604
2052531,000000	2020-10-13T22:57:23:644
2053617,000000	2020-10-13T22:57:23:684
2056472,000000	2020-10-13T22:57:23:727
2059964,000000	2020-10-13T22:57:23:771
2063705,000000	2020-10-13T22:57:23:805
2068358,000000	2020-10-13T22:57:23:844
2073222,000000	2020-10-13T22:57:23:885
2077128,000000	2020-10-13T22:57:23:925
2081763,000000	2020-10-13T22:57:23:965
2086154,000000	2020-10-13T22:57:24:005
2091220,000000	2020-10-13T22:57:24:045
2095119,000000	2020-10-13T22:57:24:085
2090088,000000	2020-10-13T22:57:24:126
2080790,000000	2020-10-13T22:57:24:165
2074339,000000	2020-10-13T22:57:24:206
2070954,000000	2020-10-13T22:57:24:246
2069441,000000	2020-10-13T22:57:24:286
2068610,000000	2020-10-13T22:57:24:325
2070080,000000	2020-10-13T22:57:24:366
2071717,000000	2020-10-13T22:57:24:405
2072350,000000	2020-10-13T22:57:24:445
2073143,000000	2020-10-13T22:57:24:485
2075004,000000	2020-10-13T22:57:24:526
2077461,000000	2020-10-13T22:57:24:565
2081588,000000	2020-10-13T22:57:24:606
2085862,000000	2020-10-13T22:57:24:645
2090043,000000	2020-10-13T22:57:24:686
2094084,000000	2020-10-13T22:57:24:727
2097964,000000	2020-10-13T22:57:24:766
2101739,000000	2020-10-13T22:57:24:805
2105805,000000	2020-10-13T22:57:24:845
2107740,000000	2020-10-13T22:57:24:885
2101056,000000	2020-10-13T22:57:24:927
2091940,000000	2020-10-13T22:57:24:967
2086106,000000	2020-10-13T22:57:25:006
2083286,000000	2020-10-13T22:57:25:046
2081788,000000	2020-10-13T22:57:25:086
2081126,000000	2020-10-13T22:57:25:126
2082711,000000	2020-10-13T22:57:25:166
2084434,000000	2020-10-13T22:57:25:207
2085435,000000	2020-10-13T22:57:25:246
2086435,000000	2020-10-13T22:57:25:286
2088465,000000	2020-10-13T22:57:25:327
2092091,000000	2020-10-13T22:57:25:366
2096124,000000	2020-10-13T22:57:25:407
2100175,000000	2020-10-13T22:57:25:448
2104940,000000	2020-10-13T22:57:25:486
2109214,000000	2020-10-13T22:57:25:526
2113212,000000	2020-10-13T22:57:25:567
2117563,000000	2020-10-13T22:57:25:606
2121660,000000	2020-10-13T22:57:25:647
2126681,000000	2020-10-13T22:57:25:687
2130800,000000	2020-10-13T22:57:25:727
2129659,000000	2020-10-13T22:57:25:767
2121745,000000	2020-10-13T22:57:25:807
2114114,000000	2020-10-13T22:57:25:846
2110003,000000	2020-10-13T22:57:25:887
2107958,000000	2020-10-13T22:57:25:928
2106280,000000	2020-10-13T22:57:25:967
2106117,000000	2020-10-13T22:57:26:006
2108166,000000	2020-10-13T22:57:26:047
2110320,000000	2020-10-13T22:57:26:087
2111855,000000	2020-10-13T22:57:26:128
2113517,000000	2020-10-13T22:57:26:168
2115934,000000	2020-10-13T22:57:26:207
2119747,000000	2020-10-13T22:57:26:247
2123750,000000	2020-10-13T22:57:26:288
2128218,000000	2020-10-13T22:57:26:327
2132126,000000	2020-10-13T22:57:26:368
2136432,000000	2020-10-13T22:57:26:408
2140920,000000	2020-10-13T22:57:26:448
2145556,000000	2020-10-13T22:57:26:488
2150329,000000	2020-10-13T22:57:26:528
2154897,000000	2020-10-13T22:57:26:567
2159192,000000	2020-10-13T22:57:26:608
2161866,000000	2020-10-13T22:57:26:648
2155835,000000	2020-10-13T22:57:26:688
2147631,000000	2020-10-13T22:57:26:728
2142336,000000	2020-10-13T22:57:26:768
2139632,000000	2020-10-13T22:57:26:807
2138501,000000	2020-10-13T22:57:26:848
2138170,000000	2020-10-13T22:57:26:899
2139001,000000	2020-10-13T22:57:26:928
2140403,000000	2020-10-13T22:57:26:967
2140873,000000	2020-10-13T22:57:27:008
2142008,000000	2020-10-13T22:57:27:047
2143778,000000	2020-10-13T22:57:27:089
2146657,000000	2020-10-13T22:57:27:129
2149732,000000	2020-10-13T22:57:27:168
2153639,000000	2020-10-13T22:57:27:208
2158025,000000	2020-10-13T22:57:27:248
2162388,000000	2020-10-13T22:57:27:288
2166348,000000	2020-10-13T22:57:27:329
2170066,000000	2020-10-13T22:57:27:369
2174074,000000	2020-10-13T22:57:27:408
2177359,000000	2020-10-13T22:57:27:448
2180955,000000	2020-10-13T22:57:27:488
2177719,000000	2020-10-13T22:57:27:527
2168695,000000	2020-10-13T22:57:27:568
2156619,000000	2020-10-13T22:57:27:610
2154349,000000	2020-10-13T22:57:27:649
2152503,000000	2020-10-13T22:57:27:689
2152092,000000	2020-10-13T22:57:27:729
2151847,000000	2020-10-13T22:57:27:768
2151578,000000	2020-10-13T22:57:27:810
2150486,000000	2020-10-13T22:57:27:850
2150756,000000	2020-10-13T22:57:27:888
2151996,000000	2020-10-13T22:57:27:928
2154087,000000	2020-10-13T22:57:27:969
2156340,000000	2020-10-13T22:57:28:008
2159277,000000	2020-10-13T22:57:28:049
2161609,000000	2020-10-13T22:57:28:089
2164224,000000	2020-10-13T22:57:28:129
2166899,000000	2020-10-13T22:57:28:168
2169751,000000	2020-10-13T22:57:28:209
2170376,000000	2020-10-13T22:57:28:249
2162482,000000	2020-10-13T22:57:28:289
2151676,000000	2020-10-13T22:57:28:331
2143803,000000	2020-10-13T22:57:28:370
2138810,000000	2020-10-13T22:57:28:409
2135175,000000	2020-10-13T22:57:28:450
2132154,000000	2020-10-13T22:57:28:489
2131401,000000	2020-10-13T22:57:28:531
2130408,000000	2020-10-13T22:57:28:571
2128461,000000	2020-10-13T22:57:28:610
2126729,000000	2020-10-13T22:57:28:649
2126224,000000	2020-10-13T22:57:28:690
2126784,000000	2020-10-13T22:57:28:729
2128245,000000	2020-10-13T22:57:28:770
2130088,000000	2020-10-13T22:57:28:811
2132813,000000	2020-10-13T22:57:28:853
2135193,000000	2020-10-13T22:57:28:889
2138108,000000	2020-10-13T22:57:28:940
2141063,000000	2020-10-13T22:57:28:969
2144311,000000	2020-10-13T22:57:29:011
2146873,000000	2020-10-13T22:57:29:052
2145660,000000	2020-10-13T22:57:29:091
2134772,000000	2020-10-13T22:57:29:130
2122784,000000	2020-10-13T22:57:29:170
2114824,000000	2020-10-13T22:57:29:210
2109625,000000	2020-10-13T22:57:29:251
2105563,000000	2020-10-13T22:57:29:292
2102065,000000	2020-10-13T22:57:29:331
2100455,000000	2020-10-13T22:57:29:370
2099559,000000	2020-10-13T22:57:29:411
2098240,000000	2020-10-13T22:57:29:450
2096990,000000	2020-10-13T22:57:29:491
2096732,000000	2020-10-13T22:57:29:531
2097993,000000	2020-10-13T22:57:29:571
2100051,000000	2020-10-13T22:57:29:610
2102632,000000	2020-10-13T22:57:29:650
2105978,000000	2020-10-13T22:57:29:691
2109694,000000	2020-10-13T22:57:29:731
2112586,000000	2020-10-13T22:57:29:772
2115909,000000	2020-10-13T22:57:29:811
2119696,000000	2020-10-13T22:57:29:850
2119438,000000	2020-10-13T22:57:29:891
2110012,000000	2020-10-13T22:57:29:931
2098658,000000	2020-10-13T22:57:29:971
2091296,000000	2020-10-13T22:57:30:012
2087095,000000	2020-10-13T22:57:30:051
2084496,000000	2020-10-13T22:57:30:091
2083825,000000	2020-10-13T22:57:30:132
2084622,000000	2020-10-13T22:57:30:171
2085178,000000	2020-10-13T22:57:30:212
2085229,000000	2020-10-13T22:57:30:252
2084993,000000	2020-10-13T22:57:30:291
2085063,000000	2020-10-13T22:57:30:331
2086727,000000	2020-10-13T22:57:30:371
2088175,000000	2020-10-13T22:57:30:411
2090663,000000	2020-10-13T22:57:30:452
2093726,000000	2020-10-13T22:57:30:492
2096931,000000	2020-10-13T22:57:30:532
2100568,000000	2020-10-13T22:57:30:571
2104837,000000	2020-10-13T22:57:30:611
2108476,000000	2020-10-13T22:57:30:651
2105915,000000	2020-10-13T22:57:30:692
2094170,000000	2020-10-13T22:57:30:733
2083183,000000	2020-10-13T22:57:30:772
2077644,000000	2020-10-13T22:57:30:811
2075652,000000	2020-10-13T22:57:30:852
2075105,000000	2020-10-13T22:57:30:891
2075866,000000	2020-10-13T22:57:30:933
2077994,000000	2020-10-13T22:57:30:973
2078631,000000	2020-10-13T22:57:31:012
2078548,000000	2020-10-13T22:57:31:051
2078384,000000	2020-10-13T22:57:31:092
2079761,000000	2020-10-13T22:57:31:132
2082081,000000	2020-10-13T22:57:31:172
2083773,000000	2020-10-13T22:57:31:212
2085548,000000	2020-10-13T22:57:31:253
2087728,000000	2020-10-13T22:57:31:292
2089618,000000	2020-10-13T22:57:31:332
2091682,000000	2020-10-13T22:57:31:372
2088066,000000	2020-10-13T22:57:31:413
2074679,000000	2020-10-13T22:57:31:453
2062654,000000	2020-10-13T22:57:31:492
2054923,000000	2020-10-13T22:57:31:533
2050876,000000	2020-10-13T22:57:31:572
2048046,000000	2020-10-13T22:57:31:611
2047135,000000	2020-10-13T22:57:31:653
2046716,000000	2020-10-13T22:57:31:693
2045411,000000	2020-10-13T22:57:31:733
2044104,000000	2020-10-13T22:57:31:772
2043660,000000	2020-10-13T22:57:31:813
2043637,000000	2020-10-13T22:57:31:852
2045632,000000	2020-10-13T22:57:31:893
2048717,000000	2020-10-13T22:57:31:935
2051894,000000	2020-10-13T22:57:31:973
2055886,000000	2020-10-13T22:57:32:013
2059649,000000	2020-10-13T22:57:32:053
2055417,000000	2020-10-13T22:57:32:093
2041748,000000	2020-10-13T22:57:32:134
2029278,000000	2020-10-13T22:57:32:174
2021944,000000	2020-10-13T22:57:32:214
2017021,000000	2020-10-13T22:57:32:252
2013565,000000	2020-10-13T22:57:32:293
2012837,000000	2020-10-13T22:57:32:333
2012480,000000	2020-10-13T22:57:32:373
2012886,000000	2020-10-13T22:57:32:413
2012468,000000	2020-10-13T22:57:32:453
2013143,000000	2020-10-13T22:57:32:492
2014767,000000	2020-10-13T22:57:32:534
2017278,000000	2020-10-13T22:57:32:573
2020746,000000	2020-10-13T22:57:32:614
2024636,000000	2020-10-13T22:57:32:654
2029322,000000	2020-10-13T22:57:32:694
2031330,000000	2020-10-13T22:57:32:733
2021984,000000	2020-10-13T22:57:32:773
2007757,000000	2020-10-13T22:57:32:813
1998297,000000	2020-10-13T22:57:32:854
1992608,000000	2020-10-13T22:57:32:894
1989488,000000	2020-10-13T22:57:32:934
1986993,000000	2020-10-13T22:57:32:973
1987796,000000	2020-10-13T22:57:33:014
1989144,000000	2020-10-13T22:57:33:053
1989648,000000	2020-10-13T22:57:33:095
1990354,000000	2020-10-13T22:57:33:136
1991758,000000	2020-10-13T22:57:33:174
1993980,000000	2020-10-13T22:57:33:213
1998234,000000	2020-10-13T22:57:33:254
2002093,000000	2020-10-13T22:57:33:293
2006586,000000	2020-10-13T22:57:33:335
2010880,000000	2020-10-13T22:57:33:374
2015482,000000	2020-10-13T22:57:33:414
2019554,000000	2020-10-13T22:57:33:453
2012836,000000	2020-10-13T22:57:33:494
1998322,000000	2020-10-13T22:57:33:534
1987847,000000	2020-10-13T22:57:33:575
1982600,000000	2020-10-13T22:57:33:615
1979784,000000	2020-10-13T22:57:33:655
1978128,000000	2020-10-13T22:57:33:694
1979312,000000	2020-10-13T22:57:33:735
1981570,000000	2020-10-13T22:57:33:774
1982793,000000	2020-10-13T22:57:33:815
1984575,000000	2020-10-13T22:57:33:855
1986335,000000	2020-10-13T22:57:33:895
1989692,000000	2020-10-13T22:57:33:935
1993821,000000	2020-10-13T22:57:33:975
1999179,000000	2020-10-13T22:57:34:014
2004577,000000	2020-10-13T22:57:34:056
2010132,000000	2020-10-13T22:57:34:096
2016312,000000	2020-10-13T22:57:34:135
2021421,000000	2020-10-13T22:57:34:174
2026505,000000	2020-10-13T22:57:34:215
2032576,000000	2020-10-13T22:57:34:254
2038611,000000	2020-10-13T22:57:34:295
2038307,000000	2020-10-13T22:57:34:336
2027277,000000	2020-10-13T22:57:34:375
2015831,000000	2020-10-13T22:57:34:414
2011417,000000	2020-10-13T22:57:34:453
2010250,000000	2020-10-13T22:57:34:495
2010697,000000	2020-10-13T22:57:34:536
2012699,000000	2020-10-13T22:57:34:576
2015460,000000	2020-10-13T22:57:34:616
2017734,000000	2020-10-13T22:57:34:655
2019815,000000	2020-10-13T22:57:34:695
2021971,000000	2020-10-13T22:57:34:735
2025379,000000	2020-10-13T22:57:34:776
2030080,000000	2020-10-13T22:57:34:816
2035233,000000	2020-10-13T22:57:34:856
2040866,000000	2020-10-13T22:57:34:895
2046471,000000	2020-10-13T22:57:34:936
2052049,000000	2020-10-13T22:57:34:975
2056954,000000	2020-10-13T22:57:35:016
2062615,000000	2020-10-13T22:57:35:057
2068360,000000	2020-10-13T22:57:35:097
2068578,000000	2020-10-13T22:57:35:135
2058173,000000	2020-10-13T22:57:35:176
2048484,000000	2020-10-13T22:57:35:215
2044004,000000	2020-10-13T22:57:35:256
2043072,000000	2020-10-13T22:57:35:297
2043475,000000	2020-10-13T22:57:35:337
2045907,000000	2020-10-13T22:57:35:375
2048467,000000	2020-10-13T22:57:35:416
2050429,000000	2020-10-13T22:57:35:455
2052156,000000	2020-10-13T22:57:35:497
2054640,000000	2020-10-13T22:57:35:537
2057637,000000	2020-10-13T22:57:35:576
2062678,000000	2020-10-13T22:57:35:616
2067649,000000	2020-10-13T22:57:35:656
2073150,000000	2020-10-13T22:57:35:696
2079111,000000	2020-10-13T22:57:35:737
2084230,000000	2020-10-13T22:57:35:777
2089811,000000	2020-10-13T22:57:35:817
2095112,000000	2020-10-13T22:57:35:855
2100994,000000	2020-10-13T22:57:35:897
2101197,000000	2020-10-13T22:57:35:936
2091444,000000	2020-10-13T22:57:35:977
2081400,000000	2020-10-13T22:57:36:018
2076267,000000	2020-10-13T22:57:36:057
2074757,000000	2020-10-13T22:57:36:096
2074604,000000	2020-10-13T22:57:36:137
2075521,000000	2020-10-13T22:57:36:176
2078040,000000	2020-10-13T22:57:36:218
2080648,000000	2020-10-13T22:57:36:257
2082420,000000	2020-10-13T22:57:36:298
2084228,000000	2020-10-13T22:57:36:337
2087562,000000	2020-10-13T22:57:36:377
2090729,000000	2020-10-13T22:57:36:416
2095489,000000	2020-10-13T22:57:36:457
2106255,000000	2020-10-13T22:57:36:499
2111626,000000	2020-10-13T22:57:36:539
2116856,000000	2020-10-13T22:57:36:578
2122215,000000	2020-10-13T22:57:36:617
2127460,000000	2020-10-13T22:57:36:657
2132587,000000	2020-10-13T22:57:36:697
2137942,000000	2020-10-13T22:57:36:737
2143189,000000	2020-10-13T22:57:36:777
2138752,000000	2020-10-13T22:57:36:817
2127558,000000	2020-10-13T22:57:36:857
2118469,000000	2020-10-13T22:57:36:897
2114501,000000	2020-10-13T22:57:36:938
2112408,000000	2020-10-13T22:57:36:978
2111573,000000	2020-10-13T22:57:37:018
2112616,000000	2020-10-13T22:57:37:057
2114184,000000	2020-10-13T22:57:37:098
2115591,000000	2020-10-13T22:57:37:137
2115924,000000	2020-10-13T22:57:37:179
2116939,000000	2020-10-13T22:57:37:218
2119795,000000	2020-10-13T22:57:37:258
2123226,000000	2020-10-13T22:57:37:297
2126953,000000	2020-10-13T22:57:37:338
2131470,000000	2020-10-13T22:57:37:377
2136384,000000	2020-10-13T22:57:37:418
2141047,000000	2020-10-13T22:57:37:459
2146010,000000	2020-10-13T22:57:37:498
2150186,000000	2020-10-13T22:57:37:538
2155574,000000	2020-10-13T22:57:37:578
2159929,000000	2020-10-13T22:57:37:618
2164835,000000	2020-10-13T22:57:37:659
2169615,000000	2020-10-13T22:57:37:699
2170215,000000	2020-10-13T22:57:37:739
2159112,000000	2020-10-13T22:57:37:778
2148254,000000	2020-10-13T22:57:37:819
2141750,000000	2020-10-13T22:57:37:858
2138828,000000	2020-10-13T22:57:37:899
2137825,000000	2020-10-13T22:57:37:939
2137915,000000	2020-10-13T22:57:37:979
2139388,000000	2020-10-13T22:57:38:018
2139641,000000	2020-10-13T22:57:38:059
2139598,000000	2020-10-13T22:57:38:101
2139626,000000	2020-10-13T22:57:38:139
2141053,000000	2020-10-13T22:57:38:179
2143999,000000	2020-10-13T22:57:38:219
2147569,000000	2020-10-13T22:57:38:259
2151036,000000	2020-10-13T22:57:38:299
2155648,000000	2020-10-13T22:57:38:339
2159311,000000	2020-10-13T22:57:38:379
2163262,000000	2020-10-13T22:57:38:419
2167194,000000	2020-10-13T22:57:38:460
2171310,000000	2020-10-13T22:57:38:498
2174832,000000	2020-10-13T22:57:38:539
2176867,000000	2020-10-13T22:57:38:579
2167355,000000	2020-10-13T22:57:38:620
2154226,000000	2020-10-13T22:57:38:659
2145006,000000	2020-10-13T22:57:38:699
2140676,000000	2020-10-13T22:57:38:739
2138532,000000	2020-10-13T22:57:38:779
2137791,000000	2020-10-13T22:57:38:819
2137590,000000	2020-10-13T22:57:38:860
2136083,000000	2020-10-13T22:57:38:901
2134097,000000	2020-10-13T22:57:38:940
2132668,000000	2020-10-13T22:57:38:979
2131822,000000	2020-10-13T22:57:39:020
2133457,000000	2020-10-13T22:57:39:059
2135437,000000	2020-10-13T22:57:39:101
2137676,000000	2020-10-13T22:57:39:142
2140524,000000	2020-10-13T22:57:39:180
2143839,000000	2020-10-13T22:57:39:219
2146061,000000	2020-10-13T22:57:39:260
2149119,000000	2020-10-13T22:57:39:299
2149025,000000	2020-10-13T22:57:39:341
2136290,000000	2020-10-13T22:57:39:382
2119989,000000	2020-10-13T22:57:39:420
2108577,000000	2020-10-13T22:57:39:459
2101869,000000	2020-10-13T22:57:39:500
2097852,000000	2020-10-13T22:57:39:540
2095516,000000	2020-10-13T22:57:39:581
2095280,000000	2020-10-13T22:57:39:621
2094794,000000	2020-10-13T22:57:39:660
2093680,000000	2020-10-13T22:57:39:700
2092028,000000	2020-10-13T22:57:39:741
2091202,000000	2020-10-13T22:57:39:780
2092195,000000	2020-10-13T22:57:39:820
2093596,000000	2020-10-13T22:57:39:861
2096194,000000	2020-10-13T22:57:39:901
2099403,000000	2020-10-13T22:57:39:940
2102743,000000	2020-10-13T22:57:39:981
2105466,000000	2020-10-13T22:57:40:020
2108786,000000	2020-10-13T22:57:40:061
2111913,000000	2020-10-13T22:57:40:101
2114441,000000	2020-10-13T22:57:40:141
2105620,000000	2020-10-13T22:57:40:181
2086056,000000	2020-10-13T22:57:40:221
2069671,000000	2020-10-13T22:57:40:260
2058095,000000	2020-10-13T22:57:40:301
2050702,000000	2020-10-13T22:57:40:342
2044878,000000	2020-10-13T22:57:40:382
2041871,000000	2020-10-13T22:57:40:420
2039808,000000	2020-10-13T22:57:40:461
2037585,000000	2020-10-13T22:57:40:500
2034139,000000	2020-10-13T22:57:40:542
2031819,000000	2020-10-13T22:57:40:583
2030662,000000	2020-10-13T22:57:40:621
2031379,000000	2020-10-13T22:57:40:661
2032572,000000	2020-10-13T22:57:40:701
2035038,000000	2020-10-13T22:57:40:741
2037007,000000	2020-10-13T22:57:40:782
2039789,000000	2020-10-13T22:57:40:822
2042214,000000	2020-10-13T22:57:40:862
2045002,000000	2020-10-13T22:57:40:901
2047456,000000	2020-10-13T22:57:40:942
2051035,000000	2020-10-13T22:57:40:981
2054148,000000	2020-10-13T22:57:41:022
2055941,000000	2020-10-13T22:57:41:062
2041052,000000	2020-10-13T22:57:41:103
2020185,000000	2020-10-13T22:57:41:142
2005444,000000	2020-10-13T22:57:41:182
1997350,000000	2020-10-13T22:57:41:221
1991795,000000	2020-10-13T22:57:41:262
1987753,000000	2020-10-13T22:57:41:303
1986141,000000	2020-10-13T22:57:41:343
1984748,000000	2020-10-13T22:57:41:381
1982851,000000	2020-10-13T22:57:41:422
1980704,000000	2020-10-13T22:57:41:461
1980163,000000	2020-10-13T22:57:41:502
1981328,000000	2020-10-13T22:57:41:543
1983502,000000	2020-10-13T22:57:41:582
1986214,000000	2020-10-13T22:57:41:622
1989442,000000	2020-10-13T22:57:41:662
1992770,000000	2020-10-13T22:57:41:702
1996364,000000	2020-10-13T22:57:41:743
1999593,000000	2020-10-13T22:57:41:783
2002837,000000	2020-10-13T22:57:41:823
2006289,000000	2020-10-13T22:57:41:862
2010376,000000	2020-10-13T22:57:41:903
2015002,000000	2020-10-13T22:57:41:942
2012171,000000	2020-10-13T22:57:41:983
1993381,000000	2020-10-13T22:57:42:024
1974751,000000	2020-10-13T22:57:42:063
1964450,000000	2020-10-13T22:57:42:103
1959479,000000	2020-10-13T22:57:42:143
1956729,000000	2020-10-13T22:57:42:182
1955988,000000	2020-10-13T22:57:42:223
1956139,000000	2020-10-13T22:57:42:263
1954423,000000	2020-10-13T22:57:42:304
1951731,000000	2020-10-13T22:57:42:343
1950138,000000	2020-10-13T22:57:42:383
1950585,000000	2020-10-13T22:57:42:422
1952515,000000	2020-10-13T22:57:42:463
1955833,000000	2020-10-13T22:57:42:505
1959614,000000	2020-10-13T22:57:42:544
1963474,000000	2020-10-13T22:57:42:582
1967552,000000	2020-10-13T22:57:42:623
1970854,000000	2020-10-13T22:57:42:663
1974455,000000	2020-10-13T22:57:42:704
1975447,000000	2020-10-13T22:57:42:745
1960110,000000	2020-10-13T22:57:42:783
1940489,000000	2020-10-13T22:57:42:823
1927343,000000	2020-10-13T22:57:42:863
1921787,000000	2020-10-13T22:57:42:903
1917756,000000	2020-10-13T22:57:42:944
1915921,000000	2020-10-13T22:57:42:984
1916748,000000	2020-10-13T22:57:43:024
1916828,000000	2020-10-13T22:57:43:063
1915623,000000	2020-10-13T22:57:43:104
1914930,000000	2020-10-13T22:57:43:143
1915597,000000	2020-10-13T22:57:43:184
1918002,000000	2020-10-13T22:57:43:224
1921660,000000	2020-10-13T22:57:43:264
1926442,000000	2020-10-13T22:57:43:303
1931600,000000	2020-10-13T22:57:43:344
1936145,000000	2020-10-13T22:57:43:383
1941344,000000	2020-10-13T22:57:43:424
1945254,000000	2020-10-13T22:57:43:464
1949541,000000	2020-10-13T22:57:43:504
1948455,000000	2020-10-13T22:57:43:544
1929595,000000	2020-10-13T22:57:43:584
1910434,000000	2020-10-13T22:57:43:623
1898608,000000	2020-10-13T22:57:43:665
1893149,000000	2020-10-13T22:57:43:705
1889595,000000	2020-10-13T22:57:43:746
1886831,000000	2020-10-13T22:57:43:784
1887611,000000	2020-10-13T22:57:43:824
1888075,000000	2020-10-13T22:57:43:863
1888349,000000	2020-10-13T22:57:43:905
1888071,000000	2020-10-13T22:57:43:945
1888793,000000	2020-10-13T22:57:43:985
1892029,000000	2020-10-13T22:57:44:024
1896545,000000	2020-10-13T22:57:44:064
1901236,000000	2020-10-13T22:57:44:104
1906163,000000	2020-10-13T22:57:44:146
1911626,000000	2020-10-13T22:57:44:185
1916254,000000	2020-10-13T22:57:44:226
1920745,000000	2020-10-13T22:57:44:264
1925565,000000	2020-10-13T22:57:44:305
1929964,000000	2020-10-13T22:57:44:344
1933870,000000	2020-10-13T22:57:44:385
1921486,000000	2020-10-13T22:57:44:426
1900492,000000	2020-10-13T22:57:44:465
1885971,000000	2020-10-13T22:57:44:504
1878365,000000	2020-10-13T22:57:44:545
1874281,000000	2020-10-13T22:57:44:584
1871270,000000	2020-10-13T22:57:44:625
1870850,000000	2020-10-13T22:57:44:665
1871791,000000	2020-10-13T22:57:44:707
1872145,000000	2020-10-13T22:57:44:745
1872223,000000	2020-10-13T22:57:44:785
1872954,000000	2020-10-13T22:57:44:825
1875735,000000	2020-10-13T22:57:44:865
1879752,000000	2020-10-13T22:57:44:907
1884704,000000	2020-10-13T22:57:44:946
1889928,000000	2020-10-13T22:57:44:985
1895280,000000	2020-10-13T22:57:45:025
1900693,000000	2020-10-13T22:57:45:065
1906305,000000	2020-10-13T22:57:45:106
1911209,000000	2020-10-13T22:57:45:147
1916328,000000	2020-10-13T22:57:45:185
1921809,000000	2020-10-13T22:57:45:224
1927731,000000	2020-10-13T22:57:45:265
1927812,000000	2020-10-13T22:57:45:304
1893736,000000	2020-10-13T22:57:45:347
1883946,000000	2020-10-13T22:57:45:387
1880114,000000	2020-10-13T22:57:45:426
1878259,000000	2020-10-13T22:57:45:465
1877920,000000	2020-10-13T22:57:45:505
1879660,000000	2020-10-13T22:57:45:545
1880912,000000	2020-10-13T22:57:45:585
1881134,000000	2020-10-13T22:57:45:628
1881809,000000	2020-10-13T22:57:45:665
1883831,000000	2020-10-13T22:57:45:705
1887856,000000	2020-10-13T22:57:45:746
1893149,000000	2020-10-13T22:57:45:785
1898621,000000	2020-10-13T22:57:45:826
1904477,000000	2020-10-13T22:57:45:867
1909788,000000	2020-10-13T22:57:45:906
1914788,000000	2020-10-13T22:57:45:946
1919575,000000	2020-10-13T22:57:45:986
1924276,000000	2020-10-13T22:57:46:026
1929459,000000	2020-10-13T22:57:46:067
1927059,000000	2020-10-13T22:57:46:107
1909841,000000	2020-10-13T22:57:46:148
1894250,000000	2020-10-13T22:57:46:186
1886665,000000	2020-10-13T22:57:46:227
1884429,000000	2020-10-13T22:57:46:266
1882878,000000	2020-10-13T22:57:46:308
1883701,000000	2020-10-13T22:57:46:350
1885026,000000	2020-10-13T22:57:46:387
1886191,000000	2020-10-13T22:57:46:427
1885978,000000	2020-10-13T22:57:46:467
1887298,000000	2020-10-13T22:57:46:507
1889821,000000	2020-10-13T22:57:46:548
1894230,000000	2020-10-13T22:57:46:586
1899069,000000	2020-10-13T22:57:46:627
1905027,000000	2020-10-13T22:57:46:667
1910388,000000	2020-10-13T22:57:46:707
1915747,000000	2020-10-13T22:57:46:747
1920536,000000	2020-10-13T22:57:46:788
1925545,000000	2020-10-13T22:57:46:828
1930414,000000	2020-10-13T22:57:46:868
1924455,000000	2020-10-13T22:57:46:907
1906328,000000	2020-10-13T22:57:46:948
1891331,000000	2020-10-13T22:57:46:987
1884223,000000	2020-10-13T22:57:47:029
1881383,000000	2020-10-13T22:57:47:068
1878725,000000	2020-10-13T22:57:47:109
1879020,000000	2020-10-13T22:57:47:147
1880802,000000	2020-10-13T22:57:47:187
1882241,000000	2020-10-13T22:57:47:227
1882719,000000	2020-10-13T22:57:47:268
1883708,000000	2020-10-13T22:57:47:308
1886359,000000	2020-10-13T22:57:47:348
1891362,000000	2020-10-13T22:57:47:387
1896123,000000	2020-10-13T22:57:47:428
1901803,000000	2020-10-13T22:57:47:467
1907600,000000	2020-10-13T22:57:47:508
1913777,000000	2020-10-13T22:57:47:549
1919203,000000	2020-10-13T22:57:47:588
1924384,000000	2020-10-13T22:57:47:627
1929359,000000	2020-10-13T22:57:47:668
1934993,000000	2020-10-13T22:57:47:707
1941133,000000	2020-10-13T22:57:47:749
1933416,000000	2020-10-13T22:57:47:789
1914630,000000	2020-10-13T22:57:47:828
1899881,000000	2020-10-13T22:57:47:880
1892290,000000	2020-10-13T22:57:47:908
1888973,000000	2020-10-13T22:57:47:948
1886372,000000	2020-10-13T22:57:47:989
1886378,000000	2020-10-13T22:57:48:029
1888346,000000	2020-10-13T22:57:48:068
1889504,000000	2020-10-13T22:57:48:112
1890469,000000	2020-10-13T22:57:48:149
1891515,000000	2020-10-13T22:57:48:188
1894626,000000	2020-10-13T22:57:48:229
1898532,000000	2020-10-13T22:57:48:270
1903469,000000	2020-10-13T22:57:48:309
1909280,000000	2020-10-13T22:57:48:349
1915209,000000	2020-10-13T22:57:48:389
1920667,000000	2020-10-13T22:57:48:428
1925956,000000	2020-10-13T22:57:48:469
1931534,000000	2020-10-13T22:57:48:509
1936709,000000	2020-10-13T22:57:48:549
1942443,000000	2020-10-13T22:57:48:589
1948532,000000	2020-10-13T22:57:48:629
1955201,000000	2020-10-13T22:57:48:669
1956688,000000	2020-10-13T22:57:48:709
1940683,000000	2020-10-13T22:57:48:749
1924077,000000	2020-10-13T22:57:48:789
1914412,000000	2020-10-13T22:57:48:829
1910807,000000	2020-10-13T22:57:48:869
1909457,000000	2020-10-13T22:57:48:908
1909146,000000	2020-10-13T22:57:48:950
1911534,000000	2020-10-13T22:57:48:990
1912617,000000	2020-10-13T22:57:49:029
1913053,000000	2020-10-13T22:57:49:069
1913415,000000	2020-10-13T22:57:49:110
1915042,000000	2020-10-13T22:57:49:150
1919118,000000	2020-10-13T22:57:49:190
1924121,000000	2020-10-13T22:57:49:231
1929091,000000	2020-10-13T22:57:49:269
1933387,000000	2020-10-13T22:57:49:309
1937524,000000	2020-10-13T22:57:49:350
1942769,000000	2020-10-13T22:57:49:389
1947743,000000	2020-10-13T22:57:49:430
1953083,000000	2020-10-13T22:57:49:470
1958546,000000	2020-10-13T22:57:49:510
1964144,000000	2020-10-13T22:57:49:550
1966873,000000	2020-10-13T22:57:49:590
1952706,000000	2020-10-13T22:57:49:629
1935960,000000	2020-10-13T22:57:49:670
1926056,000000	2020-10-13T22:57:49:711
1922741,000000	2020-10-13T22:57:49:750
1921574,000000	2020-10-13T22:57:49:790
1921610,000000	2020-10-13T22:57:49:831
1924003,000000	2020-10-13T22:57:49:869
1926112,000000	2020-10-13T22:57:49:910
1926685,000000	2020-10-13T22:57:49:951
1927457,000000	2020-10-13T22:57:49:990
1929050,000000	2020-10-13T22:57:50:029
1933240,000000	2020-10-13T22:57:50:070
1937750,000000	2020-10-13T22:57:50:110
1943145,000000	2020-10-13T22:57:50:151
1948694,000000	2020-10-13T22:57:50:191
1954288,000000	2020-10-13T22:57:50:231
1959478,000000	2020-10-13T22:57:50:270
1964912,000000	2020-10-13T22:57:50:310
1964749,000000	2020-10-13T22:57:50:350
1948552,000000	2020-10-13T22:57:50:391
1930039,000000	2020-10-13T22:57:50:431
1918912,000000	2020-10-13T22:57:50:471
1913977,000000	2020-10-13T22:57:50:510
1911561,000000	2020-10-13T22:57:50:551
1911212,000000	2020-10-13T22:57:50:590
1912773,000000	2020-10-13T22:57:50:631
1914057,000000	2020-10-13T22:57:50:671
1913990,000000	2020-10-13T22:57:50:711
1913794,000000	2020-10-13T22:57:50:751
1915874,000000	2020-10-13T22:57:50:791
1918264,000000	2020-10-13T22:57:50:831
1922902,000000	2020-10-13T22:57:50:871
1928230,000000	2020-10-13T22:57:50:912
1933793,000000	2020-10-13T22:57:50:952
1938853,000000	2020-10-13T22:57:50:991
1943464,000000	2020-10-13T22:57:51:031
1948105,000000	2020-10-13T22:57:51:071
1952962,000000	2020-10-13T22:57:51:112
1949422,000000	2020-10-13T22:57:51:153
1928895,000000	2020-10-13T22:57:51:192
1907769,000000	2020-10-13T22:57:51:231
1895014,000000	2020-10-13T22:57:51:271
1888107,000000	2020-10-13T22:57:51:312
1883535,000000	2020-10-13T22:57:51:352
1881659,000000	2020-10-13T22:57:51:390
1882180,000000	2020-10-13T22:57:51:432
1881785,000000	2020-10-13T22:57:51:471
1880929,000000	2020-10-13T22:57:51:512
1880295,000000	2020-10-13T22:57:51:552
1881313,000000	2020-10-13T22:57:51:592
1884539,000000	2020-10-13T22:57:51:632
1888779,000000	2020-10-13T22:57:51:671
1893230,000000	2020-10-13T22:57:51:713
1898174,000000	2020-10-13T22:57:51:752
1903375,000000	2020-10-13T22:57:51:791
1907994,000000	2020-10-13T22:57:51:832
1912854,000000	2020-10-13T22:57:51:872
1917968,000000	2020-10-13T22:57:51:912
1920536,000000	2020-10-13T22:57:51:952
1903457,000000	2020-10-13T22:57:51:992
1880566,000000	2020-10-13T22:57:52:032
1866174,000000	2020-10-13T22:57:52:074
1860318,000000	2020-10-13T22:57:52:113
1857882,000000	2020-10-13T22:57:52:153
1856531,000000	2020-10-13T22:57:52:191
1857883,000000	2020-10-13T22:57:52:232
1859095,000000	2020-10-13T22:57:52:272
1859382,000000	2020-10-13T22:57:52:313
1859700,000000	2020-10-13T22:57:52:353
1861193,000000	2020-10-13T22:57:52:392
1864615,000000	2020-10-13T22:57:52:432
1868836,000000	2020-10-13T22:57:52:472
1874268,000000	2020-10-13T22:57:52:512
1880441,000000	2020-10-13T22:57:52:553
1886759,000000	2020-10-13T22:57:52:593
1892700,000000	2020-10-13T22:57:52:633
1899087,000000	2020-10-13T22:57:52:672
1904269,000000	2020-10-13T22:57:52:713
1898589,000000	2020-10-13T22:57:52:753
1877225,000000	2020-10-13T22:57:52:793
1858391,000000	2020-10-13T22:57:52:834
1848935,000000	2020-10-13T22:57:52:873
1845978,000000	2020-10-13T22:57:52:912
1844847,000000	2020-10-13T22:57:52:953
1846102,000000	2020-10-13T22:57:52:992
1848831,000000	2020-10-13T22:57:53:033
1850232,000000	2020-10-13T22:57:53:075
1850872,000000	2020-10-13T22:57:53:136
1851603,000000	2020-10-13T22:57:53:153
1854562,000000	2020-10-13T22:57:53:193
1858792,000000	2020-10-13T22:57:53:233
1864717,000000	2020-10-13T22:57:53:274
1870144,000000	2020-10-13T22:57:53:314
1876209,000000	2020-10-13T22:57:53:354
1881241,000000	2020-10-13T22:57:53:393
1886346,000000	2020-10-13T22:57:53:433
1878116,000000	2020-10-13T22:57:53:473
1855944,000000	2020-10-13T22:57:53:514
1837425,000000	2020-10-13T22:57:53:555
1828487,000000	2020-10-13T22:57:53:594
1824176,000000	2020-10-13T22:57:53:633
1821856,000000	2020-10-13T22:57:53:674
1822917,000000	2020-10-13T22:57:53:713
1826318,000000	2020-10-13T22:57:53:754
1828990,000000	2020-10-13T22:57:53:795
1829992,000000	2020-10-13T22:57:53:834
1831886,000000	2020-10-13T22:57:53:873
1835116,000000	2020-10-13T22:57:53:913
1845382,000000	2020-10-13T22:57:53:954
1850982,000000	2020-10-13T22:57:53:995
1857333,000000	2020-10-13T22:57:54:035
1863654,000000	2020-10-13T22:57:54:075
1869320,000000	2020-10-13T22:57:54:114
1863887,000000	2020-10-13T22:57:54:155
1840988,000000	2020-10-13T22:57:54:193
1821499,000000	2020-10-13T22:57:54:235
1811400,000000	2020-10-13T22:57:54:275
1806827,000000	2020-10-13T22:57:54:314
1803420,000000	2020-10-13T22:57:54:354
1802493,000000	2020-10-13T22:57:54:394
1805280,000000	2020-10-13T22:57:54:433
1808504,000000	2020-10-13T22:57:54:475
1810565,000000	2020-10-13T22:57:54:516
1812390,000000	2020-10-13T22:57:54:556
1815355,000000	2020-10-13T22:57:54:594
1819147,000000	2020-10-13T22:57:54:635
1824483,000000	2020-10-13T22:57:54:674
1831230,000000	2020-10-13T22:57:54:716
1838591,000000	2020-10-13T22:57:54:756
1845006,000000	2020-10-13T22:57:54:795
1851752,000000	2020-10-13T22:57:54:834
1858447,000000	2020-10-13T22:57:54:875
1854127,000000	2020-10-13T22:57:54:915
1833325,000000	2020-10-13T22:57:54:956
1816298,000000	2020-10-13T22:57:54:997
1808257,000000	2020-10-13T22:57:55:036
1805190,000000	2020-10-13T22:57:55:075
1804236,000000	2020-10-13T22:57:55:116
1806163,000000	2020-10-13T22:57:55:155
1811138,000000	2020-10-13T22:57:55:196
1815513,000000	2020-10-13T22:57:55:236
1818770,000000	2020-10-13T22:57:55:276
1822505,000000	2020-10-13T22:57:55:315
1826951,000000	2020-10-13T22:57:55:356
1833366,000000	2020-10-13T22:57:55:395
1840808,000000	2020-10-13T22:57:55:436
1848476,000000	2020-10-13T22:57:55:477
1857201,000000	2020-10-13T22:57:55:516
1864931,000000	2020-10-13T22:57:55:556
1872755,000000	2020-10-13T22:57:55:596
1880472,000000	2020-10-13T22:57:55:636
1887521,000000	2020-10-13T22:57:55:676
1891130,000000	2020-10-13T22:57:55:717
1875944,000000	2020-10-13T22:57:55:756
1859080,000000	2020-10-13T22:57:55:796
1850558,000000	2020-10-13T22:57:55:836
1848546,000000	2020-10-13T22:57:55:876
1849148,000000	2020-10-13T22:57:55:917
1851209,000000	2020-10-13T22:57:55:957
1855747,000000	2020-10-13T22:57:55:997
1860168,000000	2020-10-13T22:57:56:036
1862855,000000	2020-10-13T22:57:56:078
1865391,000000	2020-10-13T22:57:56:116
1869760,000000	2020-10-13T22:57:56:157
1875609,000000	2020-10-13T22:57:56:197
1882456,000000	2020-10-13T22:57:56:237
1889454,000000	2020-10-13T22:57:56:276
1896838,000000	2020-10-13T22:57:56:317
1904638,000000	2020-10-13T22:57:56:356
1911735,000000	2020-10-13T22:57:56:397
1919074,000000	2020-10-13T22:57:56:436
1921182,000000	2020-10-13T22:57:56:477
1906477,000000	2020-10-13T22:57:56:516
1891466,000000	2020-10-13T22:57:56:557
1884588,000000	2020-10-13T22:57:56:596
1883035,000000	2020-10-13T22:57:56:637
1883924,000000	2020-10-13T22:57:56:678
1886263,000000	2020-10-13T22:57:56:717
1891636,000000	2020-10-13T22:57:56:757
1896669,000000	2020-10-13T22:57:56:797
1900211,000000	2020-10-13T22:57:56:836
1903572,000000	2020-10-13T22:57:56:877
1908535,000000	2020-10-13T22:57:56:918
1914387,000000	2020-10-13T22:57:56:957
1921766,000000	2020-10-13T22:57:56:997
1929249,000000	2020-10-13T22:57:57:038
1936711,000000	2020-10-13T22:57:57:076
1944519,000000	2020-10-13T22:57:57:119
1951632,000000	2020-10-13T22:57:57:158
1959272,000000	2020-10-13T22:57:57:199
1966662,000000	2020-10-13T22:57:57:237
1971605,000000	2020-10-13T22:57:57:277
1959330,000000	2020-10-13T22:57:57:317
1944553,000000	2020-10-13T22:57:57:358
1937037,000000	2020-10-13T22:57:57:398
1935119,000000	2020-10-13T22:57:57:438
1935331,000000	2020-10-13T22:57:57:477
1936677,000000	2020-10-13T22:57:57:518
1940791,000000	2020-10-13T22:57:57:558
1945803,000000	2020-10-13T22:57:57:598
1949794,000000	2020-10-13T22:57:57:638
1953610,000000	2020-10-13T22:57:57:679
1957978,000000	2020-10-13T22:57:57:717
1963066,000000	2020-10-13T22:57:57:758
1969555,000000	2020-10-13T22:57:57:797
1976744,000000	2020-10-13T22:57:57:839
1984068,000000	2020-10-13T22:57:57:879
1991267,000000	2020-10-13T22:57:57:918
1998865,000000	2020-10-13T22:57:57:958
2006128,000000	2020-10-13T22:57:57:998
2013107,000000	2020-10-13T22:57:58:038
2020273,000000	2020-10-13T22:57:58:078
2027862,000000	2020-10-13T22:57:58:122
2034392,000000	2020-10-13T22:57:58:159
2030401,000000	2020-10-13T22:57:58:198
2016172,000000	2020-10-13T22:57:58:239
2005942,000000	2020-10-13T22:57:58:308
2002544,000000	2020-10-13T22:57:58:320
2001662,000000	2020-10-13T22:57:58:362
2002527,000000	2020-10-13T22:57:58:399
2005870,000000	2020-10-13T22:57:58:438
2009582,000000	2020-10-13T22:57:58:479
2013559,000000	2020-10-13T22:57:58:518
2016404,000000	2020-10-13T22:57:58:560
2019874,000000	2020-10-13T22:57:58:599
2024030,000000	2020-10-13T22:57:58:639
2029536,000000	2020-10-13T22:57:58:678
2035414,000000	2020-10-13T22:57:58:719
2042558,000000	2020-10-13T22:57:58:759
2048954,000000	2020-10-13T22:57:58:799
2055770,000000	2020-10-13T22:57:58:839
2062123,000000	2020-10-13T22:57:58:879
2068521,000000	2020-10-13T22:57:58:918
2075154,000000	2020-10-13T22:57:58:959
2080887,000000	2020-10-13T22:57:58:998
2087954,000000	2020-10-13T22:57:59:040
2088013,000000	2020-10-13T22:57:59:081
2075249,000000	2020-10-13T22:57:59:120
2061750,000000	2020-10-13T22:57:59:159
2054925,000000	2020-10-13T22:57:59:199
2052815,000000	2020-10-13T22:57:59:239
2052817,000000	2020-10-13T22:57:59:279
2054313,000000	2020-10-13T22:57:59:320
2057398,000000	2020-10-13T22:57:59:360
2058482,000000	2020-10-13T22:57:59:399
2059398,000000	2020-10-13T22:57:59:439
2060093,000000	2020-10-13T22:57:59:479
2062229,000000	2020-10-13T22:57:59:520
2065474,000000	2020-10-13T22:57:59:560
2070092,000000	2020-10-13T22:57:59:600
2074236,000000	2020-10-13T22:57:59:639
2079340,000000	2020-10-13T22:57:59:680
2084204,000000	2020-10-13T22:57:59:719
2088707,000000	2020-10-13T22:57:59:761
2093574,000000	2020-10-13T22:57:59:802
2098208,000000	2020-10-13T22:57:59:840
2093878,000000	2020-10-13T22:57:59:879
2077985,000000	2020-10-13T22:57:59:920
2062974,000000	2020-10-13T22:57:59:960
2053772,000000	2020-10-13T22:58:00:000
2048744,000000	2020-10-13T22:58:00:040
2045777,000000	2020-10-13T22:58:00:080
2044407,000000	2020-10-13T22:58:00:120
2045322,000000	2020-10-13T22:58:00:161
2044872,000000	2020-10-13T22:58:00:204
2044062,000000	2020-10-13T22:58:00:241
2043542,000000	2020-10-13T22:58:00:281
2044113,000000	2020-10-13T22:58:00:321
2046723,000000	2020-10-13T22:58:00:360
2049744,000000	2020-10-13T22:58:00:401
2053758,000000	2020-10-13T22:58:00:440
2058341,000000	2020-10-13T22:58:00:481
2062069,000000	2020-10-13T22:58:00:521
2066589,000000	2020-10-13T22:58:00:561
2070356,000000	2020-10-13T22:58:00:600
2074821,000000	2020-10-13T22:58:00:641
2068822,000000	2020-10-13T22:58:00:680
2049587,000000	2020-10-13T22:58:00:721
2030172,000000	2020-10-13T22:58:00:762
2018057,000000	2020-10-13T22:58:00:802
2009961,000000	2020-10-13T22:58:00:840
2004337,000000	2020-10-13T22:58:00:881
2001442,000000	2020-10-13T22:58:00:920
1999837,000000	2020-10-13T22:58:00:962
1999018,000000	2020-10-13T22:58:01:002
1997803,000000	2020-10-13T22:58:01:041
1996309,000000	2020-10-13T22:58:01:081
1996560,000000	2020-10-13T22:58:01:122
1998629,000000	2020-10-13T22:58:01:161
2001871,000000	2020-10-13T22:58:01:202
2005481,000000	2020-10-13T22:58:01:242
2009780,000000	2020-10-13T22:58:01:281
2014252,000000	2020-10-13T22:58:01:322
2018313,000000	2020-10-13T22:58:01:362
2022494,000000	2020-10-13T22:58:01:403
2016321,000000	2020-10-13T22:58:01:442
1995046,000000	2020-10-13T22:58:01:482
1975022,000000	2020-10-13T22:58:01:522
1962768,000000	2020-10-13T22:58:01:561
1955710,000000	2020-10-13T22:58:01:602
1951744,000000	2020-10-13T22:58:01:641
1949666,000000	2020-10-13T22:58:01:682
1949817,000000	2020-10-13T22:58:01:723
1948365,000000	2020-10-13T22:58:01:764
1946323,000000	2020-10-13T22:58:01:802
1944974,000000	2020-10-13T22:58:01:842
1945204,000000	2020-10-13T22:58:01:881
1947470,000000	2020-10-13T22:58:01:922
1950546,000000	2020-10-13T22:58:01:963
1954156,000000	2020-10-13T22:58:02:002
1958101,000000	2020-10-13T22:58:02:042
1961947,000000	2020-10-13T22:58:02:082
1961884,000000	2020-10-13T22:58:02:122
1943438,000000	2020-10-13T22:58:02:163
1918959,000000	2020-10-13T22:58:02:203
1902501,000000	2020-10-13T22:58:02:243
1894451,000000	2020-10-13T22:58:02:282
1888880,000000	2020-10-13T22:58:02:324
1886401,000000	2020-10-13T22:58:02:362
1887152,000000	2020-10-13T22:58:02:403
1886105,000000	2020-10-13T22:58:02:445
1883838,000000	2020-10-13T22:58:02:483
1881854,000000	2020-10-13T22:58:02:522
1881525,000000	2020-10-13T22:58:02:563
1883847,000000	2020-10-13T22:58:02:601
1890518,000000	2020-10-13T22:58:02:644
1894472,000000	2020-10-13T22:58:02:684
1898466,000000	2020-10-13T22:58:02:723
1897975,000000	2020-10-13T22:58:02:762
1877071,000000	2020-10-13T22:58:02:803
1852617,000000	2020-10-13T22:58:02:842
1836532,000000	2020-10-13T22:58:02:883
1828662,000000	2020-10-13T22:58:02:923
1823210,000000	2020-10-13T22:58:02:964
1819971,000000	2020-10-13T22:58:03:002
1820502,000000	2020-10-13T22:58:03:043
1821228,000000	2020-10-13T22:58:03:083
1820860,000000	2020-10-13T22:58:03:150
1819911,000000	2020-10-13T22:58:03:164
1820895,000000	2020-10-13T22:58:03:204
1823894,000000	2020-10-13T22:58:03:243
1828216,000000	2020-10-13T22:58:03:283
1833195,000000	2020-10-13T22:58:03:323
1838427,000000	2020-10-13T22:58:03:364
1843570,000000	2020-10-13T22:58:03:404
1847047,000000	2020-10-13T22:58:03:445
1832681,000000	2020-10-13T22:58:03:483
1809786,000000	2020-10-13T22:58:03:524
1794733,000000	2020-10-13T22:58:03:563
1786991,000000	2020-10-13T22:58:03:604
1782220,000000	2020-10-13T22:58:03:645
1779527,000000	2020-10-13T22:58:03:684
1781602,000000	2020-10-13T22:58:03:723
1785388,000000	2020-10-13T22:58:03:764
1787344,000000	2020-10-13T22:58:03:803
1789043,000000	2020-10-13T22:58:03:844
1792070,000000	2020-10-13T22:58:03:884
1796788,000000	2020-10-13T22:58:03:924
1802887,000000	2020-10-13T22:58:03:963
1810025,000000	2020-10-13T22:58:04:004
1817021,000000	2020-10-13T22:58:04:043
1823686,000000	2020-10-13T22:58:04:084
1830678,000000	2020-10-13T22:58:04:125
1837325,000000	2020-10-13T22:58:04:165
1839635,000000	2020-10-13T22:58:04:204
1824800,000000	2020-10-13T22:58:04:245
1808834,000000	2020-10-13T22:58:04:283
1801449,000000	2020-10-13T22:58:04:325
1798376,000000	2020-10-13T22:58:04:366
