x	y	z	ts
-0,241675	0,464208	9,688539	2020-10-13T23:10:57:744
-0,258425	0,464208	9,702895	2020-10-13T23:10:57:744
-0,236889	0,342174	9,757930	2020-10-13T23:10:57:744
-0,222532	0,399601	9,690931	2020-10-13T23:10:57:744
-0,208176	0,416351	9,686146	2020-10-13T23:10:57:745
-0,236889	0,531207	9,762716	2020-10-13T23:10:57:745
-0,220140	0,509671	9,741181	2020-10-13T23:10:57:745
-0,253639	0,418744	9,729217	2020-10-13T23:10:57:746
-0,265603	0,492921	9,690931	2020-10-13T23:10:57:746
-0,275175	0,449851	9,676575	2020-10-13T23:10:57:747
-0,232104	0,557528	9,750752	2020-10-13T23:10:57:747
-0,241675	0,416351	9,724431	2020-10-13T23:10:57:753
-0,210568	0,468993	9,717253	2020-10-13T23:10:57:785
-0,215354	0,495314	9,734003	2020-10-13T23:10:57:796
-0,227318	0,495314	9,731609	2020-10-13T23:10:57:815
-0,212961	0,581456	9,755538	2020-10-13T23:10:57:835
-0,217747	0,567099	9,698111	2020-10-13T23:10:57:855
-0,205783	0,612563	9,710074	2020-10-13T23:10:57:875
-0,303888	0,483350	9,736395	2020-10-13T23:10:57:895
-0,303888	0,430708	9,717253	2020-10-13T23:10:57:915
-0,265603	0,459422	9,695717	2020-10-13T23:10:57:935
-0,277567	0,418744	9,736395	2020-10-13T23:10:57:954
-0,229711	0,387637	9,702895	2020-10-13T23:10:57:975
-0,244068	0,411566	9,719646	2020-10-13T23:10:57:995
-0,189033	0,521635	9,726824	2020-10-13T23:10:58:015
-0,277567	0,502493	9,724431	2020-10-13T23:10:58:035
-0,200997	0,509671	9,714860	2020-10-13T23:10:58:055
-0,253639	0,588634	9,695717	2020-10-13T23:10:58:075
-0,265603	0,418744	9,712467	2020-10-13T23:10:58:094
-0,279960	0,466600	9,710074	2020-10-13T23:10:58:115
-0,260818	0,492921	9,705289	2020-10-13T23:10:58:136
-0,270389	0,531207	9,683753	2020-10-13T23:10:58:155
-0,198604	0,538385	9,664611	2020-10-13T23:10:58:175
-0,208176	0,574277	9,734003	2020-10-13T23:10:58:195
-0,236889	0,543171	9,748360	2020-10-13T23:10:58:215
-0,253639	0,557528	9,719646	2020-10-13T23:10:58:236
-0,244068	0,624527	9,667004	2020-10-13T23:10:58:255
-0,330210	0,504886	9,717253	2020-10-13T23:10:58:275
-0,373280	0,232104	9,801002	2020-10-13T23:10:58:295
-0,406780	0,126820	9,760324	2020-10-13T23:10:58:315
-0,375673	0,093320	9,729217	2020-10-13T23:10:58:336
-0,296710	0,323031	9,734003	2020-10-13T23:10:58:355
-0,193819	0,581456	9,693325	2020-10-13T23:10:58:376
-0,220140	0,684347	9,700503	2020-10-13T23:10:58:395
-0,229711	0,610170	9,631111	2020-10-13T23:10:58:416
-0,284746	0,454636	9,767502	2020-10-13T23:10:58:435
-0,181855	0,385244	9,798609	2020-10-13T23:10:58:455
-0,198604	0,394816	9,631111	2020-10-13T23:10:58:476
-0,279960	0,605384	9,762716	2020-10-13T23:10:58:495
-0,234497	0,545564	9,712467	2020-10-13T23:10:58:515
-0,222532	0,492921	9,626326	2020-10-13T23:10:58:536
-0,179462	0,437887	9,710074	2020-10-13T23:10:58:555
-0,239282	0,437887	9,772287	2020-10-13T23:10:58:576
-0,232104	0,418744	9,750752	2020-10-13T23:10:58:595
-0,306281	0,421137	9,702895	2020-10-13T23:10:58:616
-0,315853	0,411566	9,827322	2020-10-13T23:10:58:635
-0,224925	0,387637	9,784252	2020-10-13T23:10:58:656
-0,224925	0,449851	9,638289	2020-10-13T23:10:58:676
-0,289532	0,497707	9,765109	2020-10-13T23:10:58:695
-0,200997	0,512064	9,724431	2020-10-13T23:10:58:717
-0,248854	0,490529	9,729217	2020-10-13T23:10:58:736
-0,253639	0,466600	9,702895	2020-10-13T23:10:58:755
-0,277567	0,550349	9,722038	2020-10-13T23:10:58:776
-0,241675	0,488136	9,729217	2020-10-13T23:10:58:796
-0,256032	0,533599	9,719646	2020-10-13T23:10:58:816
-0,193819	0,478565	9,688539	2020-10-13T23:10:58:837
-0,234497	0,428315	9,734003	2020-10-13T23:10:58:856
-0,236889	0,394816	9,710074	2020-10-13T23:10:58:879
-0,258425	0,447458	9,750752	2020-10-13T23:10:58:907
-0,287139	0,442672	9,707682	2020-10-13T23:10:58:918
-0,186640	0,442672	9,719646	2020-10-13T23:10:58:936
-0,263210	0,464208	9,769895	2020-10-13T23:10:58:957
-0,263210	0,416351	9,765109	2020-10-13T23:10:58:977
-0,244068	0,500100	9,748360	2020-10-13T23:10:58:998
-0,232104	0,449851	9,762716	2020-10-13T23:10:59:019
-0,224925	0,526421	9,750752	2020-10-13T23:10:59:038
-0,263210	0,488136	9,722038	2020-10-13T23:10:59:057
-0,179462	0,399601	9,729217	2020-10-13T23:10:59:079
-0,210568	0,509671	9,812965	2020-10-13T23:10:59:098
-0,323031	0,492921	9,664611	2020-10-13T23:10:59:119
-0,224925	0,370888	9,743573	2020-10-13T23:10:59:138
-0,229711	0,461815	9,781858	2020-10-13T23:10:59:158
-0,258425	0,480957	9,722038	2020-10-13T23:10:59:178
-0,270389	0,437887	9,755538	2020-10-13T23:10:59:199
-0,256032	0,507278	9,724431	2020-10-13T23:10:59:218
-0,215354	0,478565	9,777073	2020-10-13T23:10:59:238
-0,239282	0,478565	9,762716	2020-10-13T23:10:59:258
-0,253639	0,454636	9,741181	2020-10-13T23:10:59:279
-0,220140	0,435494	9,724431	2020-10-13T23:10:59:299
-0,184247	0,351745	9,690931	2020-10-13T23:10:59:319
-0,263210	0,449851	9,698111	2020-10-13T23:10:59:339
-0,205783	0,464208	9,748360	2020-10-13T23:10:59:359
-0,232104	0,368495	9,719646	2020-10-13T23:10:59:378
-0,212961	0,459422	9,681360	2020-10-13T23:10:59:398
-0,222532	0,421137	9,734003	2020-10-13T23:10:59:418
-0,227318	0,445065	9,741181	2020-10-13T23:10:59:439
-0,296710	0,430708	9,729217	2020-10-13T23:10:59:458
-0,253639	0,387637	9,726824	2020-10-13T23:10:59:479
-0,241675	0,387637	9,748360	2020-10-13T23:10:59:499
-0,253639	0,464208	9,731609	2020-10-13T23:10:59:519
-0,203390	0,466600	9,695717	2020-10-13T23:10:59:538
-0,181855	0,492921	9,779467	2020-10-13T23:10:59:560
-0,251246	0,392423	9,734003	2020-10-13T23:10:59:580
-0,282353	0,473779	9,693325	2020-10-13T23:10:59:599
-0,306281	0,495314	9,724431	2020-10-13T23:10:59:618
-0,239282	0,452243	9,712467	2020-10-13T23:10:59:639
-0,239282	0,454636	9,738789	2020-10-13T23:10:59:658
-0,263210	0,409173	9,753145	2020-10-13T23:10:59:680
-0,234497	0,488136	9,769895	2020-10-13T23:10:59:698
-0,189033	0,461815	9,729217	2020-10-13T23:10:59:719
-0,265603	0,471386	9,736395	2020-10-13T23:10:59:738
-0,241675	0,452243	9,729217	2020-10-13T23:10:59:759
-0,196211	0,354138	9,710074	2020-10-13T23:10:59:779
-0,241675	0,445065	9,769895	2020-10-13T23:10:59:799
-0,251246	0,502493	9,726824	2020-10-13T23:10:59:820
-0,215354	0,445065	9,755538	2020-10-13T23:10:59:839
-0,232104	0,440279	9,674182	2020-10-13T23:10:59:858
-0,181855	0,473779	9,767502	2020-10-13T23:10:59:880
-0,282353	0,387637	9,774680	2020-10-13T23:10:59:898
-0,155533	0,437887	9,669396	2020-10-13T23:10:59:920
-0,251246	0,480957	9,724431	2020-10-13T23:10:59:938
-0,186640	0,480957	9,736395	2020-10-13T23:10:59:959
-0,220140	0,447458	9,741181	2020-10-13T23:10:59:979
-0,284746	0,478565	9,693325	2020-10-13T23:11:00:000
-0,284746	0,416351	9,779467	2020-10-13T23:11:00:020
-0,265603	0,452243	9,753145	2020-10-13T23:11:00:040
-0,232104	0,416351	9,769895	2020-10-13T23:11:00:059
-0,258425	0,524028	9,784252	2020-10-13T23:11:00:080
-0,251246	0,378066	9,726824	2020-10-13T23:11:00:098
-0,220140	0,449851	9,741181	2020-10-13T23:11:00:120
-0,246461	0,366102	9,724431	2020-10-13T23:11:00:138
-0,229711	0,447458	9,741181	2020-10-13T23:11:00:160
-0,212961	0,492921	9,774680	2020-10-13T23:11:00:179
-0,236889	0,380459	9,750752	2020-10-13T23:11:00:200
-0,244068	0,495314	9,705289	2020-10-13T23:11:00:220
-0,217747	0,433101	9,695717	2020-10-13T23:11:00:240
-0,234497	0,468993	9,738789	2020-10-13T23:11:00:258
-0,246461	0,492921	9,722038	2020-10-13T23:11:00:281
-0,241675	0,399601	9,719646	2020-10-13T23:11:00:299
-0,229711	0,375673	9,765109	2020-10-13T23:11:00:320
-0,270389	0,399601	9,748360	2020-10-13T23:11:00:339
-0,289532	0,421137	9,757930	2020-10-13T23:11:00:360
-0,215354	0,459422	9,674182	2020-10-13T23:11:00:379
-0,217747	0,452243	9,772287	2020-10-13T23:11:00:400
-0,198604	0,418744	9,760324	2020-10-13T23:11:00:419
-0,256032	0,399601	9,745967	2020-10-13T23:11:00:440
-0,263210	0,457029	9,760324	2020-10-13T23:11:00:459
-0,248854	0,485743	9,745967	2020-10-13T23:11:00:480
-0,229711	0,425922	9,724431	2020-10-13T23:11:00:499
-0,205783	0,413958	9,781858	2020-10-13T23:11:00:520
-0,179462	0,485743	9,719646	2020-10-13T23:11:00:540
-0,239282	0,468993	9,786645	2020-10-13T23:11:00:560
-0,205783	0,435494	9,729217	2020-10-13T23:11:00:579
-0,229711	0,447458	9,712467	2020-10-13T23:11:00:600
-0,208176	0,401994	9,796216	2020-10-13T23:11:00:619
-0,198604	0,356531	9,712467	2020-10-13T23:11:00:640
-0,241675	0,263210	9,741181	2020-10-13T23:11:00:659
-0,234497	0,401994	9,760324	2020-10-13T23:11:00:680
-0,205783	0,435494	9,750752	2020-10-13T23:11:00:699
-0,299103	0,567099	9,667004	2020-10-13T23:11:00:721
-0,256032	0,507278	9,683753	2020-10-13T23:11:00:740
-0,325424	0,528814	9,734003	2020-10-13T23:11:00:761
-0,318245	0,473779	9,741181	2020-10-13T23:11:00:780
-0,248854	0,488136	9,712467	2020-10-13T23:11:00:800
-0,279960	0,468993	9,734003	2020-10-13T23:11:00:820
-0,184247	0,464208	9,755538	2020-10-13T23:11:00:841
-0,186640	0,323031	9,789038	2020-10-13T23:11:00:859
-0,210568	0,303888	9,760324	2020-10-13T23:11:00:882
-0,294317	0,373280	9,705289	2020-10-13T23:11:00:899
-0,236889	0,358923	9,731609	2020-10-13T23:11:00:921
-0,267996	0,445065	9,738789	2020-10-13T23:11:00:939
-0,222532	0,404387	9,705289	2020-10-13T23:11:00:961
-0,179462	0,342174	9,722038	2020-10-13T23:11:00:980
-0,260818	0,315853	9,767502	2020-10-13T23:11:01:001
-0,234497	0,351745	9,734003	2020-10-13T23:11:01:022
-0,208176	0,478565	9,710074	2020-10-13T23:11:01:041
-0,282353	0,440279	9,702895	2020-10-13T23:11:01:060
-0,267996	0,452243	9,714860	2020-10-13T23:11:01:081
-0,241675	0,382852	9,745967	2020-10-13T23:11:01:099
-0,260818	0,392423	9,753145	2020-10-13T23:11:01:122
-0,256032	0,452243	9,755538	2020-10-13T23:11:01:139
-0,253639	0,442672	9,700503	2020-10-13T23:11:01:161
-0,205783	0,425922	9,753145	2020-10-13T23:11:01:180
-0,258425	0,373280	9,779467	2020-10-13T23:11:01:201
-0,198604	0,404387	9,686146	2020-10-13T23:11:01:220
-0,196211	0,428315	9,686146	2020-10-13T23:11:01:241
-0,229711	0,397209	9,745967	2020-10-13T23:11:01:261
-0,236889	0,468993	9,803394	2020-10-13T23:11:01:281
-0,239282	0,423530	9,734003	2020-10-13T23:11:01:300
-0,311067	0,514457	9,705289	2020-10-13T23:11:01:321
-0,251246	0,358923	9,693325	2020-10-13T23:11:01:340
-0,236889	0,428315	9,714860	2020-10-13T23:11:01:362
-0,248854	0,437887	9,755538	2020-10-13T23:11:01:380
-0,253639	0,375673	9,765109	2020-10-13T23:11:01:401
-0,246461	0,445065	9,769895	2020-10-13T23:11:01:420
-0,265603	0,454636	9,717253	2020-10-13T23:11:01:441
-0,270389	0,397209	9,695717	2020-10-13T23:11:01:460
-0,272782	0,473779	9,714860	2020-10-13T23:11:01:482
-0,289532	0,457029	9,741181	2020-10-13T23:11:01:501
-0,263210	0,454636	9,755538	2020-10-13T23:11:01:521
-0,224925	0,406780	9,717253	2020-10-13T23:11:01:540
-0,260818	0,509671	9,722038	2020-10-13T23:11:01:561
-0,200997	0,416351	9,717253	2020-10-13T23:11:01:580
-0,301496	0,380459	9,750752	2020-10-13T23:11:01:602
-0,234497	0,459422	9,705289	2020-10-13T23:11:01:620
-0,246461	0,409173	9,678967	2020-10-13T23:11:01:641
-0,299103	0,325424	9,757930	2020-10-13T23:11:01:661
-0,227318	0,397209	9,690931	2020-10-13T23:11:01:681
-0,246461	0,447458	9,729217	2020-10-13T23:11:01:699
-0,256032	0,457029	9,779467	2020-10-13T23:11:01:721
-0,227318	0,442672	9,734003	2020-10-13T23:11:01:741
-0,246461	0,411566	9,686146	2020-10-13T23:11:01:761
-0,267996	0,378066	9,774680	2020-10-13T23:11:01:780
-0,246461	0,425922	9,736395	2020-10-13T23:11:01:801
-0,203390	0,361316	9,719646	2020-10-13T23:11:01:820
-0,256032	0,488136	9,743573	2020-10-13T23:11:01:841
-0,277567	0,404387	9,750752	2020-10-13T23:11:01:860
-0,303888	0,313460	9,698111	2020-10-13T23:11:01:881
-0,205783	0,323031	9,710074	2020-10-13T23:11:01:901
-0,265603	0,425922	9,743573	2020-10-13T23:11:01:922
-0,248854	0,425922	9,712467	2020-10-13T23:11:01:940
-0,258425	0,387637	9,707682	2020-10-13T23:11:01:960
-0,244068	0,370888	9,693325	2020-10-13T23:11:01:981
-0,215354	0,370888	9,707682	2020-10-13T23:11:02:002
-0,246461	0,452243	9,750752	2020-10-13T23:11:02:021
-0,236889	0,464208	9,707682	2020-10-13T23:11:02:042
-0,267996	0,454636	9,781858	2020-10-13T23:11:02:059
-0,244068	0,334995	9,681360	2020-10-13T23:11:02:089
-0,277567	0,327817	9,765109	2020-10-13T23:11:02:101
-0,155533	0,466600	9,724431	2020-10-13T23:11:02:126
-0,253639	0,421137	9,695717	2020-10-13T23:11:02:141
-0,236889	0,390030	9,695717	2020-10-13T23:11:02:165
-0,205783	0,375673	9,774680	2020-10-13T23:11:02:179
-0,282353	0,421137	9,755538	2020-10-13T23:11:02:202
-0,212961	0,394816	9,750752	2020-10-13T23:11:02:221
-0,229711	0,430708	9,779467	2020-10-13T23:11:02:241
-0,239282	0,428315	9,757930	2020-10-13T23:11:02:261
-0,248854	0,418744	9,724431	2020-10-13T23:11:02:281
-0,258425	0,488136	9,700503	2020-10-13T23:11:02:300
-0,270389	0,394816	9,700503	2020-10-13T23:11:02:323
-0,203390	0,337388	9,717253	2020-10-13T23:11:02:340
-0,212961	0,342174	9,774680	2020-10-13T23:11:02:361
-0,229711	0,366102	9,688539	2020-10-13T23:11:02:381
-0,256032	0,397209	9,690931	2020-10-13T23:11:02:401
-0,234497	0,435494	9,779467	2020-10-13T23:11:02:420
-0,220140	0,339781	9,707682	2020-10-13T23:11:02:441
-0,177069	0,421137	9,702895	2020-10-13T23:11:02:461
-0,275175	0,382852	9,659825	2020-10-13T23:11:02:481
-0,258425	0,413958	9,705289	2020-10-13T23:11:02:500
-0,289532	0,413958	9,805787	2020-10-13T23:11:02:522
-0,241675	0,358923	9,693325	2020-10-13T23:11:02:540
-0,236889	0,457029	9,755538	2020-10-13T23:11:02:562
-0,282353	0,380459	9,714860	2020-10-13T23:11:02:580
-0,236889	0,435494	9,722038	2020-10-13T23:11:02:602
-0,356531	0,464208	9,748360	2020-10-13T23:11:02:621
-0,299103	0,404387	9,686146	2020-10-13T23:11:02:642
-0,239282	0,464208	9,755538	2020-10-13T23:11:02:660
-0,244068	0,358923	9,769895	2020-10-13T23:11:02:683
-0,198604	0,433101	9,693325	2020-10-13T23:11:02:701
-0,212961	0,502493	9,722038	2020-10-13T23:11:02:723
-0,234497	0,442672	9,710074	2020-10-13T23:11:02:740
-0,186640	0,445065	9,781858	2020-10-13T23:11:02:763
-0,244068	0,351745	9,722038	2020-10-13T23:11:02:780
-0,234497	0,459422	9,738789	2020-10-13T23:11:02:803
-0,251246	0,390030	9,753145	2020-10-13T23:11:02:823
-0,241675	0,413958	9,781858	2020-10-13T23:11:02:842
-0,267996	0,437887	9,729217	2020-10-13T23:11:02:860
-0,277567	0,375673	9,712467	2020-10-13T23:11:02:883
-0,284746	0,416351	9,743573	2020-10-13T23:11:02:900
-0,263210	0,449851	9,693325	2020-10-13T23:11:02:923
-0,248854	0,411566	9,717253	2020-10-13T23:11:02:944
-0,246461	0,416351	9,762716	2020-10-13T23:11:02:962
-0,289532	0,442672	9,786645	2020-10-13T23:11:02:982
-0,162712	0,461815	9,741181	2020-10-13T23:11:03:003
-0,215354	0,483350	9,700503	2020-10-13T23:11:03:021
-0,239282	0,490529	9,748360	2020-10-13T23:11:03:042
-0,246461	0,435494	9,736395	2020-10-13T23:11:03:060
-0,232104	0,509671	9,681360	2020-10-13T23:11:03:083
-0,258425	0,433101	9,688539	2020-10-13T23:11:03:100
-0,248854	0,445065	9,784252	2020-10-13T23:11:03:123
-0,157926	0,363709	9,729217	2020-10-13T23:11:03:140
-0,196211	0,466600	9,683753	2020-10-13T23:11:03:163
-0,236889	0,461815	9,781858	2020-10-13T23:11:03:182
-0,327817	0,339781	9,710074	2020-10-13T23:11:03:202
-0,222532	0,387637	9,719646	2020-10-13T23:11:03:221
-0,181855	0,346959	9,767502	2020-10-13T23:11:03:242
-0,296710	0,394816	9,710074	2020-10-13T23:11:03:260
-0,224925	0,433101	9,700503	2020-10-13T23:11:03:283
-0,244068	0,404387	9,734003	2020-10-13T23:11:03:301
-0,248854	0,502493	9,753145	2020-10-13T23:11:03:323
-0,227318	0,416351	9,779467	2020-10-13T23:11:03:341
-0,246461	0,442672	9,686146	2020-10-13T23:11:03:363
-0,236889	0,392423	9,743573	2020-10-13T23:11:03:381
-0,263210	0,430708	9,702895	2020-10-13T23:11:03:403
-0,244068	0,437887	9,762716	2020-10-13T23:11:03:422
-0,191426	0,332602	9,729217	2020-10-13T23:11:03:443
-0,306281	0,411566	9,777073	2020-10-13T23:11:03:461
-0,299103	0,428315	9,719646	2020-10-13T23:11:03:483
-0,229711	0,425922	9,705289	2020-10-13T23:11:03:501
-0,241675	0,468993	9,765109	2020-10-13T23:11:03:523
-0,287139	0,483350	9,757930	2020-10-13T23:11:03:541
-0,253639	0,464208	9,736395	2020-10-13T23:11:03:563
-0,232104	0,464208	9,700503	2020-10-13T23:11:03:581
-0,177069	0,392423	9,757930	2020-10-13T23:11:03:603
-0,241675	0,373280	9,779467	2020-10-13T23:11:03:621
-0,205783	0,473779	9,741181	2020-10-13T23:11:03:643
-0,253639	0,397209	9,695717	2020-10-13T23:11:03:662
-0,208176	0,435494	9,767502	2020-10-13T23:11:03:683
-0,289532	0,440279	9,731609	2020-10-13T23:11:03:701
-0,215354	0,385244	9,678967	2020-10-13T23:11:03:723
-0,265603	0,399601	9,750752	2020-10-13T23:11:03:741
-0,256032	0,411566	9,726824	2020-10-13T23:11:03:764
-0,189033	0,428315	9,738789	2020-10-13T23:11:03:781
-0,272782	0,366102	9,750752	2020-10-13T23:11:03:804
-0,284746	0,370888	9,781858	2020-10-13T23:11:03:822
-0,248854	0,425922	9,741181	2020-10-13T23:11:03:843
-0,200997	0,473779	9,753145	2020-10-13T23:11:03:861
-0,229711	0,445065	9,755538	2020-10-13T23:11:03:885
-0,222532	0,473779	9,750752	2020-10-13T23:11:03:902
-0,291924	0,423530	9,755538	2020-10-13T23:11:03:923
-0,294317	0,394816	9,748360	2020-10-13T23:11:03:941
-0,193819	0,449851	9,700503	2020-10-13T23:11:03:964
-0,244068	0,435494	9,719646	2020-10-13T23:11:03:981
-0,263210	0,390030	9,693325	2020-10-13T23:11:04:004
-0,210568	0,435494	9,777073	2020-10-13T23:11:04:022
-0,246461	0,311067	9,714860	2020-10-13T23:11:04:044
-0,210568	0,378066	9,753145	2020-10-13T23:11:04:062
-0,265603	0,308674	9,734003	2020-10-13T23:11:04:084
-0,251246	0,356531	9,729217	2020-10-13T23:11:04:101
-0,258425	0,437887	9,722038	2020-10-13T23:11:04:125
-0,212961	0,394816	9,664611	2020-10-13T23:11:04:142
-0,222532	0,397209	9,726824	2020-10-13T23:11:04:164
-0,270389	0,337388	9,722038	2020-10-13T23:11:04:182
-0,248854	0,299103	9,700503	2020-10-13T23:11:04:204
-0,208176	0,394816	9,757930	2020-10-13T23:11:04:222
-0,263210	0,349352	9,760324	2020-10-13T23:11:04:244
-0,234497	0,416351	9,810574	2020-10-13T23:11:04:262
-0,299103	0,459422	9,695717	2020-10-13T23:11:04:285
-0,275175	0,425922	9,789038	2020-10-13T23:11:04:302
-0,320638	0,404387	9,745967	2020-10-13T23:11:04:324
-0,210568	0,370888	9,693325	2020-10-13T23:11:04:342
-0,239282	0,375673	9,750752	2020-10-13T23:11:04:365
-0,258425	0,368495	9,738789	2020-10-13T23:11:04:382
-0,217747	0,406780	9,738789	2020-10-13T23:11:04:404
-0,253639	0,339781	9,671788	2020-10-13T23:11:04:422
-0,232104	0,263210	9,772287	2020-10-13T23:11:04:445
-0,244068	0,337388	9,748360	2020-10-13T23:11:04:463
-0,210568	0,303888	9,726824	2020-10-13T23:11:04:484
-0,169890	0,368495	9,755538	2020-10-13T23:11:04:502
-0,251246	0,394816	9,765109	2020-10-13T23:11:04:525
-0,196211	0,397209	9,683753	2020-10-13T23:11:04:547
-0,234497	0,351745	9,714860	2020-10-13T23:11:04:564
-0,220140	0,445065	9,765109	2020-10-13T23:11:04:582
-0,215354	0,378066	9,698111	2020-10-13T23:11:04:605
-0,246461	0,306281	9,683753	2020-10-13T23:11:04:623
-0,260818	0,346959	9,774680	2020-10-13T23:11:04:646
-0,251246	0,375673	9,774680	2020-10-13T23:11:04:671
-0,193819	0,380459	9,678967	2020-10-13T23:11:04:686
-0,215354	0,354138	9,738789	2020-10-13T23:11:04:701
-0,275175	0,378066	9,734003	2020-10-13T23:11:04:725
-0,265603	0,399601	9,738789	2020-10-13T23:11:04:742
-0,265603	0,418744	9,722038	2020-10-13T23:11:04:765
-0,251246	0,363709	9,702895	2020-10-13T23:11:04:782
-0,284746	0,375673	9,745967	2020-10-13T23:11:04:804
-0,217747	0,327817	9,765109	2020-10-13T23:11:04:822
-0,208176	0,375673	9,731609	2020-10-13T23:11:04:845
-0,222532	0,380459	9,767502	2020-10-13T23:11:04:863
-0,224925	0,399601	9,815358	2020-10-13T23:11:04:885
-0,260818	0,301496	9,803394	2020-10-13T23:11:04:902
-0,205783	0,315853	9,736395	2020-10-13T23:11:04:925
-0,248854	0,368495	9,726824	2020-10-13T23:11:04:942
-0,232104	0,373280	9,714860	2020-10-13T23:11:04:965
-0,222532	0,380459	9,753145	2020-10-13T23:11:04:982
-0,169890	0,358923	9,738789	2020-10-13T23:11:05:005
-0,203390	0,349352	9,762716	2020-10-13T23:11:05:023
-0,224925	0,366102	9,736395	2020-10-13T23:11:05:044
-0,229711	0,356531	9,688539	2020-10-13T23:11:05:062
-0,217747	0,339781	9,729217	2020-10-13T23:11:05:086
-0,239282	0,380459	9,693325	2020-10-13T23:11:05:103
-0,282353	0,311067	9,688539	2020-10-13T23:11:05:125
-0,256032	0,361316	9,757930	2020-10-13T23:11:05:144
-0,279960	0,308674	9,789038	2020-10-13T23:11:05:165
-0,287139	0,445065	9,755538	2020-10-13T23:11:05:184
-0,224925	0,361316	9,834501	2020-10-13T23:11:05:205
-0,246461	0,356531	9,762716	2020-10-13T23:11:05:223
-0,299103	0,370888	9,695717	2020-10-13T23:11:05:245
-0,258425	0,287139	9,779467	2020-10-13T23:11:05:263
-0,234497	0,318245	9,719646	2020-10-13T23:11:05:285
-0,256032	0,267996	9,745967	2020-10-13T23:11:05:302
-0,246461	0,320638	9,690931	2020-10-13T23:11:05:326
-0,284746	0,311067	9,738789	2020-10-13T23:11:05:344
-0,301496	0,368495	9,815358	2020-10-13T23:11:05:364
-0,232104	0,373280	9,705289	2020-10-13T23:11:05:384
-0,248854	0,392423	9,734003	2020-10-13T23:11:05:405
-0,260818	0,346959	9,726824	2020-10-13T23:11:05:423
-0,277567	0,356531	9,734003	2020-10-13T23:11:05:445
-0,258425	0,318245	9,731609	2020-10-13T23:11:05:463
-0,203390	0,346959	9,722038	2020-10-13T23:11:05:486
-0,227318	0,380459	9,750752	2020-10-13T23:11:05:503
-0,299103	0,423530	9,755538	2020-10-13T23:11:05:525
-0,270389	0,344566	9,745967	2020-10-13T23:11:05:544
-0,294317	0,299103	9,722038	2020-10-13T23:11:05:566
-0,191426	0,373280	9,712467	2020-10-13T23:11:05:584
-0,189033	0,311067	9,731609	2020-10-13T23:11:05:605
-0,244068	0,270389	9,736395	2020-10-13T23:11:05:624
-0,313460	0,325424	9,748360	2020-10-13T23:11:05:646
-0,267996	0,351745	9,743573	2020-10-13T23:11:05:664
-0,330210	0,390030	9,738789	2020-10-13T23:11:05:686
-0,258425	0,318245	9,803394	2020-10-13T23:11:05:703
-0,277567	0,397209	9,760324	2020-10-13T23:11:05:726
-0,241675	0,411566	9,707682	2020-10-13T23:11:05:744
-0,234497	0,311067	9,681360	2020-10-13T23:11:05:765
-0,203390	0,361316	9,719646	2020-10-13T23:11:05:784
-0,186640	0,401994	9,714860	2020-10-13T23:11:05:807
-0,303888	0,301496	9,714860	2020-10-13T23:11:05:826
-0,224925	0,363709	9,765109	2020-10-13T23:11:05:845
-0,277567	0,277567	9,757930	2020-10-13T23:11:05:864
-0,220140	0,349352	9,698111	2020-10-13T23:11:05:886
-0,294317	0,370888	9,726824	2020-10-13T23:11:05:903
-0,284746	0,390030	9,712467	2020-10-13T23:11:05:926
-0,287139	0,380459	9,743573	2020-10-13T23:11:05:943
-0,253639	0,277567	9,774680	2020-10-13T23:11:05:966
-0,169890	0,366102	9,710074	2020-10-13T23:11:05:985
-0,272782	0,311067	9,731609	2020-10-13T23:11:06:006
-0,193819	0,306281	9,743573	2020-10-13T23:11:06:023
-0,291924	0,318245	9,760324	2020-10-13T23:11:06:046
-0,227318	0,244068	9,748360	2020-10-13T23:11:06:065
-0,272782	0,279960	9,707682	2020-10-13T23:11:06:087
-0,289532	0,361316	9,753145	2020-10-13T23:11:06:104
-0,306281	0,382852	9,710074	2020-10-13T23:11:06:127
-0,215354	0,411566	9,681360	2020-10-13T23:11:06:143
-0,260818	0,390030	9,774680	2020-10-13T23:11:06:166
-0,167498	0,327817	9,805787	2020-10-13T23:11:06:184
-0,248854	0,332602	9,757930	2020-10-13T23:11:06:206
-0,241675	0,413958	9,705289	2020-10-13T23:11:06:225
-0,203390	0,330210	9,734003	2020-10-13T23:11:06:246
-0,205783	0,306281	9,765109	2020-10-13T23:11:06:264
-0,282353	0,323031	9,760324	2020-10-13T23:11:06:287
-0,263210	0,303888	9,719646	2020-10-13T23:11:06:307
-0,241675	0,478565	9,736395	2020-10-13T23:11:06:326
-0,313460	0,306281	9,745967	2020-10-13T23:11:06:344
-0,275175	0,344566	9,705289	2020-10-13T23:11:06:367
-0,277567	0,363709	9,702895	2020-10-13T23:11:06:384
-0,306281	0,308674	9,705289	2020-10-13T23:11:06:405
-0,210568	0,356531	9,741181	2020-10-13T23:11:06:424
-0,296710	0,294317	9,784252	2020-10-13T23:11:06:445
-0,222532	0,327817	9,712467	2020-10-13T23:11:06:464
-0,241675	0,323031	9,781858	2020-10-13T23:11:06:486
-0,251246	0,325424	9,755538	2020-10-13T23:11:06:504
-0,313460	0,330210	9,707682	2020-10-13T23:11:06:526
-0,256032	0,234497	9,722038	2020-10-13T23:11:06:545
-0,256032	0,253639	9,741181	2020-10-13T23:11:06:565
-0,244068	0,380459	9,690931	2020-10-13T23:11:06:584
-0,253639	0,351745	9,688539	2020-10-13T23:11:06:606
-0,244068	0,370888	9,705289	2020-10-13T23:11:06:625
-0,263210	0,311067	9,753145	2020-10-13T23:11:06:645
-0,224925	0,334995	9,784252	2020-10-13T23:11:06:663
-0,227318	0,284746	9,731609	2020-10-13T23:11:06:686
-0,270389	0,177069	9,719646	2020-10-13T23:11:06:704
-0,244068	0,440279	9,726824	2020-10-13T23:11:06:726
-0,227318	0,337388	9,760324	2020-10-13T23:11:06:745
-0,222532	0,354138	9,717253	2020-10-13T23:11:06:767
-0,279960	0,263210	9,738789	2020-10-13T23:11:06:785
-0,229711	0,342174	9,717253	2020-10-13T23:11:06:805
-0,275175	0,311067	9,729217	2020-10-13T23:11:06:826
-0,277567	0,277567	9,789038	2020-10-13T23:11:06:845
-0,251246	0,256032	9,774680	2020-10-13T23:11:06:864
-0,258425	0,258425	9,714860	2020-10-13T23:11:06:886
-0,246461	0,318245	9,710074	2020-10-13T23:11:06:904
-0,196211	0,413958	9,734003	2020-10-13T23:11:06:926
-0,236889	0,236889	9,777073	2020-10-13T23:11:06:944
-0,239282	0,275175	9,743573	2020-10-13T23:11:06:966
-0,244068	0,337388	9,731609	2020-10-13T23:11:06:985
-0,289532	0,361316	9,678967	2020-10-13T23:11:07:006
-0,263210	0,301496	9,731609	2020-10-13T23:11:07:025
-0,232104	0,282353	9,753145	2020-10-13T23:11:07:045
-0,248854	0,212961	9,784252	2020-10-13T23:11:07:065
-0,296710	0,318245	9,698111	2020-10-13T23:11:07:086
-0,239282	0,308674	9,707682	2020-10-13T23:11:07:104
-0,217747	0,323031	9,722038	2020-10-13T23:11:07:126
-0,270389	0,289532	9,722038	2020-10-13T23:11:07:144
-0,311067	0,323031	9,729217	2020-10-13T23:11:07:166
-0,232104	0,323031	9,745967	2020-10-13T23:11:07:185
-0,215354	0,382852	9,724431	2020-10-13T23:11:07:206
-0,193819	0,344566	9,786645	2020-10-13T23:11:07:225
-0,222532	0,272782	9,717253	2020-10-13T23:11:07:246
-0,193819	0,337388	9,748360	2020-10-13T23:11:07:265
-0,224925	0,284746	9,750752	2020-10-13T23:11:07:286
-0,234497	0,323031	9,738789	2020-10-13T23:11:07:305
-0,291924	0,373280	9,748360	2020-10-13T23:11:07:327
-0,196211	0,311067	9,786645	2020-10-13T23:11:07:344
-0,234497	0,265603	9,753145	2020-10-13T23:11:07:366
-0,232104	0,413958	9,724431	2020-10-13T23:11:07:385
-0,229711	0,394816	9,762716	2020-10-13T23:11:07:406
-0,258425	0,311067	9,719646	2020-10-13T23:11:07:426
-0,248854	0,311067	9,762716	2020-10-13T23:11:07:446
-0,212961	0,358923	9,774680	2020-10-13T23:11:07:466
-0,232104	0,306281	9,712467	2020-10-13T23:11:07:487
-0,263210	0,275175	9,786645	2020-10-13T23:11:07:505
-0,232104	0,380459	9,736395	2020-10-13T23:11:07:526
-0,263210	0,339781	9,717253	2020-10-13T23:11:07:545
-0,294317	0,358923	9,700503	2020-10-13T23:11:07:566
-0,265603	0,351745	9,745967	2020-10-13T23:11:07:586
-0,270389	0,354138	9,793823	2020-10-13T23:11:07:607
-0,248854	0,361316	9,784252	2020-10-13T23:11:07:625
-0,270389	0,279960	9,724431	2020-10-13T23:11:07:646
-0,212961	0,289532	9,786645	2020-10-13T23:11:07:665
-0,267996	0,366102	9,707682	2020-10-13T23:11:07:687
-0,256032	0,370888	9,741181	2020-10-13T23:11:07:705
-0,251246	0,342174	9,695717	2020-10-13T23:11:07:727
-0,222532	0,265603	9,643075	2020-10-13T23:11:07:746
-0,210568	0,356531	9,714860	2020-10-13T23:11:07:767
-0,217747	0,358923	9,700503	2020-10-13T23:11:07:786
-0,263210	0,289532	9,796216	2020-10-13T23:11:07:808
-0,306281	0,241675	9,724431	2020-10-13T23:11:07:826
-0,186640	0,296710	9,686146	2020-10-13T23:11:07:847
-0,181855	0,294317	9,700503	2020-10-13T23:11:07:865
-0,284746	0,356531	9,731609	2020-10-13T23:11:07:887
-0,277567	0,354138	9,741181	2020-10-13T23:11:07:906
-0,186640	0,366102	9,736395	2020-10-13T23:11:07:927
-0,224925	0,342174	9,702895	2020-10-13T23:11:07:945
-0,263210	0,368495	9,729217	2020-10-13T23:11:07:967
-0,287139	0,349352	9,753145	2020-10-13T23:11:07:987
-0,318245	0,299103	9,748360	2020-10-13T23:11:08:008
-0,210568	0,382852	9,738789	2020-10-13T23:11:08:027
-0,165105	0,291924	9,722038	2020-10-13T23:11:08:047
-0,227318	0,351745	9,753145	2020-10-13T23:11:08:066
-0,236889	0,337388	9,760324	2020-10-13T23:11:08:088
-0,212961	0,330210	9,726824	2020-10-13T23:11:08:105
-0,210568	0,346959	9,762716	2020-10-13T23:11:08:127
-0,256032	0,289532	9,705289	2020-10-13T23:11:08:145
-0,165105	0,270389	9,743573	2020-10-13T23:11:08:167
-0,217747	0,315853	9,722038	2020-10-13T23:11:08:187
-0,229711	0,275175	9,765109	2020-10-13T23:11:08:207
-0,212961	0,330210	9,738789	2020-10-13T23:11:08:227
-0,296710	0,315853	9,734003	2020-10-13T23:11:08:247
-0,248854	0,275175	9,753145	2020-10-13T23:11:08:266
-0,265603	0,248854	9,791430	2020-10-13T23:11:08:288
-0,246461	0,349352	9,726824	2020-10-13T23:11:08:306
-0,222532	0,313460	9,765109	2020-10-13T23:11:08:328
-0,224925	0,332602	9,712467	2020-10-13T23:11:08:346
-0,299103	0,320638	9,805787	2020-10-13T23:11:08:367
-0,282353	0,330210	9,729217	2020-10-13T23:11:08:386
-0,272782	0,361316	9,734003	2020-10-13T23:11:08:407
-0,248854	0,315853	9,743573	2020-10-13T23:11:08:426
-0,186640	0,394816	9,801002	2020-10-13T23:11:08:448
-0,311067	0,248854	9,755538	2020-10-13T23:11:08:467
-0,282353	0,256032	9,700503	2020-10-13T23:11:08:488
-0,258425	0,277567	9,791430	2020-10-13T23:11:08:506
-0,239282	0,291924	9,717253	2020-10-13T23:11:08:528
-0,222532	0,361316	9,700503	2020-10-13T23:11:08:546
-0,256032	0,313460	9,755538	2020-10-13T23:11:08:568
-0,272782	0,327817	9,760324	2020-10-13T23:11:08:586
-0,200997	0,318245	9,762716	2020-10-13T23:11:08:607
-0,212961	0,272782	9,719646	2020-10-13T23:11:08:626
-0,279960	0,308674	9,738789	2020-10-13T23:11:08:647
-0,296710	0,354138	9,731609	2020-10-13T23:11:08:666
-0,210568	0,342174	9,681360	2020-10-13T23:11:08:688
-0,244068	0,428315	9,738789	2020-10-13T23:11:08:706
-0,217747	0,349352	9,726824	2020-10-13T23:11:08:728
-0,191426	0,301496	9,760324	2020-10-13T23:11:08:746
-0,258425	0,342174	9,741181	2020-10-13T23:11:08:768
-0,241675	0,390030	9,717253	2020-10-13T23:11:08:786
-0,256032	0,344566	9,748360	2020-10-13T23:11:08:809
-0,291924	0,311067	9,734003	2020-10-13T23:11:08:827
-0,265603	0,277567	9,734003	2020-10-13T23:11:08:848
-0,229711	0,327817	9,702895	2020-10-13T23:11:08:867
-0,294317	0,334995	9,781858	2020-10-13T23:11:08:889
-0,220140	0,380459	9,705289	2020-10-13T23:11:08:906
-0,224925	0,330210	9,738789	2020-10-13T23:11:08:929
-0,253639	0,282353	9,729217	2020-10-13T23:11:08:947
-0,248854	0,267996	9,734003	2020-10-13T23:11:08:968
-0,239282	0,289532	9,712467	2020-10-13T23:11:08:988
-0,198604	0,301496	9,678967	2020-10-13T23:11:09:009
-0,227318	0,378066	9,741181	2020-10-13T23:11:09:026
-0,210568	0,294317	9,760324	2020-10-13T23:11:09:048
-0,239282	0,378066	9,753145	2020-10-13T23:11:09:066
-0,215354	0,332602	9,791430	2020-10-13T23:11:09:088
-0,258425	0,339781	9,777073	2020-10-13T23:11:09:106
-0,236889	0,299103	9,765109	2020-10-13T23:11:09:128
-0,258425	0,325424	9,667004	2020-10-13T23:11:09:147
-0,241675	0,325424	9,753145	2020-10-13T23:11:09:168
-0,287139	0,401994	9,722038	2020-10-13T23:11:09:188
-0,311067	0,284746	9,781858	2020-10-13T23:11:09:208
-0,253639	0,356531	9,714860	2020-10-13T23:11:09:227
-0,277567	0,356531	9,681360	2020-10-13T23:11:09:248
-0,277567	0,325424	9,736395	2020-10-13T23:11:09:267
-0,229711	0,346959	9,734003	2020-10-13T23:11:09:289
-0,256032	0,212961	9,688539	2020-10-13T23:11:09:306
-0,272782	0,248854	9,731609	2020-10-13T23:11:09:329
-0,191426	0,287139	9,707682	2020-10-13T23:11:09:348
-0,311067	0,416351	9,707682	2020-10-13T23:11:09:369
-0,220140	0,346959	9,714860	2020-10-13T23:11:09:388
-0,184247	0,320638	9,743573	2020-10-13T23:11:09:409
-0,306281	0,289532	9,693325	2020-10-13T23:11:09:429
-0,265603	0,358923	9,741181	2020-10-13T23:11:09:448
-0,272782	0,301496	9,824929	2020-10-13T23:11:09:467
-0,246461	0,320638	9,722038	2020-10-13T23:11:09:489
-0,270389	0,311067	9,745967	2020-10-13T23:11:09:507
-0,193819	0,406780	9,748360	2020-10-13T23:11:09:530
-0,205783	0,334995	9,738789	2020-10-13T23:11:09:548
-0,258425	0,248854	9,743573	2020-10-13T23:11:09:568
-0,251246	0,308674	9,805787	2020-10-13T23:11:09:588
-0,246461	0,337388	9,724431	2020-10-13T23:11:09:608
-0,287139	0,342174	9,726824	2020-10-13T23:11:09:627
-0,172283	0,385244	9,798609	2020-10-13T23:11:09:649
-0,270389	0,385244	9,779467	2020-10-13T23:11:09:668
-0,241675	0,287139	9,707682	2020-10-13T23:11:09:689
-0,265603	0,344566	9,724431	2020-10-13T23:11:09:707
-0,287139	0,282353	9,676575	2020-10-13T23:11:09:730
-0,232104	0,366102	9,765109	2020-10-13T23:11:09:748
-0,229711	0,315853	9,726824	2020-10-13T23:11:09:769
-0,277567	0,282353	9,729217	2020-10-13T23:11:09:788
-0,244068	0,277567	9,743573	2020-10-13T23:11:09:809
-0,236889	0,330210	9,729217	2020-10-13T23:11:09:828
-0,241675	0,351745	9,738789	2020-10-13T23:11:09:849
-0,244068	0,325424	9,741181	2020-10-13T23:11:09:867
-0,229711	0,272782	9,724431	2020-10-13T23:11:09:890
-0,208176	0,313460	9,712467	2020-10-13T23:11:09:908
-0,239282	0,346959	9,750752	2020-10-13T23:11:09:930
-0,258425	0,299103	9,729217	2020-10-13T23:11:09:947
-0,244068	0,339781	9,729217	2020-10-13T23:11:09:969
-0,313460	0,320638	9,738789	2020-10-13T23:11:09:987
-0,270389	0,325424	9,753145	2020-10-13T23:11:10:009
-0,308674	0,349352	9,717253	2020-10-13T23:11:10:028
-0,217747	0,311067	9,750752	2020-10-13T23:11:10:049
-0,215354	0,337388	9,729217	2020-10-13T23:11:10:068
-0,244068	0,315853	9,717253	2020-10-13T23:11:10:089
-0,270389	0,363709	9,731609	2020-10-13T23:11:10:107
-0,217747	0,263210	9,712467	2020-10-13T23:11:10:130
-0,291924	0,248854	9,700503	2020-10-13T23:11:10:148
-0,270389	0,308674	9,774680	2020-10-13T23:11:10:169
-0,265603	0,339781	9,736395	2020-10-13T23:11:10:188
-0,212961	0,299103	9,736395	2020-10-13T23:11:10:209
-0,232104	0,349352	9,702895	2020-10-13T23:11:10:228
-0,227318	0,334995	9,736395	2020-10-13T23:11:10:249
-0,241675	0,390030	9,719646	2020-10-13T23:11:10:267
-0,282353	0,361316	9,743573	2020-10-13T23:11:10:289
-0,232104	0,275175	9,722038	2020-10-13T23:11:10:308
-0,270389	0,351745	9,769895	2020-10-13T23:11:10:329
-0,287139	0,349352	9,710074	2020-10-13T23:11:10:347
-0,275175	0,375673	9,779467	2020-10-13T23:11:10:369
-0,232104	0,375673	9,738789	2020-10-13T23:11:10:389
-0,313460	0,303888	9,729217	2020-10-13T23:11:10:409
-0,256032	0,301496	9,726824	2020-10-13T23:11:10:428
-0,277567	0,272782	9,745967	2020-10-13T23:11:10:449
-0,251246	0,287139	9,738789	2020-10-13T23:11:10:469
-0,267996	0,351745	9,767502	2020-10-13T23:11:10:489
-0,189033	0,320638	9,698111	2020-10-13T23:11:10:509
-0,265603	0,339781	9,748360	2020-10-13T23:11:10:530
-0,229711	0,344566	9,662218	2020-10-13T23:11:10:548
-0,270389	0,325424	9,784252	2020-10-13T23:11:10:569
-0,260818	0,378066	9,712467	2020-10-13T23:11:10:589
-0,251246	0,332602	9,719646	2020-10-13T23:11:10:610
-0,251246	0,284746	9,801002	2020-10-13T23:11:10:629
-0,227318	0,294317	9,736395	2020-10-13T23:11:10:649
-0,267996	0,265603	9,738789	2020-10-13T23:11:10:669
-0,174676	0,346959	9,765109	2020-10-13T23:11:10:691
-0,308674	0,303888	9,695717	2020-10-13T23:11:10:707
-0,248854	0,301496	9,734003	2020-10-13T23:11:10:730
-0,232104	0,267996	9,755538	2020-10-13T23:11:10:748
-0,260818	0,301496	9,743573	2020-10-13T23:11:10:769
-0,270389	0,311067	9,741181	2020-10-13T23:11:10:789
-0,248854	0,320638	9,748360	2020-10-13T23:11:10:809
-0,241675	0,346959	9,743573	2020-10-13T23:11:10:829
-0,244068	0,332602	9,779467	2020-10-13T23:11:10:849
-0,203390	0,236889	9,755538	2020-10-13T23:11:10:869
-0,224925	0,327817	9,748360	2020-10-13T23:11:10:890
-0,184247	0,342174	9,722038	2020-10-13T23:11:10:908
-0,253639	0,320638	9,765109	2020-10-13T23:11:10:930
-0,253639	0,241675	9,779467	2020-10-13T23:11:10:948
-0,236889	0,318245	9,743573	2020-10-13T23:11:10:970
-0,263210	0,284746	9,722038	2020-10-13T23:11:10:990
-0,299103	0,303888	9,712467	2020-10-13T23:11:11:009
-0,241675	0,303888	9,736395	2020-10-13T23:11:11:029
-0,351745	0,332602	9,774680	2020-10-13T23:11:11:049
-0,191426	0,346959	9,736395	2020-10-13T23:11:11:068
-0,251246	0,368495	9,722038	2020-10-13T23:11:11:092
-0,296710	0,265603	9,714860	2020-10-13T23:11:11:110
-0,265603	0,270389	9,731609	2020-10-13T23:11:11:130
-0,260818	0,301496	9,722038	2020-10-13T23:11:11:149
-0,289532	0,301496	9,717253	2020-10-13T23:11:11:170
-0,303888	0,332602	9,757930	2020-10-13T23:11:11:189
-0,253639	0,368495	9,760324	2020-10-13T23:11:11:211
-0,256032	0,296710	9,693325	2020-10-13T23:11:11:229
-0,284746	0,327817	9,734003	2020-10-13T23:11:11:250
-0,291924	0,325424	9,722038	2020-10-13T23:11:11:269
-0,287139	0,323031	9,738789	2020-10-13T23:11:11:290
-0,270389	0,346959	9,753145	2020-10-13T23:11:11:309
-0,253639	0,358923	9,755538	2020-10-13T23:11:11:331
-0,272782	0,370888	9,719646	2020-10-13T23:11:11:351
-0,179462	0,356531	9,784252	2020-10-13T23:11:11:370
-0,263210	0,299103	9,753145	2020-10-13T23:11:11:389
-0,150748	0,277567	9,745967	2020-10-13T23:11:11:410
-0,303888	0,320638	9,786645	2020-10-13T23:11:11:430
-0,303888	0,358923	9,748360	2020-10-13T23:11:11:451
-0,279960	0,346959	9,812965	2020-10-13T23:11:11:469
-0,270389	0,344566	9,734003	2020-10-13T23:11:11:491
-0,239282	0,313460	9,693325	2020-10-13T23:11:11:509
-0,229711	0,291924	9,676575	2020-10-13T23:11:11:531
-0,260818	0,390030	9,748360	2020-10-13T23:11:11:624
-0,277567	0,334995	9,738789	2020-10-13T23:11:11:637
-0,287139	0,263210	9,765109	2020-10-13T23:11:11:659
-0,267996	0,373280	9,731609	2020-10-13T23:11:11:659
-0,299103	0,291924	9,717253	2020-10-13T23:11:11:660
-0,284746	0,433101	9,736395	2020-10-13T23:11:11:663
-0,181855	0,356531	9,702895	2020-10-13T23:11:11:673
-0,232104	0,390030	9,784252	2020-10-13T23:11:11:690
-0,265603	0,306281	9,750752	2020-10-13T23:11:11:712
-0,289532	0,346959	9,750752	2020-10-13T23:11:11:731
-0,239282	0,315853	9,717253	2020-10-13T23:11:11:748
-0,200997	0,270389	9,741181	2020-10-13T23:11:11:771
-0,251246	0,277567	9,750752	2020-10-13T23:11:11:789
-0,267996	0,346959	9,671788	2020-10-13T23:11:11:811
-0,241675	0,368495	9,738789	2020-10-13T23:11:11:830
-0,265603	0,299103	9,719646	2020-10-13T23:11:11:851
-0,179462	0,323031	9,702895	2020-10-13T23:11:11:869
-0,229711	0,258425	9,743573	2020-10-13T23:11:11:891
-0,282353	0,306281	9,729217	2020-10-13T23:11:11:909
-0,220140	0,311067	9,712467	2020-10-13T23:11:11:931
-0,308674	0,323031	9,690931	2020-10-13T23:11:11:949
-0,227318	0,246461	9,750752	2020-10-13T23:11:11:971
-0,251246	0,306281	9,789038	2020-10-13T23:11:11:989
-0,289532	0,320638	9,726824	2020-10-13T23:11:12:011
-0,241675	0,363709	9,722038	2020-10-13T23:11:12:031
-0,267996	0,330210	9,688539	2020-10-13T23:11:12:052
-0,258425	0,320638	9,712467	2020-10-13T23:11:12:070
-0,248854	0,332602	9,743573	2020-10-13T23:11:12:091
-0,205783	0,368495	9,769895	2020-10-13T23:11:12:110
-0,234497	0,330210	9,789038	2020-10-13T23:11:12:140
-0,248854	0,330210	9,731609	2020-10-13T23:11:12:182
-0,167498	0,356531	9,762716	2020-10-13T23:11:12:183
-0,232104	0,303888	9,695717	2020-10-13T23:11:12:212
-0,282353	0,366102	9,729217	2020-10-13T23:11:12:213
-0,291924	0,339781	9,748360	2020-10-13T23:11:12:232
-0,210568	0,308674	9,738789	2020-10-13T23:11:12:252
-0,272782	0,323031	9,693325	2020-10-13T23:11:12:269
-0,244068	0,332602	9,745967	2020-10-13T23:11:12:291
-0,208176	0,325424	9,753145	2020-10-13T23:11:12:311
-0,265603	0,337388	9,765109	2020-10-13T23:11:12:331
-0,275175	0,241675	9,702895	2020-10-13T23:11:12:349
-0,210568	0,296710	9,750752	2020-10-13T23:11:12:372
-0,270389	0,291924	9,736395	2020-10-13T23:11:12:389
-0,306281	0,385244	9,695717	2020-10-13T23:11:12:411
-0,270389	0,337388	9,688539	2020-10-13T23:11:12:430
-0,299103	0,334995	9,741181	2020-10-13T23:11:12:451
-0,320638	0,291924	9,712467	2020-10-13T23:11:12:470
-0,265603	0,382852	9,772287	2020-10-13T23:11:12:491
-0,244068	0,301496	9,745967	2020-10-13T23:11:12:510
-0,248854	0,404387	9,729217	2020-10-13T23:11:12:532
-0,313460	0,351745	9,801002	2020-10-13T23:11:12:552
-0,239282	0,344566	9,702895	2020-10-13T23:11:12:571
-0,282353	0,260818	9,686146	2020-10-13T23:11:12:590
-0,256032	0,323031	9,734003	2020-10-13T23:11:12:611
-0,222532	0,303888	9,774680	2020-10-13T23:11:12:630
-0,236889	0,356531	9,741181	2020-10-13T23:11:12:652
-0,311067	0,354138	9,724431	2020-10-13T23:11:12:670
-0,263210	0,337388	9,755538	2020-10-13T23:11:12:691
-0,162712	0,437887	9,755538	2020-10-13T23:11:12:710
-0,308674	0,380459	9,757930	2020-10-13T23:11:12:732
-0,277567	0,323031	9,762716	2020-10-13T23:11:12:751
-0,291924	0,323031	9,738789	2020-10-13T23:11:12:773
-0,239282	0,263210	9,707682	2020-10-13T23:11:12:791
-0,253639	0,313460	9,769895	2020-10-13T23:11:12:812
-0,234497	0,361316	9,767502	2020-10-13T23:11:12:830
-0,299103	0,351745	9,734003	2020-10-13T23:11:12:852
-0,334995	0,344566	9,779467	2020-10-13T23:11:12:869
-0,241675	0,349352	9,724431	2020-10-13T23:11:12:893
-0,217747	0,370888	9,741181	2020-10-13T23:11:12:910
-0,248854	0,354138	9,686146	2020-10-13T23:11:12:933
-0,241675	0,349352	9,729217	2020-10-13T23:11:12:950
-0,234497	0,363709	9,705289	2020-10-13T23:11:12:972
-0,234497	0,318245	9,738789	2020-10-13T23:11:12:991
-0,174676	0,382852	9,702895	2020-10-13T23:11:13:012
-0,258425	0,303888	9,681360	2020-10-13T23:11:13:031
-0,229711	0,289532	9,748360	2020-10-13T23:11:13:052
-0,258425	0,323031	9,774680	2020-10-13T23:11:13:070
-0,303888	0,349352	9,774680	2020-10-13T23:11:13:092
-0,229711	0,394816	9,719646	2020-10-13T23:11:13:110
-0,251246	0,375673	9,779467	2020-10-13T23:11:13:134
-0,253639	0,296710	9,757930	2020-10-13T23:11:13:150
-0,236889	0,334995	9,724431	2020-10-13T23:11:13:172
-0,260818	0,311067	9,734003	2020-10-13T23:11:13:191
-0,265603	0,337388	9,734003	2020-10-13T23:11:13:212
-0,279960	0,339781	9,777073	2020-10-13T23:11:13:231
-0,270389	0,287139	9,777073	2020-10-13T23:11:13:252
-0,220140	0,318245	9,734003	2020-10-13T23:11:13:271
-0,315853	0,351745	9,707682	2020-10-13T23:11:13:292
-0,241675	0,289532	9,676575	2020-10-13T23:11:13:311
-0,282353	0,366102	9,769895	2020-10-13T23:11:13:333
-0,256032	0,229711	9,719646	2020-10-13T23:11:13:350
-0,260818	0,358923	9,774680	2020-10-13T23:11:13:373
-0,279960	0,325424	9,719646	2020-10-13T23:11:13:390
-0,220140	0,256032	9,777073	2020-10-13T23:11:13:412
-0,244068	0,334995	9,698111	2020-10-13T23:11:13:431
-0,287139	0,277567	9,705289	2020-10-13T23:11:13:452
-0,279960	0,318245	9,741181	2020-10-13T23:11:13:471
-0,229711	0,332602	9,700503	2020-10-13T23:11:13:493
-0,236889	0,320638	9,724431	2020-10-13T23:11:13:511
-0,203390	0,325424	9,690931	2020-10-13T23:11:13:533
-0,253639	0,315853	9,743573	2020-10-13T23:11:13:551
-0,272782	0,282353	9,750752	2020-10-13T23:11:13:572
-0,277567	0,313460	9,750752	2020-10-13T23:11:13:591
-0,294317	0,303888	9,731609	2020-10-13T23:11:13:613
-0,277567	0,251246	9,755538	2020-10-13T23:11:13:632
-0,267996	0,327817	9,698111	2020-10-13T23:11:13:652
-0,246461	0,327817	9,750752	2020-10-13T23:11:13:671
-0,287139	0,387637	9,724431	2020-10-13T23:11:13:692
-0,260818	0,339781	9,705289	2020-10-13T23:11:13:711
-0,258425	0,330210	9,741181	2020-10-13T23:11:13:733
-0,263210	0,380459	9,777073	2020-10-13T23:11:13:751
-0,251246	0,325424	9,762716	2020-10-13T23:11:13:772
-0,258425	0,325424	9,772287	2020-10-13T23:11:13:791
-0,272782	0,289532	9,767502	2020-10-13T23:11:13:813
-0,248854	0,272782	9,762716	2020-10-13T23:11:13:831
-0,253639	0,275175	9,743573	2020-10-13T23:11:13:854
-0,272782	0,325424	9,741181	2020-10-13T23:11:13:871
-0,251246	0,272782	9,750752	2020-10-13T23:11:13:893
-0,232104	0,289532	9,698111	2020-10-13T23:11:13:912
-0,220140	0,351745	9,741181	2020-10-13T23:11:13:933
-0,236889	0,366102	9,741181	2020-10-13T23:11:13:951
-0,203390	0,291924	9,724431	2020-10-13T23:11:13:973
-0,193819	0,346959	9,767502	2020-10-13T23:11:13:992
-0,241675	0,354138	9,695717	2020-10-13T23:11:14:013
-0,239282	0,306281	9,745967	2020-10-13T23:11:14:032
-0,346959	0,217747	9,789038	2020-10-13T23:11:14:053
-0,212961	0,251246	9,738789	2020-10-13T23:11:14:071
-0,256032	0,315853	9,700503	2020-10-13T23:11:14:093
-0,229711	0,334995	9,734003	2020-10-13T23:11:14:112
-0,258425	0,356531	9,705289	2020-10-13T23:11:14:134
-0,203390	0,260818	9,750752	2020-10-13T23:11:14:151
-0,222532	0,342174	9,777073	2020-10-13T23:11:14:173
-0,287139	0,320638	9,745967	2020-10-13T23:11:14:192
-0,248854	0,313460	9,726824	2020-10-13T23:11:14:213
-0,236889	0,227318	9,748360	2020-10-13T23:11:14:233
-0,244068	0,270389	9,705289	2020-10-13T23:11:14:253
-0,282353	0,284746	9,729217	2020-10-13T23:11:14:272
-0,263210	0,291924	9,762716	2020-10-13T23:11:14:294
-0,229711	0,363709	9,714860	2020-10-13T23:11:14:312
-0,229711	0,349352	9,681360	2020-10-13T23:11:14:335
-0,287139	0,323031	9,745967	2020-10-13T23:11:14:352
-0,265603	0,334995	9,808180	2020-10-13T23:11:14:373
-0,282353	0,306281	9,678967	2020-10-13T23:11:14:392
-0,246461	0,289532	9,731609	2020-10-13T23:11:14:413
-0,306281	0,239282	9,726824	2020-10-13T23:11:14:432
-0,287139	0,258425	9,765109	2020-10-13T23:11:14:453
-0,277567	0,346959	9,750752	2020-10-13T23:11:14:473
-0,239282	0,313460	9,757930	2020-10-13T23:11:14:493
-0,239282	0,311067	9,724431	2020-10-13T23:11:14:513
-0,289532	0,337388	9,729217	2020-10-13T23:11:14:535
-0,244068	0,327817	9,772287	2020-10-13T23:11:14:552
-0,308674	0,289532	9,753145	2020-10-13T23:11:14:574
-0,241675	0,234497	9,750752	2020-10-13T23:11:14:592
-0,241675	0,325424	9,731609	2020-10-13T23:11:14:613
-0,212961	0,356531	9,741181	2020-10-13T23:11:14:632
-0,265603	0,248854	9,729217	2020-10-13T23:11:14:653
-0,205783	0,323031	9,745967	2020-10-13T23:11:14:673
-0,258425	0,294317	9,705289	2020-10-13T23:11:14:694
-0,236889	0,339781	9,719646	2020-10-13T23:11:14:716
-0,239282	0,325424	9,755538	2020-10-13T23:11:14:733
-0,308674	0,320638	9,767502	2020-10-13T23:11:14:752
-0,229711	0,291924	9,686146	2020-10-13T23:11:14:773
-0,253639	0,363709	9,724431	2020-10-13T23:11:14:793
-0,248854	0,327817	9,769895	2020-10-13T23:11:14:814
-0,291924	0,306281	9,769895	2020-10-13T23:11:14:833
-0,256032	0,320638	9,786645	2020-10-13T23:11:14:854
-0,327817	0,308674	9,757930	2020-10-13T23:11:14:872
-0,253639	0,289532	9,750752	2020-10-13T23:11:14:894
-0,308674	0,275175	9,774680	2020-10-13T23:11:14:913
-0,263210	0,289532	9,803394	2020-10-13T23:11:14:936
-0,227318	0,318245	9,753145	2020-10-13T23:11:14:954
-0,253639	0,325424	9,738789	2020-10-13T23:11:14:973
-0,198604	0,267996	9,734003	2020-10-13T23:11:14:993
-0,253639	0,284746	9,726824	2020-10-13T23:11:15:014
-0,256032	0,344566	9,686146	2020-10-13T23:11:15:032
-0,306281	0,287139	9,734003	2020-10-13T23:11:15:054
-0,265603	0,368495	9,647861	2020-10-13T23:11:15:072
-0,239282	0,263210	9,712467	2020-10-13T23:11:15:095
-0,248854	0,258425	9,750752	2020-10-13T23:11:15:112
-0,277567	0,289532	9,781858	2020-10-13T23:11:15:134
-0,289532	0,303888	9,705289	2020-10-13T23:11:15:152
-0,279960	0,303888	9,712467	2020-10-13T23:11:15:174
-0,263210	0,253639	9,750752	2020-10-13T23:11:15:193
-0,325424	0,325424	9,750752	2020-10-13T23:11:15:213
-0,325424	0,363709	9,724431	2020-10-13T23:11:15:233
-0,229711	0,339781	9,726824	2020-10-13T23:11:15:254
-0,244068	0,306281	9,722038	2020-10-13T23:11:15:272
-0,251246	0,275175	9,726824	2020-10-13T23:11:15:294
-0,265603	0,289532	9,717253	2020-10-13T23:11:15:312
-0,267996	0,303888	9,774680	2020-10-13T23:11:15:334
-0,277567	0,337388	9,695717	2020-10-13T23:11:15:352
-0,251246	0,354138	9,750752	2020-10-13T23:11:15:374
-0,308674	0,299103	9,774680	2020-10-13T23:11:15:393
-0,284746	0,301496	9,765109	2020-10-13T23:11:15:414
-0,253639	0,294317	9,767502	2020-10-13T23:11:15:434
-0,258425	0,256032	9,722038	2020-10-13T23:11:15:453
-0,260818	0,291924	9,736395	2020-10-13T23:11:15:473
-0,244068	0,306281	9,717253	2020-10-13T23:11:15:494
-0,205783	0,354138	9,757930	2020-10-13T23:11:15:512
-0,251246	0,325424	9,769895	2020-10-13T23:11:15:535
-0,294317	0,291924	9,743573	2020-10-13T23:11:15:552
-0,215354	0,327817	9,777073	2020-10-13T23:11:15:574
-0,279960	0,241675	9,741181	2020-10-13T23:11:15:593
-0,284746	0,296710	9,726824	2020-10-13T23:11:15:614
-0,260818	0,366102	9,736395	2020-10-13T23:11:15:633
-0,291924	0,363709	9,789038	2020-10-13T23:11:15:654
-0,251246	0,325424	9,748360	2020-10-13T23:11:15:674
-0,279960	0,315853	9,674182	2020-10-13T23:11:15:694
-0,289532	0,287139	9,734003	2020-10-13T23:11:15:713
-0,232104	0,315853	9,757930	2020-10-13T23:11:15:735
-0,246461	0,299103	9,779467	2020-10-13T23:11:15:753
-0,246461	0,294317	9,695717	2020-10-13T23:11:15:774
-0,279960	0,279960	9,724431	2020-10-13T23:11:15:793
-0,203390	0,279960	9,743573	2020-10-13T23:11:15:814
-0,294317	0,263210	9,702895	2020-10-13T23:11:15:833
-0,311067	0,337388	9,736395	2020-10-13T23:11:15:854
-0,258425	0,308674	9,741181	2020-10-13T23:11:15:873
-0,224925	0,313460	9,702895	2020-10-13T23:11:15:895
-0,229711	0,306281	9,736395	2020-10-13T23:11:15:915
-0,287139	0,303888	9,745967	2020-10-13T23:11:15:936
-0,311067	0,368495	9,717253	2020-10-13T23:11:15:953
-0,256032	0,318245	9,743573	2020-10-13T23:11:15:975
-0,248854	0,311067	9,698111	2020-10-13T23:11:15:994
-0,246461	0,279960	9,753145	2020-10-13T23:11:16:015
-0,279960	0,270389	9,762716	2020-10-13T23:11:16:035
-0,284746	0,315853	9,741181	2020-10-13T23:11:16:055
-0,265603	0,277567	9,722038	2020-10-13T23:11:16:074
-0,239282	0,320638	9,710074	2020-10-13T23:11:16:095
-0,287139	0,320638	9,803394	2020-10-13T23:11:16:113
-0,282353	0,334995	9,798609	2020-10-13T23:11:16:136
-0,267996	0,279960	9,705289	2020-10-13T23:11:16:155
-0,272782	0,270389	9,777073	2020-10-13T23:11:16:174
-0,200997	0,272782	9,736395	2020-10-13T23:11:16:194
-0,287139	0,373280	9,755538	2020-10-13T23:11:16:215
-0,299103	0,232104	9,774680	2020-10-13T23:11:16:233
-0,241675	0,265603	9,743573	2020-10-13T23:11:16:255
-0,239282	0,260818	9,796216	2020-10-13T23:11:16:273
-0,241675	0,265603	9,753145	2020-10-13T23:11:16:295
-0,291924	0,349352	9,745967	2020-10-13T23:11:16:314
-0,227318	0,334995	9,736395	2020-10-13T23:11:16:335
-0,320638	0,423530	9,745967	2020-10-13T23:11:16:353
-0,234497	0,277567	9,812965	2020-10-13T23:11:16:376
-0,284746	0,311067	9,724431	2020-10-13T23:11:16:394
-0,289532	0,294317	9,705289	2020-10-13T23:11:16:415
-0,306281	0,279960	9,805787	2020-10-13T23:11:16:435
-0,284746	0,265603	9,750752	2020-10-13T23:11:16:455
-0,282353	0,275175	9,750752	2020-10-13T23:11:16:473
-0,275175	0,282353	9,688539	2020-10-13T23:11:16:495
-0,279960	0,387637	9,757930	2020-10-13T23:11:16:513
-0,272782	0,346959	9,738789	2020-10-13T23:11:16:536
-0,248854	0,404387	9,774680	2020-10-13T23:11:16:554
-0,315853	0,294317	9,726824	2020-10-13T23:11:16:575
-0,291924	0,253639	9,700503	2020-10-13T23:11:16:594
-0,205783	0,224925	9,736395	2020-10-13T23:11:16:616
-0,327817	0,258425	9,734003	2020-10-13T23:11:16:635
-0,222532	0,296710	9,755538	2020-10-13T23:11:16:655
-0,303888	0,287139	9,745967	2020-10-13T23:11:16:674
-0,296710	0,224925	9,688539	2020-10-13T23:11:16:696
-0,260818	0,275175	9,736395	2020-10-13T23:11:16:714
-0,315853	0,301496	9,738789	2020-10-13T23:11:16:736
-0,275175	0,339781	9,753145	2020-10-13T23:11:16:754
-0,291924	0,296710	9,700503	2020-10-13T23:11:16:775
-0,291924	0,294317	9,710074	2020-10-13T23:11:16:794
-0,217747	0,291924	9,812965	2020-10-13T23:11:16:816
-0,241675	0,272782	9,719646	2020-10-13T23:11:16:834
-0,279960	0,291924	9,772287	2020-10-13T23:11:16:856
-0,272782	0,323031	9,779467	2020-10-13T23:11:16:876
-0,279960	0,270389	9,755538	2020-10-13T23:11:16:896
-0,246461	0,330210	9,757930	2020-10-13T23:11:16:914
-0,260818	0,284746	9,678967	2020-10-13T23:11:16:936
-0,246461	0,277567	9,743573	2020-10-13T23:11:16:955
-0,265603	0,260818	9,729217	2020-10-13T23:11:16:976
-0,270389	0,301496	9,738789	2020-10-13T23:11:16:995
-0,263210	0,275175	9,789038	2020-10-13T23:11:17:016
-0,277567	0,291924	9,760324	2020-10-13T23:11:17:035
-0,267996	0,315853	9,717253	2020-10-13T23:11:17:055
-0,244068	0,205783	9,767502	2020-10-13T23:11:17:074
-0,275175	0,236889	9,745967	2020-10-13T23:11:17:096
-0,260818	0,272782	9,714860	2020-10-13T23:11:17:115
-0,248854	0,311067	9,765109	2020-10-13T23:11:17:136
-0,303888	0,246461	9,722038	2020-10-13T23:11:17:154
-0,248854	0,287139	9,786645	2020-10-13T23:11:17:176
-0,253639	0,239282	9,784252	2020-10-13T23:11:17:194
-0,258425	0,287139	9,760324	2020-10-13T23:11:17:216
-0,244068	0,260818	9,755538	2020-10-13T23:11:17:236
-0,260818	0,272782	9,688539	2020-10-13T23:11:17:259
-0,289532	0,334995	9,750752	2020-10-13T23:11:17:275
-0,246461	0,263210	9,748360	2020-10-13T23:11:17:296
-0,220140	0,311067	9,724431	2020-10-13T23:11:17:316
-0,215354	0,251246	9,741181	2020-10-13T23:11:17:337
-0,220140	0,306281	9,724431	2020-10-13T23:11:17:355
-0,200997	0,385244	9,791430	2020-10-13T23:11:17:376
-0,248854	0,253639	9,767502	2020-10-13T23:11:17:395
-0,251246	0,232104	9,762716	2020-10-13T23:11:17:416
-0,239282	0,248854	9,698111	2020-10-13T23:11:17:435
-0,232104	0,253639	9,755538	2020-10-13T23:11:17:456
-0,241675	0,232104	9,760324	2020-10-13T23:11:17:476
-0,217747	0,289532	9,769895	2020-10-13T23:11:17:496
-0,232104	0,289532	9,722038	2020-10-13T23:11:17:515
-0,253639	0,320638	9,686146	2020-10-13T23:11:17:536
-0,222532	0,222532	9,722038	2020-10-13T23:11:17:555
-0,248854	0,299103	9,753145	2020-10-13T23:11:17:577
-0,270389	0,193819	9,712467	2020-10-13T23:11:17:596
-0,193819	0,256032	9,786645	2020-10-13T23:11:17:616
-0,258425	0,256032	9,736395	2020-10-13T23:11:17:636
-0,244068	0,277567	9,734003	2020-10-13T23:11:17:656
-0,234497	0,236889	9,777073	2020-10-13T23:11:17:674
-0,208176	0,208176	9,734003	2020-10-13T23:11:17:697
-0,263210	0,291924	9,729217	2020-10-13T23:11:17:714
-0,253639	0,287139	9,734003	2020-10-13T23:11:17:738
-0,251246	0,265603	9,705289	2020-10-13T23:11:17:755
-0,263210	0,330210	9,717253	2020-10-13T23:11:17:777
-0,323031	0,315853	9,686146	2020-10-13T23:11:17:795
-0,232104	0,256032	9,753145	2020-10-13T23:11:17:817
-0,253639	0,263210	9,760324	2020-10-13T23:11:17:837
-0,234497	0,186640	9,812965	2020-10-13T23:11:17:856
-0,323031	0,246461	9,745967	2020-10-13T23:11:17:876
-0,277567	0,248854	9,726824	2020-10-13T23:11:17:897
-0,222532	0,289532	9,722038	2020-10-13T23:11:17:916
-0,260818	0,256032	9,774680	2020-10-13T23:11:17:937
-0,289532	0,256032	9,741181	2020-10-13T23:11:17:957
-0,224925	0,236889	9,745967	2020-10-13T23:11:17:977
-0,291924	0,282353	9,748360	2020-10-13T23:11:17:996
-0,244068	0,246461	9,750752	2020-10-13T23:11:18:017
-0,256032	0,270389	9,710074	2020-10-13T23:11:18:037
-0,253639	0,275175	9,734003	2020-10-13T23:11:18:058
-0,246461	0,260818	9,731609	2020-10-13T23:11:18:078
-0,294317	0,256032	9,724431	2020-10-13T23:11:18:099
-0,287139	0,234497	9,769895	2020-10-13T23:11:18:116
-0,203390	0,334995	9,750752	2020-10-13T23:11:18:137
-0,291924	0,246461	9,707682	2020-10-13T23:11:18:156
-0,200997	0,260818	9,774680	2020-10-13T23:11:18:177
-0,260818	0,222532	9,736395	2020-10-13T23:11:18:197
-0,260818	0,217747	9,712467	2020-10-13T23:11:18:217
-0,308674	0,205783	9,757930	2020-10-13T23:11:18:236
-0,282353	0,263210	9,755538	2020-10-13T23:11:18:257
-0,212961	0,236889	9,724431	2020-10-13T23:11:18:276
-0,236889	0,294317	9,745967	2020-10-13T23:11:18:297
-0,263210	0,241675	9,779467	2020-10-13T23:11:18:316
-0,232104	0,284746	9,817751	2020-10-13T23:11:18:337
-0,256032	0,282353	9,710074	2020-10-13T23:11:18:356
-0,260818	0,246461	9,774680	2020-10-13T23:11:18:377
-0,210568	0,272782	9,726824	2020-10-13T23:11:18:396
-0,263210	0,270389	9,731609	2020-10-13T23:11:18:418
-0,246461	0,241675	9,769895	2020-10-13T23:11:18:436
-0,279960	0,253639	9,755538	2020-10-13T23:11:18:457
-0,212961	0,210568	9,743573	2020-10-13T23:11:18:476
-0,260818	0,299103	9,750752	2020-10-13T23:11:18:497
-0,227318	0,282353	9,786645	2020-10-13T23:11:18:516
-0,318245	0,263210	9,734003	2020-10-13T23:11:18:538
-0,320638	0,224925	9,695717	2020-10-13T23:11:18:556
-0,270389	0,253639	9,734003	2020-10-13T23:11:18:577
-0,234497	0,239282	9,793823	2020-10-13T23:11:18:596
-0,263210	0,248854	9,748360	2020-10-13T23:11:18:617
-0,222532	0,253639	9,755538	2020-10-13T23:11:18:636
-0,232104	0,282353	9,743573	2020-10-13T23:11:18:657
-0,217747	0,205783	9,774680	2020-10-13T23:11:18:676
-0,256032	0,224925	9,745967	2020-10-13T23:11:18:697
-0,222532	0,253639	9,734003	2020-10-13T23:11:18:716
-0,277567	0,263210	9,745967	2020-10-13T23:11:18:738
-0,229711	0,241675	9,714860	2020-10-13T23:11:18:756
-0,215354	0,294317	9,748360	2020-10-13T23:11:18:778
-0,222532	0,208176	9,745967	2020-10-13T23:11:18:797
-0,279960	0,256032	9,767502	2020-10-13T23:11:18:817
-0,279960	0,251246	9,738789	2020-10-13T23:11:18:836
-0,265603	0,299103	9,683753	2020-10-13T23:11:18:858
-0,277567	0,342174	9,745967	2020-10-13T23:11:18:876
-0,370888	0,397209	9,753145	2020-10-13T23:11:18:899
-0,306281	0,251246	9,753145	2020-10-13T23:11:18:916
-0,256032	0,275175	9,741181	2020-10-13T23:11:18:938
-0,203390	0,279960	9,748360	2020-10-13T23:11:18:956
-0,241675	0,279960	9,750752	2020-10-13T23:11:18:977
-0,232104	0,232104	9,729217	2020-10-13T23:11:18:996
-0,217747	0,246461	9,743573	2020-10-13T23:11:19:019
-0,282353	0,186640	9,803394	2020-10-13T23:11:19:037
-0,258425	0,354138	9,719646	2020-10-13T23:11:19:057
-0,275175	0,289532	9,750752	2020-10-13T23:11:19:077
-0,306281	0,229711	9,745967	2020-10-13T23:11:19:097
-0,224925	0,337388	9,827322	2020-10-13T23:11:19:116
-0,189033	0,265603	9,710074	2020-10-13T23:11:19:139
-0,253639	0,344566	9,743573	2020-10-13T23:11:19:157
-0,325424	0,289532	9,736395	2020-10-13T23:11:19:177
-0,234497	0,258425	9,674182	2020-10-13T23:11:19:197
-0,265603	0,299103	9,700503	2020-10-13T23:11:19:218
-0,299103	0,277567	9,817751	2020-10-13T23:11:19:237
-0,279960	0,267996	9,750752	2020-10-13T23:11:19:259
-0,232104	0,256032	9,781858	2020-10-13T23:11:19:278
-0,282353	0,275175	9,724431	2020-10-13T23:11:19:298
-0,301496	0,272782	9,681360	2020-10-13T23:11:19:317
-0,253639	0,291924	9,729217	2020-10-13T23:11:19:338
-0,279960	0,267996	9,745967	2020-10-13T23:11:19:357
-0,289532	0,248854	9,762716	2020-10-13T23:11:19:378
-0,224925	0,241675	9,712467	2020-10-13T23:11:19:396
-0,222532	0,346959	9,726824	2020-10-13T23:11:19:418
-0,260818	0,251246	9,767502	2020-10-13T23:11:19:437
-0,296710	0,287139	9,745967	2020-10-13T23:11:19:458
-0,296710	0,244068	9,796216	2020-10-13T23:11:19:477
-0,277567	0,232104	9,784252	2020-10-13T23:11:19:498
-0,282353	0,272782	9,753145	2020-10-13T23:11:19:518
-0,244068	0,318245	9,815358	2020-10-13T23:11:19:539
-0,284746	0,306281	9,779467	2020-10-13T23:11:19:558
-0,241675	0,253639	9,669396	2020-10-13T23:11:19:578
-0,289532	0,246461	9,791430	2020-10-13T23:11:19:596
-0,253639	0,296710	9,781858	2020-10-13T23:11:19:619
-0,220140	0,191426	9,702895	2020-10-13T23:11:19:637
-0,248854	0,318245	9,700503	2020-10-13T23:11:19:658
-0,294317	0,258425	9,714860	2020-10-13T23:11:19:677
-0,258425	0,358923	9,786645	2020-10-13T23:11:19:699
-0,294317	0,256032	9,779467	2020-10-13T23:11:19:718
-0,296710	0,270389	9,705289	2020-10-13T23:11:19:740
-0,224925	0,263210	9,714860	2020-10-13T23:11:19:758
-0,301496	0,339781	9,774680	2020-10-13T23:11:19:779
-0,251246	0,287139	9,748360	2020-10-13T23:11:19:797
-0,239282	0,210568	9,734003	2020-10-13T23:11:19:819
-0,232104	0,265603	9,767502	2020-10-13T23:11:19:838
-0,291924	0,299103	9,695717	2020-10-13T23:11:19:860
-0,236889	0,301496	9,774680	2020-10-13T23:11:19:877
-0,253639	0,287139	9,798609	2020-10-13T23:11:19:900
-0,239282	0,234497	9,745967	2020-10-13T23:11:19:917
-0,224925	0,332602	9,729217	2020-10-13T23:11:19:940
-0,256032	0,282353	9,755538	2020-10-13T23:11:19:958
-0,236889	0,267996	9,738789	2020-10-13T23:11:19:980
-0,210568	0,303888	9,712467	2020-10-13T23:11:19:999
-0,241675	0,234497	9,722038	2020-10-13T23:11:20:020
-0,275175	0,265603	9,743573	2020-10-13T23:11:20:037
-0,258425	0,277567	9,717253	2020-10-13T23:11:20:059
-0,217747	0,303888	9,738789	2020-10-13T23:11:20:077
-0,244068	0,311067	9,753145	2020-10-13T23:11:20:100
-0,251246	0,248854	9,741181	2020-10-13T23:11:20:117
-0,267996	0,306281	9,750752	2020-10-13T23:11:20:140
-0,267996	0,323031	9,748360	2020-10-13T23:11:20:158
-0,256032	0,244068	9,745967	2020-10-13T23:11:20:180
-0,294317	0,275175	9,741181	2020-10-13T23:11:20:197
-0,334995	0,275175	9,765109	2020-10-13T23:11:20:220
-0,251246	0,244068	9,734003	2020-10-13T23:11:20:238
-0,289532	0,296710	9,726824	2020-10-13T23:11:20:260
-0,267996	0,277567	9,734003	2020-10-13T23:11:20:277
-0,282353	0,251246	9,755538	2020-10-13T23:11:20:299
-0,279960	0,291924	9,748360	2020-10-13T23:11:20:317
-0,279960	0,346959	9,750752	2020-10-13T23:11:20:341
-0,260818	0,282353	9,729217	2020-10-13T23:11:20:357
-0,306281	0,320638	9,767502	2020-10-13T23:11:20:379
-0,222532	0,315853	9,717253	2020-10-13T23:11:20:397
-0,227318	0,270389	9,810574	2020-10-13T23:11:20:421
-0,337388	0,234497	9,805787	2020-10-13T23:11:20:439
-0,263210	0,248854	9,750752	2020-10-13T23:11:20:460
-0,215354	0,306281	9,729217	2020-10-13T23:11:20:480
-0,289532	0,299103	9,757930	2020-10-13T23:11:20:500
-0,239282	0,306281	9,714860	2020-10-13T23:11:20:517
-0,303888	0,275175	9,724431	2020-10-13T23:11:20:541
-0,208176	0,275175	9,717253	2020-10-13T23:11:20:557
-0,267996	0,277567	9,700503	2020-10-13T23:11:20:581
-0,217747	0,370888	9,777073	2020-10-13T23:11:20:598
-0,303888	0,315853	9,731609	2020-10-13T23:11:20:619
-0,275175	0,246461	9,710074	2020-10-13T23:11:20:638
-0,277567	0,210568	9,769895	2020-10-13T23:11:20:660
-0,253639	0,270389	9,774680	2020-10-13T23:11:20:678
-0,193819	0,251246	9,712467	2020-10-13T23:11:20:700
-0,272782	0,275175	9,724431	2020-10-13T23:11:20:718
-0,251246	0,320638	9,734003	2020-10-13T23:11:20:741
-0,234497	0,339781	9,676575	2020-10-13T23:11:20:758
-0,334995	0,358923	9,745967	2020-10-13T23:11:20:779
-0,311067	0,320638	9,731609	2020-10-13T23:11:20:797
-0,303888	0,267996	9,741181	2020-10-13T23:11:20:820
-0,229711	0,332602	9,729217	2020-10-13T23:11:20:838
-0,251246	0,244068	9,755538	2020-10-13T23:11:20:860
-0,217747	0,236889	9,743573	2020-10-13T23:11:20:878
-0,275175	0,282353	9,726824	2020-10-13T23:11:20:901
-0,210568	0,229711	9,762716	2020-10-13T23:11:20:918
-0,260818	0,301496	9,710074	2020-10-13T23:11:20:940
-0,229711	0,284746	9,748360	2020-10-13T23:11:20:960
-0,320638	0,258425	9,743573	2020-10-13T23:11:20:981
-0,241675	0,272782	9,745967	2020-10-13T23:11:20:999
-0,289532	0,287139	9,743573	2020-10-13T23:11:21:020
-0,220140	0,275175	9,765109	2020-10-13T23:11:21:038
-0,270389	0,289532	9,700503	2020-10-13T23:11:21:061
-0,248854	0,277567	9,722038	2020-10-13T23:11:21:079
-0,220140	0,313460	9,712467	2020-10-13T23:11:21:100
-0,289532	0,198604	9,757930	2020-10-13T23:11:21:119
-0,224925	0,260818	9,779467	2020-10-13T23:11:21:141
-0,258425	0,232104	9,700503	2020-10-13T23:11:21:158
-0,260818	0,275175	9,726824	2020-10-13T23:11:21:180
-0,253639	0,267996	9,726824	2020-10-13T23:11:21:201
-0,236889	0,275175	9,762716	2020-10-13T23:11:21:221
-0,267996	0,174676	9,724431	2020-10-13T23:11:21:239
-0,229711	0,258425	9,748360	2020-10-13T23:11:21:260
-0,303888	0,303888	9,726824	2020-10-13T23:11:21:278
-0,256032	0,203390	9,796216	2020-10-13T23:11:21:301
-0,303888	0,263210	9,762716	2020-10-13T23:11:21:318
-0,263210	0,263210	9,738789	2020-10-13T23:11:21:340
-0,256032	0,256032	9,762716	2020-10-13T23:11:21:359
-0,253639	0,287139	9,812965	2020-10-13T23:11:21:382
-0,227318	0,346959	9,748360	2020-10-13T23:11:21:398
-0,222532	0,318245	9,796216	2020-10-13T23:11:21:420
-0,272782	0,260818	9,698111	2020-10-13T23:11:21:440
-0,244068	0,244068	9,717253	2020-10-13T23:11:21:461
-0,251246	0,253639	9,769895	2020-10-13T23:11:21:479
-0,320638	0,256032	9,748360	2020-10-13T23:11:21:500
-0,260818	0,241675	9,714860	2020-10-13T23:11:21:518
-0,282353	0,236889	9,693325	2020-10-13T23:11:21:541
-0,289532	0,253639	9,755538	2020-10-13T23:11:21:558
-0,299103	0,244068	9,705289	2020-10-13T23:11:21:580
-0,289532	0,205783	9,745967	2020-10-13T23:11:21:598
-0,282353	0,265603	9,690931	2020-10-13T23:11:21:621
-0,229711	0,239282	9,707682	2020-10-13T23:11:21:639
-0,253639	0,253639	9,753145	2020-10-13T23:11:21:660
-0,263210	0,272782	9,741181	2020-10-13T23:11:21:679
-0,330210	0,215354	9,774680	2020-10-13T23:11:21:701
-0,256032	0,253639	9,762716	2020-10-13T23:11:21:719
-0,342174	0,208176	9,745967	2020-10-13T23:11:21:741
-0,251246	0,224925	9,745967	2020-10-13T23:11:21:758
-0,282353	0,239282	9,743573	2020-10-13T23:11:21:782
-0,265603	0,339781	9,741181	2020-10-13T23:11:21:799
-0,258425	0,232104	9,767502	2020-10-13T23:11:21:821
-0,215354	0,232104	9,714860	2020-10-13T23:11:21:840
-0,212961	0,270389	9,722038	2020-10-13T23:11:21:861
-0,258425	0,227318	9,731609	2020-10-13T23:11:21:879
-0,260818	0,177069	9,767502	2020-10-13T23:11:21:901
-0,275175	0,258425	9,698111	2020-10-13T23:11:21:920
-0,220140	0,227318	9,710074	2020-10-13T23:11:21:941
-0,200997	0,270389	9,765109	2020-10-13T23:11:21:959
-0,236889	0,258425	9,738789	2020-10-13T23:11:21:981
-0,203390	0,277567	9,695717	2020-10-13T23:11:22:000
-0,301496	0,239282	9,750752	2020-10-13T23:11:22:022
-0,244068	0,222532	9,781858	2020-10-13T23:11:22:039
-0,265603	0,253639	9,755538	2020-10-13T23:11:22:061
-0,251246	0,275175	9,779467	2020-10-13T23:11:22:079
-0,256032	0,299103	9,748360	2020-10-13T23:11:22:102
-0,306281	0,318245	9,724431	2020-10-13T23:11:22:119
-0,318245	0,279960	9,729217	2020-10-13T23:11:22:141
-0,291924	0,294317	9,774680	2020-10-13T23:11:22:160
-0,263210	0,212961	9,760324	2020-10-13T23:11:22:181
-0,258425	0,313460	9,707682	2020-10-13T23:11:22:200
-0,265603	0,224925	9,702895	2020-10-13T23:11:22:221
-0,212961	0,203390	9,698111	2020-10-13T23:11:22:239
-0,256032	0,260818	9,753145	2020-10-13T23:11:22:263
-0,265603	0,284746	9,745967	2020-10-13T23:11:22:279
-0,263210	0,287139	9,745967	2020-10-13T23:11:22:301
-0,265603	0,248854	9,722038	2020-10-13T23:11:22:319
-0,248854	0,265603	9,731609	2020-10-13T23:11:22:342
-0,313460	0,318245	9,714860	2020-10-13T23:11:22:359
-0,291924	0,253639	9,755538	2020-10-13T23:11:22:381
-0,260818	0,256032	9,700503	2020-10-13T23:11:22:400
-0,229711	0,244068	9,719646	2020-10-13T23:11:22:422
-0,224925	0,251246	9,736395	2020-10-13T23:11:22:440
-0,301496	0,203390	9,698111	2020-10-13T23:11:22:461
-0,239282	0,311067	9,779467	2020-10-13T23:11:22:479
-0,294317	0,275175	9,724431	2020-10-13T23:11:22:502
-0,246461	0,287139	9,750752	2020-10-13T23:11:22:519
-0,299103	0,301496	9,671788	2020-10-13T23:11:22:541
-0,220140	0,184247	9,736395	2020-10-13T23:11:22:560
-0,258425	0,294317	9,743573	2020-10-13T23:11:22:582
-0,265603	0,270389	9,678967	2020-10-13T23:11:22:600
-0,258425	0,323031	9,717253	2020-10-13T23:11:22:621
-0,253639	0,258425	9,736395	2020-10-13T23:11:22:643
-0,220140	0,253639	9,722038	2020-10-13T23:11:22:662
-0,222532	0,258425	9,789038	2020-10-13T23:11:22:680
-0,263210	0,232104	9,693325	2020-10-13T23:11:22:701
-0,210568	0,260818	9,736395	2020-10-13T23:11:22:719
-0,203390	0,294317	9,645468	2020-10-13T23:11:22:743
-0,236889	0,306281	9,705289	2020-10-13T23:11:22:760
-0,253639	0,210568	9,731609	2020-10-13T23:11:22:782
-0,239282	0,217747	9,765109	2020-10-13T23:11:22:800
-0,253639	0,208176	9,798609	2020-10-13T23:11:22:823
-0,260818	0,311067	9,743573	2020-10-13T23:11:22:840
-0,279960	0,256032	9,714860	2020-10-13T23:11:22:862
-0,306281	0,224925	9,745967	2020-10-13T23:11:22:881
-0,313460	0,284746	9,719646	2020-10-13T23:11:22:903
-0,241675	0,270389	9,688539	2020-10-13T23:11:22:920
-0,294317	0,260818	9,698111	2020-10-13T23:11:22:942
-0,203390	0,253639	9,781858	2020-10-13T23:11:22:960
-0,227318	0,248854	9,748360	2020-10-13T23:11:22:982
-0,267996	0,296710	9,695717	2020-10-13T23:11:23:001
-0,256032	0,210568	9,757930	2020-10-13T23:11:23:021
-0,267996	0,129212	9,750752	2020-10-13T23:11:23:041
-0,265603	0,179462	9,791430	2020-10-13T23:11:23:063
-0,272782	0,303888	9,777073	2020-10-13T23:11:23:081
-0,289532	0,265603	9,750752	2020-10-13T23:11:23:102
-0,251246	0,162712	9,777073	2020-10-13T23:11:23:121
-0,296710	0,284746	9,772287	2020-10-13T23:11:23:143
-0,275175	0,289532	9,772287	2020-10-13T23:11:23:160
-0,320638	0,244068	9,760324	2020-10-13T23:11:23:182
-0,241675	0,236889	9,781858	2020-10-13T23:11:23:200
-0,265603	0,203390	9,714860	2020-10-13T23:11:23:223
-0,232104	0,220140	9,762716	2020-10-13T23:11:23:241
-0,279960	0,184247	9,734003	2020-10-13T23:11:23:262
-0,263210	0,205783	9,784252	2020-10-13T23:11:23:280
-0,205783	0,260818	9,755538	2020-10-13T23:11:23:303
-0,275175	0,184247	9,798609	2020-10-13T23:11:23:320
-0,275175	0,169890	9,774680	2020-10-13T23:11:23:343
-0,267996	0,227318	9,698111	2020-10-13T23:11:23:361
-0,296710	0,239282	9,729217	2020-10-13T23:11:23:383
-0,291924	0,265603	9,719646	2020-10-13T23:11:23:401
-0,265603	0,210568	9,738789	2020-10-13T23:11:23:422
-0,258425	0,241675	9,717253	2020-10-13T23:11:23:440
-0,217747	0,236889	9,714860	2020-10-13T23:11:23:463
-0,246461	0,210568	9,786645	2020-10-13T23:11:23:481
-0,229711	0,279960	9,757930	2020-10-13T23:11:23:502
-0,277567	0,165105	9,741181	2020-10-13T23:11:23:521
-0,291924	0,222532	9,750752	2020-10-13T23:11:23:543
-0,296710	0,270389	9,731609	2020-10-13T23:11:23:561
-0,287139	0,210568	9,738789	2020-10-13T23:11:23:583
-0,265603	0,241675	9,738789	2020-10-13T23:11:23:603
-0,263210	0,186640	9,755538	2020-10-13T23:11:23:623
-0,256032	0,217747	9,781858	2020-10-13T23:11:23:641
-0,287139	0,198604	9,784252	2020-10-13T23:11:23:662
-0,234497	0,232104	9,712467	2020-10-13T23:11:23:681
-0,287139	0,181855	9,738789	2020-10-13T23:11:23:704
-0,251246	0,174676	9,791430	2020-10-13T23:11:23:721
-0,253639	0,189033	9,724431	2020-10-13T23:11:23:743
-0,208176	0,296710	9,784252	2020-10-13T23:11:23:761
-0,260818	0,236889	9,789038	2020-10-13T23:11:23:783
-0,239282	0,220140	9,781858	2020-10-13T23:11:23:802
-0,234497	0,215354	9,786645	2020-10-13T23:11:23:823
-0,260818	0,179462	9,719646	2020-10-13T23:11:23:842
-0,267996	0,153141	9,791430	2020-10-13T23:11:23:863
-0,354138	0,198604	9,757930	2020-10-13T23:11:23:881
-0,279960	0,227318	9,801002	2020-10-13T23:11:23:903
-0,253639	0,272782	9,734003	2020-10-13T23:11:23:920
-0,265603	0,246461	9,741181	2020-10-13T23:11:23:945
-0,270389	0,275175	9,767502	2020-10-13T23:11:23:960
-0,279960	0,256032	9,736395	2020-10-13T23:11:23:983
-0,241675	0,203390	9,741181	2020-10-13T23:11:24:001
-0,301496	0,141177	9,719646	2020-10-13T23:11:24:024
-0,253639	0,222532	9,745967	2020-10-13T23:11:24:041
-0,251246	0,215354	9,734003	2020-10-13T23:11:24:063
-0,236889	0,205783	9,789038	2020-10-13T23:11:24:082
-0,239282	0,265603	9,736395	2020-10-13T23:11:24:104
-0,189033	0,248854	9,757930	2020-10-13T23:11:24:121
-0,277567	0,165105	9,683753	2020-10-13T23:11:24:143
-0,260818	0,246461	9,755538	2020-10-13T23:11:24:161
-0,251246	0,236889	9,726824	2020-10-13T23:11:24:184
-0,263210	0,200997	9,702895	2020-10-13T23:11:24:201
-0,253639	0,244068	9,705289	2020-10-13T23:11:24:223
-0,263210	0,196211	9,734003	2020-10-13T23:11:24:242
-0,248854	0,203390	9,690931	2020-10-13T23:11:24:264
-0,299103	0,232104	9,719646	2020-10-13T23:11:24:281
-0,205783	0,208176	9,743573	2020-10-13T23:11:24:303
-0,277567	0,224925	9,772287	2020-10-13T23:11:24:322
-0,217747	0,227318	9,714860	2020-10-13T23:11:24:344
-0,251246	0,167498	9,789038	2020-10-13T23:11:24:362
-0,275175	0,203390	9,750752	2020-10-13T23:11:24:383
-0,196211	0,239282	9,734003	2020-10-13T23:11:24:401
-0,227318	0,277567	9,748360	2020-10-13T23:11:24:425
-0,296710	0,244068	9,745967	2020-10-13T23:11:24:442
-0,251246	0,244068	9,777073	2020-10-13T23:11:24:463
-0,313460	0,205783	9,726824	2020-10-13T23:11:24:482
-0,284746	0,282353	9,724431	2020-10-13T23:11:24:504
-0,315853	0,263210	9,762716	2020-10-13T23:11:24:522
-0,260818	0,193819	9,724431	2020-10-13T23:11:24:544
-0,196211	0,246461	9,707682	2020-10-13T23:11:24:563
-0,169890	0,253639	9,805787	2020-10-13T23:11:24:584
-0,246461	0,227318	9,671788	2020-10-13T23:11:24:602
-0,236889	0,260818	9,777073	2020-10-13T23:11:24:623
-0,227318	0,189033	9,767502	2020-10-13T23:11:24:642
-0,313460	0,193819	9,743573	2020-10-13T23:11:24:664
-0,212961	0,203390	9,748360	2020-10-13T23:11:24:681
-0,246461	0,208176	9,796216	2020-10-13T23:11:24:703
-0,246461	0,236889	9,791430	2020-10-13T23:11:24:722
-0,246461	0,198604	9,774680	2020-10-13T23:11:24:744
-0,229711	0,303888	9,738789	2020-10-13T23:11:24:762
-0,263210	0,299103	9,762716	2020-10-13T23:11:24:784
-0,260818	0,253639	9,743573	2020-10-13T23:11:24:802
-0,227318	0,212961	9,729217	2020-10-13T23:11:24:824
-0,275175	0,215354	9,810574	2020-10-13T23:11:24:842
-0,215354	0,193819	9,748360	2020-10-13T23:11:24:863
-0,227318	0,222532	9,784252	2020-10-13T23:11:24:881
-0,272782	0,157926	9,748360	2020-10-13T23:11:24:905
-0,236889	0,267996	9,748360	2020-10-13T23:11:24:922
-0,270389	0,200997	9,796216	2020-10-13T23:11:24:944
-0,294317	0,191426	9,743573	2020-10-13T23:11:24:962
-0,270389	0,258425	9,769895	2020-10-13T23:11:24:985
-0,217747	0,155533	9,748360	2020-10-13T23:11:25:003
-0,313460	0,303888	9,731609	2020-10-13T23:11:25:026
-0,179462	0,234497	9,738789	2020-10-13T23:11:25:043
-0,203390	0,174676	9,765109	2020-10-13T23:11:25:064
-0,241675	0,143569	9,707682	2020-10-13T23:11:25:082
-0,208176	0,251246	9,745967	2020-10-13T23:11:25:104
-0,267996	0,193819	9,760324	2020-10-13T23:11:25:122
-0,263210	0,160319	9,698111	2020-10-13T23:11:25:145
-0,236889	0,227318	9,717253	2020-10-13T23:11:25:163
-0,291924	0,246461	9,753145	2020-10-13T23:11:25:184
-0,246461	0,241675	9,726824	2020-10-13T23:11:25:203
-0,246461	0,181855	9,753145	2020-10-13T23:11:25:225
-0,229711	0,244068	9,750752	2020-10-13T23:11:25:243
-0,294317	0,246461	9,767502	2020-10-13T23:11:25:264
-0,272782	0,260818	9,755538	2020-10-13T23:11:25:283
-0,236889	0,306281	9,784252	2020-10-13T23:11:25:305
-0,189033	0,263210	9,695717	2020-10-13T23:11:25:322
-0,248854	0,313460	9,688539	2020-10-13T23:11:25:344
-0,263210	0,191426	9,710074	2020-10-13T23:11:25:362
-0,248854	0,279960	9,777073	2020-10-13T23:11:25:385
-0,275175	0,248854	9,729217	2020-10-13T23:11:25:402
-0,270389	0,227318	9,753145	2020-10-13T23:11:25:424
-0,246461	0,179462	9,736395	2020-10-13T23:11:25:443
-0,251246	0,222532	9,765109	2020-10-13T23:11:25:465
-0,236889	0,253639	9,748360	2020-10-13T23:11:25:483
-0,282353	0,260818	9,724431	2020-10-13T23:11:25:505
-0,217747	0,258425	9,748360	2020-10-13T23:11:25:524
-0,224925	0,203390	9,750752	2020-10-13T23:11:25:545
-0,284746	0,212961	9,753145	2020-10-13T23:11:25:563
-0,227318	0,277567	9,717253	2020-10-13T23:11:25:584
-0,217747	0,287139	9,707682	2020-10-13T23:11:25:603
-0,279960	0,227318	9,812965	2020-10-13T23:11:25:626
-0,287139	0,260818	9,729217	2020-10-13T23:11:25:643
-0,265603	0,279960	9,748360	2020-10-13T23:11:25:664
-0,222532	0,184247	9,734003	2020-10-13T23:11:25:684
-0,287139	0,153141	9,750752	2020-10-13T23:11:25:705
-0,200997	0,191426	9,717253	2020-10-13T23:11:25:724
-0,229711	0,308674	9,760324	2020-10-13T23:11:25:745
-0,296710	0,253639	9,736395	2020-10-13T23:11:25:765
-0,284746	0,287139	9,743573	2020-10-13T23:11:25:785
-0,265603	0,229711	9,781858	2020-10-13T23:11:25:804
-0,303888	0,220140	9,777073	2020-10-13T23:11:25:826
-0,279960	0,217747	9,731609	2020-10-13T23:11:25:844
-0,239282	0,229711	9,729217	2020-10-13T23:11:25:865
-0,303888	0,246461	9,755538	2020-10-13T23:11:25:884
-0,244068	0,224925	9,734003	2020-10-13T23:11:25:905
-0,284746	0,186640	9,690931	2020-10-13T23:11:25:924
-0,267996	0,267996	9,688539	2020-10-13T23:11:25:947
-0,299103	0,239282	9,767502	2020-10-13T23:11:25:963
-0,253639	0,217747	9,757930	2020-10-13T23:11:25:985
-0,270389	0,205783	9,784252	2020-10-13T23:11:26:004
-0,272782	0,215354	9,793823	2020-10-13T23:11:26:025
-0,296710	0,291924	9,757930	2020-10-13T23:11:26:044
-0,279960	0,227318	9,755538	2020-10-13T23:11:26:065
-0,287139	0,220140	9,745967	2020-10-13T23:11:26:084
-0,275175	0,227318	9,726824	2020-10-13T23:11:26:107
-0,306281	0,291924	9,688539	2020-10-13T23:11:26:123
-0,277567	0,339781	9,767502	2020-10-13T23:11:26:146
-0,189033	0,294317	9,698111	2020-10-13T23:11:26:163
-0,265603	0,258425	9,765109	2020-10-13T23:11:26:186
-0,251246	0,198604	9,717253	2020-10-13T23:11:26:203
-0,258425	0,256032	9,789038	2020-10-13T23:11:26:225
-0,217747	0,256032	9,726824	2020-10-13T23:11:26:246
-0,260818	0,284746	9,702895	2020-10-13T23:11:26:265
-0,260818	0,220140	9,707682	2020-10-13T23:11:26:285
-0,224925	0,222532	9,717253	2020-10-13T23:11:26:305
-0,244068	0,299103	9,796216	2020-10-13T23:11:26:324
-0,291924	0,284746	9,707682	2020-10-13T23:11:26:347
-0,258425	0,236889	9,784252	2020-10-13T23:11:26:363
-0,256032	0,313460	9,724431	2020-10-13T23:11:26:385
-0,287139	0,179462	9,688539	2020-10-13T23:11:26:404
-0,272782	0,244068	9,690931	2020-10-13T23:11:26:427
-0,244068	0,287139	9,741181	2020-10-13T23:11:26:444
-0,294317	0,263210	9,705289	2020-10-13T23:11:26:465
-0,241675	0,229711	9,781858	2020-10-13T23:11:26:484
-0,270389	0,227318	9,781858	2020-10-13T23:11:26:505
-0,256032	0,301496	9,760324	2020-10-13T23:11:26:524
-0,234497	0,354138	9,712467	2020-10-13T23:11:26:545
-0,263210	0,272782	9,736395	2020-10-13T23:11:26:564
-0,208176	0,248854	9,753145	2020-10-13T23:11:26:586
-0,217747	0,260818	9,738789	2020-10-13T23:11:26:604
-0,287139	0,244068	9,702895	2020-10-13T23:11:26:625
-0,251246	0,236889	9,767502	2020-10-13T23:11:26:644
-0,270389	0,193819	9,803394	2020-10-13T23:11:26:666
-0,241675	0,181855	9,719646	2020-10-13T23:11:26:684
-0,272782	0,229711	9,774680	2020-10-13T23:11:26:706
-0,253639	0,251246	9,724431	2020-10-13T23:11:26:724
-0,217747	0,272782	9,736395	2020-10-13T23:11:26:747
-0,272782	0,181855	9,743573	2020-10-13T23:11:26:764
-0,267996	0,272782	9,705289	2020-10-13T23:11:26:785
-0,277567	0,251246	9,705289	2020-10-13T23:11:26:805
-0,275175	0,220140	9,769895	2020-10-13T23:11:26:827
-0,263210	0,210568	9,753145	2020-10-13T23:11:26:845
-0,263210	0,246461	9,777073	2020-10-13T23:11:26:865
-0,272782	0,217747	9,765109	2020-10-13T23:11:26:884
-0,227318	0,256032	9,710074	2020-10-13T23:11:26:907
-0,200997	0,258425	9,640682	2020-10-13T23:11:26:924
-0,220140	0,291924	9,774680	2020-10-13T23:11:26:946
-0,236889	0,291924	9,755538	2020-10-13T23:11:26:965
-0,234497	0,234497	9,755538	2020-10-13T23:11:26:987
-0,277567	0,169890	9,738789	2020-10-13T23:11:27:004
-0,239282	0,220140	9,714860	2020-10-13T23:11:27:026
-0,244068	0,236889	9,743573	2020-10-13T23:11:27:044
-0,244068	0,263210	9,755538	2020-10-13T23:11:27:067
-0,287139	0,224925	9,781858	2020-10-13T23:11:27:084
-0,236889	0,208176	9,736395	2020-10-13T23:11:27:105
-0,248854	0,260818	9,743573	2020-10-13T23:11:27:124
-0,275175	0,330210	9,789038	2020-10-13T23:11:27:147
-0,205783	0,224925	9,719646	2020-10-13T23:11:27:164
-0,267996	0,122034	9,710074	2020-10-13T23:11:27:186
-0,256032	0,210568	9,724431	2020-10-13T23:11:27:205
-0,200997	0,239282	9,707682	2020-10-13T23:11:27:227
-0,256032	0,222532	9,750752	2020-10-13T23:11:27:245
-0,253639	0,222532	9,789038	2020-10-13T23:11:27:265
-0,248854	0,239282	9,719646	2020-10-13T23:11:27:284
-0,241675	0,205783	9,760324	2020-10-13T23:11:27:307
-0,253639	0,282353	9,805787	2020-10-13T23:11:27:324
-0,289532	0,241675	9,731609	2020-10-13T23:11:27:346
-0,251246	0,253639	9,743573	2020-10-13T23:11:27:366
-0,215354	0,265603	9,736395	2020-10-13T23:11:27:387
-0,193819	0,251246	9,738789	2020-10-13T23:11:27:404
-0,258425	0,212961	9,750752	2020-10-13T23:11:27:426
-0,303888	0,162712	9,741181	2020-10-13T23:11:27:446
-0,239282	0,258425	9,726824	2020-10-13T23:11:27:466
-0,289532	0,220140	9,753145	2020-10-13T23:11:27:485
-0,251246	0,275175	9,690931	2020-10-13T23:11:27:506
-0,222532	0,241675	9,793823	2020-10-13T23:11:27:524
-0,303888	0,272782	9,731609	2020-10-13T23:11:27:548
-0,217747	0,277567	9,750752	2020-10-13T23:11:27:565
-0,234497	0,232104	9,779467	2020-10-13T23:11:27:586
-0,234497	0,244068	9,738789	2020-10-13T23:11:27:605
-0,224925	0,186640	9,707682	2020-10-13T23:11:27:627
-0,234497	0,227318	9,726824	2020-10-13T23:11:27:645
-0,256032	0,179462	9,729217	2020-10-13T23:11:27:666
-0,253639	0,277567	9,745967	2020-10-13T23:11:27:685
-0,279960	0,296710	9,805787	2020-10-13T23:11:27:707
-0,184247	0,160319	9,753145	2020-10-13T23:11:27:725
-0,220140	0,260818	9,710074	2020-10-13T23:11:27:746
-0,227318	0,184247	9,765109	2020-10-13T23:11:27:765
-0,205783	0,198604	9,781858	2020-10-13T23:11:27:788
-0,296710	0,210568	9,734003	2020-10-13T23:11:27:805
-0,210568	0,263210	9,820145	2020-10-13T23:11:27:827
-0,263210	0,251246	9,726824	2020-10-13T23:11:27:846
-0,270389	0,258425	9,729217	2020-10-13T23:11:27:867
-0,239282	0,234497	9,779467	2020-10-13T23:11:27:885
-0,229711	0,212961	9,729217	2020-10-13T23:11:27:908
-0,256032	0,165105	9,791430	2020-10-13T23:11:27:926
-0,272782	0,234497	9,796216	2020-10-13T23:11:27:948
-0,289532	0,222532	9,743573	2020-10-13T23:11:27:965
-0,244068	0,222532	9,719646	2020-10-13T23:11:27:987
-0,251246	0,205783	9,777073	2020-10-13T23:11:28:005
-0,241675	0,200997	9,722038	2020-10-13T23:11:28:028
-0,244068	0,270389	9,755538	2020-10-13T23:11:28:045
-0,330210	0,222532	9,745967	2020-10-13T23:11:28:067
-0,303888	0,200997	9,741181	2020-10-13T23:11:28:090
-0,272782	0,265603	9,757930	2020-10-13T23:11:28:109
-0,287139	0,224925	9,741181	2020-10-13T23:11:28:125
-0,239282	0,270389	9,714860	2020-10-13T23:11:28:147
-0,244068	0,267996	9,731609	2020-10-13T23:11:28:166
-0,303888	0,212961	9,712467	2020-10-13T23:11:28:187
-0,222532	0,167498	9,779467	2020-10-13T23:11:28:205
-0,248854	0,189033	9,712467	2020-10-13T23:11:28:227
-0,313460	0,251246	9,726824	2020-10-13T23:11:28:245
-0,291924	0,291924	9,734003	2020-10-13T23:11:28:268
-0,241675	0,210568	9,784252	2020-10-13T23:11:28:285
-0,224925	0,203390	9,765109	2020-10-13T23:11:28:306
-0,270389	0,157926	9,736395	2020-10-13T23:11:28:325
-0,253639	0,217747	9,731609	2020-10-13T23:11:28:348
-0,239282	0,251246	9,765109	2020-10-13T23:11:28:365
-0,287139	0,220140	9,760324	2020-10-13T23:11:28:387
-0,253639	0,272782	9,729217	2020-10-13T23:11:28:407
-0,296710	0,212961	9,722038	2020-10-13T23:11:28:427
-0,289532	0,267996	9,789038	2020-10-13T23:11:28:446
-0,287139	0,222532	9,700503	2020-10-13T23:11:28:467
-0,291924	0,181855	9,724431	2020-10-13T23:11:28:485
-0,263210	0,232104	9,750752	2020-10-13T23:11:28:508
-0,267996	0,205783	9,719646	2020-10-13T23:11:28:525
-0,258425	0,200997	9,796216	2020-10-13T23:11:28:548
-0,296710	0,143569	9,729217	2020-10-13T23:11:28:566
-0,248854	0,184247	9,738789	2020-10-13T23:11:28:588
-0,270389	0,198604	9,729217	2020-10-13T23:11:28:605
-0,232104	0,275175	9,753145	2020-10-13T23:11:28:628
-0,251246	0,212961	9,712467	2020-10-13T23:11:28:647
-0,246461	0,179462	9,736395	2020-10-13T23:11:28:668
-0,267996	0,222532	9,748360	2020-10-13T23:11:28:686
-0,260818	0,246461	9,702895	2020-10-13T23:11:28:707
-0,253639	0,256032	9,731609	2020-10-13T23:11:28:726
-0,222532	0,203390	9,741181	2020-10-13T23:11:28:749
-0,241675	0,157926	9,712467	2020-10-13T23:11:28:767
-0,263210	0,227318	9,738789	2020-10-13T23:11:28:788
-0,260818	0,129212	9,714860	2020-10-13T23:11:28:807
-0,251246	0,248854	9,784252	2020-10-13T23:11:28:829
-0,289532	0,181855	9,731609	2020-10-13T23:11:28:846
-0,289532	0,246461	9,767502	2020-10-13T23:11:28:869
-0,311067	0,205783	9,719646	2020-10-13T23:11:28:887
-0,267996	0,248854	9,760324	2020-10-13T23:11:28:909
-0,291924	0,172283	9,750752	2020-10-13T23:11:28:926
-0,212961	0,232104	9,750752	2020-10-13T23:11:28:948
-0,203390	0,160319	9,712467	2020-10-13T23:11:28:965
-0,282353	0,133998	9,690931	2020-10-13T23:11:28:989
-0,212961	0,215354	9,779467	2020-10-13T23:11:29:006
-0,275175	0,267996	9,717253	2020-10-13T23:11:29:028
-0,227318	0,181855	9,714860	2020-10-13T23:11:29:046
-0,217747	0,189033	9,791430	2020-10-13T23:11:29:069
-0,239282	0,258425	9,757930	2020-10-13T23:11:29:086
-0,227318	0,186640	9,671788	2020-10-13T23:11:29:108
-0,287139	0,215354	9,767502	2020-10-13T23:11:29:127
-0,291924	0,172283	9,724431	2020-10-13T23:11:29:149
-0,301496	0,227318	9,743573	2020-10-13T23:11:29:166
-0,287139	0,215354	9,757930	2020-10-13T23:11:29:187
-0,232104	0,169890	9,638289	2020-10-13T23:11:29:206
-0,284746	0,256032	9,714860	2020-10-13T23:11:29:229
-0,301496	0,275175	9,755538	2020-10-13T23:11:29:246
-0,294317	0,296710	9,748360	2020-10-13T23:11:29:268
-0,241675	0,296710	9,767502	2020-10-13T23:11:29:286
-0,189033	0,232104	9,698111	2020-10-13T23:11:29:309
-0,275175	0,157926	9,757930	2020-10-13T23:11:29:326
-0,258425	0,236889	9,705289	2020-10-13T23:11:29:349
-0,239282	0,177069	9,729217	2020-10-13T23:11:29:367
-0,263210	0,179462	9,676575	2020-10-13T23:11:29:389
-0,270389	0,272782	9,707682	2020-10-13T23:11:29:406
-0,256032	0,184247	9,760324	2020-10-13T23:11:29:428
-0,253639	0,236889	9,824929	2020-10-13T23:11:29:446
-0,275175	0,236889	9,772287	2020-10-13T23:11:29:469
-0,224925	0,165105	9,760324	2020-10-13T23:11:29:487
-0,217747	0,222532	9,724431	2020-10-13T23:11:29:508
-0,342174	0,141177	9,789038	2020-10-13T23:11:29:526
-0,260818	0,162712	9,734003	2020-10-13T23:11:29:549
-0,239282	0,196211	9,748360	2020-10-13T23:11:29:566
-0,279960	0,296710	9,700503	2020-10-13T23:11:29:588
-0,227318	0,136391	9,791430	2020-10-13T23:11:29:607
-0,301496	0,205783	9,793823	2020-10-13T23:11:29:629
-0,313460	0,200997	9,678967	2020-10-13T23:11:29:648
-0,222532	0,239282	9,724431	2020-10-13T23:11:29:668
-0,244068	0,260818	9,757930	2020-10-13T23:11:29:686
-0,287139	0,267996	9,750752	2020-10-13T23:11:29:709
-0,330210	0,198604	9,743573	2020-10-13T23:11:29:727
-0,217747	0,184247	9,731609	2020-10-13T23:11:29:749
-0,232104	0,272782	9,760324	2020-10-13T23:11:29:767
-0,279960	0,205783	9,767502	2020-10-13T23:11:29:789
-0,279960	0,102891	9,686146	2020-10-13T23:11:29:807
-0,239282	0,186640	9,741181	2020-10-13T23:11:29:828
-0,181855	0,236889	9,702895	2020-10-13T23:11:29:848
-0,229711	0,198604	9,793823	2020-10-13T23:11:29:869
-0,265603	0,253639	9,707682	2020-10-13T23:11:29:886
-0,301496	0,181855	9,726824	2020-10-13T23:11:29:909
-0,270389	0,236889	9,755538	2020-10-13T23:11:29:926
-0,224925	0,284746	9,765109	2020-10-13T23:11:29:950
-0,227318	0,265603	9,731609	2020-10-13T23:11:29:966
-0,215354	0,193819	9,729217	2020-10-13T23:11:29:988
-0,296710	0,196211	9,710074	2020-10-13T23:11:30:007
-0,244068	0,208176	9,743573	2020-10-13T23:11:30:030
-0,248854	0,196211	9,633504	2020-10-13T23:11:30:047
-0,239282	0,224925	9,738789	2020-10-13T23:11:30:069
-0,294317	0,232104	9,743573	2020-10-13T23:11:30:088
-0,212961	0,241675	9,729217	2020-10-13T23:11:30:109
-0,291924	0,157926	9,772287	2020-10-13T23:11:30:127
-0,246461	0,112463	9,743573	2020-10-13T23:11:30:149
-0,265603	0,227318	9,705289	2020-10-13T23:11:30:167
-0,246461	0,181855	9,726824	2020-10-13T23:11:30:189
-0,282353	0,208176	9,762716	2020-10-13T23:11:30:207
-0,358923	0,138784	9,729217	2020-10-13T23:11:30:228
-0,198604	0,196211	9,753145	2020-10-13T23:11:30:248
-0,248854	0,232104	9,755538	2020-10-13T23:11:30:270
-0,279960	0,265603	9,767502	2020-10-13T23:11:30:287
-0,251246	0,227318	9,726824	2020-10-13T23:11:30:309
-0,299103	0,155533	9,750752	2020-10-13T23:11:30:328
-0,222532	0,215354	9,803394	2020-10-13T23:11:30:350
-0,236889	0,145962	9,738789	2020-10-13T23:11:30:367
-0,239282	0,210568	9,750752	2020-10-13T23:11:30:389
-0,256032	0,148355	9,791430	2020-10-13T23:11:30:407
-0,272782	0,203390	9,700503	2020-10-13T23:11:30:430
-0,272782	0,222532	9,762716	2020-10-13T23:11:30:448
-0,287139	0,236889	9,695717	2020-10-13T23:11:30:469
-0,198604	0,210568	9,726824	2020-10-13T23:11:30:488
-0,246461	0,205783	9,734003	2020-10-13T23:11:30:511
-0,275175	0,220140	9,772287	2020-10-13T23:11:30:528
-0,299103	0,244068	9,722038	2020-10-13T23:11:30:550
-0,244068	0,186640	9,765109	2020-10-13T23:11:30:568
-0,256032	0,186640	9,722038	2020-10-13T23:11:30:590
-0,241675	0,212961	9,760324	2020-10-13T23:11:30:608
-0,253639	0,224925	9,724431	2020-10-13T23:11:30:629
-0,282353	0,179462	9,745967	2020-10-13T23:11:30:649
-0,263210	0,279960	9,827322	2020-10-13T23:11:30:670
-0,227318	0,222532	9,753145	2020-10-13T23:11:30:688
-0,246461	0,263210	9,741181	2020-10-13T23:11:30:709
-0,256032	0,241675	9,774680	2020-10-13T23:11:30:728
-0,315853	0,215354	9,700503	2020-10-13T23:11:30:751
-0,222532	0,157926	9,793823	2020-10-13T23:11:30:768
-0,282353	0,186640	9,762716	2020-10-13T23:11:30:789
-0,217747	0,117248	9,736395	2020-10-13T23:11:30:808
-0,212961	0,174676	9,808180	2020-10-13T23:11:30:830
-0,246461	0,174676	9,765109	2020-10-13T23:11:30:848
-0,227318	0,191426	9,731609	2020-10-13T23:11:30:869
-0,251246	0,229711	9,765109	2020-10-13T23:11:30:888
-0,248854	0,212961	9,779467	2020-10-13T23:11:30:911
-0,291924	0,200997	9,812965	2020-10-13T23:11:30:928
-0,217747	0,157926	9,712467	2020-10-13T23:11:30:950
-0,306281	0,143569	9,726824	2020-10-13T23:11:30:968
-0,253639	0,155533	9,659825	2020-10-13T23:11:30:990
-0,229711	0,234497	9,729217	2020-10-13T23:11:31:008
-0,260818	0,196211	9,767502	2020-10-13T23:11:31:030
-0,232104	0,253639	9,734003	2020-10-13T23:11:31:049
-0,258425	0,256032	9,777073	2020-10-13T23:11:31:070
-0,291924	0,232104	9,750752	2020-10-13T23:11:31:089
-0,315853	0,265603	9,736395	2020-10-13T23:11:31:110
-0,291924	0,186640	9,743573	2020-10-13T23:11:31:129
-0,265603	0,155533	9,750752	2020-10-13T23:11:31:151
-0,239282	0,184247	9,753145	2020-10-13T23:11:31:168
-0,267996	0,186640	9,762716	2020-10-13T23:11:31:190
-0,189033	0,224925	9,762716	2020-10-13T23:11:31:208
-0,284746	0,236889	9,774680	2020-10-13T23:11:31:231
-0,239282	0,193819	9,769895	2020-10-13T23:11:31:248
-0,256032	0,157926	9,741181	2020-10-13T23:11:31:270
-0,311067	0,179462	9,707682	2020-10-13T23:11:31:290
-0,320638	0,210568	9,724431	2020-10-13T23:11:31:311
-0,303888	0,244068	9,779467	2020-10-13T23:11:31:328
-0,246461	0,217747	9,757930	2020-10-13T23:11:31:351
-0,234497	0,244068	9,750752	2020-10-13T23:11:31:369
-0,265603	0,114855	9,724431	2020-10-13T23:11:31:391
-0,275175	0,105284	9,753145	2020-10-13T23:11:31:408
-0,227318	0,148355	9,762716	2020-10-13T23:11:31:430
-0,229711	0,165105	9,760324	2020-10-13T23:11:31:449
-0,284746	0,267996	9,736395	2020-10-13T23:11:31:471
-0,234497	0,122034	9,745967	2020-10-13T23:11:31:488
-0,232104	0,150748	9,741181	2020-10-13T23:11:31:510
-0,284746	0,179462	9,760324	2020-10-13T23:11:31:530
-0,282353	0,189033	9,690931	2020-10-13T23:11:31:551
-0,265603	0,200997	9,779467	2020-10-13T23:11:31:568
-0,251246	0,129212	9,805787	2020-10-13T23:11:31:590
-0,232104	0,117248	9,731609	2020-10-13T23:11:31:609
-0,217747	0,241675	9,707682	2020-10-13T23:11:31:631
-0,291924	0,212961	9,786645	2020-10-13T23:11:31:649
-0,258425	0,253639	9,789038	2020-10-13T23:11:31:670
-0,220140	0,174676	9,724431	2020-10-13T23:11:31:689
-0,282353	0,189033	9,820145	2020-10-13T23:11:31:711
-0,272782	0,167498	9,714860	2020-10-13T23:11:31:729
-0,313460	0,153141	9,743573	2020-10-13T23:11:31:751
-0,208176	0,222532	9,769895	2020-10-13T23:11:31:770
-0,244068	0,227318	9,767502	2020-10-13T23:11:31:791
-0,248854	0,244068	9,772287	2020-10-13T23:11:31:809
-0,263210	0,256032	9,726824	2020-10-13T23:11:31:830
-0,291924	0,208176	9,748360	2020-10-13T23:11:31:849
-0,330210	0,205783	9,753145	2020-10-13T23:11:31:871
-0,236889	0,222532	9,779467	2020-10-13T23:11:31:889
-0,272782	0,196211	9,755538	2020-10-13T23:11:31:912
-0,260818	0,157926	9,719646	2020-10-13T23:11:31:929
-0,244068	0,172283	9,743573	2020-10-13T23:11:31:952
-0,191426	0,217747	9,700503	2020-10-13T23:11:31:969
-0,248854	0,174676	9,774680	2020-10-13T23:11:31:991
-0,224925	0,153141	9,743573	2020-10-13T23:11:32:017
-0,277567	0,189033	9,745967	2020-10-13T23:11:32:034
-0,222532	0,253639	9,817751	2020-10-13T23:11:32:050
-0,241675	0,241675	9,760324	2020-10-13T23:11:32:161
-0,277567	0,246461	9,726824	2020-10-13T23:11:32:163
-0,272782	0,174676	9,724431	2020-10-13T23:11:32:164
-0,277567	0,244068	9,734003	2020-10-13T23:11:32:166
-0,222532	0,222532	9,772287	2020-10-13T23:11:32:167
-0,263210	0,129212	9,796216	2020-10-13T23:11:32:168
-0,227318	0,234497	9,762716	2020-10-13T23:11:32:203
-0,220140	0,122034	9,777073	2020-10-13T23:11:32:243
-0,217747	0,189033	9,705289	2020-10-13T23:11:32:287
-0,244068	0,220140	9,719646	2020-10-13T23:11:32:288
-0,217747	0,179462	9,724431	2020-10-13T23:11:32:289
-0,260818	0,191426	9,726824	2020-10-13T23:11:32:290
-0,227318	0,256032	9,719646	2020-10-13T23:11:32:310
-0,248854	0,177069	9,815358	2020-10-13T23:11:32:328
-0,265603	0,267996	9,777073	2020-10-13T23:11:32:352
-0,224925	0,157926	9,755538	2020-10-13T23:11:32:368
-0,248854	0,167498	9,731609	2020-10-13T23:11:32:390
-0,210568	0,189033	9,750752	2020-10-13T23:11:32:410
-0,275175	0,224925	9,741181	2020-10-13T23:11:32:433
-0,229711	0,174676	9,717253	2020-10-13T23:11:32:449
-0,236889	0,119641	9,678967	2020-10-13T23:11:32:472
-0,217747	0,148355	9,700503	2020-10-13T23:11:32:489
-0,299103	0,174676	9,734003	2020-10-13T23:11:32:512
-0,239282	0,177069	9,719646	2020-10-13T23:11:32:529
-0,263210	0,172283	9,671788	2020-10-13T23:11:32:551
-0,253639	0,157926	9,791430	2020-10-13T23:11:32:569
-0,244068	0,244068	9,741181	2020-10-13T23:11:32:592
-0,256032	0,181855	9,710074	2020-10-13T23:11:32:610
-0,275175	0,169890	9,743573	2020-10-13T23:11:32:632
-0,200997	0,148355	9,817751	2020-10-13T23:11:32:650
-0,270389	0,215354	9,681360	2020-10-13T23:11:32:672
-0,251246	0,220140	9,743573	2020-10-13T23:11:32:689
-0,282353	0,196211	9,748360	2020-10-13T23:11:32:712
-0,263210	0,165105	9,724431	2020-10-13T23:11:32:732
-0,251246	0,215354	9,743573	2020-10-13T23:11:32:752
-0,263210	0,208176	9,779467	2020-10-13T23:11:32:770
-0,315853	0,222532	9,734003	2020-10-13T23:11:32:792
-0,248854	0,181855	9,748360	2020-10-13T23:11:32:810
-0,222532	0,284746	9,757930	2020-10-13T23:11:32:833
-0,299103	0,191426	9,712467	2020-10-13T23:11:32:851
-0,272782	0,181855	9,741181	2020-10-13T23:11:32:871
-0,244068	0,203390	9,779467	2020-10-13T23:11:32:890
-0,299103	0,169890	9,741181	2020-10-13T23:11:32:913
-0,229711	0,177069	9,779467	2020-10-13T23:11:32:930
-0,270389	0,157926	9,765109	2020-10-13T23:11:32:954
-0,200997	0,208176	9,748360	2020-10-13T23:11:32:971
-0,256032	0,179462	9,724431	2020-10-13T23:11:32:992
-0,248854	0,203390	9,743573	2020-10-13T23:11:33:010
-0,263210	0,222532	9,781858	2020-10-13T23:11:33:032
-0,196211	0,165105	9,750752	2020-10-13T23:11:33:050
-0,224925	0,189033	9,767502	2020-10-13T23:11:33:072
-0,260818	0,227318	9,743573	2020-10-13T23:11:33:090
-0,301496	0,165105	9,765109	2020-10-13T23:11:33:111
-0,241675	0,181855	9,698111	2020-10-13T23:11:33:130
-0,236889	0,117248	9,719646	2020-10-13T23:11:33:153
-0,244068	0,203390	9,736395	2020-10-13T23:11:33:170
-0,256032	0,184247	9,846465	2020-10-13T23:11:33:192
-0,265603	0,148355	9,757930	2020-10-13T23:11:33:211
-0,246461	0,165105	9,700503	2020-10-13T23:11:33:234
-0,275175	0,100499	9,710074	2020-10-13T23:11:33:251
-0,279960	0,169890	9,719646	2020-10-13T23:11:33:272
-0,227318	0,155533	9,791430	2020-10-13T23:11:33:290
-0,258425	0,198604	9,707682	2020-10-13T23:11:33:313
-0,282353	0,210568	9,753145	2020-10-13T23:11:33:330
-0,248854	0,193819	9,741181	2020-10-13T23:11:33:352
-0,227318	0,200997	9,769895	2020-10-13T23:11:33:371
-0,248854	0,203390	9,784252	2020-10-13T23:11:33:393
-0,256032	0,165105	9,743573	2020-10-13T23:11:33:410
-0,260818	0,267996	9,757930	2020-10-13T23:11:33:432
-0,210568	0,136391	9,760324	2020-10-13T23:11:33:452
-0,244068	0,203390	9,717253	2020-10-13T23:11:33:473
-0,236889	0,169890	9,765109	2020-10-13T23:11:33:490
-0,215354	0,177069	9,741181	2020-10-13T23:11:33:513
-0,232104	0,162712	9,719646	2020-10-13T23:11:33:531
-0,241675	0,133998	9,760324	2020-10-13T23:11:33:553
-0,248854	0,232104	9,729217	2020-10-13T23:11:33:572
-0,258425	0,172283	9,750752	2020-10-13T23:11:33:592
-0,241675	0,196211	9,726824	2020-10-13T23:11:33:610
-0,220140	0,160319	9,743573	2020-10-13T23:11:33:633
-0,227318	0,098106	9,779467	2020-10-13T23:11:33:651
-0,205783	0,191426	9,745967	2020-10-13T23:11:33:672
-0,239282	0,196211	9,736395	2020-10-13T23:11:33:692
-0,239282	0,167498	9,815358	2020-10-13T23:11:33:713
-0,236889	0,162712	9,710074	2020-10-13T23:11:33:730
-0,299103	0,181855	9,748360	2020-10-13T23:11:33:752
-0,291924	0,203390	9,705289	2020-10-13T23:11:33:770
-0,227318	0,179462	9,729217	2020-10-13T23:11:33:794
-0,258425	0,148355	9,736395	2020-10-13T23:11:33:810
-0,342174	0,133998	9,769895	2020-10-13T23:11:33:832
-0,318245	0,114855	9,717253	2020-10-13T23:11:33:852
-0,246461	0,232104	9,750752	2020-10-13T23:11:33:873
-0,258425	0,186640	9,784252	2020-10-13T23:11:33:891
-0,260818	0,186640	9,798609	2020-10-13T23:11:33:913
-0,232104	0,074178	9,753145	2020-10-13T23:11:33:933
-0,251246	0,172283	9,781858	2020-10-13T23:11:33:953
-0,200997	0,150748	9,717253	2020-10-13T23:11:33:971
-0,251246	0,157926	9,791430	2020-10-13T23:11:33:993
-0,222532	0,129212	9,784252	2020-10-13T23:11:34:011
-0,244068	0,165105	9,736395	2020-10-13T23:11:34:034
-0,279960	0,198604	9,738789	2020-10-13T23:11:34:051
-0,301496	0,179462	9,781858	2020-10-13T23:11:34:073
-0,260818	0,186640	9,769895	2020-10-13T23:11:34:091
-0,320638	0,189033	9,734003	2020-10-13T23:11:34:113
-0,294317	0,205783	9,777073	2020-10-13T23:11:34:131
-0,284746	0,122034	9,734003	2020-10-13T23:11:34:153
-0,236889	0,174676	9,750752	2020-10-13T23:11:34:172
-0,244068	0,179462	9,743573	2020-10-13T23:11:34:193
-0,241675	0,200997	9,745967	2020-10-13T23:11:34:211
-0,222532	0,215354	9,753145	2020-10-13T23:11:34:233
-0,239282	0,198604	9,731609	2020-10-13T23:11:34:251
-0,239282	0,172283	9,717253	2020-10-13T23:11:34:274
-0,277567	0,189033	9,822537	2020-10-13T23:11:34:291
-0,287139	0,239282	9,724431	2020-10-13T23:11:34:312
-0,294317	0,189033	9,784252	2020-10-13T23:11:34:331
-0,220140	0,160319	9,734003	2020-10-13T23:11:34:354
-0,275175	0,157926	9,755538	2020-10-13T23:11:34:371
-0,205783	0,093320	9,760324	2020-10-13T23:11:34:393
-0,253639	0,126820	9,707682	2020-10-13T23:11:34:412
-0,287139	0,122034	9,729217	2020-10-13T23:11:34:434
-0,272782	0,248854	9,767502	2020-10-13T23:11:34:452
-0,306281	0,157926	9,765109	2020-10-13T23:11:34:472
-0,275175	0,165105	9,734003	2020-10-13T23:11:34:491
-0,315853	0,227318	9,736395	2020-10-13T23:11:34:514
-0,234497	0,200997	9,745967	2020-10-13T23:11:34:531
-0,296710	0,189033	9,748360	2020-10-13T23:11:34:553
-0,260818	0,184247	9,750752	2020-10-13T23:11:34:573
-0,246461	0,172283	9,748360	2020-10-13T23:11:34:594
-0,210568	0,189033	9,738789	2020-10-13T23:11:34:611
-0,241675	0,153141	9,726824	2020-10-13T23:11:34:633
-0,193819	0,112463	9,745967	2020-10-13T23:11:34:661
-0,224925	0,162712	9,769895	2020-10-13T23:11:34:676
-0,308674	0,193819	9,705289	2020-10-13T23:11:34:692
-0,229711	0,251246	9,772287	2020-10-13T23:11:34:713
-0,311067	0,205783	9,762716	2020-10-13T23:11:34:731
-0,289532	0,224925	9,779467	2020-10-13T23:11:34:754
-0,200997	0,196211	9,700503	2020-10-13T23:11:34:771
-0,287139	0,174676	9,757930	2020-10-13T23:11:34:793
-0,253639	0,205783	9,765109	2020-10-13T23:11:34:812
-0,339781	0,162712	9,743573	2020-10-13T23:11:34:834
-0,205783	0,098106	9,757930	2020-10-13T23:11:34:852
-0,284746	0,165105	9,734003	2020-10-13T23:11:34:873
-0,272782	0,169890	9,702895	2020-10-13T23:11:34:894
-0,215354	0,157926	9,757930	2020-10-13T23:11:34:914
-0,215354	0,086142	9,765109	2020-10-13T23:11:34:933
-0,232104	0,198604	9,793823	2020-10-13T23:11:34:954
-0,296710	0,208176	9,734003	2020-10-13T23:11:34:972
-0,251246	0,189033	9,724431	2020-10-13T23:11:34:994
-0,315853	0,220140	9,724431	2020-10-13T23:11:35:012
-0,251246	0,203390	9,760324	2020-10-13T23:11:35:033
-0,301496	0,224925	9,683753	2020-10-13T23:11:35:052
-0,229711	0,145962	9,774680	2020-10-13T23:11:35:074
-0,222532	0,181855	9,712467	2020-10-13T23:11:35:093
-0,227318	0,155533	9,741181	2020-10-13T23:11:35:113
-0,277567	0,203390	9,719646	2020-10-13T23:11:35:133
-0,270389	0,179462	9,777073	2020-10-13T23:11:35:154
-0,260818	0,196211	9,791430	2020-10-13T23:11:35:172
-0,282353	0,184247	9,731609	2020-10-13T23:11:35:193
-0,227318	0,224925	9,719646	2020-10-13T23:11:35:212
-0,320638	0,189033	9,796216	2020-10-13T23:11:35:234
-0,251246	0,191426	9,726824	2020-10-13T23:11:35:253
-0,287139	0,229711	9,707682	2020-10-13T23:11:35:274
-0,258425	0,208176	9,784252	2020-10-13T23:11:35:292
-0,256032	0,234497	9,772287	2020-10-13T23:11:35:314
-0,227318	0,165105	9,789038	2020-10-13T23:11:35:333
-0,284746	0,244068	9,762716	2020-10-13T23:11:35:354
-0,239282	0,217747	9,772287	2020-10-13T23:11:35:373
-0,246461	0,107677	9,738789	2020-10-13T23:11:35:394
-0,260818	0,162712	9,741181	2020-10-13T23:11:35:412
-0,220140	0,215354	9,745967	2020-10-13T23:11:35:434
-0,260818	0,217747	9,753145	2020-10-13T23:11:35:453
-0,284746	0,196211	9,722038	2020-10-13T23:11:35:474
-0,279960	0,186640	9,796216	2020-10-13T23:11:35:492
-0,256032	0,189033	9,745967	2020-10-13T23:11:35:514
-0,289532	0,232104	9,774680	2020-10-13T23:11:35:533
-0,320638	0,138784	9,745967	2020-10-13T23:11:35:555
-0,222532	0,172283	9,717253	2020-10-13T23:11:35:572
-0,260818	0,205783	9,765109	2020-10-13T23:11:35:594
-0,248854	0,198604	9,736395	2020-10-13T23:11:35:614
-0,282353	0,153141	9,757930	2020-10-13T23:11:35:635
-0,265603	0,189033	9,748360	2020-10-13T23:11:35:653
-0,354138	0,155533	9,772287	2020-10-13T23:11:35:674
-0,267996	0,205783	9,789038	2020-10-13T23:11:35:692
-0,244068	0,241675	9,690931	2020-10-13T23:11:35:715
-0,234497	0,177069	9,714860	2020-10-13T23:11:35:732
-0,251246	0,181855	9,796216	2020-10-13T23:11:35:754
-0,263210	0,162712	9,743573	2020-10-13T23:11:35:773
-0,210568	0,133998	9,714860	2020-10-13T23:11:35:825
-0,177069	0,160319	9,757930	2020-10-13T23:11:35:826
-0,236889	0,208176	9,707682	2020-10-13T23:11:35:835
-0,198604	0,133998	9,714860	2020-10-13T23:11:35:877
-0,267996	0,200997	9,719646	2020-10-13T23:11:35:878
-0,232104	0,253639	9,791430	2020-10-13T23:11:35:893
-0,246461	0,179462	9,674182	2020-10-13T23:11:35:914
-0,200997	0,179462	9,714860	2020-10-13T23:11:35:932
-0,260818	0,160319	9,791430	2020-10-13T23:11:35:956
-0,258425	0,150748	9,777073	2020-10-13T23:11:35:972
-0,287139	0,165105	9,765109	2020-10-13T23:11:35:994
-0,332602	0,232104	9,712467	2020-10-13T23:11:36:013
-0,265603	0,177069	9,738789	2020-10-13T23:11:36:036
-0,270389	0,193819	9,731609	2020-10-13T23:11:36:053
-0,294317	0,224925	9,698111	2020-10-13T23:11:36:075
-0,251246	0,165105	9,779467	2020-10-13T23:11:36:096
-0,265603	0,155533	9,757930	2020-10-13T23:11:36:115
-0,234497	0,133998	9,714860	2020-10-13T23:11:36:133
-0,272782	0,129212	9,781858	2020-10-13T23:11:36:156
-0,184247	0,157926	9,695717	2020-10-13T23:11:36:173
-0,279960	0,122034	9,722038	2020-10-13T23:11:36:197
-0,277567	0,155533	9,712467	2020-10-13T23:11:36:213
-0,275175	0,114855	9,762716	2020-10-13T23:11:36:234
-0,323031	0,236889	9,741181	2020-10-13T23:11:36:253
-0,251246	0,205783	9,738789	2020-10-13T23:11:36:276
-0,267996	0,244068	9,722038	2020-10-13T23:11:36:293
-0,217747	0,220140	9,769895	2020-10-13T23:11:36:315
-0,277567	0,124427	9,762716	2020-10-13T23:11:36:334
-0,284746	0,169890	9,738789	2020-10-13T23:11:36:356
-0,253639	0,217747	9,743573	2020-10-13T23:11:36:373
-0,191426	0,220140	9,757930	2020-10-13T23:11:36:395
-0,232104	0,229711	9,736395	2020-10-13T23:11:36:414
-0,224925	0,129212	9,743573	2020-10-13T23:11:36:436
-0,251246	0,165105	9,702895	2020-10-13T23:11:36:453
-0,224925	0,200997	9,757930	2020-10-13T23:11:36:474
-0,275175	0,167498	9,707682	2020-10-13T23:11:36:493
-0,210568	0,186640	9,784252	2020-10-13T23:11:36:515
-0,241675	0,212961	9,753145	2020-10-13T23:11:36:533
-0,251246	0,162712	9,688539	2020-10-13T23:11:36:556
-0,248854	0,179462	9,731609	2020-10-13T23:11:36:574
-0,260818	0,169890	9,698111	2020-10-13T23:11:36:596
-0,227318	0,090927	9,765109	2020-10-13T23:11:36:614
-0,232104	0,083749	9,748360	2020-10-13T23:11:36:635
-0,248854	0,224925	9,741181	2020-10-13T23:11:36:654
-0,210568	0,117248	9,731609	2020-10-13T23:11:36:676
-0,251246	0,150748	9,724431	2020-10-13T23:11:36:693
-0,220140	0,208176	9,683753	2020-10-13T23:11:36:715
-0,301496	0,074178	9,793823	2020-10-13T23:11:36:734
-0,220140	0,105284	9,741181	2020-10-13T23:11:36:756
-0,287139	0,136391	9,688539	2020-10-13T23:11:36:774
-0,272782	0,224925	9,748360	2020-10-13T23:11:36:795
-0,246461	0,088534	9,786645	2020-10-13T23:11:36:815
-0,299103	0,095713	9,714860	2020-10-13T23:11:36:835
-0,236889	0,169890	9,738789	2020-10-13T23:11:36:855
-0,253639	0,076570	9,743573	2020-10-13T23:11:36:875
-0,287139	0,224925	9,724431	2020-10-13T23:11:36:894
-0,251246	0,165105	9,717253	2020-10-13T23:11:36:916
-0,244068	0,114855	9,729217	2020-10-13T23:11:36:933
-0,267996	0,141177	9,765109	2020-10-13T23:11:36:955
-0,289532	0,208176	9,750752	2020-10-13T23:11:36:974
-0,229711	0,179462	9,736395	2020-10-13T23:11:36:996
-0,253639	0,153141	9,714860	2020-10-13T23:11:37:015
-0,220140	0,232104	9,750752	2020-10-13T23:11:37:036
-0,258425	0,090927	9,774680	2020-10-13T23:11:37:056
-0,251246	0,160319	9,789038	2020-10-13T23:11:37:076
-0,236889	0,205783	9,753145	2020-10-13T23:11:37:095
-0,301496	0,119641	9,717253	2020-10-13T23:11:37:115
-0,253639	0,208176	9,755538	2020-10-13T23:11:37:133
-0,244068	0,093320	9,719646	2020-10-13T23:11:37:157
-0,244068	0,203390	9,743573	2020-10-13T23:11:37:173
-0,258425	0,189033	9,774680	2020-10-13T23:11:37:195
-0,217747	0,165105	9,755538	2020-10-13T23:11:37:215
-0,287139	0,169890	9,765109	2020-10-13T23:11:37:236
-0,270389	0,162712	9,741181	2020-10-13T23:11:37:255
-0,260818	0,208176	9,702895	2020-10-13T23:11:37:276
-0,270389	0,229711	9,734003	2020-10-13T23:11:37:295
-0,181855	0,124427	9,731609	2020-10-13T23:11:37:316
-0,229711	0,122034	9,777073	2020-10-13T23:11:37:334
-0,265603	0,196211	9,714860	2020-10-13T23:11:37:357
-0,220140	0,119641	9,717253	2020-10-13T23:11:37:374
-0,248854	0,095713	9,741181	2020-10-13T23:11:37:397
-0,220140	0,153141	9,755538	2020-10-13T23:11:37:414
-0,241675	0,148355	9,724431	2020-10-13T23:11:37:436
-0,236889	0,165105	9,755538	2020-10-13T23:11:37:455
-0,275175	0,220140	9,738789	2020-10-13T23:11:37:477
-0,236889	0,184247	9,743573	2020-10-13T23:11:37:494
-0,258425	0,222532	9,750752	2020-10-13T23:11:37:516
-0,260818	0,181855	9,748360	2020-10-13T23:11:37:535
-0,272782	0,212961	9,731609	2020-10-13T23:11:37:557
-0,229711	0,196211	9,741181	2020-10-13T23:11:37:574
-0,294317	0,169890	9,774680	2020-10-13T23:11:37:596
-0,239282	0,186640	9,769895	2020-10-13T23:11:37:614
-0,205783	0,181855	9,695717	2020-10-13T23:11:37:638
-0,236889	0,198604	9,781858	2020-10-13T23:11:37:654
-0,193819	0,203390	9,748360	2020-10-13T23:11:37:676
-0,241675	0,172283	9,762716	2020-10-13T23:11:37:695
-0,282353	0,143569	9,755538	2020-10-13T23:11:37:717
-0,260818	0,102891	9,779467	2020-10-13T23:11:37:734
-0,270389	0,210568	9,667004	2020-10-13T23:11:37:757
-0,244068	0,184247	9,719646	2020-10-13T23:11:37:775
-0,229711	0,141177	9,738789	2020-10-13T23:11:37:798
-0,200997	0,155533	9,748360	2020-10-13T23:11:37:815
-0,229711	0,208176	9,753145	2020-10-13T23:11:37:837
-0,296710	0,229711	9,779467	2020-10-13T23:11:37:855
-0,294317	0,153141	9,734003	2020-10-13T23:11:37:877
-0,313460	0,184247	9,762716	2020-10-13T23:11:37:895
-0,294317	0,220140	9,796216	2020-10-13T23:11:37:918
-0,189033	0,122034	9,793823	2020-10-13T23:11:37:935
-0,229711	0,196211	9,781858	2020-10-13T23:11:37:958
-0,270389	0,244068	9,743573	2020-10-13T23:11:37:975
-0,256032	0,167498	9,765109	2020-10-13T23:11:37:997
-0,315853	0,256032	9,714860	2020-10-13T23:11:38:015
-0,244068	0,179462	9,750752	2020-10-13T23:11:38:038
-0,277567	0,267996	9,719646	2020-10-13T23:11:38:055
-0,270389	0,270389	9,734003	2020-10-13T23:11:38:077
-0,270389	0,184247	9,762716	2020-10-13T23:11:38:096
-0,284746	0,174676	9,801002	2020-10-13T23:11:38:117
-0,217747	0,167498	9,729217	2020-10-13T23:11:38:134
-0,289532	0,157926	9,724431	2020-10-13T23:11:38:157
-0,265603	0,191426	9,748360	2020-10-13T23:11:38:175
-0,239282	0,272782	9,765109	2020-10-13T23:11:38:197
-0,210568	0,224925	9,745967	2020-10-13T23:11:38:215
-0,239282	0,236889	9,793823	2020-10-13T23:11:38:237
-0,265603	0,191426	9,743573	2020-10-13T23:11:38:258
-0,241675	0,162712	9,760324	2020-10-13T23:11:38:277
-0,275175	0,172283	9,755538	2020-10-13T23:11:38:295
-0,236889	0,210568	9,777073	2020-10-13T23:11:38:317
-0,267996	0,212961	9,743573	2020-10-13T23:11:38:335
-0,315853	0,222532	9,750752	2020-10-13T23:11:38:358
-0,227318	0,200997	9,726824	2020-10-13T23:11:38:375
-0,275175	0,210568	9,769895	2020-10-13T23:11:38:397
-0,239282	0,220140	9,760324	2020-10-13T23:11:38:415
-0,248854	0,205783	9,745967	2020-10-13T23:11:38:439
-0,246461	0,177069	9,731609	2020-10-13T23:11:38:455
-0,253639	0,265603	9,741181	2020-10-13T23:11:38:477
-0,212961	0,205783	9,729217	2020-10-13T23:11:38:496
-0,272782	0,191426	9,798609	2020-10-13T23:11:38:517
-0,282353	0,102891	9,755538	2020-10-13T23:11:38:535
-0,234497	0,174676	9,741181	2020-10-13T23:11:38:557
-0,258425	0,181855	9,748360	2020-10-13T23:11:38:575
-0,258425	0,160319	9,760324	2020-10-13T23:11:38:598
-0,251246	0,224925	9,786645	2020-10-13T23:11:38:615
-0,296710	0,145962	9,748360	2020-10-13T23:11:38:637
-0,253639	0,241675	9,805787	2020-10-13T23:11:38:656
-0,212961	0,236889	9,741181	2020-10-13T23:11:38:678
-0,279960	0,212961	9,731609	2020-10-13T23:11:38:695
-0,330210	0,196211	9,757930	2020-10-13T23:11:38:717
-0,279960	0,186640	9,777073	2020-10-13T23:11:38:736
-0,256032	0,184247	9,707682	2020-10-13T23:11:38:758
-0,258425	0,196211	9,755538	2020-10-13T23:11:38:776
-0,215354	0,155533	9,755538	2020-10-13T23:11:38:797
-0,256032	0,189033	9,741181	2020-10-13T23:11:38:816
-0,275175	0,241675	9,738789	2020-10-13T23:11:38:838
-0,313460	0,263210	9,693325	2020-10-13T23:11:38:856
-0,260818	0,198604	9,724431	2020-10-13T23:11:38:877
-0,267996	0,239282	9,808180	2020-10-13T23:11:38:896
-0,172283	0,229711	9,793823	2020-10-13T23:11:38:919
-0,256032	0,095713	9,777073	2020-10-13T23:11:38:936
-0,265603	0,210568	9,781858	2020-10-13T23:11:38:958
-0,220140	0,220140	9,702895	2020-10-13T23:11:38:977
-0,265603	0,222532	9,736395	2020-10-13T23:11:38:998
-0,299103	0,184247	9,719646	2020-10-13T23:11:39:016
-0,251246	0,157926	9,762716	2020-10-13T23:11:39:037
-0,222532	0,260818	9,688539	2020-10-13T23:11:39:056
-0,224925	0,229711	9,741181	2020-10-13T23:11:39:079
-0,220140	0,186640	9,745967	2020-10-13T23:11:39:095
-0,251246	0,150748	9,769895	2020-10-13T23:11:39:117
-0,212961	0,174676	9,786645	2020-10-13T23:11:39:136
-0,267996	0,189033	9,750752	2020-10-13T23:11:39:159
-0,205783	0,208176	9,762716	2020-10-13T23:11:39:176
-0,217747	0,196211	9,717253	2020-10-13T23:11:39:198
-0,251246	0,260818	9,745967	2020-10-13T23:11:39:217
-0,277567	0,232104	9,753145	2020-10-13T23:11:39:238
-0,258425	0,191426	9,731609	2020-10-13T23:11:39:257
-0,258425	0,184247	9,755538	2020-10-13T23:11:39:278
-0,277567	0,186640	9,714860	2020-10-13T23:11:39:296
-0,229711	0,150748	9,767502	2020-10-13T23:11:39:318
-0,260818	0,138784	9,731609	2020-10-13T23:11:39:335
-0,258425	0,212961	9,762716	2020-10-13T23:11:39:360
-0,251246	0,162712	9,741181	2020-10-13T23:11:39:377
-0,313460	0,172283	9,700503	2020-10-13T23:11:39:398
-0,217747	0,184247	9,729217	2020-10-13T23:11:39:416
-0,294317	0,181855	9,769895	2020-10-13T23:11:39:438
-0,215354	0,124427	9,757930	2020-10-13T23:11:39:459
-0,179462	0,174676	9,693325	2020-10-13T23:11:39:479
-0,272782	0,196211	9,741181	2020-10-13T23:11:39:496
-0,256032	0,220140	9,741181	2020-10-13T23:11:39:519
-0,330210	0,119641	9,822537	2020-10-13T23:11:39:536
-0,265603	0,210568	9,832108	2020-10-13T23:11:39:559
-0,258425	0,155533	9,717253	2020-10-13T23:11:39:576
-0,229711	0,177069	9,676575	2020-10-13T23:11:39:598
-0,210568	0,198604	9,784252	2020-10-13T23:11:39:616
-0,284746	0,145962	9,786645	2020-10-13T23:11:39:639
-0,205783	0,229711	9,738789	2020-10-13T23:11:39:656
-0,267996	0,234497	9,757930	2020-10-13T23:11:39:678
-0,227318	0,248854	9,705289	2020-10-13T23:11:39:697
-0,236889	0,189033	9,755538	2020-10-13T23:11:39:719
-0,272782	0,177069	9,734003	2020-10-13T23:11:39:737
-0,224925	0,174676	9,719646	2020-10-13T23:11:39:758
-0,256032	0,088534	9,765109	2020-10-13T23:11:39:776
-0,279960	0,191426	9,748360	2020-10-13T23:11:39:799
-0,301496	0,174676	9,760324	2020-10-13T23:11:39:816
-0,193819	0,172283	9,714860	2020-10-13T23:11:39:838
-0,244068	0,186640	9,745967	2020-10-13T23:11:39:857
-0,282353	0,172283	9,726824	2020-10-13T23:11:39:879
-0,246461	0,117248	9,753145	2020-10-13T23:11:39:896
-0,239282	0,256032	9,760324	2020-10-13T23:11:39:919
-0,232104	0,200997	9,772287	2020-10-13T23:11:39:939
-0,251246	0,191426	9,736395	2020-10-13T23:11:39:959
-0,205783	0,174676	9,722038	2020-10-13T23:11:39:977
-0,267996	0,136391	9,769895	2020-10-13T23:11:39:998
-0,270389	0,193819	9,736395	2020-10-13T23:11:40:016
-0,308674	0,189033	9,750752	2020-10-13T23:11:40:040
-0,227318	0,162712	9,781858	2020-10-13T23:11:40:057
-0,241675	0,193819	9,779467	2020-10-13T23:11:40:083
-0,234497	0,186640	9,757930	2020-10-13T23:11:40:100
-0,267996	0,133998	9,767502	2020-10-13T23:11:40:119
-0,267996	0,086142	9,726824	2020-10-13T23:11:40:137
-0,299103	0,160319	9,762716	2020-10-13T23:11:40:159
-0,265603	0,160319	9,786645	2020-10-13T23:11:40:178
-0,236889	0,203390	9,736395	2020-10-13T23:11:40:200
-0,196211	0,205783	9,681360	2020-10-13T23:11:40:217
-0,236889	0,212961	9,745967	2020-10-13T23:11:40:239
-0,306281	0,212961	9,748360	2020-10-13T23:11:40:258
-0,253639	0,256032	9,700503	2020-10-13T23:11:40:280
-0,263210	0,193819	9,738789	2020-10-13T23:11:40:297
-0,289532	0,200997	9,695717	2020-10-13T23:11:40:319
-0,196211	0,193819	9,731609	2020-10-13T23:11:40:337
-0,232104	0,148355	9,705289	2020-10-13T23:11:40:360
-0,241675	0,217747	9,712467	2020-10-13T23:11:40:377
-0,224925	0,196211	9,719646	2020-10-13T23:11:40:400
-0,332602	0,136391	9,753145	2020-10-13T23:11:40:418
-0,263210	0,145962	9,793823	2020-10-13T23:11:40:440
-0,291924	0,138784	9,791430	2020-10-13T23:11:40:458
-0,289532	0,267996	9,745967	2020-10-13T23:11:40:479
-0,196211	0,198604	9,719646	2020-10-13T23:11:40:497
-0,284746	0,167498	9,671788	2020-10-13T23:11:40:520
-0,272782	0,181855	9,781858	2020-10-13T23:11:40:538
-0,251246	0,196211	9,734003	2020-10-13T23:11:40:559
-0,244068	0,153141	9,774680	2020-10-13T23:11:40:577
-0,296710	0,143569	9,791430	2020-10-13T23:11:40:600
-0,267996	0,184247	9,767502	2020-10-13T23:11:40:617
-0,229711	0,155533	9,767502	2020-10-13T23:11:40:639
-0,205783	0,157926	9,793823	2020-10-13T23:11:40:658
-0,184247	0,181855	9,745967	2020-10-13T23:11:40:680
-0,234497	0,184247	9,741181	2020-10-13T23:11:40:698
-0,282353	0,133998	9,765109	2020-10-13T23:11:40:719
-0,253639	0,217747	9,774680	2020-10-13T23:11:40:738
-0,260818	0,220140	9,729217	2020-10-13T23:11:40:760
-0,270389	0,210568	9,753145	2020-10-13T23:11:40:777
-0,334995	0,184247	9,791430	2020-10-13T23:11:40:799
-0,246461	0,200997	9,686146	2020-10-13T23:11:40:817
-0,279960	0,200997	9,702895	2020-10-13T23:11:40:840
-0,282353	0,193819	9,777073	2020-10-13T23:11:40:858
-0,205783	0,150748	9,729217	2020-10-13T23:11:40:879
-0,236889	0,153141	9,836893	2020-10-13T23:11:40:899
-0,267996	0,107677	9,798609	2020-10-13T23:11:40:920
-0,217747	0,193819	9,760324	2020-10-13T23:11:40:938
-0,272782	0,133998	9,736395	2020-10-13T23:11:40:959
-0,267996	0,172283	9,738789	2020-10-13T23:11:40:978
-0,253639	0,196211	9,784252	2020-10-13T23:11:41:000
-0,299103	0,208176	9,707682	2020-10-13T23:11:41:018
-0,246461	0,162712	9,700503	2020-10-13T23:11:41:040
-0,289532	0,129212	9,743573	2020-10-13T23:11:41:059
-0,232104	0,167498	9,741181	2020-10-13T23:11:41:080
-0,246461	0,186640	9,743573	2020-10-13T23:11:41:098
-0,251246	0,220140	9,700503	2020-10-13T23:11:41:120
-0,236889	0,157926	9,741181	2020-10-13T23:11:41:138
-0,234497	0,162712	9,767502	2020-10-13T23:11:41:161
-0,227318	0,133998	9,781858	2020-10-13T23:11:41:177
-0,229711	0,167498	9,762716	2020-10-13T23:11:41:199
-0,275175	0,253639	9,748360	2020-10-13T23:11:41:217
-0,294317	0,203390	9,777073	2020-10-13T23:11:41:241
-0,217747	0,215354	9,745967	2020-10-13T23:11:41:260
-0,284746	0,184247	9,731609	2020-10-13T23:11:41:279
-0,256032	0,270389	9,736395	2020-10-13T23:11:41:298
-0,260818	0,157926	9,767502	2020-10-13T23:11:41:321
-0,232104	0,215354	9,762716	2020-10-13T23:11:41:338
-0,291924	0,191426	9,726824	2020-10-13T23:11:41:360
-0,294317	0,133998	9,772287	2020-10-13T23:11:41:378
-0,224925	0,145962	9,736395	2020-10-13T23:11:41:400
-0,260818	0,212961	9,736395	2020-10-13T23:11:41:417
-0,179462	0,196211	9,738789	2020-10-13T23:11:41:439
-0,200997	0,205783	9,755538	2020-10-13T23:11:41:458
-0,272782	0,088534	9,741181	2020-10-13T23:11:41:481
-0,251246	0,119641	9,779467	2020-10-13T23:11:41:498
-0,256032	0,174676	9,762716	2020-10-13T23:11:41:519
-0,229711	0,186640	9,750752	2020-10-13T23:11:41:538
-0,248854	0,162712	9,767502	2020-10-13T23:11:41:561
-0,236889	0,189033	9,789038	2020-10-13T23:11:41:578
-0,296710	0,236889	9,729217	2020-10-13T23:11:41:600
-0,241675	0,244068	9,777073	2020-10-13T23:11:41:619
-0,289532	0,172283	9,743573	2020-10-13T23:11:41:641
-0,299103	0,179462	9,784252	2020-10-13T23:11:41:659
-0,241675	0,119641	9,738789	2020-10-13T23:11:41:680
-0,260818	0,131605	9,738789	2020-10-13T23:11:41:698
-0,284746	0,167498	9,741181	2020-10-13T23:11:41:721
-0,239282	0,162712	9,769895	2020-10-13T23:11:41:738
-0,232104	0,153141	9,781858	2020-10-13T23:11:41:760
-0,234497	0,177069	9,698111	2020-10-13T23:11:41:778
-0,236889	0,150748	9,686146	2020-10-13T23:11:41:801
-0,289532	0,234497	9,736395	2020-10-13T23:11:41:819
-0,303888	0,184247	9,767502	2020-10-13T23:11:41:840
-0,222532	0,191426	9,748360	2020-10-13T23:11:41:859
-0,253639	0,162712	9,745967	2020-10-13T23:11:41:880
-0,227318	0,191426	9,717253	2020-10-13T23:11:41:899
-0,282353	0,174676	9,719646	2020-10-13T23:11:41:920
-0,229711	0,227318	9,707682	2020-10-13T23:11:41:938
-0,263210	0,191426	9,779467	2020-10-13T23:11:41:961
-0,267996	0,189033	9,729217	2020-10-13T23:11:41:979
-0,234497	0,179462	9,702895	2020-10-13T23:11:42:000
-0,267996	0,267996	9,760324	2020-10-13T23:11:42:020
-0,200997	0,200997	9,690931	2020-10-13T23:11:42:041
-0,260818	0,160319	9,743573	2020-10-13T23:11:42:060
-0,244068	0,232104	9,731609	2020-10-13T23:11:42:081
-0,248854	0,196211	9,722038	2020-10-13T23:11:42:100
-0,229711	0,114855	9,743573	2020-10-13T23:11:42:121
-0,260818	0,126820	9,777073	2020-10-13T23:11:42:139
-0,267996	0,153141	9,772287	2020-10-13T23:11:42:161
-0,224925	0,160319	9,724431	2020-10-13T23:11:42:178
-0,241675	0,258425	9,719646	2020-10-13T23:11:42:201
-0,260818	0,179462	9,765109	2020-10-13T23:11:42:219
-0,205783	0,153141	9,791430	2020-10-13T23:11:42:240
-0,244068	0,227318	9,745967	2020-10-13T23:11:42:260
-0,320638	0,172283	9,772287	2020-10-13T23:11:42:281
-0,287139	0,186640	9,791430	2020-10-13T23:11:42:299
-0,232104	0,227318	9,729217	2020-10-13T23:11:42:321
-0,241675	0,157926	9,798609	2020-10-13T23:11:42:341
-0,296710	0,215354	9,786645	2020-10-13T23:11:42:362
-0,287139	0,234497	9,741181	2020-10-13T23:11:42:379
-0,198604	0,253639	9,748360	2020-10-13T23:11:42:400
-0,244068	0,318245	9,765109	2020-10-13T23:11:42:419
-0,246461	0,189033	9,786645	2020-10-13T23:11:42:442
-0,232104	0,150748	9,741181	2020-10-13T23:11:42:460
-0,215354	0,138784	9,789038	2020-10-13T23:11:42:481
-0,284746	0,074178	9,745967	2020-10-13T23:11:42:500
-0,239282	0,241675	9,745967	2020-10-13T23:11:42:522
-0,246461	0,124427	9,784252	2020-10-13T23:11:42:539
-0,251246	0,160319	9,786645	2020-10-13T23:11:42:561
-0,287139	0,224925	9,750752	2020-10-13T23:11:42:580
-0,251246	0,191426	9,750752	2020-10-13T23:11:42:601
-0,244068	0,186640	9,741181	2020-10-13T23:11:42:620
-0,291924	0,172283	9,769895	2020-10-13T23:11:42:641
-0,265603	0,162712	9,772287	2020-10-13T23:11:42:660
-0,241675	0,222532	9,700503	2020-10-13T23:11:42:682
-0,208176	0,181855	9,755538	2020-10-13T23:11:42:699
-0,212961	0,086142	9,698111	2020-10-13T23:11:42:721
-0,241675	0,110070	9,755538	2020-10-13T23:11:42:740
-0,256032	0,150748	9,784252	2020-10-13T23:11:42:762
-0,260818	0,148355	9,774680	2020-10-13T23:11:42:779
-0,253639	0,236889	9,724431	2020-10-13T23:11:42:802
-0,246461	0,160319	9,738789	2020-10-13T23:11:42:822
-0,267996	0,227318	9,748360	2020-10-13T23:11:42:843
-0,267996	0,210568	9,755538	2020-10-13T23:11:42:861
-0,186640	0,160319	9,717253	2020-10-13T23:11:42:881
-0,208176	0,153141	9,755538	2020-10-13T23:11:42:899
-0,222532	0,157926	9,801002	2020-10-13T23:11:42:922
-0,260818	0,136391	9,801002	2020-10-13T23:11:42:939
-0,251246	0,160319	9,734003	2020-10-13T23:11:42:961
-0,239282	0,119641	9,769895	2020-10-13T23:11:42:980
-0,227318	0,172283	9,738789	2020-10-13T23:11:43:002
-0,251246	0,172283	9,707682	2020-10-13T23:11:43:020
-0,272782	0,167498	9,731609	2020-10-13T23:11:43:041
-0,232104	0,129212	9,695717	2020-10-13T23:11:43:061
-0,248854	0,119641	9,796216	2020-10-13T23:11:43:082
-0,277567	0,141177	9,743573	2020-10-13T23:11:43:100
-0,251246	0,145962	9,755538	2020-10-13T23:11:43:121
-0,212961	0,119641	9,705289	2020-10-13T23:11:43:140
-0,313460	0,083749	9,760324	2020-10-13T23:11:43:163
-0,229711	0,150748	9,717253	2020-10-13T23:11:43:180
-0,229711	0,141177	9,693325	2020-10-13T23:11:43:201
-0,239282	0,165105	9,767502	2020-10-13T23:11:43:220
-0,301496	0,122034	9,738789	2020-10-13T23:11:43:242
-0,267996	0,105284	9,712467	2020-10-13T23:11:43:260
-0,246461	0,205783	9,760324	2020-10-13T23:11:43:281
-0,258425	0,165105	9,796216	2020-10-13T23:11:43:301
-0,248854	0,136391	9,769895	2020-10-13T23:11:43:322
-0,306281	0,165105	9,738789	2020-10-13T23:11:43:340
-0,189033	0,191426	9,714860	2020-10-13T23:11:43:362
-0,246461	0,148355	9,734003	2020-10-13T23:11:43:380
-0,227318	0,193819	9,760324	2020-10-13T23:11:43:402
-0,275175	0,165105	9,738789	2020-10-13T23:11:43:420
-0,282353	0,129212	9,729217	2020-10-13T23:11:43:441
-0,217747	0,107677	9,784252	2020-10-13T23:11:43:461
-0,246461	0,160319	9,734003	2020-10-13T23:11:43:482
-0,210568	0,181855	9,724431	2020-10-13T23:11:43:501
-0,200997	0,155533	9,736395	2020-10-13T23:11:43:522
-0,299103	0,191426	9,793823	2020-10-13T23:11:43:541
-0,246461	0,162712	9,736395	2020-10-13T23:11:43:563
-0,272782	0,157926	9,760324	2020-10-13T23:11:43:580
-0,215354	0,179462	9,726824	2020-10-13T23:11:43:601
-0,248854	0,143569	9,726824	2020-10-13T23:11:43:620
-0,301496	0,203390	9,762716	2020-10-13T23:11:43:643
-0,212961	0,131605	9,772287	2020-10-13T23:11:43:660
-0,275175	0,122034	9,753145	2020-10-13T23:11:43:681
-0,229711	0,057428	9,734003	2020-10-13T23:11:43:700
