x	y	z	ts
-0,633812	1,947264	0,009084	2020-10-13T23:10:57:745
-0,028857	0,106715	-0,032534	2020-10-13T23:10:57:745
-0,010619	0,079918	-0,053807	2020-10-13T23:10:57:745
-0,056599	-0,000812	-0,066473	2020-10-13T23:10:57:746
-0,065495	0,071878	-0,104632	2020-10-13T23:10:57:746
-0,071668	0,023893	-0,118707	2020-10-13T23:10:57:747
-0,024569	0,128487	-0,044310	2020-10-13T23:10:57:747
-0,033105	-0,018722	-0,070343	2020-10-13T23:10:57:753
-0,000479	0,034930	-0,077534	2020-10-13T23:10:57:786
-0,005326	0,058598	-0,060666	2020-10-13T23:10:57:796
-0,017149	0,056524	-0,062964	2020-10-13T23:10:57:816
-0,002153	0,139394	-0,038875	2020-10-13T23:10:57:835
-0,010074	0,017586	-0,090929	2020-10-13T23:10:57:855
0,001890	0,063049	-0,078965	2020-10-13T23:10:57:876
-0,096518	-0,133939	-0,048611	2020-10-13T23:10:57:896
-0,091703	-0,180126	-0,068055	2020-10-13T23:10:57:915
-0,048222	-0,141743	-0,090075	2020-10-13T23:10:57:935
-0,057592	-0,175371	-0,049770	2020-10-13T23:10:57:955
-0,006591	-0,196569	-0,083795	2020-10-13T23:10:57:975
-0,020280	-0,162097	-0,067653	2020-10-13T23:10:57:996
0,036285	-0,044464	-0,060880	2020-10-13T23:10:58:015
-0,053906	-0,062887	-0,063353	2020-10-13T23:10:58:035
0,025230	-0,053000	-0,073021	2020-10-13T23:10:58:055
-0,028702	0,028253	-0,092325	2020-10-13T23:10:58:075
-0,039196	-0,143352	-0,075442	2020-10-13T23:10:58:095
-0,051586	-0,087862	-0,078225	2020-10-13T23:10:58:116
-0,029669	-0,057874	-0,083152	2020-10-13T23:10:58:136
-0,037628	-0,017930	-0,104743	2020-10-13T23:10:58:155
0,035864	-0,010954	-0,123833	2020-10-13T23:10:58:175
0,024905	0,023518	-0,054394	2020-10-13T23:10:58:195
-0,005233	-0,009137	-0,039984	2020-10-13T23:10:58:216
-0,006901	0,005103	-0,068323	2020-10-13T23:10:58:236
0,002670	0,072103	-0,120965	2020-10-13T23:10:58:256
-0,083209	-0,127144	-0,065891	2020-10-13T23:10:58:275
-0,122632	-0,391723	0,017424	2020-10-13T23:10:58:296
-0,149245	-0,469268	-0,024805	2020-10-13T23:10:58:316
-0,009123	0,008728	-0,070215	2020-10-13T23:10:58:337
0,069840	0,238439	-0,065429	2020-10-13T23:10:58:355
0,104803	0,256344	-0,103384	2020-10-13T23:10:58:376
0,076545	0,344819	-0,095776	2020-10-13T23:10:58:395
0,066033	0,255240	-0,164650	2020-10-13T23:10:58:416
0,009701	0,086898	-0,027826	2020-10-13T23:10:58:435
0,111144	0,015738	0,003304	2020-10-13T23:10:58:455
0,087931	0,026924	-0,164446	2020-10-13T23:10:58:476
0,002755	0,235319	-0,032870	2020-10-13T23:10:58:496
0,049389	0,162667	-0,082592	2020-10-13T23:10:58:516
0,059827	0,101791	-0,168452	2020-10-13T23:10:58:536
0,099569	0,042848	-0,084642	2020-10-13T23:10:58:555
0,034448	0,041738	-0,022533	2020-10-13T23:10:58:576
0,039247	0,021626	-0,044096	2020-10-13T23:10:58:596
-0,037118	0,023538	-0,091994	2020-10-13T23:10:58:617
-0,044919	0,012916	0,032524	2020-10-13T23:10:58:635
0,047431	-0,010986	-0,010507	2020-10-13T23:10:58:656
0,045296	0,050950	-0,156517	2020-10-13T23:10:58:676
-0,021502	0,095610	-0,029628	2020-10-13T23:10:58:696
0,067713	0,105448	-0,070100	2020-10-13T23:10:58:717
0,016228	0,080910	-0,065289	2020-10-13T23:10:58:736
0,010259	0,054422	-0,091535	2020-10-13T23:10:58:755
-0,014270	0,135512	-0,072295	2020-10-13T23:10:58:777
0,022299	0,066757	-0,064819	2020-10-13T23:10:58:797
0,006821	0,109324	-0,074296	2020-10-13T23:10:58:816
0,068597	0,049493	-0,105206	2020-10-13T23:10:58:837
0,024390	-0,001859	-0,059787	2020-10-13T23:10:58:856
0,020280	-0,033995	-0,083820	2020-10-13T23:10:58:880
-0,002959	0,021460	-0,043309	2020-10-13T23:10:58:907
-0,031936	0,016181	-0,086366	2020-10-13T23:10:58:919
0,069927	0,015148	-0,074321	2020-10-13T23:10:58:936
-0,009975	0,035722	-0,024117	2020-10-13T23:10:58:958
-0,009550	-0,014135	-0,028804	2020-10-13T23:10:58:978
0,010060	0,069763	-0,045547	2020-10-13T23:10:58:999
0,021823	0,015644	-0,031025	2020-10-13T23:10:59:019
0,028026	0,090998	-0,042960	2020-10-13T23:10:59:039
-0,011839	0,049629	-0,071577	2020-10-13T23:10:59:058
0,071947	-0,040154	-0,064342	2020-10-13T23:10:59:080
0,036661	0,072790	0,019172	2020-10-13T23:10:59:099
-0,077292	0,052063	-0,129043	2020-10-13T23:10:59:119
0,024716	-0,074214	-0,049789	2020-10-13T23:10:59:139
0,018490	0,020469	-0,011710	2020-10-13T23:10:59:159
-0,011720	0,039894	-0,071581	2020-10-13T23:10:59:178
-0,023503	-0,004118	-0,038034	2020-10-13T23:10:59:200
-0,008336	0,066269	-0,069166	2020-10-13T23:10:59:219
0,033525	0,032988	-0,016287	2020-10-13T23:10:59:239
0,008308	0,030349	-0,030557	2020-10-13T23:10:59:259
-0,006308	0,005185	-0,052041	2020-10-13T23:10:59:280
0,006970	-0,005029	-0,069687	2020-10-13T23:10:59:299
0,042862	-0,088778	-0,103187	2020-10-13T23:10:59:320
-0,076919	0,094204	-0,100318	2020-10-13T23:10:59:340
-0,015991	0,103132	-0,049803	2020-10-13T23:10:59:359
-0,041281	0,001938	-0,078294	2020-10-13T23:10:59:379
-0,019989	0,091506	-0,116486	2020-10-13T23:10:59:399
-0,028534	0,048617	-0,063648	2020-10-13T23:10:59:419
-0,032082	0,069309	-0,056322	2020-10-13T23:10:59:440
0,008630	-0,015017	-0,062539	2020-10-13T23:10:59:459
0,051701	-0,058088	-0,064932	2020-10-13T23:10:59:480
-0,004510	-0,003855	-0,047603	2020-10-13T23:10:59:499
-0,016474	0,072716	-0,064353	2020-10-13T23:10:59:520
0,051828	-0,000497	-0,096478	2020-10-13T23:10:59:538
0,071489	0,023538	-0,012667	2020-10-13T23:10:59:560
-0,001378	-0,078703	-0,058136	2020-10-13T23:10:59:580
-0,031893	0,005771	-0,098948	2020-10-13T23:10:59:599
-0,054004	0,025783	-0,067723	2020-10-13T23:10:59:619
0,015854	-0,019678	-0,079498	2020-10-13T23:10:59:639
0,015175	-0,016633	-0,053226	2020-10-13T23:10:59:659
-0,009449	-0,061514	-0,038915	2020-10-13T23:10:59:680
0,019687	0,020781	-0,022314	2020-10-13T23:10:59:699
0,064273	-0,007256	-0,062933	2020-10-13T23:10:59:720
-0,015461	0,002027	-0,055822	2020-10-13T23:10:59:739
0,008975	-0,017318	-0,062978	2020-10-13T23:10:59:760
0,053990	-0,114994	-0,082152	2020-10-13T23:10:59:779
0,005852	-0,019019	-0,022640	2020-10-13T23:10:59:800
-0,003826	0,038572	-0,065722	2020-10-13T23:10:59:820
0,032410	-0,021225	-0,036886	2020-10-13T23:10:59:840
0,014465	-0,025636	-0,118290	2020-10-13T23:10:59:859
0,064172	0,008597	-0,025019	2020-10-13T23:10:59:881
-0,039687	-0,078285	-0,017889	2020-10-13T23:10:59:899
0,088721	-0,024091	-0,123321	2020-10-13T23:10:59:921
-0,011490	0,018818	-0,068389	2020-10-13T23:10:59:939
0,053718	0,017704	-0,056358	2020-10-13T23:10:59:960
0,017519	-0,016631	-0,051598	2020-10-13T23:10:59:980
-0,047920	0,015089	-0,099504	2020-10-13T23:11:00:001
0,000693	-0,007798	-0,013847	2020-10-13T23:11:00:020
0,019836	0,028094	-0,040169	2020-10-13T23:11:00:040
0,034571	-0,037717	-0,022607	2020-10-13T23:11:00:060
0,007264	0,070425	-0,008298	2020-10-13T23:11:00:081
0,013694	-0,078511	-0,065608	2020-10-13T23:11:00:099
0,043387	-0,001255	-0,051542	2020-10-13T23:11:00:121
0,014531	-0,084500	-0,068384	2020-10-13T23:11:00:139
0,030221	0,001748	-0,051886	2020-10-13T23:11:00:161
0,045209	0,047304	-0,018437	2020-10-13T23:11:00:179
0,018937	-0,068006	-0,042297	2020-10-13T23:11:00:200
-0,003562	-0,006308	-0,085570	2020-10-13T23:11:00:220
0,022760	-0,068522	-0,095142	2020-10-13T23:11:00:240
-0,014533	0,031484	-0,055628	2020-10-13T23:11:00:259
-0,004729	-0,001162	-0,069174	2020-10-13T23:11:00:281
0,000057	-0,094483	-0,071567	2020-10-13T23:11:00:300
0,013847	-0,027041	-0,030241	2020-10-13T23:11:00:321
-0,027617	-0,001514	-0,047075	2020-10-13T23:11:00:340
-0,045384	0,019714	-0,037458	2020-10-13T23:11:00:360
0,031194	0,055561	-0,121046	2020-10-13T23:11:00:380
0,027779	0,044007	-0,022785	2020-10-13T23:11:00:401
0,045973	0,007338	-0,034640	2020-10-13T23:11:00:420
-0,013404	-0,013476	-0,048975	2020-10-13T23:11:00:440
-0,020002	0,043854	-0,034599	2020-10-13T23:11:00:460
-0,003963	0,069475	-0,048783	2020-10-13T23:11:00:481
0,015515	0,006081	-0,070158	2020-10-13T23:11:00:500
0,038651	-0,006441	-0,012727	2020-10-13T23:11:00:521
0,063229	0,064853	-0,074962	2020-10-13T23:11:00:540
0,000516	0,044679	-0,007886	2020-10-13T23:11:00:561
0,033817	0,009614	-0,065251	2020-10-13T23:11:00:580
0,008090	0,021498	-0,082041	2020-10-13T23:11:00:601
0,028634	-0,023615	0,001668	2020-10-13T23:11:00:620
0,036163	-0,067181	-0,082211	2020-10-13T23:11:00:641
-0,008790	-0,158242	-0,053640	2020-10-13T23:11:00:659
-0,000886	-0,011817	-0,034806	2020-10-13T23:11:00:681
0,028364	0,019779	-0,044284	2020-10-13T23:11:00:700
-0,065798	0,147896	-0,127904	2020-10-13T23:11:00:722
0,001968	-0,010520	-0,105818	2020-10-13T23:11:00:741
-0,067424	0,011016	-0,055568	2020-10-13T23:11:00:761
0,008942	-0,057901	-0,045577	2020-10-13T23:11:00:781
0,078066	-0,040063	-0,074489	2020-10-13T23:11:00:801
0,042904	-0,055495	-0,053288	2020-10-13T23:11:00:820
0,135385	-0,054008	-0,032193	2020-10-13T23:11:00:841
0,124444	-0,188465	0,000678	2020-10-13T23:11:00:860
0,093155	-0,195856	-0,028874	2020-10-13T23:11:00:882
0,004715	-0,115990	-0,084582	2020-10-13T23:11:00:900
0,062620	-0,126188	-0,058455	2020-10-13T23:11:00:922
0,029179	-0,036275	-0,051533	2020-10-13T23:11:00:940
0,073855	-0,077306	-0,085038	2020-10-13T23:11:00:961
0,113258	-0,136180	-0,068563	2020-10-13T23:11:00:981
0,025932	-0,156228	-0,023581	2020-10-13T23:11:01:002
-0,008092	0,005752	-0,063926	2020-10-13T23:11:01:022
0,018229	0,132572	-0,087854	2020-10-13T23:11:01:041
-0,072410	-0,042348	-0,089622	2020-10-13T23:11:01:060
-0,054494	-0,029605	-0,077618	2020-10-13T23:11:01:082
-0,025578	-0,098361	-0,046485	2020-10-13T23:11:01:100
-0,043173	-0,084536	-0,039481	2020-10-13T23:11:01:122
-0,036041	-0,021001	-0,037216	2020-10-13T23:11:01:140
-0,031831	-0,030206	-0,092227	2020-10-13T23:11:01:161
0,017592	-0,045640	-0,039613	2020-10-13T23:11:01:181
-0,036197	-0,095874	-0,013433	2020-10-13T23:11:01:202
0,025380	-0,060517	-0,106917	2020-10-13T23:11:01:221
0,026676	-0,035180	-0,107009	2020-10-13T23:11:01:242
-0,008179	-0,065257	-0,047267	2020-10-13T23:11:01:262
-0,015178	0,010330	0,009986	2020-10-13T23:11:01:282
-0,017010	-0,035239	-0,059388	2020-10-13T23:11:01:301
-0,087903	0,056989	-0,088142	2020-10-13T23:11:01:322
-0,023697	-0,102683	-0,099812	2020-10-13T23:11:01:340
-0,007778	-0,029049	-0,078440	2020-10-13T23:11:01:362
-0,019334	-0,019118	-0,037768	2020-10-13T23:11:01:381
-0,023273	-0,081079	-0,028190	2020-10-13T23:11:01:402
-0,015163	-0,007621	-0,023571	2020-10-13T23:11:01:421
-0,033769	0,002940	-0,076245	2020-10-13T23:11:01:442
-0,036846	-0,055242	-0,097706	2020-10-13T23:11:01:460
-0,036937	0,022323	-0,078553	2020-10-13T23:11:01:483
-0,051811	0,004013	-0,052114	2020-10-13T23:11:01:502
-0,023244	0,001076	-0,037678	2020-10-13T23:11:01:522
0,016083	-0,047527	-0,075903	2020-10-13T23:11:01:540
-0,020624	0,057814	-0,071251	2020-10-13T23:11:01:562
0,040010	-0,037531	-0,075923	2020-10-13T23:11:01:581
-0,062333	-0,071412	-0,042562	2020-10-13T23:11:01:603
0,007824	0,011228	-0,088117	2020-10-13T23:11:01:621
-0,004513	-0,038715	-0,114461	2020-10-13T23:11:01:642
-0,057219	-0,119471	-0,035637	2020-10-13T23:11:01:661
0,017466	-0,041155	-0,102858	2020-10-13T23:11:01:682
-0,002361	0,010126	-0,064635	2020-10-13T23:11:01:700
-0,011663	0,018220	-0,014313	2020-10-13T23:11:01:722
0,017626	0,002380	-0,059695	2020-10-13T23:11:01:741
-0,002260	-0,029676	-0,107529	2020-10-13T23:11:01:762
-0,023443	-0,062547	-0,019013	2020-10-13T23:11:01:780
-0,000281	-0,012323	-0,057364	2020-10-13T23:11:01:802
0,042991	-0,077505	-0,074083	2020-10-13T23:11:01:820
-0,011966	0,052918	-0,050374	2020-10-13T23:11:01:842
-0,009231	0,008774	-0,044240	2020-10-13T23:11:01:860
-0,035552	-0,082153	-0,096882	2020-10-13T23:11:01:882
-0,005020	-0,004431	-0,089050	2020-10-13T23:11:01:901
-0,064841	0,098460	-0,055552	2020-10-13T23:11:01:923
0,018115	-0,002190	-0,081196	2020-10-13T23:11:01:940
0,007878	-0,041260	-0,085965	2020-10-13T23:11:01:961
0,021777	-0,056728	-0,100390	2020-10-13T23:11:01:981
0,049579	-0,055020	-0,086133	2020-10-13T23:11:02:003
0,015506	0,029468	-0,043278	2020-10-13T23:11:02:021
0,023712	0,040983	-0,086365	2020-10-13T23:11:02:042
-0,008579	0,029644	-0,012143	2020-10-13T23:11:02:060
0,015679	-0,091997	-0,112546	2020-10-13T23:11:02:089
-0,018402	-0,095007	-0,028994	2020-10-13T23:11:02:103
-0,008464	0,019421	-0,070914	2020-10-13T23:11:02:127
-0,101538	-0,027366	-0,099491	2020-10-13T23:11:02:142
-0,084788	-0,058473	-0,099491	2020-10-13T23:11:02:166
0,033552	-0,018383	-0,021126	2020-10-13T23:11:02:180
-0,045105	0,028824	-0,040389	2020-10-13T23:11:02:202
0,026655	0,000643	-0,045042	2020-10-13T23:11:02:222
0,008417	0,035706	-0,016331	2020-10-13T23:11:02:242
0,000789	-0,008739	-0,036035	2020-10-13T23:11:02:261
-0,008782	-0,018310	-0,069533	2020-10-13T23:11:02:282
-0,003996	-0,002225	-0,090574	2020-10-13T23:11:02:301
-0,015960	-0,095545	-0,090574	2020-10-13T23:11:02:323
0,069626	-0,061263	-0,077487	2020-10-13T23:11:02:340
0,056250	-0,052839	-0,020312	2020-10-13T23:11:02:362
0,036866	-0,026858	-0,106608	2020-10-13T23:11:02:381
0,008705	0,004415	-0,104272	2020-10-13T23:11:02:402
0,030143	0,041568	-0,015694	2020-10-13T23:11:02:421
0,043207	-0,056771	-0,087408	2020-10-13T23:11:02:442
0,084200	0,027331	-0,092360	2020-10-13T23:11:02:461
-0,018142	-0,013226	-0,135451	2020-10-13T23:11:02:482
-0,000377	0,017765	-0,089956	2020-10-13T23:11:02:500
-0,031169	0,015977	0,010623	2020-10-13T23:11:02:523
0,018209	-0,040148	-0,101755	2020-10-13T23:11:02:540
0,021914	0,059561	-0,039636	2020-10-13T23:11:02:563
-0,024800	-0,020334	-0,080211	2020-10-13T23:11:02:581
0,021686	0,036328	-0,073072	2020-10-13T23:11:02:603
-0,002034	-0,003592	-0,040709	2020-10-13T23:11:02:622
0,055394	-0,063413	-0,102923	2020-10-13T23:11:02:643
0,063134	0,055341	-0,037917	2020-10-13T23:11:02:661
0,055936	-0,054095	-0,023460	2020-10-13T23:11:02:684
0,098961	0,021556	-0,100166	2020-10-13T23:11:02:701
0,080070	0,089166	-0,071515	2020-10-13T23:11:02:723
0,054651	0,025223	-0,083419	2020-10-13T23:11:02:741
0,099955	0,026255	-0,011652	2020-10-13T23:11:02:763
0,037412	-0,068347	-0,071566	2020-10-13T23:11:02:781
0,044967	0,042929	-0,055027	2020-10-13T23:11:02:804
-0,011805	0,016194	-0,043451	2020-10-13T23:11:02:823
-0,002234	0,040122	-0,014738	2020-10-13T23:11:02:843
-0,025999	0,023376	-0,065681	2020-10-13T23:11:02:861
-0,034013	-0,041098	-0,082295	2020-10-13T23:11:02:884
-0,039122	0,000432	-0,051173	2020-10-13T23:11:02:901
-0,015349	0,032329	-0,101297	2020-10-13T23:11:02:924
0,007983	-0,015799	-0,076714	2020-10-13T23:11:02:944
0,010376	-0,011013	-0,031250	2020-10-13T23:11:02:963
-0,042265	0,024960	-0,007984	2020-10-13T23:11:02:982
0,087150	0,042207	-0,053301	2020-10-13T23:11:03:004
0,030890	0,059569	-0,093891	2020-10-13T23:11:03:021
0,005807	0,062289	-0,045870	2020-10-13T23:11:03:043
-0,001409	0,003313	-0,057662	2020-10-13T23:11:03:061
0,013253	0,076033	-0,112625	2020-10-13T23:11:03:083
-0,012855	-0,005905	-0,105202	2020-10-13T23:11:03:101
-0,002324	0,005884	-0,009457	2020-10-13T23:11:03:123
0,088746	-0,076032	-0,064464	2020-10-13T23:11:03:141
0,046384	0,028996	-0,110125	2020-10-13T23:11:03:163
0,003691	0,022081	-0,011973	2020-10-13T23:11:03:182
-0,087539	-0,101128	-0,083712	2020-10-13T23:11:03:203
0,021784	-0,047747	-0,074288	2020-10-13T23:11:03:222
0,061170	-0,086105	-0,026567	2020-10-13T23:11:03:243
-0,056777	-0,034778	-0,084223	2020-10-13T23:11:03:261
0,018057	0,003093	-0,093701	2020-10-13T23:11:03:284
0,007794	-0,014611	-0,060454	2020-10-13T23:11:03:302
0,003009	0,083494	-0,041312	2020-10-13T23:11:03:324
0,022488	-0,088065	-0,011016	2020-10-13T23:11:03:341
0,001859	-0,056999	-0,104618	2020-10-13T23:11:03:363
0,011062	-0,104442	-0,047342	2020-10-13T23:11:03:381
-0,015590	-0,061682	-0,088255	2020-10-13T23:11:03:404
0,004474	-0,051908	-0,028541	2020-10-13T23:11:03:423
0,057054	-0,154307	-0,062186	2020-10-13T23:11:03:443
-0,060730	-0,067259	-0,014802	2020-10-13T23:11:03:461
-0,050477	-0,047796	-0,072285	2020-10-13T23:11:03:484
0,021616	-0,049038	-0,086628	2020-10-13T23:11:03:501
0,008875	-0,005005	-0,026875	2020-10-13T23:11:03:524
0,000987	-0,008266	-0,032151	2020-10-13T23:11:03:542
0,034487	-0,027408	-0,053686	2020-10-13T23:11:03:564
0,022989	-0,002661	-0,091705	2020-10-13T23:11:03:582
0,076837	-0,074986	-0,034284	2020-10-13T23:11:03:604
0,008475	-0,090999	-0,012993	2020-10-13T23:11:03:622
0,043909	0,014092	-0,051506	2020-10-13T23:11:03:644
-0,006022	-0,064125	-0,096946	2020-10-13T23:11:03:663
0,039549	-0,022542	-0,025312	2020-10-13T23:11:03:684
-0,043966	-0,017348	-0,061279	2020-10-13T23:11:03:702
0,032566	-0,072728	-0,113845	2020-10-13T23:11:03:724
-0,019318	-0,054511	-0,042281	2020-10-13T23:11:03:741
-0,009112	-0,039236	-0,066347	2020-10-13T23:11:03:764
0,057784	-0,019796	-0,054508	2020-10-13T23:11:03:782
-0,029144	-0,080433	-0,042696	2020-10-13T23:11:03:804
-0,039460	-0,071347	-0,011744	2020-10-13T23:11:03:823
-0,001685	-0,012404	-0,052549	2020-10-13T23:11:03:844
0,046047	0,035454	-0,040588	2020-10-13T23:11:03:862
0,014801	0,005047	-0,038183	2020-10-13T23:11:03:886
0,020609	0,034876	-0,043054	2020-10-13T23:11:03:903
-0,050492	-0,015061	-0,038324	2020-10-13T23:11:03:924
-0,050908	-0,042419	-0,045514	2020-10-13T23:11:03:942
0,051868	0,014983	-0,093419	2020-10-13T23:11:03:965
-0,000917	-0,000881	-0,074273	2020-10-13T23:11:03:982
-0,020240	-0,045973	-0,100615	2020-10-13T23:11:04:004
0,033637	0,001731	-0,016935	2020-10-13T23:11:04:022
-0,004077	-0,121505	-0,079247	2020-10-13T23:11:04:045
0,031883	-0,047738	-0,041256	2020-10-13T23:11:04:062
-0,025140	-0,115005	-0,060539	2020-10-13T23:11:04:084
-0,009507	-0,060817	-0,065566	2020-10-13T23:11:04:102
-0,016269	0,023042	-0,072841	2020-10-13T23:11:04:126
0,030081	-0,021914	-0,130166	2020-10-13T23:11:04:143
0,019277	-0,019171	-0,067998	2020-10-13T23:11:04:164
-0,029745	-0,077733	-0,072866	2020-10-13T23:11:04:183
-0,007173	-0,110726	-0,094598	2020-10-13T23:11:04:205
0,033809	-0,008880	-0,037419	2020-10-13T23:11:04:223
-0,023713	-0,052845	-0,035148	2020-10-13T23:11:04:245
-0,011000	0,016038	0,014647	2020-10-13T23:11:04:263
-0,075606	0,059109	-0,100210	2020-10-13T23:11:04:285
0,026868	-0,038015	-0,001974	2020-10-13T23:11:04:303
-0,020390	-0,056920	-0,045224	2020-10-13T23:11:04:325
-0,007005	0,001935	-0,104267	2020-10-13T23:11:04:343
-0,035719	0,006721	-0,046840	2020-10-13T23:11:04:365
-0,018022	-0,008938	-0,057646	2020-10-13T23:11:04:383
0,023265	0,030103	-0,057660	2020-10-13T23:11:04:404
-0,014018	-0,037818	-0,124660	2020-10-13T23:11:04:423
0,007997	-0,111827	-0,024247	2020-10-13T23:11:04:445
-0,004285	-0,031564	-0,048413	2020-10-13T23:11:04:464
0,029468	-0,064104	-0,069979	2020-10-13T23:11:04:485
0,068810	0,003416	-0,041407	2020-10-13T23:11:04:502
-0,016117	0,029511	-0,031914	2020-10-13T23:11:04:526
0,039261	0,030303	-0,113201	2020-10-13T23:11:04:548
-0,001106	-0,017135	-0,082070	2020-10-13T23:11:04:565
0,013333	0,076880	-0,031845	2020-10-13T23:11:04:583
0,017146	0,006909	-0,098755	2020-10-13T23:11:04:606
-0,015284	-0,064359	-0,113163	2020-10-13T23:11:04:624
-0,029201	-0,020616	-0,022341	2020-10-13T23:11:04:650
-0,018073	0,009100	-0,022342	2020-10-13T23:11:04:671
-0,003613	-0,004580	-0,118275	2020-10-13T23:11:04:686
-0,025149	-0,030901	-0,058454	2020-10-13T23:11:04:702
-0,058516	0,021783	-0,063778	2020-10-13T23:11:04:725
-0,046489	0,042274	-0,058900	2020-10-13T23:11:04:742
-0,044512	0,059404	-0,075532	2020-10-13T23:11:04:765
-0,028326	0,001602	-0,094531	2020-10-13T23:11:04:783
-0,060636	0,013912	-0,051445	2020-10-13T23:11:04:805
0,009007	-0,034352	-0,032228	2020-10-13T23:11:04:823
0,017772	0,015874	-0,065833	2020-10-13T23:11:04:846
0,001973	0,020624	-0,029972	2020-10-13T23:11:04:863
-0,001242	0,039878	0,017861	2020-10-13T23:11:04:885
-0,037703	-0,059046	0,005915	2020-10-13T23:11:04:903
0,018592	-0,041012	-0,061191	2020-10-13T23:11:04:926
-0,025838	0,014266	-0,070889	2020-10-13T23:11:04:943
-0,007752	0,017466	-0,082765	2020-10-13T23:11:04:965
0,002289	0,022686	-0,044397	2020-10-13T23:11:04:983
0,054475	-0,000751	-0,058695	2020-10-13T23:11:05:006
0,018201	-0,010454	-0,034825	2020-10-13T23:11:05:024
-0,004499	0,007516	-0,061217	2020-10-13T23:11:05:045
-0,009078	-0,002496	-0,109054	2020-10-13T23:11:05:063
0,003409	-0,019465	-0,068356	2020-10-13T23:11:05:086
-0,018553	0,022149	-0,104291	2020-10-13T23:11:05:104
-0,061186	-0,047290	-0,109066	2020-10-13T23:11:05:125
-0,012199	0,015036	-0,039571	2020-10-13T23:11:05:144
-0,036128	-0,037606	-0,008463	2020-10-13T23:11:05:166
-0,003588	-0,000381	-0,036885	2020-10-13T23:11:05:184
0,058626	-0,084129	0,042078	2020-10-13T23:11:05:205
-0,022382	-0,003425	-0,034763	2020-10-13T23:11:05:224
-0,074024	0,010338	-0,101718	2020-10-13T23:11:05:246
-0,030068	-0,074823	-0,017840	2020-10-13T23:11:05:263
-0,004809	-0,040593	-0,077745	2020-10-13T23:11:05:286
-0,025702	-0,089352	-0,051463	2020-10-13T23:11:05:302
-0,014459	-0,033270	-0,106585	2020-10-13T23:11:05:327
-0,051803	-0,042894	-0,058702	2020-10-13T23:11:05:344
-0,065747	0,015370	0,017904	2020-10-13T23:11:05:365
-0,009943	0,012461	-0,092202	2020-10-13T23:11:05:384
-0,026693	0,031603	-0,063488	2020-10-13T23:11:05:406
-0,010392	-0,047943	-0,068671	2020-10-13T23:11:05:424
-0,026694	-0,036810	-0,061543	2020-10-13T23:11:05:446
-0,006511	-0,073678	-0,063967	2020-10-13T23:11:05:463
0,049013	-0,041554	-0,073662	2020-10-13T23:11:05:486
0,022801	-0,007383	-0,045033	2020-10-13T23:11:05:504
-0,050239	0,035732	-0,040280	2020-10-13T23:11:05:526
0,008800	-0,013694	-0,050159	2020-10-13T23:11:05:544
-0,015128	-0,059158	-0,074088	2020-10-13T23:11:05:566
0,105177	0,071855	-0,085061	2020-10-13T23:11:05:585
0,102385	0,005844	-0,065957	2020-10-13T23:11:05:606
0,042286	-0,035499	-0,061299	2020-10-13T23:11:05:624
-0,029209	0,021038	-0,049443	2020-10-13T23:11:05:646
0,001688	-0,007786	-0,052773	2020-10-13T23:11:05:664
-0,060525	0,030499	-0,057557	2020-10-13T23:11:05:687
0,073629	-0,073963	0,010219	2020-10-13T23:11:05:704
0,050859	0,008337	-0,033108	2020-10-13T23:11:05:727
0,001074	-0,006699	-0,087037	2020-10-13T23:11:05:745
0,008253	-0,107197	-0,113358	2020-10-13T23:11:05:766
-0,001390	-0,007010	-0,078003	2020-10-13T23:11:05:785
0,014690	0,031920	-0,082736	2020-10-13T23:11:05:807
-0,097650	-0,065148	-0,082764	2020-10-13T23:11:05:827
-0,018687	-0,002935	-0,032515	2020-10-13T23:11:05:846
-0,051902	-0,087339	-0,039330	2020-10-13T23:11:05:864
0,008110	-0,011231	-0,099250	2020-10-13T23:11:05:887
-0,066144	0,009406	-0,070505	2020-10-13T23:11:05:904
-0,053487	0,027219	-0,084740	2020-10-13T23:11:05:927
-0,052785	0,015214	-0,053471	2020-10-13T23:11:05:944
-0,016423	-0,089246	-0,022236	2020-10-13T23:11:05:967
0,068404	0,003314	-0,086966	2020-10-13T23:11:05:985
-0,037458	-0,052665	-0,065467	2020-10-13T23:11:06:007
0,043325	-0,054132	-0,053582	2020-10-13T23:11:06:024
-0,056878	-0,039048	-0,036997	2020-10-13T23:11:06:047
0,010819	-0,112168	-0,048924	2020-10-13T23:11:06:065
-0,034597	-0,071558	-0,089771	2020-10-13T23:11:06:087
-0,049190	0,012317	-0,044345	2020-10-13T23:11:06:104
-0,063352	0,031542	-0,087270	2020-10-13T23:11:06:127
0,030936	0,056964	-0,115782	2020-10-13T23:11:06:144
-0,015924	0,032350	-0,022385	2020-10-13T23:11:06:167
0,078044	-0,031808	0,008810	2020-10-13T23:11:06:185
-0,007277	-0,026024	-0,039183	2020-10-13T23:11:06:207
0,000617	0,055449	-0,091810	2020-10-13T23:11:06:226
-0,006490	0,008437	-0,065389	2020-10-13T23:11:06:247
-0,008552	-0,014966	-0,034293	2020-10-13T23:11:06:264
-0,085122	0,001784	-0,039079	2020-10-13T23:11:06:288
-0,002118	-0,002176	-0,078750	2020-10-13T23:11:06:307
0,019417	0,172501	-0,062000	2020-10-13T23:11:06:327
-0,070409	-0,175007	-0,045850	2020-10-13T23:11:06:345
-0,027732	-0,127978	-0,086843	2020-10-13T23:11:06:367
-0,028451	-0,103089	-0,089471	2020-10-13T23:11:06:385
-0,055322	-0,152661	-0,087289	2020-10-13T23:11:06:406
0,043609	-0,096976	-0,051679	2020-10-13T23:11:06:424
-0,044461	-0,154165	-0,008889	2020-10-13T23:11:06:446
0,031699	-0,111128	-0,081055	2020-10-13T23:11:06:465
-0,011380	0,011955	-0,017151	2020-10-13T23:11:06:487
-0,019804	0,013695	-0,043424	2020-10-13T23:11:06:505
-0,082017	0,018481	-0,091280	2020-10-13T23:11:06:527
0,060276	-0,098713	-0,073844	2020-10-13T23:11:06:545
0,057639	-0,075046	-0,054938	2020-10-13T23:11:06:566
0,066897	0,054919	-0,105380	2020-10-13T23:11:06:585
0,054089	0,022840	-0,107762	2020-10-13T23:11:06:606
-0,000029	-0,004341	-0,091141	2020-10-13T23:11:06:625
-0,019171	-0,064161	-0,043284	2020-10-13T23:11:06:646
0,039498	0,022494	-0,013850	2020-10-13T23:11:06:664
0,033366	-0,024929	-0,066683	2020-10-13T23:11:06:686
-0,011774	-0,131008	-0,078752	2020-10-13T23:11:06:704
0,015965	0,137224	-0,071692	2020-10-13T23:11:06:726
-0,010602	0,014753	-0,038622	2020-10-13T23:11:06:745
-0,005540	0,029326	-0,081614	2020-10-13T23:11:06:767
-0,062968	-0,061601	-0,060079	2020-10-13T23:11:06:785
0,051981	0,077335	-0,081773	2020-10-13T23:11:06:806
0,004702	0,040583	-0,069706	2020-10-13T23:11:06:827
0,002261	0,004607	-0,009818	2020-10-13T23:11:06:846
0,028308	-0,017350	-0,024172	2020-10-13T23:11:06:865
0,019766	-0,014688	-0,084038	2020-10-13T23:11:06:887
0,031233	0,044434	-0,088819	2020-10-13T23:11:06:905
0,080493	0,136988	-0,064829	2020-10-13T23:11:06:927
0,036187	-0,046221	-0,021686	2020-10-13T23:11:06:945
0,031424	-0,004895	-0,055338	2020-10-13T23:11:06:966
0,024834	0,057582	-0,067359	2020-10-13T23:11:06:985
-0,021289	0,077540	-0,119905	2020-10-13T23:11:07:007
0,006478	0,013369	-0,067097	2020-10-13T23:11:07:026
0,037612	-0,007152	-0,045519	2020-10-13T23:11:07:046
0,019693	-0,077665	-0,014411	2020-10-13T23:11:07:065
-0,028727	0,030949	-0,100666	2020-10-13T23:11:07:087
0,030851	0,018334	-0,090946	2020-10-13T23:11:07:105
0,051592	0,030326	-0,076542	2020-10-13T23:11:07:127
-0,003232	-0,005958	-0,076518	2020-10-13T23:11:07:146
-0,043517	0,026570	-0,069300	2020-10-13T23:11:07:167
0,038167	0,023121	-0,052369	2020-10-13T23:11:07:186
0,054759	0,078716	-0,073779	2020-10-13T23:11:07:207
0,073791	0,036463	-0,011510	2020-10-13T23:11:07:225
0,041204	-0,037140	-0,080950	2020-10-13T23:11:07:247
0,067842	0,029335	-0,049957	2020-10-13T23:11:07:266
0,033848	-0,025404	-0,047575	2020-10-13T23:11:07:287
0,023043	0,012701	-0,059566	2020-10-13T23:11:07:306
-0,035343	0,061399	-0,049971	2020-10-13T23:11:07:327
0,062089	-0,004212	-0,011532	2020-10-13T23:11:07:345
0,020742	-0,050287	-0,045092	2020-10-13T23:11:07:367
0,022358	0,099717	-0,073879	2020-10-13T23:11:07:386
0,023522	0,075772	-0,035471	2020-10-13T23:11:07:407
-0,006104	-0,011027	-0,078465	2020-10-13T23:11:07:426
0,003507	-0,010446	-0,035413	2020-10-13T23:11:07:447
-0,004251	0,007570	-0,023451	2020-10-13T23:11:07:466
-0,023394	-0,045072	-0,085664	2020-10-13T23:11:07:488
-0,029039	-0,033835	-0,012338	2020-10-13T23:11:07:506
0,003286	0,072790	-0,062601	2020-10-13T23:11:07:527
-0,027653	0,027832	-0,081604	2020-10-13T23:11:07:546
-0,057225	0,044705	-0,098244	2020-10-13T23:11:07:567
0,008638	-0,013756	-0,050032	2020-10-13T23:11:07:586
0,003852	-0,011363	-0,002175	2020-10-13T23:11:07:607
0,021610	0,007081	-0,012265	2020-10-13T23:11:07:626
-0,001277	-0,074053	-0,072131	2020-10-13T23:11:07:647
0,056058	-0,060801	-0,010053	2020-10-13T23:11:07:666
-0,001881	0,018351	-0,089187	2020-10-13T23:11:07:687
0,010166	0,021688	-0,055634	2020-10-13T23:11:07:705
0,015182	-0,009025	-0,101021	2020-10-13T23:11:07:728
0,043235	-0,085334	-0,153689	2020-10-13T23:11:07:746
0,053654	0,009319	-0,082079	2020-10-13T23:11:07:768
0,043805	0,011389	-0,096496	2020-10-13T23:11:07:787
-0,012642	0,014895	-0,003385	2020-10-13T23:11:07:809
-0,052965	-0,032165	-0,075121	2020-10-13T23:11:07:827
0,066677	0,022870	-0,113406	2020-10-13T23:11:07:848
0,006984	-0,005888	-0,099731	2020-10-13T23:11:07:866
-0,096063	0,054852	-0,068583	2020-10-13T23:11:07:888
-0,084537	0,048636	-0,058808	2020-10-13T23:11:07:907
0,010507	0,057746	-0,063423	2020-10-13T23:11:07:928
-0,028034	0,030135	-0,096811	2020-10-13T23:11:07:946
-0,064692	0,053954	-0,070377	2020-10-13T23:11:07:968
-0,085682	0,031476	-0,046281	2020-10-13T23:11:07:987
-0,113208	-0,020460	-0,050938	2020-10-13T23:11:08:008
-0,000123	0,063369	-0,060396	2020-10-13T23:11:08:027
0,045824	-0,031833	-0,076996	2020-10-13T23:11:08:048
-0,007461	0,011507	-0,045135	2020-10-13T23:11:08:067
-0,017032	-0,002850	-0,037956	2020-10-13T23:11:08:088
0,024841	-0,008478	-0,071091	2020-10-13T23:11:08:106
0,025331	0,009962	-0,035302	2020-10-13T23:11:08:128
-0,021335	-0,048165	-0,092734	2020-10-13T23:11:08:146
0,070811	-0,065746	-0,054475	2020-10-13T23:11:08:168
0,014605	-0,018129	-0,076168	2020-10-13T23:11:08:187
0,002106	-0,058516	-0,033120	2020-10-13T23:11:08:208
0,018614	-0,000787	-0,059538	2020-10-13T23:11:08:228
-0,066211	-0,015099	-0,064350	2020-10-13T23:11:08:248
-0,015301	-0,055653	-0,045140	2020-10-13T23:11:08:267
-0,031095	-0,080657	-0,006876	2020-10-13T23:11:08:288
-0,010231	0,023539	-0,071565	2020-10-13T23:11:08:306
0,013908	-0,013370	-0,033241	2020-10-13T23:11:08:328
0,010811	0,006352	-0,085919	2020-10-13T23:11:08:347
-0,063856	-0,006050	0,007403	2020-10-13T23:11:08:368
-0,043878	0,002761	-0,069063	2020-10-13T23:11:08:387
-0,031900	0,032744	-0,064180	2020-10-13T23:11:08:408
-0,006031	-0,015575	-0,054466	2020-10-13T23:11:08:427
0,056378	0,063978	0,002947	2020-10-13T23:11:08:448
-0,071174	-0,083791	-0,042532	2020-10-13T23:11:08:467
-0,038853	-0,072085	-0,097631	2020-10-13T23:11:08:488
-0,012764	-0,047489	-0,006752	2020-10-13T23:11:08:507
0,007500	-0,031325	-0,080961	2020-10-13T23:11:08:529
0,024630	0,038527	-0,097716	2020-10-13T23:11:08:547
-0,009942	-0,011607	-0,042633	2020-10-13T23:11:08:569
-0,026933	0,004468	-0,037910	2020-10-13T23:11:08:587
0,045474	-0,004290	-0,035529	2020-10-13T23:11:08:608
0,030804	-0,048668	-0,078703	2020-10-13T23:11:08:627
-0,037080	-0,012656	-0,059586	2020-10-13T23:11:08:648
-0,051621	0,031137	-0,066655	2020-10-13T23:11:08:667
0,038365	0,013963	-0,116634	2020-10-13T23:11:08:689
0,003708	0,097201	-0,059137	2020-10-13T23:11:08:707
0,030379	0,012972	-0,070914	2020-10-13T23:11:08:728
0,055545	-0,037086	-0,037368	2020-10-13T23:11:08:747
-0,013925	0,003185	-0,056558	2020-10-13T23:11:08:769
0,004371	0,047787	-0,080335	2020-10-13T23:11:08:787
-0,009368	-0,002745	-0,049033	2020-10-13T23:11:08:809
-0,044814	-0,036563	-0,063368	2020-10-13T23:11:08:827
-0,016219	-0,068859	-0,063353	2020-10-13T23:11:08:848
0,020673	-0,015962	-0,094528	2020-10-13T23:11:08:868
-0,044862	-0,008886	-0,015585	2020-10-13T23:11:08:890
0,031538	0,036359	-0,092091	2020-10-13T23:11:08:907
0,025146	-0,015524	-0,058574	2020-10-13T23:11:08:929
-0,004990	-0,062274	-0,068221	2020-10-13T23:11:08:948
-0,000119	-0,073004	-0,063560	2020-10-13T23:11:08:969
-0,006067	0,007195	-0,087343	2020-10-13T23:11:08:988
0,033167	0,017769	-0,120837	2020-10-13T23:11:09:009
0,004453	0,094339	-0,058623	2020-10-13T23:11:09:027
0,018043	-0,085900	-0,036286	2020-10-13T23:11:09:049
-0,011448	0,001689	-0,043631	2020-10-13T23:11:09:067
0,013090	-0,044543	-0,005301	2020-10-13T23:11:09:089
-0,030738	-0,034857	-0,019773	2020-10-13T23:11:09:107
-0,007901	-0,073406	-0,031788	2020-10-13T23:11:09:129
-0,001125	-0,003959	-0,130735	2020-10-13T23:11:09:148
0,015625	-0,003959	-0,044594	2020-10-13T23:11:09:169
-0,044347	0,075067	-0,076153	2020-10-13T23:11:09:189
-0,066519	-0,045236	-0,016187	2020-10-13T23:11:09:208
-0,006294	0,028634	-0,083185	2020-10-13T23:11:09:228
-0,029426	0,025667	-0,116565	2020-10-13T23:11:09:249
-0,002573	0,003170	-0,061100	2020-10-13T23:11:09:268
0,045284	0,024705	-0,063492	2020-10-13T23:11:09:289
-0,024818	-0,136269	-0,109163	2020-10-13T23:11:09:307
0,010626	-0,012626	-0,067456	2020-10-13T23:11:09:330
0,088407	0,022305	-0,091397	2020-10-13T23:11:09:348
-0,028496	0,142970	-0,091084	2020-10-13T23:11:09:369
0,059599	0,069385	-0,083869	2020-10-13T23:11:09:389
0,095492	0,043064	-0,055156	2020-10-13T23:11:09:409
-0,003154	-0,002177	-0,104298	2020-10-13T23:11:09:430
0,037524	0,067215	-0,056441	2020-10-13T23:11:09:449
-0,005674	-0,059461	0,028565	2020-10-13T23:11:09:468
0,021189	-0,038094	-0,074392	2020-10-13T23:11:09:489
-0,003204	-0,000633	-0,052086	2020-10-13T23:11:09:508
0,073367	0,095080	-0,049693	2020-10-13T23:11:09:530
-0,004292	0,008856	-0,060366	2020-10-13T23:11:09:548
-0,056934	-0,077286	-0,055581	2020-10-13T23:11:09:569
0,008675	0,058379	0,005778	2020-10-13T23:11:09:588
0,013329	0,083856	-0,075499	2020-10-13T23:11:09:609
-0,027131	0,083555	-0,072967	2020-10-13T23:11:09:628
0,089640	0,121328	-0,000990	2020-10-13T23:11:09:649
-0,012311	0,115017	-0,020061	2020-10-13T23:11:09:669
0,016965	0,012083	-0,091698	2020-10-13T23:11:09:689
-0,007873	0,069081	-0,074960	2020-10-13T23:11:09:708
-0,028289	0,003061	-0,122679	2020-10-13T23:11:09:733
0,004951	0,000324	-0,031850	2020-10-13T23:11:09:748
0,007344	-0,049925	-0,070135	2020-10-13T23:11:09:769
-0,046158	-0,035835	-0,069538	2020-10-13T23:11:09:789
-0,009823	-0,039631	-0,055146	2020-10-13T23:11:09:809
-0,001589	0,014230	-0,069517	2020-10-13T23:11:09:829
-0,006698	0,035481	-0,059943	2020-10-13T23:11:09:850
-0,008562	0,007527	-0,057485	2020-10-13T23:11:09:868
0,006333	-0,046244	-0,074185	2020-10-13T23:11:09:891
0,027662	-0,004108	-0,086202	2020-10-13T23:11:09:909
-0,004554	0,028630	-0,047918	2020-10-13T23:11:09:931
-0,023384	-0,020245	-0,069414	2020-10-13T23:11:09:948
-0,004802	-0,003861	-0,068490	2020-10-13T23:11:09:970
-0,074194	-0,023004	-0,058918	2020-10-13T23:11:09:988
0,044921	0,002893	-0,043126	2020-10-13T23:11:10:010
0,004867	0,025571	-0,079035	2020-10-13T23:11:10:028
0,095955	-0,014726	-0,045463	2020-10-13T23:11:10:049
0,094075	0,011064	-0,067117	2020-10-13T23:11:10:068
0,061104	-0,012260	-0,079155	2020-10-13T23:11:10:089
0,032081	0,035323	-0,064873	2020-10-13T23:11:10:108
0,083522	-0,067570	-0,083971	2020-10-13T23:11:10:130
0,005700	-0,079420	-0,096130	2020-10-13T23:11:10:149
0,027699	-0,016920	-0,022029	2020-10-13T23:11:10:169
0,031566	0,014012	-0,060337	2020-10-13T23:11:10:188
0,082907	-0,027932	-0,060334	2020-10-13T23:11:10:210
0,059707	0,023127	-0,093983	2020-10-13T23:11:10:228
0,061709	0,006905	-0,060503	2020-10-13T23:11:10:250
0,044433	0,061069	-0,077309	2020-10-13T23:11:10:268
0,002166	0,028923	-0,053311	2020-10-13T23:11:10:290
0,051868	-0,057825	-0,074841	2020-10-13T23:11:10:308
0,010963	0,021784	-0,027164	2020-10-13T23:11:10:330
-0,006031	0,017104	-0,086913	2020-10-13T23:11:10:348
0,006915	0,041540	-0,017429	2020-10-13T23:11:10:370
0,049833	0,038924	-0,058022	2020-10-13T23:11:10:390
-0,034269	-0,034837	-0,067604	2020-10-13T23:11:10:410
0,025263	-0,036226	-0,069972	2020-10-13T23:11:10:429
0,002699	-0,064202	-0,050883	2020-10-13T23:11:10:450
-0,002489	-0,006891	-0,060295	2020-10-13T23:11:10:469
-0,019239	0,057715	-0,031582	2020-10-13T23:11:10:490
0,079762	-0,032155	-0,098505	2020-10-13T23:11:10:510
-0,000809	-0,012252	-0,048392	2020-10-13T23:11:10:531
0,035116	-0,007523	-0,134530	2020-10-13T23:11:10:549
-0,006948	-0,027192	-0,012515	2020-10-13T23:11:10:569
0,002622	-0,011218	-0,082911	2020-10-13T23:11:10:590
0,012194	-0,056682	-0,075733	2020-10-13T23:11:10:611
0,002016	-0,050526	0,003357	2020-10-13T23:11:10:630
0,025109	-0,035697	-0,061450	2020-10-13T23:11:10:650
-0,017418	-0,061647	-0,059196	2020-10-13T23:11:10:669
0,076728	0,022185	-0,032937	2020-10-13T23:11:10:692
-0,060424	-0,024414	-0,102292	2020-10-13T23:11:10:708
0,002625	-0,027322	-0,063906	2020-10-13T23:11:10:731
0,019488	-0,060418	-0,042381	2020-10-13T23:11:10:748
-0,010121	-0,024260	-0,054459	2020-10-13T23:11:10:770
-0,018944	-0,014226	-0,056847	2020-10-13T23:11:10:789
0,003880	-0,005590	-0,049603	2020-10-13T23:11:10:810
-0,002240	-0,003584	-0,053885	2020-10-13T23:11:10:830
-0,004632	-0,017941	-0,017991	2020-10-13T23:11:10:850
0,041139	-0,096341	-0,042397	2020-10-13T23:11:10:869
0,018784	-0,002830	-0,049685	2020-10-13T23:11:10:891
0,059155	0,009878	-0,075957	2020-10-13T23:11:10:909
-0,013152	-0,012526	-0,032929	2020-10-13T23:11:10:931
-0,013187	-0,089818	-0,018629	2020-10-13T23:11:10:949
0,003718	-0,007712	-0,054705	2020-10-13T23:11:10:971
-0,022538	-0,041887	-0,076215	2020-10-13T23:11:10:990
-0,056900	-0,022290	-0,085764	2020-10-13T23:11:11:010
0,003352	-0,021927	-0,061778	2020-10-13T23:11:11:029
-0,106963	0,008098	-0,023542	2020-10-13T23:11:11:050
0,058166	0,020876	-0,061654	2020-10-13T23:11:11:069
-0,004166	0,039976	-0,075993	2020-10-13T23:11:11:093
-0,049234	-0,065523	-0,083074	2020-10-13T23:11:11:110
-0,015223	-0,058985	-0,066309	2020-10-13T23:11:11:131
-0,008734	-0,027437	-0,075851	2020-10-13T23:11:11:150
-0,036246	-0,028418	-0,080573	2020-10-13T23:11:11:171
-0,048468	0,002743	-0,039843	2020-10-13T23:11:11:189
-0,002103	0,000573	-0,036194	2020-10-13T23:11:11:212
-0,004496	-0,071212	-0,103192	2020-10-13T23:11:11:229
-0,025932	0,027883	-0,064642	2020-10-13T23:11:11:251
-0,031141	0,022387	-0,076459	2020-10-13T23:11:11:269
-0,024701	0,017674	-0,059592	2020-10-13T23:11:11:291
-0,006581	0,040315	-0,045158	2020-10-13T23:11:11:309
0,010739	0,049338	-0,042658	2020-10-13T23:11:11:332
-0,008233	0,057128	-0,078413	2020-10-13T23:11:11:351
0,085480	0,039781	-0,013700	2020-10-13T23:11:11:371
-0,002939	-0,019121	-0,044884	2020-10-13T23:11:11:390
0,109752	-0,039970	-0,052078	2020-10-13T23:11:11:411
-0,008214	0,008799	-0,010585	2020-10-13T23:11:11:430
-0,008214	0,047085	-0,048870	2020-10-13T23:11:11:451
0,025390	-0,013691	0,017708	2020-10-13T23:11:11:469
0,034177	-0,016060	-0,061280	2020-10-13T23:11:11:492
0,064335	-0,047652	-0,101970	2020-10-13T23:11:11:510
0,071152	-0,067804	-0,118855	2020-10-13T23:11:11:532
0,036626	0,033334	-0,047286	2020-10-13T23:11:11:636
0,018357	-0,023974	-0,056820	2020-10-13T23:11:11:637
0,007944	-0,094710	-0,030563	2020-10-13T23:11:11:659
0,026726	0,020546	-0,064262	2020-10-13T23:11:11:660
-0,005507	-0,062409	-0,078595	2020-10-13T23:11:11:660
0,009533	0,081099	-0,059517	2020-10-13T23:11:11:670
0,112323	0,000351	-0,092868	2020-10-13T23:11:11:673
0,056757	0,032617	-0,011624	2020-10-13T23:11:11:690
-0,004061	0,006417	-0,047822	2020-10-13T23:11:11:713
-0,027989	0,047095	-0,047822	2020-10-13T23:11:11:731
0,051597	-0,032722	-0,078883	2020-10-13T23:11:11:749
0,086965	-0,076245	-0,055109	2020-10-13T23:11:11:772
0,032006	-0,065174	-0,045813	2020-10-13T23:11:11:789
0,014073	0,006350	-0,124885	2020-10-13T23:11:11:812
0,040179	0,026234	-0,057834	2020-10-13T23:11:11:831
0,014551	-0,045356	-0,076948	2020-10-13T23:11:11:852
0,099828	-0,018978	-0,093809	2020-10-13T23:11:11:870
0,044290	-0,082566	-0,053316	2020-10-13T23:11:11:891
-0,010357	-0,031080	-0,067854	2020-10-13T23:11:11:909
0,052416	-0,025502	-0,084615	2020-10-13T23:11:11:932
-0,038854	-0,012421	-0,106265	2020-10-13T23:11:11:949
0,044162	-0,088040	-0,046431	2020-10-13T23:11:11:971
0,018679	-0,025026	-0,008297	2020-10-13T23:11:11:990
-0,019624	-0,011993	-0,070466	2020-10-13T23:11:12:012
-0,003036	-0,006344	-0,074721	2020-10-13T23:11:12:031
-0,029357	-0,039844	-0,108221	2020-10-13T23:11:12:052
0,012577	-0,013275	-0,084749	2020-10-13T23:11:12:073
0,021910	-0,001589	-0,053640	2020-10-13T23:11:12:092
0,064239	0,033500	-0,027311	2020-10-13T23:11:12:111
0,032298	-0,006721	-0,008191	2020-10-13T23:11:12:141
0,015992	-0,006245	-0,065688	2020-10-13T23:11:12:183
0,096439	0,020140	-0,034608	2020-10-13T23:11:12:184
0,027077	-0,034412	-0,101668	2020-10-13T23:11:12:212
-0,024383	0,028902	-0,068239	2020-10-13T23:11:12:213
-0,032552	0,000248	-0,048978	2020-10-13T23:11:12:233
0,050211	-0,030905	-0,058510	2020-10-13T23:11:12:252
-0,014581	-0,015150	-0,104091	2020-10-13T23:11:12:270
0,015123	-0,005863	-0,051413	2020-10-13T23:11:12:292
0,050404	-0,013717	-0,044227	2020-10-13T23:11:12:312
-0,009326	-0,001689	-0,032326	2020-10-13T23:11:12:332
-0,018489	-0,097590	-0,094522	2020-10-13T23:11:12:350
0,047148	-0,037814	-0,046802	2020-10-13T23:11:12:372
-0,015009	-0,042060	-0,061238	2020-10-13T23:11:12:390
-0,050596	0,053248	-0,101976	2020-10-13T23:11:12:412
-0,012005	0,001614	-0,108954	2020-10-13T23:11:12:430
-0,039806	-0,002237	-0,056238	2020-10-13T23:11:12:452
-0,059267	-0,046377	-0,084860	2020-10-13T23:11:12:471
-0,000963	0,046156	-0,025007	2020-10-13T23:11:12:492
0,020656	-0,037733	-0,051238	2020-10-13T23:11:12:510
0,014853	0,066665	-0,068069	2020-10-13T23:11:12:533
-0,003787	-0,004516	0,005719	2020-10-13T23:11:12:552
0,070390	-0,011694	-0,092387	2020-10-13T23:11:12:572
-0,040738	-0,087108	-0,111352	2020-10-13T23:11:12:591
-0,012065	-0,020628	-0,063586	2020-10-13T23:11:12:612
0,022443	-0,039402	-0,022898	2020-10-13T23:11:12:631
0,007099	0,014087	-0,056450	2020-10-13T23:11:12:652
-0,066976	0,009745	-0,073130	2020-10-13T23:11:12:670
-0,015820	-0,008190	-0,041899	2020-10-13T23:11:12:692
0,085657	0,092026	-0,041863	2020-10-13T23:11:12:711
-0,063989	0,029897	-0,039397	2020-10-13T23:11:12:733
-0,003452	-0,000602	-0,034759	2020-10-13T23:11:12:751
-0,017809	-0,000602	-0,058686	2020-10-13T23:11:12:773
0,054383	-0,061747	-0,089183	2020-10-13T23:11:12:792
0,037294	-0,008682	-0,027144	2020-10-13T23:11:12:813
0,054987	0,039171	-0,029580	2020-10-13T23:11:12:831
-0,011876	0,026719	-0,063049	2020-10-13T23:11:12:852
-0,047402	0,017972	-0,017523	2020-10-13T23:11:12:870
0,048293	0,021135	-0,072434	2020-10-13T23:11:12:894
0,069937	0,041107	-0,055699	2020-10-13T23:11:12:911
0,000081	-0,007967	-0,110655	2020-10-13T23:11:12:933
0,007260	-0,012753	-0,067584	2020-10-13T23:11:12:951
0,008870	0,011912	-0,092027	2020-10-13T23:11:12:972
-0,001318	-0,005953	-0,059727	2020-10-13T23:11:12:991
0,058503	0,058653	-0,095620	2020-10-13T23:11:13:013
-0,082047	-0,082694	-0,116079	2020-10-13T23:11:13:032
-0,049643	-0,092192	-0,049204	2020-10-13T23:11:13:052
-0,076043	-0,054115	-0,023018	2020-10-13T23:11:13:071
-0,118233	-0,024899	-0,023067	2020-10-13T23:11:13:092
-0,038931	0,021184	-0,078027	2020-10-13T23:11:13:111
-0,000514	-0,003862	-0,016628	2020-10-13T23:11:13:134
-0,002907	-0,082825	-0,038165	2020-10-13T23:11:13:150
0,017812	0,037042	-0,074382	2020-10-13T23:11:13:173
-0,003707	-0,005888	-0,064151	2020-10-13T23:11:13:192
-0,008493	0,020433	-0,064151	2020-10-13T23:11:13:213
-0,012635	0,000205	-0,020050	2020-10-13T23:11:13:231
-0,002488	-0,053079	-0,020012	2020-10-13T23:11:13:253
0,048066	-0,020111	-0,063138	2020-10-13T23:11:13:272
-0,050455	0,014242	-0,089565	2020-10-13T23:11:13:293
0,026129	-0,049114	-0,120567	2020-10-13T23:11:13:311
-0,001271	-0,006678	-0,025636	2020-10-13T23:11:13:334
0,025050	-0,143069	-0,075885	2020-10-13T23:11:13:351
-0,002655	0,127301	-0,025834	2020-10-13T23:11:13:373
-0,021122	0,087632	-0,080704	2020-10-13T23:11:13:391
0,040041	0,013952	-0,023135	2020-10-13T23:11:13:413
0,014503	0,091822	-0,102114	2020-10-13T23:11:13:432
-0,029401	0,030234	-0,094853	2020-10-13T23:11:13:453
-0,020976	0,069765	-0,058899	2020-10-13T23:11:13:471
0,030067	0,080602	-0,099465	2020-10-13T23:11:13:493
0,021493	0,064840	-0,075477	2020-10-13T23:11:13:512
0,054509	0,065793	-0,108889	2020-10-13T23:11:13:533
0,001586	0,053026	-0,056231	2020-10-13T23:11:13:552
-0,017903	0,017777	-0,049014	2020-10-13T23:11:13:573
-0,021958	0,048009	-0,048971	2020-10-13T23:11:13:591
-0,037677	0,036042	-0,068022	2020-10-13T23:11:13:613
-0,002241	-0,005709	-0,043878	2020-10-13T23:11:13:632
0,007330	0,070862	-0,101305	2020-10-13T23:11:13:653
0,024277	-0,003353	-0,046564	2020-10-13T23:11:13:672
-0,017994	0,057002	-0,072948	2020-10-13T23:11:13:693
0,009444	0,005655	-0,091941	2020-10-13T23:11:13:712
0,011259	-0,004478	-0,056045	2020-10-13T23:11:13:734
0,005767	0,045765	-0,020172	2020-10-13T23:11:13:752
0,017329	-0,011290	-0,034471	2020-10-13T23:11:13:773
0,008877	-0,010319	-0,024968	2020-10-13T23:11:13:792
-0,006639	-0,045085	-0,029823	2020-10-13T23:11:13:813
0,016858	-0,058259	-0,034742	2020-10-13T23:11:13:832
0,010892	-0,052564	-0,054029	2020-10-13T23:11:13:854
-0,008839	0,000230	-0,056520	2020-10-13T23:11:13:872
0,012986	-0,052437	-0,046941	2020-10-13T23:11:13:893
0,031361	-0,033516	-0,099675	2020-10-13T23:11:13:913
0,041844	0,029681	-0,056677	2020-10-13T23:11:13:934
0,023151	0,041989	-0,056661	2020-10-13T23:11:13:952
0,054456	-0,034167	-0,073403	2020-10-13T23:11:13:973
0,061867	0,021648	-0,030416	2020-10-13T23:11:13:992
0,011386	0,026667	-0,102197	2020-10-13T23:11:14:013
0,013217	-0,022655	-0,051912	2020-10-13T23:11:14:033
-0,095694	-0,109791	-0,008920	2020-10-13T23:11:14:053
0,043196	-0,071398	-0,059204	2020-10-13T23:11:14:072
-0,001194	-0,004555	-0,097597	2020-10-13T23:11:14:094
0,025566	0,013874	-0,064063	2020-10-13T23:11:14:113
-0,002670	-0,006008	-0,091320	2020-10-13T23:11:14:135
0,052365	-0,101721	-0,045856	2020-10-13T23:11:14:152
-0,018094	0,080012	-0,023940	2020-10-13T23:11:14:173
0,002246	-0,007779	-0,050909	2020-10-13T23:11:14:193
0,040531	-0,014957	-0,070052	2020-10-13T23:11:14:214
0,013794	-0,088447	-0,049999	2020-10-13T23:11:14:233
0,006113	-0,041175	-0,093217	2020-10-13T23:11:14:253
-0,032399	-0,025185	-0,069347	2020-10-13T23:11:14:272
-0,002208	-0,003635	-0,036003	2020-10-13T23:11:14:294
0,031292	0,068149	-0,083859	2020-10-13T23:11:14:312
0,000018	-0,009443	-0,116031	2020-10-13T23:11:14:335
-0,057410	-0,035764	-0,051424	2020-10-13T23:11:14:352
0,023040	0,010272	0,011159	2020-10-13T23:11:14:374
0,005825	-0,020041	-0,118014	2020-10-13T23:11:14:392
0,041483	-0,036099	-0,065402	2020-10-13T23:11:14:414
-0,020268	-0,085342	-0,070278	2020-10-13T23:11:14:433
-0,000881	-0,061077	-0,032154	2020-10-13T23:11:14:454
0,008561	0,029685	-0,046587	2020-10-13T23:11:14:474
0,046810	-0,006054	-0,039337	2020-10-13T23:11:14:494
0,044907	-0,009218	-0,072866	2020-10-13T23:11:14:513
0,006642	-0,007050	-0,066907	2020-10-13T23:11:14:535
0,049699	-0,016480	-0,023913	2020-10-13T23:11:14:552
-0,014907	-0,054765	-0,043056	2020-10-13T23:11:14:575
0,068401	-0,056350	-0,046679	2020-10-13T23:11:14:593
0,066014	0,035918	-0,065936	2020-10-13T23:11:14:614
0,091629	0,064950	-0,056399	2020-10-13T23:11:14:633
0,034793	-0,046476	-0,068381	2020-10-13T23:11:14:654
-0,001697	-0,007031	-0,053002	2020-10-13T23:11:14:674
-0,054339	-0,035744	-0,093680	2020-10-13T23:11:14:695
-0,002777	-0,001854	-0,078256	2020-10-13T23:11:14:717
-0,005170	-0,016211	-0,042363	2020-10-13T23:11:14:734
-0,068344	-0,006211	-0,030753	2020-10-13T23:11:14:752
0,014027	-0,036044	-0,111987	2020-10-13T23:11:14:774
-0,010089	0,036254	-0,073724	2020-10-13T23:11:14:793
-0,004592	-0,002216	-0,028156	2020-10-13T23:11:14:815
-0,047274	-0,024521	-0,028120	2020-10-13T23:11:14:834
-0,008862	-0,009894	-0,011316	2020-10-13T23:11:14:855
-0,079921	-0,022656	-0,039986	2020-10-13T23:11:14:872
-0,001274	-0,042602	-0,047022	2020-10-13T23:11:14:895
-0,055890	-0,055682	-0,023127	2020-10-13T23:11:14:914
-0,004326	0,000293	0,004430	2020-10-13T23:11:14:936
0,031566	0,029007	-0,045819	2020-10-13T23:11:14:955
-0,025258	0,005690	-0,059987	2020-10-13T23:11:14:974
0,030845	-0,052174	-0,064733	2020-10-13T23:11:14:993
-0,025764	-0,033383	-0,072016	2020-10-13T23:11:15:014
-0,026882	0,027218	-0,112689	2020-10-13T23:11:15:033
-0,075542	-0,032687	-0,064713	2020-10-13T23:11:15:055
-0,031236	0,049116	-0,150784	2020-10-13T23:11:15:073
-0,000112	-0,007411	-0,087530	2020-10-13T23:11:15:095
-0,009683	-0,012197	-0,049245	2020-10-13T23:11:15:113
-0,027457	0,029801	-0,018161	2020-10-13T23:11:15:134
-0,038096	0,042638	-0,094656	2020-10-13T23:11:15:153
-0,026297	0,039514	-0,087337	2020-10-13T23:11:15:175
-0,008119	-0,013141	-0,048948	2020-10-13T23:11:15:193
-0,069561	0,058423	-0,048923	2020-10-13T23:11:15:214
-0,065969	0,092578	-0,075036	2020-10-13T23:11:15:233
0,033304	0,063429	-0,072403	2020-10-13T23:11:15:255
0,017629	0,026195	-0,077117	2020-10-13T23:11:15:272
0,009657	-0,006686	-0,072302	2020-10-13T23:11:15:295
-0,005220	0,007343	-0,081878	2020-10-13T23:11:15:313
-0,007166	0,020918	-0,024416	2020-10-13T23:11:15:335
-0,016405	0,052885	-0,103326	2020-10-13T23:11:15:353
0,011220	0,066018	-0,048150	2020-10-13T23:11:15:375
-0,047147	0,007416	-0,024141	2020-10-13T23:11:15:393
-0,020975	0,008962	-0,033628	2020-10-13T23:11:15:415
0,010849	0,001654	-0,031211	2020-10-13T23:11:15:435
0,005216	-0,036386	-0,076705	2020-10-13T23:11:15:454
0,003089	0,000198	-0,062362	2020-10-13T23:11:15:473
0,019719	0,014429	-0,081504	2020-10-13T23:11:15:495
0,056935	0,061547	-0,040833	2020-10-13T23:11:15:513
0,008439	0,030111	-0,028868	2020-10-13T23:11:15:535
-0,035284	-0,004834	-0,055162	2020-10-13T23:11:15:553
0,045340	0,030695	-0,021607	2020-10-13T23:11:15:575
-0,022032	-0,056728	-0,057533	2020-10-13T23:11:15:594
-0,026167	0,001128	-0,071959	2020-10-13T23:11:15:615
-0,001094	0,070395	-0,062354	2020-10-13T23:11:15:634
-0,031631	0,064261	-0,009583	2020-10-13T23:11:15:655
0,010683	0,023208	-0,050132	2020-10-13T23:11:15:674
-0,018819	0,012859	-0,124307	2020-10-13T23:11:15:695
-0,027250	-0,016993	-0,064420	2020-10-13T23:11:15:714
0,032268	0,011512	-0,040431	2020-10-13T23:11:15:736
0,016300	-0,005881	-0,018917	2020-10-13T23:11:15:753
0,015355	-0,010951	-0,102683	2020-10-13T23:11:15:775
-0,018295	-0,026190	-0,073946	2020-10-13T23:11:15:794
0,059553	-0,025865	-0,054779	2020-10-13T23:11:15:815
-0,034134	-0,042036	-0,095550	2020-10-13T23:11:15:834
-0,048606	0,032900	-0,062013	2020-10-13T23:11:15:855
0,006796	0,001453	-0,057066	2020-10-13T23:11:15:874
0,040261	0,005449	-0,095328	2020-10-13T23:11:15:896
0,033276	-0,001972	-0,061880	2020-10-13T23:11:15:915
-0,003773	-0,006331	-0,051679	2020-10-13T23:11:15:937
-0,027702	0,058275	-0,080393	2020-10-13T23:11:15:954
0,002560	-0,010014	-0,054170	2020-10-13T23:11:15:976
0,009804	-0,016815	-0,099643	2020-10-13T23:11:15:994
0,012197	-0,047922	-0,044608	2020-10-13T23:11:16:016
0,002255	-0,007598	-0,035930	2020-10-13T23:11:16:036
-0,002106	0,035363	-0,057381	2020-10-13T23:11:16:056
0,017037	-0,002922	-0,076524	2020-10-13T23:11:16:075
-0,002562	-0,001953	-0,088409	2020-10-13T23:11:16:096
-0,050418	-0,001953	0,004910	2020-10-13T23:11:16:114
0,004605	0,014559	0,001397	2020-10-13T23:11:16:136
0,018311	-0,041083	-0,091922	2020-10-13T23:11:16:155
0,012533	-0,048818	-0,020227	2020-10-13T23:11:16:175
0,083340	-0,043420	-0,061031	2020-10-13T23:11:16:194
-0,007447	0,059708	-0,042106	2020-10-13T23:11:16:215
-0,020380	-0,082148	-0,022970	2020-10-13T23:11:16:234
0,036787	-0,041440	-0,054313	2020-10-13T23:11:16:256
0,037237	-0,044588	-0,001776	2020-10-13T23:11:16:274
0,032911	-0,038204	-0,044950	2020-10-13T23:11:16:296
-0,018782	0,046526	-0,052200	2020-10-13T23:11:16:315
0,047051	0,029043	-0,061641	2020-10-13T23:11:16:336
-0,048258	0,115443	-0,052057	2020-10-13T23:11:16:354
0,040522	-0,036681	0,015211	2020-10-13T23:11:16:376
-0,011824	-0,001991	-0,073421	2020-10-13T23:11:16:395
-0,016293	-0,018616	-0,092558	2020-10-13T23:11:16:416
-0,003108	-0,005763	0,007990	2020-10-13T23:11:16:435
0,018428	-0,020120	-0,047045	2020-10-13T23:11:16:456
0,003797	0,008261	-0,048087	2020-10-13T23:11:16:474
0,011322	0,014020	-0,110252	2020-10-13T23:11:16:496
0,005972	0,118283	-0,040850	2020-10-13T23:11:16:514
0,013560	0,071084	-0,059797	2020-10-13T23:11:16:536
-0,002251	-0,005392	-0,020301	2020-10-13T23:11:16:555
-0,069250	-0,115462	-0,068157	2020-10-13T23:11:16:576
0,026207	-0,042802	-0,096501	2020-10-13T23:11:16:595
0,110491	-0,068661	-0,060756	2020-10-13T23:11:16:616
-0,017360	-0,031847	-0,063433	2020-10-13T23:11:16:636
0,088697	0,007692	-0,041910	2020-10-13T23:11:16:656
0,002881	-0,002916	-0,051591	2020-10-13T23:11:16:675
0,009453	-0,065198	-0,109036	2020-10-13T23:11:16:696
0,044839	-0,011553	-0,061296	2020-10-13T23:11:16:714
-0,012492	0,014989	-0,058980	2020-10-13T23:11:16:737
0,028378	0,052876	-0,044606	2020-10-13T23:11:16:754
0,010080	0,006952	-0,097212	2020-10-13T23:11:16:776
0,009510	0,003596	-0,087629	2020-10-13T23:11:16:795
0,082634	0,001554	0,015219	2020-10-13T23:11:16:816
0,054767	-0,018753	-0,078187	2020-10-13T23:11:16:835
0,014069	-0,000016	-0,025605	2020-10-13T23:11:16:856
-0,006337	-0,000854	-0,018211	2020-10-13T23:11:16:877
-0,013516	-0,053496	-0,042140	2020-10-13T23:11:16:896
0,034743	0,058620	-0,040925	2020-10-13T23:11:16:915
0,019358	0,009740	-0,119822	2020-10-13T23:11:16:937
-0,003825	-0,005694	-0,055982	2020-10-13T23:11:16:955
-0,022968	-0,022444	-0,070338	2020-10-13T23:11:16:977
-0,007948	0,009831	-0,060009	2020-10-13T23:11:16:995
-0,000769	-0,016490	-0,009760	2020-10-13T23:11:17:016
-0,014083	0,016463	-0,038916	2020-10-13T23:11:17:035
-0,004272	0,040200	-0,081974	2020-10-13T23:11:17:056
0,019164	-0,070661	-0,031716	2020-10-13T23:11:17:075
-0,013797	-0,034566	-0,053440	2020-10-13T23:11:17:097
0,001032	0,003310	-0,084589	2020-10-13T23:11:17:116
0,013442	0,040130	-0,034287	2020-10-13T23:11:17:137
-0,041991	-0,027141	-0,077295	2020-10-13T23:11:17:155
0,014755	0,014568	-0,012671	2020-10-13T23:11:17:176
0,009241	-0,034026	-0,015063	2020-10-13T23:11:17:195
0,004020	0,015202	-0,039042	2020-10-13T23:11:17:217
0,011037	-0,012538	-0,043982	2020-10-13T23:11:17:236
-0,005365	-0,000951	-0,110961	2020-10-13T23:11:17:260
-0,034079	0,061263	-0,048747	2020-10-13T23:11:17:276
0,044431	-0,073358	-0,048195	2020-10-13T23:11:17:296
-0,001055	-0,006372	-0,074631	2020-10-13T23:11:17:316
0,003730	-0,066192	-0,057880	2020-10-13T23:11:17:337
-0,003463	0,053492	-0,076566	2020-10-13T23:11:17:356
0,015769	0,129756	-0,009494	2020-10-13T23:11:17:376
-0,033081	-0,006578	-0,033320	2020-10-13T23:11:17:396
-0,034763	-0,026511	-0,038133	2020-10-13T23:11:17:417
-0,021614	-0,008128	-0,102755	2020-10-13T23:11:17:436
-0,013298	-0,003510	-0,045298	2020-10-13T23:11:17:457
-0,005564	-0,002267	-0,040682	2020-10-13T23:11:17:476
0,018364	0,055161	-0,031111	2020-10-13T23:11:17:497
-0,013688	-0,000890	-0,077877	2020-10-13T23:11:17:516
-0,034809	0,030548	-0,113770	2020-10-13T23:11:17:537
-0,002503	-0,068418	-0,077825	2020-10-13T23:11:17:555
-0,028482	0,011899	-0,046821	2020-10-13T23:11:17:577
-0,048689	-0,094398	-0,087440	2020-10-13T23:11:17:596
0,030617	-0,028033	-0,013320	2020-10-13T23:11:17:617
-0,035620	-0,027014	-0,063637	2020-10-13T23:11:17:636
-0,019857	-0,004312	-0,066031	2020-10-13T23:11:17:657
-0,009527	-0,045029	-0,022943	2020-10-13T23:11:17:675
0,017098	-0,071704	-0,066064	2020-10-13T23:11:17:697
-0,038901	0,015673	-0,070975	2020-10-13T23:11:17:715
-0,000570	-0,006650	-0,064978	2020-10-13T23:11:17:738
0,001823	-0,028186	-0,093692	2020-10-13T23:11:17:756
-0,009520	0,062023	-0,082446	2020-10-13T23:11:17:778
-0,068400	0,043462	-0,113413	2020-10-13T23:11:17:796
0,026284	-0,019089	-0,046239	2020-10-13T23:11:17:818
0,003363	-0,011046	-0,039122	2020-10-13T23:11:17:837
0,022048	-0,086771	0,013485	2020-10-13T23:11:17:857
-0,067495	-0,022625	-0,053659	2020-10-13T23:11:17:876
-0,018655	-0,020074	-0,072719	2020-10-13T23:11:17:898
-0,005178	-0,004022	-0,077807	2020-10-13T23:11:17:916
-0,043463	-0,037522	-0,025166	2020-10-13T23:11:17:938
-0,000643	-0,004992	-0,057736	2020-10-13T23:11:17:958
0,063963	-0,024135	-0,052951	2020-10-13T23:11:17:977
-0,065726	0,044122	-0,052787	2020-10-13T23:11:17:996
-0,014627	0,005181	-0,050243	2020-10-13T23:11:18:017
0,000583	-0,004006	-0,089376	2020-10-13T23:11:18:038
0,002976	0,000780	-0,065448	2020-10-13T23:11:18:058
0,008883	-0,016206	-0,067801	2020-10-13T23:11:18:079
-0,039371	-0,020553	-0,075002	2020-10-13T23:11:18:099
-0,030089	-0,041736	-0,029493	2020-10-13T23:11:18:116
0,055909	0,059020	-0,048584	2020-10-13T23:11:18:138
-0,007837	0,008484	-0,091964	2020-10-13T23:11:18:156
0,083090	0,022841	-0,024965	2020-10-13T23:11:18:178
-0,059278	-0,038990	-0,064695	2020-10-13T23:11:18:197
-0,056005	-0,042174	-0,088598	2020-10-13T23:11:18:217
-0,100489	-0,052999	-0,043095	2020-10-13T23:11:18:237
-0,069835	0,006240	-0,045441	2020-10-13T23:11:18:258
0,002953	-0,021786	-0,076428	2020-10-13T23:11:18:276
-0,021067	0,036003	-0,054904	2020-10-13T23:11:18:298
-0,046274	-0,018898	-0,021320	2020-10-13T23:11:18:317
-0,013037	0,024743	0,016996	2020-10-13T23:11:18:338
-0,036486	0,021119	-0,090637	2020-10-13T23:11:18:356
-0,039543	-0,016173	-0,025955	2020-10-13T23:11:18:378
0,012240	0,010980	-0,073798	2020-10-13T23:11:18:396
-0,040856	0,008233	-0,069014	2020-10-13T23:11:18:418
-0,022209	-0,021471	-0,030659	2020-10-13T23:11:18:437
-0,054187	-0,009856	-0,044971	2020-10-13T23:11:18:458
0,015769	-0,054495	-0,056826	2020-10-13T23:11:18:477
-0,032365	0,035475	-0,049691	2020-10-13T23:11:18:498
0,002669	0,016738	-0,013709	2020-10-13T23:11:18:517
-0,088516	-0,003311	-0,066333	2020-10-13T23:11:18:539
-0,086634	-0,042502	-0,104493	2020-10-13T23:11:18:557
-0,031624	-0,013709	-0,066093	2020-10-13T23:11:18:578
0,006131	-0,028778	-0,006208	2020-10-13T23:11:18:597
-0,022984	-0,018159	-0,051711	2020-10-13T23:11:18:618
0,019103	-0,013246	-0,044501	2020-10-13T23:11:18:637
0,008712	0,015474	-0,056486	2020-10-13T23:11:18:658
0,022735	-0,062048	-0,025362	2020-10-13T23:11:18:676
-0,016562	-0,040156	-0,054174	2020-10-13T23:11:18:698
0,017792	-0,010085	-0,066154	2020-10-13T23:11:18:717
-0,038050	-0,000976	-0,054197	2020-10-13T23:11:18:739
0,011483	-0,023002	-0,085250	2020-10-13T23:11:18:757
0,025986	0,029002	-0,051729	2020-10-13T23:11:18:778
0,018268	-0,060018	-0,054057	2020-10-13T23:11:18:798
-0,039622	-0,009941	-0,032594	2020-10-13T23:11:18:818
-0,037173	-0,015615	-0,061223	2020-10-13T23:11:18:837
-0,020143	0,030884	-0,116155	2020-10-13T23:11:18:858
-0,030547	0,071311	-0,053829	2020-10-13T23:11:18:876
-0,122081	0,122316	-0,046494	2020-10-13T23:11:18:900
-0,051426	-0,030118	-0,046154	2020-10-13T23:11:18:917
0,001808	-0,006036	-0,058044	2020-10-13T23:11:18:939
0,055044	-0,002456	-0,050816	2020-10-13T23:11:18:957
0,014484	-0,003759	-0,048445	2020-10-13T23:11:18:978
0,022950	-0,051664	-0,070008	2020-10-13T23:11:18:997
-0,005817	0,005239	-0,057818	2020-10-13T23:11:19:019
-0,070423	-0,054582	0,002003	2020-10-13T23:11:19:038
0,023854	0,167547	-0,081165	2020-10-13T23:11:19:058
0,007908	0,094393	-0,049869	2020-10-13T23:11:19:078
-0,022494	0,028966	-0,054521	2020-10-13T23:11:19:098
0,060517	0,134341	0,026930	2020-10-13T23:11:19:117
0,094163	0,055547	-0,090235	2020-10-13T23:11:19:140
0,024742	0,131293	-0,056805	2020-10-13T23:11:19:157
-0,047265	0,070098	-0,063853	2020-10-13T23:11:19:178
-0,002955	-0,006282	-0,126160	2020-10-13T23:11:19:198
-0,034062	0,034396	-0,099838	2020-10-13T23:11:19:219
-0,030821	-0,024552	0,019428	2020-10-13T23:11:19:237
-0,010981	-0,032692	-0,047595	2020-10-13T23:11:19:259
-0,009786	0,012511	-0,019246	2020-10-13T23:11:19:279
-0,060035	0,031654	-0,076674	2020-10-13T23:11:19:299
0,000959	-0,009091	-0,116570	2020-10-13T23:11:19:318
0,048815	0,010052	-0,068714	2020-10-13T23:11:19:339
-0,024504	-0,026019	-0,052945	2020-10-13T23:11:19:357
-0,032598	-0,044202	-0,036186	2020-10-13T23:11:19:379
0,034084	-0,049957	-0,086423	2020-10-13T23:11:19:397
0,035316	0,056477	-0,072131	2020-10-13T23:11:19:418
-0,004658	-0,042441	-0,031402	2020-10-13T23:11:19:438
-0,040140	-0,004812	-0,052978	2020-10-13T23:11:19:459
0,002088	-0,006910	-0,002667	2020-10-13T23:11:19:478
0,021230	-0,018875	-0,014631	2020-10-13T23:11:19:499
0,014731	-0,014773	-0,044785	2020-10-13T23:11:19:519
0,053016	0,030690	0,017427	2020-10-13T23:11:19:540
-0,011281	0,012151	-0,018956	2020-10-13T23:11:19:558
0,031789	-0,040491	-0,129026	2020-10-13T23:11:19:578
-0,044587	-0,010610	-0,008789	2020-10-13T23:11:19:597
-0,006473	0,039738	-0,018308	2020-10-13T23:11:19:620
0,027410	-0,068009	-0,097197	2020-10-13T23:11:19:637
-0,002467	0,061683	-0,099693	2020-10-13T23:11:19:658
0,005152	-0,010456	-0,083528	2020-10-13T23:11:19:678
0,041045	0,090043	-0,011743	2020-10-13T23:11:19:700
0,011463	-0,011233	-0,018770	2020-10-13T23:11:19:718
0,009070	0,003124	-0,092948	2020-10-13T23:11:19:741
0,074627	-0,009769	-0,083412	2020-10-13T23:11:19:758
-0,004404	0,065338	-0,023626	2020-10-13T23:11:19:780
0,046314	0,009317	-0,049837	2020-10-13T23:11:19:798
0,056424	-0,068638	-0,064210	2020-10-13T23:11:19:820
0,008410	-0,012213	-0,032261	2020-10-13T23:11:19:838
-0,051411	0,021287	-0,104046	2020-10-13T23:11:19:860
0,058101	-0,000749	-0,022871	2020-10-13T23:11:19:878
0,038119	-0,015362	0,000969	2020-10-13T23:11:19:900
0,050623	-0,067936	-0,051730	2020-10-13T23:11:19:918
0,062965	0,032274	-0,068604	2020-10-13T23:11:19:941
0,008653	-0,007624	-0,043250	2020-10-13T23:11:19:959
0,027170	-0,021543	-0,060029	2020-10-13T23:11:19:980
0,051032	0,012278	-0,086355	2020-10-13T23:11:19:999
0,019925	-0,057114	-0,076784	2020-10-13T23:11:20:021
-0,031542	0,029208	-0,057199	2020-10-13T23:11:20:038
-0,013294	0,038874	-0,083426	2020-10-13T23:11:20:060
0,029099	0,062429	-0,061780	2020-10-13T23:11:20:079
0,002588	0,065654	-0,047330	2020-10-13T23:11:20:101
-0,004734	0,000168	-0,059216	2020-10-13T23:11:20:117
-0,012451	0,014024	-0,048210	2020-10-13T23:11:20:141
-0,011429	0,029565	-0,050540	2020-10-13T23:11:20:159
0,000535	-0,049398	-0,052933	2020-10-13T23:11:20:181
-0,036860	0,029749	-0,059016	2020-10-13T23:11:20:199
-0,076827	0,029156	-0,035054	2020-10-13T23:11:20:220
0,010360	-0,003627	-0,066028	2020-10-13T23:11:20:239
-0,027517	0,047830	-0,073166	2020-10-13T23:11:20:260
-0,003960	0,025578	-0,065852	2020-10-13T23:11:20:278
-0,018688	-0,001323	-0,044312	2020-10-13T23:11:20:300
-0,015384	0,039066	-0,051459	2020-10-13T23:11:20:318
-0,013254	0,090060	-0,048903	2020-10-13T23:11:20:341
0,007162	0,020398	-0,070271	2020-10-13T23:11:20:358
-0,037448	0,056052	-0,031892	2020-10-13T23:11:20:380
0,048698	0,047479	-0,081971	2020-10-13T23:11:20:398
-0,001887	-0,000868	0,010268	2020-10-13T23:11:20:421
-0,106569	-0,036011	0,005587	2020-10-13T23:11:20:439
-0,032392	-0,021654	-0,049448	2020-10-13T23:11:20:460
-0,005782	-0,003082	-0,070312	2020-10-13T23:11:20:480
-0,079959	-0,010261	-0,041598	2020-10-13T23:11:20:501
0,051430	0,005958	-0,082878	2020-10-13T23:11:20:518
-0,003798	-0,003611	-0,073661	2020-10-13T23:11:20:541
0,091915	-0,003611	-0,080839	2020-10-13T23:11:20:558
-0,058038	0,000036	-0,099970	2020-10-13T23:11:20:582
-0,004845	0,092255	-0,023306	2020-10-13T23:11:20:599
-0,090427	0,032234	-0,068614	2020-10-13T23:11:20:620
-0,057697	-0,038995	-0,090008	2020-10-13T23:11:20:639
-0,057307	-0,073231	-0,030173	2020-10-13T23:11:20:661
-0,030945	-0,009228	-0,025453	2020-10-13T23:11:20:678
0,029844	-0,027162	-0,087678	2020-10-13T23:11:20:700
-0,050921	-0,001408	-0,075807	2020-10-13T23:11:20:719
-0,027356	0,043676	-0,066178	2020-10-13T23:11:20:741
-0,009134	0,059487	-0,123478	2020-10-13T23:11:20:759
-0,109578	0,075975	-0,054008	2020-10-13T23:11:20:780
-0,080436	0,033983	-0,068137	2020-10-13T23:11:20:798
-0,069926	-0,020454	-0,058433	2020-10-13T23:11:20:821
0,007570	0,044501	-0,070329	2020-10-13T23:11:20:839
-0,014344	-0,046278	-0,043950	2020-10-13T23:11:20:860
0,019314	-0,050156	-0,056008	2020-10-13T23:11:20:879
-0,039496	-0,001350	-0,072888	2020-10-13T23:11:20:902
0,026722	-0,053930	-0,036959	2020-10-13T23:11:20:919
-0,024962	0,020062	-0,089699	2020-10-13T23:11:20:941
0,007761	0,001844	-0,051332	2020-10-13T23:11:20:960
-0,082981	-0,025430	-0,056087	2020-10-13T23:11:20:981
-0,002272	-0,007020	-0,053767	2020-10-13T23:11:20:999
-0,050129	0,007337	-0,056161	2020-10-13T23:11:21:020
0,071011	-0,013570	-0,032965	2020-10-13T23:11:21:039
0,016747	0,001907	-0,097721	2020-10-13T23:11:21:061
-0,001803	-0,007267	-0,077361	2020-10-13T23:11:21:079
0,026911	0,028625	-0,086932	2020-10-13T23:11:21:100
-0,015748	0,012859	-0,043138	2020-10-13T23:11:21:120
0,048858	0,075072	-0,021601	2020-10-13T23:11:21:142
-0,033014	-0,029277	-0,100071	2020-10-13T23:11:21:159
-0,033824	0,014590	-0,073735	2020-10-13T23:11:21:181
0,000929	-0,008919	-0,072610	2020-10-13T23:11:21:201
0,017679	-0,001741	-0,036717	2020-10-13T23:11:21:221
-0,030205	-0,101546	-0,075443	2020-10-13T23:11:21:240
0,010202	-0,013058	-0,051596	2020-10-13T23:11:21:261
-0,064648	0,032369	-0,073147	2020-10-13T23:11:21:279
-0,014069	-0,069943	-0,003637	2020-10-13T23:11:21:302
-0,061407	-0,007096	-0,037209	2020-10-13T23:11:21:319
-0,018061	-0,007099	-0,061069	2020-10-13T23:11:21:341
-0,009917	-0,014442	-0,037113	2020-10-13T23:11:21:359
-0,001841	-0,005857	0,013927	2020-10-13T23:11:21:382
0,024480	0,053964	-0,050678	2020-10-13T23:11:21:399
0,005938	-0,030473	-0,001569	2020-10-13T23:11:21:421
-0,044199	-0,086786	-0,099710	2020-10-13T23:11:21:440
-0,012998	-0,099736	-0,080645	2020-10-13T23:11:21:462
-0,018854	-0,085563	-0,028131	2020-10-13T23:11:21:480
-0,086988	-0,079507	-0,049763	2020-10-13T23:11:21:501
-0,022989	-0,090161	-0,083288	2020-10-13T23:11:21:519
-0,043300	-0,090234	-0,104952	2020-10-13T23:11:21:542
-0,049164	-0,068122	-0,042884	2020-10-13T23:11:21:559
-0,056888	-0,073735	-0,093217	2020-10-13T23:11:21:581
-0,044995	-0,107786	-0,052618	2020-10-13T23:11:21:599
-0,035958	-0,041886	-0,107800	2020-10-13T23:11:21:622
0,018680	-0,067045	-0,091035	2020-10-13T23:11:21:640
-0,006301	-0,049845	-0,045687	2020-10-13T23:11:21:661
-0,015189	-0,029149	-0,057681	2020-10-13T23:11:21:680
-0,081305	-0,086390	-0,024166	2020-10-13T23:11:21:702
-0,002823	-0,045054	-0,036113	2020-10-13T23:11:21:719
-0,088686	-0,089165	-0,052896	2020-10-13T23:11:21:741
0,007320	-0,069452	-0,052853	2020-10-13T23:11:21:759
-0,024227	-0,052269	-0,055343	2020-10-13T23:11:21:782
-0,003438	-0,004800	-0,055906	2020-10-13T23:11:21:800
0,004254	-0,107783	-0,029736	2020-10-13T23:11:21:822
0,045826	-0,103929	-0,082550	2020-10-13T23:11:21:841
0,048219	-0,065644	-0,075372	2020-10-13T23:11:21:862
-0,043745	-0,045253	-0,068901	2020-10-13T23:11:21:880
-0,043759	-0,094035	-0,032997	2020-10-13T23:11:21:902
-0,055479	-0,008946	-0,102432	2020-10-13T23:11:21:921
0,002911	-0,041688	-0,090347	2020-10-13T23:11:21:942
0,022467	0,002242	-0,035327	2020-10-13T23:11:21:960
-0,014403	-0,010398	-0,061651	2020-10-13T23:11:21:981
-0,009056	0,010579	-0,105371	2020-10-13T23:11:22:000
-0,107162	-0,027706	-0,050336	2020-10-13T23:11:22:023
0,058920	-0,017934	-0,017159	2020-10-13T23:11:22:040
0,034551	0,013398	-0,043573	2020-10-13T23:11:22:061
0,047665	0,033569	-0,019649	2020-10-13T23:11:22:080
0,041448	0,054201	-0,050717	2020-10-13T23:11:22:103
-0,009407	0,068856	-0,074552	2020-10-13T23:11:22:120
-0,019572	0,025721	-0,069587	2020-10-13T23:11:22:142
0,008600	0,037331	-0,023994	2020-10-13T23:11:22:160
0,037341	-0,046875	-0,038276	2020-10-13T23:11:22:182
0,041207	0,054407	-0,090966	2020-10-13T23:11:22:200
0,032053	-0,037225	-0,095731	2020-10-13T23:11:22:221
0,083548	-0,057845	-0,100574	2020-10-13T23:11:22:240
0,037402	0,000993	-0,045670	2020-10-13T23:11:22:264
0,026626	0,023690	-0,052851	2020-10-13T23:11:22:280
0,027825	0,024157	-0,052835	2020-10-13T23:11:22:302
0,023815	-0,015476	-0,076776	2020-10-13T23:11:22:320
0,039672	0,001568	-0,067239	2020-10-13T23:11:22:343
-0,026536	0,053365	-0,084012	2020-10-13T23:11:22:360
-0,003546	-0,014558	-0,043201	2020-10-13T23:11:22:382
0,027871	-0,011971	-0,098232	2020-10-13T23:11:22:401
0,057684	-0,024094	-0,079123	2020-10-13T23:11:22:423
0,059685	-0,016673	-0,062462	2020-10-13T23:11:22:441
-0,019904	-0,064712	-0,100829	2020-10-13T23:11:22:462
0,043704	0,045346	-0,019497	2020-10-13T23:11:22:480
-0,013625	0,007395	-0,074543	2020-10-13T23:11:22:503
0,034959	0,018860	-0,048187	2020-10-13T23:11:22:520
-0,019393	0,032232	-0,127173	2020-10-13T23:11:22:542
0,060936	-0,087237	-0,062466	2020-10-13T23:11:22:560
0,020569	0,025625	-0,055425	2020-10-13T23:11:22:583
0,012747	-0,000445	-0,119989	2020-10-13T23:11:22:600
0,019594	0,051489	-0,081694	2020-10-13T23:11:22:622
0,000160	-0,003174	-0,063479	2020-10-13T23:11:22:643
0,033660	-0,007959	-0,077836	2020-10-13T23:11:22:663
-0,000609	0,002731	-0,011766	2020-10-13T23:11:22:680
-0,041997	-0,022680	-0,107518	2020-10-13T23:11:22:702
0,012731	0,006329	-0,064409	2020-10-13T23:11:22:720
0,019494	0,038744	-0,155317	2020-10-13T23:11:22:744
-0,014976	0,048506	-0,095461	2020-10-13T23:11:22:760
-0,031155	-0,049545	-0,069065	2020-10-13T23:11:22:783
-0,015307	-0,040136	-0,035591	2020-10-13T23:11:22:800
-0,029606	-0,047787	-0,002140	2020-10-13T23:11:22:824
-0,035286	0,057223	-0,057197	2020-10-13T23:11:22:841
-0,052506	-0,000975	-0,085783	2020-10-13T23:11:22:862
-0,076201	-0,033149	-0,054586	2020-10-13T23:11:22:881
-0,080166	0,027891	-0,080864	2020-10-13T23:11:22:904
-0,004508	0,011256	-0,111818	2020-10-13T23:11:22:921
-0,056790	0,000830	-0,102215	2020-10-13T23:11:22:943
0,037067	-0,006995	-0,018378	2020-10-13T23:11:22:961
0,010961	-0,010811	-0,051956	2020-10-13T23:11:22:983
-0,000179	-0,000838	-0,102758	2020-10-13T23:11:23:001
0,011785	-0,086979	-0,040545	2020-10-13T23:11:23:022
-0,010834	-0,082285	-0,050243	2020-10-13T23:11:23:041
-0,008603	-0,026728	-0,009683	2020-10-13T23:11:23:064
-0,015994	0,099714	-0,024088	2020-10-13T23:11:23:082
-0,033066	0,058129	-0,050347	2020-10-13T23:11:23:103
0,004620	-0,044675	-0,024045	2020-10-13T23:11:23:122
-0,042102	0,081284	-0,028945	2020-10-13T23:11:23:144
-0,018621	0,082287	-0,028815	2020-10-13T23:11:23:161
-0,063829	0,034069	-0,040714	2020-10-13T23:11:23:183
0,017544	0,025928	-0,019094	2020-10-13T23:11:23:201
-0,008113	-0,007930	-0,086131	2020-10-13T23:11:23:224
0,024207	0,010656	-0,038345	2020-10-13T23:11:23:242
-0,024922	-0,026043	-0,067075	2020-10-13T23:11:23:263
-0,006032	-0,004915	-0,016761	2020-10-13T23:11:23:281
0,052082	0,049424	-0,045442	2020-10-13T23:11:23:304
-0,019311	-0,030627	-0,002348	2020-10-13T23:11:23:321
-0,018105	-0,044620	-0,026253	2020-10-13T23:11:23:344
-0,009331	0,013218	-0,102789	2020-10-13T23:11:23:362
-0,037153	0,023476	-0,071622	2020-10-13T23:11:23:384
-0,030665	0,048588	-0,081121	2020-10-13T23:11:23:401
-0,002556	-0,009144	-0,061871	2020-10-13T23:11:23:423
0,005407	0,021112	-0,083366	2020-10-13T23:11:23:441
0,046726	0,013856	-0,085686	2020-10-13T23:11:23:464
0,016286	-0,014494	-0,013901	2020-10-13T23:11:23:481
0,031873	0,055210	-0,042654	2020-10-13T23:11:23:503
-0,006624	0,003970	-0,060401	2020-10-13T23:11:23:521
-0,020981	0,061398	-0,050830	2020-10-13T23:11:23:544
-0,003320	0,046739	-0,068099	2020-10-13T23:11:23:562
0,006615	-0,015736	-0,060848	2020-10-13T23:11:23:583
0,003232	-0,008195	-0,060991	2020-10-13T23:11:23:604
0,005625	-0,063229	-0,044242	2020-10-13T23:11:23:624
0,008413	0,030231	-0,019432	2020-10-13T23:11:23:642
-0,023211	0,009606	-0,017023	2020-10-13T23:11:23:663
0,030534	0,042220	-0,088761	2020-10-13T23:11:23:682
-0,023413	-0,010468	-0,062428	2020-10-13T23:11:23:705
-0,005596	-0,000416	-0,010579	2020-10-13T23:11:23:722
-0,007989	0,013941	-0,077579	2020-10-13T23:11:23:743
0,047473	0,106180	-0,017214	2020-10-13T23:11:23:761
-0,006469	0,040698	-0,012350	2020-10-13T23:11:23:784
0,007102	-0,007620	-0,019050	2020-10-13T23:11:23:802
0,011887	-0,012405	-0,014263	2020-10-13T23:11:23:824
-0,025966	-0,036218	-0,081820	2020-10-13T23:11:23:842
-0,032129	-0,061031	-0,010043	2020-10-13T23:11:23:864
-0,117375	-0,011998	-0,043599	2020-10-13T23:11:23:881
-0,038366	0,017235	-0,000421	2020-10-13T23:11:23:904
-0,009757	0,060744	-0,067321	2020-10-13T23:11:23:921
-0,020929	0,030506	-0,060037	2020-10-13T23:11:23:946
-0,023806	0,056198	-0,033602	2020-10-13T23:11:23:961
-0,005691	0,004470	-0,063190	2020-10-13T23:11:23:983
0,032594	-0,048172	-0,058404	2020-10-13T23:11:24:001
-0,058324	-0,063473	-0,081853	2020-10-13T23:11:24:025
-0,007203	0,019643	-0,055487	2020-10-13T23:11:24:042
-0,004010	0,010188	-0,067383	2020-10-13T23:11:24:063
0,010895	-0,000659	-0,012307	2020-10-13T23:11:24:083
0,007848	0,058940	-0,064962	2020-10-13T23:11:24:104
0,058178	0,038649	-0,043350	2020-10-13T23:11:24:122
-0,032582	-0,048117	-0,117517	2020-10-13T23:11:24:144
-0,013687	0,034514	-0,045707	2020-10-13T23:11:24:162
-0,003356	0,022765	-0,074354	2020-10-13T23:11:24:184
-0,015126	-0,014641	-0,098245	2020-10-13T23:11:24:202
-0,004390	0,028015	-0,095812	2020-10-13T23:11:24:224
-0,013595	-0,021769	-0,067046	2020-10-13T23:11:24:243
0,001539	-0,013919	-0,110113	2020-10-13T23:11:24:265
-0,048494	0,014975	-0,081397	2020-10-13T23:11:24:282
0,048044	-0,010457	-0,057353	2020-10-13T23:11:24:304
-0,025811	0,006165	-0,028689	2020-10-13T23:11:24:323
0,035833	0,007569	-0,086048	2020-10-13T23:11:24:345
0,001174	-0,053374	-0,011875	2020-10-13T23:11:24:362
-0,022595	-0,015131	-0,050208	2020-10-13T23:11:24:384
0,057277	0,021317	-0,066947	2020-10-13T23:11:24:402
-0,002228	-0,004147	-0,051659	2020-10-13T23:11:24:425
-0,071620	-0,037646	-0,054051	2020-10-13T23:11:24:442
0,047079	-0,001329	-0,021966	2020-10-13T23:11:24:463
-0,017479	-0,040100	-0,072274	2020-10-13T23:11:24:482
0,011550	0,038773	-0,074715	2020-10-13T23:11:24:505
-0,020153	0,017415	-0,036392	2020-10-13T23:11:24:522
0,036646	-0,053579	-0,074584	2020-10-13T23:11:24:544
0,100582	0,000587	-0,091392	2020-10-13T23:11:24:563
0,122043	0,006443	0,006600	2020-10-13T23:11:24:585
0,039601	-0,021869	-0,127521	2020-10-13T23:11:24:603
0,047330	0,012126	-0,022303	2020-10-13T23:11:24:624
0,053995	-0,059781	-0,031954	2020-10-13T23:11:24:642
-0,035211	-0,051705	-0,056053	2020-10-13T23:11:24:665
0,066885	-0,040026	-0,051274	2020-10-13T23:11:24:682
0,030418	-0,034445	-0,003522	2020-10-13T23:11:24:704
0,028524	-0,003952	-0,008405	2020-10-13T23:11:24:722
0,027153	-0,042604	-0,025184	2020-10-13T23:11:24:745
0,043453	0,063293	-0,061103	2020-10-13T23:11:24:762
0,008359	0,054142	-0,037111	2020-10-13T23:11:24:784
0,010528	0,005778	-0,056188	2020-10-13T23:11:24:803
0,043740	-0,035831	-0,070529	2020-10-13T23:11:24:825
-0,006324	-0,031812	0,010726	2020-10-13T23:11:24:843
0,053839	-0,052076	-0,051511	2020-10-13T23:11:24:864
0,039625	-0,022262	-0,015707	2020-10-13T23:11:24:882
-0,007219	-0,086974	-0,051635	2020-10-13T23:11:24:905
0,029502	0,026394	-0,051694	2020-10-13T23:11:24:923
-0,005166	-0,042635	-0,003819	2020-10-13T23:11:24:944
-0,028306	-0,050656	-0,056479	2020-10-13T23:11:24:963
-0,001730	0,016952	-0,030100	2020-10-13T23:11:24:985
0,000030	-0,007611	-0,054515	2020-10-13T23:11:25:003
-0,095683	0,140744	-0,071265	2020-10-13T23:11:25:031
0,136098	-0,071427	-0,058007	2020-10-13T23:11:25:044
0,104642	-0,128114	-0,032024	2020-10-13T23:11:25:065
0,061863	-0,153389	-0,089770	2020-10-13T23:11:25:083
0,093153	-0,038089	-0,051782	2020-10-13T23:11:25:104
0,028719	-0,094487	-0,037596	2020-10-13T23:11:25:123
0,032350	-0,123628	-0,099971	2020-10-13T23:11:25:146
0,013483	-0,015018	-0,083205	2020-10-13T23:11:25:163
-0,041552	0,004124	-0,047313	2020-10-13T23:11:25:184
-0,002418	-0,002430	-0,073750	2020-10-13T23:11:25:204
-0,002418	-0,062251	-0,047428	2020-10-13T23:11:25:225
0,017980	0,061306	-0,051065	2020-10-13T23:11:25:243
-0,046860	0,059766	-0,034247	2020-10-13T23:11:25:265
-0,022549	0,070614	-0,046074	2020-10-13T23:11:25:283
0,015359	0,111648	-0,017220	2020-10-13T23:11:25:305
0,064158	0,061948	-0,105597	2020-10-13T23:11:25:323
0,002199	0,107464	-0,112733	2020-10-13T23:11:25:345
-0,011252	-0,020837	-0,091040	2020-10-13T23:11:25:363
0,004004	0,067742	-0,024019	2020-10-13T23:11:25:385
-0,022082	0,032819	-0,071786	2020-10-13T23:11:25:403
-0,015078	0,008587	-0,047740	2020-10-13T23:11:25:425
0,009987	-0,040639	-0,064430	2020-10-13T23:11:25:444
0,004962	0,003896	-0,035755	2020-10-13T23:11:25:466
0,004538	-0,003389	-0,051949	2020-10-13T23:11:25:484
-0,040926	0,003789	-0,075877	2020-10-13T23:11:25:505
0,066771	-0,004393	-0,050638	2020-10-13T23:11:25:524
0,056544	-0,059902	-0,048321	2020-10-13T23:11:25:546
-0,005596	-0,048365	-0,046047	2020-10-13T23:11:25:564
0,052824	0,017740	-0,081951	2020-10-13T23:11:25:585
0,060228	0,025198	-0,091528	2020-10-13T23:11:25:603
-0,005039	-0,035976	0,013706	2020-10-13T23:11:25:627
-0,012279	-0,000626	-0,070094	2020-10-13T23:11:25:644
0,008894	0,019480	-0,050986	2020-10-13T23:11:25:665
-0,005303	0,006293	-0,068625	2020-10-13T23:11:25:684
-0,069909	-0,024814	-0,051876	2020-10-13T23:11:25:706
-0,009438	0,011445	-0,085875	2020-10-13T23:11:25:724
-0,038152	0,128693	-0,042804	2020-10-13T23:11:25:745
-0,001084	-0,000429	-0,062505	2020-10-13T23:11:25:766
0,010881	0,033070	-0,055326	2020-10-13T23:11:25:786
-0,004010	-0,005641	-0,018476	2020-10-13T23:11:25:804
-0,038775	-0,016660	-0,023132	2020-10-13T23:11:25:826
-0,013924	-0,019262	-0,068566	2020-10-13T23:11:25:844
0,026754	-0,007298	-0,070959	2020-10-13T23:11:25:866
-0,062842	0,015056	-0,045418	2020-10-13T23:11:25:885
-0,000237	-0,007565	-0,066858	2020-10-13T23:11:25:905
0,007581	0,002838	-0,109637	2020-10-13T23:11:25:924
0,025219	0,077744	-0,111880	2020-10-13T23:11:25:947
-0,005888	0,049030	-0,032917	2020-10-13T23:11:25:964
0,046432	-0,022310	-0,041188	2020-10-13T23:11:25:986
0,028160	-0,034408	-0,014909	2020-10-13T23:11:26:005
0,024582	-0,023643	-0,005404	2020-10-13T23:11:26:026
-0,000000	0,052989	-0,041318	2020-10-13T23:11:26:045
0,017681	-0,015747	-0,043580	2020-10-13T23:11:26:065
-0,000221	-0,005052	-0,053898	2020-10-13T23:11:26:084
0,011743	0,002127	-0,073041	2020-10-13T23:11:26:107
-0,029035	0,062895	-0,111516	2020-10-13T23:11:26:124
0,001510	0,106734	-0,032406	2020-10-13T23:11:26:146
0,090461	0,055685	-0,101651	2020-10-13T23:11:26:164
0,009644	0,015958	-0,034678	2020-10-13T23:11:26:186
0,023548	-0,044713	-0,082526	2020-10-13T23:11:26:204
0,015395	0,015107	-0,010828	2020-10-13T23:11:26:226
0,012146	-0,015595	-0,073368	2020-10-13T23:11:26:247
-0,030925	0,013118	-0,097297	2020-10-13T23:11:26:266
0,000046	-0,005651	-0,092897	2020-10-13T23:11:26:285
0,035939	-0,003258	-0,083326	2020-10-13T23:11:26:306
0,011805	-0,013506	-0,002110	2020-10-13T23:11:26:324
-0,036051	-0,027863	-0,090644	2020-10-13T23:11:26:347
0,036216	-0,050506	-0,013757	2020-10-13T23:11:26:364
0,037774	0,026770	-0,073624	2020-10-13T23:11:26:386
0,005016	-0,109938	-0,109486	2020-10-13T23:11:26:405
0,019407	-0,040614	-0,107230	2020-10-13T23:11:26:428
0,047303	0,003470	-0,057034	2020-10-13T23:11:26:445
-0,004761	-0,021414	-0,092953	2020-10-13T23:11:26:466
0,048145	-0,054159	-0,016397	2020-10-13T23:11:26:485
0,017369	-0,054709	-0,016511	2020-10-13T23:11:26:506
0,031532	0,020990	-0,038095	2020-10-13T23:11:26:524
0,052084	0,071470	-0,085918	2020-10-13T23:11:26:546
0,021373	-0,014103	-0,061926	2020-10-13T23:11:26:564
0,075197	-0,037040	-0,045239	2020-10-13T23:11:26:587
0,003180	0,005066	-0,062037	2020-10-13T23:11:26:605
-0,066212	-0,011684	-0,097930	2020-10-13T23:11:26:626
0,038744	-0,009603	-0,031760	2020-10-13T23:11:26:645
0,017320	-0,052291	0,004056	2020-10-13T23:11:26:667
0,044880	-0,061280	-0,079802	2020-10-13T23:11:26:684
0,011800	-0,010742	-0,024890	2020-10-13T23:11:26:706
0,030721	0,010292	-0,075133	2020-10-13T23:11:26:725
0,065082	0,030754	-0,063188	2020-10-13T23:11:26:747
0,007106	-0,062316	-0,056041	2020-10-13T23:11:26:765
0,012151	0,030458	-0,094363	2020-10-13T23:11:26:786
-0,010114	0,010011	-0,094745	2020-10-13T23:11:26:805
-0,007168	-0,020471	-0,030139	2020-10-13T23:11:26:828
0,004143	-0,028204	-0,046951	2020-10-13T23:11:26:845
0,004143	0,007688	-0,023024	2020-10-13T23:11:26:866
-0,008954	-0,029291	-0,034878	2020-10-13T23:11:26:885
0,037519	0,009725	-0,089904	2020-10-13T23:11:26:908
0,062492	0,010219	-0,159285	2020-10-13T23:11:26:925
0,040603	0,041948	-0,025315	2020-10-13T23:11:26:947
0,021457	0,040121	-0,044474	2020-10-13T23:11:26:965
0,022028	-0,018289	-0,044497	2020-10-13T23:11:26:987
-0,022859	-0,081318	-0,061334	2020-10-13T23:11:27:005
0,015947	-0,026343	-0,085369	2020-10-13T23:11:27:026
0,010331	-0,008640	-0,056702	2020-10-13T23:11:27:045
0,009207	0,018984	-0,044798	2020-10-13T23:11:27:067
-0,034885	-0,019302	-0,018504	2020-10-13T23:11:27:085
0,017005	-0,035470	-0,063940	2020-10-13T23:11:27:106
0,004408	0,017917	-0,056796	2020-10-13T23:11:27:125
-0,022255	0,086651	-0,011324	2020-10-13T23:11:27:148
0,047747	-0,022126	-0,080613	2020-10-13T23:11:27:165
-0,018023	-0,122397	-0,090342	2020-10-13T23:11:27:187
-0,004940	-0,027474	-0,076114	2020-10-13T23:11:27:206
0,050234	0,001724	-0,092871	2020-10-13T23:11:27:228
-0,007062	-0,016096	-0,049832	2020-10-13T23:11:27:245
-0,004414	-0,016067	-0,011541	2020-10-13T23:11:27:267
0,000263	0,001737	-0,080961	2020-10-13T23:11:27:285
0,007330	-0,031922	-0,040282	2020-10-13T23:11:27:308
-0,004834	0,045464	0,005157	2020-10-13T23:11:27:325
-0,040007	0,001739	-0,068929	2020-10-13T23:11:27:347
-0,000367	-0,006610	-0,056413	2020-10-13T23:11:27:366
0,035525	0,005354	-0,063591	2020-10-13T23:11:27:388
0,022956	-0,016109	-0,061819	2020-10-13T23:11:27:405
-0,043124	-0,053757	-0,049905	2020-10-13T23:11:27:427
-0,086360	-0,101999	-0,059482	2020-10-13T23:11:27:447
-0,017676	-0,001153	-0,073885	2020-10-13T23:11:27:467
-0,067355	-0,039131	-0,047559	2020-10-13T23:11:27:485
-0,025933	0,018383	-0,109766	2020-10-13T23:11:27:507
0,004207	-0,016486	-0,006805	2020-10-13T23:11:27:525
-0,077703	0,015545	-0,069057	2020-10-13T23:11:27:548
0,012046	0,019049	-0,049796	2020-10-13T23:11:27:565
-0,005134	-0,027700	-0,021058	2020-10-13T23:11:27:587
-0,004857	-0,015047	-0,061748	2020-10-13T23:11:27:605
0,005317	-0,072624	-0,092836	2020-10-13T23:11:27:628
-0,004431	-0,028384	-0,073792	2020-10-13T23:11:27:646
-0,025998	-0,074781	-0,071438	2020-10-13T23:11:27:667
-0,022080	0,026479	-0,054733	2020-10-13T23:11:27:686
-0,046896	0,043328	0,005182	2020-10-13T23:11:27:708
0,051250	-0,095976	-0,047326	2020-10-13T23:11:27:726
0,013217	0,009095	-0,090567	2020-10-13T23:11:27:747
0,005444	-0,068055	-0,035531	2020-10-13T23:11:27:765
0,026884	-0,049959	-0,018880	2020-10-13T23:11:27:789
-0,065290	-0,035671	-0,066823	2020-10-13T23:11:27:805
0,024111	0,018108	0,019367	2020-10-13T23:11:27:827
-0,002368	-0,002139	-0,073081	2020-10-13T23:11:27:847
-0,009547	0,005040	-0,070688	2020-10-13T23:11:27:868
0,033058	-0,025793	-0,019945	2020-10-13T23:11:27:886
0,040803	-0,046051	-0,070279	2020-10-13T23:11:27:909
0,012078	-0,091526	-0,008194	2020-10-13T23:11:27:926
-0,005408	-0,017594	-0,003547	2020-10-13T23:11:27:949
-0,021888	-0,029222	-0,056190	2020-10-13T23:11:27:965
0,025705	-0,029142	-0,080062	2020-10-13T23:11:27:988
0,017393	-0,045321	-0,022680	2020-10-13T23:11:28:006
0,025782	-0,048035	-0,077800	2020-10-13T23:11:28:029
0,022604	0,022971	-0,044363	2020-10-13T23:11:28:046
-0,063344	-0,027567	-0,053861	2020-10-13T23:11:28:067
-0,033331	-0,049399	-0,058537	2020-10-13T23:11:28:091
0,000023	0,016834	-0,041768	2020-10-13T23:11:28:109
-0,014050	-0,025173	-0,058475	2020-10-13T23:11:28:126
0,035089	0,020456	-0,084764	2020-10-13T23:11:28:147
0,029017	0,016367	-0,068007	2020-10-13T23:11:28:167
-0,032346	-0,039517	-0,087171	2020-10-13T23:11:28:188
0,050232	-0,082566	-0,020199	2020-10-13T23:11:28:206
0,021507	-0,056639	-0,087377	2020-10-13T23:11:28:227
-0,044131	0,008134	-0,073112	2020-10-13T23:11:28:246
-0,020240	0,047561	-0,065837	2020-10-13T23:11:28:268
0,031326	-0,036716	-0,015478	2020-10-13T23:11:28:285
0,046496	-0,042260	-0,034706	2020-10-13T23:11:28:307
-0,001208	-0,085927	-0,063527	2020-10-13T23:11:28:326
0,015750	-0,022160	-0,068404	2020-10-13T23:11:28:349
0,029504	0,012124	-0,034940	2020-10-13T23:11:28:366
-0,019626	-0,019954	-0,039737	2020-10-13T23:11:28:387
0,015631	0,032489	-0,070790	2020-10-13T23:11:28:407
-0,027584	-0,030173	-0,077903	2020-10-13T23:11:28:428
-0,018057	0,025012	-0,010842	2020-10-13T23:11:28:447
-0,014654	-0,022138	-0,099306	2020-10-13T23:11:28:467
-0,018491	-0,062578	-0,075358	2020-10-13T23:11:28:486
0,011613	-0,009892	-0,049059	2020-10-13T23:11:28:509
0,006657	-0,036463	-0,080164	2020-10-13T23:11:28:526
0,015530	-0,039562	-0,003654	2020-10-13T23:11:28:548
-0,023752	-0,094652	-0,070739	2020-10-13T23:11:28:566
0,025543	-0,049931	-0,061224	2020-10-13T23:11:28:589
0,003757	-0,034647	-0,070826	2020-10-13T23:11:28:607
-0,004383	-0,005954	-0,046829	2020-10-13T23:11:28:629
-0,023526	-0,068167	-0,087507	2020-10-13T23:11:28:647
0,007076	-0,035441	-0,064621	2020-10-13T23:11:28:669
-0,014787	0,008815	-0,052691	2020-10-13T23:11:28:686
-0,006598	0,031755	-0,098107	2020-10-13T23:11:28:708
0,003511	-0,009845	-0,068063	2020-10-13T23:11:28:727
0,034617	-0,062487	-0,058491	2020-10-13T23:11:28:749
-0,004845	-0,001636	-0,090024	2020-10-13T23:11:28:767
-0,026380	0,067756	-0,063703	2020-10-13T23:11:28:788
0,004058	-0,099544	-0,085543	2020-10-13T23:11:28:807
-0,009345	0,006888	-0,016427	2020-10-13T23:11:28:830
-0,047630	-0,060111	-0,069070	2020-10-13T23:11:28:847
-0,003022	-0,006311	-0,031702	2020-10-13T23:11:28:869
-0,024557	-0,046989	-0,079558	2020-10-13T23:11:28:888
0,045624	0,041381	-0,039114	2020-10-13T23:11:28:909
0,020045	-0,038207	-0,048674	2020-10-13T23:11:28:927
0,098547	0,022888	-0,048716	2020-10-13T23:11:28:949
0,103521	-0,050805	-0,087105	2020-10-13T23:11:28:966
0,019234	-0,075121	-0,108850	2020-10-13T23:11:28:990
0,087571	0,010240	-0,020431	2020-10-13T23:11:29:006
0,020372	0,062506	-0,082788	2020-10-13T23:11:29:028
0,067271	-0,026758	-0,085144	2020-10-13T23:11:29:047
0,073600	-0,018866	-0,008686	2020-10-13T23:11:29:069
0,048681	0,050672	-0,042290	2020-10-13T23:11:29:087
0,058465	-0,024064	-0,128432	2020-10-13T23:11:29:109
-0,004224	0,005602	-0,032822	2020-10-13T23:11:29:127
-0,007648	-0,038810	-0,075825	2020-10-13T23:11:29:149
-0,015729	0,016589	-0,056647	2020-10-13T23:11:29:167
-0,000143	0,003139	-0,042222	2020-10-13T23:11:29:188
0,055061	-0,042733	-0,161849	2020-10-13T23:11:29:206
0,000298	0,044772	-0,085370	2020-10-13T23:11:29:229
-0,015986	0,060868	-0,044612	2020-10-13T23:11:29:247
-0,006893	0,077842	-0,051634	2020-10-13T23:11:29:268
0,047090	0,073026	-0,032343	2020-10-13T23:11:29:287
0,097863	0,004295	-0,101694	2020-10-13T23:11:29:309
0,006683	-0,070740	-0,042002	2020-10-13T23:11:29:327
0,023369	0,011598	-0,094723	2020-10-13T23:11:29:349
0,041772	-0,049655	-0,070783	2020-10-13T23:11:29:368
0,016812	-0,046483	-0,123472	2020-10-13T23:11:29:389
0,009247	0,047928	-0,092402	2020-10-13T23:11:29:407
0,022792	-0,042855	-0,039731	2020-10-13T23:11:29:429
0,024290	0,011269	0,024816	2020-10-13T23:11:29:447
0,001643	0,010055	-0,027830	2020-10-13T23:11:29:469
0,003740	-0,007712	-0,042137	2020-10-13T23:11:29:487
0,010919	0,049716	-0,078030	2020-10-13T23:11:29:509
-0,122698	-0,083123	-0,012590	2020-10-13T23:11:29:527
-0,035725	-0,058318	-0,067572	2020-10-13T23:11:29:550
-0,011260	-0,023750	-0,053171	2020-10-13T23:11:29:567
-0,051120	0,076867	-0,101011	2020-10-13T23:11:29:588
0,003991	-0,087327	-0,009938	2020-10-13T23:11:29:608
-0,070421	-0,013239	-0,007657	2020-10-13T23:11:29:630
-0,003839	0,000081	-0,120734	2020-10-13T23:11:29:648
0,087088	0,038366	-0,075271	2020-10-13T23:11:29:669
-0,019781	0,019648	-0,043188	2020-10-13T23:11:29:687
-0,061401	0,025186	-0,050292	2020-10-13T23:11:29:710
-0,101685	-0,045683	-0,057370	2020-10-13T23:11:29:727
0,015778	-0,059199	-0,069237	2020-10-13T23:11:29:749
0,000866	0,031826	-0,040597	2020-10-13T23:11:29:767
-0,047299	-0,036341	-0,033398	2020-10-13T23:11:29:790
-0,045367	-0,137237	-0,114757	2020-10-13T23:11:29:808
-0,002198	-0,046640	-0,059827	2020-10-13T23:11:29:829
0,055681	0,004851	-0,098131	2020-10-13T23:11:29:848
0,005156	-0,034531	-0,007241	2020-10-13T23:11:29:870
-0,031425	0,022318	-0,093443	2020-10-13T23:11:29:887
-0,065680	-0,050850	-0,074228	2020-10-13T23:11:29:909
-0,031639	0,006366	-0,045495	2020-10-13T23:11:29:927
0,015703	0,053036	-0,035850	2020-10-13T23:11:29:951
0,013481	0,030330	-0,069261	2020-10-13T23:11:29:967
0,024717	-0,042881	-0,071636	2020-10-13T23:11:29:989
-0,057745	-0,038528	-0,090853	2020-10-13T23:11:30:008
-0,002795	-0,024555	-0,057345	2020-10-13T23:11:30:030
-0,007072	-0,036066	-0,167413	2020-10-13T23:11:30:048
0,003234	-0,006361	-0,062134	2020-10-13T23:11:30:069
-0,051685	0,000545	-0,057340	2020-10-13T23:11:30:088
0,032362	0,009194	-0,071608	2020-10-13T23:11:30:110
-0,048736	-0,074307	-0,028596	2020-10-13T23:11:30:128
-0,001605	-0,115476	-0,057369	2020-10-13T23:11:30:149
-0,020106	0,004981	-0,095766	2020-10-13T23:11:30:167
0,000240	-0,041424	-0,074180	2020-10-13T23:11:30:190
-0,035340	-0,013771	-0,038310	2020-10-13T23:11:30:207
-0,110265	-0,082980	-0,071772	2020-10-13T23:11:30:229
0,054649	-0,021947	-0,047807	2020-10-13T23:11:30:248
0,001322	0,014626	-0,045507	2020-10-13T23:11:30:270
-0,029773	0,046871	-0,033516	2020-10-13T23:11:30:288
0,001051	0,006043	-0,074082	2020-10-13T23:11:30:310
-0,047119	-0,065785	-0,050161	2020-10-13T23:11:30:329
0,031429	-0,002405	0,002452	2020-10-13T23:11:30:351
0,015641	-0,072065	-0,062184	2020-10-13T23:11:30:368
0,012404	-0,004367	-0,050311	2020-10-13T23:11:30:389
-0,004615	-0,067184	-0,009626	2020-10-13T23:11:30:408
-0,021011	-0,009052	-0,100612	2020-10-13T23:11:30:431
-0,020071	0,010061	-0,038374	2020-10-13T23:11:30:448
-0,033559	0,023642	-0,105334	2020-10-13T23:11:30:469
0,056047	-0,003486	-0,074183	2020-10-13T23:11:30:488
0,000610	-0,003132	-0,067307	2020-10-13T23:11:30:511
-0,028104	0,011225	-0,029023	2020-10-13T23:11:30:528
-0,023140	0,023298	-0,078241	2020-10-13T23:11:30:551
0,033143	-0,035642	-0,035102	2020-10-13T23:11:30:569
0,019490	-0,033754	-0,078262	2020-10-13T23:11:30:591
0,032383	-0,005434	-0,040063	2020-10-13T23:11:30:608
0,018988	0,006839	-0,076002	2020-10-13T23:11:30:630
-0,003168	-0,003793	-0,054996	2020-10-13T23:11:30:649
0,015974	0,096705	0,026360	2020-10-13T23:11:30:671
0,035138	-0,056626	-0,046017	2020-10-13T23:11:30:688
0,014552	-0,013156	-0,058098	2020-10-13T23:11:30:710
0,004670	-0,034936	-0,024601	2020-10-13T23:11:30:728
-0,055274	-0,059779	-0,098823	2020-10-13T23:11:30:752
0,040670	-0,114401	-0,005510	2020-10-13T23:11:30:769
-0,021673	-0,079529	-0,036855	2020-10-13T23:11:30:790
0,044438	-0,145262	-0,063234	2020-10-13T23:11:30:809
0,047945	-0,080791	0,008330	2020-10-13T23:11:30:831
0,012052	-0,076823	-0,034906	2020-10-13T23:11:30:849
0,030999	-0,056619	-0,068500	2020-10-13T23:11:30:870
0,006463	-0,017306	-0,035042	2020-10-13T23:11:30:888
0,009450	-0,034989	-0,020645	2020-10-13T23:11:30:912
-0,034519	-0,044867	0,012777	2020-10-13T23:11:30:928
0,041102	-0,085611	-0,087741	2020-10-13T23:11:30:951
-0,048930	-0,096311	-0,073514	2020-10-13T23:11:30:969
0,006946	-0,080852	-0,140512	2020-10-13T23:11:30:991
0,031304	0,001342	-0,071186	2020-10-13T23:11:31:008
-0,000917	-0,038243	-0,032900	2020-10-13T23:11:31:031
0,028171	0,019919	-0,066406	2020-10-13T23:11:31:050
0,000813	0,020342	-0,023316	2020-10-13T23:11:31:071
0,009396	-0,006643	-0,048359	2020-10-13T23:11:31:089
-0,014532	0,026857	-0,062716	2020-10-13T23:11:31:111
-0,003744	0,002994	-0,057121	2020-10-13T23:11:31:129
0,022577	-0,028112	-0,049942	2020-10-13T23:11:31:152
0,027711	0,027900	-0,048623	2020-10-13T23:11:31:168
-0,001809	0,027946	-0,039036	2020-10-13T23:11:31:190
0,077932	0,063822	-0,038976	2020-10-13T23:11:31:209
-0,021150	0,071954	-0,027039	2020-10-13T23:11:31:232
0,025033	0,025880	-0,031754	2020-10-13T23:11:31:249
0,007442	-0,011275	-0,060469	2020-10-13T23:11:31:271
0,001962	-0,007472	-0,092189	2020-10-13T23:11:31:291
-0,007609	0,023635	-0,075439	2020-10-13T23:11:31:311
0,019209	0,031884	-0,019563	2020-10-13T23:11:31:329
-0,007345	0,010213	-0,043608	2020-10-13T23:11:31:351
0,003997	0,035402	-0,050776	2020-10-13T23:11:31:369
-0,027110	-0,093811	-0,077098	2020-10-13T23:11:31:392
-0,007444	-0,010491	-0,049166	2020-10-13T23:11:31:409
0,042181	0,031655	-0,039536	2020-10-13T23:11:31:430
0,039161	0,045250	-0,041907	2020-10-13T23:11:31:449
-0,016394	0,144345	-0,065803	2020-10-13T23:11:31:472
0,036602	-0,009029	-0,056059	2020-10-13T23:11:31:489
0,038090	0,019442	-0,060866	2020-10-13T23:11:31:511
-0,001981	-0,006209	-0,040490	2020-10-13T23:11:31:531
0,000412	0,003362	-0,109882	2020-10-13T23:11:31:552
0,019946	0,009824	-0,021161	2020-10-13T23:11:31:569
0,033728	-0,062962	0,005162	2020-10-13T23:11:31:591
0,010407	-0,003056	-0,071303	2020-10-13T23:11:31:610
0,024764	0,121371	-0,095231	2020-10-13T23:11:31:632
-0,072081	-0,031041	-0,014503	2020-10-13T23:11:31:649
-0,035117	0,009790	-0,012036	2020-10-13T23:11:31:671
0,005030	-0,070333	-0,076571	2020-10-13T23:11:31:689
-0,056713	-0,053210	0,019084	2020-10-13T23:11:31:712
-0,044388	-0,072597	-0,086189	2020-10-13T23:11:31:729
-0,082201	-0,084792	-0,057462	2020-10-13T23:11:31:752
0,027809	-0,012599	-0,031096	2020-10-13T23:11:31:770
-0,009335	-0,008591	-0,033500	2020-10-13T23:11:31:792
-0,013505	0,007722	-0,028688	2020-10-13T23:11:31:809
-0,027369	0,019093	-0,074126	2020-10-13T23:11:31:831
-0,054716	-0,030048	-0,052526	2020-10-13T23:11:31:850
-0,090593	-0,031681	-0,047701	2020-10-13T23:11:31:872
0,006996	-0,014120	-0,021294	2020-10-13T23:11:31:889
-0,029292	-0,040384	-0,045234	2020-10-13T23:11:31:913
-0,015666	-0,077385	-0,081116	2020-10-13T23:11:31:930
0,002531	-0,060394	-0,057215	2020-10-13T23:11:31:952
0,055468	-0,013067	-0,100321	2020-10-13T23:11:31:969
-0,004187	-0,056654	-0,026188	2020-10-13T23:11:31:991
0,020593	-0,076692	-0,057308	2020-10-13T23:11:32:018
-0,032395	-0,037980	-0,054989	2020-10-13T23:11:32:041
0,024710	0,027510	0,016827	2020-10-13T23:11:32:051
0,004412	0,013632	-0,040586	2020-10-13T23:11:32:161
-0,031400	0,016766	-0,074045	2020-10-13T23:11:32:164
-0,024884	-0,056493	-0,076360	2020-10-13T23:11:32:164
-0,028406	0,015296	-0,066812	2020-10-13T23:11:32:166
0,027888	-0,007253	-0,028471	2020-10-13T23:11:32:167
-0,002323	-0,001760	-0,006088	2020-10-13T23:11:32:168
0,033570	0,103524	-0,039588	2020-10-13T23:11:32:204
0,008074	-0,113386	-0,024095	2020-10-13T23:11:32:286
0,010832	-0,040855	-0,096002	2020-10-13T23:11:32:287
-0,015511	-0,008856	-0,081666	2020-10-13T23:11:32:288
0,011779	-0,049797	-0,076852	2020-10-13T23:11:32:289
-0,031558	-0,036098	-0,074506	2020-10-13T23:11:32:290
0,003788	0,029659	-0,081667	2020-10-13T23:11:32:311
-0,017543	-0,051373	0,014098	2020-10-13T23:11:32:329
-0,032756	0,040820	-0,024180	2020-10-13T23:11:32:352
0,001278	-0,006927	-0,047116	2020-10-13T23:11:32:369
-0,022650	0,002644	-0,071045	2020-10-13T23:11:32:390
0,040085	0,020324	-0,051242	2020-10-13T23:11:32:411
-0,026039	0,054377	-0,060820	2020-10-13T23:11:32:434
0,021266	0,000757	-0,084642	2020-10-13T23:11:32:450
0,013525	-0,055192	-0,122926	2020-10-13T23:11:32:472
0,031380	-0,022824	-0,101487	2020-10-13T23:11:32:490
-0,052115	0,005458	-0,068075	2020-10-13T23:11:32:513
0,009279	0,008516	-0,082405	2020-10-13T23:11:32:529
-0,014636	0,002391	-0,130239	2020-10-13T23:11:32:552
-0,003798	-0,013118	-0,010544	2020-10-13T23:11:32:569
0,005822	0,073596	-0,060802	2020-10-13T23:11:32:593
-0,006164	0,007380	-0,091839	2020-10-13T23:11:32:610
-0,025242	-0,005070	-0,058330	2020-10-13T23:11:32:633
0,050364	-0,027023	0,015892	2020-10-13T23:11:32:651
-0,020881	0,039800	-0,120543	2020-10-13T23:11:32:673
0,000110	0,041683	-0,058230	2020-10-13T23:11:32:690
-0,030324	0,014635	-0,053370	2020-10-13T23:11:32:712
0,000664	-0,007065	-0,077156	2020-10-13T23:11:32:732
0,012628	0,043184	-0,058014	2020-10-13T23:11:32:753
-0,010483	-0,008448	-0,021533	2020-10-13T23:11:32:771
-0,062470	0,005923	-0,066979	2020-10-13T23:11:32:793
0,005129	-0,009522	-0,053133	2020-10-13T23:11:32:811
0,031450	0,093369	-0,043563	2020-10-13T23:11:32:834
-0,075613	-0,094546	-0,087464	2020-10-13T23:11:32:852
-0,045474	-0,099948	-0,058784	2020-10-13T23:11:32:872
-0,014573	-0,073521	-0,020586	2020-10-13T23:11:32:891
-0,068785	-0,103377	-0,058954	2020-10-13T23:11:32:914
0,003366	-0,090553	-0,020760	2020-10-13T23:11:32:932
0,000883	-0,002750	-0,036471	2020-10-13T23:11:32:955
0,070275	0,047499	-0,053221	2020-10-13T23:11:32:972
-0,053922	-0,029866	-0,077901	2020-10-13T23:11:32:993
-0,044325	-0,005040	-0,058728	2020-10-13T23:11:33:011
-0,056461	0,013393	-0,020381	2020-10-13T23:11:33:032
0,013174	-0,045444	-0,051401	2020-10-13T23:11:33:051
-0,015939	-0,019643	-0,034700	2020-10-13T23:11:33:073
-0,051086	0,019245	-0,058625	2020-10-13T23:11:33:090
-0,088870	-0,045457	-0,036974	2020-10-13T23:11:33:112
-0,024576	-0,027834	-0,103893	2020-10-13T23:11:33:131
-0,018201	-0,091898	-0,082335	2020-10-13T23:11:33:154
-0,023260	-0,002488	-0,065607	2020-10-13T23:11:33:171
-0,034124	-0,022218	0,044500	2020-10-13T23:11:33:193
-0,042474	-0,057236	-0,044025	2020-10-13T23:11:33:212
0,004190	-0,006493	-0,101441	2020-10-13T23:11:33:235
-0,024524	-0,071100	-0,091870	2020-10-13T23:11:33:252
-0,002175	0,068438	-0,082544	2020-10-13T23:11:33:272
0,051049	0,050820	-0,010709	2020-10-13T23:11:33:291
0,017708	0,090740	-0,094486	2020-10-13T23:11:33:313
-0,006489	0,098251	-0,048981	2020-10-13T23:11:33:331
0,028041	0,076647	-0,060859	2020-10-13T23:11:33:353
-0,000472	-0,002225	-0,032025	2020-10-13T23:11:33:371
-0,022007	0,000168	-0,017668	2020-10-13T23:11:33:393
-0,006743	-0,038641	-0,057791	2020-10-13T23:11:33:411
-0,011111	0,066047	-0,043460	2020-10-13T23:11:33:433
0,039689	-0,068574	-0,040990	2020-10-13T23:11:33:452
0,004611	0,001417	-0,084163	2020-10-13T23:11:33:473
0,011897	-0,033071	-0,036283	2020-10-13T23:11:33:491
-0,009413	0,009698	-0,061877	2020-10-13T23:11:33:513
-0,025010	-0,004778	-0,083386	2020-10-13T23:11:33:531
-0,034581	-0,033492	-0,042708	2020-10-13T23:11:33:554
-0,006129	0,097524	-0,073505	2020-10-13T23:11:33:572
-0,014450	0,032642	-0,051867	2020-10-13T23:11:33:592
0,003351	0,054413	-0,075739	2020-10-13T23:11:33:611
0,024806	0,015897	-0,058953	2020-10-13T23:11:33:634
0,016224	-0,046912	-0,023087	2020-10-13T23:11:33:652
0,036892	0,049004	-0,056645	2020-10-13T23:11:33:673
0,001693	0,051211	-0,066221	2020-10-13T23:11:33:692
0,001656	0,020034	0,012777	2020-10-13T23:11:33:714
0,003968	0,014240	-0,092493	2020-10-13T23:11:33:731
-0,058066	0,032249	-0,054186	2020-10-13T23:11:33:753
-0,047762	0,051790	-0,097149	2020-10-13T23:11:33:771
0,019694	0,024766	-0,073101	2020-10-13T23:11:33:795
-0,012590	-0,007552	-0,065933	2020-10-13T23:11:33:811
-0,095332	-0,021779	-0,032411	2020-10-13T23:11:33:833
-0,013188	0,006425	-0,084051	2020-10-13T23:11:33:852
0,058597	0,123673	-0,050551	2020-10-13T23:11:33:874
-0,010701	-0,046654	-0,016492	2020-10-13T23:11:33:891
-0,013019	-0,043713	-0,002203	2020-10-13T23:11:33:915
-0,006233	0,003219	-0,050647	2020-10-13T23:11:33:933
-0,025376	0,101324	-0,021934	2020-10-13T23:11:33:954
0,050764	-0,021888	-0,084645	2020-10-13T23:11:33:971
-0,001211	-0,014763	-0,010510	2020-10-13T23:11:33:995
0,028123	-0,044060	-0,017663	2020-10-13T23:11:34:012
0,005517	-0,006590	-0,065575	2020-10-13T23:11:34:035
-0,029771	0,026040	-0,063150	2020-10-13T23:11:34:052
-0,049056	0,005045	-0,019990	2020-10-13T23:11:34:074
-0,005718	0,011148	-0,031866	2020-10-13T23:11:34:092
-0,064816	0,012196	-0,067715	2020-10-13T23:11:34:114
-0,035334	0,027899	-0,024543	2020-10-13T23:11:34:132
-0,024224	-0,057438	-0,067543	2020-10-13T23:11:34:154
0,024781	-0,002250	-0,050809	2020-10-13T23:11:34:173
0,017211	0,001362	-0,057978	2020-10-13T23:11:34:194
0,019432	0,021596	-0,055565	2020-10-13T23:11:34:212
0,038032	0,033990	-0,048365	2020-10-13T23:11:34:233
0,019337	0,015329	-0,069917	2020-10-13T23:11:34:252
0,006001	-0,010033	-0,084634	2020-10-13T23:11:34:275
-0,032284	0,006717	0,020651	2020-10-13T23:11:34:292
-0,010182	0,050665	-0,076492	2020-10-13T23:11:34:313
-0,016126	-0,002831	-0,016573	2020-10-13T23:11:34:332
0,059388	-0,032275	-0,066771	2020-10-13T23:11:34:355
0,000106	-0,031986	-0,045408	2020-10-13T23:11:34:372
0,068168	-0,093529	-0,040718	2020-10-13T23:11:34:393
0,017013	-0,054890	-0,093549	2020-10-13T23:11:34:413
-0,017192	-0,057045	-0,072082	2020-10-13T23:11:34:435
-0,001684	0,071880	-0,033803	2020-10-13T23:11:34:452
-0,035009	-0,022447	-0,036129	2020-10-13T23:11:34:473
-0,002018	-0,014662	-0,067193	2020-10-13T23:11:34:492
-0,042949	0,048271	-0,064822	2020-10-13T23:11:34:514
0,041060	0,018874	-0,055119	2020-10-13T23:11:34:532
-0,022916	0,005540	-0,052750	2020-10-13T23:11:34:554
0,002532	-0,006138	-0,050512	2020-10-13T23:11:34:573
0,016889	-0,018102	-0,052905	2020-10-13T23:11:34:594
0,037248	0,015802	-0,063199	2020-10-13T23:11:34:612
0,004855	-0,022262	-0,075158	2020-10-13T23:11:34:634
0,053836	-0,063467	-0,055977	2020-10-13T23:11:34:663
0,022141	-0,011783	-0,032089	2020-10-13T23:11:34:676
-0,004730	0,004864	-0,094829	2020-10-13T23:11:34:693
0,074233	0,062292	-0,027830	2020-10-13T23:11:34:713
-0,080688	-0,046194	-0,037989	2020-10-13T23:11:34:732
-0,055403	-0,026129	-0,021173	2020-10-13T23:11:34:755
0,036152	-0,054651	-0,100069	2020-10-13T23:11:34:772
-0,051908	-0,074198	-0,042739	2020-10-13T23:11:34:793
-0,016488	-0,039573	-0,035603	2020-10-13T23:11:34:813
-0,101869	-0,081344	-0,057152	2020-10-13T23:11:34:835
0,036722	-0,142817	-0,042761	2020-10-13T23:11:34:853
-0,043052	-0,068520	-0,066884	2020-10-13T23:11:34:874
0,006493	-0,009020	-0,098145	2020-10-13T23:11:34:895
0,063920	-0,020984	-0,043110	2020-10-13T23:11:34:915
0,011901	-0,007060	-0,038465	2020-10-13T23:11:34:933
-0,003005	0,099814	-0,009652	2020-10-13T23:11:34:955
-0,067611	0,109385	-0,069472	2020-10-13T23:11:34:972
0,047471	-0,020551	-0,075427	2020-10-13T23:11:34:995
-0,018948	0,010659	-0,075484	2020-10-13T23:11:35:013
0,047989	-0,008584	-0,039468	2020-10-13T23:11:35:034
-0,004079	0,012349	-0,116080	2020-10-13T23:11:35:053
0,068363	-0,067974	-0,025104	2020-10-13T23:11:35:075
0,011602	-0,013193	-0,089447	2020-10-13T23:11:35:093
0,006817	-0,039514	-0,060733	2020-10-13T23:11:35:114
-0,048813	0,046874	-0,083087	2020-10-13T23:11:35:134
-0,038948	0,020176	-0,025552	2020-10-13T23:11:35:155
-0,027133	0,035023	-0,011109	2020-10-13T23:11:35:173
-0,046395	0,019902	-0,070824	2020-10-13T23:11:35:194
0,011559	0,058563	-0,082683	2020-10-13T23:11:35:213
-0,081460	0,018905	-0,006041	2020-10-13T23:11:35:235
-0,004148	-0,001651	-0,074811	2020-10-13T23:11:35:254
-0,040040	0,036634	-0,093953	2020-10-13T23:11:35:275
0,031433	-0,023711	-0,015370	2020-10-13T23:11:35:293
0,032795	0,002900	-0,027372	2020-10-13T23:11:35:315
0,060244	-0,067449	-0,010636	2020-10-13T23:11:35:333
-0,000086	0,014361	-0,037109	2020-10-13T23:11:35:355
0,045293	-0,012930	-0,027518	2020-10-13T23:11:35:374
0,036097	-0,122838	-0,061079	2020-10-13T23:11:35:395
0,021107	-0,062241	-0,058834	2020-10-13T23:11:35:413
0,061485	-0,007403	-0,054107	2020-10-13T23:11:35:434
0,018146	-0,005806	-0,046987	2020-10-13T23:11:35:453
-0,006895	-0,027297	-0,078126	2020-10-13T23:11:35:475
-0,001617	-0,035967	-0,003955	2020-10-13T23:11:35:493
0,022491	-0,032147	-0,054232	2020-10-13T23:11:35:514
0,001059	-0,007861	-0,024726	2020-10-13T23:11:35:534
-0,030048	-0,101181	-0,053439	2020-10-13T23:11:35:556
0,099895	0,032725	-0,083102	2020-10-13T23:11:35:573
0,057743	0,062992	-0,035325	2020-10-13T23:11:35:595
0,067962	0,051556	-0,064034	2020-10-13T23:11:35:614
0,031706	0,002637	-0,042535	2020-10-13T23:11:35:635
0,047498	0,037695	-0,052122	2020-10-13T23:11:35:653
-0,042914	0,001712	-0,028215	2020-10-13T23:11:35:675
0,045595	0,051439	-0,011382	2020-10-13T23:11:35:693
0,068483	0,083871	-0,109467	2020-10-13T23:11:35:716
0,075578	0,014337	-0,085536	2020-10-13T23:11:35:733
0,055115	0,017759	-0,004273	2020-10-13T23:11:35:755
0,040285	-0,002741	-0,056983	2020-10-13T23:11:35:773
0,091165	-0,031854	-0,085744	2020-10-13T23:11:35:825
0,119637	-0,003888	-0,042855	2020-10-13T23:11:35:826
0,052957	0,043965	-0,093308	2020-10-13T23:11:35:836
0,089115	-0,033025	-0,086145	2020-10-13T23:11:35:877
0,015672	0,034858	-0,081493	2020-10-13T23:11:35:879
0,051080	0,085601	-0,009689	2020-10-13T23:11:35:894
-0,000197	-0,003529	-0,127667	2020-10-13T23:11:35:915
0,045267	-0,003529	-0,086989	2020-10-13T23:11:35:932
-0,057999	-0,020769	-0,011450	2020-10-13T23:11:35:956
-0,052980	-0,029533	-0,025767	2020-10-13T23:11:35:973
-0,079310	-0,013960	-0,037704	2020-10-13T23:11:35:995
-0,121013	0,052613	-0,090257	2020-10-13T23:11:36:014
-0,048087	-0,006049	-0,063739	2020-10-13T23:11:36:036
-0,050327	0,010090	-0,070849	2020-10-13T23:11:36:054
-0,071756	0,040239	-0,104274	2020-10-13T23:11:36:075
-0,025753	-0,021169	-0,022820	2020-10-13T23:11:36:096
-0,039235	-0,029472	-0,044361	2020-10-13T23:11:36:116
-0,006407	-0,049958	-0,087411	2020-10-13T23:11:36:133
-0,044110	-0,052249	-0,020446	2020-10-13T23:11:36:156
0,046321	-0,021185	-0,106586	2020-10-13T23:11:36:173
-0,051855	-0,055836	-0,080345	2020-10-13T23:11:36:197
-0,047602	-0,019340	-0,089927	2020-10-13T23:11:36:214
-0,043279	-0,058960	-0,039651	2020-10-13T23:11:36:235
-0,089440	0,066076	-0,061198	2020-10-13T23:11:36:254
-0,013223	0,031623	-0,063425	2020-10-13T23:11:36:276
-0,029556	0,068439	-0,080139	2020-10-13T23:11:36:294
0,022236	0,041227	-0,032186	2020-10-13T23:11:36:315
-0,039033	-0,056305	-0,039366	2020-10-13T23:11:36:335
-0,043989	-0,008747	-0,063278	2020-10-13T23:11:36:356
-0,010068	0,038161	-0,058407	2020-10-13T23:11:36:374
0,052841	0,038182	-0,043989	2020-10-13T23:11:36:395
-0,003343	-0,006545	-0,064739	2020-10-13T23:11:36:414
0,003835	-0,107043	-0,057561	2020-10-13T23:11:36:436
-0,024945	0,035102	-0,100282	2020-10-13T23:11:36:454
0,002926	0,068876	-0,045182	2020-10-13T23:11:36:475
-0,046719	0,031439	-0,095363	2020-10-13T23:11:36:494
0,020903	0,048496	-0,018692	2020-10-13T23:11:36:516
-0,011301	0,072365	-0,049790	2020-10-13T23:11:36:534
-0,019981	0,018564	-0,114325	2020-10-13T23:11:36:557
-0,017170	0,034699	-0,071235	2020-10-13T23:11:36:575
-0,028708	0,023932	-0,104706	2020-10-13T23:11:36:597
0,005986	-0,055894	-0,037666	2020-10-13T23:11:36:614
0,000314	-0,060035	-0,054482	2020-10-13T23:11:36:636
-0,015824	0,083440	-0,061679	2020-10-13T23:11:36:654
0,024079	-0,028817	-0,071145	2020-10-13T23:11:36:677
-0,017265	0,005383	-0,078349	2020-10-13T23:11:36:694
0,014233	0,062909	-0,119020	2020-10-13T23:11:36:715
-0,014598	0,006341	-0,008394	2020-10-13T23:11:36:735
0,066758	0,037447	-0,061036	2020-10-13T23:11:36:757
-0,065589	0,030432	-0,115036	2020-10-13T23:11:36:774
-0,047667	0,117028	-0,055113	2020-10-13T23:11:36:796
-0,018195	-0,024503	-0,016696	2020-10-13T23:11:36:815
-0,069582	-0,016688	-0,088459	2020-10-13T23:11:36:836
-0,004095	-0,003487	-0,063564	2020-10-13T23:11:36:855
-0,020844	-0,096807	-0,058780	2020-10-13T23:11:36:875
0,001047	-0,003422	-0,075324	2020-10-13T23:11:36:895
0,036939	-0,063242	-0,082502	2020-10-13T23:11:36:917
0,009369	-0,051689	-0,072743	2020-10-13T23:11:36:934
-0,014705	-0,022616	-0,036901	2020-10-13T23:11:36:956
-0,035858	0,045818	-0,051271	2020-10-13T23:11:36:974
-0,009989	0,005412	-0,066248	2020-10-13T23:11:36:997
-0,031635	-0,021113	-0,087729	2020-10-13T23:11:37:016
0,001969	0,054971	-0,051782	2020-10-13T23:11:37:037
-0,034253	-0,082180	-0,027879	2020-10-13T23:11:37:057
-0,024884	-0,013775	-0,013453	2020-10-13T23:11:37:076
-0,008910	0,028148	-0,049245	2020-10-13T23:11:37:095
-0,073516	-0,057993	-0,085137	2020-10-13T23:11:37:116
0,050461	0,087501	-0,045653	2020-10-13T23:11:37:134
0,061379	-0,034854	-0,081409	2020-10-13T23:11:37:158
0,062917	0,073017	-0,057404	2020-10-13T23:11:37:174
0,048333	0,051995	-0,026213	2020-10-13T23:11:37:196
-0,000911	-0,007229	-0,047200	2020-10-13T23:11:37:215
-0,070303	-0,002444	-0,037629	2020-10-13T23:11:37:237
0,003973	-0,008963	-0,060126	2020-10-13T23:11:37:256
0,013544	0,036501	-0,098413	2020-10-13T23:11:37:276
-0,006938	0,019434	-0,066852	2020-10-13T23:11:37:295
0,082292	-0,087350	-0,069195	2020-10-13T23:11:37:317
0,030591	-0,085774	-0,023919	2020-10-13T23:11:37:336
0,000525	-0,005435	-0,086104	2020-10-13T23:11:37:357
0,045989	-0,082005	-0,083712	2020-10-13T23:11:37:375
-0,026762	-0,024989	-0,062210	2020-10-13T23:11:37:397
0,004110	0,032338	-0,047804	2020-10-13T23:11:37:415
-0,016408	0,024497	-0,078849	2020-10-13T23:11:37:436
-0,010424	0,039426	-0,047691	2020-10-13T23:11:37:456
-0,047813	0,091864	-0,064386	2020-10-13T23:11:37:477
-0,005813	0,050614	-0,059443	2020-10-13T23:11:37:495
-0,025822	0,085105	-0,052176	2020-10-13T23:11:37:517
-0,026088	0,039840	-0,054452	2020-10-13T23:11:37:536
-0,035821	0,067631	-0,071100	2020-10-13T23:11:37:558
0,010429	0,046025	-0,061378	2020-10-13T23:11:37:575
-0,053036	0,016054	-0,027794	2020-10-13T23:11:37:597
0,005817	0,030267	-0,032445	2020-10-13T23:11:37:615
0,041221	0,021743	-0,106514	2020-10-13T23:11:37:638
0,009251	0,035756	-0,020350	2020-10-13T23:11:37:655
0,052541	0,038357	-0,053806	2020-10-13T23:11:37:677
-0,004124	0,003737	-0,039607	2020-10-13T23:11:37:696
-0,044802	-0,024977	-0,046785	2020-10-13T23:11:37:717
0,022865	-0,041354	-0,022018	2020-10-13T23:11:37:735
0,012998	0,067652	-0,134509	2020-10-13T23:11:37:757
0,040000	0,037048	-0,081784	2020-10-13T23:11:37:776
0,053243	-0,009005	-0,062628	2020-10-13T23:11:37:798
0,079803	0,004803	-0,053110	2020-10-13T23:11:37:816
0,047836	0,055907	-0,048394	2020-10-13T23:11:37:838
-0,020516	0,073572	-0,022050	2020-10-13T23:11:37:856
-0,016361	-0,007410	-0,067392	2020-10-13T23:11:37:878
-0,034102	0,022977	-0,038628	2020-10-13T23:11:37:895
-0,012364	0,057104	-0,005024	2020-10-13T23:11:37:918
0,094344	-0,044481	-0,007318	2020-10-13T23:11:37:936
0,049386	0,030735	-0,019423	2020-10-13T23:11:37:959
0,006739	0,075977	-0,057719	2020-10-13T23:11:37:975
0,021053	-0,004597	-0,036115	2020-10-13T23:11:37:997
-0,039821	0,083725	-0,086390	2020-10-13T23:11:38:016
0,034906	0,002024	-0,050323	2020-10-13T23:11:38:038
0,000518	0,089145	-0,081429	2020-10-13T23:11:38:056
0,008694	0,086924	-0,066958	2020-10-13T23:11:38:078
0,008737	-0,003599	-0,038160	2020-10-13T23:11:38:097
-0,005881	-0,013255	0,000119	2020-10-13T23:11:38:118
0,061039	-0,019527	-0,071686	2020-10-13T23:11:38:135
-0,014503	-0,028126	-0,076596	2020-10-13T23:11:38:157
0,011004	0,006109	-0,052637	2020-10-13T23:11:38:175
0,037386	0,086222	-0,035862	2020-10-13T23:11:38:198
0,064853	0,033744	-0,054950	2020-10-13T23:11:38:216
0,032528	0,043775	-0,007156	2020-10-13T23:11:38:237
0,002422	-0,008627	-0,057372	2020-10-13T23:11:38:259
0,026350	-0,037340	-0,040622	2020-10-13T23:11:38:278
-0,032461	0,008872	-0,046746	2020-10-13T23:11:38:296
0,007694	0,046051	-0,025146	2020-10-13T23:11:38:317
-0,023376	0,045636	-0,058598	2020-10-13T23:11:38:336
-0,069893	0,052733	-0,051342	2020-10-13T23:11:38:359
0,023363	0,027177	-0,075081	2020-10-13T23:11:38:375
-0,024581	0,034349	-0,031969	2020-10-13T23:11:38:397
0,013419	0,041335	-0,041439	2020-10-13T23:11:38:416
0,004360	-0,009570	-0,055048	2020-10-13T23:11:38:439
0,006753	-0,038284	-0,069406	2020-10-13T23:11:38:456
-0,005399	0,087256	-0,060704	2020-10-13T23:11:38:478
0,036135	0,022902	-0,072563	2020-10-13T23:11:38:497
-0,025140	0,006732	-0,003174	2020-10-13T23:11:38:518
-0,032671	-0,083000	-0,046170	2020-10-13T23:11:38:536
0,016997	-0,007843	-0,060544	2020-10-13T23:11:38:558
-0,006847	-0,001658	-0,053345	2020-10-13T23:11:38:576
-0,006185	-0,024116	-0,041347	2020-10-13T23:11:38:599
0,001364	0,041538	-0,015036	2020-10-13T23:11:38:616
-0,044408	-0,039301	-0,053293	2020-10-13T23:11:38:637
0,000774	0,058001	0,004159	2020-10-13T23:11:38:657
0,041877	0,049764	-0,060370	2020-10-13T23:11:38:679
-0,026669	0,022458	-0,069918	2020-10-13T23:11:38:696
-0,075529	0,004157	-0,043531	2020-10-13T23:11:38:718
-0,021558	-0,006499	-0,024269	2020-10-13T23:11:38:737
0,003533	-0,009191	-0,093624	2020-10-13T23:11:38:759
0,001626	0,001929	-0,045738	2020-10-13T23:11:38:776
0,044775	-0,039433	-0,045722	2020-10-13T23:11:38:798
0,001279	-0,007140	-0,060129	2020-10-13T23:11:38:817
-0,017864	0,045502	-0,062522	2020-10-13T23:11:38:839
-0,036563	0,020023	-0,106398	2020-10-13T23:11:38:856
0,018494	-0,046920	-0,075165	2020-10-13T23:11:38:878
0,010838	-0,004555	0,008528	2020-10-13T23:11:38:896
0,106106	-0,014343	-0,005836	2020-10-13T23:11:38:920
0,016804	-0,148294	-0,022743	2020-10-13T23:11:38:936
0,006735	-0,025139	-0,018175	2020-10-13T23:11:38:959
0,051742	-0,014363	-0,097180	2020-10-13T23:11:38:977
0,003933	-0,011666	-0,063752	2020-10-13T23:11:38:999
-0,029755	-0,049604	-0,080515	2020-10-13T23:11:39:017
0,019657	-0,073957	-0,037448	2020-10-13T23:11:39:038
0,047941	0,032069	-0,111712	2020-10-13T23:11:39:057
0,043728	-0,001556	-0,059060	2020-10-13T23:11:39:080
0,046754	-0,045323	-0,054306	2020-10-13T23:11:39:096
0,013259	-0,079191	-0,030491	2020-10-13T23:11:39:118
0,050846	-0,051022	-0,013858	2020-10-13T23:11:39:136
-0,006887	-0,034183	-0,049879	2020-10-13T23:11:39:160
0,055942	-0,013788	-0,037928	2020-10-13T23:11:39:176
0,041480	-0,025726	-0,083458	2020-10-13T23:11:39:198
0,005889	0,039996	-0,054824	2020-10-13T23:11:39:218
-0,020435	0,008787	-0,047589	2020-10-13T23:11:39:239
-0,000497	-0,032455	-0,069092	2020-10-13T23:11:39:257
-0,000515	-0,038121	-0,045197	2020-10-13T23:11:39:278
-0,019785	-0,034370	-0,085910	2020-10-13T23:11:39:297
0,029226	-0,068948	-0,033267	2020-10-13T23:11:39:319
-0,003600	-0,076923	-0,069293	2020-10-13T23:11:39:336
-0,001417	0,001609	-0,038287	2020-10-13T23:11:39:361
0,006159	-0,048950	-0,059805	2020-10-13T23:11:39:378
-0,055740	-0,038244	-0,100499	2020-10-13T23:11:39:399
0,042862	-0,025129	-0,071733	2020-10-13T23:11:39:417
-0,036129	-0,026443	-0,031143	2020-10-13T23:11:39:439
0,044364	-0,082807	-0,043090	2020-10-13T23:11:39:460
-0,000546	-0,005174	-0,110044	2020-10-13T23:11:39:480
-0,093866	0,016362	-0,062187	2020-10-13T23:11:39:497
-0,002600	-0,001913	-0,059678	2020-10-13T23:11:39:519
-0,076778	-0,102411	0,021678	2020-10-13T23:11:39:537
0,063862	0,091197	0,031721	2020-10-13T23:11:39:560
0,068606	0,030753	-0,083149	2020-10-13T23:11:39:576
0,094469	0,049908	-0,123891	2020-10-13T23:11:39:598
0,109386	0,067991	-0,016307	2020-10-13T23:11:39:617
0,028824	0,011676	-0,014071	2020-10-13T23:11:39:639
0,105714	0,095346	-0,061992	2020-10-13T23:11:39:657
0,037960	0,095127	-0,042955	2020-10-13T23:11:39:679
0,077176	0,104911	-0,095575	2020-10-13T23:11:39:698
0,064245	0,039692	-0,045350	2020-10-13T23:11:39:720
0,024944	0,025627	-0,066957	2020-10-13T23:11:39:737
0,071547	0,021679	-0,081328	2020-10-13T23:11:39:759
0,035703	-0,064962	-0,035998	2020-10-13T23:11:39:777
0,009914	0,041588	-0,052860	2020-10-13T23:11:39:800
-0,011963	0,022516	-0,040871	2020-10-13T23:11:39:817
0,096527	0,018467	-0,086284	2020-10-13T23:11:39:839
0,041430	0,030873	-0,055288	2020-10-13T23:11:39:858
0,002131	0,014015	-0,074421	2020-10-13T23:11:39:880
0,038585	-0,042531	-0,048059	2020-10-13T23:11:39:897
0,044106	0,098113	-0,040958	2020-10-13T23:11:39:920
0,049650	0,038039	-0,028959	2020-10-13T23:11:39:939
0,028557	0,025842	-0,064864	2020-10-13T23:11:39:960
0,073098	0,007452	-0,079219	2020-10-13T23:11:39:977
0,007441	-0,031962	-0,031441	2020-10-13T23:11:39:999
0,005038	0,026384	-0,064957	2020-10-13T23:11:40:017
-0,032935	0,019422	-0,050552	2020-10-13T23:11:40:041
0,050944	-0,009234	-0,019335	2020-10-13T23:11:40:057
0,034855	0,020880	-0,021758	2020-10-13T23:11:40:084
-0,001087	-0,004403	-0,044081	2020-10-13T23:11:40:100
-0,034586	-0,057045	-0,034509	2020-10-13T23:11:40:120
0,000948	-0,048330	-0,075215	2020-10-13T23:11:40:137
-0,028883	0,026892	-0,039302	2020-10-13T23:11:40:160
0,007231	0,024427	-0,015267	2020-10-13T23:11:40:178
0,036579	0,065376	-0,065470	2020-10-13T23:11:40:200
0,076067	0,063858	-0,120481	2020-10-13T23:11:40:218
0,032485	0,066824	-0,055893	2020-10-13T23:11:40:239
0,000714	-0,003032	-0,051104	2020-10-13T23:11:40:258
0,053356	0,040039	-0,098960	2020-10-13T23:11:40:280
-0,006973	-0,064837	-0,061100	2020-10-13T23:11:40:298
-0,032880	-0,055098	-0,104229	2020-10-13T23:11:40:319
0,062406	-0,060916	-0,068320	2020-10-13T23:11:40:338
0,023357	-0,103839	-0,094789	2020-10-13T23:11:40:361
0,013206	-0,029580	-0,087749	2020-10-13T23:11:40:378
0,029587	-0,050375	-0,080600	2020-10-13T23:11:40:400
-0,079282	-0,108512	-0,047173	2020-10-13T23:11:40:419
-0,005593	-0,094920	-0,006482	2020-10-13T23:11:40:441
-0,033393	-0,098026	-0,008950	2020-10-13T23:11:40:458
-0,028618	0,035022	-0,054442	2020-10-13T23:11:40:479
0,066723	-0,037160	-0,080644	2020-10-13T23:11:40:497
-0,024619	-0,067722	-0,128589	2020-10-13T23:11:40:521
0,000895	-0,006545	-0,019161	2020-10-13T23:11:40:539
0,022431	0,007812	-0,067017	2020-10-13T23:11:40:560
0,008918	-0,044429	-0,026715	2020-10-13T23:11:40:578
-0,043554	-0,052359	-0,009994	2020-10-13T23:11:40:601
-0,012099	-0,010359	-0,033877	2020-10-13T23:11:40:618
0,027151	-0,039735	-0,033838	2020-10-13T23:11:40:640
0,050087	-0,035824	-0,007573	2020-10-13T23:11:40:659
0,069800	-0,010834	-0,055498	2020-10-13T23:11:40:681
0,016582	-0,008932	-0,060350	2020-10-13T23:11:40:698
-0,031766	-0,059765	-0,036424	2020-10-13T23:11:40:720
-0,010697	0,006413	-0,026682	2020-10-13T23:11:40:738
-0,017875	0,008805	-0,072145	2020-10-13T23:11:40:761
-0,007657	-0,011187	-0,047476	2020-10-13T23:11:40:778
-0,071895	-0,037405	-0,009184	2020-10-13T23:11:40:800
0,020606	-0,019813	-0,114380	2020-10-13T23:11:40:818
-0,013068	-0,020331	-0,097624	2020-10-13T23:11:40:841
-0,013850	-0,028083	-0,023389	2020-10-13T23:11:40:859
0,064341	-0,071277	-0,071198	2020-10-13T23:11:40:880
0,030455	-0,065816	0,036333	2020-10-13T23:11:40:900
-0,001839	-0,108257	-0,002050	2020-10-13T23:11:40:921
0,049292	-0,017538	-0,040411	2020-10-13T23:11:40:939
-0,007324	-0,078063	-0,064367	2020-10-13T23:11:40:960
-0,001454	-0,037309	-0,061997	2020-10-13T23:11:40:978
0,013327	-0,012338	-0,016544	2020-10-13T23:11:41:001
-0,033144	0,000053	-0,093152	2020-10-13T23:11:41:019
0,001981	-0,003787	-0,101585	2020-10-13T23:11:41:040
-0,038306	-0,036403	-0,058459	2020-10-13T23:11:41:059
0,019122	0,001882	-0,060851	2020-10-13T23:11:41:081
-0,012898	0,018090	-0,058846	2020-10-13T23:11:41:099
-0,017070	0,050058	-0,101875	2020-10-13T23:11:41:120
-0,001514	-0,015343	-0,061112	2020-10-13T23:11:41:139
0,001644	-0,010851	-0,034768	2020-10-13T23:11:41:161
0,009005	-0,039804	-0,020403	2020-10-13T23:11:41:178
0,006104	-0,004557	-0,039588	2020-10-13T23:11:41:200
-0,039398	0,081033	-0,053936	2020-10-13T23:11:41:218
-0,056302	0,026572	-0,025094	2020-10-13T23:11:41:241
0,023277	0,036202	-0,056084	2020-10-13T23:11:41:260
-0,044708	0,002767	-0,070422	2020-10-13T23:11:41:280
-0,013293	0,088274	-0,065558	2020-10-13T23:11:41:298
-0,016881	-0,028740	-0,034336	2020-10-13T23:11:41:321
0,012780	0,029710	-0,039118	2020-10-13T23:11:41:338
-0,048086	0,004821	-0,075018	2020-10-13T23:11:41:361
-0,048873	-0,052056	-0,029525	2020-10-13T23:11:41:379
0,022019	-0,036960	-0,065438	2020-10-13T23:11:41:401
-0,014533	0,030817	-0,065470	2020-10-13T23:11:41:418
0,067661	0,011968	-0,063016	2020-10-13T23:11:41:440
0,042568	0,020351	-0,046333	2020-10-13T23:11:41:459
-0,031335	-0,098272	-0,060716	2020-10-13T23:11:41:482
-0,008054	-0,062753	-0,022470	2020-10-13T23:11:41:499
-0,011583	-0,005658	-0,039227	2020-10-13T23:11:41:520
0,015857	0,005708	-0,051152	2020-10-13T23:11:41:539
-0,004356	-0,018144	-0,034431	2020-10-13T23:11:41:562
0,007882	0,008945	-0,012903	2020-10-13T23:11:41:579
-0,051696	0,055380	-0,072692	2020-10-13T23:11:41:601
0,007462	0,058011	-0,024646	2020-10-13T23:11:41:620
-0,039945	-0,017579	-0,058062	2020-10-13T23:11:41:641
-0,047818	-0,009905	-0,017348	2020-10-13T23:11:41:660
0,012401	-0,070300	-0,062729	2020-10-13T23:11:41:680
-0,006920	-0,055333	-0,062792	2020-10-13T23:11:41:699
-0,029773	-0,017769	-0,060403	2020-10-13T23:11:41:722
0,017689	-0,022749	-0,031633	2020-10-13T23:11:41:739
0,024321	-0,031987	-0,019691	2020-10-13T23:11:41:761
0,021044	-0,006909	-0,103483	2020-10-13T23:11:41:779
0,017968	-0,033716	-0,115457	2020-10-13T23:11:41:802
-0,034652	0,050216	-0,065210	2020-10-13T23:11:41:819
-0,046523	-0,003075	-0,033980	2020-10-13T23:11:41:841
0,037214	0,003684	-0,053052	2020-10-13T23:11:41:860
0,004123	-0,025544	-0,055488	2020-10-13T23:11:41:881
0,031251	0,002709	-0,084171	2020-10-13T23:11:41:899
-0,024539	-0,015388	-0,081773	2020-10-13T23:11:41:921
0,029397	0,037358	-0,093704	2020-10-13T23:11:41:939
-0,005506	-0,000395	-0,021920	2020-10-13T23:11:41:962
-0,009670	-0,003671	-0,072136	2020-10-13T23:11:41:979
0,024813	-0,014163	-0,098413	2020-10-13T23:11:42:001
-0,000424	-0,002433	-0,038944	2020-10-13T23:11:42:020
0,066575	-0,069432	-0,108336	2020-10-13T23:11:42:042
-0,001655	-0,004327	-0,058269	2020-10-13T23:11:42:061
0,015380	0,063332	-0,070155	2020-10-13T23:11:42:082
0,010595	0,027439	-0,079726	2020-10-13T23:11:42:100
0,021175	-0,082959	-0,057871	2020-10-13T23:11:42:122
-0,010571	-0,066589	-0,024476	2020-10-13T23:11:42:139
-0,017098	-0,037065	-0,029307	2020-10-13T23:11:42:161
0,026893	-0,028778	-0,077162	2020-10-13T23:11:42:179
0,009723	0,069268	-0,081957	2020-10-13T23:11:42:202
-0,009296	-0,013698	-0,036412	2020-10-13T23:11:42:219
0,045707	-0,039737	-0,010097	2020-10-13T23:11:42:241
-0,000050	-0,006597	-0,054855	2020-10-13T23:11:42:261
-0,076620	-0,061632	-0,028535	2020-10-13T23:11:42:282
0,034404	0,013871	-0,008424	2020-10-13T23:11:42:300
0,088293	0,052790	-0,070644	2020-10-13T23:11:42:321
0,074207	-0,019459	-0,001348	2020-10-13T23:11:42:342
0,015084	0,039190	-0,013464	2020-10-13T23:11:42:363
0,024243	0,055949	-0,058898	2020-10-13T23:11:42:380
0,112379	0,071377	-0,051663	2020-10-13T23:11:42:401
0,061901	0,131219	-0,034982	2020-10-13T23:11:42:419
0,057670	-0,005101	-0,013366	2020-10-13T23:11:42:442
0,068291	-0,042354	-0,058965	2020-10-13T23:11:42:461
0,080407	-0,051278	-0,011309	2020-10-13T23:11:42:481
0,014476	-0,004299	-0,055803	2020-10-13T23:11:42:501
0,059939	0,163199	-0,055803	2020-10-13T23:11:42:522
-0,005835	-0,118605	-0,016433	2020-10-13T23:11:42:540
-0,010521	-0,076024	-0,014201	2020-10-13T23:11:42:562
-0,046141	-0,007178	-0,050188	2020-10-13T23:11:42:581
-0,008101	-0,040743	-0,050134	2020-10-13T23:11:42:602
-0,000907	-0,043676	-0,059748	2020-10-13T23:11:42:620
-0,048919	-0,056098	-0,031084	2020-10-13T23:11:42:641
-0,020674	-0,062610	-0,028714	2020-10-13T23:11:42:660
0,003523	0,001539	-0,100590	2020-10-13T23:11:42:682
0,036249	-0,038718	-0,045584	2020-10-13T23:11:42:700
0,028790	-0,131535	-0,103143	2020-10-13T23:11:42:721
-0,001304	-0,099581	-0,045924	2020-10-13T23:11:42:741
-0,015982	-0,053389	-0,017334	2020-10-13T23:11:42:763
-0,020035	-0,053429	-0,026937	2020-10-13T23:11:42:780
-0,011989	0,037325	-0,077209	2020-10-13T23:11:42:803
0,001045	-0,007969	-0,063293	2020-10-13T23:11:42:822
-0,019299	0,055907	-0,053638	2020-10-13T23:11:42:844
-0,019299	0,039158	-0,046459	2020-10-13T23:11:42:861
0,082596	-0,051223	-0,083418	2020-10-13T23:11:42:881
0,056861	-0,056100	-0,045297	2020-10-13T23:11:42:900
