x	y	z	ts
-0,208032	0,424492	9,795250	2020-10-13T23:10:57:745
-0,209520	0,429754	9,794989	2020-10-13T23:10:57:745
-0,197040	0,419556	9,795690	2020-10-13T23:10:57:745
-0,200109	0,421043	9,795564	2020-10-13T23:10:57:746
-0,203507	0,425957	9,795281	2020-10-13T23:10:57:746
-0,207535	0,429041	9,795062	2020-10-13T23:10:57:747
-0,208570	0,435073	9,794774	2020-10-13T23:10:57:747
-0,210090	0,434064	9,794786	2020-10-13T23:10:57:753
-0,210028	0,436716	9,794669	2020-10-13T23:10:57:785
-0,210169	0,438791	9,794574	2020-10-13T23:10:57:796
-0,210808	0,442062	9,794413	2020-10-13T23:10:57:815
-0,211360	0,449693	9,794054	2020-10-13T23:10:57:835
-0,207673	0,549513	9,789040	2020-10-13T23:10:57:855
-0,207371	0,617290	9,785006	2020-10-13T23:10:57:876
-0,212186	0,610834	9,785308	2020-10-13T23:10:57:896
-0,217381	0,601165	9,785792	2020-10-13T23:10:57:915
-0,219976	0,594115	9,786165	2020-10-13T23:10:57:935
-0,223120	0,584206	9,786690	2020-10-13T23:10:57:955
-0,223788	0,573663	9,787298	2020-10-13T23:10:57:975
-0,225318	0,566099	9,787704	2020-10-13T23:10:57:996
-0,223661	0,565380	9,787784	2020-10-13T23:10:58:015
-0,226227	0,562672	9,787881	2020-10-13T23:10:58:035
-0,224938	0,560381	9,788042	2020-10-13T23:10:58:055
-0,226408	0,562096	9,787910	2020-10-13T23:10:58:075
-0,228374	0,554463	9,788300	2020-10-13T23:10:58:095
-0,231148	0,550795	9,788441	2020-10-13T23:10:58:115
-0,232761	0,549137	9,788496	2020-10-13T23:10:58:136
-0,234468	0,549339	9,788444	2020-10-13T23:10:58:155
-0,233081	0,550759	9,788397	2020-10-13T23:10:58:175
-0,231657	0,552308	9,788343	2020-10-13T23:10:58:195
-0,231944	0,552976	9,788300	2020-10-13T23:10:58:216
-0,246738	0,552424	9,787969	2020-10-13T23:10:58:236
-0,247000	0,632030	9,783144	2020-10-13T23:10:58:255
-0,250648	0,623826	9,783578	2020-10-13T23:10:58:275
-0,257535	0,596087	9,785129	2020-10-13T23:10:58:296
-0,267704	0,565589	9,786666	2020-10-13T23:10:58:315
-0,366550	0,084592	9,799432	2020-10-13T23:10:58:336
-0,298621	0,325112	9,796709	2020-10-13T23:10:58:355
-0,296685	0,339528	9,796279	2020-10-13T23:10:58:376
-0,295744	0,354930	9,795761	2020-10-13T23:10:58:395
-0,294447	0,367738	9,795328	2020-10-13T23:10:58:416
-0,292998	0,369507	9,795305	2020-10-13T23:10:58:435
-0,286535	0,367892	9,795557	2020-10-13T23:10:58:455
-0,282715	0,370065	9,795587	2020-10-13T23:10:58:476
-0,283886	0,382897	9,795059	2020-10-13T23:10:58:496
-0,282359	0,391130	9,794778	2020-10-13T23:10:58:516
-0,279031	0,395038	9,794717	2020-10-13T23:10:58:536
-0,273731	0,396148	9,794821	2020-10-13T23:10:58:555
-0,271351	0,397118	9,794848	2020-10-13T23:10:58:576
-0,269164	0,397599	9,794889	2020-10-13T23:10:58:596
-0,270933	0,398649	9,794798	2020-10-13T23:10:58:617
-0,272356	0,398623	9,794759	2020-10-13T23:10:58:635
-0,270221	0,398901	9,794806	2020-10-13T23:10:58:656
-0,268030	0,402097	9,794737	2020-10-13T23:10:58:676
-0,268710	0,406616	9,794531	2020-10-13T23:10:58:696
-0,265081	0,409618	9,794505	2020-10-13T23:10:58:717
-0,263898	0,412178	9,794430	2020-10-13T23:10:58:736
-0,263297	0,414837	9,794333	2020-10-13T23:10:58:755
-0,263974	0,421379	9,794036	2020-10-13T23:10:58:776
-0,262853	0,424275	9,793941	2020-10-13T23:10:58:796
-0,262416	0,429071	9,793744	2020-10-13T23:10:58:816
-0,258886	0,430174	9,793790	2020-10-13T23:10:58:837
-0,257169	0,428811	9,793895	2020-10-13T23:10:58:856
-0,255466	0,425997	9,794062	2020-10-13T23:10:58:880
-0,255202	0,426491	9,794047	2020-10-13T23:10:58:907
-0,256567	0,427524	9,793966	2020-10-13T23:10:58:918
-0,253235	0,428486	9,794011	2020-10-13T23:10:58:936
-0,253660	0,430486	9,793913	2020-10-13T23:10:58:957
-0,254128	0,430337	9,793907	2020-10-13T23:10:58:978
-0,253927	0,434207	9,793741	2020-10-13T23:10:58:999
-0,252951	0,435423	9,793713	2020-10-13T23:10:59:019
-0,251371	0,438507	9,793615	2020-10-13T23:10:59:039
-0,251409	0,439756	9,793559	2020-10-13T23:10:59:058
-0,247229	0,436881	9,793794	2020-10-13T23:10:59:080
-0,245739	0,440859	9,793653	2020-10-13T23:10:59:099
-0,249642	0,445102	9,793363	2020-10-13T23:10:59:119
-0,248201	0,441346	9,793569	2020-10-13T23:10:59:139
-0,246705	0,441063	9,793619	2020-10-13T23:10:59:159
-0,246886	0,442004	9,793572	2020-10-13T23:10:59:178
-0,247696	0,441009	9,793597	2020-10-13T23:10:59:199
-0,248880	0,445577	9,793360	2020-10-13T23:10:59:219
-0,247590	0,448216	9,793273	2020-10-13T23:10:59:239
-0,247331	0,449452	9,793222	2020-10-13T23:10:59:259
-0,247220	0,448419	9,793273	2020-10-13T23:10:59:279
-0,227110	0,440523	9,794118	2020-10-13T23:10:59:299
-0,186291	0,355647	9,798429	2020-10-13T23:10:59:320
-0,189791	0,361075	9,798162	2020-10-13T23:10:59:339
-0,190823	0,366556	9,797939	2020-10-13T23:10:59:359
-0,192972	0,367916	9,797846	2020-10-13T23:10:59:379
-0,193998	0,372520	9,797651	2020-10-13T23:10:59:399
-0,195237	0,375756	9,797503	2020-10-13T23:10:59:418
-0,196436	0,379195	9,797347	2020-10-13T23:10:59:440
-0,305340	0,445725	9,791756	2020-10-13T23:10:59:459
-0,255431	0,390376	9,795547	2020-10-13T23:10:59:480
-0,237165	0,391492	9,795962	2020-10-13T23:10:59:499
-0,255218	0,467098	9,792194	2020-10-13T23:10:59:520
-0,253344	0,469383	9,792133	2020-10-13T23:10:59:538
-0,249868	0,471126	9,792139	2020-10-13T23:10:59:560
-0,250460	0,468008	9,792274	2020-10-13T23:10:59:580
-0,252277	0,469532	9,792154	2020-10-13T23:10:59:599
-0,255136	0,471922	9,791965	2020-10-13T23:10:59:619
-0,254457	0,471269	9,792014	2020-10-13T23:10:59:639
-0,253762	0,470686	9,792060	2020-10-13T23:10:59:658
-0,254184	0,467355	9,792209	2020-10-13T23:10:59:680
-0,253306	0,469070	9,792150	2020-10-13T23:10:59:698
-0,250142	0,469359	9,792217	2020-10-13T23:10:59:720
-0,250650	0,469562	9,792194	2020-10-13T23:10:59:739
-0,250201	0,469131	9,792227	2020-10-13T23:10:59:760
-0,247527	0,464084	9,792535	2020-10-13T23:10:59:779
-0,247420	0,463920	9,792545	2020-10-13T23:10:59:800
-0,247764	0,466290	9,792424	2020-10-13T23:10:59:820
-0,246569	0,465915	9,792472	2020-10-13T23:10:59:840
-0,246026	0,465182	9,792521	2020-10-13T23:10:59:859
-0,242667	0,465923	9,792569	2020-10-13T23:10:59:880
-0,244255	0,461978	9,792717	2020-10-13T23:10:59:899
-0,239757	0,462139	9,792820	2020-10-13T23:10:59:921
-0,240358	0,463253	9,792753	2020-10-13T23:10:59:939
-0,237659	0,464088	9,792779	2020-10-13T23:10:59:960
-0,236826	0,463475	9,792829	2020-10-13T23:10:59:979
-0,238918	0,463685	9,792768	2020-10-13T23:11:00:000
-0,285439	0,424149	9,793314	2020-10-13T23:11:00:020
-0,266675	0,454068	9,792501	2020-10-13T23:11:00:040
-0,265689	0,453603	9,792550	2020-10-13T23:11:00:060
-0,264940	0,456577	9,792432	2020-10-13T23:11:00:080
-0,263526	0,451106	9,792724	2020-10-13T23:11:00:099
-0,260992	0,450602	9,792815	2020-10-13T23:11:00:121
-0,259932	0,445710	9,793067	2020-10-13T23:11:00:139
-0,258170	0,445618	9,793118	2020-10-13T23:11:00:160
-0,255826	0,448465	9,793050	2020-10-13T23:11:00:179
-0,254955	0,445569	9,793204	2020-10-13T23:11:00:200
-0,240506	0,501623	9,790859	2020-10-13T23:11:00:220
-0,219963	0,437510	9,794416	2020-10-13T23:11:00:240
-0,220762	0,439979	9,794288	2020-10-13T23:11:00:259
-0,241732	0,494084	9,791212	2020-10-13T23:11:00:281
-0,243557	0,402714	9,795350	2020-10-13T23:11:00:299
-0,242772	0,401115	9,795435	2020-10-13T23:11:00:321
-0,244148	0,401423	9,795388	2020-10-13T23:11:00:340
-0,246548	0,403861	9,795228	2020-10-13T23:11:00:360
-0,245525	0,408237	9,795073	2020-10-13T23:11:00:380
-0,244577	0,411406	9,794964	2020-10-13T23:11:00:401
-0,242628	0,413077	9,794942	2020-10-13T23:11:00:420
-0,243209	0,413175	9,794923	2020-10-13T23:11:00:440
-0,244891	0,416268	9,794750	2020-10-13T23:11:00:460
-0,245226	0,419842	9,794589	2020-10-13T23:11:00:481
-0,244434	0,420400	9,794585	2020-10-13T23:11:00:499
-0,242691	0,420890	9,794607	2020-10-13T23:11:00:521
-0,239798	0,424314	9,794531	2020-10-13T23:11:00:540
-0,239600	0,425880	9,794468	2020-10-13T23:11:00:560
-0,237801	0,425960	9,794508	2020-10-13T23:11:00:580
-0,236809	0,425609	9,794548	2020-10-13T23:11:00:601
-0,234767	0,423712	9,794679	2020-10-13T23:11:00:620
-0,232886	0,421452	9,794822	2020-10-13T23:11:00:641
-0,233611	0,413811	9,795130	2020-10-13T23:11:00:659
-0,234147	0,415715	9,795036	2020-10-13T23:11:00:681
-0,233305	0,419203	9,794908	2020-10-13T23:11:00:700
-0,236938	0,428130	9,794435	2020-10-13T23:11:00:721
-0,258000	0,517798	9,789571	2020-10-13T23:11:00:740
-0,327188	0,531680	9,786758	2020-10-13T23:11:00:761
-0,326920	0,528199	9,786956	2020-10-13T23:11:00:781
-0,322864	0,524488	9,787291	2020-10-13T23:11:00:800
-0,319633	0,518215	9,787731	2020-10-13T23:11:00:820
-0,311084	0,511496	9,788360	2020-10-13T23:11:00:841
-0,303724	0,499744	9,789198	2020-10-13T23:11:00:860
-0,299032	0,489270	9,789871	2020-10-13T23:11:00:882
-0,299510	0,485111	9,790064	2020-10-13T23:11:00:900
-0,297175	0,481340	9,790321	2020-10-13T23:11:00:922
-0,296387	0,481693	9,790327	2020-10-13T23:11:00:940
-0,292720	0,478353	9,790602	2020-10-13T23:11:00:961
-0,286750	0,472081	9,791082	2020-10-13T23:11:00:981
-0,285752	0,464592	9,791470	2020-10-13T23:11:01:001
-0,226405	0,345993	9,797929	2020-10-13T23:11:01:022
-0,209943	0,482628	9,792517	2020-10-13T23:11:01:041
-0,213502	0,481848	9,792478	2020-10-13T23:11:01:060
-0,216097	0,481213	9,792452	2020-10-13T23:11:01:081
-0,217645	0,476959	9,792626	2020-10-13T23:11:01:100
-0,219991	0,473245	9,792754	2020-10-13T23:11:01:122
-0,221808	0,472878	9,792730	2020-10-13T23:11:01:140
-0,223375	0,471563	9,792758	2020-10-13T23:11:01:161
-0,222228	0,469155	9,792900	2020-10-13T23:11:01:180
-0,223984	0,464904	9,793063	2020-10-13T23:11:01:201
-0,222887	0,463495	9,793155	2020-10-13T23:11:01:220
-0,221532	0,462465	9,793234	2020-10-13T23:11:01:242
-0,221711	0,458664	9,793408	2020-10-13T23:11:01:261
-0,222272	0,458768	9,793391	2020-10-13T23:11:01:282
-0,223164	0,457468	9,793431	2020-10-13T23:11:01:300
-0,227549	0,461606	9,793137	2020-10-13T23:11:01:322
-0,229111	0,457364	9,793300	2020-10-13T23:11:01:340
-0,229520	0,457004	9,793306	2020-10-13T23:11:01:362
-0,230366	0,456753	9,793299	2020-10-13T23:11:01:380
-0,231297	0,452686	9,793466	2020-10-13T23:11:01:402
-0,231834	0,451697	9,793498	2020-10-13T23:11:01:421
-0,233543	0,452450	9,793423	2020-10-13T23:11:01:442
-0,235844	0,451456	9,793413	2020-10-13T23:11:01:460
-0,237720	0,453016	9,793296	2020-10-13T23:11:01:482
-0,239966	0,453560	9,793216	2020-10-13T23:11:01:502
-0,241008	0,454307	9,793156	2020-10-13T23:11:01:522
-0,240194	0,451857	9,793289	2020-10-13T23:11:01:540
-0,241007	0,453882	9,793176	2020-10-13T23:11:01:562
-0,239163	0,451871	9,793314	2020-10-13T23:11:01:581
-0,242320	0,448194	9,793406	2020-10-13T23:11:01:602
-0,241948	0,447888	9,793428	2020-10-13T23:11:01:621
-0,241884	0,444895	9,793567	2020-10-13T23:11:01:642
-0,244784	0,438364	9,793789	2020-10-13T23:11:01:661
-0,244100	0,437332	9,793852	2020-10-13T23:11:01:681
-0,244369	0,438809	9,793779	2020-10-13T23:11:01:700
-0,244945	0,440292	9,793698	2020-10-13T23:11:01:722
-0,244201	0,441242	9,793674	2020-10-13T23:11:01:741
-0,244553	0,440613	9,793694	2020-10-13T23:11:01:761
-0,246180	0,438246	9,793759	2020-10-13T23:11:01:780
-0,246381	0,438821	9,793729	2020-10-13T23:11:01:801
-0,244066	0,435218	9,793947	2020-10-13T23:11:01:820
-0,244235	0,436645	9,793880	2020-10-13T23:11:01:841
-0,268336	0,395613	9,794992	2020-10-13T23:11:01:860
-0,306979	0,316647	9,796728	2020-10-13T23:11:01:882
-0,200763	0,327462	9,799125	2020-10-13T23:11:01:901
-0,266969	0,428112	9,793663	2020-10-13T23:11:01:923
-0,266303	0,428897	9,793647	2020-10-13T23:11:01:940
-0,265845	0,427616	9,793715	2020-10-13T23:11:01:961
-0,264933	0,425908	9,793815	2020-10-13T23:11:01:981
-0,261967	0,422775	9,794030	2020-10-13T23:11:02:002
-0,260601	0,423225	9,794046	2020-10-13T23:11:02:021
-0,259417	0,424992	9,794002	2020-10-13T23:11:02:042
-0,259747	0,426992	9,793906	2020-10-13T23:11:02:060
-0,259166	0,422823	9,794103	2020-10-13T23:11:02:089
-0,260169	0,418561	9,794259	2020-10-13T23:11:02:102
-0,147069	0,447179	9,795345	2020-10-13T23:11:02:126
-0,152101	0,448503	9,795208	2020-10-13T23:11:02:142
-0,239335	0,394056	9,795806	2020-10-13T23:11:02:166
-0,237248	0,392312	9,795927	2020-10-13T23:11:02:180
-0,239616	0,394172	9,795794	2020-10-13T23:11:02:202
-0,238128	0,395002	9,795797	2020-10-13T23:11:02:221
-0,237780	0,397223	9,795716	2020-10-13T23:11:02:241
-0,240072	0,437054	9,793964	2020-10-13T23:11:02:261
-0,250643	0,421756	9,794370	2020-10-13T23:11:02:282
-0,254429	0,490361	9,791078	2020-10-13T23:11:02:300
-0,273016	0,398651	9,794740	2020-10-13T23:11:02:323
-0,269211	0,395012	9,794992	2020-10-13T23:11:02:340
-0,266577	0,392960	9,795147	2020-10-13T23:11:02:362
-0,264737	0,392793	9,795203	2020-10-13T23:11:02:381
-0,264639	0,393926	9,795160	2020-10-13T23:11:02:402
-0,263347	0,396552	9,795090	2020-10-13T23:11:02:420
-0,261269	0,393806	9,795256	2020-10-13T23:11:02:442
-0,257032	0,396078	9,795277	2020-10-13T23:11:02:461
-0,258048	0,396193	9,795245	2020-10-13T23:11:02:482
-0,258362	0,397981	9,795164	2020-10-13T23:11:02:500
-0,259884	0,399071	9,795080	2020-10-13T23:11:02:523
-0,258804	0,397468	9,795174	2020-10-13T23:11:02:540
-0,257553	0,400793	9,795071	2020-10-13T23:11:02:563
-0,258575	0,399165	9,795111	2020-10-13T23:11:02:581
-0,257296	0,400362	9,795095	2020-10-13T23:11:02:603
-0,354497	0,467800	9,789069	2020-10-13T23:11:02:621
-0,302416	0,408867	9,793455	2020-10-13T23:11:02:643
-0,300004	0,413018	9,793355	2020-10-13T23:11:02:660
-0,297565	0,411545	9,793491	2020-10-13T23:11:02:684
-0,293031	0,413326	9,793553	2020-10-13T23:11:02:701
-0,289148	0,417449	9,793493	2020-10-13T23:11:02:723
-0,286595	0,418810	9,793510	2020-10-13T23:11:02:741
-0,281480	0,420092	9,793604	2020-10-13T23:11:02:763
-0,279463	0,416493	9,793816	2020-10-13T23:11:02:781
-0,277611	0,419649	9,793734	2020-10-13T23:11:02:804
-0,239442	0,373836	9,796597	2020-10-13T23:11:02:823
-0,241997	0,414510	9,794897	2020-10-13T23:11:02:843
-0,243555	0,416771	9,794763	2020-10-13T23:11:02:861
-0,245624	0,415919	9,794746	2020-10-13T23:11:02:884
-0,247862	0,417522	9,794622	2020-10-13T23:11:02:901
-0,248907	0,420036	9,794488	2020-10-13T23:11:02:923
-0,256837	0,427364	9,793966	2020-10-13T23:11:02:944
-0,247266	0,417712	9,794629	2020-10-13T23:11:02:963
-0,249862	0,419608	9,794482	2020-10-13T23:11:02:982
-0,246244	0,423781	9,794394	2020-10-13T23:11:03:004
-0,245089	0,428239	9,794230	2020-10-13T23:11:03:021
-0,245051	0,432181	9,794057	2020-10-13T23:11:03:043
-0,245357	0,433638	9,793985	2020-10-13T23:11:03:061
-0,245570	0,439006	9,793740	2020-10-13T23:11:03:083
-0,246529	0,439181	9,793709	2020-10-13T23:11:03:101
-0,246672	0,439741	9,793680	2020-10-13T23:11:03:123
-0,242596	0,437605	9,793878	2020-10-13T23:11:03:141
-0,240580	0,439734	9,793832	2020-10-13T23:11:03:163
-0,240278	0,440909	9,793786	2020-10-13T23:11:03:182
-0,244316	0,435384	9,793934	2020-10-13T23:11:03:203
-0,243024	0,433064	9,794068	2020-10-13T23:11:03:222
-0,239933	0,429593	9,794297	2020-10-13T23:11:03:243
-0,242982	0,430008	9,794205	2020-10-13T23:11:03:261
-0,242792	0,432624	9,794094	2020-10-13T23:11:03:284
-0,251862	0,418998	9,794457	2020-10-13T23:11:03:302
-0,249806	0,504416	9,790483	2020-10-13T23:11:03:324
-0,248320	0,499672	9,790764	2020-10-13T23:11:03:341
-0,247951	0,496865	9,790915	2020-10-13T23:11:03:363
-0,247620	0,492390	9,791150	2020-10-13T23:11:03:381
-0,248542	0,489795	9,791257	2020-10-13T23:11:03:404
-0,248480	0,486909	9,791403	2020-10-13T23:11:03:423
-0,245551	0,478825	9,791875	2020-10-13T23:11:03:443
-0,248626	0,476111	9,791930	2020-10-13T23:11:03:461
-0,251327	0,474960	9,791917	2020-10-13T23:11:03:484
-0,250551	0,473999	9,791984	2020-10-13T23:11:03:501
-0,250290	0,475006	9,791941	2020-10-13T23:11:03:524
-0,288126	0,491616	9,790081	2020-10-13T23:11:03:542
-0,255093	0,466869	9,792209	2020-10-13T23:11:03:563
-0,253906	0,467409	9,792213	2020-10-13T23:11:03:582
-0,250150	0,464279	9,792459	2020-10-13T23:11:03:604
-0,249692	0,459687	9,792687	2020-10-13T23:11:03:621
-0,247617	0,461333	9,792663	2020-10-13T23:11:03:644
-0,247725	0,458036	9,792814	2020-10-13T23:11:03:662
-0,245565	0,457627	9,792889	2020-10-13T23:11:03:684
-0,247920	0,457973	9,792812	2020-10-13T23:11:03:702
-0,246285	0,454112	9,793034	2020-10-13T23:11:03:724
-0,246920	0,450801	9,793171	2020-10-13T23:11:03:741
-0,246817	0,448111	9,793297	2020-10-13T23:11:03:764
-0,243638	0,446535	9,793448	2020-10-13T23:11:03:782
-0,245286	0,442235	9,793602	2020-10-13T23:11:03:804
-0,247168	0,438327	9,793731	2020-10-13T23:11:03:822
-0,247044	0,438325	9,793734	2020-10-13T23:11:03:844
-0,244512	0,440018	9,793721	2020-10-13T23:11:03:861
-0,243142	0,438903	9,793806	2020-10-13T23:11:03:885
-0,241432	0,438591	9,793862	2020-10-13T23:11:03:903
-0,243409	0,437235	9,793874	2020-10-13T23:11:03:924
-0,245687	0,434867	9,793922	2020-10-13T23:11:03:942
-0,243151	0,436375	9,793919	2020-10-13T23:11:03:964
-0,242971	0,436004	9,793940	2020-10-13T23:11:03:982
-0,244205	0,433762	9,794008	2020-10-13T23:11:04:005
-0,242384	0,432572	9,794106	2020-10-13T23:11:04:022
-0,242451	0,425804	9,794401	2020-10-13T23:11:04:044
-0,240463	0,423679	9,794542	2020-10-13T23:11:04:062
-0,241739	0,417347	9,794783	2020-10-13T23:11:04:084
-0,242156	0,414845	9,794879	2020-10-13T23:11:04:102
-0,243042	0,416729	9,794777	2020-10-13T23:11:04:125
-0,241809	0,416379	9,794822	2020-10-13T23:11:04:143
-0,240644	0,415121	9,794905	2020-10-13T23:11:04:164
-0,241681	0,409829	9,795101	2020-10-13T23:11:04:183
-0,241984	0,403695	9,795349	2020-10-13T23:11:04:205
-0,239497	0,402197	9,795471	2020-10-13T23:11:04:222
-0,240081	0,398863	9,795593	2020-10-13T23:11:04:244
-0,223496	0,400313	9,795927	2020-10-13T23:11:04:262
-0,302043	0,463937	9,791012	2020-10-13T23:11:04:285
-0,300248	0,461307	9,791191	2020-10-13T23:11:04:302
-0,300957	0,457430	9,791351	2020-10-13T23:11:04:325
-0,203564	0,368952	9,797592	2020-10-13T23:11:04:342
-0,240403	0,377433	9,796434	2020-10-13T23:11:04:365
-0,241012	0,376677	9,796449	2020-10-13T23:11:04:383
-0,239621	0,377598	9,796448	2020-10-13T23:11:04:404
-0,240101	0,375037	9,796535	2020-10-13T23:11:04:423
-0,239782	0,368952	9,796773	2020-10-13T23:11:04:445
-0,240037	0,367993	9,796803	2020-10-13T23:11:04:464
-0,238700	0,365079	9,796945	2020-10-13T23:11:04:485
-0,235129	0,365304	9,797023	2020-10-13T23:11:04:502
-0,235472	0,366906	9,796954	2020-10-13T23:11:04:526
-0,233390	0,368879	9,796930	2020-10-13T23:11:04:547
-0,233473	0,368185	9,796954	2020-10-13T23:11:04:565
-0,232500	0,371157	9,796865	2020-10-13T23:11:04:582
-0,231177	0,370640	9,796916	2020-10-13T23:11:04:605
-0,231617	0,367575	9,797021	2020-10-13T23:11:04:624
-0,233173	0,366573	9,797022	2020-10-13T23:11:04:651
-0,233918	0,367900	9,796954	2020-10-13T23:11:04:671
-0,190205	0,385039	9,797242	2020-10-13T23:11:04:686
-0,216659	0,356283	9,797781	2020-10-13T23:11:04:702
-0,219114	0,357328	9,797688	2020-10-13T23:11:04:725
-0,221092	0,359340	9,797570	2020-10-13T23:11:04:742
-0,222920	0,362107	9,797426	2020-10-13T23:11:04:765
-0,224110	0,361761	9,797412	2020-10-13T23:11:04:783
-0,226753	0,362169	9,797337	2020-10-13T23:11:04:804
-0,225948	0,359799	9,797442	2020-10-13T23:11:04:823
-0,224506	0,359835	9,797474	2020-10-13T23:11:04:846
-0,223683	0,359723	9,797497	2020-10-13T23:11:04:864
-0,223115	0,360542	9,797480	2020-10-13T23:11:04:885
-0,224375	0,356865	9,797585	2020-10-13T23:11:04:903
-0,223016	0,354229	9,797712	2020-10-13T23:11:04:926
-0,224352	0,355814	9,797625	2020-10-13T23:11:04:942
-0,224821	0,357773	9,797543	2020-10-13T23:11:04:965
-0,224365	0,359675	9,797483	2020-10-13T23:11:04:983
-0,221591	0,359806	9,797542	2020-10-13T23:11:05:005
-0,220426	0,358586	9,797612	2020-10-13T23:11:05:023
-0,220633	0,359027	9,797592	2020-10-13T23:11:05:045
-0,221156	0,359245	9,797572	2020-10-13T23:11:05:063
-0,220730	0,358310	9,797616	2020-10-13T23:11:05:086
-0,221168	0,358357	9,797605	2020-10-13T23:11:05:104
-0,223383	0,354327	9,797701	2020-10-13T23:11:05:125
-0,243833	0,346280	9,797501	2020-10-13T23:11:05:144
-0,280210	0,308950	9,797776	2020-10-13T23:11:05:166
-0,283551	0,445446	9,792423	2020-10-13T23:11:05:184
-0,224079	0,359956	9,797480	2020-10-13T23:11:05:205
-0,225079	0,360549	9,797435	2020-10-13T23:11:05:223
-0,228357	0,361962	9,797307	2020-10-13T23:11:05:246
-0,229688	0,358839	9,797391	2020-10-13T23:11:05:263
-0,230330	0,357348	9,797430	2020-10-13T23:11:05:285
-0,232001	0,353908	9,797516	2020-10-13T23:11:05:303
-0,232943	0,353961	9,797491	2020-10-13T23:11:05:327
-0,235748	0,353125	9,797454	2020-10-13T23:11:05:344
-0,239262	0,355486	9,797284	2020-10-13T23:11:05:365
-0,222161	0,360819	9,797491	2020-10-13T23:11:05:384
-0,250426	0,394902	9,795495	2020-10-13T23:11:05:406
-0,250873	0,393341	9,795547	2020-10-13T23:11:05:424
-0,251914	0,391923	9,795576	2020-10-13T23:11:05:445
-0,252403	0,388513	9,795700	2020-10-13T23:11:05:463
-0,250120	0,387841	9,795785	2020-10-13T23:11:05:486
-0,248864	0,387797	9,795818	2020-10-13T23:11:05:504
-0,251247	0,390027	9,795670	2020-10-13T23:11:05:526
-0,279189	0,358261	9,796126	2020-10-13T23:11:05:544
-0,296602	0,301425	9,797528	2020-10-13T23:11:05:566
-0,291418	0,305223	9,797566	2020-10-13T23:11:05:585
-0,286354	0,305888	9,797694	2020-10-13T23:11:05:605
-0,284251	0,304386	9,797803	2020-10-13T23:11:05:624
-0,285637	0,305721	9,797721	2020-10-13T23:11:05:646
-0,269685	0,359531	9,796346	2020-10-13T23:11:05:664
-0,332054	0,392208	9,793176	2020-10-13T23:11:05:686
-0,328426	0,388872	9,793431	2020-10-13T23:11:05:704
-0,325884	0,389624	9,793487	2020-10-13T23:11:05:727
-0,242749	0,418264	9,794719	2020-10-13T23:11:05:744
-0,237339	0,314838	9,798721	2020-10-13T23:11:05:765
-0,202000	0,368326	9,797648	2020-10-13T23:11:05:785
-0,201330	0,370074	9,797596	2020-10-13T23:11:05:807
-0,206238	0,366644	9,797624	2020-10-13T23:11:05:827
-0,225666	0,364907	9,797260	2020-10-13T23:11:05:845
-0,228250	0,360583	9,797360	2020-10-13T23:11:05:864
-0,228173	0,361482	9,797329	2020-10-13T23:11:05:887
-0,231259	0,362811	9,797207	2020-10-13T23:11:05:904
-0,234354	0,365244	9,797044	2020-10-13T23:11:05:927
-0,237216	0,366813	9,796916	2020-10-13T23:11:05:944
-0,238294	0,362788	9,797040	2020-10-13T23:11:05:967
-0,235323	0,363732	9,797076	2020-10-13T23:11:05:985
-0,237144	0,360413	9,797155	2020-10-13T23:11:06:007
-0,235047	0,357293	9,797320	2020-10-13T23:11:06:024
-0,238138	0,356236	9,797284	2020-10-13T23:11:06:047
-0,238185	0,351518	9,797453	2020-10-13T23:11:06:065
-0,240342	0,348999	9,797490	2020-10-13T23:11:06:087
-0,242929	0,351309	9,797344	2020-10-13T23:11:06:104
-0,246290	0,354601	9,797142	2020-10-13T23:11:06:127
-0,244893	0,357680	9,797065	2020-10-13T23:11:06:144
-0,245542	0,359624	9,796977	2020-10-13T23:11:06:166
-0,241576	0,358626	9,797112	2020-10-13T23:11:06:185
-0,242292	0,358509	9,797099	2020-10-13T23:11:06:207
-0,242221	0,362294	9,796962	2020-10-13T23:11:06:226
-0,196900	0,321773	9,799392	2020-10-13T23:11:06:247
-0,197231	0,321247	9,799402	2020-10-13T23:11:06:264
-0,283420	0,324251	9,797190	2020-10-13T23:11:06:288
-0,261093	0,306064	9,798395	2020-10-13T23:11:06:307
-0,243051	0,481289	9,791817	2020-10-13T23:11:06:326
-0,247443	0,472544	9,792132	2020-10-13T23:11:06:345
-0,249116	0,466798	9,792366	2020-10-13T23:11:06:367
-0,250959	0,461335	9,792578	2020-10-13T23:11:06:385
-0,254177	0,453507	9,792860	2020-10-13T23:11:06:406
-0,252250	0,448483	9,793141	2020-10-13T23:11:06:424
-0,254231	0,438945	9,793522	2020-10-13T23:11:06:446
-0,252185	0,431906	9,793888	2020-10-13T23:11:06:465
-0,230295	0,311076	9,799009	2020-10-13T23:11:06:487
-0,231443	0,311729	9,798962	2020-10-13T23:11:06:505
-0,316308	0,333210	9,795882	2020-10-13T23:11:06:527
-0,313671	0,328685	9,796120	2020-10-13T23:11:06:545
-0,310965	0,325540	9,796311	2020-10-13T23:11:06:565
-0,307728	0,328905	9,796301	2020-10-13T23:11:06:584
-0,304373	0,329442	9,796388	2020-10-13T23:11:06:606
-0,244039	0,375228	9,796430	2020-10-13T23:11:06:625
-0,264424	0,312501	9,798102	2020-10-13T23:11:06:646
-0,260684	0,309675	9,798292	2020-10-13T23:11:06:664
-0,258615	0,308077	9,798397	2020-10-13T23:11:06:686
-0,260033	0,303055	9,798516	2020-10-13T23:11:06:704
-0,260619	0,311871	9,798224	2020-10-13T23:11:06:726
-0,216716	0,322635	9,798945	2020-10-13T23:11:06:745
-0,216992	0,324812	9,798867	2020-10-13T23:11:06:767
-0,281692	0,264838	9,799026	2020-10-13T23:11:06:785
-0,279876	0,270484	9,798923	2020-10-13T23:11:06:806
-0,279829	0,272961	9,798856	2020-10-13T23:11:06:826
-0,279555	0,273382	9,798852	2020-10-13T23:11:06:846
-0,278191	0,273113	9,798898	2020-10-13T23:11:06:865
-0,277693	0,273811	9,798893	2020-10-13T23:11:06:887
-0,276704	0,276970	9,798832	2020-10-13T23:11:06:905
-0,273076	0,283110	9,798759	2020-10-13T23:11:06:927
-0,270707	0,280069	9,798911	2020-10-13T23:11:06:945
-0,268902	0,279806	9,798968	2020-10-13T23:11:06:966
-0,268242	0,283776	9,798872	2020-10-13T23:11:06:985
-0,269688	0,288126	9,798706	2020-10-13T23:11:07:006
-0,269715	0,289505	9,798664	2020-10-13T23:11:07:026
-0,268546	0,290626	9,798663	2020-10-13T23:11:07:046
-0,267983	0,287297	9,798777	2020-10-13T23:11:07:065
-0,270133	0,290340	9,798628	2020-10-13T23:11:07:087
-0,269339	0,292705	9,798580	2020-10-13T23:11:07:105
-0,267157	0,295489	9,798556	2020-10-13T23:11:07:127
-0,267550	0,296461	9,798516	2020-10-13T23:11:07:145
-0,270270	0,299911	9,798336	2020-10-13T23:11:07:167
-0,270113	0,304136	9,798210	2020-10-13T23:11:07:186
-0,267609	0,308103	9,798155	2020-10-13T23:11:07:206
-0,263736	0,309922	9,798203	2020-10-13T23:11:07:225
-0,261661	0,308053	9,798317	2020-10-13T23:11:07:247
-0,258773	0,310150	9,798327	2020-10-13T23:11:07:266
-0,257539	0,310330	9,798354	2020-10-13T23:11:07:287
-0,256581	0,311882	9,798330	2020-10-13T23:11:07:305
-0,258300	0,315279	9,798177	2020-10-13T23:11:07:327
-0,255238	0,315890	9,798237	2020-10-13T23:11:07:345
-0,254461	0,314241	9,798310	2020-10-13T23:11:07:367
-0,253233	0,319044	9,798187	2020-10-13T23:11:07:385
-0,252321	0,322094	9,798111	2020-10-13T23:11:07:407
-0,252361	0,321513	9,798129	2020-10-13T23:11:07:426
-0,252552	0,321980	9,798108	2020-10-13T23:11:07:447
-0,208710	0,351354	9,798131	2020-10-13T23:11:07:466
-0,234171	0,309010	9,798983	2020-10-13T23:11:07:488
-0,235390	0,307669	9,798996	2020-10-13T23:11:07:506
-0,235558	0,311949	9,798857	2020-10-13T23:11:07:527
-0,237092	0,314219	9,798747	2020-10-13T23:11:07:546
-0,240398	0,318103	9,798541	2020-10-13T23:11:07:567
-0,274241	0,365501	9,795999	2020-10-13T23:11:07:586
-0,270463	0,354235	9,796517	2020-10-13T23:11:07:607
-0,269112	0,354013	9,796562	2020-10-13T23:11:07:626
-0,269020	0,350332	9,796698	2020-10-13T23:11:07:647
-0,266115	0,347751	9,796868	2020-10-13T23:11:07:666
-0,266198	0,349200	9,796815	2020-10-13T23:11:07:687
-0,266428	0,351199	9,796738	2020-10-13T23:11:07:705
-0,265767	0,350937	9,796764	2020-10-13T23:11:07:728
-0,264223	0,347212	9,796939	2020-10-13T23:11:07:746
-0,261552	0,347535	9,796999	2020-10-13T23:11:07:768
-0,258613	0,346680	9,797108	2020-10-13T23:11:07:786
-0,250568	0,274636	9,799601	2020-10-13T23:11:07:808
-0,253317	0,273840	9,799552	2020-10-13T23:11:07:827
-0,188839	0,300205	9,800235	2020-10-13T23:11:07:848
-0,188683	0,301678	9,800193	2020-10-13T23:11:07:865
-0,193030	0,305501	9,799990	2020-10-13T23:11:07:888
-0,197147	0,308356	9,799818	2020-10-13T23:11:07:907
-0,196891	0,312038	9,799706	2020-10-13T23:11:07:927
-0,198518	0,314541	9,799594	2020-10-13T23:11:07:945
-0,201457	0,317876	9,799426	2020-10-13T23:11:07:968
-0,205037	0,319563	9,799297	2020-10-13T23:11:07:987
-0,210445	0,319483	9,799185	2020-10-13T23:11:08:008
-0,210928	0,323757	9,799034	2020-10-13T23:11:08:027
-0,208657	0,322967	9,799109	2020-10-13T23:11:08:048
-0,219857	0,340238	9,798280	2020-10-13T23:11:08:066
-0,237802	0,338687	9,797915	2020-10-13T23:11:08:088
-0,235899	0,336997	9,798018	2020-10-13T23:11:08:106
-0,234697	0,337697	9,798023	2020-10-13T23:11:08:128
-0,235916	0,336135	9,798048	2020-10-13T23:11:08:146
-0,232352	0,333982	9,798206	2020-10-13T23:11:08:168
-0,231817	0,333691	9,798229	2020-10-13T23:11:08:188
-0,231575	0,330997	9,798326	2020-10-13T23:11:08:208
-0,230499	0,330952	9,798353	2020-10-13T23:11:08:228
-0,233552	0,330828	9,798285	2020-10-13T23:11:08:247
-0,234509	0,329511	9,798306	2020-10-13T23:11:08:267
-0,236230	0,325813	9,798388	2020-10-13T23:11:08:288
-0,236440	0,326830	9,798350	2020-10-13T23:11:08:306
-0,235736	0,326250	9,798387	2020-10-13T23:11:08:328
-0,235247	0,326688	9,798384	2020-10-13T23:11:08:347
-0,238475	0,327448	9,798280	2020-10-13T23:11:08:368
-0,240882	0,328572	9,798183	2020-10-13T23:11:08:387
-0,242822	0,331428	9,798039	2020-10-13T23:11:08:408
-0,243019	0,330837	9,798055	2020-10-13T23:11:08:427
-0,239893	0,332644	9,798070	2020-10-13T23:11:08:448
-0,243500	0,328117	9,798134	2020-10-13T23:11:08:467
-0,245661	0,325056	9,798182	2020-10-13T23:11:08:488
-0,246782	0,323250	9,798214	2020-10-13T23:11:08:507
-0,247163	0,322790	9,798220	2020-10-13T23:11:08:528
-0,246090	0,325066	9,798171	2020-10-13T23:11:08:546
-0,245849	0,323349	9,798234	2020-10-13T23:11:08:568
-0,246471	0,322535	9,798245	2020-10-13T23:11:08:587
-0,243766	0,321450	9,798348	2020-10-13T23:11:08:608
-0,242880	0,321330	9,798374	2020-10-13T23:11:08:627
-0,245089	0,323001	9,798265	2020-10-13T23:11:08:648
-0,248933	0,328211	9,797995	2020-10-13T23:11:08:667
-0,247776	0,331115	9,797926	2020-10-13T23:11:08:689
-0,248125	0,336380	9,797738	2020-10-13T23:11:08:707
-0,246970	0,338582	9,797691	2020-10-13T23:11:08:728
-0,244500	0,338989	9,797739	2020-10-13T23:11:08:747
-0,246046	0,342243	9,797587	2020-10-13T23:11:08:768
-0,246664	0,347312	9,797393	2020-10-13T23:11:08:787
-0,247110	0,347630	9,797371	2020-10-13T23:11:08:809
-0,249384	0,346427	9,797356	2020-10-13T23:11:08:827
-0,250384	0,343778	9,797423	2020-10-13T23:11:08:848
-0,249455	0,343881	9,797443	2020-10-13T23:11:08:868
-0,251677	0,344100	9,797379	2020-10-13T23:11:08:889
-0,250071	0,345733	9,797362	2020-10-13T23:11:08:907
-0,248649	0,344627	9,797438	2020-10-13T23:11:08:929
-0,248735	0,341000	9,797563	2020-10-13T23:11:08:948
-0,248465	0,336725	9,797717	2020-10-13T23:11:08:969
-0,233215	0,282336	9,799810	2020-10-13T23:11:08:988
-0,231771	0,283727	9,799805	2020-10-13T23:11:09:009
-0,228612	0,380217	9,796610	2020-10-13T23:11:09:027
-0,227834	0,376377	9,796776	2020-10-13T23:11:09:049
-0,228444	0,377145	9,796732	2020-10-13T23:11:09:067
-0,227687	0,374638	9,796845	2020-10-13T23:11:09:089
-0,228988	0,372509	9,796897	2020-10-13T23:11:09:107
-0,229592	0,369628	9,796991	2020-10-13T23:11:09:129
-0,257300	0,329383	9,797739	2020-10-13T23:11:09:148
-0,242791	0,326927	9,798191	2020-10-13T23:11:09:169
-0,244548	0,329982	9,798045	2020-10-13T23:11:09:188
-0,247346	0,327897	9,798045	2020-10-13T23:11:09:208
-0,248141	0,330864	9,797925	2020-10-13T23:11:09:228
-0,249844	0,333235	9,797802	2020-10-13T23:11:09:249
-0,274995	0,322254	9,797495	2020-10-13T23:11:09:268
-0,231214	0,349230	9,797702	2020-10-13T23:11:09:289
-0,231916	0,340439	9,797995	2020-10-13T23:11:09:307
-0,283408	0,261480	9,799066	2020-10-13T23:11:09:329
-0,279832	0,264834	9,799079	2020-10-13T23:11:09:348
-0,282571	0,273381	9,798765	2020-10-13T23:11:09:369
-0,279739	0,277574	9,798729	2020-10-13T23:11:09:388
-0,185307	0,322482	9,799595	2020-10-13T23:11:09:409
-0,303127	0,291708	9,797623	2020-10-13T23:11:09:429
-0,267108	0,360957	9,796364	2020-10-13T23:11:09:449
-0,267649	0,358732	9,796431	2020-10-13T23:11:09:468
-0,267495	0,359518	9,796407	2020-10-13T23:11:09:489
-0,267185	0,311700	9,798053	2020-10-13T23:11:09:508
-0,194770	0,408776	9,796190	2020-10-13T23:11:09:530
-0,201490	0,326139	9,799154	2020-10-13T23:11:09:548
-0,259922	0,250295	9,800009	2020-10-13T23:11:09:569
-0,259790	0,253532	9,799930	2020-10-13T23:11:09:588
-0,260007	0,258619	9,799790	2020-10-13T23:11:09:609
-0,261924	0,263917	9,799599	2020-10-13T23:11:09:628
-0,258078	0,270227	9,799528	2020-10-13T23:11:09:649
-0,258640	0,275056	9,799379	2020-10-13T23:11:09:668
-0,257731	0,275485	9,799391	2020-10-13T23:11:09:689
-0,258850	0,279292	9,799253	2020-10-13T23:11:09:708
-0,260856	0,280077	9,799178	2020-10-13T23:11:09:733
-0,237055	0,365778	9,796959	2020-10-13T23:11:09:748
-0,231410	0,318188	9,798755	2020-10-13T23:11:09:769
-0,234245	0,317199	9,798719	2020-10-13T23:11:09:788
-0,235301	0,315980	9,798734	2020-10-13T23:11:09:809
-0,234977	0,316264	9,798732	2020-10-13T23:11:09:828
-0,235506	0,317896	9,798666	2020-10-13T23:11:09:849
-0,236044	0,319026	9,798616	2020-10-13T23:11:09:868
-0,235837	0,317568	9,798669	2020-10-13T23:11:09:891
-0,234729	0,318329	9,798671	2020-10-13T23:11:09:909
-0,235041	0,319347	9,798631	2020-10-13T23:11:09:931
-0,236063	0,318206	9,798643	2020-10-13T23:11:09:948
-0,239266	0,343642	9,797707	2020-10-13T23:11:09:970
-0,315310	0,322531	9,796271	2020-10-13T23:11:09:988
-0,313541	0,323781	9,796288	2020-10-13T23:11:10:010
-0,313702	0,325793	9,796215	2020-10-13T23:11:10:028
-0,309429	0,326324	9,796333	2020-10-13T23:11:10:049
-0,305171	0,328113	9,796408	2020-10-13T23:11:10:068
-0,302470	0,328387	9,796482	2020-10-13T23:11:10:089
-0,301269	0,330780	9,796438	2020-10-13T23:11:10:108
-0,297624	0,328273	9,796634	2020-10-13T23:11:10:130
-0,298088	0,325594	9,796709	2020-10-13T23:11:10:149
-0,297169	0,325769	9,796732	2020-10-13T23:11:10:169
-0,295868	0,327034	9,796729	2020-10-13T23:11:10:188
-0,291810	0,326225	9,796878	2020-10-13T23:11:10:209
-0,289028	0,328090	9,796898	2020-10-13T23:11:10:228
-0,286108	0,328962	9,796954	2020-10-13T23:11:10:250
-0,284519	0,332393	9,796885	2020-10-13T23:11:10:268
-0,283972	0,332999	9,796880	2020-10-13T23:11:10:290
-0,281352	0,329961	9,797058	2020-10-13T23:11:10:308
-0,281107	0,332249	9,796988	2020-10-13T23:11:10:330
-0,282089	0,334134	9,796896	2020-10-13T23:11:10:348
-0,281936	0,336749	9,796810	2020-10-13T23:11:10:370
-0,279191	0,338726	9,796821	2020-10-13T23:11:10:389
-0,281295	0,337721	9,796796	2020-10-13T23:11:10:409
-0,280267	0,336984	9,796850	2020-10-13T23:11:10:429
-0,280356	0,334730	9,796925	2020-10-13T23:11:10:450
-0,248757	0,294030	9,799084	2020-10-13T23:11:10:469
-0,268795	0,352793	9,796616	2020-10-13T23:11:10:490
-0,264794	0,352033	9,796752	2020-10-13T23:11:10:509
-0,264827	0,352090	9,796748	2020-10-13T23:11:10:531
-0,263441	0,352616	9,796767	2020-10-13T23:11:10:548
-0,263098	0,349927	9,796873	2020-10-13T23:11:10:569
-0,263440	0,389284	9,795379	2020-10-13T23:11:10:589
-0,253263	0,335271	9,797645	2020-10-13T23:11:10:611
-0,252427	0,330015	9,797845	2020-10-13T23:11:10:629
-0,250578	0,327250	9,797985	2020-10-13T23:11:10:650
-0,251404	0,324774	9,798046	2020-10-13T23:11:10:669
-0,248250	0,328302	9,798009	2020-10-13T23:11:10:691
-0,251479	0,328817	9,797909	2020-10-13T23:11:10:708
-0,251592	0,328415	9,797919	2020-10-13T23:11:10:730
-0,250697	0,325756	9,798032	2020-10-13T23:11:10:748
-0,251445	0,325293	9,798028	2020-10-13T23:11:10:770
-0,252734	0,326228	9,797963	2020-10-13T23:11:10:789
-0,252772	0,327214	9,797930	2020-10-13T23:11:10:810
-0,239436	0,350543	9,797458	2020-10-13T23:11:10:829
-0,244529	0,333230	9,797935	2020-10-13T23:11:10:850
-0,243709	0,330646	9,798044	2020-10-13T23:11:10:869
-0,243403	0,332296	9,797996	2020-10-13T23:11:10:891
-0,240487	0,333165	9,798038	2020-10-13T23:11:10:909
-0,240452	0,331493	9,798096	2020-10-13T23:11:10:931
-0,240607	0,325957	9,798278	2020-10-13T23:11:10:948
-0,240672	0,326633	9,798253	2020-10-13T23:11:10:971
-0,242203	0,326178	9,798231	2020-10-13T23:11:10:990
-0,245027	0,325815	9,798173	2020-10-13T23:11:11:009
-0,244782	0,324505	9,798223	2020-10-13T23:11:11:029
-0,249591	0,326083	9,798049	2020-10-13T23:11:11:050
-0,247081	0,328519	9,798031	2020-10-13T23:11:11:069
-0,247476	0,331126	9,797934	2020-10-13T23:11:11:093
-0,250381	0,329374	9,797918	2020-10-13T23:11:11:110
-0,252083	0,328932	9,797890	2020-10-13T23:11:11:131
-0,253285	0,329914	9,797826	2020-10-13T23:11:11:150
-0,255420	0,329859	9,797772	2020-10-13T23:11:11:170
-0,257794	0,331107	9,797668	2020-10-13T23:11:11:189
-0,251536	0,367922	9,796517	2020-10-13T23:11:11:211
-0,258814	0,299934	9,798645	2020-10-13T23:11:11:229
-0,260784	0,303037	9,798497	2020-10-13T23:11:11:251
-0,262438	0,305357	9,798381	2020-10-13T23:11:11:269
-0,263808	0,306644	9,798304	2020-10-13T23:11:11:291
-0,264378	0,309585	9,798196	2020-10-13T23:11:11:309
-0,264549	0,313760	9,798059	2020-10-13T23:11:11:331
-0,264942	0,316750	9,797952	2020-10-13T23:11:11:351
-0,260271	0,318224	9,798029	2020-10-13T23:11:11:371
-0,260500	0,317538	9,798045	2020-10-13T23:11:11:390
-0,255379	0,317541	9,798181	2020-10-13T23:11:11:411
-0,295675	0,311839	9,797230	2020-10-13T23:11:11:430
-0,305350	0,360650	9,795258	2020-10-13T23:11:11:451
-0,304566	0,360627	9,795283	2020-10-13T23:11:11:469
-0,303617	0,361111	9,795295	2020-10-13T23:11:11:491
-0,300863	0,359728	9,795430	2020-10-13T23:11:11:509
-0,297443	0,356696	9,795646	2020-10-13T23:11:11:531
-0,295925	0,358969	9,795609	2020-10-13T23:11:11:636
-0,295082	0,357921	9,795672	2020-10-13T23:11:11:637
-0,294722	0,352735	9,795872	2020-10-13T23:11:11:659
-0,293596	0,354334	9,795848	2020-10-13T23:11:11:660
-0,294279	0,352002	9,795912	2020-10-13T23:11:11:660
-0,294178	0,356179	9,795763	2020-10-13T23:11:11:665
-0,288860	0,357413	9,795877	2020-10-13T23:11:11:673
-0,286436	0,359918	9,795856	2020-10-13T23:11:11:690
-0,261543	0,299864	9,798574	2020-10-13T23:11:11:713
-0,290879	0,348574	9,796136	2020-10-13T23:11:11:731
-0,287962	0,346634	9,796290	2020-10-13T23:11:11:748
-0,283252	0,342742	9,796565	2020-10-13T23:11:11:771
-0,282069	0,340609	9,796673	2020-10-13T23:11:11:789
-0,281854	0,342261	9,796622	2020-10-13T23:11:11:811
-0,280154	0,344458	9,796594	2020-10-13T23:11:11:831
-0,279290	0,342009	9,796704	2020-10-13T23:11:11:852
-0,274001	0,340991	9,796889	2020-10-13T23:11:11:870
-0,271996	0,337361	9,797071	2020-10-13T23:11:11:891
-0,272556	0,336569	9,797082	2020-10-13T23:11:11:909
-0,269820	0,335452	9,797196	2020-10-13T23:11:11:932
-0,271480	0,334501	9,797183	2020-10-13T23:11:11:949
-0,269926	0,331308	9,797335	2020-10-13T23:11:11:971
-0,269908	0,332631	9,797290	2020-10-13T23:11:11:990
-0,271524	0,333740	9,797208	2020-10-13T23:11:12:012
-0,238640	0,370053	9,796760	2020-10-13T23:11:12:031
-0,271002	0,333914	9,797216	2020-10-13T23:11:12:052
-0,270763	0,334192	9,797214	2020-10-13T23:11:12:072
-0,270022	0,334995	9,797206	2020-10-13T23:11:12:091
-0,266794	0,336930	9,797229	2020-10-13T23:11:12:110
-0,264846	0,336455	9,797297	2020-10-13T23:11:12:141
-0,263936	0,336390	9,797324	2020-10-13T23:11:12:182
-0,259181	0,338300	9,797385	2020-10-13T23:11:12:183
-0,257970	0,337200	9,797456	2020-10-13T23:11:12:212
-0,259373	0,339533	9,797338	2020-10-13T23:11:12:213
-0,260780	0,339579	9,797298	2020-10-13T23:11:12:233
-0,258200	0,338181	9,797416	2020-10-13T23:11:12:252
-0,259191	0,338465	9,797379	2020-10-13T23:11:12:270
-0,258580	0,339140	9,797372	2020-10-13T23:11:12:292
-0,256277	0,339077	9,797435	2020-10-13T23:11:12:311
-0,256686	0,339265	9,797418	2020-10-13T23:11:12:332
-0,257716	0,334524	9,797554	2020-10-13T23:11:12:350
-0,255380	0,333985	9,797633	2020-10-13T23:11:12:372
-0,255685	0,331997	9,797693	2020-10-13T23:11:12:389
-0,258384	0,335774	9,797493	2020-10-13T23:11:12:412
-0,259296	0,337232	9,797420	2020-10-13T23:11:12:430
-0,261372	0,338302	9,797327	2020-10-13T23:11:12:452
-0,264640	0,336696	9,797295	2020-10-13T23:11:12:471
-0,264724	0,339229	9,797205	2020-10-13T23:11:12:492
-0,263707	0,337722	9,797285	2020-10-13T23:11:12:510
-0,263027	0,341282	9,797179	2020-10-13T23:11:12:533
-0,309673	0,356261	9,795282	2020-10-13T23:11:12:552
-0,241615	0,347926	9,797498	2020-10-13T23:11:12:572
-0,243967	0,343659	9,797589	2020-10-13T23:11:12:591
-0,244975	0,343290	9,797578	2020-10-13T23:11:12:612
-0,243989	0,342443	9,797631	2020-10-13T23:11:12:630
-0,244091	0,344393	9,797561	2020-10-13T23:11:12:652
-0,247391	0,345578	9,797437	2020-10-13T23:11:12:670
-0,248369	0,345861	9,797401	2020-10-13T23:11:12:692
-0,244686	0,350562	9,797327	2020-10-13T23:11:12:711
-0,247362	0,352191	9,797201	2020-10-13T23:11:12:733
-0,274116	0,323633	9,797475	2020-10-13T23:11:12:751
-0,293665	0,324957	9,796865	2020-10-13T23:11:12:773
-0,290933	0,322141	9,797039	2020-10-13T23:11:12:792
-0,289483	0,322145	9,797082	2020-10-13T23:11:12:813
-0,287227	0,325026	9,797052	2020-10-13T23:11:12:831
-0,287594	0,326594	9,796989	2020-10-13T23:11:12:852
-0,289968	0,328217	9,796865	2020-10-13T23:11:12:870
-0,287684	0,329781	9,796881	2020-10-13T23:11:12:893
-0,284258	0,332114	9,796902	2020-10-13T23:11:12:910
-0,248935	0,362105	9,796801	2020-10-13T23:11:12:933
-0,243367	0,351797	9,797316	2020-10-13T23:11:12:951
-0,242628	0,352500	9,797309	2020-10-13T23:11:12:972
-0,233179	0,324199	9,798515	2020-10-13T23:11:12:991
-0,176378	0,386582	9,797440	2020-10-13T23:11:13:013
-0,180068	0,381724	9,797564	2020-10-13T23:11:13:032
-0,182382	0,377146	9,797698	2020-10-13T23:11:13:052
-0,185655	0,374251	9,797748	2020-10-13T23:11:13:071
-0,190780	0,373632	9,797672	2020-10-13T23:11:13:092
-0,192295	0,374987	9,797591	2020-10-13T23:11:13:111
-0,250732	0,379535	9,796095	2020-10-13T23:11:13:134
-0,254702	0,297953	9,798813	2020-10-13T23:11:13:150
-0,253784	0,299526	9,798789	2020-10-13T23:11:13:172
-0,257111	0,316955	9,798154	2020-10-13T23:11:13:191
-0,267326	0,339576	9,797123	2020-10-13T23:11:13:212
-0,267901	0,340218	9,797085	2020-10-13T23:11:13:231
-0,268205	0,338357	9,797141	2020-10-13T23:11:13:253
-0,265398	0,337503	9,797247	2020-10-13T23:11:13:272
-0,267804	0,338645	9,797142	2020-10-13T23:11:13:292
-0,266518	0,336397	9,797255	2020-10-13T23:11:13:311
-0,281082	0,372780	9,795530	2020-10-13T23:11:13:334
-0,258162	0,231622	9,800514	2020-10-13T23:11:13:351
-0,258838	0,237792	9,800349	2020-10-13T23:11:13:373
-0,260181	0,242080	9,800208	2020-10-13T23:11:13:391
-0,258571	0,243174	9,800224	2020-10-13T23:11:13:413
-0,257738	0,247333	9,800142	2020-10-13T23:11:13:432
-0,258984	0,248481	9,800080	2020-10-13T23:11:13:453
-0,259778	0,252000	9,799969	2020-10-13T23:11:13:471
-0,258382	0,255798	9,799908	2020-10-13T23:11:13:493
-0,257899	0,259631	9,799820	2020-10-13T23:11:13:512
-0,255225	0,262827	9,799805	2020-10-13T23:11:13:533
-0,254879	0,264576	9,799767	2020-10-13T23:11:13:551
-0,255609	0,265451	9,799724	2020-10-13T23:11:13:573
-0,256640	0,267846	9,799631	2020-10-13T23:11:13:591
-0,258723	0,270620	9,799500	2020-10-13T23:11:13:613
-0,275327	0,256955	9,799416	2020-10-13T23:11:13:632
-0,270738	0,331170	9,797317	2020-10-13T23:11:13:653
-0,269145	0,330636	9,797379	2020-10-13T23:11:13:671
-0,270262	0,334126	9,797230	2020-10-13T23:11:13:693
-0,269684	0,334687	9,797226	2020-10-13T23:11:13:711
-0,268977	0,334694	9,797245	2020-10-13T23:11:13:734
-0,268575	0,336714	9,797187	2020-10-13T23:11:13:752
-0,267302	0,335743	9,797256	2020-10-13T23:11:13:773
-0,266143	0,334617	9,797325	2020-10-13T23:11:13:792
-0,265711	0,331041	9,797459	2020-10-13T23:11:13:813
-0,264531	0,327739	9,797602	2020-10-13T23:11:13:832
-0,263943	0,325194	9,797702	2020-10-13T23:11:13:854
-0,264233	0,325219	9,797693	2020-10-13T23:11:13:871
-0,263465	0,323047	9,797786	2020-10-13T23:11:13:893
-0,261984	0,322064	9,797858	2020-10-13T23:11:13:912
-0,260040	0,324113	9,797842	2020-10-13T23:11:13:934
-0,257846	0,326091	9,797834	2020-10-13T23:11:13:952
-0,255685	0,325311	9,797917	2020-10-13T23:11:13:973
-0,253062	0,327471	9,797914	2020-10-13T23:11:13:992
-0,252499	0,328937	9,797879	2020-10-13T23:11:14:013
-0,251265	0,327538	9,797957	2020-10-13T23:11:14:032
-0,256157	0,322644	9,797993	2020-10-13T23:11:14:053
-0,254838	0,320408	9,798100	2020-10-13T23:11:14:072
-0,255277	0,321121	9,798066	2020-10-13T23:11:14:094
-0,254485	0,322933	9,798027	2020-10-13T23:11:14:113
-0,255755	0,362538	9,796609	2020-10-13T23:11:14:134
-0,204438	0,262162	9,801013	2020-10-13T23:11:14:152
-0,205961	0,266495	9,800864	2020-10-13T23:11:14:173
-0,289385	0,328417	9,796876	2020-10-13T23:11:14:192
-0,250684	0,315765	9,798359	2020-10-13T23:11:14:214
-0,250181	0,311564	9,798506	2020-10-13T23:11:14:233
-0,249954	0,309931	9,798564	2020-10-13T23:11:14:253
-0,251501	0,309073	9,798552	2020-10-13T23:11:14:272
-0,261003	0,295560	9,798719	2020-10-13T23:11:14:294
-0,231654	0,366786	9,797050	2020-10-13T23:11:14:312
-0,229729	0,358795	9,797391	2020-10-13T23:11:14:335
-0,288643	0,324723	9,797021	2020-10-13T23:11:14:352
-0,288178	0,326322	9,796982	2020-10-13T23:11:14:373
-0,287944	0,325631	9,797011	2020-10-13T23:11:14:392
-0,286014	0,324624	9,797102	2020-10-13T23:11:14:413
-0,286258	0,319502	9,797263	2020-10-13T23:11:14:433
-0,286129	0,317274	9,797339	2020-10-13T23:11:14:454
-0,286092	0,319514	9,797267	2020-10-13T23:11:14:473
-0,284189	0,320285	9,797297	2020-10-13T23:11:14:493
-0,281911	0,320538	9,797355	2020-10-13T23:11:14:513
-0,296173	0,344438	9,796124	2020-10-13T23:11:14:535
-0,293767	0,344297	9,796201	2020-10-13T23:11:14:552
-0,310076	0,290846	9,797431	2020-10-13T23:11:14:575
-0,307689	0,289506	9,797545	2020-10-13T23:11:14:592
-0,304591	0,291580	9,797581	2020-10-13T23:11:14:614
-0,300396	0,295330	9,797598	2020-10-13T23:11:14:633
-0,299370	0,293841	9,797674	2020-10-13T23:11:14:653
-0,204086	0,330062	9,798969	2020-10-13T23:11:14:673
-0,260911	0,297149	9,798674	2020-10-13T23:11:14:695
-0,234112	0,341635	9,797901	2020-10-13T23:11:14:717
-0,240330	0,326849	9,798255	2020-10-13T23:11:14:734
-0,243738	0,327968	9,798133	2020-10-13T23:11:14:752
-0,243551	0,327455	9,798155	2020-10-13T23:11:14:774
-0,244261	0,330033	9,798051	2020-10-13T23:11:14:793
-0,244651	0,330803	9,798015	2020-10-13T23:11:14:815
-0,247170	0,330532	9,797961	2020-10-13T23:11:14:833
-0,247896	0,331330	9,797915	2020-10-13T23:11:14:855
-0,252365	0,332133	9,797774	2020-10-13T23:11:14:872
-0,252785	0,330857	9,797807	2020-10-13T23:11:14:895
-0,256003	0,329682	9,797763	2020-10-13T23:11:14:913
-0,258884	0,289239	9,798965	2020-10-13T23:11:14:936
-0,228382	0,319734	9,798776	2020-10-13T23:11:14:954
-0,229449	0,320170	9,798736	2020-10-13T23:11:14:974
-0,227875	0,318129	9,798840	2020-10-13T23:11:14:993
-0,229150	0,317348	9,798835	2020-10-13T23:11:15:014
-0,230739	0,319826	9,798717	2020-10-13T23:11:15:033
-0,234367	0,319379	9,798645	2020-10-13T23:11:15:054
-0,235737	0,322450	9,798512	2020-10-13T23:11:15:073
-0,239170	0,270622	9,799997	2020-10-13T23:11:15:095
-0,250111	0,259731	9,800019	2020-10-13T23:11:15:112
-0,251436	0,261250	9,799945	2020-10-13T23:11:15:134
-0,253664	0,264375	9,799804	2020-10-13T23:11:15:152
-0,255091	0,266781	9,799701	2020-10-13T23:11:15:175
-0,255863	0,267001	9,799675	2020-10-13T23:11:15:193
-0,259454	0,271131	9,799467	2020-10-13T23:11:15:214
-0,263015	0,276352	9,799227	2020-10-13T23:11:15:233
-0,261697	0,280086	9,799155	2020-10-13T23:11:15:254
-0,260903	0,281861	9,799126	2020-10-13T23:11:15:272
-0,260384	0,282189	9,799130	2020-10-13T23:11:15:295
-0,260830	0,282970	9,799096	2020-10-13T23:11:15:312
-0,261162	0,284503	9,799043	2020-10-13T23:11:15:335
-0,262466	0,288119	9,798903	2020-10-13T23:11:15:353
-0,261527	0,291687	9,798821	2020-10-13T23:11:15:374
-0,263771	0,292533	9,798737	2020-10-13T23:11:15:393
-0,264489	0,292664	9,798713	2020-10-13T23:11:15:415
-0,263641	0,292418	9,798743	2020-10-13T23:11:15:434
-0,263907	0,291726	9,798757	2020-10-13T23:11:15:454
-0,263787	0,291852	9,798757	2020-10-13T23:11:15:473
-0,262718	0,292591	9,798763	2020-10-13T23:11:15:495
-0,259685	0,295312	9,798762	2020-10-13T23:11:15:513
-0,259033	0,296758	9,798736	2020-10-13T23:11:15:535
-0,260694	0,297122	9,798680	2020-10-13T23:11:15:553
-0,257928	0,298403	9,798715	2020-10-13T23:11:15:575
-0,258579	0,295582	9,798783	2020-10-13T23:11:15:593
-0,259723	0,295706	9,798749	2020-10-13T23:11:15:615
-0,260293	0,299448	9,798620	2020-10-13T23:11:15:634
-0,261929	0,302216	9,798491	2020-10-13T23:11:15:655
-0,261141	0,302994	9,798489	2020-10-13T23:11:15:674
-0,262281	0,304132	9,798423	2020-10-13T23:11:15:694
-0,264372	0,304340	9,798361	2020-10-13T23:11:15:714
-0,262760	0,304984	9,798384	2020-10-13T23:11:15:735
-0,261816	0,305269	9,798400	2020-10-13T23:11:15:753
-0,261665	0,306150	9,798377	2020-10-13T23:11:15:775
-0,262943	0,305825	9,798352	2020-10-13T23:11:15:793
-0,260184	0,305247	9,798445	2020-10-13T23:11:15:815
-0,262461	0,304488	9,798408	2020-10-13T23:11:15:834
-0,265221	0,307221	9,798247	2020-10-13T23:11:15:855
-0,265186	0,308010	9,798223	2020-10-13T23:11:15:873
-0,262987	0,308253	9,798275	2020-10-13T23:11:15:896
-0,260942	0,307798	9,798345	2020-10-13T23:11:15:915
-0,283365	0,310220	9,797646	2020-10-13T23:11:15:937
-0,313543	0,371428	9,794597	2020-10-13T23:11:15:954
-0,258592	0,328259	9,797743	2020-10-13T23:11:15:976
-0,258657	0,327882	9,797753	2020-10-13T23:11:15:994
-0,247632	0,281290	9,799487	2020-10-13T23:11:16:015
-0,282215	0,277987	9,798646	2020-10-13T23:11:16:036
-0,282640	0,280490	9,798562	2020-10-13T23:11:16:056
-0,267706	0,279765	9,799003	2020-10-13T23:11:16:075
-0,236720	0,322591	9,798484	2020-10-13T23:11:16:096
-0,286958	0,320436	9,797212	2020-10-13T23:11:16:114
-0,286307	0,321043	9,797211	2020-10-13T23:11:16:136
-0,285315	0,319207	9,797300	2020-10-13T23:11:16:155
-0,284337	0,316202	9,797426	2020-10-13T23:11:16:175
-0,279692	0,313573	9,797644	2020-10-13T23:11:16:194
-0,278723	0,314252	9,797650	2020-10-13T23:11:16:215
-0,278462	0,307043	9,797886	2020-10-13T23:11:16:234
-0,276519	0,305405	9,797992	2020-10-13T23:11:16:255
-0,274586	0,303808	9,798096	2020-10-13T23:11:16:273
-0,273143	0,302826	9,798167	2020-10-13T23:11:16:295
-0,274370	0,305952	9,798036	2020-10-13T23:11:16:314
-0,272381	0,308087	9,798024	2020-10-13T23:11:16:336
-0,275019	0,314248	9,797754	2020-10-13T23:11:16:354
-0,272922	0,313058	9,797852	2020-10-13T23:11:16:376
-0,273239	0,312933	9,797847	2020-10-13T23:11:16:395
-0,274004	0,312504	9,797839	2020-10-13T23:11:16:415
-0,303174	0,285724	9,797797	2020-10-13T23:11:16:435
-0,286150	0,266913	9,798840	2020-10-13T23:11:16:455
-0,286497	0,268333	9,798791	2020-10-13T23:11:16:474
-0,285932	0,269354	9,798779	2020-10-13T23:11:16:496
-0,286341	0,275875	9,798586	2020-10-13T23:11:16:514
-0,286472	0,279815	9,798470	2020-10-13T23:11:16:536
-0,246603	0,409779	9,794981	2020-10-13T23:11:16:555
-0,318132	0,296441	9,797005	2020-10-13T23:11:16:576
-0,316274	0,293586	9,797151	2020-10-13T23:11:16:594
-0,310457	0,290272	9,797436	2020-10-13T23:11:16:616
-0,311230	0,289018	9,797448	2020-10-13T23:11:16:636
-0,306769	0,290055	9,797558	2020-10-13T23:11:16:655
-0,306163	0,290123	9,797575	2020-10-13T23:11:16:674
-0,305656	0,286727	9,797690	2020-10-13T23:11:16:696
-0,303361	0,286507	9,797769	2020-10-13T23:11:16:714
-0,303552	0,286905	9,797751	2020-10-13T23:11:16:736
-0,302004	0,289758	9,797715	2020-10-13T23:11:16:754
-0,301434	0,290721	9,797704	2020-10-13T23:11:16:776
-0,300381	0,290370	9,797747	2020-10-13T23:11:16:795
-0,296442	0,291534	9,797832	2020-10-13T23:11:16:816
-0,294029	0,291940	9,797893	2020-10-13T23:11:16:835
-0,293513	0,292761	9,797884	2020-10-13T23:11:16:856
-0,266445	0,323885	9,797678	2020-10-13T23:11:16:877
-0,281203	0,271590	9,798855	2020-10-13T23:11:16:896
-0,280176	0,275006	9,798789	2020-10-13T23:11:16:915
-0,279127	0,275692	9,798800	2020-10-13T23:11:16:936
-0,242635	0,283262	9,799555	2020-10-13T23:11:16:955
-0,267521	0,262701	9,799479	2020-10-13T23:11:16:977
-0,262441	0,291665	9,798798	2020-10-13T23:11:16:995
-0,263485	0,275461	9,799239	2020-10-13T23:11:17:016
-0,263724	0,275653	9,799227	2020-10-13T23:11:17:035
-0,263232	0,276444	9,799218	2020-10-13T23:11:17:056
-0,261378	0,271455	9,799407	2020-10-13T23:11:17:075
-0,261850	0,269472	9,799449	2020-10-13T23:11:17:097
-0,262296	0,270937	9,799397	2020-10-13T23:11:17:115
-0,261897	0,273602	9,799334	2020-10-13T23:11:17:136
-0,263609	0,272571	9,799316	2020-10-13T23:11:17:155
-0,262880	0,273309	9,799315	2020-10-13T23:11:17:176
-0,262445	0,271936	9,799365	2020-10-13T23:11:17:194
-0,262629	0,273495	9,799316	2020-10-13T23:11:17:217
-0,255104	0,273356	9,799520	2020-10-13T23:11:17:236
-0,255452	0,273733	9,799500	2020-10-13T23:11:17:260
-0,290892	0,336569	9,796555	2020-10-13T23:11:17:275
-0,288688	0,333239	9,796734	2020-10-13T23:11:17:296
-0,219084	0,317439	9,799062	2020-10-13T23:11:17:316
-0,216676	0,252789	9,800997	2020-10-13T23:11:17:337
-0,216766	0,255489	9,800924	2020-10-13T23:11:17:356
-0,215772	0,260217	9,800822	2020-10-13T23:11:17:376
-0,216484	0,258614	9,800849	2020-10-13T23:11:17:396
-0,217668	0,256981	9,800865	2020-10-13T23:11:17:416
-0,218805	0,257149	9,800836	2020-10-13T23:11:17:436
-0,219459	0,257440	9,800814	2020-10-13T23:11:17:457
-0,236111	0,234371	9,801005	2020-10-13T23:11:17:476
-0,218416	0,290421	9,799915	2020-10-13T23:11:17:496
-0,218830	0,290090	9,799915	2020-10-13T23:11:17:515
-0,220029	0,290951	9,799863	2020-10-13T23:11:17:537
-0,220371	0,287204	9,799966	2020-10-13T23:11:17:555
-0,221700	0,288217	9,799907	2020-10-13T23:11:17:577
-0,224436	0,284065	9,799965	2020-10-13T23:11:17:596
-0,222804	0,283046	9,800032	2020-10-13T23:11:17:616
-0,224211	0,281879	9,800034	2020-10-13T23:11:17:636
-0,224970	0,281919	9,800015	2020-10-13T23:11:17:657
-0,225274	0,279880	9,800067	2020-10-13T23:11:17:675
-0,224310	0,276252	9,800192	2020-10-13T23:11:17:697
-0,226151	0,277389	9,800117	2020-10-13T23:11:17:715
-0,253069	0,293789	9,798981	2020-10-13T23:11:17:738
-0,253690	0,268187	9,799699	2020-10-13T23:11:17:756
-0,254631	0,272391	9,799559	2020-10-13T23:11:17:777
-0,258388	0,275121	9,799384	2020-10-13T23:11:17:796
-0,257002	0,274257	9,799445	2020-10-13T23:11:17:818
-0,256545	0,273411	9,799480	2020-10-13T23:11:17:837
-0,255536	0,269085	9,799626	2020-10-13T23:11:17:857
-0,258913	0,268928	9,799542	2020-10-13T23:11:17:876
-0,259863	0,268332	9,799533	2020-10-13T23:11:17:897
-0,217354	0,293554	9,799846	2020-10-13T23:11:17:916
-0,261488	0,256690	9,799802	2020-10-13T23:11:17:938
-0,288889	0,261025	9,798918	2020-10-13T23:11:17:957
-0,226199	0,238231	9,801147	2020-10-13T23:11:17:977
-0,229441	0,241279	9,800996	2020-10-13T23:11:17:996
-0,230358	0,242301	9,800949	2020-10-13T23:11:18:017
-0,256615	0,274395	9,799451	2020-10-13T23:11:18:038
-0,255343	0,277024	9,799410	2020-10-13T23:11:18:058
-0,254946	0,276585	9,799433	2020-10-13T23:11:18:079
-0,257050	0,276232	9,799388	2020-10-13T23:11:18:099
-0,259299	0,275976	9,799336	2020-10-13T23:11:18:116
-0,257362	0,280596	9,799255	2020-10-13T23:11:18:138
-0,284088	0,237977	9,799645	2020-10-13T23:11:18:156
-0,201540	0,261522	9,801090	2020-10-13T23:11:18:177
-0,204813	0,259921	9,801065	2020-10-13T23:11:18:197
-0,208185	0,258782	9,801024	2020-10-13T23:11:18:217
-0,212518	0,256970	9,800979	2020-10-13T23:11:18:236
-0,215914	0,258675	9,800859	2020-10-13T23:11:18:257
-0,215822	0,258314	9,800871	2020-10-13T23:11:18:276
-0,216936	0,260573	9,800787	2020-10-13T23:11:18:298
-0,219067	0,260003	9,800755	2020-10-13T23:11:18:317
-0,219546	0,261234	9,800712	2020-10-13T23:11:18:338
-0,221275	0,262634	9,800635	2020-10-13T23:11:18:356
-0,222809	0,261801	9,800622	2020-10-13T23:11:18:378
-0,222354	0,262156	9,800623	2020-10-13T23:11:18:396
-0,224251	0,263146	9,800553	2020-10-13T23:11:18:418
-0,225773	0,263496	9,800509	2020-10-13T23:11:18:437
-0,228730	0,265063	9,800399	2020-10-13T23:11:18:458
-0,228453	0,263628	9,800444	2020-10-13T23:11:18:476
-0,229987	0,265616	9,800354	2020-10-13T23:11:18:497
-0,229730	0,266522	9,800336	2020-10-13T23:11:18:516
-0,234004	0,267427	9,800210	2020-10-13T23:11:18:538
-0,238765	0,267348	9,800097	2020-10-13T23:11:18:557
-0,240627	0,268060	9,800032	2020-10-13T23:11:18:578
-0,240226	0,267013	9,800071	2020-10-13T23:11:18:596
-0,241635	0,266885	9,800039	2020-10-13T23:11:18:618
-0,240816	0,266879	9,800059	2020-10-13T23:11:18:637
-0,240482	0,267831	9,800042	2020-10-13T23:11:18:658
-0,239470	0,265081	9,800141	2020-10-13T23:11:18:676
-0,240324	0,263724	9,800157	2020-10-13T23:11:18:698
-0,239518	0,264187	9,800164	2020-10-13T23:11:18:717
-0,241194	0,264678	9,800110	2020-10-13T23:11:18:738
-0,241340	0,265316	9,800089	2020-10-13T23:11:18:757
-0,240800	0,268194	9,800024	2020-10-13T23:11:18:778
-0,240338	0,265973	9,800096	2020-10-13T23:11:18:797
-0,242788	0,266861	9,800012	2020-10-13T23:11:18:817
-0,245460	0,268219	9,799908	2020-10-13T23:11:18:837
-0,247020	0,270862	9,799796	2020-10-13T23:11:18:858
-0,248807	0,274892	9,799639	2020-10-13T23:11:18:876
-0,254855	0,281364	9,799299	2020-10-13T23:11:18:899
-0,257840	0,281210	9,799226	2020-10-13T23:11:18:916
-0,258434	0,282416	9,799175	2020-10-13T23:11:18:939
-0,256160	0,283719	9,799197	2020-10-13T23:11:18:956
-0,255054	0,283767	9,799225	2020-10-13T23:11:18:978
-0,254236	0,281842	9,799302	2020-10-13T23:11:18:997
-0,211930	0,241222	9,801392	2020-10-13T23:11:19:019
-0,282279	0,186591	9,800811	2020-10-13T23:11:19:038
-0,283083	0,195138	9,800621	2020-10-13T23:11:19:058
-0,283787	0,200744	9,800488	2020-10-13T23:11:19:077
-0,285442	0,203047	9,800392	2020-10-13T23:11:19:098
-0,283196	0,210057	9,800309	2020-10-13T23:11:19:116
-0,278381	0,213273	9,800378	2020-10-13T23:11:19:139
-0,278158	0,219434	9,800248	2020-10-13T23:11:19:157
-0,281022	0,223445	9,800076	2020-10-13T23:11:19:177
-0,231541	0,264707	9,800342	2020-10-13T23:11:19:197
-0,268282	0,302119	9,798323	2020-10-13T23:11:19:219
-0,268979	0,300688	9,798347	2020-10-13T23:11:19:237
-0,269514	0,299641	9,798366	2020-10-13T23:11:19:259
-0,222318	0,243521	9,801105	2020-10-13T23:11:19:279
-0,284507	0,277273	9,798600	2020-10-13T23:11:19:298
-0,302455	0,281873	9,797931	2020-10-13T23:11:19:317
-0,255456	0,294016	9,798912	2020-10-13T23:11:19:339
-0,256934	0,293056	9,798903	2020-10-13T23:11:19:357
-0,259010	0,291632	9,798890	2020-10-13T23:11:19:379
-0,257848	0,290482	9,798955	2020-10-13T23:11:19:397
-0,256160	0,293687	9,798903	2020-10-13T23:11:19:418
-0,256570	0,291951	9,798944	2020-10-13T23:11:19:438
-0,258406	0,291887	9,798899	2020-10-13T23:11:19:459
-0,298798	0,250978	9,798883	2020-10-13T23:11:19:478
-0,278013	0,232476	9,799952	2020-10-13T23:11:19:498
-0,297084	0,287555	9,797931	2020-10-13T23:11:19:519
-0,243648	0,317698	9,798473	2020-10-13T23:11:19:540
-0,273465	0,294131	9,798423	2020-10-13T23:11:19:558
-0,244945	0,257071	9,800220	2020-10-13T23:11:19:578
-0,247166	0,256972	9,800166	2020-10-13T23:11:19:597
-0,247550	0,259435	9,800092	2020-10-13T23:11:19:620
-0,246386	0,256563	9,800197	2020-10-13T23:11:19:637
-0,247444	0,261300	9,800045	2020-10-13T23:11:19:658
-0,299469	0,268880	9,798388	2020-10-13T23:11:19:678
-0,258689	0,359290	9,796651	2020-10-13T23:11:19:699
-0,305780	0,267265	9,798237	2020-10-13T23:11:19:718
-0,299553	0,272979	9,798272	2020-10-13T23:11:19:740
-0,297092	0,274442	9,798306	2020-10-13T23:11:19:758
-0,297561	0,277822	9,798197	2020-10-13T23:11:19:780
-0,295706	0,279207	9,798213	2020-10-13T23:11:19:797
-0,293812	0,276890	9,798336	2020-10-13T23:11:19:819
-0,240514	0,277816	9,799763	2020-10-13T23:11:19:838
-0,294990	0,302244	9,797551	2020-10-13T23:11:19:860
-0,291759	0,302501	9,797640	2020-10-13T23:11:19:877
-0,289905	0,302432	9,797697	2020-10-13T23:11:19:900
-0,287891	0,300329	9,797821	2020-10-13T23:11:19:918
-0,285566	0,302936	9,797810	2020-10-13T23:11:19:940
-0,264685	0,289977	9,798788	2020-10-13T23:11:19:959
-0,264059	0,289539	9,798818	2020-10-13T23:11:19:980
-0,261600	0,291611	9,798822	2020-10-13T23:11:19:999
-0,243632	0,236396	9,800773	2020-10-13T23:11:20:020
-0,245131	0,238693	9,800679	2020-10-13T23:11:20:038
-0,246845	0,241459	9,800569	2020-10-13T23:11:20:059
-0,246656	0,245413	9,800475	2020-10-13T23:11:20:077
-0,246513	0,248686	9,800397	2020-10-13T23:11:20:101
-0,247067	0,248736	9,800382	2020-10-13T23:11:20:117
-0,255545	0,292257	9,798963	2020-10-13T23:11:20:140
-0,256567	0,293466	9,798900	2020-10-13T23:11:20:158
-0,257457	0,245426	9,800198	2020-10-13T23:11:20:180
-0,258168	0,246019	9,800163	2020-10-13T23:11:20:199
-0,261607	0,247694	9,800031	2020-10-13T23:11:20:220
-0,262015	0,248880	9,799990	2020-10-13T23:11:20:239
-0,264036	0,251989	9,799855	2020-10-13T23:11:20:260
-0,263665	0,252569	9,799850	2020-10-13T23:11:20:278
-0,264576	0,252859	9,799819	2020-10-13T23:11:20:300
-0,266706	0,256899	9,799656	2020-10-13T23:11:20:317
-0,267980	0,261955	9,799487	2020-10-13T23:11:20:341
-0,268833	0,264586	9,799394	2020-10-13T23:11:20:358
-0,271230	0,268374	9,799224	2020-10-13T23:11:20:380
-0,268894	0,270799	9,799222	2020-10-13T23:11:20:398
-0,225431	0,271257	9,800305	2020-10-13T23:11:20:421
-0,230819	0,270508	9,800200	2020-10-13T23:11:20:439
-0,264537	0,250108	9,799891	2020-10-13T23:11:20:460
-0,209572	0,309364	9,799528	2020-10-13T23:11:20:480
-0,290713	0,300323	9,797738	2020-10-13T23:11:20:501
-0,288792	0,301438	9,797761	2020-10-13T23:11:20:518
-0,300091	0,278786	9,798092	2020-10-13T23:11:20:541
-0,209958	0,277531	9,800473	2020-10-13T23:11:20:558
-0,212901	0,278633	9,800379	2020-10-13T23:11:20:582
-0,213462	0,283619	9,800223	2020-10-13T23:11:20:599
-0,217477	0,285455	9,800082	2020-10-13T23:11:20:620
-0,220260	0,283800	9,800068	2020-10-13T23:11:20:639
-0,222694	0,279617	9,800133	2020-10-13T23:11:20:661
-0,223663	0,278409	9,800145	2020-10-13T23:11:20:678
-0,221861	0,276582	9,800238	2020-10-13T23:11:20:700
-0,223890	0,276963	9,800181	2020-10-13T23:11:20:719
-0,225363	0,280294	9,800053	2020-10-13T23:11:20:741
-0,225417	0,282948	9,799975	2020-10-13T23:11:20:758
-0,230631	0,286655	9,799747	2020-10-13T23:11:20:780
-0,233963	0,288450	9,799614	2020-10-13T23:11:20:798
-0,237281	0,288101	9,799545	2020-10-13T23:11:20:821
-0,236903	0,290345	9,799488	2020-10-13T23:11:20:839
-0,237061	0,287046	9,799582	2020-10-13T23:11:20:860
-0,235678	0,283703	9,799712	2020-10-13T23:11:20:879
-0,237290	0,283641	9,799675	2020-10-13T23:11:20:901
-0,235855	0,281433	9,799773	2020-10-13T23:11:20:919
-0,237472	0,282902	9,799692	2020-10-13T23:11:20:941
-0,237658	0,283855	9,799660	2020-10-13T23:11:20:960
-0,241955	0,283447	9,799566	2020-10-13T23:11:20:981
-0,239403	0,279802	9,799734	2020-10-13T23:11:20:999
-0,291151	0,288745	9,798074	2020-10-13T23:11:21:020
-0,287136	0,287624	9,798224	2020-10-13T23:11:21:039
-0,286282	0,288042	9,798238	2020-10-13T23:11:21:061
-0,247050	0,284835	9,799399	2020-10-13T23:11:21:079
-0,222102	0,316254	9,799032	2020-10-13T23:11:21:100
-0,273783	0,185746	9,801067	2020-10-13T23:11:21:120
-0,225411	0,261381	9,800574	2020-10-13T23:11:21:142
-0,226993	0,260584	9,800559	2020-10-13T23:11:21:159
-0,228411	0,261784	9,800494	2020-10-13T23:11:21:181
-0,254568	0,276915	9,799434	2020-10-13T23:11:21:201
-0,237791	0,276222	9,799874	2020-10-13T23:11:21:221
-0,239913	0,271483	9,799955	2020-10-13T23:11:21:239
-0,239241	0,271519	9,799971	2020-10-13T23:11:21:260
-0,241963	0,273333	9,799853	2020-10-13T23:11:21:278
-0,242482	0,270306	9,799925	2020-10-13T23:11:21:302
-0,245149	0,270309	9,799858	2020-10-13T23:11:21:319
-0,246115	0,270474	9,799829	2020-10-13T23:11:21:341
-0,246928	0,270632	9,799805	2020-10-13T23:11:21:359
-0,251798	0,292995	9,799038	2020-10-13T23:11:21:382
-0,228471	0,348718	9,797785	2020-10-13T23:11:21:399
-0,228583	0,347604	9,797821	2020-10-13T23:11:21:421
-0,231070	0,343804	9,797897	2020-10-13T23:11:21:440
-0,232392	0,339202	9,798026	2020-10-13T23:11:21:461
-0,233650	0,335539	9,798122	2020-10-13T23:11:21:479
-0,237828	0,331836	9,798148	2020-10-13T23:11:21:501
-0,239053	0,327124	9,798277	2020-10-13T23:11:21:519
-0,240368	0,321761	9,798422	2020-10-13T23:11:21:542
-0,242215	0,317803	9,798506	2020-10-13T23:11:21:559
-0,244536	0,313569	9,798585	2020-10-13T23:11:21:581
-0,246395	0,307489	9,798731	2020-10-13T23:11:21:599
-0,248391	0,306327	9,798717	2020-10-13T23:11:21:622
-0,247339	0,303484	9,798832	2020-10-13T23:11:21:639
-0,248022	0,301931	9,798862	2020-10-13T23:11:21:661
-0,248905	0,301744	9,798846	2020-10-13T23:11:21:680
-0,253209	0,298693	9,798829	2020-10-13T23:11:21:702
-0,253488	0,297340	9,798863	2020-10-13T23:11:21:719
-0,258566	0,294378	9,798820	2020-10-13T23:11:21:741
-0,258126	0,291551	9,798916	2020-10-13T23:11:21:759
-0,259446	0,289741	9,798935	2020-10-13T23:11:21:782
-0,262165	0,344580	9,797088	2020-10-13T23:11:21:800
-0,262679	0,339887	9,797237	2020-10-13T23:11:21:821
-0,261180	0,336033	9,797410	2020-10-13T23:11:21:840
-0,214680	0,272571	9,800510	2020-10-13T23:11:21:862
-0,217058	0,271104	9,800499	2020-10-13T23:11:21:880
-0,219695	0,267371	9,800543	2020-10-13T23:11:21:901
-0,223051	0,269006	9,800422	2020-10-13T23:11:21:920
-0,223464	0,268147	9,800436	2020-10-13T23:11:21:942
-0,222487	0,268823	9,800440	2020-10-13T23:11:21:959
-0,224022	0,269842	9,800377	2020-10-13T23:11:21:981
-0,194334	0,266988	9,801088	2020-10-13T23:11:22:000
-0,302988	0,240467	9,799018	2020-10-13T23:11:22:023
-0,300155	0,240241	9,799111	2020-10-13T23:11:22:040
-0,298912	0,241605	9,799115	2020-10-13T23:11:22:061
-0,297480	0,244902	9,799077	2020-10-13T23:11:22:080
-0,296875	0,249389	9,798983	2020-10-13T23:11:22:102
-0,298674	0,254239	9,798803	2020-10-13T23:11:22:120
-0,300524	0,256986	9,798675	2020-10-13T23:11:22:142
-0,300551	0,259836	9,798599	2020-10-13T23:11:22:160
-0,299632	0,259052	9,798648	2020-10-13T23:11:22:182
-0,297656	0,262150	9,798626	2020-10-13T23:11:22:200
-0,296509	0,261235	9,798685	2020-10-13T23:11:22:221
-0,293434	0,259824	9,798815	2020-10-13T23:11:22:240
-0,292230	0,261056	9,798818	2020-10-13T23:11:22:263
-0,291036	0,262981	9,798802	2020-10-13T23:11:22:280
-0,289419	0,264330	9,798814	2020-10-13T23:11:22:302
-0,288526	0,264036	9,798848	2020-10-13T23:11:22:320
-0,286923	0,264880	9,798872	2020-10-13T23:11:22:343
-0,288379	0,268197	9,798739	2020-10-13T23:11:22:360
-0,288689	0,268003	9,798736	2020-10-13T23:11:22:382
-0,287395	0,268162	9,798769	2020-10-13T23:11:22:401
-0,284610	0,267919	9,798857	2020-10-13T23:11:22:423
-0,281591	0,268102	9,798940	2020-10-13T23:11:22:440
-0,282987	0,265721	9,798964	2020-10-13T23:11:22:461
-0,280693	0,267780	9,798974	2020-10-13T23:11:22:480
-0,281419	0,268279	9,798940	2020-10-13T23:11:22:502
-0,279710	0,269263	9,798962	2020-10-13T23:11:22:520
-0,281076	0,271484	9,798861	2020-10-13T23:11:22:542
-0,278993	0,268693	9,798998	2020-10-13T23:11:22:560
-0,278350	0,270834	9,798957	2020-10-13T23:11:22:583
-0,278019	0,271542	9,798946	2020-10-13T23:11:22:600
-0,277030	0,273931	9,798908	2020-10-13T23:11:22:622
-0,253799	0,261598	9,799874	2020-10-13T23:11:22:643
-0,221923	0,255694	9,800804	2020-10-13T23:11:22:663
-0,221214	0,254784	9,800843	2020-10-13T23:11:22:680
-0,223300	0,254489	9,800804	2020-10-13T23:11:22:702
-0,222884	0,255573	9,800785	2020-10-13T23:11:22:720
-0,221914	0,257775	9,800750	2020-10-13T23:11:22:744
-0,222485	0,260113	9,800674	2020-10-13T23:11:22:760
-0,223976	0,257883	9,800700	2020-10-13T23:11:22:783
-0,224033	0,255962	9,800749	2020-10-13T23:11:22:800
-0,225531	0,253844	9,800770	2020-10-13T23:11:22:823
-0,227454	0,257007	9,800643	2020-10-13T23:11:22:841
-0,230081	0,258074	9,800553	2020-10-13T23:11:22:862
-0,233294	0,256855	9,800509	2020-10-13T23:11:22:881
-0,237167	0,259133	9,800357	2020-10-13T23:11:22:903
-0,237527	0,259987	9,800325	2020-10-13T23:11:22:920
-0,240457	0,260634	9,800237	2020-10-13T23:11:22:942
-0,238279	0,259664	9,800316	2020-10-13T23:11:22:961
-0,237492	0,257979	9,800379	2020-10-13T23:11:22:983
-0,267817	0,297548	9,798475	2020-10-13T23:11:23:001
-0,257162	0,211498	9,800996	2020-10-13T23:11:23:022
-0,257000	0,206190	9,801113	2020-10-13T23:11:23:041
-0,256788	0,204175	9,801161	2020-10-13T23:11:23:063
-0,256466	0,207475	9,801100	2020-10-13T23:11:23:082
-0,255867	0,207387	9,801118	2020-10-13T23:11:23:103
-0,254608	0,203462	9,801232	2020-10-13T23:11:23:122
-0,256554	0,207245	9,801103	2020-10-13T23:11:23:144
-0,256810	0,209999	9,801038	2020-10-13T23:11:23:161
-0,259219	0,210961	9,800953	2020-10-13T23:11:23:182
-0,257491	0,211320	9,800991	2020-10-13T23:11:23:201
-0,256311	0,209484	9,801062	2020-10-13T23:11:23:223
-0,255038	0,210290	9,801078	2020-10-13T23:11:23:241
-0,257178	0,210698	9,801013	2020-10-13T23:11:23:262
-0,257865	0,211394	9,800980	2020-10-13T23:11:23:281
-0,255864	0,214875	9,800957	2020-10-13T23:11:23:304
-0,257070	0,214511	9,800933	2020-10-13T23:11:23:321
-0,258665	0,214100	9,800900	2020-10-13T23:11:23:343
-0,259557	0,215806	9,800838	2020-10-13T23:11:23:362
-0,261260	0,217016	9,800767	2020-10-13T23:11:23:384
-0,263047	0,219712	9,800659	2020-10-13T23:11:23:401
-0,263832	0,220563	9,800619	2020-10-13T23:11:23:423
-0,264473	0,223033	9,800546	2020-10-13T23:11:23:441
-0,262747	0,225063	9,800546	2020-10-13T23:11:23:464
-0,261584	0,224750	9,800584	2020-10-13T23:11:23:481
-0,260363	0,228146	9,800538	2020-10-13T23:11:23:503
-0,270943	0,161134	9,801582	2020-10-13T23:11:23:521
-0,293390	0,223650	9,799708	2020-10-13T23:11:23:544
-0,293753	0,226305	9,799637	2020-10-13T23:11:23:562
-0,293612	0,226180	9,799644	2020-10-13T23:11:23:583
-0,268835	0,249870	9,799780	2020-10-13T23:11:23:604
-0,264445	0,187515	9,801291	2020-10-13T23:11:23:624
-0,263928	0,188999	9,801275	2020-10-13T23:11:23:642
-0,265030	0,189884	9,801229	2020-10-13T23:11:23:663
-0,263726	0,192322	9,801216	2020-10-13T23:11:23:681
-0,264378	0,191565	9,801214	2020-10-13T23:11:23:704
-0,245651	0,175092	9,802010	2020-10-13T23:11:23:721
-0,255648	0,190530	9,801466	2020-10-13T23:11:23:743
-0,254349	0,196192	9,801388	2020-10-13T23:11:23:761
-0,255409	0,198918	9,801305	2020-10-13T23:11:23:784
-0,246384	0,227759	9,800908	2020-10-13T23:11:23:802
-0,234852	0,215680	9,801465	2020-10-13T23:11:23:823
-0,235867	0,214172	9,801474	2020-10-13T23:11:23:842
-0,236762	0,210603	9,801529	2020-10-13T23:11:23:864
-0,241595	0,210083	9,801422	2020-10-13T23:11:23:881
-0,243883	0,212038	9,801324	2020-10-13T23:11:23:904
-0,244674	0,215955	9,801218	2020-10-13T23:11:23:921
-0,246582	0,218977	9,801104	2020-10-13T23:11:23:945
-0,247718	0,221644	9,801015	2020-10-13T23:11:23:961
-0,274269	0,251562	9,799585	2020-10-13T23:11:23:983
-0,243172	0,204649	9,801498	2020-10-13T23:11:24:001
-0,246436	0,202890	9,801454	2020-10-13T23:11:24:024
-0,247236	0,205166	9,801386	2020-10-13T23:11:24:042
-0,247785	0,206442	9,801345	2020-10-13T23:11:24:063
-0,247130	0,206663	9,801357	2020-10-13T23:11:24:082
-0,247211	0,210205	9,801280	2020-10-13T23:11:24:104
-0,244986	0,213222	9,801270	2020-10-13T23:11:24:122
-0,247131	0,211946	9,801245	2020-10-13T23:11:24:144
-0,247890	0,214124	9,801178	2020-10-13T23:11:24:161
-0,248085	0,215638	9,801140	2020-10-13T23:11:24:184
-0,249249	0,216053	9,801101	2020-10-13T23:11:24:201
-0,249616	0,217981	9,801049	2020-10-13T23:11:24:223
-0,250392	0,217309	9,801044	2020-10-13T23:11:24:242
-0,250609	0,217128	9,801043	2020-10-13T23:11:24:264
-0,253827	0,218632	9,800926	2020-10-13T23:11:24:282
-0,251757	0,218761	9,800977	2020-10-13T23:11:24:304
-0,253580	0,219749	9,800908	2020-10-13T23:11:24:323
-0,252420	0,220871	9,800913	2020-10-13T23:11:24:345
-0,252580	0,218521	9,800961	2020-10-13T23:11:24:362
-0,253489	0,217965	9,800950	2020-10-13T23:11:24:383
-0,250790	0,220036	9,800973	2020-10-13T23:11:24:402
-0,225090	0,281714	9,800018	2020-10-13T23:11:24:425
-0,298326	0,245397	9,799039	2020-10-13T23:11:24:442
-0,295981	0,245882	9,799098	2020-10-13T23:11:24:463
-0,296296	0,243580	9,799146	2020-10-13T23:11:24:482
-0,295700	0,245796	9,799109	2020-10-13T23:11:24:505
-0,297464	0,247397	9,799015	2020-10-13T23:11:24:522
-0,296793	0,245874	9,799073	2020-10-13T23:11:24:544
-0,291934	0,247196	9,799187	2020-10-13T23:11:24:563
-0,286062	0,249187	9,799309	2020-10-13T23:11:24:584
-0,284219	0,248692	9,799376	2020-10-13T23:11:24:602
-0,281313	0,248814	9,799456	2020-10-13T23:11:24:623
-0,278249	0,245524	9,799626	2020-10-13T23:11:24:642
-0,279847	0,243416	9,799634	2020-10-13T23:11:24:665
-0,276879	0,242620	9,799738	2020-10-13T23:11:24:682
-0,274984	0,240842	9,799835	2020-10-13T23:11:24:704
-0,273613	0,241209	9,799864	2020-10-13T23:11:24:722
-0,273164	0,240596	9,799891	2020-10-13T23:11:24:745
-0,271569	0,244961	9,799828	2020-10-13T23:11:24:762
-0,271346	0,247862	9,799761	2020-10-13T23:11:24:784
-0,271058	0,248792	9,799746	2020-10-13T23:11:24:803
-0,268850	0,247166	9,799848	2020-10-13T23:11:24:825
-0,269193	0,245894	9,799870	2020-10-13T23:11:24:843
-0,266943	0,244795	9,799959	2020-10-13T23:11:24:864
-0,265563	0,244900	9,799994	2020-10-13T23:11:24:882
-0,266392	0,241602	9,800054	2020-10-13T23:11:24:905
-0,265223	0,243632	9,800035	2020-10-13T23:11:24:922
-0,266012	0,242081	9,800052	2020-10-13T23:11:24:944
-0,268659	0,241472	9,799994	2020-10-13T23:11:24:963
-0,269737	0,243683	9,799911	2020-10-13T23:11:24:985
-0,217777	0,163145	9,802875	2020-10-13T23:11:25:003
-0,315559	0,305924	9,796796	2020-10-13T23:11:25:030
-0,308032	0,302791	9,797133	2020-10-13T23:11:25:044
-0,303538	0,296958	9,797452	2020-10-13T23:11:25:065
-0,301329	0,289335	9,797749	2020-10-13T23:11:25:083
-0,296715	0,288306	9,797919	2020-10-13T23:11:25:104
-0,295561	0,283947	9,798081	2020-10-13T23:11:25:122
-0,294713	0,278341	9,798268	2020-10-13T23:11:25:146
-0,250372	0,242337	9,800458	2020-10-13T23:11:25:163
-0,293301	0,247623	9,799135	2020-10-13T23:11:25:184
-0,244043	0,244106	9,800573	2020-10-13T23:11:25:204
-0,247691	0,182762	9,801818	2020-10-13T23:11:25:225
-0,247457	0,186695	9,801749	2020-10-13T23:11:25:244
-0,250233	0,190204	9,801612	2020-10-13T23:11:25:265
-0,252248	0,194633	9,801473	2020-10-13T23:11:25:284
-0,253191	0,201263	9,801314	2020-10-13T23:11:25:305
-0,251053	0,205996	9,801271	2020-10-13T23:11:25:323
-0,251958	0,212263	9,801114	2020-10-13T23:11:25:345
-0,252857	0,212219	9,801092	2020-10-13T23:11:25:363
-0,253092	0,216034	9,801003	2020-10-13T23:11:25:385
-0,255311	0,218731	9,800885	2020-10-13T23:11:25:403
-0,256447	0,220101	9,800825	2020-10-13T23:11:25:424
-0,256208	0,218636	9,800864	2020-10-13T23:11:25:444
-0,256007	0,219148	9,800858	2020-10-13T23:11:25:465
-0,241427	0,257029	9,800308	2020-10-13T23:11:25:483
-0,284518	0,262818	9,798998	2020-10-13T23:11:25:505
-0,281470	0,263292	9,799073	2020-10-13T23:11:25:524
-0,279150	0,261326	9,799192	2020-10-13T23:11:25:546
-0,280142	0,259828	9,799204	2020-10-13T23:11:25:563
-0,277975	0,261941	9,799210	2020-10-13T23:11:25:585
-0,274921	0,263294	9,799259	2020-10-13T23:11:25:603
-0,274860	0,261443	9,799311	2020-10-13T23:11:25:627
-0,274498	0,260481	9,799346	2020-10-13T23:11:25:643
-0,273051	0,260073	9,799397	2020-10-13T23:11:25:665
-0,217229	0,177955	9,802629	2020-10-13T23:11:25:684
-0,288624	0,153933	9,801193	2020-10-13T23:11:25:706
-0,191559	0,179981	9,803127	2020-10-13T23:11:25:724
-0,230622	0,309898	9,799039	2020-10-13T23:11:25:745
-0,295626	0,254068	9,798900	2020-10-13T23:11:25:765
-0,286343	0,288749	9,798215	2020-10-13T23:11:25:785
-0,261593	0,235352	9,800335	2020-10-13T23:11:25:804
-0,265114	0,236800	9,800205	2020-10-13T23:11:25:826
-0,266036	0,237009	9,800176	2020-10-13T23:11:25:844
-0,241047	0,231405	9,800956	2020-10-13T23:11:25:865
-0,243831	0,232490	9,800861	2020-10-13T23:11:25:885
-0,244130	0,232944	9,800843	2020-10-13T23:11:25:905
-0,292327	0,183802	9,800569	2020-10-13T23:11:25:924
-0,293215	0,190253	9,800419	2020-10-13T23:11:25:947
-0,300071	0,240057	9,799118	2020-10-13T23:11:25:964
-0,298549	0,240191	9,799161	2020-10-13T23:11:25:985
-0,297364	0,238997	9,799227	2020-10-13T23:11:26:005
-0,296710	0,238936	9,799248	2020-10-13T23:11:26:026
-0,297642	0,243065	9,799118	2020-10-13T23:11:26:045
-0,297710	0,243446	9,799107	2020-10-13T23:11:26:065
-0,286917	0,225192	9,799865	2020-10-13T23:11:26:084
-0,277246	0,229030	9,800055	2020-10-13T23:11:26:107
-0,279077	0,233046	9,799908	2020-10-13T23:11:26:123
-0,279494	0,238632	9,799762	2020-10-13T23:11:26:146
-0,275247	0,242467	9,799788	2020-10-13T23:11:26:164
-0,274794	0,243317	9,799779	2020-10-13T23:11:26:186
-0,273819	0,240925	9,799866	2020-10-13T23:11:26:204
-0,273576	0,242596	9,799831	2020-10-13T23:11:26:226
-0,229892	0,271627	9,800192	2020-10-13T23:11:26:246
-0,263398	0,287563	9,798894	2020-10-13T23:11:26:266
-0,260864	0,225791	9,800579	2020-10-13T23:11:26:285
-0,226874	0,224461	9,801455	2020-10-13T23:11:26:305
-0,255873	0,312609	9,798326	2020-10-13T23:11:26:324
-0,294641	0,287395	9,798009	2020-10-13T23:11:26:347
-0,293806	0,286690	9,798055	2020-10-13T23:11:26:364
-0,292155	0,289400	9,798024	2020-10-13T23:11:26:385
-0,292189	0,284681	9,798162	2020-10-13T23:11:26:405
-0,291371	0,283669	9,798215	2020-10-13T23:11:26:427
-0,289557	0,284624	9,798242	2020-10-13T23:11:26:445
-0,289820	0,283870	9,798255	2020-10-13T23:11:26:466
-0,287758	0,282027	9,798369	2020-10-13T23:11:26:485
-0,287564	0,280506	9,798419	2020-10-13T23:11:26:506
-0,286580	0,282668	9,798386	2020-10-13T23:11:26:524
-0,284584	0,286885	9,798321	2020-10-13T23:11:26:546
-0,283373	0,285894	9,798385	2020-10-13T23:11:26:564
-0,279184	0,283454	9,798576	2020-10-13T23:11:26:587
-0,220927	0,255752	9,800825	2020-10-13T23:11:26:605
-0,289991	0,246492	9,799262	2020-10-13T23:11:26:626
-0,287709	0,246110	9,799338	2020-10-13T23:11:26:645
-0,286556	0,243134	9,799447	2020-10-13T23:11:26:667
-0,284582	0,240453	9,799570	2020-10-13T23:11:26:684
-0,284360	0,240955	9,799564	2020-10-13T23:11:26:706
-0,282829	0,242028	9,799582	2020-10-13T23:11:26:725
-0,279888	0,244171	9,799614	2020-10-13T23:11:26:747
-0,280147	0,242323	9,799652	2020-10-13T23:11:26:764
-0,280805	0,246442	9,799531	2020-10-13T23:11:26:786
-0,267453	0,241235	9,800034	2020-10-13T23:11:26:805
-0,268006	0,240611	9,800034	2020-10-13T23:11:26:828
-0,267354	0,238773	9,800097	2020-10-13T23:11:26:845
-0,263827	0,247038	9,799987	2020-10-13T23:11:26:866
-0,264837	0,246307	9,799978	2020-10-13T23:11:26:885
-0,263489	0,248206	9,799967	2020-10-13T23:11:26:908
-0,260743	0,249976	9,799995	2020-10-13T23:11:26:925
-0,258346	0,251803	9,800012	2020-10-13T23:11:26:947
-0,256525	0,252786	9,800035	2020-10-13T23:11:26:965
-0,254708	0,251209	9,800122	2020-10-13T23:11:26:987
-0,255229	0,246483	9,800229	2020-10-13T23:11:27:005
-0,254399	0,245529	9,800275	2020-10-13T23:11:27:026
-0,253275	0,244226	9,800336	2020-10-13T23:11:27:045
-0,252254	0,244227	9,800363	2020-10-13T23:11:27:067
-0,253894	0,243646	9,800335	2020-10-13T23:11:27:084
-0,253262	0,242900	9,800369	2020-10-13T23:11:27:106
-0,252920	0,243559	9,800362	2020-10-13T23:11:27:125
-0,253530	0,247052	9,800259	2020-10-13T23:11:27:148
-0,249973	0,244431	9,800416	2020-10-13T23:11:27:165
-0,251092	0,238042	9,800545	2020-10-13T23:11:27:186
-0,251231	0,237559	9,800552	2020-10-13T23:11:27:205
-0,248970	0,238628	9,800585	2020-10-13T23:11:27:227
-0,249225	0,238600	9,800579	2020-10-13T23:11:27:245
-0,249117	0,237545	9,800607	2020-10-13T23:11:27:266
-0,249005	0,237704	9,800606	2020-10-13T23:11:27:285
-0,248805	0,236889	9,800631	2020-10-13T23:11:27:308
-0,249524	0,239936	9,800538	2020-10-13T23:11:27:325
-0,251343	0,240370	9,800481	2020-10-13T23:11:27:347
-0,250879	0,260249	9,799986	2020-10-13T23:11:27:366
-0,216774	0,267355	9,800608	2020-10-13T23:11:27:388
-0,215301	0,266718	9,800657	2020-10-13T23:11:27:405
-0,217528	0,264711	9,800663	2020-10-13T23:11:27:427
-0,221607	0,259578	9,800709	2020-10-13T23:11:27:446
-0,222177	0,259271	9,800704	2020-10-13T23:11:27:467
-0,225313	0,256792	9,800697	2020-10-13T23:11:27:485
-0,226739	0,258161	9,800629	2020-10-13T23:11:27:507
-0,226186	0,257237	9,800666	2020-10-13T23:11:27:525
-0,229793	0,258519	9,800549	2020-10-13T23:11:27:548
-0,229363	0,259804	9,800525	2020-10-13T23:11:27:565
-0,229639	0,259115	9,800536	2020-10-13T23:11:27:586
-0,230242	0,259264	9,800518	2020-10-13T23:11:27:605
-0,230066	0,255702	9,800616	2020-10-13T23:11:27:628
-0,230034	0,254243	9,800654	2020-10-13T23:11:27:646
-0,231560	0,251088	9,800700	2020-10-13T23:11:27:667
-0,233065	0,253382	9,800605	2020-10-13T23:11:27:686
-0,235498	0,256295	9,800471	2020-10-13T23:11:27:708
-0,233357	0,251723	9,800641	2020-10-13T23:11:27:725
-0,232762	0,252302	9,800640	2020-10-13T23:11:27:747
-0,232667	0,248563	9,800738	2020-10-13T23:11:27:765
-0,231420	0,246240	9,800826	2020-10-13T23:11:27:788
-0,234679	0,245102	9,800777	2020-10-13T23:11:27:805
-0,233534	0,246319	9,800775	2020-10-13T23:11:27:827
-0,260842	0,253385	9,799905	2020-10-13T23:11:27:846
-0,272340	0,260289	9,799412	2020-10-13T23:11:27:867
-0,270514	0,259012	9,799496	2020-10-13T23:11:27:885
-0,268110	0,256631	9,799624	2020-10-13T23:11:27:908
-0,267374	0,252090	9,799763	2020-10-13T23:11:27:926
-0,267644	0,251754	9,799764	2020-10-13T23:11:27:949
-0,269773	0,251674	9,799707	2020-10-13T23:11:27:965
-0,268640	0,251104	9,799753	2020-10-13T23:11:27:987
-0,267457	0,249032	9,799838	2020-10-13T23:11:28:005
-0,266672	0,247418	9,799901	2020-10-13T23:11:28:028
-0,266866	0,250100	9,799828	2020-10-13T23:11:28:046
-0,270557	0,250396	9,799719	2020-10-13T23:11:28:067
-0,272804	0,248769	9,799698	2020-10-13T23:11:28:091
-0,273089	0,250099	9,799656	2020-10-13T23:11:28:109
-0,274372	0,249933	9,799624	2020-10-13T23:11:28:126
-0,273085	0,251629	9,799617	2020-10-13T23:11:28:147
-0,271542	0,252478	9,799638	2020-10-13T23:11:28:166
-0,272764	0,250064	9,799665	2020-10-13T23:11:28:188
-0,270361	0,245672	9,799844	2020-10-13T23:11:28:206
-0,269329	0,243112	9,799936	2020-10-13T23:11:28:227
-0,271684	0,244363	9,799840	2020-10-13T23:11:28:246
-0,273001	0,247284	9,799730	2020-10-13T23:11:28:268
-0,271421	0,245650	9,799815	2020-10-13T23:11:28:285
-0,269181	0,243853	9,799922	2020-10-13T23:11:28:307
-0,269390	0,239907	9,800014	2020-10-13T23:11:28:326
-0,268786	0,239122	9,800049	2020-10-13T23:11:28:349
-0,267513	0,240094	9,800060	2020-10-13T23:11:28:365
-0,269271	0,240292	9,800007	2020-10-13T23:11:28:387
-0,269126	0,243134	9,799941	2020-10-13T23:11:28:407
-0,271474	0,242984	9,799880	2020-10-13T23:11:28:428
-0,272485	0,244671	9,799809	2020-10-13T23:11:28:446
-0,273433	0,244432	9,799789	2020-10-13T23:11:28:467
-0,274823	0,241996	9,799811	2020-10-13T23:11:28:485
-0,274653	0,242246	9,799809	2020-10-13T23:11:28:509
-0,273955	0,240559	9,799870	2020-10-13T23:11:28:526
-0,272958	0,238222	9,799955	2020-10-13T23:11:28:548
-0,274397	0,234178	9,800013	2020-10-13T23:11:28:566
-0,274146	0,233251	9,800042	2020-10-13T23:11:28:589
-0,274509	0,232571	9,800048	2020-10-13T23:11:28:607
-0,227720	0,281128	9,799974	2020-10-13T23:11:28:628
-0,253537	0,214903	9,801016	2020-10-13T23:11:28:647
-0,253209	0,213717	9,801051	2020-10-13T23:11:28:669
-0,254220	0,214706	9,801003	2020-10-13T23:11:28:686
-0,255063	0,217222	9,800925	2020-10-13T23:11:28:708
-0,257150	0,265877	9,799672	2020-10-13T23:11:28:726
-0,223921	0,204659	9,801957	2020-10-13T23:11:28:749
-0,236830	0,159562	9,802491	2020-10-13T23:11:28:767
-0,264876	0,228756	9,800403	2020-10-13T23:11:28:788
-0,264977	0,224046	9,800508	2020-10-13T23:11:28:807
-0,241902	0,241965	9,800679	2020-10-13T23:11:28:829
-0,291584	0,183144	9,800603	2020-10-13T23:11:28:847
-0,286510	0,252771	9,799204	2020-10-13T23:11:28:869
-0,313621	0,207472	9,799438	2020-10-13T23:11:28:888
-0,311970	0,210490	9,799426	2020-10-13T23:11:28:909
-0,311508	0,209216	9,799468	2020-10-13T23:11:28:927
-0,306911	0,211124	9,799572	2020-10-13T23:11:28:948
-0,301587	0,209119	9,799781	2020-10-13T23:11:28:966
-0,300532	0,205114	9,799897	2020-10-13T23:11:28:990
-0,295547	0,205491	9,800041	2020-10-13T23:11:29:006
-0,294589	0,208613	9,800004	2020-10-13T23:11:29:028
-0,291347	0,207899	9,800117	2020-10-13T23:11:29:047
-0,287963	0,207753	9,800220	2020-10-13T23:11:29:069
-0,285783	0,210704	9,800220	2020-10-13T23:11:29:087
-0,282915	0,209752	9,800323	2020-10-13T23:11:29:108
-0,284277	0,211093	9,800256	2020-10-13T23:11:29:127
-0,285767	0,210729	9,800220	2020-10-13T23:11:29:149
-0,286996	0,212216	9,800152	2020-10-13T23:11:29:167
-0,287165	0,212623	9,800138	2020-10-13T23:11:29:188
-0,285044	0,211260	9,800230	2020-10-13T23:11:29:206
-0,285509	0,214307	9,800150	2020-10-13T23:11:29:229
-0,287425	0,218868	9,799994	2020-10-13T23:11:29:247
-0,288765	0,223684	9,799845	2020-10-13T23:11:29:268
-0,286896	0,227809	9,799805	2020-10-13T23:11:29:287
-0,281858	0,228666	9,799932	2020-10-13T23:11:29:309
-0,281794	0,225291	9,800012	2020-10-13T23:11:29:327
-0,281054	0,226724	9,799999	2020-10-13T23:11:29:349
-0,280022	0,225945	9,800047	2020-10-13T23:11:29:367
-0,279636	0,224854	9,800083	2020-10-13T23:11:29:389
-0,278825	0,227103	9,800055	2020-10-13T23:11:29:407
-0,277929	0,225620	9,800114	2020-10-13T23:11:29:428
-0,276817	0,226834	9,800117	2020-10-13T23:11:29:447
-0,277031	0,227832	9,800088	2020-10-13T23:11:29:469
-0,228665	0,172817	9,802461	2020-10-13T23:11:29:487
-0,219475	0,224299	9,801628	2020-10-13T23:11:29:508
-0,225093	0,221030	9,801575	2020-10-13T23:11:29:527
-0,228022	0,219962	9,801531	2020-10-13T23:11:29:550
-0,228840	0,219843	9,801515	2020-10-13T23:11:29:567
-0,231309	0,223718	9,801369	2020-10-13T23:11:29:589
-0,231074	0,219022	9,801480	2020-10-13T23:11:29:608
-0,234976	0,219284	9,801382	2020-10-13T23:11:29:630
-0,309621	0,200916	9,799702	2020-10-13T23:11:29:648
-0,224287	0,241169	9,801118	2020-10-13T23:11:29:668
-0,225738	0,242810	9,801044	2020-10-13T23:11:29:687
-0,228525	0,244288	9,800943	2020-10-13T23:11:29:710
-0,233525	0,243447	9,800846	2020-10-13T23:11:29:727
-0,232970	0,240956	9,800920	2020-10-13T23:11:29:749
-0,232662	0,242123	9,800900	2020-10-13T23:11:29:767
-0,234594	0,240128	9,800902	2020-10-13T23:11:29:790
-0,237085	0,233280	9,801008	2020-10-13T23:11:29:807
-0,237535	0,232039	9,801026	2020-10-13T23:11:29:829
-0,234866	0,233135	9,801064	2020-10-13T23:11:29:848
-0,234178	0,231321	9,801125	2020-10-13T23:11:29:870
-0,235816	0,232705	9,801052	2020-10-13T23:11:29:887
-0,238750	0,230524	9,801033	2020-10-13T23:11:29:909
-0,240629	0,231710	9,800959	2020-10-13T23:11:29:927
-0,240799	0,235273	9,800870	2020-10-13T23:11:29:951
-0,240071	0,236700	9,800853	2020-10-13T23:11:29:967
-0,238965	0,234739	9,800927	2020-10-13T23:11:29:989
-0,241273	0,232730	9,800919	2020-10-13T23:11:30:008
-0,241781	0,232277	9,800917	2020-10-13T23:11:30:030
-0,242517	0,231287	9,800922	2020-10-13T23:11:30:048
-0,242632	0,231558	9,800913	2020-10-13T23:11:30:069
-0,245324	0,232482	9,800824	2020-10-13T23:11:30:088
-0,243188	0,232233	9,800883	2020-10-13T23:11:30:109
-0,244855	0,227939	9,800942	2020-10-13T23:11:30:127
-0,245497	0,222337	9,801055	2020-10-13T23:11:30:149
-0,246700	0,223278	9,801003	2020-10-13T23:11:30:167
-0,247013	0,221946	9,801026	2020-10-13T23:11:30:190
-0,248658	0,221764	9,800988	2020-10-13T23:11:30:207
-0,253253	0,218158	9,800952	2020-10-13T23:11:30:229
-0,250176	0,217478	9,801045	2020-10-13T23:11:30:248
-0,250187	0,218732	9,801018	2020-10-13T23:11:30:270
-0,252297	0,221275	9,800906	2020-10-13T23:11:30:288
-0,251984	0,221319	9,800914	2020-10-13T23:11:30:309
-0,253961	0,217760	9,800942	2020-10-13T23:11:30:328
-0,252530	0,218027	9,800973	2020-10-13T23:11:30:351
-0,251686	0,214936	9,801064	2020-10-13T23:11:30:368
-0,251417	0,215539	9,801057	2020-10-13T23:11:30:389
-0,251771	0,212442	9,801115	2020-10-13T23:11:30:408
-0,252711	0,212471	9,801090	2020-10-13T23:11:30:431
-0,253579	0,213247	9,801051	2020-10-13T23:11:30:448
-0,254652	0,214055	9,801006	2020-10-13T23:11:30:469
-0,251230	0,213605	9,801104	2020-10-13T23:11:30:488
-0,247071	0,208914	9,801311	2020-10-13T23:11:30:511
-0,275963	0,220770	9,800280	2020-10-13T23:11:30:528
-0,277210	0,222282	9,800211	2020-10-13T23:11:30:550
-0,275522	0,220394	9,800301	2020-10-13T23:11:30:568
-0,274058	0,218395	9,800386	2020-10-13T23:11:30:590
-0,272627	0,218087	9,800433	2020-10-13T23:11:30:608
-0,271340	0,218049	9,800470	2020-10-13T23:11:30:630
-0,279185	0,183255	9,800962	2020-10-13T23:11:30:649
-0,262456	0,279158	9,799162	2020-10-13T23:11:30:671
-0,261013	0,276366	9,799279	2020-10-13T23:11:30:688
-0,260702	0,276611	9,799281	2020-10-13T23:11:30:710
-0,260578	0,275133	9,799326	2020-10-13T23:11:30:728
-0,263203	0,272328	9,799334	2020-10-13T23:11:30:751
-0,260680	0,266169	9,799571	2020-10-13T23:11:30:768
-0,262185	0,262511	9,799629	2020-10-13T23:11:30:790
-0,260906	0,255467	9,799850	2020-10-13T23:11:30:809
-0,258513	0,251499	9,800015	2020-10-13T23:11:30:831
-0,258317	0,248044	9,800109	2020-10-13T23:11:30:849
-0,257710	0,247017	9,800151	2020-10-13T23:11:30:870
-0,258304	0,247951	9,800112	2020-10-13T23:11:30:888
-0,257405	0,245864	9,800188	2020-10-13T23:11:30:912
-0,258849	0,243537	9,800208	2020-10-13T23:11:30:928
-0,257351	0,239880	9,800338	2020-10-13T23:11:30:950
-0,260585	0,236385	9,800337	2020-10-13T23:11:30:968
-0,261015	0,233155	9,800403	2020-10-13T23:11:30:991
-0,259901	0,234454	9,800402	2020-10-13T23:11:31:009
-0,260275	0,233720	9,800409	2020-10-13T23:11:31:031
-0,259238	0,235690	9,800389	2020-10-13T23:11:31:050
-0,259153	0,237010	9,800360	2020-10-13T23:11:31:071
-0,301320	0,238746	9,799111	2020-10-13T23:11:31:089
-0,317846	0,267280	9,797853	2020-10-13T23:11:31:110
-0,288180	0,183646	9,800694	2020-10-13T23:11:31:129
-0,266993	0,156347	9,801768	2020-10-13T23:11:31:152
-0,266188	0,158694	9,801752	2020-10-13T23:11:31:168
-0,266965	0,161104	9,801692	2020-10-13T23:11:31:190
-0,263596	0,164936	9,801719	2020-10-13T23:11:31:209
-0,264315	0,167939	9,801649	2020-10-13T23:11:31:231
-0,263474	0,169201	9,801650	2020-10-13T23:11:31:249
-0,263415	0,169199	9,801651	2020-10-13T23:11:31:270
-0,313029	0,186933	9,799870	2020-10-13T23:11:31:291
-0,323098	0,212184	9,799029	2020-10-13T23:11:31:311
-0,322001	0,213483	9,799037	2020-10-13T23:11:31:329
-0,239116	0,207534	9,801538	2020-10-13T23:11:31:351
-0,238493	0,208666	9,801529	2020-10-13T23:11:31:369
-0,267730	0,115775	9,802311	2020-10-13T23:11:31:392
-0,269499	0,116700	9,802252	2020-10-13T23:11:31:409
-0,268872	0,119855	9,802231	2020-10-13T23:11:31:430
-0,268352	0,123651	9,802197	2020-10-13T23:11:31:449
-0,271099	0,131063	9,802026	2020-10-13T23:11:31:472
-0,270194	0,131305	9,802048	2020-10-13T23:11:31:489
-0,269453	0,133555	9,802037	2020-10-13T23:11:31:511
-0,282765	0,185671	9,800814	2020-10-13T23:11:31:531
-0,285549	0,191173	9,800628	2020-10-13T23:11:31:552
-0,284974	0,192174	9,800625	2020-10-13T23:11:31:569
-0,284217	0,189657	9,800695	2020-10-13T23:11:31:591
-0,242510	0,120304	9,802913	2020-10-13T23:11:31:610
-0,219843	0,244002	9,801148	2020-10-13T23:11:31:632
-0,223308	0,243849	9,801074	2020-10-13T23:11:31:649
-0,225169	0,245009	9,801003	2020-10-13T23:11:31:670
-0,225640	0,242243	9,801061	2020-10-13T23:11:31:689
-0,228393	0,240095	9,801049	2020-10-13T23:11:31:712
-0,231259	0,237932	9,801035	2020-10-13T23:11:31:729
-0,235984	0,235131	9,800990	2020-10-13T23:11:31:751
-0,234733	0,235909	9,801002	2020-10-13T23:11:31:770
-0,235349	0,236346	9,800976	2020-10-13T23:11:31:792
-0,235841	0,236939	9,800950	2020-10-13T23:11:31:809
-0,237209	0,238224	9,800886	2020-10-13T23:11:31:831
-0,239617	0,237464	9,800846	2020-10-13T23:11:31:850
-0,243886	0,236652	9,800760	2020-10-13T23:11:31:872
-0,243489	0,236596	9,800772	2020-10-13T23:11:31:889
-0,245152	0,235312	9,800761	2020-10-13T23:11:31:913
-0,246599	0,232677	9,800788	2020-10-13T23:11:31:929
-0,246894	0,230813	9,800824	2020-10-13T23:11:31:952
-0,244666	0,231330	9,800868	2020-10-13T23:11:31:969
-0,245519	0,229833	9,800881	2020-10-13T23:11:31:991
-0,245173	0,227013	9,800956	2020-10-13T23:11:32:018
-0,247243	0,226129	9,800924	2020-10-13T23:11:32:040
-0,246087	0,228043	9,800909	2020-10-13T23:11:32:051
-0,246168	0,229695	9,800869	2020-10-13T23:11:32:161
-0,247897	0,231169	9,800791	2020-10-13T23:11:32:163
-0,249162	0,228772	9,800815	2020-10-13T23:11:32:164
-0,250421	0,229786	9,800758	2020-10-13T23:11:32:166
-0,248753	0,229541	9,800807	2020-10-13T23:11:32:167
-0,260888	0,130972	9,802304	2020-10-13T23:11:32:168
-0,228213	0,235420	9,801167	2020-10-13T23:11:32:203
-0,228579	0,229888	9,801291	2020-10-13T23:11:32:243
-0,228557	0,228996	9,801311	2020-10-13T23:11:32:287
-0,229526	0,229259	9,801283	2020-10-13T23:11:32:288
-0,229259	0,227524	9,801330	2020-10-13T23:11:32:289
-0,231106	0,226373	9,801312	2020-10-13T23:11:32:290
-0,231311	0,228442	9,801260	2020-10-13T23:11:32:311
-0,232847	0,227176	9,801253	2020-10-13T23:11:32:328
-0,234973	0,230228	9,801131	2020-10-13T23:11:32:352
-0,226204	0,164853	9,802654	2020-10-13T23:11:32:368
-0,250653	0,168709	9,801994	2020-10-13T23:11:32:390
-0,249135	0,170548	9,802001	2020-10-13T23:11:32:411
-0,250977	0,173919	9,801895	2020-10-13T23:11:32:433
-0,250415	0,174833	9,801893	2020-10-13T23:11:32:450
-0,249126	0,171179	9,801991	2020-10-13T23:11:32:472
-0,246988	0,169218	9,802078	2020-10-13T23:11:32:490
-0,248561	0,168553	9,802051	2020-10-13T23:11:32:512
-0,248574	0,169892	9,802027	2020-10-13T23:11:32:529
-0,249841	0,171045	9,801974	2020-10-13T23:11:32:552
-0,249890	0,170472	9,801984	2020-10-13T23:11:32:569
-0,249868	0,174475	9,801913	2020-10-13T23:11:32:592
-0,249933	0,174960	9,801903	2020-10-13T23:11:32:610
-0,251362	0,175378	9,801859	2020-10-13T23:11:32:633
-0,249508	0,175554	9,801904	2020-10-13T23:11:32:650
-0,251357	0,178456	9,801804	2020-10-13T23:11:32:673
-0,252029	0,181577	9,801729	2020-10-13T23:11:32:689
-0,253713	0,183263	9,801655	2020-10-13T23:11:32:712
-0,263875	0,172170	9,801587	2020-10-13T23:11:32:732
-0,252727	0,216623	9,801000	2020-10-13T23:11:32:753
-0,253383	0,216610	9,800982	2020-10-13T23:11:32:770
-0,256969	0,218205	9,800854	2020-10-13T23:11:32:792
-0,253982	0,191377	9,801493	2020-10-13T23:11:32:810
-0,223490	0,285972	9,799932	2020-10-13T23:11:32:833
-0,227308	0,281802	9,799965	2020-10-13T23:11:32:851
-0,229495	0,276911	9,800053	2020-10-13T23:11:32:872
-0,230318	0,273267	9,800136	2020-10-13T23:11:32:891
-0,233077	0,267622	9,800226	2020-10-13T23:11:32:913
-0,232810	0,262281	9,800377	2020-10-13T23:11:32:932
-0,271272	0,160677	9,801580	2020-10-13T23:11:32:955
-0,202110	0,209328	9,802332	2020-10-13T23:11:32:971
-0,204529	0,208430	9,802301	2020-10-13T23:11:32:993
-0,206749	0,209139	9,802239	2020-10-13T23:11:33:011
-0,209386	0,210549	9,802154	2020-10-13T23:11:33:032
-0,208986	0,208676	9,802202	2020-10-13T23:11:33:050
-0,209731	0,208073	9,802198	2020-10-13T23:11:33:073
-0,212626	0,210562	9,802083	2020-10-13T23:11:33:090
-0,217099	0,209689	9,802004	2020-10-13T23:11:33:112
-0,218689	0,209146	9,801980	2020-10-13T23:11:33:131
-0,220808	0,205877	9,802002	2020-10-13T23:11:33:153
-0,221908	0,206466	9,801965	2020-10-13T23:11:33:171
-0,223129	0,205591	9,801955	2020-10-13T23:11:33:192
-0,225219	0,203013	9,801961	2020-10-13T23:11:33:212
-0,250650	0,171598	9,801945	2020-10-13T23:11:33:235
-0,277785	0,101452	9,802190	2020-10-13T23:11:33:251
-0,278367	0,104713	9,802139	2020-10-13T23:11:33:272
-0,276133	0,107865	9,802168	2020-10-13T23:11:33:291
-0,275864	0,112317	9,802126	2020-10-13T23:11:33:313
-0,276894	0,117171	9,802040	2020-10-13T23:11:33:330
-0,275632	0,120891	9,802031	2020-10-13T23:11:33:353
-0,226846	0,203222	9,801920	2020-10-13T23:11:33:371
-0,249289	0,203746	9,801364	2020-10-13T23:11:33:393
-0,249706	0,201949	9,801390	2020-10-13T23:11:33:411
-0,250257	0,204965	9,801313	2020-10-13T23:11:33:432
-0,248679	0,201973	9,801415	2020-10-13T23:11:33:452
-0,248786	0,202961	9,801393	2020-10-13T23:11:33:473
-0,248371	0,201603	9,801431	2020-10-13T23:11:33:491
-0,205941	0,167371	9,803059	2020-10-13T23:11:33:513
-0,207094	0,167490	9,803032	2020-10-13T23:11:33:531
-0,242725	0,134580	9,802722	2020-10-13T23:11:33:554
-0,243975	0,139641	9,802620	2020-10-13T23:11:33:572
-0,245026	0,141798	9,802563	2020-10-13T23:11:33:592
-0,244946	0,144422	9,802526	2020-10-13T23:11:33:611
-0,243542	0,145018	9,802553	2020-10-13T23:11:33:634
-0,242675	0,142422	9,802612	2020-10-13T23:11:33:651
-0,240975	0,145001	9,802616	2020-10-13T23:11:33:673
-0,240938	0,147464	9,802581	2020-10-13T23:11:33:692
-0,240857	0,148472	9,802567	2020-10-13T23:11:33:713
-0,241037	0,149605	9,802546	2020-10-13T23:11:33:731
-0,244162	0,151600	9,802438	2020-10-13T23:11:33:753
-0,247013	0,154695	9,802318	2020-10-13T23:11:33:771
-0,245835	0,155907	9,802328	2020-10-13T23:11:33:794
-0,246842	0,155778	9,802305	2020-10-13T23:11:33:811
-0,250922	0,155067	9,802213	2020-10-13T23:11:33:832
-0,305058	0,108431	9,801304	2020-10-13T23:11:33:852
-0,247724	0,233294	9,800744	2020-10-13T23:11:33:873
-0,247799	0,230353	9,800812	2020-10-13T23:11:33:892
-0,247868	0,227479	9,800878	2020-10-13T23:11:33:914
-0,225871	0,070959	9,803792	2020-10-13T23:11:33:933
-0,251761	0,172636	9,801898	2020-10-13T23:11:33:954
-0,250035	0,172689	9,801941	2020-10-13T23:11:33:971
-0,250656	0,173273	9,801915	2020-10-13T23:11:33:994
-0,249585	0,171695	9,801970	2020-10-13T23:11:34:011
-0,250189	0,172564	9,801939	2020-10-13T23:11:34:035
-0,252440	0,174417	9,801848	2020-10-13T23:11:34:052
-0,255100	0,175492	9,801761	2020-10-13T23:11:34:074
-0,255823	0,176837	9,801718	2020-10-13T23:11:34:092
-0,258984	0,177884	9,801616	2020-10-13T23:11:34:114
-0,260522	0,179472	9,801546	2020-10-13T23:11:34:132
-0,261670	0,176926	9,801561	2020-10-13T23:11:34:154
-0,261279	0,178100	9,801551	2020-10-13T23:11:34:172
-0,261107	0,179401	9,801532	2020-10-13T23:11:34:194
-0,260565	0,181364	9,801510	2020-10-13T23:11:34:212
-0,258619	0,183275	9,801526	2020-10-13T23:11:34:233
-0,258040	0,184617	9,801516	2020-10-13T23:11:34:252
-0,245283	0,182316	9,801887	2020-10-13T23:11:34:275
-0,276957	0,188617	9,800923	2020-10-13T23:11:34:291
-0,278191	0,191864	9,800825	2020-10-13T23:11:34:313
-0,279527	0,192594	9,800774	2020-10-13T23:11:34:332
-0,275281	0,189913	9,800946	2020-10-13T23:11:34:355
-0,273950	0,186849	9,801042	2020-10-13T23:11:34:372
-0,270652	0,181710	9,801230	2020-10-13T23:11:34:393
-0,269946	0,179079	9,801298	2020-10-13T23:11:34:413
-0,271098	0,176973	9,801305	2020-10-13T23:11:34:434
-0,271273	0,180374	9,801238	2020-10-13T23:11:34:452
-0,273157	0,179767	9,801196	2020-10-13T23:11:34:473
-0,272904	0,179047	9,801217	2020-10-13T23:11:34:491
-0,275556	0,182123	9,801085	2020-10-13T23:11:34:514
-0,273794	0,183493	9,801109	2020-10-13T23:11:34:532
-0,275564	0,184654	9,801039	2020-10-13T23:11:34:553
-0,263350	0,190385	9,801265	2020-10-13T23:11:34:573
-0,247817	0,173231	9,801988	2020-10-13T23:11:34:594
-0,246530	0,175403	9,801982	2020-10-13T23:11:34:612
-0,247655	0,175930	9,801944	2020-10-13T23:11:34:634
-0,247066	0,174494	9,801984	2020-10-13T23:11:34:662
-0,247434	0,175204	9,801962	2020-10-13T23:11:34:676
-0,303944	0,188955	9,800117	2020-10-13T23:11:34:693
-0,230379	0,251977	9,800705	2020-10-13T23:11:34:713
-0,234129	0,251054	9,800640	2020-10-13T23:11:34:732
-0,237149	0,250862	9,800572	2020-10-13T23:11:34:755
-0,235231	0,248874	9,800669	2020-10-13T23:11:34:772
-0,237152	0,245356	9,800712	2020-10-13T23:11:34:793
-0,237912	0,244056	9,800725	2020-10-13T23:11:34:812
-0,242505	0,240923	9,800691	2020-10-13T23:11:34:834
-0,241694	0,233625	9,800887	2020-10-13T23:11:34:852
-0,243905	0,230969	9,800896	2020-10-13T23:11:34:874
-0,279274	0,178910	9,801040	2020-10-13T23:11:34:894
-0,216348	0,158655	9,802979	2020-10-13T23:11:34:915
-0,227256	0,093202	9,803574	2020-10-13T23:11:34:933
-0,229099	0,098790	9,803475	2020-10-13T23:11:34:955
-0,298717	0,209584	9,799858	2020-10-13T23:11:34:972
-0,296905	0,209481	9,799915	2020-10-13T23:11:34:994
-0,299235	0,211974	9,799791	2020-10-13T23:11:35:013
-0,297417	0,212577	9,799833	2020-10-13T23:11:35:033
-0,298074	0,213937	9,799784	2020-10-13T23:11:35:053
-0,295355	0,211216	9,799926	2020-10-13T23:11:35:075
-0,234135	0,195047	9,801914	2020-10-13T23:11:35:093
-0,228754	0,156516	9,802732	2020-10-13T23:11:35:114
-0,231440	0,159286	9,802625	2020-10-13T23:11:35:133
-0,233685	0,161188	9,802540	2020-10-13T23:11:35:155
-0,235958	0,164345	9,802433	2020-10-13T23:11:35:173
-0,238877	0,166363	9,802328	2020-10-13T23:11:35:194
-0,239178	0,170128	9,802257	2020-10-13T23:11:35:212
-0,243224	0,171680	9,802130	2020-10-13T23:11:35:235
-0,247099	0,193077	9,801635	2020-10-13T23:11:35:253
-0,289858	0,231887	9,799623	2020-10-13T23:11:35:275
-0,288827	0,231597	9,799660	2020-10-13T23:11:35:293
-0,287562	0,232554	9,799674	2020-10-13T23:11:35:315
-0,284660	0,229707	9,799826	2020-10-13T23:11:35:334
-0,284575	0,230677	9,799806	2020-10-13T23:11:35:355
-0,282558	0,230515	9,799868	2020-10-13T23:11:35:374
-0,281924	0,224953	9,800015	2020-10-13T23:11:35:395
-0,281624	0,222757	9,800074	2020-10-13T23:11:35:413
-0,278964	0,223553	9,800132	2020-10-13T23:11:35:434
-0,277851	0,223509	9,800164	2020-10-13T23:11:35:453
-0,278343	0,222607	9,800171	2020-10-13T23:11:35:475
-0,278523	0,221180	9,800199	2020-10-13T23:11:35:493
-0,277483	0,219852	9,800258	2020-10-13T23:11:35:514
-0,290591	0,239965	9,799406	2020-10-13T23:11:35:533
-0,322428	0,139558	9,800355	2020-10-13T23:11:35:556
-0,318561	0,142790	9,800434	2020-10-13T23:11:35:573
-0,316815	0,147048	9,800428	2020-10-13T23:11:35:594
-0,314059	0,150504	9,800465	2020-10-13T23:11:35:614
-0,313101	0,151338	9,800482	2020-10-13T23:11:35:635
-0,311224	0,153821	9,800503	2020-10-13T23:11:35:653
-0,313591	0,154343	9,800420	2020-10-13T23:11:35:674
-0,312551	0,157804	9,800398	2020-10-13T23:11:35:693
-0,310075	0,162732	9,800396	2020-10-13T23:11:35:716
-0,306361	0,164096	9,800489	2020-10-13T23:11:35:733
-0,303496	0,165453	9,800556	2020-10-13T23:11:35:755
-0,301733	0,165852	9,800604	2020-10-13T23:11:35:773
-0,296706	0,164207	9,800785	2020-10-13T23:11:35:825
-0,289846	0,164211	9,800990	2020-10-13T23:11:35:826
-0,287719	0,167023	9,801005	2020-10-13T23:11:35:836
-0,283668	0,166139	9,801139	2020-10-13T23:11:35:877
-0,283184	0,168038	9,801120	2020-10-13T23:11:35:878
-0,281123	0,172779	9,801097	2020-10-13T23:11:35:894
-0,246264	0,182991	9,801849	2020-10-13T23:11:35:914
-0,202818	0,181088	9,802880	2020-10-13T23:11:35:932
-0,205445	0,180281	9,802840	2020-10-13T23:11:35:956
-0,207829	0,179065	9,802813	2020-10-13T23:11:35:973
-0,211589	0,179491	9,802724	2020-10-13T23:11:35:995
-0,217516	0,183118	9,802527	2020-10-13T23:11:36:014
-0,220062	0,183729	9,802459	2020-10-13T23:11:36:036
-0,222562	0,184686	9,802384	2020-10-13T23:11:36:054
-0,225493	0,186274	9,802287	2020-10-13T23:11:36:075
-0,226368	0,185005	9,802291	2020-10-13T23:11:36:096
-0,228089	0,183956	9,802271	2020-10-13T23:11:36:116
-0,228672	0,181462	9,802304	2020-10-13T23:11:36:133
-0,230568	0,179111	9,802303	2020-10-13T23:11:36:156
-0,228106	0,177870	9,802383	2020-10-13T23:11:36:173
-0,229966	0,174874	9,802394	2020-10-13T23:11:36:197
-0,231895	0,173816	9,802367	2020-10-13T23:11:36:214
-0,233591	0,170814	9,802380	2020-10-13T23:11:36:235
-0,238024	0,174160	9,802214	2020-10-13T23:11:36:254
-0,238440	0,175628	9,802177	2020-10-13T23:11:36:276
-0,239983	0,178913	9,802080	2020-10-13T23:11:36:293
-0,238535	0,180732	9,802082	2020-10-13T23:11:36:315
-0,240757	0,178637	9,802067	2020-10-13T23:11:36:334
-0,243571	0,179585	9,801980	2020-10-13T23:11:36:356
-0,244267	0,181958	9,801919	2020-10-13T23:11:36:374
-0,242020	0,184601	9,801925	2020-10-13T23:11:36:395
-0,228760	0,236256	9,801134	2020-10-13T23:11:36:414
-0,226301	0,130003	9,803177	2020-10-13T23:11:36:436
-0,227851	0,132121	9,803112	2020-10-13T23:11:36:454
-0,228455	0,136059	9,803044	2020-10-13T23:11:36:475
-0,231471	0,138144	9,802944	2020-10-13T23:11:36:494
-0,230375	0,140596	9,802936	2020-10-13T23:11:36:516
-0,231265	0,144148	9,802863	2020-10-13T23:11:36:534
-0,231683	0,144763	9,802844	2020-10-13T23:11:36:556
-0,232109	0,145958	9,802816	2020-10-13T23:11:36:575
-0,233304	0,146822	9,802775	2020-10-13T23:11:36:597
-0,232418	0,143784	9,802841	2020-10-13T23:11:36:614
-0,233030	0,141485	9,802860	2020-10-13T23:11:36:636
-0,234647	0,146066	9,802754	2020-10-13T23:11:36:654
-0,233981	0,145365	9,802780	2020-10-13T23:11:36:677
-0,234372	0,145267	9,802773	2020-10-13T23:11:36:694
-0,233744	0,148488	9,802739	2020-10-13T23:11:36:715
-0,286898	0,067837	9,802217	2020-10-13T23:11:36:734
-0,221550	0,105959	9,803575	2020-10-13T23:11:36:756
-0,225114	0,107897	9,803473	2020-10-13T23:11:36:774
-0,228266	0,113037	9,803341	2020-10-13T23:11:36:795
-0,229521	0,112401	9,803319	2020-10-13T23:11:36:815
-0,233437	0,112426	9,803226	2020-10-13T23:11:36:836
-0,232795	0,173378	9,802353	2020-10-13T23:11:36:855
-0,255187	0,077038	9,803026	2020-10-13T23:11:36:875
-0,288185	0,228347	9,799755	2020-10-13T23:11:36:894
-0,253437	0,166544	9,801960	2020-10-13T23:11:36:917
-0,253291	0,163793	9,802010	2020-10-13T23:11:36:934
-0,253674	0,162358	9,802024	2020-10-13T23:11:36:956
-0,255870	0,165045	9,801922	2020-10-13T23:11:36:974
-0,219722	0,174050	9,802643	2020-10-13T23:11:36:997
-0,222004	0,174253	9,802588	2020-10-13T23:11:37:015
-0,222109	0,177132	9,802534	2020-10-13T23:11:37:036
-0,224172	0,173107	9,802559	2020-10-13T23:11:37:057
-0,226362	0,174094	9,802491	2020-10-13T23:11:37:076
-0,227980	0,177635	9,802390	2020-10-13T23:11:37:095
-0,304100	0,120675	9,801191	2020-10-13T23:11:37:116
-0,305447	0,128174	9,801054	2020-10-13T23:11:37:134
-0,306985	0,130373	9,800977	2020-10-13T23:11:37:158
-0,306758	0,137038	9,800893	2020-10-13T23:11:37:174
-0,305015	0,140972	9,800892	2020-10-13T23:11:37:196
-0,216836	0,172334	9,802738	2020-10-13T23:11:37:215
-0,288192	0,170514	9,800931	2020-10-13T23:11:37:237
-0,274362	0,171675	9,801308	2020-10-13T23:11:37:255
-0,263451	0,210277	9,800855	2020-10-13T23:11:37:276
-0,264146	0,211776	9,800804	2020-10-13T23:11:37:295
-0,260302	0,207807	9,800992	2020-10-13T23:11:37:317
-0,258939	0,203703	9,801114	2020-10-13T23:11:37:335
-0,266129	0,201646	9,800964	2020-10-13T23:11:37:357
-0,222091	0,120702	9,803391	2020-10-13T23:11:37:374
-0,224249	0,120802	9,803342	2020-10-13T23:11:37:397
-0,225267	0,123858	9,803280	2020-10-13T23:11:37:415
-0,226466	0,125678	9,803229	2020-10-13T23:11:37:436
-0,227361	0,128276	9,803175	2020-10-13T23:11:37:455
-0,231076	0,133633	9,803017	2020-10-13T23:11:37:477
-0,232603	0,137428	9,802928	2020-10-13T23:11:37:495
-0,234730	0,142015	9,802812	2020-10-13T23:11:37:517
-0,236961	0,145331	9,802710	2020-10-13T23:11:37:536
-0,240140	0,150186	9,802559	2020-10-13T23:11:37:557
-0,241281	0,153836	9,802474	2020-10-13T23:11:37:575
-0,245100	0,156373	9,802340	2020-10-13T23:11:37:597
-0,247004	0,160112	9,802231	2020-10-13T23:11:37:615
-0,246141	0,162848	9,802208	2020-10-13T23:11:37:638
-0,246360	0,165033	9,802166	2020-10-13T23:11:37:655
-0,243868	0,167247	9,802191	2020-10-13T23:11:37:677
-0,237551	0,168547	9,802323	2020-10-13T23:11:37:696
-0,283683	0,144246	9,801485	2020-10-13T23:11:37:717
-0,283387	0,142916	9,801513	2020-10-13T23:11:37:735
-0,284068	0,147199	9,801430	2020-10-13T23:11:37:757
-0,282954	0,150181	9,801416	2020-10-13T23:11:37:775
-0,280800	0,150730	9,801470	2020-10-13T23:11:37:798
-0,277547	0,152268	9,801539	2020-10-13T23:11:37:816
-0,276194	0,156139	9,801517	2020-10-13T23:11:37:837
-0,277956	0,160550	9,801395	2020-10-13T23:11:37:855
-0,279358	0,161270	9,801344	2020-10-13T23:11:37:878
-0,281953	0,163035	9,801240	2020-10-13T23:11:37:895
-0,283377	0,166515	9,801141	2020-10-13T23:11:37:918
-0,279097	0,165476	9,801281	2020-10-13T23:11:37:935
-0,277128	0,168091	9,801292	2020-10-13T23:11:37:958
-0,277085	0,172094	9,801224	2020-10-13T23:11:37:975
-0,276031	0,172307	9,801250	2020-10-13T23:11:37:997
-0,278974	0,177437	9,801075	2020-10-13T23:11:38:016
-0,278086	0,178851	9,801075	2020-10-13T23:11:38:038
-0,279083	0,183465	9,800961	2020-10-13T23:11:38:056
-0,279126	0,187846	9,800877	2020-10-13T23:11:38:078
-0,278865	0,187931	9,800882	2020-10-13T23:11:38:097
-0,278786	0,187025	9,800902	2020-10-13T23:11:38:118
-0,275028	0,186052	9,801027	2020-10-13T23:11:38:135
-0,276607	0,185316	9,800997	2020-10-13T23:11:38:157
-0,276668	0,186560	9,800971	2020-10-13T23:11:38:175
-0,275422	0,191182	9,800917	2020-10-13T23:11:38:198
-0,271811	0,193114	9,800980	2020-10-13T23:11:38:215
-0,270463	0,195735	9,800965	2020-10-13T23:11:38:237
-0,268025	0,200052	9,800945	2020-10-13T23:11:38:258
-0,242714	0,163411	9,802284	2020-10-13T23:11:38:278
-0,244584	0,164517	9,802219	2020-10-13T23:11:38:295
-0,244620	0,167325	9,802171	2020-10-13T23:11:38:317
-0,245960	0,169799	9,802094	2020-10-13T23:11:38:336
-0,250681	0,173820	9,801905	2020-10-13T23:11:38:359
-0,250593	0,176219	9,801864	2020-10-13T23:11:38:375
-0,252701	0,178805	9,801763	2020-10-13T23:11:38:397
-0,252665	0,181584	9,801713	2020-10-13T23:11:38:416
-0,253214	0,215353	9,801015	2020-10-13T23:11:38:439
-0,248241	0,178348	9,801886	2020-10-13T23:11:38:456
-0,249096	0,182881	9,801780	2020-10-13T23:11:38:477
-0,247642	0,184694	9,801783	2020-10-13T23:11:38:496
-0,249682	0,185891	9,801708	2020-10-13T23:11:38:518
-0,251493	0,182519	9,801725	2020-10-13T23:11:38:536
-0,251578	0,183513	9,801704	2020-10-13T23:11:38:558
-0,252240	0,184435	9,801670	2020-10-13T23:11:38:575
-0,252610	0,183387	9,801681	2020-10-13T23:11:38:598
-0,252302	0,185263	9,801653	2020-10-13T23:11:38:615
-0,254414	0,183674	9,801628	2020-10-13T23:11:38:637
-0,254838	0,187125	9,801552	2020-10-13T23:11:38:656
-0,253291	0,190503	9,801527	2020-10-13T23:11:38:678
-0,254680	0,192054	9,801461	2020-10-13T23:11:38:696
-0,258402	0,193139	9,801342	2020-10-13T23:11:38:718
-0,259565	0,193438	9,801306	2020-10-13T23:11:38:736
-0,260051	0,194282	9,801276	2020-10-13T23:11:38:759
-0,260129	0,194966	9,801260	2020-10-13T23:11:38:776
-0,258544	0,193604	9,801330	2020-10-13T23:11:38:798
-0,257311	0,196173	9,801311	2020-10-13T23:11:38:816
-0,276896	0,243187	9,799723	2020-10-13T23:11:38:839
-0,279312	0,245525	9,799596	2020-10-13T23:11:38:856
-0,278834	0,243837	9,799652	2020-10-13T23:11:38:878
-0,278389	0,244054	9,799659	2020-10-13T23:11:38:896
-0,272836	0,244007	9,799816	2020-10-13T23:11:38:920
-0,272338	0,235707	9,800034	2020-10-13T23:11:38:936
-0,271882	0,234502	9,800076	2020-10-13T23:11:38:959
-0,269537	0,234199	9,800147	2020-10-13T23:11:38:977
-0,269348	0,233852	9,800160	2020-10-13T23:11:38:999
-0,270904	0,231883	9,800164	2020-10-13T23:11:39:016
-0,270473	0,228748	9,800250	2020-10-13T23:11:39:038
-0,268653	0,231267	9,800241	2020-10-13T23:11:39:057
-0,266894	0,231963	9,800273	2020-10-13T23:11:39:080
-0,264505	0,229939	9,800385	2020-10-13T23:11:39:096
-0,263807	0,225698	9,800503	2020-10-13T23:11:39:118
-0,261109	0,223216	9,800632	2020-10-13T23:11:39:136
-0,261725	0,221964	9,800644	2020-10-13T23:11:39:159
-0,259227	0,221938	9,800711	2020-10-13T23:11:39:176
-0,257135	0,220822	9,800791	2020-10-13T23:11:39:198
-0,257132	0,223317	9,800735	2020-10-13T23:11:39:217
-0,257928	0,223880	9,800701	2020-10-13T23:11:39:239
-0,257910	0,222369	9,800735	2020-10-13T23:11:39:257
-0,257782	0,221010	9,800770	2020-10-13T23:11:39:278
-0,258937	0,219696	9,800769	2020-10-13T23:11:39:296
-0,257218	0,215707	9,800902	2020-10-13T23:11:39:319
-0,257008	0,211352	9,801003	2020-10-13T23:11:39:336
-0,257406	0,211662	9,800986	2020-10-13T23:11:39:360
-0,257720	0,210527	9,801003	2020-10-13T23:11:39:378
-0,260609	0,209376	9,800950	2020-10-13T23:11:39:399
-0,258188	0,208298	9,801038	2020-10-13T23:11:39:417
-0,259718	0,207233	9,801020	2020-10-13T23:11:39:438
-0,257743	0,203197	9,801156	2020-10-13T23:11:39:459
-0,178916	0,179850	9,803369	2020-10-13T23:11:39:480
-0,274452	0,197413	9,800820	2020-10-13T23:11:39:496
-0,253432	0,222052	9,800859	2020-10-13T23:11:39:519
-0,329465	0,119371	9,800387	2020-10-13T23:11:39:537
-0,327031	0,124780	9,800402	2020-10-13T23:11:39:560
-0,324180	0,127161	9,800466	2020-10-13T23:11:39:576
-0,319954	0,130613	9,800559	2020-10-13T23:11:39:598
-0,313570	0,134286	9,800715	2020-10-13T23:11:39:617
-0,311497	0,134365	9,800780	2020-10-13T23:11:39:639
-0,305956	0,139370	9,800885	2020-10-13T23:11:39:657
-0,304495	0,143942	9,800864	2020-10-13T23:11:39:679
-0,301134	0,149341	9,800888	2020-10-13T23:11:39:697
-0,297726	0,151442	9,800960	2020-10-13T23:11:39:719
-0,296473	0,152997	9,800974	2020-10-13T23:11:39:737
-0,291735	0,153497	9,801107	2020-10-13T23:11:39:759
-0,289875	0,149838	9,801220	2020-10-13T23:11:39:776
-0,289533	0,152160	9,801194	2020-10-13T23:11:39:799
-0,290346	0,153817	9,801144	2020-10-13T23:11:39:817
-0,285498	0,155767	9,801255	2020-10-13T23:11:39:839
-0,284484	0,158269	9,801245	2020-10-13T23:11:39:857
-0,285046	0,159779	9,801204	2020-10-13T23:11:39:880
-0,283388	0,157919	9,801282	2020-10-13T23:11:39:897
-0,281754	0,162958	9,801247	2020-10-13T23:11:39:920
-0,279803	0,165584	9,801259	2020-10-13T23:11:39:939
-0,278881	0,167224	9,801257	2020-10-13T23:11:39:960
-0,275437	0,168353	9,801335	2020-10-13T23:11:39:977
-0,275427	0,167435	9,801352	2020-10-13T23:11:39:999
-0,275739	0,169611	9,801305	2020-10-13T23:11:40:017
-0,278262	0,171946	9,801193	2020-10-13T23:11:40:040
-0,276530	0,172938	9,801225	2020-10-13T23:11:40:057
-0,274390	0,173677	9,801271	2020-10-13T23:11:40:084
-0,233410	0,191043	9,802011	2020-10-13T23:11:40:100
-0,268944	0,134472	9,802039	2020-10-13T23:11:40:120
-0,270220	0,133427	9,802018	2020-10-13T23:11:40:137
-0,272834	0,135892	9,801912	2020-10-13T23:11:40:160
-0,273468	0,138014	9,801865	2020-10-13T23:11:40:178
-0,272278	0,141925	9,801842	2020-10-13T23:11:40:200
-0,269374	0,146138	9,801860	2020-10-13T23:11:40:217
-0,267763	0,149571	9,801852	2020-10-13T23:11:40:239
-0,306995	0,215993	9,799463	2020-10-13T23:11:40:258
-0,256238	0,258655	9,799889	2020-10-13T23:11:40:280
-0,256651	0,256095	9,799946	2020-10-13T23:11:40:297
-0,258617	0,254735	9,799930	2020-10-13T23:11:40:319
-0,255460	0,252194	9,800077	2020-10-13T23:11:40:337
-0,254881	0,247327	9,800217	2020-10-13T23:11:40:361
-0,254512	0,246586	9,800245	2020-10-13T23:11:40:378
-0,253320	0,244903	9,800318	2020-10-13T23:11:40:400
-0,257617	0,240882	9,800305	2020-10-13T23:11:40:418
-0,258532	0,236810	9,800381	2020-10-13T23:11:40:440
-0,260913	0,232974	9,800409	2020-10-13T23:11:40:458
-0,262934	0,235764	9,800289	2020-10-13T23:11:40:479
-0,260127	0,235219	9,800377	2020-10-13T23:11:40:497
-0,261471	0,232303	9,800411	2020-10-13T23:11:40:521
-0,273677	0,188400	9,801020	2020-10-13T23:11:40:539
-0,252986	0,197570	9,801395	2020-10-13T23:11:40:560
-0,253156	0,195928	9,801424	2020-10-13T23:11:40:578
-0,255897	0,194607	9,801379	2020-10-13T23:11:40:600
-0,256862	0,195268	9,801340	2020-10-13T23:11:40:618
-0,255870	0,193750	9,801396	2020-10-13T23:11:40:640
-0,254047	0,192688	9,801465	2020-10-13T23:11:40:659
-0,251079	0,193180	9,801532	2020-10-13T23:11:40:680
-0,250587	0,193763	9,801533	2020-10-13T23:11:40:698
-0,252162	0,191453	9,801538	2020-10-13T23:11:40:720
-0,242942	0,211334	9,801362	2020-10-13T23:11:40:738
-0,262732	0,221755	9,800621	2020-10-13T23:11:40:761
-0,263100	0,221653	9,800614	2020-10-13T23:11:40:777
-0,267066	0,220811	9,800526	2020-10-13T23:11:40:799
-0,266892	0,221328	9,800519	2020-10-13T23:11:40:818
-0,268503	0,221902	9,800462	2020-10-13T23:11:40:841
-0,270123	0,222024	9,800414	2020-10-13T23:11:40:859
-0,267345	0,218957	9,800560	2020-10-13T23:11:40:880
-0,266157	0,215934	9,800659	2020-10-13T23:11:40:900
-0,267039	0,211356	9,800735	2020-10-13T23:11:40:921
-0,265458	0,212062	9,800762	2020-10-13T23:11:40:939
-0,266542	0,209593	9,800786	2020-10-13T23:11:40:960
-0,266966	0,208549	9,800797	2020-10-13T23:11:40:978
-0,265959	0,208123	9,800834	2020-10-13T23:11:41:001
-0,267687	0,208317	9,800782	2020-10-13T23:11:41:018
-0,248442	0,166499	9,802089	2020-10-13T23:11:41:040
-0,251225	0,165615	9,802032	2020-10-13T23:11:41:059
-0,233563	0,168551	9,802420	2020-10-13T23:11:41:081
-0,234176	0,170082	9,802379	2020-10-13T23:11:41:098
-0,235375	0,173270	9,802294	2020-10-13T23:11:41:120
-0,236141	0,173563	9,802270	2020-10-13T23:11:41:139
-0,236323	0,173802	9,802261	2020-10-13T23:11:41:161
-0,235815	0,172054	9,802304	2020-10-13T23:11:41:178
-0,235776	0,172607	9,802296	2020-10-13T23:11:41:200
-0,238015	0,176818	9,802167	2020-10-13T23:11:41:218
-0,241024	0,179152	9,802051	2020-10-13T23:11:41:241
-0,240037	0,181481	9,802032	2020-10-13T23:11:41:260
-0,242739	0,182115	9,801953	2020-10-13T23:11:41:280
-0,243937	0,186667	9,801838	2020-10-13T23:11:41:298
-0,244884	0,185644	9,801834	2020-10-13T23:11:41:321
-0,243838	0,186604	9,801842	2020-10-13T23:11:41:338
-0,245444	0,186054	9,801812	2020-10-13T23:11:41:361
-0,246945	0,182923	9,801833	2020-10-13T23:11:41:378
-0,246285	0,182145	9,801865	2020-10-13T23:11:41:401
-0,247122	0,184244	9,801805	2020-10-13T23:11:41:418
-0,243565	0,185431	9,801871	2020-10-13T23:11:41:440
-0,241447	0,186806	9,801897	2020-10-13T23:11:41:459
-0,243193	0,182394	9,801937	2020-10-13T23:11:41:482
-0,244449	0,180334	9,801944	2020-10-13T23:11:41:498
-0,245568	0,180932	9,801905	2020-10-13T23:11:41:520
-0,244498	0,180855	9,801933	2020-10-13T23:11:41:539
-0,244772	0,180088	9,801941	2020-10-13T23:11:41:561
-0,245014	0,181509	9,801908	2020-10-13T23:11:41:579
-0,249137	0,186057	9,801719	2020-10-13T23:11:41:600
-0,249586	0,189862	9,801635	2020-10-13T23:11:41:620
-0,251285	0,189366	9,801600	2020-10-13T23:11:41:641
-0,254076	0,189942	9,801517	2020-10-13T23:11:41:659
-0,253898	0,186939	9,801580	2020-10-13T23:11:41:680
-0,254973	0,185266	9,801584	2020-10-13T23:11:41:699
-0,256972	0,185461	9,801528	2020-10-13T23:11:41:721
-0,256424	0,185127	9,801549	2020-10-13T23:11:41:739
-0,255540	0,183978	9,801594	2020-10-13T23:11:41:760
-0,254858	0,184464	9,801602	2020-10-13T23:11:41:779
-0,254880	0,184280	9,801605	2020-10-13T23:11:41:801
-0,257365	0,187322	9,801482	2020-10-13T23:11:41:819
-0,259747	0,187742	9,801412	2020-10-13T23:11:41:841
-0,257763	0,188256	9,801455	2020-10-13T23:11:41:860
-0,258569	0,188717	9,801424	2020-10-13T23:11:41:881
-0,257814	0,190065	9,801418	2020-10-13T23:11:41:899
-0,259108	0,189960	9,801386	2020-10-13T23:11:41:921
-0,257705	0,191821	9,801387	2020-10-13T23:11:41:939
-0,258326	0,192704	9,801353	2020-10-13T23:11:41:962
-0,259310	0,193624	9,801309	2020-10-13T23:11:41:979
-0,258826	0,194024	9,801313	2020-10-13T23:11:42:001
-0,267572	0,270430	9,799268	2020-10-13T23:11:42:020
-0,203310	0,203310	9,802434	2020-10-13T23:11:42:041
-0,259162	0,164646	9,801842	2020-10-13T23:11:42:061
-0,259448	0,168772	9,801764	2020-10-13T23:11:42:081
-0,250886	0,197814	9,801444	2020-10-13T23:11:42:100
-0,250246	0,193409	9,801549	2020-10-13T23:11:42:121
-0,250898	0,190205	9,801595	2020-10-13T23:11:42:139
-0,251819	0,189098	9,801593	2020-10-13T23:11:42:161
-0,251399	0,189157	9,801602	2020-10-13T23:11:42:179
-0,251521	0,193159	9,801521	2020-10-13T23:11:42:201
-0,251490	0,192878	9,801527	2020-10-13T23:11:42:219
-0,248874	0,190896	9,801633	2020-10-13T23:11:42:241
-0,244018	0,233915	9,800822	2020-10-13T23:11:42:260
-0,321543	0,172769	9,799854	2020-10-13T23:11:42:282
-0,320397	0,174528	9,799861	2020-10-13T23:11:42:300
-0,315883	0,177385	9,799956	2020-10-13T23:11:42:321
-0,311794	0,176164	9,800109	2020-10-13T23:11:42:342
-0,311382	0,178548	9,800079	2020-10-13T23:11:42:363
-0,310983	0,182262	9,800023	2020-10-13T23:11:42:380
-0,305969	0,187027	9,800091	2020-10-13T23:11:42:401
-0,304131	0,194134	9,800011	2020-10-13T23:11:42:419
-0,300395	0,193102	9,800146	2020-10-13T23:11:42:442
-0,295761	0,190061	9,800346	2020-10-13T23:11:42:461
-0,291377	0,187125	9,800534	2020-10-13T23:11:42:481
-0,299221	0,078476	9,801770	2020-10-13T23:11:42:500
-0,240626	0,243032	9,800685	2020-10-13T23:11:42:522
-0,240726	0,236343	9,800846	2020-10-13T23:11:42:540
-0,240998	0,232104	9,800941	2020-10-13T23:11:42:562
-0,243145	0,232169	9,800886	2020-10-13T23:11:42:581
-0,243161	0,230316	9,800929	2020-10-13T23:11:42:602
-0,243005	0,228381	9,800979	2020-10-13T23:11:42:620
-0,244930	0,225322	9,801002	2020-10-13T23:11:42:641
-0,245198	0,220993	9,801093	2020-10-13T23:11:42:660
-0,244425	0,220573	9,801122	2020-10-13T23:11:42:682
-0,241751	0,217676	9,801253	2020-10-13T23:11:42:700
-0,240371	0,209650	9,801462	2020-10-13T23:11:42:721
-0,240050	0,204137	9,801586	2020-10-13T23:11:42:740
-0,240782	0,201784	9,801617	2020-10-13T23:11:42:763
-0,241650	0,199564	9,801641	2020-10-13T23:11:42:780
-0,242111	0,201434	9,801591	2020-10-13T23:11:42:802
-0,247505	0,168288	9,802082	2020-10-13T23:11:42:822
-0,248697	0,171411	9,801997	2020-10-13T23:11:42:843
-0,269236	0,211543	9,800671	2020-10-13T23:11:42:861
-0,265037	0,209241	9,800835	2020-10-13T23:11:42:881
-0,261807	0,206026	9,800989	2020-10-13T23:11:42:900
-0,259342	0,202916	9,801120	2020-10-13T23:11:42:923
-0,259348	0,199742	9,801185	2020-10-13T23:11:42:940
-0,258785	0,197806	9,801239	2020-10-13T23:11:42:962
-0,257867	0,193897	9,801341	2020-10-13T23:11:42:980
-0,256218	0,193131	9,801400	2020-10-13T23:11:43:002
-0,255427	0,192132	9,801440	2020-10-13T23:11:43:020
-0,256639	0,191899	9,801413	2020-10-13T23:11:43:042
-0,255712	0,188981	9,801494	2020-10-13T23:11:43:061
-0,255583	0,185797	9,801558	2020-10-13T23:11:43:082
-0,257549	0,184403	9,801533	2020-10-13T23:11:43:100
-0,257844	0,183610	9,801540	2020-10-13T23:11:43:121
-0,256698	0,181842	9,801603	2020-10-13T23:11:43:140
-0,260211	0,178282	9,801576	2020-10-13T23:11:43:163
-0,260460	0,178777	9,801560	2020-10-13T23:11:43:180
-0,259421	0,177426	9,801612	2020-10-13T23:11:43:202
-0,258711	0,177250	9,801635	2020-10-13T23:11:43:221
-0,260845	0,174853	9,801620	2020-10-13T23:11:43:243
-0,261948	0,172476	9,801634	2020-10-13T23:11:43:261
-0,261549	0,174620	9,801606	2020-10-13T23:11:43:282
-0,261668	0,175021	9,801596	2020-10-13T23:11:43:301
-0,261657	0,173978	9,801615	2020-10-13T23:11:43:323
-0,264964	0,175127	9,801505	2020-10-13T23:11:43:340
-0,261056	0,176910	9,801579	2020-10-13T23:11:43:362
-0,261038	0,176083	9,801594	2020-10-13T23:11:43:380
-0,259274	0,177239	9,801620	2020-10-13T23:11:43:403
-0,259925	0,176960	9,801607	2020-10-13T23:11:43:420
-0,261177	0,174965	9,801610	2020-10-13T23:11:43:442
-0,259773	0,172141	9,801698	2020-10-13T23:11:43:461
-0,259519	0,172369	9,801700	2020-10-13T23:11:43:483
-0,211239	0,189143	9,802550	2020-10-13T23:11:43:501
-0,202379	0,156602	9,803310	2020-10-13T23:11:43:522
-0,207281	0,159286	9,803165	2020-10-13T23:11:43:542
-0,209364	0,159933	9,803110	2020-10-13T23:11:43:563
-0,212937	0,160782	9,803020	2020-10-13T23:11:43:581
-0,213626	0,162548	9,802976	2020-10-13T23:11:43:602
-0,215643	0,162625	9,802930	2020-10-13T23:11:43:620
-0,220261	0,165659	9,802776	2020-10-13T23:11:43:643
-0,220417	0,164685	9,802790	2020-10-13T23:11:43:661
-0,223233	0,163372	9,802748	2020-10-13T23:11:43:682
-0,224192	0,158323	9,802809	2020-10-13T23:11:43:701
-0,225862	0,158090	9,802774	2020-10-13T23:11:43:723
-0,226150	0,157868	9,802771	2020-10-13T23:11:43:741
-0,227111	0,155828	9,802781	2020-10-13T23:11:43:763
-0,231279	0,161414	9,802593	2020-10-13T23:11:43:781
