x	y	z	ts
2,256432	0,435494	9,298509	2020-10-29T19:26:04:260
2,423929	0,476172	9,315259	2020-10-29T19:26:04:260
2,505285	0,667598	9,367901	2020-10-29T19:26:04:261
2,471786	0,746561	9,418150	2020-10-29T19:26:04:312
2,462214	0,488136	9,406186	2020-10-29T19:26:04:317
2,462214	0,488136	9,406186	2020-10-29T19:26:04:318
2,462214	0,488136	9,406186	2020-10-29T19:26:04:320
2,483750	0,739382	9,355937	2020-10-29T19:26:04:323
2,555535	0,825524	9,193225	2020-10-29T19:26:04:345
2,244468	0,873380	9,107083	2020-10-29T19:26:04:364
2,230111	0,524028	9,298509	2020-10-29T19:26:04:385
2,239682	0,605384	9,394222	2020-10-29T19:26:04:404
2,179861	0,564706	9,291330	2020-10-29T19:26:04:424
2,244468	0,421137	9,207582	2020-10-29T19:26:04:445
2,426322	0,404387	9,284152	2020-10-29T19:26:04:465
2,514857	0,244068	9,559326	2020-10-29T19:26:04:484
2,474179	0,497707	9,674182	2020-10-29T19:26:04:504
2,519642	0,576670	9,762716	2020-10-29T19:26:04:524
2,617748	0,622134	9,815358	2020-10-29T19:26:04:547
2,758924	0,602991	9,834501	2020-10-29T19:26:04:564
2,742175	0,337388	9,705289	2020-10-29T19:26:04:584
2,627320	0,256032	9,497113	2020-10-29T19:26:04:604
2,526821	0,488136	9,231510	2020-10-29T19:26:04:624
2,409572	0,641276	8,865408	2020-10-29T19:26:04:645
2,359323	0,835095	8,501699	2020-10-29T19:26:04:664
2,409572	0,820738	8,228917	2020-10-29T19:26:04:685
2,311467	0,918844	7,788638	2020-10-29T19:26:04:706
2,292324	0,923629	7,484749	2020-10-29T19:26:04:724
2,246860	0,921237	7,140182	2020-10-29T19:26:04:746
2,514857	0,323031	7,039684	2020-10-29T19:26:04:764
2,816352	-0,289532	7,324430	2020-10-29T19:26:04:786
3,022135	-0,634098	7,235896	2020-10-29T19:26:04:804
3,369094	-1,301696	7,678568	2020-10-29T19:26:04:825
4,079762	-2,103291	8,231310	2020-10-29T19:26:04:845
4,864608	-2,799603	8,583055	2020-10-29T19:26:04:867
5,324030	-2,916851	8,298308	2020-10-29T19:26:04:884
5,304887	-2,809174	7,970492	2020-10-29T19:26:04:906
5,075177	-2,435893	7,793423	2020-10-29T19:26:04:924
4,749753	-2,069792	7,740781	2020-10-29T19:26:04:946
4,675575	-2,062613	7,640282	2020-10-29T19:26:04:964
4,529613	-2,414358	7,523034	2020-10-29T19:26:04:985
4,441079	-2,481357	7,185646	2020-10-29T19:26:05:004
4,512863	-2,938386	6,635297	2020-10-29T19:26:05:025
4,496114	-3,096312	5,998806	2020-10-29T19:26:05:045
4,847858	-4,381258	6,001199	2020-10-29T19:26:05:067
5,714060	-5,099105	5,860023	2020-10-29T19:26:05:084
6,312266	-5,886343	5,094319	2020-10-29T19:26:05:105
6,582655	-6,159126	4,053442	2020-10-29T19:26:05:124
6,776474	-6,721439	3,306881	2020-10-29T19:26:05:145
7,216753	-6,996613	2,758924	2020-10-29T19:26:05:164
7,527820	-7,503892	1,741975	2020-10-29T19:26:05:186
7,740781	-8,532805	0,784846	2020-10-29T19:26:05:205
7,838887	-9,303294	0,078963	2020-10-29T19:26:05:334
8,104490	-9,803394	-0,579063	2020-10-29T19:26:05:334
8,243275	-9,377472	-0,720240	2020-10-29T19:26:05:335
8,102098	-8,717053	-0,691526	2020-10-29T19:26:05:336
7,982457	-7,881958	-0,909273	2020-10-29T19:26:05:336
8,049455	-7,068398	-1,076770	2020-10-29T19:26:05:337
8,145168	-6,496514	-1,320838	2020-10-29T19:26:05:352
8,216952	-5,960521	-1,383051	2020-10-29T19:26:05:368
8,439486	-5,929415	-1,256232	2020-10-29T19:26:05:386
8,743374	-5,883951	-1,253839	2020-10-29T19:26:05:404
8,817552	-5,587241	-1,225125	2020-10-29T19:26:05:427
9,004191	-5,417351	-1,239482	2020-10-29T19:26:05:445
9,102298	-5,285746	-1,040878	2020-10-29T19:26:05:466
9,133404	-5,218746	-0,878166	2020-10-29T19:26:05:485
9,312866	-5,209175	-0,813560	2020-10-29T19:26:05:508
9,394222	-5,163712	-0,571885	2020-10-29T19:26:05:525
9,351151	-4,910072	-0,430708	2020-10-29T19:26:05:547
9,334401	-4,567898	-0,289532	2020-10-29T19:26:05:564
9,525827	-4,146761	-0,323031	2020-10-29T19:26:05:587
10,100104	-3,823731	-0,239282	2020-10-29T19:26:05:605
10,758131	-3,536592	0,019143	2020-10-29T19:26:05:627
10,875379	-3,347559	0,126820	2020-10-29T19:26:05:645
10,473385	-3,129812	0,265603	2020-10-29T19:26:05:668
10,248460	-2,940779	0,318245	2020-10-29T19:26:05:685
10,705488	-2,723032	0,294317	2020-10-29T19:26:05:707
11,432907	-2,825923	0,418744	2020-10-29T19:26:05:725
11,708081	-3,000600	0,370888	2020-10-29T19:26:05:747
11,365908	-3,046063	0,263210	2020-10-29T19:26:05:774
10,509278	-2,787638	0,258425	2020-10-29T19:26:05:787
9,817751	-2,428715	0,445065	2020-10-29T19:26:05:805
9,475577	-2,227718	0,521635	2020-10-29T19:26:05:828
9,174082	-2,194218	0,478565	2020-10-29T19:26:05:849
9,339187	-2,041078	0,287139	2020-10-29T19:26:05:867
9,839286	-1,959722	0,028714	2020-10-29T19:26:05:885
10,356135	-1,861616	-0,212961	2020-10-29T19:26:05:910
10,746166	-1,887937	-0,409173	2020-10-29T19:26:05:926
10,808380	-1,914258	-0,557528	2020-10-29T19:26:05:949
10,468598	-1,947758	-0,681954	2020-10-29T19:26:05:975
9,925428	-1,828116	-0,698704	2020-10-29T19:26:06:000
9,442079	-1,581656	-0,605384	2020-10-29T19:26:06:009
9,068797	-1,466800	-0,390030	2020-10-29T19:26:06:029
8,853443	-1,536192	-0,093320	2020-10-29T19:26:06:046
8,824730	-1,607977	-0,074178	2020-10-29T19:26:06:069
8,973085	-1,713261	-0,203390	2020-10-29T19:26:06:088
9,214760	-1,780260	-0,229711	2020-10-29T19:26:06:110
9,506684	-2,002793	-0,313460	2020-10-29T19:26:06:126
9,530612	-2,270789	-0,232104	2020-10-29T19:26:06:159
11,533404	-2,088934	-0,086142	2020-10-29T19:26:12:110
11,231910	-1,799403	0,124427	2020-10-29T19:26:12:114
11,224730	-2,256432	1,143769	2020-10-29T19:26:12:144
10,356135	-2,811567	1,507478	2020-10-29T19:26:12:147
8,640482	-3,323631	1,643869	2020-10-29T19:26:12:171
7,877172	-3,704089	1,658226	2020-10-29T19:26:12:183
8,453842	-3,366701	1,098306	2020-10-29T19:26:12:205
9,418150	-2,555535	0,320638	2020-10-29T19:26:12:223
9,250652	-1,466800	-0,095713	2020-10-29T19:26:12:249
8,580662	-0,550349	-0,232104	2020-10-29T19:26:12:265
7,862815	0,038285	-0,110070	2020-10-29T19:26:12:286
7,336394	-0,011964	0,064606	2020-10-29T19:26:12:303
7,247860	-1,100698	0,009571	2020-10-29T19:26:12:328
7,503892	-1,411765	-0,275175	2020-10-29T19:26:12:343
9,262616	-2,220540	-0,605384	2020-10-29T19:26:12:367
10,645668	-2,696711	-1,127020	2020-10-29T19:26:12:383
11,454442	-2,955136	-1,787439	2020-10-29T19:26:12:408
11,598011	-2,895315	-2,182254	2020-10-29T19:26:12:423
11,760723	-2,541178	-2,129612	2020-10-29T19:26:12:447
11,550155	-2,122434	-1,715654	2020-10-29T19:26:12:464
10,332209	-1,672583	-0,705883	2020-10-29T19:26:12:487
8,908479	-1,842474	0,524028	2020-10-29T19:26:12:504
7,929814	-1,981257	1,323231	2020-10-29T19:26:12:527
7,685746	-2,359323	1,495514	2020-10-29T19:26:12:543
7,219146	-3,086741	2,033899	2020-10-29T19:26:12:568
7,154540	-3,926622	2,938386	2020-10-29T19:26:12:584
8,094919	-4,398008	2,610569	2020-10-29T19:26:12:608
9,087940	-3,974478	1,526621	2020-10-29T19:26:12:624
9,585647	-3,232704	0,370888	2020-10-29T19:26:12:649
9,588040	-2,837888	0,007178	2020-10-29T19:26:12:664
9,664611	-2,670390	-0,007178	2020-10-29T19:26:12:687
9,657433	-2,352145	0,145962	2020-10-29T19:26:12:703
9,851252	-2,457429	0,313460	2020-10-29T19:26:12:727
9,805787	-2,624927	0,454636	2020-10-29T19:26:12:743
9,717253	-2,646462	0,153141	2020-10-29T19:26:12:767
9,805787	-2,739782	-0,339781	2020-10-29T19:26:12:783
9,578469	-2,720639	-0,468993	2020-10-29T19:26:12:808
8,657232	-2,153540	-0,433101	2020-10-29T19:26:12:824
7,554141	-1,765903	-0,184247	2020-10-29T19:26:12:847
6,491727	-1,825724	-0,263210	2020-10-29T19:26:12:864
5,603990	-1,883151	-0,485743	2020-10-29T19:26:12:889
5,233103	-2,323431	-0,914058	2020-10-29T19:26:12:903
6,125626	-2,658426	-1,739582	2020-10-29T19:26:12:927
7,980063	-3,309274	-2,395216	2020-10-29T19:26:12:944
10,557133	-4,426722	-2,873780	2020-10-29T19:26:12:968
12,799208	-5,233103	-3,048456	2020-10-29T19:26:12:984
11,947363	-5,824130	-2,490928	2020-10-29T19:26:13:007
11,176874	-5,510671	-2,400001	2020-10-29T19:26:13:024
12,763316	-4,610970	-2,988636	2020-10-29T19:26:13:049
13,184454	-4,086941	-3,005385	2020-10-29T19:26:13:065
12,296716	-4,287938	-2,443072	2020-10-29T19:26:13:088
11,420943	-3,773481	-1,919044	2020-10-29T19:26:13:104
10,916058	-2,974278	-1,593620	2020-10-29T19:26:13:129
10,336994	-2,239682	-1,493121	2020-10-29T19:26:13:144
9,812965	-2,055435	-1,615155	2020-10-29T19:26:13:168
9,420543	-2,050649	-1,777867	2020-10-29T19:26:13:184
9,166903	-1,990828	-1,715654	2020-10-29T19:26:13:208
8,719445	-2,182254	-1,411765	2020-10-29T19:26:13:224
8,453842	-2,447858	-0,952343	2020-10-29T19:26:13:248
8,422735	-2,969493	-0,705883	2020-10-29T19:26:13:264
8,396415	-3,151347	-0,607777	2020-10-29T19:26:13:288
8,267202	-2,991028	-0,480957	2020-10-29T19:26:13:304
7,812566	-3,079563	-0,378066	2020-10-29T19:26:13:328
7,441679	-3,218346	-0,346959	2020-10-29T19:26:13:344
7,427321	-2,914458	-0,351745	2020-10-29T19:26:13:369
7,774280	-2,871387	-0,260818	2020-10-29T19:26:13:384
8,183454	-3,113062	0,100499	2020-10-29T19:26:13:408
8,702696	-3,756732	0,246461	2020-10-29T19:26:13:425
8,939585	-3,675375	0,524028	2020-10-29T19:26:13:450
9,226725	-4,084548	0,993021	2020-10-29T19:26:13:465
9,595219	-4,007978	1,184447	2020-10-29T19:26:13:488
9,903893	-3,795017	1,392623	2020-10-29T19:26:13:504
10,368099	-3,792624	1,548156	2020-10-29T19:26:13:529
10,370493	-3,675375	1,816152	2020-10-29T19:26:13:545
9,700503	-3,117848	1,825724	2020-10-29T19:26:13:569
10,344172	-4,163511	3,139383	2020-10-29T19:26:13:584
11,787045	-6,089733	4,000800	2020-10-29T19:26:13:609
10,025927	-3,529413	4,230510	2020-10-29T19:26:13:626
7,578069	-2,062613	3,948158	2020-10-29T19:26:13:648
6,979864	-2,708675	3,763910	2020-10-29T19:26:13:665
6,987042	-3,302095	3,359523	2020-10-29T19:26:13:690
6,592227	-3,007778	4,041477	2020-10-29T19:26:13:705
6,553941	-3,596412	5,424529	2020-10-29T19:26:13:728
7,439285	-3,818945	6,436693	2020-10-29T19:26:13:746
7,365108	-2,639283	6,620940	2020-10-29T19:26:13:769
6,367301	-2,622534	7,752745	2020-10-29T19:26:13:786
6,214160	-3,706482	7,939385	2020-10-29T19:26:13:808
7,609176	-4,838287	10,277173	2020-10-29T19:26:13:826
11,224730	-6,637690	16,115660	2020-10-29T19:26:13:849
8,616554	-6,786045	8,673983	2020-10-29T19:26:13:866
4,673182	-4,701896	7,494320	2020-10-29T19:26:13:888
4,768896	-6,008378	7,951349	2020-10-29T19:26:13:906
3,761517	-4,823930	9,272188	2020-10-29T19:26:13:929
0,196211	-4,692325	9,946963	2020-10-29T19:26:13:946
-2,411965	-3,582055	10,238889	2020-10-29T19:26:13:969
-1,244268	-4,383651	10,478169	2020-10-29T19:26:13:986
-1,808974	-5,498707	9,420543	2020-10-29T19:26:14:009
-3,428915	-6,101698	9,446864	2020-10-29T19:26:14:026
-3,316452	-7,051648	9,621540	2020-10-29T19:26:14:048
-2,076970	-6,723832	9,253045	2020-10-29T19:26:14:066
-1,320838	-4,048656	9,951750	2020-10-29T19:26:14:092
-0,622134	-0,837488	9,209974	2020-10-29T19:26:14:105
0,279960	-2,086541	7,209574	2020-10-29T19:26:14:129
0,143569	-3,378666	6,448657	2020-10-29T19:26:14:145
0,016750	-1,311267	6,290731	2020-10-29T19:26:14:169
0,545564	-0,689133	6,702296	2020-10-29T19:26:14:186
1,014557	0,459422	7,568498	2020-10-29T19:26:14:208
1,808974	1,739582	8,834301	2020-10-29T19:26:14:233
2,677568	1,031307	9,442079	2020-10-29T19:26:14:255
3,022135	0,145962	9,269794	2020-10-29T19:26:14:371
3,247060	-1,476372	9,023334	2020-10-29T19:26:14:371
3,340380	-2,715853	9,372685	2020-10-29T19:26:14:376
3,735196	-4,065405	11,004591	2020-10-29T19:26:14:376
4,220939	-5,505885	12,059827	2020-10-29T19:26:14:377
3,909872	-4,421937	10,035499	2020-10-29T19:26:14:417
2,388037	-1,976472	8,573483	2020-10-29T19:26:14:472
1,579263	-1,485943	9,248260	2020-10-29T19:26:14:472
1,162912	-1,837688	10,025927	2020-10-29T19:26:14:482
0,806381	-1,751546	10,293922	2020-10-29T19:26:14:482
0,916451	-1,753939	10,068997	2020-10-29T19:26:14:482
0,622134	-1,667797	9,956534	2020-10-29T19:26:14:488
0,976272	-1,751546	9,714860	2020-10-29T19:26:14:506
1,378266	-1,890330	9,463614	2020-10-29T19:26:14:539
1,646262	-1,588834	9,133404	2020-10-29T19:26:14:544
1,859223	-1,708475	8,836694	2020-10-29T19:26:14:569
2,086541	-1,933401	8,611769	2020-10-29T19:26:14:585
2,294717	-2,419144	8,626125	2020-10-29T19:26:14:609
2,455036	-2,653640	8,745767	2020-10-29T19:26:14:628
2,596212	-2,880959	8,944371	2020-10-29T19:26:14:653
2,799603	-2,914458	9,140583	2020-10-29T19:26:14:664
2,840281	-2,919244	9,042477	2020-10-29T19:26:14:687
2,847459	-2,842674	8,968300	2020-10-29T19:26:14:704
2,828316	-2,842674	8,932407	2020-10-29T19:26:14:728
2,804388	-2,902494	9,121440	2020-10-29T19:26:14:744
2,620141	-2,952743	9,265009	2020-10-29T19:26:14:767
2,373680	-2,962314	9,298509	2020-10-29T19:26:14:786
2,074577	-2,644069	9,312866	2020-10-29T19:26:14:811
1,897508	-2,763710	9,494720	2020-10-29T19:26:14:826
1,981257	-2,785245	9,346365	2020-10-29T19:26:14:849
1,813759	-2,682354	9,233903	2020-10-29T19:26:14:866
1,868794	-2,763710	9,355937	2020-10-29T19:26:14:890
2,105684	-2,718246	9,291330	2020-10-29T19:26:14:906
2,036292	-2,555535	9,066404	2020-10-29T19:26:14:930
2,143969	-2,452643	9,049655	2020-10-29T19:26:14:946
2,153540	-2,373680	9,147761	2020-10-29T19:26:14:970
2,225325	-2,462214	9,190832	2020-10-29T19:26:14:986
2,246860	-2,507678	9,217153	2020-10-29T19:26:15:009
2,203789	-2,632105	8,846266	2020-10-29T19:26:15:026
2,330609	-3,048456	9,214760	2020-10-29T19:26:15:051
2,325824	-3,002992	9,183653	2020-10-29T19:26:15:066
2,057827	-2,703890	9,317651	2020-10-29T19:26:15:089
2,227718	-2,471786	9,497113	2020-10-29T19:26:15:106
1,852045	-2,234896	9,535398	2020-10-29T19:26:15:130
1,485943	-2,562713	9,999605	2020-10-29T19:26:15:148
1,117448	-2,569891	10,011569	2020-10-29T19:26:15:170
0,045464	-2,275574	9,913465	2020-10-29T19:26:15:186
-1,105484	-2,428715	9,355937	2020-10-29T19:26:15:210
-2,165504	-1,842474	8,958728	2020-10-29T19:26:15:226
-2,297110	-1,964507	9,339187	2020-10-29T19:26:15:249
-2,084148	-2,347359	9,571291	2020-10-29T19:26:15:266
-2,065006	-3,129812	9,140583	2020-10-29T19:26:15:291
-2,079363	-3,077170	8,767302	2020-10-29T19:26:15:306
-1,933401	-2,651247	8,614161	2020-10-29T19:26:15:329
-1,797010	-2,344966	8,654840	2020-10-29T19:26:15:346
-1,002593	-3,096312	8,673983	2020-10-29T19:26:15:370
-0,153141	-3,287738	8,324631	2020-10-29T19:26:15:389
1,069592	-3,984050	8,159525	2020-10-29T19:26:15:410
2,143969	-4,041477	8,166703	2020-10-29T19:26:15:429
2,304288	-4,364508	8,307880	2020-10-29T19:26:15:451
2,036292	-4,654040	8,398808	2020-10-29T19:26:15:468
2,201397	-4,895715	8,169096	2020-10-29T19:26:15:489
1,852045	-6,013163	7,611568	2020-10-29T19:26:15:507
1,789831	-7,264609	8,063812	2020-10-29T19:26:15:532
1,861616	-6,903293	8,216952	2020-10-29T19:26:15:547
1,892723	-6,618547	8,824730	2020-10-29T19:26:15:570
2,574677	-5,264209	6,948757	2020-10-29T19:26:15:587
2,167897	-6,089733	5,312066	2020-10-29T19:26:15:612
3,536592	-11,459228	5,199604	2020-10-29T19:26:15:627
3,878766	-12,160326	4,826324	2020-10-29T19:26:15:650
4,211368	-9,449257	4,816752	2020-10-29T19:26:15:667
5,060820	-8,087741	4,515256	2020-10-29T19:26:15:692
5,795416	-6,778866	3,541377	2020-10-29T19:26:15:711
6,826723	-6,699903	2,924029	2020-10-29T19:26:15:796
7,733603	-7,726424	2,732604	2020-10-29T19:26:15:799
8,475377	-7,482357	3,543770	2020-10-29T19:26:15:800
9,638289	-7,089933	3,345166	2020-10-29T19:26:15:801
10,913664	-4,326223	3,948158	2020-10-29T19:26:15:846
12,229716	-2,239682	2,785245	2020-10-29T19:26:15:848
13,634303	-4,591826	1,349552	2020-10-29T19:26:15:850
13,964513	-5,673382	0,430708	2020-10-29T19:26:15:930
13,579268	-5,785845	0,832702	2020-10-29T19:26:15:931
12,808779	-6,192625	1,024128	2020-10-29T19:26:15:932
11,990433	-5,027320	2,088934	2020-10-29T19:26:15:932
11,119448	-4,158726	2,514857	2020-10-29T19:26:15:946
10,291530	-3,034099	2,084148	2020-10-29T19:26:15:969
9,477970	-2,033899	1,710868	2020-10-29T19:26:15:986
9,257831	-1,928615	1,373480	2020-10-29T19:26:16:012
9,157332	-1,433301	0,923629	2020-10-29T19:26:16:028
9,049655	-0,739382	0,588634	2020-10-29T19:26:16:060
9,219545	-0,547956	0,284746	2020-10-29T19:26:16:068
9,918249	-0,559920	0,095713	2020-10-29T19:26:16:091
10,829915	-0,830309	-0,478565	2020-10-29T19:26:16:107
11,222338	-1,000200	-0,964308	2020-10-29T19:26:16:132
10,542776	-1,576870	-0,997807	2020-10-29T19:26:16:147
9,200402	-2,043471	-0,868595	2020-10-29T19:26:16:172
8,188239	-2,340181	-0,457029	2020-10-29T19:26:16:191
7,554141	-2,687140	-0,105284	2020-10-29T19:26:16:210
7,226324	-3,098706	0,351745	2020-10-29T19:26:16:228
6,996613	-3,479164	0,583849	2020-10-29T19:26:16:252
6,707082	-3,522235	0,468993	2020-10-29T19:26:16:268
6,867401	-3,376273	-0,131605	2020-10-29T19:26:16:291
7,673782	-3,091527	-0,928415	2020-10-29T19:26:16:320
8,504091	-3,170490	-1,076770	2020-10-29T19:26:16:332
8,461020	-3,259024	-0,643669	2020-10-29T19:26:16:351
7,673782	-3,139383	-0,198604	2020-10-29T19:26:16:410
7,379465	-3,096312	0,129212	2020-10-29T19:26:16:418
7,939385	-3,034099	0,169890	2020-10-29T19:26:16:419
8,410772	-3,062813	0,026321	2020-10-29T19:26:16:428
8,520842	-3,378666	-0,129212	2020-10-29T19:26:16:451
8,729016	-3,680161	-0,265603	2020-10-29T19:26:16:467
8,975478	-3,912265	-0,248854	2020-10-29T19:26:16:492
9,133404	-3,931407	-0,071785	2020-10-29T19:26:16:508
9,635897	-3,742374	-0,031107	2020-10-29T19:26:16:537
10,001998	-3,282953	-0,311067	2020-10-29T19:26:16:546
10,334601	-2,866602	-0,617348	2020-10-29T19:26:16:571
10,928021	-2,586641	-0,868595	2020-10-29T19:26:16:587
11,303694	-2,215754	-1,067199	2020-10-29T19:26:16:612
11,459228	-1,986043	-1,363909	2020-10-29T19:26:16:628
11,801401	-1,806581	-1,421337	2020-10-29T19:26:16:656
11,643474	-1,763510	-1,138984	2020-10-29T19:26:16:670
10,877771	-1,871187	-0,574277	2020-10-29T19:26:16:704
10,607382	-1,916651	-0,334995	2020-10-29T19:26:16:710
10,552348	-2,122434	-0,265603	2020-10-29T19:26:16:748
10,147961	-2,282753	-0,263210	2020-10-29T19:26:16:751
10,037891	-2,139183	-0,509671	2020-10-29T19:26:16:773
10,195816	-2,086541	-0,595813	2020-10-29T19:26:16:787
10,875379	-2,048256	-0,177069	2020-10-29T19:26:16:811
10,992627	-2,098505	-0,236889	2020-10-29T19:26:16:828
10,035499	-2,062613	-0,155533	2020-10-29T19:26:16:850
9,604790	-1,428515	0,076570	2020-10-29T19:26:16:868
10,013963	-0,918844	0,035892	2020-10-29T19:26:16:893
10,231709	-1,287339	0,086142	2020-10-29T19:26:16:908
10,092925	-1,588834	0,342174	2020-10-29T19:26:16:932
9,954143	-1,672583	0,447458	2020-10-29T19:26:16:948
9,748360	-1,703690	0,562313	2020-10-29T19:26:16:973
9,688539	-1,430908	0,220140	2020-10-29T19:26:16:988
9,556933	-1,586441	-0,124427	2020-10-29T19:26:17:011
9,442079	-2,270789	0,016750	2020-10-29T19:26:17:028
9,408579	-3,503092	0,162712	2020-10-29T19:26:17:052
9,372685	-4,943572	0,409173	2020-10-29T19:26:17:068
9,317651	-6,013163	0,457029	2020-10-29T19:26:17:092
8,970692	-6,154340	0,433101	2020-10-29T19:26:17:108
8,705089	-5,414958	0,504886	2020-10-29T19:26:17:132
8,726624	-4,886144	0,591027	2020-10-29T19:26:17:149
8,633304	-4,211368	0,442672	2020-10-29T19:26:17:171
8,214561	-3,299703	0,428315	2020-10-29T19:26:17:188
7,542177	-3,857230	0,729811	2020-10-29T19:26:17:215
7,262216	-3,766303	1,103091	2020-10-29T19:26:17:228
7,338787	-2,967100	1,174876	2020-10-29T19:26:17:251
7,499106	-2,981457	1,249053	2020-10-29T19:26:17:268
7,508677	-3,538985	1,655833	2020-10-29T19:26:17:292
7,963314	-4,309474	1,966900	2020-10-29T19:26:17:308
8,209774	-4,364508	1,942972	2020-10-29T19:26:17:332
8,360522	-4,512863	1,885544	2020-10-29T19:26:17:348
8,528020	-4,670790	1,966900	2020-10-29T19:26:17:372
8,556733	-4,886144	2,344966	2020-10-29T19:26:17:388
8,676375	-5,149354	2,469393	2020-10-29T19:26:17:411
8,690732	-5,022535	2,639283	2020-10-29T19:26:17:428
8,740981	-4,610970	2,622534	2020-10-29T19:26:17:454
8,573483	-4,153940	2,256432	2020-10-29T19:26:17:468
8,405986	-4,079762	2,244468	2020-10-29T19:26:17:492
9,353544	-3,876373	2,316252	2020-10-29T19:26:17:509
10,387242	-4,017549	1,976472	2020-10-29T19:26:17:533
10,770095	-4,663611	1,770689	2020-10-29T19:26:17:548
10,896914	-5,352744	1,720440	2020-10-29T19:26:17:572
11,231910	-5,620740	1,878366	2020-10-29T19:26:17:589
11,119448	-5,247460	2,019542	2020-10-29T19:26:17:613
10,229317	-4,555934	1,890330	2020-10-29T19:26:17:629
9,396614	-3,476771	1,529014	2020-10-29T19:26:17:652
9,250652	-2,493321	0,973879	2020-10-29T19:26:17:669
9,726824	-2,053042	0,497707	2020-10-29T19:26:17:726
10,042676	-2,225325	-0,035892	2020-10-29T19:26:17:728
10,202995	-2,514857	-0,705883	2020-10-29T19:26:17:732
10,164711	-2,557927	-1,112662	2020-10-29T19:26:17:748
10,176675	-2,773281	-1,337588	2020-10-29T19:26:17:772
10,109675	-3,345166	-0,837488	2020-10-29T19:26:17:788
9,592826	-3,572484	-0,468993	2020-10-29T19:26:17:812
9,231510	-3,294917	-0,263210	2020-10-29T19:26:17:832
8,870193	-2,902494	-0,191426	2020-10-29T19:26:17:853
8,769694	-2,699104	-0,088534	2020-10-29T19:26:17:869
8,987441	-2,476572	-0,351745	2020-10-29T19:26:17:893
9,095119	-2,457429	-0,595813	2020-10-29T19:26:17:908
9,231510	-2,447858	-0,823131	2020-10-29T19:26:17:934
9,343972	-2,498107	-0,868595	2020-10-29T19:26:17:949
9,683753	-2,435893	-0,789631	2020-10-29T19:26:17:972
10,181459	-2,507678	-0,887737	2020-10-29T19:26:17:989
10,499706	-2,560320	-0,964308	2020-10-29T19:26:18:013
10,602598	-2,653640	-0,988236	2020-10-29T19:26:18:030
10,511670	-2,634498	-0,811167	2020-10-29T19:26:18:053
10,214959	-2,732604	-0,265603	2020-10-29T19:26:18:069
9,963714	-2,455036	0,088534	2020-10-29T19:26:18:093
9,865608	-2,246860	0,320638	2020-10-29T19:26:18:109
9,889536	-2,038685	0,552742	2020-10-29T19:26:18:134
9,631111	-1,990828	1,057628	2020-10-29T19:26:18:159
8,525627	-1,720440	0,368495	2020-10-29T19:26:27:123
9,415757	-1,497907	-0,148355	2020-10-29T19:26:27:126
9,748360	-1,299303	-0,392423	2020-10-29T19:26:27:130
9,851252	-1,277767	-0,655633	2020-10-29T19:26:27:146
10,222138	-1,397408	-0,892523	2020-10-29T19:26:27:162
10,846665	-1,703690	-1,045663	2020-10-29T19:26:27:177
10,916058	-2,041078	-0,957129	2020-10-29T19:26:27:201
10,193424	-2,536392	-0,588634	2020-10-29T19:26:27:217
9,276974	-2,979064	-0,251246	2020-10-29T19:26:27:242
8,750552	-3,086741	0,007178	2020-10-29T19:26:27:259
8,599805	-3,177669	0,088534	2020-10-29T19:26:27:284
8,389235	-3,223132	0,208176	2020-10-29T19:26:27:299
8,238488	-3,218346	0,160319	2020-10-29T19:26:27:322
8,394022	-3,172883	0,315853	2020-10-29T19:26:27:337
8,939585	-2,775674	0,119641	2020-10-29T19:26:27:361
9,312866	-2,512464	-0,083749	2020-10-29T19:26:27:378
9,176475	-2,316252	-0,172283	2020-10-29T19:26:27:401
9,226725	-2,127219	-0,090927	2020-10-29T19:26:27:418
9,312866	-2,036292	-0,062213	2020-10-29T19:26:27:442
9,195618	-2,201397	0,196211	2020-10-29T19:26:27:458
9,494720	-2,632105	0,174676	2020-10-29T19:26:27:481
9,853643	-2,744568	0,165105	2020-10-29T19:26:27:498
9,985250	-2,727818	0,337388	2020-10-29T19:26:27:525
9,951750	-2,467000	0,179462	2020-10-29T19:26:27:539
10,269995	-1,998007	-0,327817	2020-10-29T19:26:27:562
11,385050	-1,713261	-0,854238	2020-10-29T19:26:27:578
12,868600	-1,765903	-0,870987	2020-10-29T19:26:27:603
13,232309	-1,933401	-0,808774	2020-10-29T19:26:27:618
12,478570	-1,797010	-1,351945	2020-10-29T19:26:27:642
12,071791	-1,555335	-1,758725	2020-10-29T19:26:27:658
11,260624	-1,569692	-1,603191	2020-10-29T19:26:27:682
10,238889	-1,191626	0,105284	2020-10-29T19:26:27:698
9,669396	2,624927	2,177469	2020-10-29T19:26:27:721
9,801002	6,250053	3,352344	2020-10-29T19:26:27:739
9,535398	5,903094	-0,023928	2020-10-29T19:26:27:765
9,906286	1,789831	-0,775275	2020-10-29T19:26:27:779
12,327823	-1,588834	-2,067399	2020-10-29T19:26:27:802
12,854243	-1,062413	-3,749553	2020-10-29T19:26:27:819
11,375479	-0,346959	-3,809374	2020-10-29T19:26:27:843
10,741381	0,126820	-3,151347	2020-10-29T19:26:27:859
10,353743	-0,526421	-2,756532	2020-10-29T19:26:27:881
9,418150	-0,715454	-2,199004	2020-10-29T19:26:27:899
8,673983	-0,945165	-2,187040	2020-10-29T19:26:27:922
8,391629	-1,753939	-2,163112	2020-10-29T19:26:27:939
8,379664	-2,648855	-1,816152	2020-10-29T19:26:27:962
8,449057	-2,718246	-1,457229	2020-10-29T19:26:27:980
8,556733	-1,421337	-1,385444	2020-10-29T19:26:28:004
8,877372	-1,069592	-1,313660	2020-10-29T19:26:28:019
9,269794	-0,897308	-1,313660	2020-10-29T19:26:28:043
9,315259	-0,428315	-1,249053	2020-10-29T19:26:28:059
9,552148	0,004786	-0,655633	2020-10-29T19:26:28:084
10,033106	0,143569	-0,114855	2020-10-29T19:26:28:099
10,291530	0,014357	0,138784	2020-10-29T19:26:28:122
10,102496	-0,239282	-0,105284	2020-10-29T19:26:28:139
11,179268	-0,643669	-0,617348	2020-10-29T19:26:28:163
13,684553	-0,983450	-1,904687	2020-10-29T19:26:28:179
13,864014	-1,696511	-2,098505	2020-10-29T19:26:28:203
12,282358	-2,321038	-1,337588	2020-10-29T19:26:28:219
12,258430	-2,639283	-0,055035	2020-10-29T19:26:28:244
11,940186	-2,842674	0,720240	2020-10-29T19:26:28:259
10,758131	-2,608176	1,289732	2020-10-29T19:26:28:282
9,736395	-2,809174	2,151148	2020-10-29T19:26:28:299
9,367901	-3,438486	2,682354	2020-10-29T19:26:28:323
9,315259	-2,234896	3,251846	2020-10-29T19:26:28:339
9,341579	-1,545763	3,105884	2020-10-29T19:26:28:362
9,633504	-0,392423	2,584249	2020-10-29T19:26:28:379
9,882358	0,586242	1,990828	2020-10-29T19:26:28:403
10,248460	1,335195	1,605584	2020-10-29T19:26:28:419
10,317852	1,971686	1,866402	2020-10-29T19:26:28:442
9,932607	1,801795	2,258825	2020-10-29T19:26:28:459
9,312866	1,244268	2,337788	2020-10-29T19:26:28:484
8,805587	0,758525	2,096112	2020-10-29T19:26:28:499
8,169096	0,059821	1,811367	2020-10-29T19:26:28:523
7,735995	-0,442672	1,517050	2020-10-29T19:26:28:539
7,417750	-0,782453	1,246661	2020-10-29T19:26:28:564
7,393822	-1,057628	1,024128	2020-10-29T19:26:28:580
7,525427	-1,268196	0,772882	2020-10-29T19:26:28:602
7,731210	-1,653440	0,449851	2020-10-29T19:26:28:619
8,109276	-1,880759	0,155533	2020-10-29T19:26:28:643
8,271988	-2,196611	0,016750	2020-10-29T19:26:28:659
8,472985	-2,679961	0,019143	2020-10-29T19:26:28:682
8,673983	-3,235096	0,038285	2020-10-29T19:26:28:700
8,784052	-3,622734	0,086142	2020-10-29T19:26:28:724
9,207582	-3,763910	0,122034	2020-10-29T19:26:28:739
9,896714	-3,577270	0,150748	2020-10-29T19:26:28:762
10,748559	-3,594020	-0,052642	2020-10-29T19:26:28:780
11,150554	-3,862016	-0,191426	2020-10-29T19:26:28:805
11,270195	-4,019942	-0,069392	2020-10-29T19:26:28:820
11,129018	-4,115655	-0,107677	2020-10-29T19:26:28:843
10,724631	-3,952943	-0,251246	2020-10-29T19:26:28:859
10,100104	-3,431308	-0,299103	2020-10-29T19:26:28:884
9,571291	-2,696711	-0,457029	2020-10-29T19:26:28:901
9,738789	-2,053042	-0,562313	2020-10-29T19:26:28:922
10,978271	-1,868794	-1,184447	2020-10-29T19:26:28:940
12,406786	-2,512464	-2,230111	2020-10-29T19:26:28:966
13,277774	-3,467200	-3,251846	2020-10-29T19:26:28:980
13,880764	-4,201797	-2,335395	2020-10-29T19:26:29:003
13,658232	-3,682554	-1,251446	2020-10-29T19:26:29:020
12,256038	-2,684747	-0,358923	2020-10-29T19:26:29:043
10,829915	-1,950150	0,442672	2020-10-29T19:26:29:060
9,796216	-1,134198	0,940379	2020-10-29T19:26:29:083
8,707481	-1,074377	1,124627	2020-10-29T19:26:29:100
8,365308	-0,981057	0,504886	2020-10-29T19:26:29:124
9,497113	1,256232	2,289931	2020-10-29T19:26:29:140
9,001799	7,226324	0,997807	2020-10-29T19:26:29:163
8,360522	4,800002	-0,165105	2020-10-29T19:26:29:180
10,660025	0,949951	-0,653241	2020-10-29T19:26:29:207
12,392428	0,531207	-2,230111	2020-10-29T19:26:29:220
11,873186	-0,586242	-3,113062	2020-10-29T19:26:29:243
11,325230	-1,485943	-2,321038	2020-10-29T19:26:29:260
11,241481	-1,596013	-1,086342	2020-10-29T19:26:29:284
10,423136	-1,234696	-0,727418	2020-10-29T19:26:29:300
9,633504	-0,873380	-1,332802	2020-10-29T19:26:29:323
9,420543	-1,241875	-1,883151	2020-10-29T19:26:29:339
9,580862	-1,892723	-2,072184	2020-10-29T19:26:29:364
9,564112	-2,215754	-2,203789	2020-10-29T19:26:29:380
9,530612	-2,067399	-2,065006	2020-10-29T19:26:29:403
9,379865	-0,799203	-1,902294	2020-10-29T19:26:29:420
9,451650	0,122034	-1,648655	2020-10-29T19:26:29:447
9,760324	0,342174	-1,529014	2020-10-29T19:26:29:460
9,722038	0,825524	-1,395016	2020-10-29T19:26:29:484
9,501899	1,280160	-0,990629	2020-10-29T19:26:29:500
9,334401	1,205983	-0,988236	2020-10-29T19:26:29:526
9,693325	1,031307	-0,859023	2020-10-29T19:26:29:544
10,198210	0,387637	-0,729811	2020-10-29T19:26:29:563
10,241282	-0,684347	-1,134198	2020-10-29T19:26:29:580
10,317852	-1,591227	-1,344766	2020-10-29T19:26:29:604
10,518847	-2,404787	-1,220340	2020-10-29T19:26:29:620
10,571491	-3,000600	-1,052842	2020-10-29T19:26:29:643
10,650455	-2,933600	-0,930808	2020-10-29T19:26:29:660
10,614561	-2,730211	-0,928415	2020-10-29T19:26:29:685
11,198411	-2,275574	-1,237089	2020-10-29T19:26:29:701
11,923435	-1,763510	-0,990629	2020-10-29T19:26:29:723
11,928220	-1,507478	-0,466600	2020-10-29T19:26:29:741
11,598011	-1,651048	0,177069	2020-10-29T19:26:29:764
10,820344	-1,820938	0,818345	2020-10-29T19:26:29:781
10,018748	-1,665405	1,019342	2020-10-29T19:26:29:804
9,468399	-1,330409	1,031307	2020-10-29T19:26:29:820
9,279366	-0,507278	1,390230	2020-10-29T19:26:29:846
8,685946	0,205783	1,641476	2020-10-29T19:26:29:861
7,917850	0,289532	1,485943	2020-10-29T19:26:29:884
8,221739	0,172283	1,282553	2020-10-29T19:26:29:902
9,401401	0,624527	0,526421	2020-10-29T19:26:29:927
10,480563	0,488136	0,320638	2020-10-29T19:26:29:941
10,700702	-0,602991	-0,576670	2020-10-29T19:26:29:964
10,978271	0,260818	-1,311267	2020-10-29T19:26:29:981
10,667203	1,052842	-1,048056	2020-10-29T19:26:30:005
10,107283	0,971486	-0,562313	2020-10-29T19:26:30:021
9,765109	1,122234	-0,373280	2020-10-29T19:26:30:044
9,449257	0,902094	-0,184247	2020-10-29T19:26:30:061
8,934800	0,387637	0,026321	2020-10-29T19:26:30:085
8,896514	-0,459422	0,138784	2020-10-29T19:26:30:101
8,985049	-0,988236	0,021535	2020-10-29T19:26:30:123
8,922836	-0,880559	-0,055035	2020-10-29T19:26:30:141
9,054441	-1,220340	0,215354	2020-10-29T19:26:30:166
9,226725	-2,452643	0,686740	2020-10-29T19:26:30:181
8,968300	-3,168097	0,473779	2020-10-29T19:26:30:204
8,762517	-3,036492	0,681954	2020-10-29T19:26:30:222
8,480164	-1,840081	1,021735	2020-10-29T19:26:30:244
8,338986	-0,911665	1,107877	2020-10-29T19:26:30:261
8,413164	-0,653241	1,076770	2020-10-29T19:26:30:284
8,654840	-0,454636	1,004985	2020-10-29T19:26:30:301
9,004191	-0,619741	1,253839	2020-10-29T19:26:30:325
9,461221	-0,595813	1,423729	2020-10-29T19:26:30:341
9,719646	-0,827917	1,485943	2020-10-29T19:26:30:365
9,789038	-1,091127	1,447658	2020-10-29T19:26:30:381
9,980463	-1,469193	1,308874	2020-10-29T19:26:30:407
9,999605	-1,741975	1,103091	2020-10-29T19:26:30:421
9,975677	-1,758725	0,923629	2020-10-29T19:26:30:444
10,865808	-1,591227	0,550349	2020-10-29T19:26:30:461
12,725031	-1,488336	0,423530	2020-10-29T19:26:30:485
13,091133	-1,457229	0,631705	2020-10-29T19:26:30:501
11,827723	-1,622334	0,813560	2020-10-29T19:26:30:523
11,495120	-1,189233	0,591027	2020-10-29T19:26:30:541
11,466407	-1,064806	0,397209	2020-10-29T19:26:30:565
10,971091	-1,131805	0,870987	2020-10-29T19:26:30:581
10,272388	-1,383051	1,375873	2020-10-29T19:26:30:604
9,269794	-1,799403	1,751546	2020-10-29T19:26:30:621
8,449057	-1,926222	2,036292	2020-10-29T19:26:30:645
7,956135	-1,947758	1,914258	2020-10-29T19:26:30:661
8,315059	-2,002793	1,579263	2020-10-29T19:26:30:684
9,095119	-1,392623	1,196411	2020-10-29T19:26:30:701
9,980463	-1,263410	0,806381	2020-10-29T19:26:30:724
11,483156	-1,363909	0,421137	2020-10-29T19:26:30:741
13,232309	-1,557728	-0,172283	2020-10-29T19:26:30:765
13,184454	-1,892723	-0,466600	2020-10-29T19:26:30:781
11,818150	-1,703690	-0,325424	2020-10-29T19:26:30:805
10,959127	-1,406980	0,004786	2020-10-29T19:26:30:821
10,186246	-1,265803	0,550349	2020-10-29T19:26:30:844
9,408579	-0,971486	0,933201	2020-10-29T19:26:30:861
9,078369	-0,772882	0,832702	2020-10-29T19:26:30:885
9,198010	-0,918844	0,526421	2020-10-29T19:26:30:901
9,265009	-1,170090	0,169890	2020-10-29T19:26:30:924
8,994620	-1,359123	-0,088534	2020-10-29T19:26:30:941
8,642875	-1,483550	-0,246461	2020-10-29T19:26:30:964
8,678767	-1,820938	-0,263210	2020-10-29T19:26:30:982
9,257831	-2,005185	-0,177069	2020-10-29T19:26:31:005
10,037891	-2,043471	-0,428315	2020-10-29T19:26:31:021
10,392029	-1,801795	-0,794417	2020-10-29T19:26:31:045
10,226924	-1,782653	-0,873380	2020-10-29T19:26:31:061
10,777272	-1,789831	-0,818345	2020-10-29T19:26:31:084
11,626726	-1,509871	-1,435694	2020-10-29T19:26:31:101
11,600404	-1,356731	-1,624727	2020-10-29T19:26:31:125
11,475977	-1,390230	-1,617548	2020-10-29T19:26:31:141
11,779866	-1,713261	-1,320838	2020-10-29T19:26:31:164
11,504691	-2,081756	-0,937986	2020-10-29T19:26:31:183
10,896914	-1,998007	-0,868595	2020-10-29T19:26:31:205
10,001998	-2,098505	-0,569492	2020-10-29T19:26:31:221
9,343972	-2,254039	0,380459	2020-10-29T19:26:31:245
9,288938	-1,864009	0,464208	2020-10-29T19:26:31:262
9,602397	-1,794617	-0,478565	2020-10-29T19:26:31:285
9,647861	-2,373680	-0,705883	2020-10-29T19:26:31:302
9,777073	-2,756532	-0,404387	2020-10-29T19:26:31:326
9,877571	-3,014957	0,112463	2020-10-29T19:26:31:342
9,810574	-3,048456	0,653241	2020-10-29T19:26:31:367
9,664611	-3,120241	1,074377	2020-10-29T19:26:31:382
9,523434	-3,079563	1,366302	2020-10-29T19:26:31:405
9,279366	-2,799603	1,205983	2020-10-29T19:26:31:422
9,320045	-2,749353	0,835095	2020-10-29T19:26:31:446
9,600004	-2,510071	0,459422	2020-10-29T19:26:31:462
9,781858	-2,323431	0,270389	2020-10-29T19:26:31:485
9,901501	-2,088934	0,071785	2020-10-29T19:26:31:502
9,908678	-2,098505	0,002393	2020-10-29T19:26:31:525
9,561719	-2,385644	0,643669	2020-10-29T19:26:31:542
9,284152	-2,536392	1,031307	2020-10-29T19:26:31:565
9,245867	-2,734996	1,205983	2020-10-29T19:26:31:582
9,327222	-2,708675	1,505085	2020-10-29T19:26:31:606
9,267403	-2,691926	1,622334	2020-10-29T19:26:31:622
8,767302	-2,821138	2,050649	2020-10-29T19:26:31:645
8,516055	-2,976671	2,318645	2020-10-29T19:26:31:662
8,793623	-3,230310	2,335395	2020-10-29T19:26:31:685
9,104690	-3,443272	2,153540	2020-10-29T19:26:31:702
9,506684	-3,708875	2,057827	2020-10-29T19:26:31:725
9,468399	-3,627519	1,978864	2020-10-29T19:26:31:741
9,315259	-3,464807	1,861616	2020-10-29T19:26:31:765
9,186047	-3,522235	1,964507	2020-10-29T19:26:31:782
9,006584	-3,680161	2,234896	2020-10-29T19:26:31:806
8,688338	-3,548556	2,165504	2020-10-29T19:26:31:822
8,642875	-3,570091	1,995614	2020-10-29T19:26:31:846
8,604590	-3,723232	2,024328	2020-10-29T19:26:31:861
8,712267	-3,651447	2,586641	2020-10-29T19:26:31:885
9,377472	-3,347559	2,459821	2020-10-29T19:26:31:902
10,291530	-3,692125	2,263610	2020-10-29T19:26:31:926
10,119246	-3,694518	2,390430	2020-10-29T19:26:31:943
9,466006	-3,694518	2,565106	2020-10-29T19:26:31:965
9,377472	-3,474378	2,380858	2020-10-29T19:26:31:985
9,757930	-3,098706	2,072184	2020-10-29T19:26:32:006
10,825130	-2,895315	1,871187	2020-10-29T19:26:32:022
11,650653	-3,036492	2,237289	2020-10-29T19:26:32:045
11,550155	-2,873780	2,648855	2020-10-29T19:26:32:062
11,315658	-1,665405	3,242275	2020-10-29T19:26:32:087
11,301301	-0,820738	2,610569	2020-10-29T19:26:32:102
10,980663	-0,593420	1,746760	2020-10-29T19:26:32:127
10,578669	-1,093520	0,775275	2020-10-29T19:26:32:143
10,389636	-1,385444	0,078963	2020-10-29T19:26:32:165
9,927821	-1,416551	-0,205783	2020-10-29T19:26:32:183
9,769895	-1,476372	-0,136391	2020-10-29T19:26:32:206
9,877571	-1,655833	-0,184247	2020-10-29T19:26:32:223
10,006784	-1,969293	-0,339781	2020-10-29T19:26:32:246
9,868000	-2,289931	-0,325424	2020-10-29T19:26:32:263
9,879964	-2,433501	-0,516850	2020-10-29T19:26:32:285
9,882358	-2,347359	-0,636491	2020-10-29T19:26:32:303
9,695717	-2,239682	-0,638884	2020-10-29T19:26:32:328
9,535398	-2,268396	-0,727418	2020-10-29T19:26:32:342
9,272188	-2,134398	-0,763310	2020-10-29T19:26:32:365
8,968300	-2,581856	-0,277567	2020-10-29T19:26:32:383
8,867801	-3,077170	-0,167498	2020-10-29T19:26:32:406
8,764909	-3,086741	-0,459422	2020-10-29T19:26:32:423
8,669197	-3,203990	-0,385244	2020-10-29T19:26:32:445
8,764909	-3,290131	0,014357	2020-10-29T19:26:32:463
8,992228	-3,498307	0,258425	2020-10-29T19:26:32:487
9,214760	-3,687340	0,605384	2020-10-29T19:26:32:504
9,178867	-3,854837	0,748954	2020-10-29T19:26:32:526
9,104690	-3,811767	0,990629	2020-10-29T19:26:32:545
9,209974	-3,967300	1,497907	2020-10-29T19:26:32:577
9,288938	-4,206582	1,789831	2020-10-29T19:26:32:584
9,406186	-4,498507	1,806581	2020-10-29T19:26:32:606
9,255438	-4,620540	1,363909	2020-10-29T19:26:32:624
9,241080	-4,809574	0,851845	2020-10-29T19:26:32:646
9,032906	-4,357330	0,251246	2020-10-29T19:26:32:664
9,099905	-5,230711	0,155533	2020-10-29T19:26:32:686
9,202796	-5,845665	0,349352	2020-10-29T19:26:32:705
9,195618	-6,077770	0,591027	2020-10-29T19:26:32:726
9,154939	-6,221339	0,528814	2020-10-29T19:26:32:744
9,853643	-5,173282	0,083749	2020-10-29T19:26:32:767
11,217552	-4,395615	-0,581456	2020-10-29T19:26:32:784
11,837293	-4,115655	-0,813560	2020-10-29T19:26:32:807
11,712867	-3,768696	-0,655633	2020-10-29T19:26:32:824
11,277373	-3,421736	-0,320638	2020-10-29T19:26:32:846
10,741381	-3,522235	0,043071	2020-10-29T19:26:32:864
10,267602	-3,457629	0,055035	2020-10-29T19:26:32:886
9,250652	-3,292524	0,150748	2020-10-29T19:26:32:904
8,123632	-3,038885	0,586242	2020-10-29T19:26:32:926
7,735995	-2,825923	0,607777	2020-10-29T19:26:32:944
8,331808	-2,421536	0,366102	2020-10-29T19:26:32:966
9,382257	-2,021935	-0,035892	2020-10-29T19:26:32:984
10,126426	-1,878366	-0,124427	2020-10-29T19:26:33:006
10,430314	-1,715654	-0,385244	2020-10-29T19:26:33:024
10,492528	-1,495514	-0,701097	2020-10-29T19:26:33:047
10,444671	-1,395016	-0,662812	2020-10-29T19:26:33:064
10,114462	-1,194018	-0,401994	2020-10-29T19:26:33:087
9,487542	-1,172483	0,246461	2020-10-29T19:26:33:104
8,736196	-1,110270	0,602991	2020-10-29T19:26:33:126
7,970492	-1,100698	0,827917	2020-10-29T19:26:33:144
7,700103	-1,217947	0,966700	2020-10-29T19:26:33:166
7,865208	-1,311267	1,179662	2020-10-29T19:26:33:184
8,097312	-1,452443	1,287339	2020-10-29T19:26:33:207
8,274381	-1,622334	1,349552	2020-10-29T19:26:33:224
8,358130	-2,021935	1,426122	2020-10-29T19:26:33:247
8,547162	-2,163112	1,201197	2020-10-29T19:26:33:264
8,673983	-2,579463	1,531406	2020-10-29T19:26:33:288
8,985049	-3,629912	1,655833	2020-10-29T19:26:33:304
8,764909	-3,421736	1,639083	2020-10-29T19:26:33:326
8,944371	-3,483950	1,813759	2020-10-29T19:26:33:344
9,408579	-3,548556	1,665405	2020-10-29T19:26:33:366
10,258030	-4,220939	2,304288	2020-10-29T19:26:33:384
11,023734	-4,441079	2,196611	2020-10-29T19:26:33:407
11,205588	-3,964907	2,110470	2020-10-29T19:26:33:424
11,114661	-4,187439	1,746760	2020-10-29T19:26:33:447
11,509477	-3,096312	1,368695	2020-10-29T19:26:33:464
12,973885	-2,134398	1,335195	2020-10-29T19:26:33:487
11,803794	-1,761117	1,387837	2020-10-29T19:26:33:504
9,655040	-1,579263	1,533799	2020-10-29T19:26:33:533
9,509077	-1,232304	1,196411	2020-10-29T19:26:33:543
10,009177	-1,660619	0,897308	2020-10-29T19:26:33:567
10,518847	-2,134398	0,708275	2020-10-29T19:26:33:584
10,147961	-2,581856	0,753739	2020-10-29T19:26:33:608
9,276974	-3,062813	0,746561	2020-10-29T19:26:33:624
8,666803	-3,287738	0,772882	2020-10-29T19:26:33:647
8,341379	-3,620341	0,904487	2020-10-29T19:26:33:664
8,042276	-3,672983	0,720240	2020-10-29T19:26:33:687
8,288737	-3,555735	0,287139	2020-10-29T19:26:33:704
9,533006	-3,474378	-0,095713	2020-10-29T19:26:33:727
10,865808	-3,555735	-0,354138	2020-10-29T19:26:33:744
11,854043	-3,818945	-0,636491	2020-10-29T19:26:33:767
11,844472	-3,716053	-0,837488	2020-10-29T19:26:33:784
11,251052	-3,474378	-1,182054	2020-10-29T19:26:33:807
10,624132	-2,890530	-1,531406	2020-10-29T19:26:33:824
10,327423	-2,325824	-1,624727	2020-10-29T19:26:33:847
10,234102	-1,995614	-1,684547	2020-10-29T19:26:33:864
10,444671	-1,880759	-1,648655	2020-10-29T19:26:33:888
10,485349	-2,002793	-1,684547	2020-10-29T19:26:33:904
10,301102	-2,189433	-1,655833	2020-10-29T19:26:33:927
10,109675	-2,196611	-1,718047	2020-10-29T19:26:33:944
10,126426	-2,237289	-1,746760	2020-10-29T19:26:33:967
10,135997	-2,141576	-1,670190	2020-10-29T19:26:33:985
9,951750	-2,151148	-1,540978	2020-10-29T19:26:34:008
9,968499	-2,184647	-1,545763	2020-10-29T19:26:34:024
9,791430	-2,086541	-1,409373	2020-10-29T19:26:34:047
9,834501	-2,136791	-1,194018	2020-10-29T19:26:34:064
10,045070	-2,007578	-0,842274	2020-10-29T19:26:34:088
10,167104	-1,916651	-0,478565	2020-10-29T19:26:34:105
10,267602	-1,727618	-0,184247	2020-10-29T19:26:34:127
10,293922	-1,519442	-0,203390	2020-10-29T19:26:34:144
10,286745	-1,430908	-0,184247	2020-10-29T19:26:34:167
10,384850	-1,366302	-0,282353	2020-10-29T19:26:34:185
11,614761	-1,371087	-0,524028	2020-10-29T19:26:34:208
12,349358	-1,919044	-0,155533	2020-10-29T19:26:34:225
11,602797	-2,445465	0,854238	2020-10-29T19:26:34:249
10,971091	-2,615355	2,213361	2020-10-29T19:26:34:264
10,533205	-2,993421	3,318845	2020-10-29T19:26:34:288
9,631111	-3,318845	3,756732	2020-10-29T19:26:34:305
8,652447	-3,639483	3,211168	2020-10-29T19:26:34:328
7,587641	-3,340380	1,974079	2020-10-29T19:26:34:345
6,551548	-2,577070	0,940379	2020-10-29T19:26:34:368
6,527620	-1,658226	-0,043071	2020-10-29T19:26:34:385
7,659425	-1,057628	-0,849452	2020-10-29T19:26:34:408
8,906086	-0,868595	-1,198804	2020-10-29T19:26:34:425
9,609575	-0,866202	-0,916451	2020-10-29T19:26:34:448
9,731609	-0,739382	-0,535992	2020-10-29T19:26:34:465
9,829715	-0,681954	-0,129212	2020-10-29T19:26:34:490
10,540384	-0,880559	0,253639	2020-10-29T19:26:34:505
10,554741	-0,940379	0,289532	2020-10-29T19:26:34:528
9,585647	-1,253839	0,708275	2020-10-29T19:26:34:545
8,980263	-1,670190	0,906880	2020-10-29T19:26:34:568
8,726624	-2,132005	0,856631	2020-10-29T19:26:34:585
8,841480	-2,562713	1,158126	2020-10-29T19:26:34:608
9,071191	-2,955136	1,177269	2020-10-29T19:26:34:625
9,320045	-2,962314	0,847059	2020-10-29T19:26:34:648
9,375079	-2,928815	0,665205	2020-10-29T19:26:34:665
9,470792	-2,684747	0,674776	2020-10-29T19:26:34:688
9,640682	-3,196811	1,026521	2020-10-29T19:26:34:706
9,530612	-2,904887	1,502693	2020-10-29T19:26:34:729
9,300901	-2,641676	1,998007	2020-10-29T19:26:34:745
9,154939	-2,878566	1,995614	2020-10-29T19:26:34:768
9,157332	-2,866602	1,751546	2020-10-29T19:26:34:786
9,205189	-2,799603	1,476372	2020-10-29T19:26:34:808
9,255438	-2,737389	1,332802	2020-10-29T19:26:34:825
9,568897	-2,778067	1,069592	2020-10-29T19:26:34:848
9,528220	-2,567499	0,796810	2020-10-29T19:26:34:865
9,504292	-2,646462	0,526421	2020-10-29T19:26:34:889
9,650253	-2,658426	0,301496	2020-10-29T19:26:34:905
10,260423	-2,916851	0,031107	2020-10-29T19:26:34:928
11,796617	-2,782853	-0,102891	2020-10-29T19:26:34:946
13,217952	-3,041277	-0,107677	2020-10-29T19:26:34:969
12,442677	-3,694518	0,157926	2020-10-29T19:26:34:985
11,006985	-4,144369	0,131605	2020-10-29T19:26:35:009
10,358529	-3,943372	0,052642	2020-10-29T19:26:35:025
9,946963	-3,488736	0,313460	2020-10-29T19:26:35:048
9,542577	-3,132205	0,495314	2020-10-29T19:26:35:065
8,803195	-3,014957	0,799203	2020-10-29T19:26:35:088
7,913064	-3,055635	0,942772	2020-10-29T19:26:35:106
7,738388	-2,873780	0,500100	2020-10-29T19:26:35:128
8,633304	-2,500499	0,007178	2020-10-29T19:26:35:146
9,997212	-2,514857	-0,440279	2020-10-29T19:26:35:168
10,798808	-2,778067	-0,602991	2020-10-29T19:26:35:186
11,052447	-2,780460	-0,782453	2020-10-29T19:26:35:210
11,196017	-2,569891	-0,794417	2020-10-29T19:26:35:225
11,152946	-2,596212	-0,760918	2020-10-29T19:26:35:248
10,710274	-2,344966	-0,619741	2020-10-29T19:26:35:266
10,138390	-2,065006	-0,368495	2020-10-29T19:26:35:288
9,506684	-1,753939	-0,179462	2020-10-29T19:26:35:306
9,099905	-2,167897	0,045464	2020-10-29T19:26:35:328
8,989835	-2,653640	0,155533	2020-10-29T19:26:35:346
8,932407	-2,498107	0,361316	2020-10-29T19:26:35:368
8,922836	-2,763710	1,024128	2020-10-29T19:26:35:386
9,250652	-4,625326	1,765903	2020-10-29T19:26:35:410
9,559326	-4,912465	1,744368	2020-10-29T19:26:35:426
9,485149	-3,232704	2,093720	2020-10-29T19:26:35:450
9,652647	-2,742175	2,433501	2020-10-29T19:26:35:465
9,722038	-2,091327	2,682354	2020-10-29T19:26:35:489
9,908678	-0,978664	2,639283	2020-10-29T19:26:35:506
10,071390	-0,117248	2,658426	2020-10-29T19:26:35:528
9,963714	0,155533	2,541178	2020-10-29T19:26:35:546
9,930215	-0,055035	2,615355	2020-10-29T19:26:35:568
9,801002	-0,069392	2,732604	2020-10-29T19:26:35:586
10,341780	-0,323031	2,440679	2020-10-29T19:26:35:609
11,662617	-0,435494	2,337788	2020-10-29T19:26:35:626
11,014162	-0,672383	2,907279	2020-10-29T19:26:35:648
10,013963	-0,588634	3,378666	2020-10-29T19:26:35:666
9,341579	-0,717847	3,589234	2020-10-29T19:26:35:690
9,207582	-0,830309	3,510271	2020-10-29T19:26:35:706
8,688338	-0,516850	2,998207	2020-10-29T19:26:35:729
7,975278	-0,581456	2,646462	2020-10-29T19:26:35:746
7,372287	-0,636491	2,376073	2020-10-29T19:26:35:769
7,616355	-1,098306	2,112862	2020-10-29T19:26:35:786
8,611769	-0,777667	1,564906	2020-10-29T19:26:35:809
9,339187	-0,528814	1,543371	2020-10-29T19:26:35:826
9,760324	-0,483350	1,607977	2020-10-29T19:26:35:849
9,939785	-0,514457	1,753939	2020-10-29T19:26:35:866
9,939785	-0,265603	1,954936	2020-10-29T19:26:35:889
10,128819	-0,081356	2,017149	2020-10-29T19:26:35:907
10,023535	-0,014357	2,060220	2020-10-29T19:26:35:932
9,456435	0,165105	2,084148	2020-10-29T19:26:35:945
9,320045	0,318245	2,179861	2020-10-29T19:26:35:969
9,320045	0,205783	2,309074	2020-10-29T19:26:35:987
9,075976	0,370888	2,287539	2020-10-29T19:26:36:010
8,894121	0,485743	2,328217	2020-10-29T19:26:36:026
8,652447	0,559920	2,335395	2020-10-29T19:26:36:051
8,523234	0,631705	2,299503	2020-10-29T19:26:36:066
8,470592	0,497707	2,258825	2020-10-29T19:26:36:102
8,425128	0,308674	2,254039	2020-10-29T19:26:36:106
8,348558	0,028714	2,407180	2020-10-29T19:26:36:134
8,403593	-0,210568	2,438286	2020-10-29T19:26:36:185
8,752945	-0,244068	2,478964	2020-10-29T19:26:36:187
9,202796	-0,198604	2,330609	2020-10-29T19:26:36:187
9,877571	-0,102891	2,222932	2020-10-29T19:26:36:215
10,401600	0,385244	2,641676	2020-10-29T19:26:36:255
10,722239	0,531207	2,679961	2020-10-29T19:26:36:280
10,949556	0,631705	2,718246	2020-10-29T19:26:36:290
11,452050	-0,212961	2,146362	2020-10-29T19:26:36:291
12,119646	-0,689133	1,402194	2020-10-29T19:26:36:347
13,158132	-0,981057	1,189233	2020-10-29T19:26:36:347
12,940384	-1,914258	1,050449	2020-10-29T19:26:36:348
11,863614	-2,342573	1,201197	2020-10-29T19:26:36:373
10,602598	-2,088934	1,430908	2020-10-29T19:26:36:386
9,640682	-1,428515	1,433301	2020-10-29T19:26:36:409
9,080762	-1,153341	1,380659	2020-10-29T19:26:36:425
8,757731	-1,131805	1,024128	2020-10-29T19:26:36:450
8,516055	-1,435694	0,720240	2020-10-29T19:26:36:467
9,087940	-1,440479	0,547956	2020-10-29T19:26:36:489
9,894321	-1,318445	0,454636	2020-10-29T19:26:36:507
10,796415	-0,794417	0,248854	2020-10-29T19:26:36:530
11,779866	-0,485743	-0,071785	2020-10-29T19:26:36:547
12,112469	-0,495314	-0,320638	2020-10-29T19:26:36:570
11,643474	-0,401994	-0,454636	2020-10-29T19:26:36:588
10,978271	0,141177	-0,342174	2020-10-29T19:26:36:610
10,413565	0,770489	-0,153141	2020-10-29T19:26:36:627
9,808180	1,402194	0,021535	2020-10-29T19:26:36:657
9,566505	1,627119	0,227318	2020-10-29T19:26:36:668
9,657433	1,512264	0,078963	2020-10-29T19:26:36:691
9,676575	0,916451	-0,334995	2020-10-29T19:26:36:707
9,903893	0,263210	-0,461815	2020-10-29T19:26:36:730
9,951750	-0,210568	-0,449851	2020-10-29T19:26:36:748
9,963714	-0,684347	-0,693919	2020-10-29T19:26:36:770
9,856036	-0,715454	-0,892523	2020-10-29T19:26:36:787
9,877571	-1,031307	-1,033699	2020-10-29T19:26:36:810
10,023535	-1,385444	-0,799203	2020-10-29T19:26:36:831
10,269995	-1,995614	-0,863809	2020-10-29T19:26:36:851
10,140782	-2,045863	-0,870987	2020-10-29T19:26:36:868
10,064213	-1,964507	-0,897308	2020-10-29T19:26:36:891
9,954143	-2,021935	-0,787239	2020-10-29T19:26:36:908
9,638289	-2,129612	-0,873380	2020-10-29T19:26:36:930
9,492328	-1,962115	-0,897308	2020-10-29T19:26:36:948
10,028319	-2,031506	-1,112662	2020-10-29T19:26:36:981
13,450057	-2,206182	-0,186640	2020-10-29T19:26:53:145
13,828122	-2,354537	-0,095713	2020-10-29T19:26:53:147
12,918849	-2,713461	0,519243	2020-10-29T19:26:53:148
12,356536	-2,667997	0,849452	2020-10-29T19:26:53:148
11,306087	-2,667997	0,993021	2020-10-29T19:26:53:149
10,143176	-2,450250	1,048056	2020-10-29T19:26:53:150
9,171689	-2,383251	1,000200	2020-10-29T19:26:53:170
8,372486	-2,155933	1,031307	2020-10-29T19:26:53:185
7,544570	-1,804188	0,959522	2020-10-29T19:26:53:210
7,405786	-1,636691	0,717847	2020-10-29T19:26:53:226
8,260024	-1,471586	0,043071	2020-10-29T19:26:53:251
9,150154	-1,507478	-0,445065	2020-10-29T19:26:53:268
9,688539	-1,718047	-0,571885	2020-10-29T19:26:53:292
9,793823	-1,909473	-0,684347	2020-10-29T19:26:53:307
9,705289	-2,021935	-0,751346	2020-10-29T19:26:53:330
9,834501	-2,062613	-0,330210	2020-10-29T19:26:53:346
9,863215	-1,892723	0,028714	2020-10-29T19:26:53:370
9,480364	-1,696511	0,394816	2020-10-29T19:26:53:386
8,815158	-1,679761	0,471386	2020-10-29T19:26:53:411
8,535198	-1,734797	0,507278	2020-10-29T19:26:53:427
8,346166	-1,974079	0,691526	2020-10-29T19:26:53:450
8,461020	-2,155933	1,866402	2020-10-29T19:26:53:467
10,595419	0,406780	4,759324	2020-10-29T19:26:53:490
11,016556	0,244068	6,891330	2020-10-29T19:26:53:508
10,059426	-1,586441	5,517848	2020-10-29T19:26:53:532
9,114261	-3,153740	3,117848	2020-10-29T19:26:53:547
8,657232	-4,850252	1,696511	2020-10-29T19:26:53:571
8,999406	-3,907479	1,584049	2020-10-29T19:26:53:587
8,812766	-2,615355	0,765703	2020-10-29T19:26:53:610
8,281559	-3,096312	0,748954	2020-10-29T19:26:53:627
8,394022	-2,842674	0,533599	2020-10-29T19:26:53:650
8,946764	-1,732404	0,019143	2020-10-29T19:26:53:667
8,994620	-1,318445	0,272782	2020-10-29T19:26:53:689
9,616754	-1,296910	0,708275	2020-10-29T19:26:53:707
10,358529	-1,325624	0,921237	2020-10-29T19:26:53:730
10,724631	-1,505085	0,679562	2020-10-29T19:26:53:747
10,657632	-1,478764	0,461815	2020-10-29T19:26:53:773
11,868401	-1,241875	0,562313	2020-10-29T19:26:53:786
12,344571	-0,861416	0,531207	2020-10-29T19:26:53:812
11,289338	-1,225125	0,770489	2020-10-29T19:26:53:827
11,028521	-1,332802	0,500100	2020-10-29T19:26:53:849
11,172089	-1,316052	0,354138	2020-10-29T19:26:53:867
10,901700	-1,454836	0,777667	2020-10-29T19:26:53:891
10,609775	-1,471586	1,730011	2020-10-29T19:26:53:907
9,901501	-1,591227	2,746960	2020-10-29T19:26:53:931
9,492328	-1,674976	2,629712	2020-10-29T19:26:53:947
9,272188	-1,782653	1,732404	2020-10-29T19:26:53:971
9,052048	-1,825724	0,815953	2020-10-29T19:26:53:987
9,193225	-1,897508	0,167498	2020-10-29T19:26:54:011
9,521042	-1,866402	-0,110070	2020-10-29T19:26:54:027
10,097712	-1,643869	-0,215354	2020-10-29T19:26:54:051
10,576276	-1,588834	0,088534	2020-10-29T19:26:54:067
11,117055	-1,710868	0,320638	2020-10-29T19:26:54:090
11,279767	-2,029114	0,368495	2020-10-29T19:26:54:107
10,973484	-1,887937	0,165105	2020-10-29T19:26:54:132
10,377672	-1,655833	0,191426	2020-10-29T19:26:54:147
9,903893	-1,378266	0,411566	2020-10-29T19:26:54:171
9,882358	-1,028914	0,399601	2020-10-29T19:26:54:187
9,743573	-0,739382	0,421137	2020-10-29T19:26:54:211
9,607183	-0,667598	0,406780	2020-10-29T19:26:54:227
9,516255	-0,969093	0,488136	2020-10-29T19:26:54:253
9,659825	-1,110270	0,260818	2020-10-29T19:26:54:267
9,568897	-1,165305	0,167498	2020-10-29T19:26:54:292
9,442079	-1,418944	0,100499	2020-10-29T19:26:54:308
9,585647	-1,426122	-0,074178	2020-10-29T19:26:54:330
9,537791	-1,478764	0,023928	2020-10-29T19:26:54:347
9,705289	-1,545763	-0,059821	2020-10-29T19:26:54:371
9,741181	-1,706082	-0,160319	2020-10-29T19:26:54:387
9,949356	-1,808974	-0,279960	2020-10-29T19:26:54:412
9,856036	-1,739582	-0,217747	2020-10-29T19:26:54:427
9,726824	-1,907080	-0,260818	2020-10-29T19:26:54:451
9,702895	-1,907080	-0,471386	2020-10-29T19:26:54:468
9,884750	-1,820938	-0,748954	2020-10-29T19:26:54:492
10,372886	-1,950150	-1,079163	2020-10-29T19:26:54:507
11,066804	-2,163112	-1,636691	2020-10-29T19:26:54:531
11,478370	-2,445465	-1,887937	2020-10-29T19:26:54:548
11,440084	-2,703890	-2,196611	2020-10-29T19:26:54:571
11,112268	-2,995814	-2,117648	2020-10-29T19:26:54:588
10,683953	-3,203990	-1,942972	2020-10-29T19:26:54:612
10,370493	-3,208775	-1,667797	2020-10-29T19:26:54:628
10,167104	-3,048456	-1,639083	2020-10-29T19:26:54:651
9,891929	-2,770889	-1,536192	2020-10-29T19:26:54:668
9,726824	-2,763710	-1,299303	2020-10-29T19:26:54:691
9,681360	-2,794817	-1,313660	2020-10-29T19:26:54:709
9,753145	-2,993421	-1,256232	2020-10-29T19:26:54:732
9,518648	-3,223132	-0,780060	2020-10-29T19:26:54:748
9,489935	-3,302095	-0,449851	2020-10-29T19:26:54:772
9,621540	-3,237489	-0,267996	2020-10-29T19:26:54:789
9,652647	-3,318845	0,150748	2020-10-29T19:26:54:811
9,688539	-3,177669	0,607777	2020-10-29T19:26:54:828
9,844072	-3,022135	0,799203	2020-10-29T19:26:54:852
9,772287	-2,476572	0,870987	2020-10-29T19:26:54:868
9,549755	-2,065006	0,894916	2020-10-29T19:26:54:891
9,609575	-1,629512	0,911665	2020-10-29T19:26:54:908
9,884750	-1,351945	1,112662	2020-10-29T19:26:54:931
10,222138	-1,241875	1,351945	2020-10-29T19:26:54:948
10,533205	-1,536192	1,617548	2020-10-29T19:26:54:973
10,530812	-1,931008	1,974079	2020-10-29T19:26:54:988
10,624132	-2,194218	2,155933	2020-10-29T19:26:55:016
10,612168	-1,974079	2,165504	2020-10-29T19:26:55:029
10,322637	-1,768296	2,392823	2020-10-29T19:26:55:051
9,667004	-2,287539	2,687140	2020-10-29T19:26:55:068
9,238688	-2,395216	2,210968	2020-10-29T19:26:55:092
8,807980	-2,364109	1,835295	2020-10-29T19:26:55:109
8,250452	-2,624927	1,629512	2020-10-29T19:26:55:131
8,267202	-3,007778	1,411765	2020-10-29T19:26:55:148
8,355737	-3,361916	1,136591	2020-10-29T19:26:55:172
8,425128	-3,732803	1,009771	2020-10-29T19:26:55:188
8,618947	-3,862016	1,110270	2020-10-29T19:26:55:214
8,700303	-3,876373	1,330409	2020-10-29T19:26:55:228
8,877372	-3,974478	1,404587	2020-10-29T19:26:55:253
9,025726	-3,859623	1,564906	2020-10-29T19:26:55:269
9,104690	-3,862016	2,069792	2020-10-29T19:26:55:292
9,408579	-3,799802	2,246860	2020-10-29T19:26:55:309
9,899107	-3,852444	2,277967	2020-10-29T19:26:55:335
10,102496	-3,646662	2,218147	2020-10-29T19:26:55:348
9,851252	-3,471986	2,206182	2020-10-29T19:26:55:371
9,631111	-3,026921	2,069792	2020-10-29T19:26:55:389
9,332008	-2,608176	2,098505	2020-10-29T19:26:55:413
9,360723	-2,172683	2,139183	2020-10-29T19:26:55:429
9,482756	-1,971686	2,201397	2020-10-29T19:26:55:452
9,652647	-2,000400	2,304288	2020-10-29T19:26:55:470
9,879964	-2,311467	2,361716	2020-10-29T19:26:55:493
9,894321	-2,285146	2,263610	2020-10-29T19:26:55:509
10,107283	-2,469393	2,036292	2020-10-29T19:26:55:532
10,858629	-2,720639	1,631905	2020-10-29T19:26:55:549
11,253445	-2,734996	1,189233	2020-10-29T19:26:55:573
11,196017	-2,679961	0,935594	2020-10-29T19:26:55:589
10,822738	-2,325824	0,641276	2020-10-29T19:26:55:612
10,375278	-1,940579	0,473779	2020-10-29T19:26:55:629
10,061819	-1,840081	0,349352	2020-10-29T19:26:55:652
9,987641	-1,835295	0,428315	2020-10-29T19:26:55:669
9,997212	-1,974079	0,526421	2020-10-29T19:26:55:693
9,970891	-2,234896	0,196211	2020-10-29T19:26:55:709
9,925428	-2,385644	-0,169890	2020-10-29T19:26:55:733
9,724431	-2,687140	-0,200997	2020-10-29T19:26:55:749
9,391829	-2,811567	-0,208176	2020-10-29T19:26:55:774
8,750552	-2,916851	-0,126820	2020-10-29T19:26:55:789
8,566305	-2,746960	-0,361316	2020-10-29T19:26:55:813
8,544770	-2,718246	-0,559920	2020-10-29T19:26:55:829
8,549555	-2,811567	-0,378066	2020-10-29T19:26:55:852
8,520842	-2,988636	-0,545564	2020-10-29T19:26:55:869
8,609376	-3,227918	-0,710668	2020-10-29T19:26:55:893
8,769694	-3,639483	-0,423530	2020-10-29T19:26:55:909
8,925228	-4,134798	-0,167498	2020-10-29T19:26:55:934
9,104690	-4,381258	-0,059821	2020-10-29T19:26:55:949
9,370294	-4,610970	-0,222532	2020-10-29T19:26:55:974
9,518648	-4,718646	-0,291924	2020-10-29T19:26:55:989
9,387043	-4,926822	-0,066999	2020-10-29T19:26:56:012
9,224331	-5,058427	0,210568	2020-10-29T19:26:56:029
9,355937	-5,034499	0,385244	2020-10-29T19:26:56:053
9,274581	-4,910072	0,514457	2020-10-29T19:26:56:069
9,377472	-4,733003	0,605384	2020-10-29T19:26:56:093
9,473185	-4,603791	0,765703	2020-10-29T19:26:56:109
9,511470	-4,390830	0,985843	2020-10-29T19:26:56:134
9,308081	-4,235296	1,103091	2020-10-29T19:26:56:149
9,140583	-4,067799	1,241875	2020-10-29T19:26:56:174
8,977871	-3,737589	1,201197	2020-10-29T19:26:56:189
9,600004	-3,323631	0,669990	2020-10-29T19:26:56:214
11,365908	-3,354738	0,143569	2020-10-29T19:26:56:230
11,473583	-3,708875	0,282353	2020-10-29T19:26:56:252
10,224532	-3,682554	0,526421	2020-10-29T19:26:56:270
9,722038	-3,646662	0,418744	2020-10-29T19:26:56:294
9,705289	-3,498307	0,239282	2020-10-29T19:26:56:310
9,738789	-3,610770	-0,045464	2020-10-29T19:26:56:332
9,607183	-3,957729	-0,105284	2020-10-29T19:26:56:350
8,858230	-4,213760	0,019143	2020-10-29T19:26:56:373
7,939385	-3,797409	0,167498	2020-10-29T19:26:56:390
7,879565	-3,512664	0,069392	2020-10-29T19:26:56:414
8,879765	-3,184847	-0,124427	2020-10-29T19:26:56:429
9,743573	-2,770889	-0,031107	2020-10-29T19:26:56:453
9,817751	-2,505285	0,007178	2020-10-29T19:26:56:470
9,856036	-1,998007	-0,062213	2020-10-29T19:26:56:492
10,205389	-1,485943	0,040678	2020-10-29T19:26:56:510
10,234102	-1,081556	0,196211	2020-10-29T19:26:56:534
9,903893	-0,856631	0,375673	2020-10-29T19:26:56:550
9,279366	-0,918844	0,595813	2020-10-29T19:26:56:574
8,781659	-1,016950	0,894916	2020-10-29T19:26:56:590
8,405986	-1,378266	1,244268	2020-10-29T19:26:56:614
8,327023	-1,631905	1,533799	2020-10-29T19:26:56:630
8,307880	-1,756332	1,658226	2020-10-29T19:26:56:654
8,470592	-1,777867	1,557728	2020-10-29T19:26:56:670
8,743374	-1,990828	1,332802	2020-10-29T19:26:56:693
9,114261	-1,986043	1,071985	2020-10-29T19:26:56:710
9,315259	-2,124826	0,782453	2020-10-29T19:26:56:733
9,379865	-2,196611	0,650848	2020-10-29T19:26:56:750
9,221939	-2,352145	0,832702	2020-10-29T19:26:56:774
9,542577	-2,644069	1,043271	2020-10-29T19:26:56:790
9,688539	-3,165704	1,155733	2020-10-29T19:26:56:814
9,958927	-3,797409	1,172483	2020-10-29T19:26:56:830
10,193424	-4,603791	1,174876	2020-10-29T19:26:56:853
10,683953	-5,259424	1,083949	2020-10-29T19:26:56:871
10,959127	-5,525027	1,296910	2020-10-29T19:26:56:894
10,930414	-5,551349	0,930808	2020-10-29T19:26:56:910
12,949955	-5,115855	0,574277	2020-10-29T19:26:56:935
13,730016	-5,247460	0,875773	2020-10-29T19:26:56:950
10,827522	-4,809574	1,423729	2020-10-29T19:26:56:975
9,420543	-3,560520	1,134198	2020-10-29T19:26:56:990
10,195816	-2,792424	0,861416	2020-10-29T19:26:57:014
10,987842	-2,758924	0,882952	2020-10-29T19:26:57:030
10,506885	-3,225525	1,127020	2020-10-29T19:26:57:053
9,865608	-3,239882	1,134198	2020-10-29T19:26:57:070
8,834301	-3,337988	0,993021	2020-10-29T19:26:57:095
7,915457	-3,139383	0,849452	2020-10-29T19:26:57:110
7,671390	-2,928815	0,378066	2020-10-29T19:26:57:134
8,717053	-2,861816	-0,095713	2020-10-29T19:26:57:150
10,547562	-3,014957	-0,535992	2020-10-29T19:26:57:174
12,162716	-3,388237	-0,976272	2020-10-29T19:26:57:190
12,949955	-3,565305	-1,421337	2020-10-29T19:26:57:214
12,658032	-3,110669	-1,875973	2020-10-29T19:26:57:230
12,311072	-2,158326	-2,208575	2020-10-29T19:26:57:254
12,000006	-1,550549	-2,242075	2020-10-29T19:26:57:270
11,444871	-0,961915	-2,158326	2020-10-29T19:26:57:293
10,973484	-0,583849	-2,057827	2020-10-29T19:26:57:310
10,772489	-0,796810	-2,048256	2020-10-29T19:26:57:336
10,430314	-0,971486	-1,954936	2020-10-29T19:26:57:350
10,025927	-1,179662	-1,820938	2020-10-29T19:26:57:374
9,714860	-1,349552	-1,753939	2020-10-29T19:26:57:390
9,576077	-1,634298	-1,744368	2020-10-29T19:26:57:414
9,451650	-1,732404	-1,792224	2020-10-29T19:26:57:430
9,446864	-1,873580	-1,739582	2020-10-29T19:26:57:454
9,485149	-1,854438	-1,603191	2020-10-29T19:26:57:471
9,477970	-1,842474	-1,249053	2020-10-29T19:26:57:494
9,408579	-1,586441	-0,725025	2020-10-29T19:26:57:510
9,351151	-1,670190	-0,442672	2020-10-29T19:26:57:533
9,315259	-1,663012	-0,141177	2020-10-29T19:26:57:550
9,102298	-1,689333	0,045464	2020-10-29T19:26:57:575
9,064013	-1,797010	0,492921	2020-10-29T19:26:57:591
9,260223	-1,682154	1,024128	2020-10-29T19:26:57:615
9,439686	-1,698904	1,325624	2020-10-29T19:26:57:630
9,516255	-1,490728	1,385444	2020-10-29T19:26:57:655
10,559525	-1,016950	0,897308	2020-10-29T19:26:57:671
11,830115	-0,780060	0,794417	2020-10-29T19:26:57:693
10,990234	-1,153341	1,529014	2020-10-29T19:26:57:711
10,140782	-1,313660	2,053042	2020-10-29T19:26:57:735
10,116854	-1,607977	2,177469	2020-10-29T19:26:57:750
9,767502	-2,045863	2,352145	2020-10-29T19:26:57:774
9,537791	-2,787638	2,823531	2020-10-29T19:26:57:791
9,750752	-3,888337	3,168097	2020-10-29T19:26:57:815
10,025927	-4,680361	3,110669	2020-10-29T19:26:57:830
9,396614	-3,962514	2,555535	2020-10-29T19:26:57:855
8,659625	-2,067399	1,811367	2020-10-29T19:26:57:870
8,760124	-0,945165	1,318445	2020-10-29T19:26:57:895
9,774680	-1,210768	0,983450	2020-10-29T19:26:57:911
10,265208	-1,926222	0,923629	2020-10-29T19:26:57:933
10,336994	-2,431108	1,194018	2020-10-29T19:26:57:951
10,159925	-2,756532	1,244268	2020-10-29T19:26:57:975
10,076177	-2,787638	1,198804	2020-10-29T19:26:57:990
9,662218	-2,517249	0,813560	2020-10-29T19:26:58:017
9,329616	-2,349752	0,583849	2020-10-29T19:26:58:031
9,284152	-2,134398	0,378066	2020-10-29T19:26:58:056
9,293723	-2,053042	0,050249	2020-10-29T19:26:58:071
9,286544	-1,998007	-0,076570	2020-10-29T19:26:58:095
9,351151	-2,122434	-0,253639	2020-10-29T19:26:58:111
9,468399	-2,388037	-0,217747	2020-10-29T19:26:58:136
9,671788	-2,584249	-0,064606	2020-10-29T19:26:58:151
9,927821	-2,663212	-0,114855	2020-10-29T19:26:58:174
9,999605	-2,861816	-0,059821	2020-10-29T19:26:58:191
9,868000	-2,598605	-0,105284	2020-10-29T19:26:58:215
9,851252	-2,373680	-0,066999	2020-10-29T19:26:58:231
9,937392	-2,450250	-0,057428	2020-10-29T19:26:58:254
10,191031	-2,667997	-0,055035	2020-10-29T19:26:58:271
10,437491	-2,909672	-0,122034	2020-10-29T19:26:58:295
10,547562	-2,622534	-0,009571	2020-10-29T19:26:58:312
10,315458	-2,584249	0,043071	2020-10-29T19:26:58:335
10,241282	-2,627320	-0,260818	2020-10-29T19:26:58:351
10,260423	-2,845066	-0,368495	2020-10-29T19:26:58:375
10,006784	-2,988636	-0,433101	2020-10-29T19:26:58:392
9,762716	-3,115455	-0,658026	2020-10-29T19:26:58:415
9,552148	-3,165704	-0,617348	2020-10-29T19:26:58:432
9,200402	-2,952743	-0,768096	2020-10-29T19:26:58:455
9,075976	-2,706282	-1,091127	2020-10-29T19:26:58:472
10,150353	-2,529213	-1,316052	2020-10-29T19:26:58:495
11,076375	-2,565106	-1,282553	2020-10-29T19:26:58:512
10,990234	-2,981457	-1,165305	2020-10-29T19:26:58:535
11,006985	-3,428915	-0,863809	2020-10-29T19:26:58:552
10,983055	-3,546163	-0,713061	2020-10-29T19:26:58:576
10,320245	-3,290131	-0,495314	2020-10-29T19:26:58:592
8,891729	-2,873780	-0,332602	2020-10-29T19:26:58:616
7,759924	-2,550749	-0,327817	2020-10-29T19:26:58:632
8,008778	-2,194218	-0,174676	2020-10-29T19:26:58:654
9,614362	-2,160719	-0,004786	2020-10-29T19:26:58:672
10,695917	-2,739782	0,153141	2020-10-29T19:26:58:695
11,105090	-2,957529	0,112463	2020-10-29T19:26:58:712
11,356337	-3,046063	-0,232104	2020-10-29T19:26:58:735
11,392227	-2,892922	-0,480957	2020-10-29T19:26:58:752
10,987842	-2,486143	-0,303888	2020-10-29T19:26:58:775
10,566705	-2,115255	0,002393	2020-10-29T19:26:58:792
9,918249	-1,428515	0,272782	2020-10-29T19:26:58:817
9,341579	-0,693919	0,239282	2020-10-29T19:26:58:833
9,159724	-0,435494	0,169890	2020-10-29T19:26:58:855
9,159724	-0,698704	0,095713	2020-10-29T19:26:58:872
9,166903	-1,127020	0,083749	2020-10-29T19:26:58:894
9,186047	-1,368695	0,009571	2020-10-29T19:26:58:912
9,018548	-1,804188	0,220140	2020-10-29T19:26:58:935
8,975478	-2,333002	0,270389	2020-10-29T19:26:58:952
8,918050	-2,366502	0,320638	2020-10-29T19:26:58:975
8,973085	-2,435893	0,435494	2020-10-29T19:26:58:993
9,269794	-2,124826	0,354138	2020-10-29T19:26:59:016
9,564112	-1,804188	0,299103	2020-10-29T19:26:59:032
9,942179	-1,976472	0,332602	2020-10-29T19:26:59:056
10,346564	-2,007578	0,289532	2020-10-29T19:26:59:072
10,686346	-1,890330	-0,083749	2020-10-29T19:26:59:097
11,581261	-1,734797	-0,873380	2020-10-29T19:26:59:112
13,586447	-1,756332	-1,318445	2020-10-29T19:26:59:136
13,808979	-2,014757	-1,225125	2020-10-29T19:26:59:152
12,069397	-2,388037	-0,428315	2020-10-29T19:26:59:176
10,990234	-2,493321	-0,028714	2020-10-29T19:26:59:192
10,741381	-2,768496	0,100499	2020-10-29T19:26:59:215
10,602598	-2,964707	0,167498	2020-10-29T19:26:59:232
10,248460	-3,058028	0,076570	2020-10-29T19:26:59:256
9,387043	-3,206382	0,078963	2020-10-29T19:26:59:273
8,597411	-3,165704	0,186640	2020-10-29T19:26:59:296
8,662018	-2,275574	-0,074178	2020-10-29T19:26:59:312
9,351151	-1,615155	-0,224925	2020-10-29T19:26:59:336
9,415757	-1,105484	-0,457029	2020-10-29T19:26:59:352
9,676575	-0,921237	-0,602991	2020-10-29T19:26:59:377
9,930215	-1,095913	-0,569492	2020-10-29T19:26:59:392
9,822537	-1,356731	-0,442672	2020-10-29T19:26:59:418
9,399008	-1,574477	-0,117248	2020-10-29T19:26:59:432
9,006584	-1,799403	0,066999	2020-10-29T19:26:59:457
8,700303	-1,799403	0,296710	2020-10-29T19:26:59:473
8,331808	-1,816152	0,464208	2020-10-29T19:26:59:497
8,181061	-1,887937	0,741775	2020-10-29T19:26:59:513
8,073383	-1,954936	0,964308	2020-10-29T19:26:59:539
8,154739	-2,017149	1,143769	2020-10-29T19:26:59:552
8,559127	-2,151148	1,213161	2020-10-29T19:26:59:579
8,937192	-2,129612	1,308874	2020-10-29T19:26:59:593
9,190832	-2,120041	1,318445	2020-10-29T19:26:59:616
9,066404	-2,172683	1,416551	2020-10-29T19:26:59:633
8,961121	-2,141576	1,488336	2020-10-29T19:26:59:657
8,908479	-2,160719	1,517050	2020-10-29T19:26:59:673
9,119047	-2,321038	1,538585	2020-10-29T19:26:59:697
9,375079	-2,385644	1,457229	2020-10-29T19:26:59:713
9,765109	-2,660819	1,505085	2020-10-29T19:26:59:737
10,138390	-2,900101	1,533799	2020-10-29T19:26:59:753
10,631311	-3,022135	1,473979	2020-10-29T19:26:59:778
10,782058	-3,270989	1,493121	2020-10-29T19:26:59:792
10,516455	-3,084348	1,430908	2020-10-29T19:26:59:817
10,253245	-2,622534	1,263410	2020-10-29T19:26:59:833
11,210374	-2,088934	0,926022	2020-10-29T19:26:59:856
12,751352	-2,208575	0,957129	2020-10-29T19:26:59:873
12,729815	-2,943172	1,390230	2020-10-29T19:26:59:897
11,638690	-3,127419	1,473979	2020-10-29T19:26:59:913
11,217552	-3,103491	1,287339	2020-10-29T19:26:59:936
10,691131	-2,835495	1,258625	2020-10-29T19:26:59:953
9,908678	-2,663212	1,347159	2020-10-29T19:26:59:977
9,142976	-2,481357	1,667797	2020-10-29T19:26:59:993
8,513663	-2,557927	1,969293	2020-10-29T19:27:00:017
8,394022	-2,658426	2,007578	2020-10-29T19:27:00:033
9,619147	-2,667997	1,710868	2020-10-29T19:27:00:057
10,937593	-2,512464	1,028914	2020-10-29T19:27:00:073
12,000006	-2,553142	0,660419	2020-10-29T19:27:00:096
12,811172	-2,318645	0,043071	2020-10-29T19:27:00:113
13,225130	-1,691726	-0,222532	2020-10-29T19:27:00:137
13,000205	-1,540978	-0,203390	2020-10-29T19:27:00:153
12,461821	-0,964308	-0,007178	2020-10-29T19:27:00:176
11,708081	-0,543171	0,035892	2020-10-29T19:27:00:193
11,112268	-0,390030	0,088534	2020-10-29T19:27:00:217
10,638489	-0,454636	-0,093320	2020-10-29T19:27:00:234
10,131211	-0,356531	-0,157926	2020-10-29T19:27:00:258
9,939785	-0,591027	-0,110070	2020-10-29T19:27:00:273
9,741181	-0,660419	0,038285	2020-10-29T19:27:00:298
9,573684	-0,772882	0,193819	2020-10-29T19:27:00:313
9,518648	-0,890130	0,363709	2020-10-29T19:27:00:337
9,489935	-1,021735	0,342174	2020-10-29T19:27:00:353
9,238688	-1,088734	0,373280	2020-10-29T19:27:00:377
9,506684	-1,069592	0,368495	2020-10-29T19:27:00:393
9,664611	-1,103091	0,224925	2020-10-29T19:27:00:417
9,688539	-0,961915	0,141177	2020-10-29T19:27:00:433
9,623933	-0,859023	0,133998	2020-10-29T19:27:00:457
9,406186	-0,674776	0,287139	2020-10-29T19:27:00:474
9,652647	-0,442672	0,136391	2020-10-29T19:27:00:497
10,554741	-0,239282	-0,428315	2020-10-29T19:27:00:513
11,255837	-0,334995	-0,878166	2020-10-29T19:27:00:537
10,911271	-0,844666	-0,811167	2020-10-29T19:27:00:553
10,482956	-1,368695	-0,567099	2020-10-29T19:27:00:577
10,514063	-1,641476	-0,428315	2020-10-29T19:27:00:594
10,447062	-1,885544	-0,239282	2020-10-29T19:27:00:618
10,358529	-2,242075	0,055035	2020-10-29T19:27:00:633
10,545169	-2,400001	0,263210	2020-10-29T19:27:00:656
10,978271	-2,648855	0,277567	2020-10-29T19:27:00:674
11,382657	-2,921637	0,088534	2020-10-29T19:27:00:697
11,724831	-3,127419	-0,334995	2020-10-29T19:27:00:714
12,021541	-3,187240	-0,602991	2020-10-29T19:27:00:737
12,248858	-3,316452	-0,641276	2020-10-29T19:27:00:753
12,215360	-2,421536	-0,689133	2020-10-29T19:27:00:778
11,767902	-1,112662	-0,631705	2020-10-29T19:27:00:794
11,035697	-0,186640	-0,303888	2020-10-29T19:27:00:818
10,585848	-0,212961	-0,253639	2020-10-29T19:27:00:834
9,966106	-0,933201	-0,378066	2020-10-29T19:27:00:859
9,121440	-1,239482	-0,404387	2020-10-29T19:27:00:874
8,681160	-1,641476	-0,681954	2020-10-29T19:27:00:897
8,937192	-1,883151	-1,316052	2020-10-29T19:27:00:914
9,492328	-2,086541	-1,677369	2020-10-29T19:27:00:937
9,667004	-2,304288	-1,469193	2020-10-29T19:27:00:954
9,236296	-2,670390	-1,100698	2020-10-29T19:27:00:978
8,977871	-2,959922	-0,605384	2020-10-29T19:27:00:994
8,908479	-3,079563	-0,466600	2020-10-29T19:27:01:018
8,602197	-2,950350	0,007178	2020-10-29T19:27:01:035
8,181061	-2,873780	0,789631	2020-10-29T19:27:01:057
8,054241	-2,723032	1,459622	2020-10-29T19:27:01:074
8,243275	-2,667997	1,730011	2020-10-29T19:27:01:099
8,628519	-2,955136	2,141576	2020-10-29T19:27:01:114
9,157332	-3,084348	2,390430	2020-10-29T19:27:01:137
9,590433	-2,868994	2,433501	2020-10-29T19:27:01:154
10,128819	-2,562713	2,502892	2020-10-29T19:27:01:178
10,363315	-2,110470	2,708675	2020-10-29T19:27:01:194
10,080962	-1,586441	3,069991	2020-10-29T19:27:01:219
9,887143	-1,232304	3,125026	2020-10-29T19:27:01:234
9,841680	-0,906880	2,880959	2020-10-29T19:27:01:258
10,896914	-0,918844	2,545963	2020-10-29T19:27:01:275
11,069198	-1,411765	1,993221	2020-10-29T19:27:01:297
10,226924	-1,686940	1,847259	2020-10-29T19:27:01:314
9,128618	-1,921437	1,703690	2020-10-29T19:27:01:338
8,666803	-1,947758	1,524228	2020-10-29T19:27:01:354
8,597411	-1,871187	1,292124	2020-10-29T19:27:01:378
8,867801	-1,998007	1,045663	2020-10-29T19:27:01:394
9,678967	-2,409572	0,847059	2020-10-29T19:27:01:419
11,018949	-2,981457	0,736989	2020-10-29T19:27:01:434
11,557333	-3,517449	0,643669	2020-10-29T19:27:01:460
11,368300	-3,699304	0,390030	2020-10-29T19:27:01:474
11,562119	-3,213561	-0,155533	2020-10-29T19:27:01:498
11,736795	-2,636890	-0,220140	2020-10-29T19:27:01:515
11,554940	-2,258825	0,102891	2020-10-29T19:27:01:538
10,808380	-2,012364	0,337388	2020-10-29T19:27:01:554
9,911072	-1,986043	0,538385	2020-10-29T19:27:01:579
9,377472	-1,962115	0,538385	2020-10-29T19:27:01:595
9,171689	-2,053042	0,669990	2020-10-29T19:27:01:618
9,008978	-2,148755	0,564706	2020-10-29T19:27:01:635
8,956335	-2,127219	0,337388	2020-10-29T19:27:01:658
8,918050	-2,246860	0,215354	2020-10-29T19:27:01:675
8,772088	-2,208575	0,119641	2020-10-29T19:27:01:699
8,879765	-2,065006	0,038285	2020-10-29T19:27:01:714
9,126225	-1,921437	0,050249	2020-10-29T19:27:01:738
9,477970	-1,909473	0,095713	2020-10-29T19:27:01:755
9,851252	-1,782653	0,088534	2020-10-29T19:27:01:778
10,262815	-1,823331	-0,014357	2020-10-29T19:27:01:794
10,722239	-1,763510	-0,162712	2020-10-29T19:27:01:819
10,791630	-1,835295	-0,301496	2020-10-29T19:27:01:835
10,887343	-1,808974	-0,418744	2020-10-29T19:27:01:858
10,698310	-1,866402	-0,356531	2020-10-29T19:27:01:875
10,258030	-1,921437	-0,043071	2020-10-29T19:27:01:900
10,035499	-1,907080	0,277567	2020-10-29T19:27:01:915
9,824929	-1,840081	0,555135	2020-10-29T19:27:01:941
9,657433	-1,844866	0,619741	2020-10-29T19:27:01:955
9,667004	-1,907080	0,801596	2020-10-29T19:27:01:979
9,652647	-1,873580	0,973879	2020-10-29T19:27:01:995
9,853643	-2,026721	1,004985	2020-10-29T19:27:02:018
10,090532	-2,124826	0,904487	2020-10-29T19:27:02:035
10,346564	-2,151148	0,885344	2020-10-29T19:27:02:059
11,332408	-2,208575	0,332602	2020-10-29T19:27:02:075
13,476377	-2,333002	-0,318245	2020-10-29T19:27:02:098
13,605590	-2,940779	-0,110070	2020-10-29T19:27:02:115
11,937792	-3,187240	0,418744	2020-10-29T19:27:02:139
11,337193	-3,337988	0,612563	2020-10-29T19:27:02:155
10,561919	-3,471986	1,057628	2020-10-29T19:27:02:179
9,748360	-3,802195	1,452443	2020-10-29T19:27:02:195
9,358330	-4,161119	1,598405	2020-10-29T19:27:02:219
9,150154	-4,491328	1,696511	2020-10-29T19:27:02:235
8,597411	-4,338188	1,593620	2020-10-29T19:27:02:258
7,724032	-3,474378	1,234696	2020-10-29T19:27:02:276
7,465607	-2,912065	0,806381	2020-10-29T19:27:02:299
8,480164	-2,194218	0,263210	2020-10-29T19:27:02:316
8,841480	-2,041078	0,215354	2020-10-29T19:27:02:338
9,669396	-1,866402	0,066999	2020-10-29T19:27:02:355
10,243673	-1,682154	-0,148355	2020-10-29T19:27:02:379
10,547562	-1,684547	-0,148355	2020-10-29T19:27:02:395
10,681561	-1,792224	-0,009571	2020-10-29T19:27:02:420
10,559525	-1,885544	-0,014357	2020-10-29T19:27:02:435
10,195816	-1,897508	0,043071	2020-10-29T19:27:02:459
9,676575	-2,014757	-0,002393	2020-10-29T19:27:02:476
9,544970	-1,993221	-0,145962	2020-10-29T19:27:02:498
9,700503	-1,737189	-0,394816	2020-10-29T19:27:02:516
9,576077	-1,830509	-0,454636	2020-10-29T19:27:02:539
9,420543	-1,732404	-0,327817	2020-10-29T19:27:02:555
9,300901	-1,830509	-0,349352	2020-10-29T19:27:02:579
9,102298	-1,840081	-0,165105	2020-10-29T19:27:02:596
8,910872	-1,933401	-0,014357	2020-10-29T19:27:02:620
8,700303	-2,026721	0,181855	2020-10-29T19:27:02:636
8,724231	-2,280360	0,287139	2020-10-29T19:27:02:660
8,906086	-2,732604	0,378066	2020-10-29T19:27:02:676
9,322437	-3,242275	0,466600	2020-10-29T19:27:02:699
9,544970	-3,366701	0,617348	2020-10-29T19:27:02:716
9,779467	-3,383451	0,528814	2020-10-29T19:27:02:738
10,380065	-3,285345	0,349352	2020-10-29T19:27:02:756
11,162518	-3,177669	0,122034	2020-10-29T19:27:02:780
11,100305	-3,117848	0,153141	2020-10-29T19:27:02:801
10,375278	-3,148954	0,287139	2020-10-29T19:27:02:819
9,401401	-2,995814	0,485743	2020-10-29T19:27:02:837
8,930015	-2,734996	0,478565	2020-10-29T19:27:02:859
9,810574	-2,634498	0,440279	2020-10-29T19:27:02:876
10,937593	-3,086741	0,301496	2020-10-29T19:27:02:900
10,722239	-3,658626	0,547956	2020-10-29T19:27:02:916
10,147961	-4,118048	0,356531	2020-10-29T19:27:02:940
10,033106	-4,225725	-0,064606	2020-10-29T19:27:02:956
10,049855	-4,290331	-0,689133	2020-10-29T19:27:02:980
9,590433	-4,015156	-1,174876	2020-10-29T19:27:02:995
8,690732	-4,146761	-1,320838	2020-10-29T19:27:03:022
7,853244	-4,948357	-0,650848	2020-10-29T19:27:03:036
7,965706	-7,369894	0,062213	2020-10-29T19:27:03:059
7,716853	-4,417150	0,069392	2020-10-29T19:27:03:076
8,106883	-2,670390	-0,296710	2020-10-29T19:27:03:100
9,209974	-3,823731	-1,337588	2020-10-29T19:27:03:116
9,705289	-4,216154	-2,136791	2020-10-29T19:27:03:141
9,695717	-4,230510	-2,423929	2020-10-29T19:27:03:156
10,066606	-4,460221	-2,651247	2020-10-29T19:27:03:181
10,222138	-4,362115	-2,720639	2020-10-29T19:27:03:196
9,808180	-3,452843	-2,548356	2020-10-29T19:27:03:219
9,351151	-2,976671	-2,029114	2020-10-29T19:27:03:236
9,272188	-2,708675	-1,607977	2020-10-29T19:27:03:260
9,406186	-2,825923	-1,270589	2020-10-29T19:27:03:276
9,504292	-2,718246	-1,158126	2020-10-29T19:27:03:299
9,602397	-2,758924	-0,899701	2020-10-29T19:27:03:316
9,566505	-2,907279	-0,574277	2020-10-29T19:27:03:340
9,652647	-3,007778	-0,129212	2020-10-29T19:27:03:356
9,678967	-2,737389	0,244068	2020-10-29T19:27:03:381
9,544970	-2,586641	0,507278	2020-10-29T19:27:03:396
9,396614	-2,333002	0,777667	2020-10-29T19:27:03:421
9,659825	-1,981257	0,433101	2020-10-29T19:27:03:436
9,975677	-1,701297	0,165105	2020-10-29T19:27:03:459
10,102496	-1,478764	0,287139	2020-10-29T19:27:03:477
10,119246	-1,258625	0,370888	2020-10-29T19:27:03:500
10,911271	-0,698704	-0,222532	2020-10-29T19:27:03:517
12,823137	-0,308674	-0,641276	2020-10-29T19:27:03:539
13,232309	-0,502493	-0,581456	2020-10-29T19:27:03:557
12,059827	-0,918844	-0,224925	2020-10-29T19:27:03:581
11,263017	-0,942772	0,021535	2020-10-29T19:27:03:597
10,813165	-1,083949	-0,040678	2020-10-29T19:27:03:621
10,686346	-1,378266	-0,232104	2020-10-29T19:27:03:636
10,296316	-1,878366	-0,090927	2020-10-29T19:27:03:660
9,635897	-2,390430	-0,019143	2020-10-29T19:27:03:677
8,793623	-2,959922	0,071785	2020-10-29T19:27:03:699
8,099705	-2,967100	0,014357	2020-10-29T19:27:03:717
8,475377	-2,648855	-0,270389	2020-10-29T19:27:03:741
9,810574	-1,976472	-1,107877	2020-10-29T19:27:03:757
10,490135	-1,677369	-1,557728	2020-10-29T19:27:03:780
10,435099	-1,648655	-1,395016	2020-10-29T19:27:03:797
10,126426	-1,727618	-0,736989	2020-10-29T19:27:03:821
9,846465	-1,588834	-0,416351	2020-10-29T19:27:03:837
9,623933	-1,311267	-0,390030	2020-10-29T19:27:03:862
8,992228	-1,244268	-0,480957	2020-10-29T19:27:03:877
8,420342	-1,332802	-0,483350	2020-10-29T19:27:03:902
8,025528	-1,823331	0,114855	2020-10-29T19:27:03:917
8,078169	-2,495714	0,959522	2020-10-29T19:27:03:940
8,209774	-3,230310	1,222732	2020-10-29T19:27:03:957
8,370094	-4,053442	1,009771	2020-10-29T19:27:03:981
8,094919	-4,304688	0,492921	2020-10-29T19:27:03:996
7,733603	-4,620540	0,174676	2020-10-29T19:27:04:020
7,518249	-4,953143	-0,038285	2020-10-29T19:27:04:037
7,436893	-5,359922	-0,203390	2020-10-29T19:27:04:061
7,491928	-5,800202	-0,174676	2020-10-29T19:27:04:077
7,537392	-5,982057	-0,071785	2020-10-29T19:27:04:101
8,032705	-6,082555	0,028714	2020-10-29T19:27:04:117
8,482556	-5,986843	-0,050249	2020-10-29T19:27:04:141
8,901299	-5,623133	-0,351745	2020-10-29T19:27:04:157
9,518648	-5,144568	-0,902094	2020-10-29T19:27:04:180
10,595419	-5,111069	-1,117448	2020-10-29T19:27:04:197
10,779665	-5,553742	-0,796810	2020-10-29T19:27:04:221
10,454242	-6,147161	-0,655633	2020-10-29T19:27:04:237
10,193424	-6,283553	-0,760918	2020-10-29T19:27:04:260
9,753145	-6,178268	-0,729811	2020-10-29T19:27:04:277
9,044869	-6,144768	-0,358923	2020-10-29T19:27:04:300
8,094919	-6,300302	0,184247	2020-10-29T19:27:04:317
8,054241	-6,017949	0,401994	2020-10-29T19:27:04:341
9,521042	-5,874380	-0,256032	2020-10-29T19:27:04:357
10,392029	-4,163511	-1,328017	2020-10-29T19:27:04:381
11,107484	-3,242275	-1,574477	2020-10-29T19:27:04:398
11,691331	-4,048656	-1,799403	2020-10-29T19:27:04:421
11,227123	-3,912265	-1,804188	2020-10-29T19:27:04:437
10,459028	-3,433701	-1,600798	2020-10-29T19:27:04:461
9,580862	-2,931208	-1,409373	2020-10-29T19:27:04:477
8,836694	-2,711068	-1,215554	2020-10-29T19:27:04:500
8,204988	-2,438286	-0,861416	2020-10-29T19:27:04:518
8,193025	-2,589034	-0,837488	2020-10-29T19:27:04:541
8,200203	-2,550749	-0,813560	2020-10-29T19:27:04:557
8,405986	-2,400001	-0,969093	2020-10-29T19:27:04:582
8,470592	-2,469393	-1,024128	2020-10-29T19:27:04:597
8,614161	-2,555535	-1,067199	2020-10-29T19:27:04:621
8,793623	-2,691926	-1,040878	2020-10-29T19:27:04:637
9,028119	-2,924029	-1,081556	2020-10-29T19:27:04:661
9,339187	-3,093920	-1,055235	2020-10-29T19:27:04:678
9,406186	-3,471986	-0,971486	2020-10-29T19:27:04:702
9,614362	-3,818945	-0,904487	2020-10-29T19:27:04:718
9,836893	-3,988836	-0,882952	2020-10-29T19:27:04:741
10,119246	-3,976871	-1,057628	2020-10-29T19:27:04:757
10,265208	-3,881158	-1,208375	2020-10-29T19:27:04:781
10,310673	-3,775874	-1,277767	2020-10-29T19:27:04:798
10,202995	-3,797409	-1,330409	2020-10-29T19:27:04:823
10,272388	-3,598805	-1,490728	2020-10-29T19:27:04:837
11,504691	-3,306881	-2,050649	2020-10-29T19:27:04:862
11,832507	-3,649055	-2,292324	2020-10-29T19:27:04:878
11,114661	-3,962514	-1,969293	2020-10-29T19:27:04:901
10,645668	-4,347759	-1,612763	2020-10-29T19:27:04:918
9,509077	-4,479364	-0,914058	2020-10-29T19:27:04:942
8,090133	-4,551149	-0,263210	2020-10-29T19:27:04:958
7,343572	-4,575077	0,157926	2020-10-29T19:27:04:981
6,960721	-4,311867	0,382852	2020-10-29T19:27:04:998
6,745367	-3,708875	0,306281	2020-10-29T19:27:05:027
7,386643	-2,859423	0,105284	2020-10-29T19:27:05:038
8,927622	-1,813759	-0,105284	2020-10-29T19:27:05:062
10,408779	-0,863809	-0,066999	2020-10-29T19:27:05:078
10,959127	-0,413958	-0,004786	2020-10-29T19:27:05:102
10,983055	-1,466800	-0,241675	2020-10-29T19:27:05:118
10,887343	-2,172683	-0,167498	2020-10-29T19:27:05:141
10,758131	-2,177469	-0,007178	2020-10-29T19:27:05:158
10,018748	-1,744368	0,339781	2020-10-29T19:27:05:183
9,006584	-1,718047	0,777667	2020-10-29T19:27:05:198
8,472985	-1,921437	0,923629	2020-10-29T19:27:05:222
8,417950	-1,536192	1,033699	2020-10-29T19:27:05:238
8,640482	-0,844666	1,225125	2020-10-29T19:27:05:262
8,769694	-1,028914	1,294517	2020-10-29T19:27:05:278
8,930015	-1,899901	1,186840	2020-10-29T19:27:05:302
8,992228	-2,734996	1,141376	2020-10-29T19:27:05:318
9,121440	-3,314059	1,045663	2020-10-29T19:27:05:342
8,965906	-3,505485	1,002593	2020-10-29T19:27:05:358
8,659625	-3,543770	0,818345	2020-10-29T19:27:05:381
8,654840	-3,440879	1,026521	2020-10-29T19:27:05:398
9,133404	-3,512664	1,203590	2020-10-29T19:27:05:423
9,659825	-3,560520	1,284946	2020-10-29T19:27:05:438
10,047462	-3,522235	1,050449	2020-10-29T19:27:05:461
10,083356	-3,232704	0,772882	2020-10-29T19:27:05:479
9,707682	-2,615355	0,418744	2020-10-29T19:27:05:502
9,619147	-1,909473	-0,014357	2020-10-29T19:27:05:518
11,167303	-1,332802	-0,169890	2020-10-29T19:27:05:543
13,189239	-1,320838	0,325424	2020-10-29T19:27:05:558
12,335001	-1,694118	0,667598	2020-10-29T19:27:05:584
11,035697	-1,931008	0,361316	2020-10-29T19:27:05:599
11,169697	-1,907080	0,385244	2020-10-29T19:27:05:622
10,018748	-1,818545	0,756132	2020-10-29T19:27:05:638
8,604590	-1,689333	0,928415	2020-10-29T19:27:05:663
7,712067	-1,686940	0,758525	2020-10-29T19:27:05:678
8,305488	-1,945365	0,468993	2020-10-29T19:27:05:702
10,399208	-1,969293	-0,205783	2020-10-29T19:27:05:719
12,153147	-2,366502	-0,988236	2020-10-29T19:27:05:744
13,150953	-2,885744	-1,674976	2020-10-29T19:27:05:759
13,189239	-2,897708	-2,088934	2020-10-29T19:27:05:782
12,380465	-2,189433	-2,445465	2020-10-29T19:27:05:798
11,227123	-1,725225	-2,275574	2020-10-29T19:27:05:823
10,195816	-1,189233	-1,651048	2020-10-29T19:27:05:839
9,351151	-0,985843	-1,119841	2020-10-29T19:27:05:862
8,583055	-0,923629	-0,763310	2020-10-29T19:27:05:879
8,209774	-1,062413	-0,772882	2020-10-29T19:27:05:903
8,135597	-1,627119	-0,830309	2020-10-29T19:27:05:919
8,250452	-1,852045	-0,926022	2020-10-29T19:27:05:942
8,425128	-2,124826	-0,971486	2020-10-29T19:27:05:959
8,405986	-2,330609	-1,071985	2020-10-29T19:27:05:983
8,695518	-2,419144	-1,251446	2020-10-29T19:27:05:999
9,229117	-2,316252	-1,397408	2020-10-29T19:27:06:023
9,710074	-2,299503	-1,426122	2020-10-29T19:27:06:038
10,200603	-2,038685	-1,462015	2020-10-29T19:27:06:063
11,444871	-1,823331	-1,696511	2020-10-29T19:27:06:079
12,811172	-1,763510	-2,000400	2020-10-29T19:27:06:102
11,698510	-2,110470	-1,703690	2020-10-29T19:27:06:119
10,080962	-2,612962	-0,598206	2020-10-29T19:27:06:142
9,394222	-3,060420	0,339781	2020-10-29T19:27:06:159
9,229117	-3,603590	1,182054	2020-10-29T19:27:06:183
8,403593	-3,230310	0,866202	2020-10-29T19:27:06:199
6,869793	-3,108276	0,653241	2020-10-29T19:27:06:223
7,467999	-3,541377	0,495314	2020-10-29T19:27:06:239
9,741181	-4,077370	0,488136	2020-10-29T19:27:06:263
11,105090	-5,252246	0,272782	2020-10-29T19:27:06:279
11,387443	-4,378866	-0,220140	2020-10-29T19:27:06:303
11,727223	-2,720639	-0,930808	2020-10-29T19:27:06:320
11,787045	-1,469193	-1,002593	2020-10-29T19:27:06:342
11,097912	-0,880559	-0,203390	2020-10-29T19:27:06:359
10,382458	-0,595813	0,899701	2020-10-29T19:27:06:383
9,949356	-1,237089	1,612763	2020-10-29T19:27:06:399
9,571291	-1,765903	1,816152	2020-10-29T19:27:06:423
9,597611	-2,019542	1,727618	2020-10-29T19:27:06:440
9,154939	-2,117648	1,141376	2020-10-29T19:27:06:464
8,480164	-2,136791	1,026521	2020-10-29T19:27:06:480
8,508877	-2,218147	1,177269	2020-10-29T19:27:06:505
8,750552	-2,359323	0,586242	2020-10-29T19:27:06:520
8,408379	-2,230111	-0,076570	2020-10-29T19:27:06:543
7,633104	-1,009771	0,765703	2020-10-29T19:27:06:560
7,369894	0,473779	2,194218	2020-10-29T19:27:06:582
7,642675	-0,320638	3,079563	2020-10-29T19:27:06:599
8,047063	-1,663012	3,153740	2020-10-29T19:27:06:624
7,913064	-3,665804	1,849652	2020-10-29T19:27:06:639
7,228717	-5,307281	0,672383	2020-10-29T19:27:06:663
7,953743	-5,003392	-0,167498	2020-10-29T19:27:06:680
8,975478	-4,060620	0,550349	2020-10-29T19:27:06:704
8,975478	-4,618148	1,457229	2020-10-29T19:27:06:720
9,712467	-5,711668	1,648655	2020-10-29T19:27:06:744
10,437491	-6,522834	1,964507	2020-10-29T19:27:06:759
10,423136	-6,005985	1,730011	2020-10-29T19:27:06:785
9,516255	-5,075177	1,789831	2020-10-29T19:27:06:800
8,934800	-4,254438	1,385444	2020-10-29T19:27:06:823
8,458629	-3,254239	1,028914	2020-10-29T19:27:06:840
8,094919	-2,739782	1,036092	2020-10-29T19:27:06:865
8,070991	-2,656033	1,596013	2020-10-29T19:27:06:880
7,360322	-1,909473	1,339981	2020-10-29T19:27:06:904
6,656832	-1,801795	1,395016	2020-10-29T19:27:06:920
6,757331	-1,909473	1,531406	2020-10-29T19:27:06:944
6,857830	-0,734596	1,038485	2020-10-29T19:27:06:960
7,085148	-1,619941	0,772882	2020-10-29T19:27:06:984
8,312666	-3,854837	2,309074	2020-10-29T19:27:07:000
8,975478	-2,541178	3,412165	2020-10-29T19:27:07:025
9,198010	-1,902294	4,371687	2020-10-29T19:27:07:040
9,731609	-3,412165	4,919643	2020-10-29T19:27:07:063
10,279566	-4,015156	4,764110	2020-10-29T19:27:07:081
9,600004	-3,309274	3,713661	2020-10-29T19:27:07:104
9,944571	-3,067599	2,892922	2020-10-29T19:27:07:119
9,906286	-3,452843	2,670390	2020-10-29T19:27:07:143
10,320245	-3,419343	2,667997	2020-10-29T19:27:07:161
10,370493	-3,735196	3,127419	2020-10-29T19:27:07:185
10,695917	-3,476771	3,905087	2020-10-29T19:27:07:200
10,432706	-1,502693	3,450450	2020-10-29T19:27:07:225
10,784451	-0,650848	3,361916	2020-10-29T19:27:07:240
10,581062	-0,196211	3,500700	2020-10-29T19:27:07:264
10,167104	-0,459422	4,541577	2020-10-29T19:27:07:280
9,547362	-0,964308	5,383851	2020-10-29T19:27:07:304
9,011370	-1,004985	5,656632	2020-10-29T19:27:07:321
8,760124	-1,366302	5,481956	2020-10-29T19:27:07:344
8,626125	-1,643869	5,824130	2020-10-29T19:27:07:360
8,307880	-1,409373	6,041877	2020-10-29T19:27:07:383
7,872386	-0,602991	6,144768	2020-10-29T19:27:07:400
7,958528	-1,208375	7,415358	2020-10-29T19:27:07:425
9,544970	-2,897708	10,683953	2020-10-29T19:27:07:440
11,155338	-4,764110	16,158731	2020-10-29T19:27:07:465
6,623333	-2,021935	17,599211	2020-10-29T19:27:07:481
4,898108	-0,196211	11,121840	2020-10-29T19:27:07:504
3,744767	-0,342174	7,767102	2020-10-29T19:27:07:520
1,933401	-0,753739	7,489535	2020-10-29T19:27:07:544
0,299103	-1,540978	8,673983	2020-10-29T19:27:07:560
-0,914058	-2,096112	9,396614	2020-10-29T19:27:07:585
-0,926022	1,000200	8,774480	2020-10-29T19:27:07:601
-0,531207	2,904887	8,271988	2020-10-29T19:27:07:625
-0,212961	4,024727	8,183454	2020-10-29T19:27:07:642
-0,155533	3,603590	8,090133	2020-10-29T19:27:08:131
-0,047856	2,998207	8,566305	2020-10-29T19:27:08:156
0,794417	1,277767	8,729016	2020-10-29T19:27:08:157
1,385444	0,186640	8,606983	2020-10-29T19:27:08:173
1,543371	-0,655633	8,798409	2020-10-29T19:27:08:173
1,607977	-0,725025	9,176475	2020-10-29T19:27:08:179
2,100898	0,267996	9,769895	2020-10-29T19:27:08:180
2,622534	0,279960	10,341780	2020-10-29T19:27:08:181
2,971886	0,607777	10,645668	2020-10-29T19:27:08:181
3,460021	0,093320	10,581062	2020-10-29T19:27:08:182
3,828516	-0,234497	9,913465	2020-10-29T19:27:08:182
3,242275	0,107677	9,442079	2020-10-29T19:27:08:183
2,825923	-0,093320	8,824730	2020-10-29T19:27:08:183
2,868994	-0,686740	8,896514	2020-10-29T19:27:08:184
2,749353	-0,689133	8,898908	2020-10-29T19:27:08:184
2,837888	-0,524028	9,064013	2020-10-29T19:27:08:185
2,598605	-0,413958	8,867801	2020-10-29T19:27:08:185
2,409572	-0,332602	9,123833	2020-10-29T19:27:08:190
2,239682	-0,497707	9,339187	2020-10-29T19:27:08:190
2,392823	-0,535992	9,535398	2020-10-29T19:27:08:195
2,285146	-0,650848	9,437292	2020-10-29T19:27:08:205
2,342573	-0,648455	9,310472	2020-10-29T19:27:08:206
2,445465	-0,796810	9,468399	2020-10-29T19:27:08:206
2,548356	-0,715454	9,463614	2020-10-29T19:27:08:207
2,478964	-0,629312	9,552148	2020-10-29T19:27:08:208
2,598605	-0,725025	9,556933	2020-10-29T19:27:08:208
2,581856	-0,813560	9,566505	2020-10-29T19:27:08:209
2,447858	-0,715454	9,430114	2020-10-29T19:27:08:211
2,407180	-0,641276	9,415757	2020-10-29T19:27:08:272
2,349752	-0,445065	9,298509	2020-10-29T19:27:08:294
2,344966	-0,418744	9,248260	2020-10-29T19:27:08:295
2,411965	-0,296710	9,171689	2020-10-29T19:27:08:310
2,342573	-0,272782	9,114261	2020-10-29T19:27:08:343
2,359323	-0,404387	9,023334	2020-10-29T19:27:08:344
2,517249	-0,607777	9,408579	2020-10-29T19:27:08:345
2,746960	-1,138984	9,571291	2020-10-29T19:27:08:361
2,725425	-1,110270	9,568897	2020-10-29T19:27:08:384
2,689533	-1,093520	9,607183	2020-10-29T19:27:08:403
2,742175	-1,069592	9,635897	2020-10-29T19:27:08:423
2,737389	-0,892523	9,690931	2020-10-29T19:27:08:441
2,636890	-0,880559	9,604790	2020-10-29T19:27:08:470
2,531606	-0,775275	9,379865	2020-10-29T19:27:08:482
2,385644	-0,595813	9,415757	2020-10-29T19:27:08:508
2,423929	-0,478565	9,403792	2020-10-29T19:27:08:522
2,445465	-0,433101	9,396614	2020-10-29T19:27:08:545
2,469393	-0,461815	9,315259	2020-10-29T19:27:08:561
2,409572	-0,485743	9,284152	2020-10-29T19:27:08:583
2,464607	-0,528814	9,284152	2020-10-29T19:27:08:601
2,476572	-0,655633	9,346365	2020-10-29T19:27:08:625
2,493321	-0,760918	9,437292	2020-10-29T19:27:08:642
2,378466	-0,720240	9,439686	2020-10-29T19:27:08:705
2,431108	-0,782453	9,533006	2020-10-29T19:27:08:850
2,395216	-0,722632	9,509077	2020-10-29T19:27:08:850
2,380858	-0,674776	9,518648	2020-10-29T19:27:08:868
2,416751	-0,674776	9,544970	2020-10-29T19:27:08:869
2,435893	-0,669990	9,554541	2020-10-29T19:27:08:870
2,409572	-0,547956	9,406186	2020-10-29T19:27:08:870
2,435893	-0,519243	9,346365	2020-10-29T19:27:08:873
2,352145	-0,531207	9,442079	2020-10-29T19:27:08:875
2,438286	-0,602991	9,408579	2020-10-29T19:27:08:876
2,409572	-0,693919	9,391829	2020-10-29T19:27:08:876
2,483750	-0,801596	9,523434	2020-10-29T19:27:08:881
2,440679	-0,784846	9,370294	2020-10-29T19:27:08:905
2,337788	-0,736989	9,399008	2020-10-29T19:27:08:922
2,378466	-0,713061	9,396614	2020-10-29T19:27:08:946
2,349752	-0,524028	9,343972	2020-10-29T19:27:08:961
2,428715	-0,564706	9,303294	2020-10-29T19:27:08:986
2,529213	-0,543171	9,406186	2020-10-29T19:27:09:079
2,533999	-0,488136	9,324830	2020-10-29T19:27:09:080
2,409572	-0,579063	9,327222	2020-10-29T19:27:09:086
2,457429	-0,571885	9,442079	2020-10-29T19:27:09:087
2,560320	-0,674776	9,473185	2020-10-29T19:27:09:088
2,541178	-0,796810	9,547362	2020-10-29T19:27:09:113
2,634498	-0,978664	9,080762	2020-10-29T19:27:09:122
2,234896	-0,648455	8,934800	2020-10-29T19:27:09:147
2,036292	-0,705883	9,257831	2020-10-29T19:27:09:170
2,177469	-0,811167	9,604790	2020-10-29T19:27:09:191
2,213361	-0,516850	9,571291	2020-10-29T19:27:09:202
2,378466	-0,457029	9,568897	2020-10-29T19:27:09:227
2,658426	-0,691526	9,602397	2020-10-29T19:27:09:241
2,868994	-0,854238	9,403792	2020-10-29T19:27:09:265
2,734996	-0,784846	9,332008	2020-10-29T19:27:09:284
2,761317	-0,923629	9,233903	2020-10-29T19:27:09:304
2,682354	-0,993021	9,346365	2020-10-29T19:27:09:323
2,780460	-0,993021	9,444471	2020-10-29T19:27:09:347
2,627320	-1,421337	9,260223	2020-10-29T19:27:09:363
2,076970	-1,835295	9,236296	2020-10-29T19:27:09:389
1,698904	-2,065006	9,181261	2020-10-29T19:27:09:404
1,493121	-1,454836	9,509077	2020-10-29T19:27:09:427
1,452443	-0,902094	9,753145	2020-10-29T19:27:09:442
1,426122	-0,655633	9,571291	2020-10-29T19:27:09:466
1,540978	-1,392623	9,427721	2020-10-29T19:27:09:482
1,651048	-1,928615	9,375079	2020-10-29T19:27:09:506
1,856830	-1,873580	9,226725	2020-10-29T19:27:09:524
1,801795	-1,146162	8,946764	2020-10-29T19:27:09:546
1,624727	-0,086142	8,595018	2020-10-29T19:27:09:563
1,765903	-0,236889	8,975478	2020-10-29T19:27:09:588
1,531406	-0,126820	8,669197	2020-10-29T19:27:09:605
2,031506	-1,031307	9,994821	2020-10-29T19:27:09:628
3,172883	-0,179462	11,822936	2020-10-29T19:27:09:642
0,267996	-1,280160	11,397014	2020-10-29T19:27:09:668
-0,741775	-1,646262	9,734003	2020-10-29T19:27:09:682
-1,117448	-2,364109	9,671788	2020-10-29T19:27:09:705
-0,772882	-2,469393	10,080962	2020-10-29T19:27:09:725
0,110070	-2,596212	10,858629	2020-10-29T19:27:09:747
1,289732	-3,936193	10,375278	2020-10-29T19:27:09:762
3,862016	-3,089134	8,982656	2020-10-29T19:27:09:785
4,656433	-3,029313	8,779266	2020-10-29T19:27:09:804
4,496114	-4,175476	7,288538	2020-10-29T19:27:09:826
5,185246	-4,649254	6,149554	2020-10-29T19:27:09:844
5,249853	-5,962914	6,829116	2020-10-29T19:27:09:868
5,252246	-5,197211	7,757531	2020-10-29T19:27:09:883
5,711668	-4,242475	7,645068	2020-10-29T19:27:09:906
6,372087	-4,024727	6,541977	2020-10-29T19:27:09:924
6,582655	-3,560520	5,505885	2020-10-29T19:27:09:948
7,171289	-6,063413	4,249653	2020-10-29T19:27:09:962
7,934600	-6,821937	3,395415	2020-10-29T19:27:09:987
8,274381	-5,735595	3,203990	2020-10-29T19:27:10:007
8,444271	-5,321638	3,584448	2020-10-29T19:27:10:031
9,279366	-5,053641	3,486342	2020-10-29T19:27:10:044
10,279566	-4,453043	3,404987	2020-10-29T19:27:10:071
11,145767	-3,211168	3,160919	2020-10-29T19:27:10:084
12,177074	-2,912065	3,393023	2020-10-29T19:27:10:118
12,636496	-3,012564	3,481557	2020-10-29T19:27:10:256
12,760924	-2,828316	3,634698	2020-10-29T19:27:10:256
13,182060	-3,026921	3,091527	2020-10-29T19:27:10:257
13,674981	-4,630112	2,337788	2020-10-29T19:27:10:257
13,138988	-5,352744	1,225125	2020-10-29T19:27:10:258
11,399406	-4,776074	0,516850	2020-10-29T19:27:10:306
10,217353	-3,531806	-0,354138	2020-10-29T19:27:10:306
9,693325	-1,902294	-0,947558	2020-10-29T19:27:10:307
9,578469	-1,328017	-1,064806	2020-10-29T19:27:10:308
9,468399	-0,906880	-1,158126	2020-10-29T19:27:10:308
9,078369	-0,993021	-1,363909	2020-10-29T19:27:10:322
8,614161	-0,945165	-1,655833	2020-10-29T19:27:10:345
8,520842	-1,691726	-1,773082	2020-10-29T19:27:10:363
8,645268	-2,682354	-1,861616	2020-10-29T19:27:10:388
8,568698	-3,242275	-1,490728	2020-10-29T19:27:10:412
8,410772	-3,428915	-1,019342	2020-10-29T19:27:10:440
8,195417	-3,180061	-0,638884	2020-10-29T19:27:10:519
7,846066	-2,914458	-0,442672	2020-10-29T19:27:10:520
7,513463	-2,636890	-0,390030	2020-10-29T19:27:10:540
7,137790	-2,371287	-0,272782	2020-10-29T19:27:10:541
7,094719	-2,352145	-0,224925	2020-10-29T19:27:10:541
7,188039	-2,423929	-0,416351	2020-10-29T19:27:10:547
7,463214	-2,459821	-0,559920	2020-10-29T19:27:10:563
7,752745	-2,562713	-0,476172	2020-10-29T19:27:10:591
7,874779	-2,706282	-0,291924	2020-10-29T19:27:10:603
8,154739	-2,739782	-0,291924	2020-10-29T19:27:10:627
8,571091	-2,742175	-0,358923	2020-10-29T19:27:10:643
8,731410	-2,565106	-0,617348	2020-10-29T19:27:10:668
8,915657	-2,557927	-0,792024	2020-10-29T19:27:10:694
9,087940	-2,313859	-0,777667	2020-10-29T19:27:10:720
9,422935	-2,356930	-0,679562	2020-10-29T19:27:10:774
9,686146	-2,402394	-0,399601	2020-10-29T19:27:10:775
9,789038	-2,261217	-0,299103	2020-10-29T19:27:10:776
9,915856	-2,313859	-0,270389	2020-10-29T19:27:10:793
9,894321	-2,383251	-0,141177	2020-10-29T19:27:10:805
9,767502	-2,471786	0,016750	2020-10-29T19:27:10:837
9,525827	-2,603391	0,172283	2020-10-29T19:27:10:843
9,477970	-2,737389	0,107677	2020-10-29T19:27:10:868
9,513863	-2,443072	-0,057428	2020-10-29T19:27:10:883
9,669396	-2,632105	-0,021535	2020-10-29T19:27:10:907
10,131211	-3,007778	0,167498	2020-10-29T19:27:10:924
10,569098	-3,177669	0,023928	2020-10-29T19:27:10:948
10,746166	-3,053242	-0,473779	2020-10-29T19:27:10:964
10,360922	-2,591427	-0,677169	2020-10-29T19:27:10:987
10,152746	-2,603391	-0,337388	2020-10-29T19:27:11:005
10,705488	-2,665605	-0,100499	2020-10-29T19:27:11:028
10,820344	-2,541178	-0,323031	2020-10-29T19:27:11:044
10,671989	-2,493321	-0,349352	2020-10-29T19:27:11:069
10,817951	-2,400001	-0,488136	2020-10-29T19:27:11:084
10,829915	-2,189433	-0,586242	2020-10-29T19:27:11:108
10,475778	-2,005185	-0,622134	2020-10-29T19:27:11:124
10,066606	-1,964507	-0,579063	2020-10-29T19:27:11:147
9,583255	-2,124826	-0,445065	2020-10-29T19:27:11:164
9,080762	-2,172683	-0,461815	2020-10-29T19:27:11:188
9,104690	-2,342573	-0,504886	2020-10-29T19:27:11:204
9,674182	-2,445465	-0,636491	2020-10-29T19:27:11:234
10,159925	-2,490928	-0,930808	2020-10-29T19:27:11:286
10,030712	-2,684747	-0,827917	2020-10-29T19:27:11:287
9,731609	-3,005385	-0,646062	2020-10-29T19:27:11:288
9,530612	-2,924029	-0,631705	2020-10-29T19:27:11:310
9,217153	-2,617748	-0,638884	2020-10-29T19:27:11:324
8,930015	-2,565106	-0,545564	2020-10-29T19:27:11:351
8,504091	-2,519642	-0,559920	2020-10-29T19:27:11:364
8,030313	-2,478964	-0,490529	2020-10-29T19:27:11:389
7,582855	-2,498107	-0,428315	2020-10-29T19:27:11:405
7,097112	-2,325824	-0,361316	2020-10-29T19:27:11:430
6,719046	-1,902294	-0,722632	2020-10-29T19:27:11:445
6,690332	-1,576870	-0,935594	2020-10-29T19:27:11:467
6,814759	-1,856830	-0,811167	2020-10-29T19:27:11:485
7,412964	-2,533999	-0,667598	2020-10-29T19:27:11:508
8,279166	-3,160919	-0,703490	2020-10-29T19:27:11:525
9,047262	-3,945765	-0,808774	2020-10-29T19:27:11:548
10,143176	-4,826324	-0,973879	2020-10-29T19:27:11:564
11,629118	-5,185246	-1,478764	2020-10-29T19:27:11:589
13,325629	-5,178068	-1,921437	2020-10-29T19:27:11:605
14,055440	-5,312066	-1,861616	2020-10-29T19:27:11:628
13,371094	-4,984250	-1,892723	2020-10-29T19:27:11:645
11,961720	-4,158726	-1,576870	2020-10-29T19:27:11:673
7,109076	1,048056	3,170490	2020-10-29T19:27:17:098
7,444071	0,658026	1,914258	2020-10-29T19:27:17:110
7,393822	-0,138784	1,438086	2020-10-29T19:27:17:125
7,903493	-0,289532	1,689333	2020-10-29T19:27:17:145
9,080762	-0,689133	1,517050	2020-10-29T19:27:17:154
10,080962	-1,440479	1,411765	2020-10-29T19:27:17:171
10,798808	-1,612763	-0,287139	2020-10-29T19:27:17:196
12,076575	-2,017149	-1,974079	2020-10-29T19:27:17:213
13,655839	-3,125026	-3,457629	2020-10-29T19:27:17:235
13,050454	-5,075177	-3,323631	2020-10-29T19:27:17:252
11,988041	-6,750153	-0,313460	2020-10-29T19:27:17:275
12,047862	-7,814958	2,995814	2020-10-29T19:27:17:291
12,193825	-8,243275	4,620540	2020-10-29T19:27:17:316
11,576476	-7,475177	4,402793	2020-10-29T19:27:17:331
11,102697	-6,429514	4,046263	2020-10-29T19:27:17:357
10,820344	-6,142376	3,440879	2020-10-29T19:27:17:371
10,868200	-5,761917	1,773082	2020-10-29T19:27:17:394
10,016356	-5,649454	0,110070	2020-10-29T19:27:17:412
9,324830	-5,620740	-1,663012	2020-10-29T19:27:17:436
9,037691	-4,395615	-3,058028	2020-10-29T19:27:17:452
9,379865	-3,862016	-3,199204	2020-10-29T19:27:17:475
9,992428	-3,366701	-2,660819	2020-10-29T19:27:17:491
10,801201	-2,565106	-1,677369	2020-10-29T19:27:17:515
11,849257	-1,469193	-0,689133	2020-10-29T19:27:17:532
11,751152	-0,445065	0,093320	2020-10-29T19:27:17:555
10,396815	-0,057428	0,497707	2020-10-29T19:27:17:571
9,253045	0,167498	0,610170	2020-10-29T19:27:17:596
8,839087	0,330210	0,660419	2020-10-29T19:27:17:612
9,138189	-0,162712	0,208176	2020-10-29T19:27:17:634
9,253045	-0,916451	-0,153141	2020-10-29T19:27:17:652
9,061620	-1,471586	-0,488136	2020-10-29T19:27:17:676
9,049655	-2,232504	-0,677169	2020-10-29T19:27:17:693
9,085547	-2,651247	-0,818345	2020-10-29T19:27:17:715
9,109475	-3,270989	-0,870987	2020-10-29T19:27:17:733
9,150154	-3,799802	-0,756132	2020-10-29T19:27:17:757
9,315259	-3,948158	-0,631705	2020-10-29T19:27:17:773
9,626326	-3,672983	-0,705883	2020-10-29T19:27:17:796
9,626326	-3,208775	-0,538385	2020-10-29T19:27:17:812
9,418150	-2,787638	-0,198604	2020-10-29T19:27:17:836
9,628718	-2,277967	-0,184247	2020-10-29T19:27:17:852
10,195816	-1,634298	-0,090927	2020-10-29T19:27:17:875
10,676775	-1,069592	-0,143569	2020-10-29T19:27:17:892
11,473583	-0,547956	-0,519243	2020-10-29T19:27:17:916
13,500306	-0,112463	-1,172483	2020-10-29T19:27:17:932
14,610575	-0,112463	-1,720440	2020-10-29T19:27:17:955
12,643675	-0,973879	-0,973879	2020-10-29T19:27:17:972
11,442478	-1,208375	0,239282	2020-10-29T19:27:17:996
10,530812	-1,557728	1,526621	2020-10-29T19:27:18:012
9,250652	-2,103291	1,962115	2020-10-29T19:27:18:037
8,202596	-2,378466	1,758725	2020-10-29T19:27:18:052
7,810174	-2,617748	1,323231	2020-10-29T19:27:18:076
7,367501	-2,720639	1,021735	2020-10-29T19:27:18:092
6,620940	-2,486143	1,229911	2020-10-29T19:27:18:115
6,587440	-2,050649	0,847059	2020-10-29T19:27:18:132
8,798409	-1,457229	-0,021535	2020-10-29T19:27:18:157
10,286745	-1,007378	-0,533599	2020-10-29T19:27:18:172
11,681760	-0,605384	-0,861416	2020-10-29T19:27:18:196
12,540783	-0,655633	-0,634098	2020-10-29T19:27:18:213
12,471392	-0,945165	0,086142	2020-10-29T19:27:18:236
11,593226	-0,983450	0,882952	2020-10-29T19:27:18:253
10,406385	-1,028914	1,339981	2020-10-29T19:27:18:276
9,064013	-0,985843	1,296910	2020-10-29T19:27:18:292
7,776673	-0,935594	1,028914	2020-10-29T19:27:18:316
7,168896	-0,976272	0,789631	2020-10-29T19:27:18:332
7,255038	-0,792024	0,531207	2020-10-29T19:27:18:357
7,688138	-0,842274	0,186640	2020-10-29T19:27:18:372
8,106883	-0,976272	-0,088534	2020-10-29T19:27:18:397
8,219346	-1,270589	-0,227318	2020-10-29T19:27:18:412
8,398808	-1,545763	-0,162712	2020-10-29T19:27:18:436
8,501699	-1,978864	-0,167498	2020-10-29T19:27:18:453
8,712267	-2,282753	0,007178	2020-10-29T19:27:18:477
8,889337	-2,629712	0,500100	2020-10-29T19:27:18:493
9,111869	-3,651447	0,993021	2020-10-29T19:27:18:518
9,580862	-4,941179	1,239482	2020-10-29T19:27:18:532
9,927821	-5,328816	1,098306	2020-10-29T19:27:18:559
10,401600	-6,221339	1,196411	2020-10-29T19:27:18:573
10,159925	-7,104291	0,866202	2020-10-29T19:27:18:596
9,329616	-6,388836	0,265603	2020-10-29T19:27:18:613
9,379865	-5,003392	0,052642	2020-10-29T19:27:18:637
12,026326	-4,201797	0,122034	2020-10-29T19:27:18:653
12,229716	-5,513064	-0,265603	2020-10-29T19:27:18:676
10,403993	-4,878965	-0,906880	2020-10-29T19:27:18:693
10,040283	-4,479364	-1,395016	2020-10-29T19:27:18:717
10,526026	-3,933800	-0,940379	2020-10-29T19:27:18:733
10,179067	-4,508078	-0,327817	2020-10-29T19:27:18:757
9,236296	-4,654040	-0,564706	2020-10-29T19:27:18:772
7,999206	-2,569891	-0,801596	2020-10-29T19:27:18:798
8,518449	-1,725225	-0,937986	2020-10-29T19:27:18:813
9,896714	-2,110470	-0,887737	2020-10-29T19:27:18:836
10,978271	-1,789831	-0,875773	2020-10-29T19:27:18:853
11,406586	-1,713261	-0,610170	2020-10-29T19:27:18:877
11,559726	-1,806581	-0,653241	2020-10-29T19:27:18:893
11,535798	-1,842474	-0,758525	2020-10-29T19:27:18:917
11,294124	-1,804188	-0,655633	2020-10-29T19:27:18:933
10,791630	-1,859223	-0,612563	2020-10-29T19:27:18:957
10,025927	-1,859223	-0,524028	2020-10-29T19:27:18:973
9,154939	-1,859223	-0,330210	2020-10-29T19:27:18:997
8,779266	-1,732404	-0,177069	2020-10-29T19:27:19:013
8,688338	-1,596013	-0,007178	2020-10-29T19:27:19:037
8,853443	-1,596013	0,100499	2020-10-29T19:27:19:053
8,961121	-1,596013	0,162712	2020-10-29T19:27:19:077
8,896514	-1,603191	0,145962	2020-10-29T19:27:19:093
8,853443	-1,603191	0,165105	2020-10-29T19:27:19:117
8,774480	-1,555335	0,131605	2020-10-29T19:27:19:133
8,819944	-1,473979	0,088534	2020-10-29T19:27:19:157
9,016156	-1,519442	-0,007178	2020-10-29T19:27:19:173
9,131011	-1,840081	0,023928	2020-10-29T19:27:19:197
9,291330	-1,959722	0,141177	2020-10-29T19:27:19:214
9,497113	-2,139183	0,100499	2020-10-29T19:27:19:239
10,423136	-2,742175	0,050249	2020-10-29T19:27:19:254
11,401800	-2,835495	-0,344566	2020-10-29T19:27:19:277
11,650653	-3,393023	-0,538385	2020-10-29T19:27:19:293
11,394621	-3,531806	-0,624527	2020-10-29T19:27:19:316
13,280167	-3,737589	-1,071985	2020-10-29T19:27:19:334
13,741980	-4,194618	-1,361516	2020-10-29T19:27:19:357
12,698709	-4,826324	-1,397408	2020-10-29T19:27:19:373
11,889936	-5,180461	-1,773082	2020-10-29T19:27:19:397
10,308280	-5,812167	-1,651048	2020-10-29T19:27:19:413
8,554340	-5,845665	-1,375873	2020-10-29T19:27:19:438
7,458428	-5,393422	-1,213161	2020-10-29T19:27:19:454
6,984650	-4,673182	-1,292124	2020-10-29T19:27:19:478
6,498906	-4,338188	-1,162912	2020-10-29T19:27:19:493
6,398407	-4,141976	-1,162912	2020-10-29T19:27:19:518
6,632904	-3,979264	-1,402194	2020-10-29T19:27:19:533
7,216753	-3,797409	-1,730011	2020-10-29T19:27:19:557
7,932207	-3,785445	-2,021935	2020-10-29T19:27:19:574
8,561519	-3,809374	-2,234896	2020-10-29T19:27:19:597
9,075976	-3,613162	-2,452643	2020-10-29T19:27:19:613
9,597611	-3,584448	-2,359323	2020-10-29T19:27:19:637
9,719646	-3,672983	-2,062613	2020-10-29T19:27:19:654
9,566505	-3,761517	-1,325624	2020-10-29T19:27:19:679
8,920443	-3,572484	-0,600598	2020-10-29T19:27:19:694
8,264810	-3,804588	0,277567	2020-10-29T19:27:19:718
8,142776	-3,907479	1,268196	2020-10-29T19:27:19:733
8,025528	-3,462414	1,203590	2020-10-29T19:27:19:765
7,975278	-2,778067	0,729811	2020-10-29T19:27:19:774
8,099705	-2,701497	1,150948	2020-10-29T19:27:19:797
8,745767	-2,986243	2,356930	2020-10-29T19:27:19:814
9,477970	-3,565305	2,536392	2020-10-29T19:27:19:838
9,403792	-4,089334	1,828116	2020-10-29T19:27:19:854
8,805587	-4,572684	1,459622	2020-10-29T19:27:19:877
8,410772	-4,335794	0,744168	2020-10-29T19:27:19:894
8,224132	-3,854837	0,057428	2020-10-29T19:27:19:918
8,580662	-3,893122	-0,289532	2020-10-29T19:27:19:934
8,877372	-3,739982	-0,370888	2020-10-29T19:27:19:959
9,595219	-3,816552	-0,277567	2020-10-29T19:27:19:974
10,174281	-3,962514	-0,043071	2020-10-29T19:27:19:998
10,102496	-4,268795	0,368495	2020-10-29T19:27:20:014
9,801002	-4,158726	0,222532	2020-10-29T19:27:20:037
10,798808	-3,933800	0,086142	2020-10-29T19:27:20:054
12,480963	-4,197011	0,016750	2020-10-29T19:27:20:078
12,038290	-4,572684	0,229711	2020-10-29T19:27:20:094
11,188839	-4,701896	0,098106	2020-10-29T19:27:20:118
11,239087	-4,503292	-0,303888	2020-10-29T19:27:20:135
11,059627	-4,048656	-0,387637	2020-10-29T19:27:20:159
10,384850	-3,632305	-0,385244	2020-10-29T19:27:20:174
9,274581	-3,043670	-0,200997	2020-10-29T19:27:20:199
8,068598	-2,624927	-0,074178	2020-10-29T19:27:20:214
7,810174	-2,213361	-0,014357	2020-10-29T19:27:20:238
9,243474	-1,983650	-0,423530	2020-10-29T19:27:20:255
10,932807	-1,933401	-0,916451	2020-10-29T19:27:20:277
12,016755	-2,225325	-1,366302	2020-10-29T19:27:20:294
12,430713	-2,435893	-1,665405	2020-10-29T19:27:20:319
11,605190	-2,256432	-2,041078	2020-10-29T19:27:20:334
10,667203	-1,765903	-1,880759	2020-10-29T19:27:20:359
9,870394	-1,529014	-1,517050	2020-10-29T19:27:20:374
9,272188	-1,124627	-1,112662	2020-10-29T19:27:20:399
8,719445	-1,217947	-0,859023	2020-10-29T19:27:20:414
8,614161	-1,500300	-1,002593	2020-10-29T19:27:20:439
9,061620	-1,835295	-1,363909	2020-10-29T19:27:20:454
9,623933	-2,129612	-1,629512	2020-10-29T19:27:20:478
9,963714	-2,577070	-1,655833	2020-10-29T19:27:20:494
9,856036	-2,969493	-1,557728	2020-10-29T19:27:20:518
10,152746	-3,096312	-1,416551	2020-10-29T19:27:20:534
10,511670	-2,749353	-1,646262	2020-10-29T19:27:20:560
10,188639	-2,098505	-1,426122	2020-10-29T19:27:20:574
9,822537	-2,017149	-0,859023	2020-10-29T19:27:20:599
10,145569	-1,586441	0,133998	2020-10-29T19:27:20:615
10,741381	-0,942772	-0,435494	2020-10-29T19:27:20:638
11,598011	0,021535	-1,808974	2020-10-29T19:27:20:655
11,540584	0,110070	-1,911865	2020-10-29T19:27:20:679
9,657433	-0,461815	-0,514457	2020-10-29T19:27:20:694
8,305488	-1,158126	1,225125	2020-10-29T19:27:20:719
7,415358	-1,945365	1,921437	2020-10-29T19:27:20:734
6,788438	-2,723032	2,565106	2020-10-29T19:27:20:758
7,721639	-3,160919	2,708675	2020-10-29T19:27:20:774
9,399008	-3,323631	2,232504	2020-10-29T19:27:20:799
10,344172	-2,952743	1,636691	2020-10-29T19:27:20:815
10,530812	-2,373680	1,055235	2020-10-29T19:27:20:838
10,703095	-1,732404	0,193819	2020-10-29T19:27:20:855
10,750952	-0,997807	-0,301496	2020-10-29T19:27:20:879
10,131211	-0,583849	-0,157926	2020-10-29T19:27:20:895
9,257831	-0,669990	0,133998	2020-10-29T19:27:20:919
8,803195	-1,069592	0,662812	2020-10-29T19:27:20:935
8,551948	-1,770689	1,150948	2020-10-29T19:27:20:959
8,609376	-2,330609	1,485943	2020-10-29T19:27:20:975
8,784052	-2,921637	1,497907	2020-10-29T19:27:20:998
9,061620	-3,412165	1,294517	2020-10-29T19:27:21:015
9,434900	-3,885944	1,215554	2020-10-29T19:27:21:040
9,707682	-3,725625	1,234696	2020-10-29T19:27:21:055
9,650253	-3,663411	1,186840	2020-10-29T19:27:21:078
9,418150	-3,428915	0,835095	2020-10-29T19:27:21:095
9,293723	-2,971886	0,550349	2020-10-29T19:27:21:119
9,391829	-2,352145	0,437887	2020-10-29T19:27:21:136
9,741181	-2,019542	0,258425	2020-10-29T19:27:21:160
9,997212	-1,890330	-0,114855	2020-10-29T19:27:21:175
10,578669	-2,072184	-0,380459	2020-10-29T19:27:21:199
11,138590	-2,364109	-0,435494	2020-10-29T19:27:21:215
10,353743	-2,699104	-0,234497	2020-10-29T19:27:21:238
8,997013	-2,792424	-0,502493	2020-10-29T19:27:21:255
8,949157	-2,543570	-1,086342	2020-10-29T19:27:21:279
9,832108	-2,330609	-1,701297	2020-10-29T19:27:21:295
10,155140	-1,895115	-1,995614	2020-10-29T19:27:21:320
10,360922	-1,598405	-1,962115	2020-10-29T19:27:21:335
10,760524	-1,586441	-1,899901	2020-10-29T19:27:21:360
10,683953	-1,557728	-1,957329	2020-10-29T19:27:21:376
10,624132	-1,873580	-1,928615	2020-10-29T19:27:21:399
10,403993	-1,890330	-2,335395	2020-10-29T19:27:21:415
10,145569	-1,880759	-2,574677	2020-10-29T19:27:21:439
9,566505	-1,785046	-2,476572	2020-10-29T19:27:21:456
9,061620	-1,801795	-2,273181	2020-10-29T19:27:21:479
8,611769	-1,837688	-2,232504	2020-10-29T19:27:21:496
8,240881	-1,780260	-2,316252	2020-10-29T19:27:21:519
8,018349	-1,844866	-2,507678	2020-10-29T19:27:21:535
8,532805	-1,794617	-2,617748	2020-10-29T19:27:21:559
8,578269	-1,768296	-2,746960	2020-10-29T19:27:21:576
7,838887	-1,797010	-2,512464	2020-10-29T19:27:21:600
7,578069	-1,952543	-1,677369	2020-10-29T19:27:21:616
7,996813	-1,646262	-1,060020	2020-10-29T19:27:21:640
8,484949	-1,593620	-0,662812	2020-10-29T19:27:21:656
8,492127	-1,318445	-0,899701	2020-10-29T19:27:21:681
8,408379	-0,892523	-0,703490	2020-10-29T19:27:21:696
8,784052	-0,569492	-0,476172	2020-10-29T19:27:21:720
9,595219	-0,492921	-0,136391	2020-10-29T19:27:21:736
10,174281	-0,662812	0,533599	2020-10-29T19:27:21:761
10,351351	-0,686740	0,447458	2020-10-29T19:27:21:776
10,377672	-0,823131	0,576670	2020-10-29T19:27:21:799
10,487741	-1,024128	0,902094	2020-10-29T19:27:21:816
10,269995	-1,112662	1,447658	2020-10-29T19:27:21:840
9,860823	-1,062413	1,567299	2020-10-29T19:27:21:856
9,652647	-1,148555	1,576870	2020-10-29T19:27:21:882
9,592826	-1,129412	1,732404	2020-10-29T19:27:21:895
9,035298	-0,784846	1,957329	2020-10-29T19:27:21:920
8,185846	-0,555135	2,033899	2020-10-29T19:27:21:936
7,448857	-0,368495	1,744368	2020-10-29T19:27:21:959
6,903293	-0,253639	1,452443	2020-10-29T19:27:21:976
6,776474	-0,464208	1,854438	2020-10-29T19:27:22:000
7,929814	-1,112662	1,825724	2020-10-29T19:27:22:016
9,456435	-2,297110	1,330409	2020-10-29T19:27:22:040
11,368300	-4,098906	1,033699	2020-10-29T19:27:22:057
12,143576	-5,192425	0,806381	2020-10-29T19:27:22:080
11,229517	-6,072984	0,835095	2020-10-29T19:27:22:096
10,246067	-8,300702	1,883151	2020-10-29T19:27:22:121
10,796415	-9,944571	2,916851	2020-10-29T19:27:22:136
11,842079	-11,164910	2,758924	2020-10-29T19:27:22:162
12,543176	-12,208181	-0,425922	2020-10-29T19:27:22:176
11,318050	-27,452854	24,208187	2020-10-29T19:27:22:199
11,112268	-22,150358	19,836498	2020-10-29T19:27:22:217
3,854837	-11,160125	13,976478	2020-10-29T19:27:22:240
1,450050	-19,178473	11,428121	2020-10-29T19:27:22:256
-2,768496	-11,105090	5,170890	2020-10-29T19:27:22:280
-4,242475	-8,056634	3,897908	2020-10-29T19:27:22:297
4,072584	-11,265409	2,242075	2020-10-29T19:27:22:321
4,551149	-4,388437	0,803988	2020-10-29T19:27:22:337
2,766103	-2,452643	1,780260	2020-10-29T19:27:22:361
2,835495	-4,321437	2,426322	2020-10-29T19:27:22:376
1,667797	-1,232304	2,041078	2020-10-29T19:27:22:401
0,660419	0,736989	1,820938	2020-10-29T19:27:22:417
-0,734596	1,323231	1,895115	2020-10-29T19:27:22:439
-1,674976	0,117248	2,967100	2020-10-29T19:27:22:457
-1,859223	-0,930808	3,151347	2020-10-29T19:27:22:480
-2,057827	-1,024128	4,833502	2020-10-29T19:27:22:496
-1,545763	-2,208575	8,298308	2020-10-29T19:27:22:520
-0,526421	-0,739382	9,712467	2020-10-29T19:27:22:536
0,985843	-0,373280	10,794022	2020-10-29T19:27:22:561
2,857030	-0,026321	10,533205	2020-10-29T19:27:22:577
7,707282	-7,415358	10,583455	2020-10-29T19:27:22:601
4,118048	-9,128618	10,966305	2020-10-29T19:27:22:617
1,727618	-11,552547	12,299109	2020-10-29T19:27:22:640
1,356731	-11,779866	11,279767	2020-10-29T19:27:22:657
0,887737	-10,217353	9,863215	2020-10-29T19:27:22:681
-0,906880	-5,548956	9,949356	2020-10-29T19:27:22:697
-2,797210	-0,713061	9,097511	2020-10-29T19:27:22:721
-2,172683	0,586242	7,412964	2020-10-29T19:27:22:737
-1,301696	1,275374	6,960721	2020-10-29T19:27:22:761
-2,270789	1,586441	6,697510	2020-10-29T19:27:23:148
-2,833102	4,077370	6,077770	2020-10-29T19:27:23:152
-1,165305	2,000400	6,613762	2020-10-29T19:27:23:153
0,411566	-8,054241	13,758730	2020-10-29T19:27:23:153
-1,576870	-4,811966	17,314465	2020-10-29T19:27:23:154
-0,813560	-3,182454	14,928822	2020-10-29T19:27:23:155
-0,593420	0,416351	10,351351	2020-10-29T19:27:23:155
0,205783	1,387837	7,824530	2020-10-29T19:27:23:156
0,177069	-1,627119	8,068598	2020-10-29T19:27:23:157
0,011964	-1,718047	8,865408	2020-10-29T19:27:23:167
0,210568	-0,906880	9,489935	2020-10-29T19:27:23:168
1,043271	-0,581456	9,449257	2020-10-29T19:27:23:169
1,593620	-0,313460	10,382458	2020-10-29T19:27:23:169
1,789831	-0,466600	10,829915	2020-10-29T19:27:23:170
2,299503	-0,370888	10,183852	2020-10-29T19:27:23:171
2,541178	-1,050449	10,057034	2020-10-29T19:27:23:171
2,440679	-0,583849	10,530812	2020-10-29T19:27:23:172
1,426122	-0,119641	10,035499	2020-10-29T19:27:23:172
0,229711	0,418744	10,403993	2020-10-29T19:27:23:172
-0,497707	-0,964308	10,370493	2020-10-29T19:27:23:173
0,246461	-0,957129	9,848858	2020-10-29T19:27:23:178
-0,313460	-0,574277	8,810372	2020-10-29T19:27:23:200
-0,550349	-0,619741	8,551948	2020-10-29T19:27:23:216
-0,430708	-1,198804	8,712267	2020-10-29T19:27:23:241
-0,368495	-0,253639	9,614362	2020-10-29T19:27:23:267
-0,102891	-0,509671	9,714860	2020-10-29T19:27:23:279
-0,124427	0,270389	10,045070	2020-10-29T19:27:23:298
-0,157926	0,241675	9,779467	2020-10-29T19:27:23:320
-0,227318	-0,045464	9,506684	2020-10-29T19:27:23:337
-0,351745	0,674776	9,772287	2020-10-29T19:27:23:391
-1,014557	0,363709	9,841680	2020-10-29T19:27:23:393
-1,399801	-0,167498	9,578469	2020-10-29T19:27:23:418
-1,500300	-0,588634	9,858429	2020-10-29T19:27:23:423
-1,940579	0,057428	9,317651	2020-10-29T19:27:23:440
-1,916651	-0,148355	9,638289	2020-10-29T19:27:23:456
-1,811367	-0,234497	10,013963	2020-10-29T19:27:23:480
-0,988236	-0,995414	9,714860	2020-10-29T19:27:23:500
-0,471386	-0,588634	9,274581	2020-10-29T19:27:23:520
-0,703490	-0,150748	9,159724	2020-10-29T19:27:23:536
-1,129412	-0,222532	10,124033	2020-10-29T19:27:23:568
-0,899701	-0,169890	9,975677	2020-10-29T19:27:23:576
-0,287139	-0,100499	9,719646	2020-10-29T19:27:23:607
-0,452243	0,066999	9,334401	2020-10-29T19:27:23:616
-0,849452	1,201197	8,681160	2020-10-29T19:27:23:640
-0,760918	1,919044	8,573483	2020-10-29T19:27:23:657
-0,514457	1,619941	9,554541	2020-10-29T19:27:23:681
-0,866202	-0,313460	10,281959	2020-10-29T19:27:23:697
-0,923629	-3,416951	10,399208	2020-10-29T19:27:23:722
-1,320838	-4,871787	10,107283	2020-10-29T19:27:23:738
-1,478764	-4,797609	9,449257	2020-10-29T19:27:23:764
-0,997807	-5,426922	9,365508	2020-10-29T19:27:23:782
-0,854238	-6,080163	9,693325	2020-10-29T19:27:23:804
-0,440279	-6,211767	9,181261	2020-10-29T19:27:23:819
-0,370888	-5,300103	8,915657	2020-10-29T19:27:23:843
-0,679562	-4,280759	9,439686	2020-10-29T19:27:23:859
-0,543171	-3,797409	9,772287	2020-10-29T19:27:23:918
-0,023928	-3,783052	10,061819	2020-10-29T19:27:23:926
0,050249	-3,811767	10,234102	2020-10-29T19:27:23:927
-0,315853	-2,878566	9,695717	2020-10-29T19:27:23:944
-0,856631	-1,593620	8,906086	2020-10-29T19:27:23:963
-1,016950	-0,480957	8,903693	2020-10-29T19:27:23:977
-1,148555	-0,447458	9,420543	2020-10-29T19:27:24:029
-1,115055	-0,703490	9,882358	2020-10-29T19:27:24:036
-0,878166	-0,610170	9,975677	2020-10-29T19:27:24:043
-0,445065	-0,741775	9,894321	2020-10-29T19:27:24:058
-0,468993	-0,184247	9,341579	2020-10-29T19:27:24:094
-0,717847	-0,282353	9,291330	2020-10-29T19:27:24:100
-0,524028	-0,591027	9,360723	2020-10-29T19:27:24:122
0,167498	-0,086142	9,035298	2020-10-29T19:27:24:137
0,684347	-0,107677	8,726624	2020-10-29T19:27:24:165
0,665205	-0,208176	8,767302	2020-10-29T19:27:24:178
1,098306	0,095713	8,401200	2020-10-29T19:27:24:201
1,138984	0,500100	8,322237	2020-10-29T19:27:24:218
1,232304	0,727418	8,688338	2020-10-29T19:27:24:242
1,909473	0,839881	8,953942	2020-10-29T19:27:24:258
2,945565	0,904487	8,925228	2020-10-29T19:27:24:283
3,474378	0,583849	8,592626	2020-10-29T19:27:24:299
3,708875	0,401994	8,444271	2020-10-29T19:27:24:323
3,960121	0,267996	8,382057	2020-10-29T19:27:24:338
4,362115	0,320638	8,341379	2020-10-29T19:27:24:361
4,709075	0,380459	8,051848	2020-10-29T19:27:24:380
4,701896	0,399601	8,216952	2020-10-29T19:27:24:402
4,907679	0,014357	7,999206	2020-10-29T19:27:24:418
5,637490	-0,052642	8,214561	2020-10-29T19:27:24:442
6,699903	-1,457229	8,274381	2020-10-29T19:27:24:459
5,283352	0,184247	8,279166	2020-10-29T19:27:24:484
5,316852	-0,914058	8,243275	2020-10-29T19:27:24:500
6,161518	-1,706082	7,429714	2020-10-29T19:27:24:527
6,680761	-1,622334	6,733403	2020-10-29T19:27:24:538
6,714260	-1,074377	5,781059	2020-10-29T19:27:24:564
6,546762	-0,777667	5,644669	2020-10-29T19:27:24:579
6,171089	-0,138784	6,068198	2020-10-29T19:27:24:602
6,228518	-0,062213	6,247660	2020-10-29T19:27:24:620
6,553941	-0,138784	6,058627	2020-10-29T19:27:24:643
6,953543	-0,083749	6,166305	2020-10-29T19:27:24:663
6,843473	-0,277567	6,300302	2020-10-29T19:27:24:683
7,331609	-0,370888	5,931807	2020-10-29T19:27:24:701
8,257630	-0,753739	5,103891	2020-10-29T19:27:24:723
8,963513	-1,442872	3,543770	2020-10-29T19:27:24:739
9,138189	-1,222732	3,113062	2020-10-29T19:27:24:767
9,456435	-1,107877	3,141776	2020-10-29T19:27:24:779
8,985049	-1,074377	2,727818	2020-10-29T19:27:24:893
8,817552	0,799203	3,168097	2020-10-29T19:27:24:902
8,980263	0,449851	2,545963	2020-10-29T19:27:24:929
12,760924	-2,969493	7,147361	2020-10-29T19:27:24:931
13,548162	-2,048256	11,528620	2020-10-29T19:27:24:932
10,829915	-3,780660	5,852845	2020-10-29T19:27:24:933
7,817351	-3,354738	4,314260	2020-10-29T19:27:24:933
7,625926	-1,907080	6,063413	2020-10-29T19:27:25:014
9,399008	-1,136591	4,819145	2020-10-29T19:27:25:015
9,408579	-0,815953	2,443072	2020-10-29T19:27:25:017
7,769495	-1,062413	1,033699	2020-10-29T19:27:25:018
8,585447	-1,588834	3,127419	2020-10-29T19:27:25:022
10,368099	-3,012564	2,694318	2020-10-29T19:27:25:042
9,566505	-2,019542	0,648455	2020-10-29T19:27:25:058
10,399208	-1,856830	0,289532	2020-10-29T19:27:25:082
10,262815	-2,021935	-0,066999	2020-10-29T19:27:25:098
11,105090	-1,852045	-2,213361	2020-10-29T19:27:25:130
8,606983	-3,318845	4,965107	2020-10-29T19:27:25:181
9,454042	-4,457829	7,262216	2020-10-29T19:27:25:182
9,805787	-3,739982	2,849852	2020-10-29T19:27:25:186
9,731609	-3,074777	0,899701	2020-10-29T19:27:25:205
9,810574	-1,976472	0,842274	2020-10-29T19:27:25:220
9,868000	-1,701297	1,220340	2020-10-29T19:27:25:242
9,875179	-1,304088	0,823131	2020-10-29T19:27:25:258
10,703095	-1,768296	-0,509671	2020-10-29T19:27:25:284
10,707881	-1,351945	-0,509671	2020-10-29T19:27:25:300
10,727024	-1,225125	-0,244068	2020-10-29T19:27:25:324
11,456835	-1,555335	-0,145962	2020-10-29T19:27:25:340
12,588640	-2,435893	-0,179462	2020-10-29T19:27:25:365
12,856635	-3,010171	-1,533799	2020-10-29T19:27:25:384
13,933406	-3,371487	-2,873780	2020-10-29T19:27:25:404
14,177474	-2,648855	-2,739782	2020-10-29T19:27:25:428
12,437892	-1,648655	-3,046063	2020-10-29T19:27:25:454
11,129018	0,856631	-3,775874	2020-10-29T19:27:25:475
10,569098	3,412165	-4,943572	2020-10-29T19:27:25:486
9,954143	3,847659	-5,654240	2020-10-29T19:27:25:511
10,372886	1,737189	-6,589834	2020-10-29T19:27:25:525
11,186446	1,249053	-7,934600	2020-10-29T19:27:25:540
10,894521	1,998007	-8,939585	2020-10-29T19:27:25:562
9,834501	2,610569	-8,968300	2020-10-29T19:27:25:580
9,265009	2,711068	-8,037491	2020-10-29T19:27:25:604
9,245867	1,773082	-6,340980	2020-10-29T19:27:25:620
9,226725	1,007378	-5,032106	2020-10-29T19:27:25:643
8,690732	0,736989	-5,529813	2020-10-29T19:27:25:662
8,487342	0,892523	-4,823930	2020-10-29T19:27:25:684
8,719445	0,976272	-4,063013	2020-10-29T19:27:25:700
8,752945	0,842274	-3,881158	2020-10-29T19:27:25:724
8,654840	0,870987	-4,278367	2020-10-29T19:27:25:742
9,107083	1,385444	-4,417150	2020-10-29T19:27:25:764
9,327222	1,418944	-3,991228	2020-10-29T19:27:25:782
9,233903	1,313660	-3,850052	2020-10-29T19:27:25:817
0,811167	-1,268196	3,249453	2020-10-29T19:27:29:104
1,079163	-1,701297	4,546363	2020-10-29T19:27:29:107
1,624727	-1,497907	5,434100	2020-10-29T19:27:29:117
1,844866	-2,105684	6,214160	2020-10-29T19:27:29:465
1,976472	-2,081756	6,843473	2020-10-29T19:27:29:466
2,734996	-1,430908	8,147561	2020-10-29T19:27:29:467
4,144369	-1,019342	10,585848	2020-10-29T19:27:29:467
5,998806	-0,126820	11,588440	2020-10-29T19:27:29:468
8,032705	1,524228	10,786844	2020-10-29T19:27:29:469
8,956335	2,957529	10,681561	2020-10-29T19:27:29:470
7,369894	4,833502	11,502297	2020-10-29T19:27:29:471
