v1	v2	v3	v4	ts
0,000000	0,000000	0,000000	0,000000	2020-10-29T19:26:04:317
0,000000	0,000000	0,000000	0,000000	2020-10-29T19:26:04:321
0,000000	0,000000	0,000000	0,000000	2020-10-29T19:26:04:345
0,000000	0,000000	0,000000	0,000000	2020-10-29T19:26:04:385
0,000000	0,000000	0,000000	0,000000	2020-10-29T19:26:04:424
0,000000	0,000000	0,000000	0,000000	2020-10-29T19:26:04:466
0,000000	0,000000	0,000000	0,000000	2020-10-29T19:26:04:505
0,000000	0,000000	0,000000	0,000000	2020-10-29T19:26:04:547
0,000000	0,000000	0,000000	0,000000	2020-10-29T19:26:04:585
0,000000	0,000000	0,000000	0,000000	2020-10-29T19:26:04:625
0,000000	0,000000	0,000000	0,000000	2020-10-29T19:26:04:665
0,000000	0,000000	0,000000	0,000000	2020-10-29T19:26:04:707
0,000000	0,000000	0,000000	0,000000	2020-10-29T19:26:04:747
0,000000	0,000000	0,000000	0,000000	2020-10-29T19:26:04:786
0,000000	0,000000	0,000000	0,000000	2020-10-29T19:26:04:826
0,000000	0,000000	0,000000	0,000000	2020-10-29T19:26:04:867
0,000000	0,000000	0,000000	0,000000	2020-10-29T19:26:04:906
0,000000	0,000000	0,000000	0,000000	2020-10-29T19:26:04:947
0,000000	0,000000	0,000000	0,000000	2020-10-29T19:26:04:986
0,000000	0,000000	0,000000	0,000000	2020-10-29T19:26:05:026
0,000000	0,000000	0,000000	0,000000	2020-10-29T19:26:05:067
0,000000	0,000000	0,000000	0,000000	2020-10-29T19:26:05:106
0,000000	0,000000	0,000000	0,000000	2020-10-29T19:26:05:146
0,000000	0,000000	0,000000	0,000000	2020-10-29T19:26:05:187
0,000000	0,000000	0,000000	0,000000	2020-10-29T19:26:05:334
0,000000	0,000000	0,000000	0,000000	2020-10-29T19:26:05:335
0,000000	0,000000	0,000000	0,000000	2020-10-29T19:26:05:336
0,000000	0,000000	0,000000	0,000000	2020-10-29T19:26:05:353
0,000000	0,000000	0,000000	0,000000	2020-10-29T19:26:05:387
0,000000	0,000000	0,000000	0,000000	2020-10-29T19:26:05:428
0,000000	0,000000	0,000000	0,000000	2020-10-29T19:26:05:467
0,000000	0,000000	0,000000	0,000000	2020-10-29T19:26:05:509
0,000000	0,000000	0,000000	0,000000	2020-10-29T19:26:05:548
0,000000	0,000000	0,000000	0,000000	2020-10-29T19:26:05:587
0,000000	0,000000	0,000000	0,000000	2020-10-29T19:26:05:628
0,000000	0,000000	0,000000	0,000000	2020-10-29T19:26:05:669
0,000000	0,000000	0,000000	0,000000	2020-10-29T19:26:05:707
0,000000	0,000000	0,000000	0,000000	2020-10-29T19:26:05:748
0,000000	0,000000	0,000000	0,000000	2020-10-29T19:26:05:787
0,000000	0,000000	0,000000	0,000000	2020-10-29T19:26:05:829
0,000000	0,000000	0,000000	0,000000	2020-10-29T19:26:05:867
0,000000	0,000000	0,000000	0,000000	2020-10-29T19:26:05:912
0,000000	0,000000	0,000000	0,000000	2020-10-29T19:26:05:950
0,000000	0,000000	0,000000	0,000000	2020-10-29T19:26:06:000
0,000000	0,000000	0,000000	0,000000	2020-10-29T19:26:06:030
0,000000	0,000000	0,000000	0,000000	2020-10-29T19:26:06:070
0,000000	0,000000	0,000000	0,000000	2020-10-29T19:26:06:110
0,000000	0,000000	0,000000	0,000000	2020-10-29T19:26:06:162
0,000000	0,000000	0,000000	0,000000	2020-10-29T19:26:12:113
0,000000	0,000000	0,000000	0,000000	2020-10-29T19:26:12:145
0,000000	0,000000	0,000000	0,000000	2020-10-29T19:26:12:172
0,000000	0,000000	0,000000	0,000000	2020-10-29T19:26:12:206
0,000000	0,000000	0,000000	0,000000	2020-10-29T19:26:12:250
0,000000	0,000000	0,000000	0,000000	2020-10-29T19:26:12:287
0,000000	0,000000	0,000000	0,000000	2020-10-29T19:26:12:328
0,000000	0,000000	0,000000	0,000000	2020-10-29T19:26:12:368
0,000000	0,000000	0,000000	0,000000	2020-10-29T19:26:12:410
0,000000	0,000000	0,000000	0,000000	2020-10-29T19:26:12:448
0,000000	0,000000	0,000000	0,000000	2020-10-29T19:26:12:488
0,000000	0,000000	0,000000	0,000000	2020-10-29T19:26:12:528
0,000000	0,000000	0,000000	0,000000	2020-10-29T19:26:12:569
0,000000	0,000000	0,000000	0,000000	2020-10-29T19:26:12:607
0,000000	0,000000	0,000000	0,000000	2020-10-29T19:26:12:650
0,000000	0,000000	0,000000	0,000000	2020-10-29T19:26:12:688
0,000000	0,000000	0,000000	0,000000	2020-10-29T19:26:12:728
0,000000	0,000000	0,000000	0,000000	2020-10-29T19:26:12:768
0,000000	0,000000	0,000000	0,000000	2020-10-29T19:26:12:809
0,000000	0,000000	0,000000	0,000000	2020-10-29T19:26:12:848
0,000000	0,000000	0,000000	0,000000	2020-10-29T19:26:12:890
0,000000	0,000000	0,000000	0,000000	2020-10-29T19:26:12:928
0,000000	0,000000	0,000000	0,000000	2020-10-29T19:26:12:969
0,000000	0,000000	0,000000	0,000000	2020-10-29T19:26:13:008
0,000000	0,000000	0,000000	0,000000	2020-10-29T19:26:13:050
0,000000	0,000000	0,000000	0,000000	2020-10-29T19:26:13:089
0,000000	0,000000	0,000000	0,000000	2020-10-29T19:26:13:131
0,000000	0,000000	0,000000	0,000000	2020-10-29T19:26:13:169
0,000000	0,000000	0,000000	0,000000	2020-10-29T19:26:13:209
0,000000	0,000000	0,000000	0,000000	2020-10-29T19:26:13:249
0,000000	0,000000	0,000000	0,000000	2020-10-29T19:26:13:290
0,000000	0,000000	0,000000	0,000000	2020-10-29T19:26:13:329
0,000000	0,000000	0,000000	0,000000	2020-10-29T19:26:13:371
0,000000	0,000000	0,000000	0,000000	2020-10-29T19:26:13:409
0,000000	0,000000	0,000000	0,000000	2020-10-29T19:26:13:449
0,000000	0,000000	0,000000	0,000000	2020-10-29T19:26:13:489
0,000000	0,000000	0,000000	0,000000	2020-10-29T19:26:13:530
0,000000	0,000000	0,000000	0,000000	2020-10-29T19:26:13:568
0,000000	0,000000	0,000000	0,000000	2020-10-29T19:26:13:611
0,000000	0,000000	0,000000	0,000000	2020-10-29T19:26:13:649
0,000000	0,000000	0,000000	0,000000	2020-10-29T19:26:13:689
0,000000	0,000000	0,000000	0,000000	2020-10-29T19:26:13:729
0,000000	0,000000	0,000000	0,000000	2020-10-29T19:26:13:770
0,000000	0,000000	0,000000	0,000000	2020-10-29T19:26:13:809
0,000000	0,000000	0,000000	0,000000	2020-10-29T19:26:13:851
0,000000	0,000000	0,000000	0,000000	2020-10-29T19:26:13:889
0,000000	0,000000	0,000000	0,000000	2020-10-29T19:26:13:930
0,000000	0,000000	0,000000	0,000000	2020-10-29T19:26:13:970
0,000000	0,000000	0,000000	0,000000	2020-10-29T19:26:14:010
0,000000	0,000000	0,000000	0,000000	2020-10-29T19:26:14:049
0,000000	0,000000	0,000000	0,000000	2020-10-29T19:26:14:093
0,000000	0,000000	0,000000	0,000000	2020-10-29T19:26:14:130
0,000000	0,000000	0,000000	0,000000	2020-10-29T19:26:14:170
0,000000	0,000000	0,000000	0,000000	2020-10-29T19:26:14:209
0,000000	0,000000	0,000000	0,000000	2020-10-29T19:26:14:255
0,000000	0,000000	0,000000	0,000000	2020-10-29T19:26:14:376
0,000000	0,000000	0,000000	0,000000	2020-10-29T19:26:14:377
0,000000	0,000000	0,000000	0,000000	2020-10-29T19:26:14:471
0,000000	0,000000	0,000000	0,000000	2020-10-29T19:26:14:481
0,000000	0,000000	0,000000	0,000000	2020-10-29T19:26:14:482
0,000000	0,000000	0,000000	0,000000	2020-10-29T19:26:14:488
0,000000	0,000000	0,000000	0,000000	2020-10-29T19:26:14:540
0,000000	0,000000	0,000000	0,000000	2020-10-29T19:26:14:571
0,000000	0,000000	0,000000	0,000000	2020-10-29T19:26:14:610
0,000000	0,000000	0,000000	0,000000	2020-10-29T19:26:14:654
0,000000	0,000000	0,000000	0,000000	2020-10-29T19:26:14:688
0,000000	0,000000	0,000000	0,000000	2020-10-29T19:26:14:729
0,000000	0,000000	0,000000	0,000000	2020-10-29T19:26:14:768
0,000000	0,000000	0,000000	0,000000	2020-10-29T19:26:14:813
0,000000	0,000000	0,000000	0,000000	2020-10-29T19:26:14:850
0,000000	0,000000	0,000000	0,000000	2020-10-29T19:26:14:891
0,000000	0,000000	0,000000	0,000000	2020-10-29T19:26:14:931
0,000000	0,000000	0,000000	0,000000	2020-10-29T19:26:14:971
0,000000	0,000000	0,000000	0,000000	2020-10-29T19:26:15:010
0,000000	0,000000	0,000000	0,000000	2020-10-29T19:26:15:053
0,000000	0,000000	0,000000	0,000000	2020-10-29T19:26:15:090
0,000000	0,000000	0,000000	0,000000	2020-10-29T19:26:15:131
0,000000	0,000000	0,000000	0,000000	2020-10-29T19:26:15:171
0,000000	0,000000	0,000000	0,000000	2020-10-29T19:26:15:211
0,000000	0,000000	0,000000	0,000000	2020-10-29T19:26:15:255
0,000000	0,000000	0,000000	0,000000	2020-10-29T19:26:15:292
0,000000	0,000000	0,000000	0,000000	2020-10-29T19:26:15:331
0,000000	0,000000	0,000000	0,000000	2020-10-29T19:26:15:372
0,000000	0,000000	0,000000	0,000000	2020-10-29T19:26:15:411
0,000000	0,000000	0,000000	0,000000	2020-10-29T19:26:15:453
0,000000	0,000000	0,000000	0,000000	2020-10-29T19:26:15:490
0,000000	0,000000	0,000000	0,000000	2020-10-29T19:26:15:534
0,000000	0,000000	0,000000	0,000000	2020-10-29T19:26:15:571
0,000000	0,000000	0,000000	0,000000	2020-10-29T19:26:15:611
0,000000	0,000000	0,000000	0,000000	2020-10-29T19:26:15:651
0,000000	0,000000	0,000000	0,000000	2020-10-29T19:26:15:691
0,000000	0,000000	0,000000	0,000000	2020-10-29T19:26:15:799
0,000000	0,000000	0,000000	0,000000	2020-10-29T19:26:15:800
0,000000	0,000000	0,000000	0,000000	2020-10-29T19:26:15:848
0,000000	0,000000	0,000000	0,000000	2020-10-29T19:26:15:851
0,000000	0,000000	0,000000	0,000000	2020-10-29T19:26:15:931
0,000000	0,000000	0,000000	0,000000	2020-10-29T19:26:15:933
0,000000	0,000000	0,000000	0,000000	2020-10-29T19:26:15:970
0,000000	0,000000	0,000000	0,000000	2020-10-29T19:26:16:014
0,000000	0,000000	0,000000	0,000000	2020-10-29T19:26:16:062
0,000000	0,000000	0,000000	0,000000	2020-10-29T19:26:16:092
0,000000	0,000000	0,000000	0,000000	2020-10-29T19:26:16:134
0,000000	0,000000	0,000000	0,000000	2020-10-29T19:26:16:172
0,000000	0,000000	0,000000	0,000000	2020-10-29T19:26:16:211
0,000000	0,000000	0,000000	0,000000	2020-10-29T19:26:16:254
0,000000	0,000000	0,000000	0,000000	2020-10-29T19:26:16:292
0,000000	0,000000	0,000000	0,000000	2020-10-29T19:26:16:333
0,000000	0,000000	0,000000	0,000000	2020-10-29T19:26:16:411
0,000000	0,000000	0,000000	0,000000	2020-10-29T19:26:16:419
0,000000	0,000000	0,000000	0,000000	2020-10-29T19:26:16:452
0,000000	0,000000	0,000000	0,000000	2020-10-29T19:26:16:494
0,000000	0,000000	0,000000	0,000000	2020-10-29T19:26:16:538
0,000000	0,000000	0,000000	0,000000	2020-10-29T19:26:16:571
0,000000	0,000000	0,000000	0,000000	2020-10-29T19:26:16:613
0,000000	0,000000	0,000000	0,000000	2020-10-29T19:26:16:662
0,000000	0,000000	0,000000	0,000000	2020-10-29T19:26:16:706
0,000000	0,000000	0,000000	0,000000	2020-10-29T19:26:16:751
0,000000	0,000000	0,000000	0,000000	2020-10-29T19:26:16:773
0,000000	0,000000	0,000000	0,000000	2020-10-29T19:26:16:811
0,000000	0,000000	0,000000	0,000000	2020-10-29T19:26:16:851
0,000000	0,000000	0,000000	0,000000	2020-10-29T19:26:16:892
0,000000	0,000000	0,000000	0,000000	2020-10-29T19:26:16:932
0,000000	0,000000	0,000000	0,000000	2020-10-29T19:26:16:974
0,000000	0,000000	0,000000	0,000000	2020-10-29T19:26:17:012
0,000000	0,000000	0,000000	0,000000	2020-10-29T19:26:17:052
0,000000	0,000000	0,000000	0,000000	2020-10-29T19:26:17:092
0,000000	0,000000	0,000000	0,000000	2020-10-29T19:26:17:134
0,000000	0,000000	0,000000	0,000000	2020-10-29T19:26:17:172
0,000000	0,000000	0,000000	0,000000	2020-10-29T19:26:17:214
0,000000	0,000000	0,000000	0,000000	2020-10-29T19:26:17:252
0,000000	0,000000	0,000000	0,000000	2020-10-29T19:26:17:293
0,000000	0,000000	0,000000	0,000000	2020-10-29T19:26:17:333
0,000000	0,000000	0,000000	0,000000	2020-10-29T19:26:17:373
0,000000	0,000000	0,000000	0,000000	2020-10-29T19:26:17:412
0,000000	0,000000	0,000000	0,000000	2020-10-29T19:26:17:455
0,000000	0,000000	0,000000	0,000000	2020-10-29T19:26:17:493
0,000000	0,000000	0,000000	0,000000	2020-10-29T19:26:17:534
0,000000	0,000000	0,000000	0,000000	2020-10-29T19:26:17:573
0,000000	0,000000	0,000000	0,000000	2020-10-29T19:26:17:614
0,000000	0,000000	0,000000	0,000000	2020-10-29T19:26:17:653
0,000000	0,000000	0,000000	0,000000	2020-10-29T19:26:17:727
0,000000	0,000000	0,000000	0,000000	2020-10-29T19:26:17:733
0,000000	0,000000	0,000000	0,000000	2020-10-29T19:26:17:773
0,000000	0,000000	0,000000	0,000000	2020-10-29T19:26:17:813
0,000000	0,000000	0,000000	0,000000	2020-10-29T19:26:17:854
0,000000	0,000000	0,000000	0,000000	2020-10-29T19:26:17:894
0,000000	0,000000	0,000000	0,000000	2020-10-29T19:26:17:935
0,000000	0,000000	0,000000	0,000000	2020-10-29T19:26:17:973
0,000000	0,000000	0,000000	0,000000	2020-10-29T19:26:18:014
0,000000	0,000000	0,000000	0,000000	2020-10-29T19:26:18:054
0,000000	0,000000	0,000000	0,000000	2020-10-29T19:26:18:094
0,000000	0,000000	0,000000	0,000000	2020-10-29T19:26:18:135
0,000000	0,000000	0,000000	0,000000	2020-10-29T19:26:27:125
0,000000	0,000000	0,000000	0,000000	2020-10-29T19:26:27:131
0,000000	0,000000	0,000000	0,000000	2020-10-29T19:26:27:161
0,000000	0,000000	0,000000	0,000000	2020-10-29T19:26:27:202
0,000000	0,000000	0,000000	0,000000	2020-10-29T19:26:27:241
0,000000	0,000000	0,000000	0,000000	2020-10-29T19:26:27:286
0,000000	0,000000	0,000000	0,000000	2020-10-29T19:26:27:321
0,000000	0,000000	0,000000	0,000000	2020-10-29T19:26:27:362
0,000000	0,000000	0,000000	0,000000	2020-10-29T19:26:27:402
0,000000	0,000000	0,000000	0,000000	2020-10-29T19:26:27:443
0,000000	0,000000	0,000000	0,000000	2020-10-29T19:26:27:482
0,000000	0,000000	0,000000	0,000000	2020-10-29T19:26:27:527
0,000000	0,000000	0,000000	0,000000	2020-10-29T19:26:27:563
0,000000	0,000000	0,000000	0,000000	2020-10-29T19:26:27:604
0,000000	0,000000	0,000000	0,000000	2020-10-29T19:26:27:642
0,000000	0,000000	0,000000	0,000000	2020-10-29T19:26:27:683
0,000000	0,000000	0,000000	0,000000	2020-10-29T19:26:27:722
0,000000	0,000000	0,000000	0,000000	2020-10-29T19:26:27:765
0,000000	0,000000	0,000000	0,000000	2020-10-29T19:26:27:803
0,000000	0,000000	0,000000	0,000000	2020-10-29T19:26:27:843
0,000000	0,000000	0,000000	0,000000	2020-10-29T19:26:27:883
0,000000	0,000000	0,000000	0,000000	2020-10-29T19:26:27:923
0,000000	0,000000	0,000000	0,000000	2020-10-29T19:26:27:963
0,000000	0,000000	0,000000	0,000000	2020-10-29T19:26:28:006
0,000000	0,000000	0,000000	0,000000	2020-10-29T19:26:28:042
0,000000	0,000000	0,000000	0,000000	2020-10-29T19:26:28:083
0,000000	0,000000	0,000000	0,000000	2020-10-29T19:26:28:123
0,000000	0,000000	0,000000	0,000000	2020-10-29T19:26:28:164
0,000000	0,000000	0,000000	0,000000	2020-10-29T19:26:28:204
0,000000	0,000000	0,000000	0,000000	2020-10-29T19:26:28:246
0,000000	0,000000	0,000000	0,000000	2020-10-29T19:26:28:283
0,000000	0,000000	0,000000	0,000000	2020-10-29T19:26:28:324
0,000000	0,000000	0,000000	0,000000	2020-10-29T19:26:28:363
0,000000	0,000000	0,000000	0,000000	2020-10-29T19:26:28:404
0,000000	0,000000	0,000000	0,000000	2020-10-29T19:26:28:443
0,000000	0,000000	0,000000	0,000000	2020-10-29T19:26:28:485
0,000000	0,000000	0,000000	0,000000	2020-10-29T19:26:28:524
0,000000	0,000000	0,000000	0,000000	2020-10-29T19:26:28:563
0,000000	0,000000	0,000000	0,000000	2020-10-29T19:26:28:603
0,000000	0,000000	0,000000	0,000000	2020-10-29T19:26:28:644
0,000000	0,000000	0,000000	0,000000	2020-10-29T19:26:28:683
0,000000	0,000000	0,000000	0,000000	2020-10-29T19:26:28:726
0,000000	0,000000	0,000000	0,000000	2020-10-29T19:26:28:763
0,000000	0,000000	0,000000	0,000000	2020-10-29T19:26:28:805
0,000000	0,000000	0,000000	0,000000	2020-10-29T19:26:28:842
0,000000	0,000000	0,000000	0,000000	2020-10-29T19:26:28:885
0,000000	0,000000	0,000000	0,000000	2020-10-29T19:26:28:923
0,000000	0,000000	0,000000	0,000000	2020-10-29T19:26:28:965
0,000000	0,000000	0,000000	0,000000	2020-10-29T19:26:29:004
0,000000	0,000000	0,000000	0,000000	2020-10-29T19:26:29:044
0,000000	0,000000	0,000000	0,000000	2020-10-29T19:26:29:084
0,000000	0,000000	0,000000	0,000000	2020-10-29T19:26:29:124
0,000000	0,000000	0,000000	0,000000	2020-10-29T19:26:29:164
0,000000	0,000000	0,000000	0,000000	2020-10-29T19:26:29:206
0,000000	0,000000	0,000000	0,000000	2020-10-29T19:26:29:244
0,000000	0,000000	0,000000	0,000000	2020-10-29T19:26:29:285
0,000000	0,000000	0,000000	0,000000	2020-10-29T19:26:29:324
0,000000	0,000000	0,000000	0,000000	2020-10-29T19:26:29:365
0,000000	0,000000	0,000000	0,000000	2020-10-29T19:26:29:404
0,000000	0,000000	0,000000	0,000000	2020-10-29T19:26:29:446
0,000000	0,000000	0,000000	0,000000	2020-10-29T19:26:29:485
0,000000	0,000000	0,000000	0,000000	2020-10-29T19:26:29:527
0,000000	0,000000	0,000000	0,000000	2020-10-29T19:26:29:564
0,000000	0,000000	0,000000	0,000000	2020-10-29T19:26:29:605
0,000000	0,000000	0,000000	0,000000	2020-10-29T19:26:29:644
0,000000	0,000000	0,000000	0,000000	2020-10-29T19:26:29:687
0,000000	0,000000	0,000000	0,000000	2020-10-29T19:26:29:724
0,000000	0,000000	0,000000	0,000000	2020-10-29T19:26:29:765
0,000000	0,000000	0,000000	0,000000	2020-10-29T19:26:29:805
0,000000	0,000000	0,000000	0,000000	2020-10-29T19:26:29:845
0,000000	0,000000	0,000000	0,000000	2020-10-29T19:26:29:885
0,000000	0,000000	0,000000	0,000000	2020-10-29T19:26:29:928
0,000000	0,000000	0,000000	0,000000	2020-10-29T19:26:29:965
0,000000	0,000000	0,000000	0,000000	2020-10-29T19:26:30:006
0,000000	0,000000	0,000000	0,000000	2020-10-29T19:26:30:045
0,000000	0,000000	0,000000	0,000000	2020-10-29T19:26:30:086
0,000000	0,000000	0,000000	0,000000	2020-10-29T19:26:30:125
0,000000	0,000000	0,000000	0,000000	2020-10-29T19:26:30:167
0,000000	0,000000	0,000000	0,000000	2020-10-29T19:26:30:205
0,000000	0,000000	0,000000	0,000000	2020-10-29T19:26:30:245
0,000000	0,000000	0,000000	0,000000	2020-10-29T19:26:30:285
0,000000	0,000000	0,000000	0,000000	2020-10-29T19:26:30:326
0,000000	0,000000	0,000000	0,000000	2020-10-29T19:26:30:365
0,000000	0,000000	0,000000	0,000000	2020-10-29T19:26:30:407
0,000000	0,000000	0,000000	0,000000	2020-10-29T19:26:30:445
0,000000	0,000000	0,000000	0,000000	2020-10-29T19:26:30:487
0,000000	0,000000	0,000000	0,000000	2020-10-29T19:26:30:534
54,000000	0,000000	0,000000	0,000000	2020-10-29T19:26:30:566
53,000000	0,000000	0,000000	0,000000	2020-10-29T19:26:30:605
53,000000	0,000000	0,000000	0,000000	2020-10-29T19:26:30:646
53,000000	0,000000	0,000000	0,000000	2020-10-29T19:26:30:685
53,000000	0,000000	0,000000	0,000000	2020-10-29T19:26:30:725
53,000000	0,000000	0,000000	0,000000	2020-10-29T19:26:30:764
53,000000	0,000000	0,000000	0,000000	2020-10-29T19:26:30:805
53,000000	0,000000	0,000000	0,000000	2020-10-29T19:26:30:845
53,000000	0,000000	0,000000	0,000000	2020-10-29T19:26:30:887
53,000000	0,000000	0,000000	0,000000	2020-10-29T19:26:30:925
53,000000	0,000000	0,000000	0,000000	2020-10-29T19:26:30:965
53,000000	0,000000	0,000000	0,000000	2020-10-29T19:26:31:006
53,000000	0,000000	0,000000	0,000000	2020-10-29T19:26:31:046
53,000000	0,000000	0,000000	0,000000	2020-10-29T19:26:31:085
53,000000	0,000000	0,000000	0,000000	2020-10-29T19:26:31:127
53,000000	0,000000	0,000000	0,000000	2020-10-29T19:26:31:165
53,000000	0,000000	0,000000	0,000000	2020-10-29T19:26:31:206
53,000000	0,000000	0,000000	0,000000	2020-10-29T19:26:31:246
53,000000	0,000000	0,000000	0,000000	2020-10-29T19:26:31:286
53,000000	0,000000	0,000000	0,000000	2020-10-29T19:26:31:325
53,000000	0,000000	0,000000	0,000000	2020-10-29T19:26:31:367
53,000000	0,000000	0,000000	0,000000	2020-10-29T19:26:31:406
53,000000	0,000000	0,000000	0,000000	2020-10-29T19:26:31:445
53,000000	0,000000	0,000000	0,000000	2020-10-29T19:26:31:486
53,000000	0,000000	0,000000	0,000000	2020-10-29T19:26:31:526
53,000000	0,000000	0,000000	0,000000	2020-10-29T19:26:31:565
53,000000	0,000000	0,000000	0,000000	2020-10-29T19:26:31:608
53,000000	0,000000	0,000000	0,000000	2020-10-29T19:26:31:646
53,000000	0,000000	0,000000	0,000000	2020-10-29T19:26:31:686
53,000000	0,000000	0,000000	0,000000	2020-10-29T19:26:31:726
53,000000	0,000000	0,000000	0,000000	2020-10-29T19:26:31:766
53,000000	0,000000	0,000000	0,000000	2020-10-29T19:26:31:806
53,000000	0,000000	0,000000	0,000000	2020-10-29T19:26:31:847
53,000000	0,000000	0,000000	0,000000	2020-10-29T19:26:31:886
53,000000	0,000000	0,000000	0,000000	2020-10-29T19:26:31:926
53,000000	0,000000	0,000000	0,000000	2020-10-29T19:26:31:966
53,000000	0,000000	0,000000	0,000000	2020-10-29T19:26:32:007
53,000000	0,000000	0,000000	0,000000	2020-10-29T19:26:32:047
53,000000	0,000000	0,000000	0,000000	2020-10-29T19:26:32:088
53,000000	0,000000	0,000000	0,000000	2020-10-29T19:26:32:134
53,000000	0,000000	0,000000	0,000000	2020-10-29T19:26:32:166
53,000000	0,000000	0,000000	0,000000	2020-10-29T19:26:32:207
53,000000	0,000000	0,000000	0,000000	2020-10-29T19:26:32:247
53,000000	0,000000	0,000000	0,000000	2020-10-29T19:26:32:286
53,000000	0,000000	0,000000	0,000000	2020-10-29T19:26:32:327
53,000000	0,000000	0,000000	0,000000	2020-10-29T19:26:32:366
53,000000	0,000000	0,000000	0,000000	2020-10-29T19:26:32:407
53,000000	0,000000	0,000000	0,000000	2020-10-29T19:26:32:447
53,000000	0,000000	0,000000	0,000000	2020-10-29T19:26:32:487
53,000000	0,000000	0,000000	0,000000	2020-10-29T19:26:32:527
53,000000	0,000000	0,000000	0,000000	2020-10-29T19:26:32:567
53,000000	0,000000	0,000000	0,000000	2020-10-29T19:26:32:607
53,000000	0,000000	0,000000	0,000000	2020-10-29T19:26:32:647
53,000000	0,000000	0,000000	0,000000	2020-10-29T19:26:32:687
53,000000	0,000000	0,000000	0,000000	2020-10-29T19:26:32:727
53,000000	0,000000	0,000000	0,000000	2020-10-29T19:26:32:766
53,000000	0,000000	0,000000	0,000000	2020-10-29T19:26:32:809
53,000000	0,000000	0,000000	0,000000	2020-10-29T19:26:32:847
53,000000	0,000000	0,000000	0,000000	2020-10-29T19:26:32:887
53,000000	0,000000	0,000000	0,000000	2020-10-29T19:26:32:927
53,000000	0,000000	0,000000	0,000000	2020-10-29T19:26:32:967
53,000000	0,000000	0,000000	0,000000	2020-10-29T19:26:33:007
53,000000	0,000000	0,000000	0,000000	2020-10-29T19:26:33:049
53,000000	0,000000	0,000000	0,000000	2020-10-29T19:26:33:086
53,000000	0,000000	0,000000	0,000000	2020-10-29T19:26:33:127
53,000000	0,000000	0,000000	0,000000	2020-10-29T19:26:33:167
53,000000	0,000000	0,000000	0,000000	2020-10-29T19:26:33:208
53,000000	0,000000	0,000000	0,000000	2020-10-29T19:26:33:246
53,000000	0,000000	0,000000	0,000000	2020-10-29T19:26:33:288
53,000000	0,000000	0,000000	0,000000	2020-10-29T19:26:33:327
53,000000	0,000000	0,000000	0,000000	2020-10-29T19:26:33:367
52,000000	0,000000	0,000000	0,000000	2020-10-29T19:26:33:408
52,000000	0,000000	0,000000	0,000000	2020-10-29T19:26:33:448
52,000000	0,000000	0,000000	0,000000	2020-10-29T19:26:33:488
53,000000	0,000000	0,000000	0,000000	2020-10-29T19:26:33:533
53,000000	0,000000	0,000000	0,000000	2020-10-29T19:26:33:568
53,000000	0,000000	0,000000	0,000000	2020-10-29T19:26:33:607
53,000000	0,000000	0,000000	0,000000	2020-10-29T19:26:33:648
53,000000	0,000000	0,000000	0,000000	2020-10-29T19:26:33:688
53,000000	0,000000	0,000000	0,000000	2020-10-29T19:26:33:728
53,000000	0,000000	0,000000	0,000000	2020-10-29T19:26:33:769
53,000000	0,000000	0,000000	0,000000	2020-10-29T19:26:33:808
53,000000	0,000000	0,000000	0,000000	2020-10-29T19:26:33:848
53,000000	0,000000	0,000000	0,000000	2020-10-29T19:26:33:889
53,000000	0,000000	0,000000	0,000000	2020-10-29T19:26:33:928
53,000000	0,000000	0,000000	0,000000	2020-10-29T19:26:33:968
53,000000	0,000000	0,000000	0,000000	2020-10-29T19:26:34:010
53,000000	0,000000	0,000000	0,000000	2020-10-29T19:26:34:048
53,000000	0,000000	0,000000	0,000000	2020-10-29T19:26:34:089
53,000000	0,000000	0,000000	0,000000	2020-10-29T19:26:34:128
53,000000	0,000000	0,000000	0,000000	2020-10-29T19:26:34:168
52,000000	0,000000	0,000000	0,000000	2020-10-29T19:26:34:209
52,000000	0,000000	0,000000	0,000000	2020-10-29T19:26:34:250
52,000000	0,000000	0,000000	0,000000	2020-10-29T19:26:34:289
52,000000	0,000000	0,000000	0,000000	2020-10-29T19:26:34:328
52,000000	0,000000	0,000000	0,000000	2020-10-29T19:26:34:369
52,000000	0,000000	0,000000	0,000000	2020-10-29T19:26:34:409
52,000000	0,000000	0,000000	0,000000	2020-10-29T19:26:34:449
52,000000	0,000000	0,000000	0,000000	2020-10-29T19:26:34:492
52,000000	0,000000	0,000000	0,000000	2020-10-29T19:26:34:529
52,000000	0,000000	0,000000	0,000000	2020-10-29T19:26:34:569
52,000000	0,000000	0,000000	0,000000	2020-10-29T19:26:34:609
52,000000	0,000000	0,000000	0,000000	2020-10-29T19:26:34:649
52,000000	0,000000	0,000000	0,000000	2020-10-29T19:26:34:689
52,000000	0,000000	0,000000	0,000000	2020-10-29T19:26:34:731
52,000000	0,000000	0,000000	0,000000	2020-10-29T19:26:34:769
52,000000	0,000000	0,000000	0,000000	2020-10-29T19:26:34:809
52,000000	0,000000	0,000000	0,000000	2020-10-29T19:26:34:849
52,000000	0,000000	1319,000000	0,000000	2020-10-29T19:26:34:889
52,000000	0,000000	1319,000000	0,000000	2020-10-29T19:26:34:929
52,000000	0,000000	1319,000000	0,000000	2020-10-29T19:26:34:970
52,000000	0,000000	1319,000000	0,000000	2020-10-29T19:26:35:010
53,000000	0,000000	1319,000000	0,000000	2020-10-29T19:26:35:049
53,000000	0,000000	1319,000000	0,000000	2020-10-29T19:26:35:089
52,000000	0,000000	1319,000000	0,000000	2020-10-29T19:26:35:129
52,000000	0,000000	1319,000000	0,000000	2020-10-29T19:26:35:169
52,000000	0,000000	1319,000000	0,000000	2020-10-29T19:26:35:211
53,000000	0,000000	1319,000000	0,000000	2020-10-29T19:26:35:249
53,000000	0,000000	1319,000000	0,000000	2020-10-29T19:26:35:289
52,000000	0,000000	1319,000000	0,000000	2020-10-29T19:26:35:329
52,000000	0,000000	1319,000000	0,000000	2020-10-29T19:26:35:369
53,000000	0,000000	1319,000000	0,000000	2020-10-29T19:26:35:409
53,000000	0,000000	1319,000000	0,000000	2020-10-29T19:26:35:451
53,000000	0,000000	1319,000000	0,000000	2020-10-29T19:26:35:490
53,000000	0,000000	1319,000000	0,000000	2020-10-29T19:26:35:529
53,000000	0,000000	1319,000000	0,000000	2020-10-29T19:26:35:569
53,000000	0,000000	1319,000000	0,000000	2020-10-29T19:26:35:610
53,000000	0,000000	1319,000000	0,000000	2020-10-29T19:26:35:649
53,000000	0,000000	1319,000000	0,000000	2020-10-29T19:26:35:692
53,000000	0,000000	1319,000000	0,000000	2020-10-29T19:26:35:730
53,000000	0,000000	1319,000000	0,000000	2020-10-29T19:26:35:770
53,000000	0,000000	1319,000000	0,000000	2020-10-29T19:26:35:810
53,000000	0,000000	1319,000000	0,000000	2020-10-29T19:26:35:850
53,000000	0,000000	1319,000000	0,000000	2020-10-29T19:26:35:890
53,000000	0,000000	1319,000000	0,000000	2020-10-29T19:26:35:931
53,000000	0,000000	1319,000000	0,000000	2020-10-29T19:26:35:970
53,000000	0,000000	1319,000000	0,000000	2020-10-29T19:26:36:011
53,000000	0,000000	1319,000000	0,000000	2020-10-29T19:26:36:052
53,000000	0,000000	1319,000000	0,000000	2020-10-29T19:26:36:103
53,000000	0,000000	1319,000000	0,000000	2020-10-29T19:26:36:135
53,000000	0,000000	1319,000000	0,000000	2020-10-29T19:26:36:186
53,000000	0,000000	1319,000000	0,000000	2020-10-29T19:26:36:216
53,000000	0,000000	1319,000000	0,000000	2020-10-29T19:26:36:255
53,000000	0,000000	1319,000000	0,000000	2020-10-29T19:26:36:294
53,000000	0,000000	1319,000000	0,000000	2020-10-29T19:26:36:348
53,000000	0,000000	1319,000000	0,000000	2020-10-29T19:26:36:374
53,000000	0,000000	1319,000000	0,000000	2020-10-29T19:26:36:410
53,000000	0,000000	1319,000000	0,000000	2020-10-29T19:26:36:450
53,000000	0,000000	1319,000000	0,000000	2020-10-29T19:26:36:491
54,000000	0,000000	1319,000000	0,000000	2020-10-29T19:26:36:531
54,000000	0,000000	1319,000000	0,000000	2020-10-29T19:26:36:571
54,000000	0,000000	1319,000000	0,000000	2020-10-29T19:26:36:611
54,000000	0,000000	1319,000000	0,000000	2020-10-29T19:26:36:659
54,000000	0,000000	1319,000000	0,000000	2020-10-29T19:26:36:692
54,000000	0,000000	1319,000000	0,000000	2020-10-29T19:26:36:731
54,000000	0,000000	1319,000000	0,000000	2020-10-29T19:26:36:771
54,000000	0,000000	1319,000000	0,000000	2020-10-29T19:26:36:811
54,000000	0,000000	1319,000000	0,000000	2020-10-29T19:26:36:850
54,000000	0,000000	1319,000000	0,000000	2020-10-29T19:26:36:895
54,000000	0,000000	1319,000000	0,000000	2020-10-29T19:26:36:931
54,000000	0,000000	1319,000000	0,000000	2020-10-29T19:26:36:982
56,000000	0,000000	1180,000000	0,000000	2020-10-29T19:26:53:146
56,000000	0,000000	1180,000000	0,000000	2020-10-29T19:26:53:148
56,000000	0,000000	1180,000000	0,000000	2020-10-29T19:26:53:149
56,000000	0,000000	1180,000000	0,000000	2020-10-29T19:26:53:170
56,000000	0,000000	1180,000000	0,000000	2020-10-29T19:26:53:211
56,000000	0,000000	1180,000000	0,000000	2020-10-29T19:26:53:252
56,000000	0,000000	1180,000000	0,000000	2020-10-29T19:26:53:291
56,000000	0,000000	1180,000000	0,000000	2020-10-29T19:26:53:331
56,000000	0,000000	1180,000000	0,000000	2020-10-29T19:26:53:370
56,000000	0,000000	1180,000000	0,000000	2020-10-29T19:26:53:412
56,000000	0,000000	1180,000000	0,000000	2020-10-29T19:26:53:450
56,000000	0,000000	1180,000000	0,000000	2020-10-29T19:26:53:491
56,000000	0,000000	1180,000000	0,000000	2020-10-29T19:26:53:532
56,000000	0,000000	1180,000000	0,000000	2020-10-29T19:26:53:572
56,000000	0,000000	1180,000000	0,000000	2020-10-29T19:26:53:611
56,000000	0,000000	1180,000000	0,000000	2020-10-29T19:26:53:651
56,000000	0,000000	1180,000000	0,000000	2020-10-29T19:26:53:691
56,000000	0,000000	1180,000000	0,000000	2020-10-29T19:26:53:731
56,000000	0,000000	1180,000000	0,000000	2020-10-29T19:26:53:772
56,000000	0,000000	1180,000000	0,000000	2020-10-29T19:26:53:811
56,000000	0,000000	1180,000000	0,000000	2020-10-29T19:26:53:850
56,000000	0,000000	1242,000000	0,000000	2020-10-29T19:26:53:891
56,000000	0,000000	1242,000000	0,000000	2020-10-29T19:26:53:930
56,000000	0,000000	1242,000000	0,000000	2020-10-29T19:26:53:972
56,000000	0,000000	1242,000000	0,000000	2020-10-29T19:26:54:013
57,000000	0,000000	1242,000000	0,000000	2020-10-29T19:26:54:052
57,000000	0,000000	1242,000000	0,000000	2020-10-29T19:26:54:092
56,000000	0,000000	1242,000000	0,000000	2020-10-29T19:26:54:131
56,000000	0,000000	1242,000000	0,000000	2020-10-29T19:26:54:171
57,000000	0,000000	1242,000000	0,000000	2020-10-29T19:26:54:212
57,000000	0,000000	1242,000000	0,000000	2020-10-29T19:26:54:253
57,000000	0,000000	1242,000000	0,000000	2020-10-29T19:26:54:291
57,000000	0,000000	1242,000000	0,000000	2020-10-29T19:26:54:331
57,000000	0,000000	1242,000000	0,000000	2020-10-29T19:26:54:372
57,000000	0,000000	1242,000000	0,000000	2020-10-29T19:26:54:411
57,000000	0,000000	1242,000000	0,000000	2020-10-29T19:26:54:452
57,000000	0,000000	1242,000000	0,000000	2020-10-29T19:26:54:493
57,000000	0,000000	1242,000000	0,000000	2020-10-29T19:26:54:532
57,000000	0,000000	1242,000000	0,000000	2020-10-29T19:26:54:572
57,000000	0,000000	1242,000000	0,000000	2020-10-29T19:26:54:613
57,000000	0,000000	1242,000000	0,000000	2020-10-29T19:26:54:652
57,000000	0,000000	1242,000000	0,000000	2020-10-29T19:26:54:692
57,000000	0,000000	1242,000000	0,000000	2020-10-29T19:26:54:733
57,000000	0,000000	1242,000000	0,000000	2020-10-29T19:26:54:773
57,000000	0,000000	1242,000000	0,000000	2020-10-29T19:26:54:812
57,000000	0,000000	1242,000000	0,000000	2020-10-29T19:26:54:853
57,000000	0,000000	1242,000000	0,000000	2020-10-29T19:26:54:892
57,000000	0,000000	1242,000000	0,000000	2020-10-29T19:26:54:933
57,000000	0,000000	1242,000000	0,000000	2020-10-29T19:26:54:973
57,000000	0,000000	1242,000000	0,000000	2020-10-29T19:26:55:019
57,000000	0,000000	1242,000000	0,000000	2020-10-29T19:26:55:052
57,000000	0,000000	1242,000000	0,000000	2020-10-29T19:26:55:093
57,000000	0,000000	1242,000000	0,000000	2020-10-29T19:26:55:132
57,000000	0,000000	1242,000000	0,000000	2020-10-29T19:26:55:173
58,000000	0,000000	1242,000000	0,000000	2020-10-29T19:26:55:213
58,000000	0,000000	1242,000000	0,000000	2020-10-29T19:26:55:252
58,000000	0,000000	1242,000000	0,000000	2020-10-29T19:26:55:292
58,000000	0,000000	1242,000000	0,000000	2020-10-29T19:26:55:336
58,000000	0,000000	1242,000000	0,000000	2020-10-29T19:26:55:372
58,000000	0,000000	1242,000000	0,000000	2020-10-29T19:26:55:413
58,000000	0,000000	1242,000000	0,000000	2020-10-29T19:26:55:454
58,000000	0,000000	1242,000000	0,000000	2020-10-29T19:26:55:493
58,000000	0,000000	1242,000000	0,000000	2020-10-29T19:26:55:532
58,000000	0,000000	1242,000000	0,000000	2020-10-29T19:26:55:574
58,000000	0,000000	1242,000000	0,000000	2020-10-29T19:26:55:613
57,000000	0,000000	1242,000000	0,000000	2020-10-29T19:26:55:653
57,000000	0,000000	1242,000000	0,000000	2020-10-29T19:26:55:694
57,000000	0,000000	1242,000000	0,000000	2020-10-29T19:26:55:734
58,000000	0,000000	1242,000000	0,000000	2020-10-29T19:26:55:773
58,000000	0,000000	1242,000000	0,000000	2020-10-29T19:26:55:814
58,000000	0,000000	1148,000000	0,000000	2020-10-29T19:26:55:853
58,000000	0,000000	1148,000000	0,000000	2020-10-29T19:26:55:894
58,000000	0,000000	1148,000000	0,000000	2020-10-29T19:26:55:933
58,000000	0,000000	1148,000000	0,000000	2020-10-29T19:26:55:973
58,000000	0,000000	1148,000000	0,000000	2020-10-29T19:26:56:013
58,000000	0,000000	1148,000000	0,000000	2020-10-29T19:26:56:054
58,000000	0,000000	1148,000000	0,000000	2020-10-29T19:26:56:094
58,000000	0,000000	1148,000000	0,000000	2020-10-29T19:26:56:133
58,000000	0,000000	1148,000000	0,000000	2020-10-29T19:26:56:175
58,000000	0,000000	1148,000000	0,000000	2020-10-29T19:26:56:215
58,000000	0,000000	1148,000000	0,000000	2020-10-29T19:26:56:253
58,000000	0,000000	1148,000000	0,000000	2020-10-29T19:26:56:295
58,000000	0,000000	1148,000000	0,000000	2020-10-29T19:26:56:333
58,000000	0,000000	1148,000000	0,000000	2020-10-29T19:26:56:374
58,000000	0,000000	1148,000000	0,000000	2020-10-29T19:26:56:416
58,000000	0,000000	1148,000000	0,000000	2020-10-29T19:26:56:454
59,000000	0,000000	1148,000000	0,000000	2020-10-29T19:26:56:493
58,000000	0,000000	1148,000000	0,000000	2020-10-29T19:26:56:535
59,000000	0,000000	1148,000000	0,000000	2020-10-29T19:26:56:574
59,000000	0,000000	1148,000000	0,000000	2020-10-29T19:26:56:614
58,000000	0,000000	1148,000000	0,000000	2020-10-29T19:26:56:654
58,000000	0,000000	1148,000000	0,000000	2020-10-29T19:26:56:695
58,000000	0,000000	1148,000000	0,000000	2020-10-29T19:26:56:734
59,000000	0,000000	1148,000000	0,000000	2020-10-29T19:26:56:775
59,000000	0,000000	1148,000000	0,000000	2020-10-29T19:26:56:814
59,000000	0,000000	1148,000000	0,000000	2020-10-29T19:26:56:854
58,000000	0,000000	1148,000000	0,000000	2020-10-29T19:26:56:896
58,000000	0,000000	1148,000000	0,000000	2020-10-29T19:26:56:935
58,000000	0,000000	1148,000000	0,000000	2020-10-29T19:26:56:974
58,000000	0,000000	1148,000000	0,000000	2020-10-29T19:26:57:016
58,000000	0,000000	1148,000000	0,000000	2020-10-29T19:26:57:054
58,000000	0,000000	1148,000000	0,000000	2020-10-29T19:26:57:094
59,000000	0,000000	1148,000000	0,000000	2020-10-29T19:26:57:136
59,000000	0,000000	1148,000000	0,000000	2020-10-29T19:26:57:176
59,000000	0,000000	1148,000000	0,000000	2020-10-29T19:26:57:214
59,000000	0,000000	1148,000000	0,000000	2020-10-29T19:26:57:255
58,000000	0,000000	1148,000000	0,000000	2020-10-29T19:26:57:294
58,000000	0,000000	1148,000000	0,000000	2020-10-29T19:26:57:335
58,000000	0,000000	1148,000000	0,000000	2020-10-29T19:26:57:376
58,000000	0,000000	1148,000000	0,000000	2020-10-29T19:26:57:416
58,000000	0,000000	1148,000000	0,000000	2020-10-29T19:26:57:454
58,000000	0,000000	1148,000000	0,000000	2020-10-29T19:26:57:495
58,000000	0,000000	1148,000000	0,000000	2020-10-29T19:26:57:534
58,000000	0,000000	1148,000000	0,000000	2020-10-29T19:26:57:576
58,000000	0,000000	1148,000000	0,000000	2020-10-29T19:26:57:616
58,000000	0,000000	1148,000000	0,000000	2020-10-29T19:26:57:656
58,000000	0,000000	1148,000000	0,000000	2020-10-29T19:26:57:694
59,000000	0,000000	1148,000000	0,000000	2020-10-29T19:26:57:736
59,000000	0,000000	1148,000000	0,000000	2020-10-29T19:26:57:775
59,000000	0,000000	1148,000000	0,000000	2020-10-29T19:26:57:816
58,000000	0,000000	1148,000000	0,000000	2020-10-29T19:26:57:856
58,000000	0,000000	1148,000000	0,000000	2020-10-29T19:26:57:896
59,000000	0,000000	1148,000000	0,000000	2020-10-29T19:26:57:934
59,000000	0,000000	1148,000000	0,000000	2020-10-29T19:26:57:976
59,000000	0,000000	1148,000000	0,000000	2020-10-29T19:26:58:015
59,000000	0,000000	1148,000000	0,000000	2020-10-29T19:26:58:056
59,000000	0,000000	1148,000000	0,000000	2020-10-29T19:26:58:097
59,000000	0,000000	1148,000000	0,000000	2020-10-29T19:26:58:137
59,000000	0,000000	1148,000000	0,000000	2020-10-29T19:26:58:175
59,000000	0,000000	1148,000000	0,000000	2020-10-29T19:26:58:217
59,000000	0,000000	1148,000000	0,000000	2020-10-29T19:26:58:255
59,000000	0,000000	1148,000000	0,000000	2020-10-29T19:26:58:296
59,000000	0,000000	1148,000000	0,000000	2020-10-29T19:26:58:337
59,000000	0,000000	1148,000000	0,000000	2020-10-29T19:26:58:376
59,000000	0,000000	942,000000	0,000000	2020-10-29T19:26:58:416
59,000000	0,000000	942,000000	0,000000	2020-10-29T19:26:58:456
59,000000	0,000000	942,000000	0,000000	2020-10-29T19:26:58:496
59,000000	0,000000	942,000000	0,000000	2020-10-29T19:26:58:536
59,000000	0,000000	942,000000	0,000000	2020-10-29T19:26:58:577
59,000000	0,000000	942,000000	0,000000	2020-10-29T19:26:58:617
59,000000	0,000000	942,000000	0,000000	2020-10-29T19:26:58:656
59,000000	0,000000	942,000000	0,000000	2020-10-29T19:26:58:696
59,000000	0,000000	942,000000	0,000000	2020-10-29T19:26:58:736
59,000000	0,000000	942,000000	0,000000	2020-10-29T19:26:58:777
59,000000	0,000000	942,000000	0,000000	2020-10-29T19:26:58:818
59,000000	0,000000	942,000000	0,000000	2020-10-29T19:26:58:856
58,000000	0,000000	942,000000	0,000000	2020-10-29T19:26:58:896
58,000000	0,000000	942,000000	0,000000	2020-10-29T19:26:58:936
58,000000	0,000000	942,000000	0,000000	2020-10-29T19:26:58:976
58,000000	0,000000	942,000000	0,000000	2020-10-29T19:26:59:017
58,000000	0,000000	942,000000	0,000000	2020-10-29T19:26:59:057
59,000000	0,000000	942,000000	0,000000	2020-10-29T19:26:59:098
59,000000	0,000000	942,000000	0,000000	2020-10-29T19:26:59:137
59,000000	0,000000	942,000000	0,000000	2020-10-29T19:26:59:177
59,000000	0,000000	942,000000	0,000000	2020-10-29T19:26:59:216
59,000000	0,000000	942,000000	0,000000	2020-10-29T19:26:59:257
59,000000	0,000000	942,000000	0,000000	2020-10-29T19:26:59:298
59,000000	0,000000	942,000000	0,000000	2020-10-29T19:26:59:337
59,000000	0,000000	942,000000	0,000000	2020-10-29T19:26:59:378
59,000000	0,000000	942,000000	0,000000	2020-10-29T19:26:59:419
58,000000	0,000000	942,000000	0,000000	2020-10-29T19:26:59:458
58,000000	0,000000	942,000000	0,000000	2020-10-29T19:26:59:498
58,000000	0,000000	942,000000	0,000000	2020-10-29T19:26:59:538
58,000000	0,000000	942,000000	0,000000	2020-10-29T19:26:59:578
58,000000	0,000000	942,000000	0,000000	2020-10-29T19:26:59:617
58,000000	0,000000	942,000000	0,000000	2020-10-29T19:26:59:658
58,000000	0,000000	942,000000	0,000000	2020-10-29T19:26:59:697
58,000000	0,000000	942,000000	0,000000	2020-10-29T19:26:59:738
59,000000	0,000000	942,000000	0,000000	2020-10-29T19:26:59:780
59,000000	0,000000	942,000000	0,000000	2020-10-29T19:26:59:818
59,000000	0,000000	942,000000	0,000000	2020-10-29T19:26:59:857
59,000000	0,000000	942,000000	0,000000	2020-10-29T19:26:59:898
59,000000	0,000000	942,000000	0,000000	2020-10-29T19:26:59:937
59,000000	0,000000	942,000000	0,000000	2020-10-29T19:26:59:978
59,000000	0,000000	942,000000	0,000000	2020-10-29T19:27:00:019
59,000000	0,000000	942,000000	0,000000	2020-10-29T19:27:00:058
59,000000	0,000000	942,000000	0,000000	2020-10-29T19:27:00:097
59,000000	0,000000	942,000000	0,000000	2020-10-29T19:27:00:138
59,000000	0,000000	942,000000	0,000000	2020-10-29T19:27:00:177
59,000000	0,000000	942,000000	0,000000	2020-10-29T19:27:00:218
59,000000	0,000000	942,000000	0,000000	2020-10-29T19:27:00:260
59,000000	0,000000	942,000000	0,000000	2020-10-29T19:27:00:297
59,000000	0,000000	942,000000	0,000000	2020-10-29T19:27:00:336
59,000000	0,000000	942,000000	0,000000	2020-10-29T19:27:00:378
59,000000	0,000000	942,000000	0,000000	2020-10-29T19:27:00:418
59,000000	0,000000	942,000000	0,000000	2020-10-29T19:27:00:458
59,000000	0,000000	942,000000	0,000000	2020-10-29T19:27:00:499
59,000000	0,000000	942,000000	0,000000	2020-10-29T19:27:00:538
59,000000	0,000000	942,000000	0,000000	2020-10-29T19:27:00:578
59,000000	0,000000	942,000000	0,000000	2020-10-29T19:27:00:618
59,000000	0,000000	942,000000	0,000000	2020-10-29T19:27:00:657
59,000000	0,000000	942,000000	0,000000	2020-10-29T19:27:00:698
59,000000	0,000000	942,000000	0,000000	2020-10-29T19:27:00:739
59,000000	0,000000	942,000000	0,000000	2020-10-29T19:27:00:779
59,000000	0,000000	942,000000	0,000000	2020-10-29T19:27:00:817
59,000000	0,000000	942,000000	0,000000	2020-10-29T19:27:00:860
59,000000	0,000000	942,000000	0,000000	2020-10-29T19:27:00:898
59,000000	0,000000	942,000000	0,000000	2020-10-29T19:27:00:938
60,000000	0,000000	942,000000	0,000000	2020-10-29T19:27:00:980
60,000000	0,000000	942,000000	0,000000	2020-10-29T19:27:01:019
60,000000	0,000000	942,000000	0,000000	2020-10-29T19:27:01:058
60,000000	0,000000	942,000000	0,000000	2020-10-29T19:27:01:098
60,000000	0,000000	942,000000	0,000000	2020-10-29T19:27:01:138
60,000000	0,000000	942,000000	0,000000	2020-10-29T19:27:01:179
60,000000	0,000000	942,000000	0,000000	2020-10-29T19:27:01:218
60,000000	0,000000	942,000000	0,000000	2020-10-29T19:27:01:259
60,000000	0,000000	942,000000	0,000000	2020-10-29T19:27:01:298
60,000000	0,000000	942,000000	0,000000	2020-10-29T19:27:01:339
60,000000	0,000000	942,000000	0,000000	2020-10-29T19:27:01:379
60,000000	0,000000	942,000000	0,000000	2020-10-29T19:27:01:419
60,000000	0,000000	942,000000	0,000000	2020-10-29T19:27:01:459
61,000000	0,000000	942,000000	0,000000	2020-10-29T19:27:01:499
61,000000	0,000000	942,000000	0,000000	2020-10-29T19:27:01:538
60,000000	0,000000	942,000000	0,000000	2020-10-29T19:27:01:580
60,000000	0,000000	942,000000	0,000000	2020-10-29T19:27:01:619
60,000000	0,000000	942,000000	0,000000	2020-10-29T19:27:01:660
61,000000	0,000000	942,000000	0,000000	2020-10-29T19:27:01:700
61,000000	0,000000	942,000000	0,000000	2020-10-29T19:27:01:740
61,000000	0,000000	942,000000	0,000000	2020-10-29T19:27:01:779
61,000000	0,000000	942,000000	0,000000	2020-10-29T19:27:01:820
61,000000	0,000000	942,000000	0,000000	2020-10-29T19:27:01:859
61,000000	0,000000	942,000000	0,000000	2020-10-29T19:27:01:899
61,000000	0,000000	942,000000	0,000000	2020-10-29T19:27:01:940
61,000000	0,000000	942,000000	0,000000	2020-10-29T19:27:01:980
61,000000	0,000000	942,000000	0,000000	2020-10-29T19:27:02:020
61,000000	0,000000	942,000000	0,000000	2020-10-29T19:27:02:060
61,000000	0,000000	942,000000	0,000000	2020-10-29T19:27:02:099
61,000000	0,000000	942,000000	0,000000	2020-10-29T19:27:02:140
61,000000	0,000000	942,000000	0,000000	2020-10-29T19:27:02:181
61,000000	0,000000	942,000000	0,000000	2020-10-29T19:27:02:220
61,000000	0,000000	942,000000	0,000000	2020-10-29T19:27:02:259
61,000000	0,000000	942,000000	0,000000	2020-10-29T19:27:02:300
61,000000	0,000000	942,000000	0,000000	2020-10-29T19:27:02:339
61,000000	0,000000	942,000000	0,000000	2020-10-29T19:27:02:380
61,000000	0,000000	942,000000	0,000000	2020-10-29T19:27:02:421
61,000000	0,000000	942,000000	0,000000	2020-10-29T19:27:02:460
61,000000	0,000000	942,000000	0,000000	2020-10-29T19:27:02:499
61,000000	0,000000	942,000000	0,000000	2020-10-29T19:27:02:540
61,000000	0,000000	942,000000	0,000000	2020-10-29T19:27:02:580
61,000000	0,000000	942,000000	0,000000	2020-10-29T19:27:02:621
61,000000	0,000000	942,000000	0,000000	2020-10-29T19:27:02:661
61,000000	0,000000	942,000000	0,000000	2020-10-29T19:27:02:700
61,000000	0,000000	942,000000	0,000000	2020-10-29T19:27:02:740
61,000000	0,000000	942,000000	0,000000	2020-10-29T19:27:02:781
61,000000	0,000000	942,000000	0,000000	2020-10-29T19:27:02:820
61,000000	0,000000	942,000000	0,000000	2020-10-29T19:27:02:860
61,000000	0,000000	942,000000	0,000000	2020-10-29T19:27:02:902
61,000000	0,000000	942,000000	0,000000	2020-10-29T19:27:02:941
61,000000	0,000000	942,000000	0,000000	2020-10-29T19:27:02:982
60,000000	0,000000	942,000000	0,000000	2020-10-29T19:27:03:020
60,000000	0,000000	942,000000	0,000000	2020-10-29T19:27:03:060
60,000000	0,000000	942,000000	0,000000	2020-10-29T19:27:03:101
61,000000	0,000000	942,000000	0,000000	2020-10-29T19:27:03:143
61,000000	0,000000	942,000000	0,000000	2020-10-29T19:27:03:182
61,000000	0,000000	942,000000	0,000000	2020-10-29T19:27:03:220
61,000000	0,000000	942,000000	0,000000	2020-10-29T19:27:03:261
61,000000	0,000000	942,000000	0,000000	2020-10-29T19:27:03:300
61,000000	0,000000	942,000000	0,000000	2020-10-29T19:27:03:341
61,000000	0,000000	942,000000	0,000000	2020-10-29T19:27:03:382
61,000000	0,000000	942,000000	0,000000	2020-10-29T19:27:03:422
60,000000	0,000000	942,000000	0,000000	2020-10-29T19:27:03:460
60,000000	0,000000	942,000000	0,000000	2020-10-29T19:27:03:501
60,000000	0,000000	942,000000	0,000000	2020-10-29T19:27:03:540
60,000000	0,000000	942,000000	0,000000	2020-10-29T19:27:03:582
61,000000	0,000000	942,000000	0,000000	2020-10-29T19:27:03:623
61,000000	0,000000	942,000000	0,000000	2020-10-29T19:27:03:661
60,000000	0,000000	942,000000	0,000000	2020-10-29T19:27:03:700
60,000000	0,000000	942,000000	0,000000	2020-10-29T19:27:03:742
60,000000	0,000000	942,000000	0,000000	2020-10-29T19:27:03:781
60,000000	0,000000	942,000000	0,000000	2020-10-29T19:27:03:822
60,000000	0,000000	942,000000	0,000000	2020-10-29T19:27:03:862
60,000000	0,000000	942,000000	0,000000	2020-10-29T19:27:03:901
60,000000	0,000000	942,000000	0,000000	2020-10-29T19:27:03:941
60,000000	0,000000	942,000000	0,000000	2020-10-29T19:27:03:982
60,000000	0,000000	942,000000	0,000000	2020-10-29T19:27:04:021
61,000000	0,000000	942,000000	0,000000	2020-10-29T19:27:04:062
61,000000	0,000000	942,000000	0,000000	2020-10-29T19:27:04:103
61,000000	0,000000	942,000000	0,000000	2020-10-29T19:27:04:142
61,000000	0,000000	942,000000	0,000000	2020-10-29T19:27:04:181
61,000000	0,000000	942,000000	0,000000	2020-10-29T19:27:04:222
61,000000	0,000000	942,000000	0,000000	2020-10-29T19:27:04:261
61,000000	0,000000	942,000000	0,000000	2020-10-29T19:27:04:301
61,000000	0,000000	942,000000	0,000000	2020-10-29T19:27:04:343
61,000000	0,000000	942,000000	0,000000	2020-10-29T19:27:04:382
61,000000	0,000000	942,000000	0,000000	2020-10-29T19:27:04:422
61,000000	0,000000	942,000000	0,000000	2020-10-29T19:27:04:462
61,000000	0,000000	942,000000	0,000000	2020-10-29T19:27:04:501
61,000000	0,000000	942,000000	0,000000	2020-10-29T19:27:04:542
62,000000	0,000000	942,000000	0,000000	2020-10-29T19:27:04:583
62,000000	0,000000	942,000000	0,000000	2020-10-29T19:27:04:622
62,000000	0,000000	942,000000	0,000000	2020-10-29T19:27:04:662
62,000000	0,000000	942,000000	0,000000	2020-10-29T19:27:04:703
62,000000	0,000000	942,000000	0,000000	2020-10-29T19:27:04:742
62,000000	0,000000	942,000000	0,000000	2020-10-29T19:27:04:782
62,000000	0,000000	942,000000	0,000000	2020-10-29T19:27:04:824
62,000000	0,000000	942,000000	0,000000	2020-10-29T19:27:04:863
62,000000	0,000000	942,000000	0,000000	2020-10-29T19:27:04:902
62,000000	0,000000	942,000000	0,000000	2020-10-29T19:27:04:943
62,000000	0,000000	942,000000	0,000000	2020-10-29T19:27:04:982
62,000000	0,000000	942,000000	0,000000	2020-10-29T19:27:05:029
62,000000	0,000000	942,000000	0,000000	2020-10-29T19:27:05:064
62,000000	0,000000	942,000000	0,000000	2020-10-29T19:27:05:103
62,000000	0,000000	942,000000	0,000000	2020-10-29T19:27:05:142
62,000000	0,000000	942,000000	0,000000	2020-10-29T19:27:05:183
62,000000	0,000000	942,000000	0,000000	2020-10-29T19:27:05:222
62,000000	0,000000	942,000000	0,000000	2020-10-29T19:27:05:263
62,000000	0,000000	942,000000	0,000000	2020-10-29T19:27:05:304
62,000000	0,000000	942,000000	0,000000	2020-10-29T19:27:05:343
62,000000	0,000000	942,000000	0,000000	2020-10-29T19:27:05:382
62,000000	0,000000	942,000000	0,000000	2020-10-29T19:27:05:424
62,000000	0,000000	942,000000	0,000000	2020-10-29T19:27:05:462
62,000000	0,000000	942,000000	0,000000	2020-10-29T19:27:05:503
62,000000	0,000000	942,000000	0,000000	2020-10-29T19:27:05:544
62,000000	0,000000	942,000000	0,000000	2020-10-29T19:27:05:583
62,000000	0,000000	942,000000	0,000000	2020-10-29T19:27:05:623
62,000000	0,000000	942,000000	0,000000	2020-10-29T19:27:05:664
62,000000	0,000000	942,000000	0,000000	2020-10-29T19:27:05:703
62,000000	0,000000	942,000000	0,000000	2020-10-29T19:27:05:743
62,000000	0,000000	942,000000	0,000000	2020-10-29T19:27:05:784
62,000000	0,000000	942,000000	0,000000	2020-10-29T19:27:05:824
62,000000	0,000000	942,000000	0,000000	2020-10-29T19:27:05:863
62,000000	0,000000	942,000000	0,000000	2020-10-29T19:27:05:904
62,000000	0,000000	942,000000	0,000000	2020-10-29T19:27:05:943
62,000000	0,000000	942,000000	0,000000	2020-10-29T19:27:05:984
62,000000	0,000000	942,000000	0,000000	2020-10-29T19:27:06:025
62,000000	0,000000	942,000000	0,000000	2020-10-29T19:27:06:064
62,000000	0,000000	942,000000	0,000000	2020-10-29T19:27:06:103
62,000000	0,000000	942,000000	0,000000	2020-10-29T19:27:06:144
62,000000	0,000000	942,000000	0,000000	2020-10-29T19:27:06:184
62,000000	0,000000	942,000000	0,000000	2020-10-29T19:27:06:224
62,000000	0,000000	942,000000	0,000000	2020-10-29T19:27:06:265
62,000000	0,000000	942,000000	0,000000	2020-10-29T19:27:06:304
62,000000	0,000000	942,000000	0,000000	2020-10-29T19:27:06:343
63,000000	0,000000	942,000000	0,000000	2020-10-29T19:27:06:384
63,000000	0,000000	942,000000	0,000000	2020-10-29T19:27:06:424
63,000000	0,000000	942,000000	0,000000	2020-10-29T19:27:06:464
62,000000	0,000000	942,000000	0,000000	2020-10-29T19:27:06:504
62,000000	0,000000	942,000000	0,000000	2020-10-29T19:27:06:544
63,000000	0,000000	942,000000	0,000000	2020-10-29T19:27:06:584
63,000000	0,000000	942,000000	0,000000	2020-10-29T19:27:06:625
63,000000	0,000000	942,000000	0,000000	2020-10-29T19:27:06:663
63,000000	0,000000	942,000000	0,000000	2020-10-29T19:27:06:705
63,000000	0,000000	942,000000	0,000000	2020-10-29T19:27:06:745
63,000000	0,000000	942,000000	0,000000	2020-10-29T19:27:06:786
63,000000	0,000000	942,000000	0,000000	2020-10-29T19:27:06:825
63,000000	0,000000	942,000000	0,000000	2020-10-29T19:27:06:864
63,000000	0,000000	942,000000	0,000000	2020-10-29T19:27:06:903
63,000000	0,000000	942,000000	0,000000	2020-10-29T19:27:06:945
63,000000	0,000000	942,000000	0,000000	2020-10-29T19:27:06:986
63,000000	0,000000	942,000000	0,000000	2020-10-29T19:27:07:026
63,000000	0,000000	942,000000	0,000000	2020-10-29T19:27:07:064
63,000000	0,000000	942,000000	0,000000	2020-10-29T19:27:07:105
63,000000	0,000000	942,000000	0,000000	2020-10-29T19:27:07:144
63,000000	0,000000	942,000000	0,000000	2020-10-29T19:27:07:184
63,000000	0,000000	942,000000	0,000000	2020-10-29T19:27:07:226
63,000000	0,000000	942,000000	0,000000	2020-10-29T19:27:07:265
63,000000	0,000000	942,000000	0,000000	2020-10-29T19:27:07:303
63,000000	0,000000	942,000000	0,000000	2020-10-29T19:27:07:345
63,000000	0,000000	1003,000000	0,000000	2020-10-29T19:27:07:385
63,000000	0,000000	1003,000000	0,000000	2020-10-29T19:27:07:426
63,000000	0,000000	1003,000000	0,000000	2020-10-29T19:27:07:465
63,000000	0,000000	1003,000000	0,000000	2020-10-29T19:27:07:505
63,000000	0,000000	1003,000000	0,000000	2020-10-29T19:27:07:543
64,000000	0,000000	1003,000000	0,000000	2020-10-29T19:27:07:586
63,000000	0,000000	1003,000000	0,000000	2020-10-29T19:27:07:625
63,000000	0,000000	1003,000000	0,000000	2020-10-29T19:27:08:155
63,000000	0,000000	1003,000000	0,000000	2020-10-29T19:27:08:162
63,000000	0,000000	1003,000000	0,000000	2020-10-29T19:27:08:173
63,000000	0,000000	1003,000000	0,000000	2020-10-29T19:27:08:180
63,000000	0,000000	1003,000000	0,000000	2020-10-29T19:27:08:181
63,000000	0,000000	1003,000000	0,000000	2020-10-29T19:27:08:182
63,000000	0,000000	1003,000000	0,000000	2020-10-29T19:27:08:184
63,000000	0,000000	1003,000000	0,000000	2020-10-29T19:27:08:185
63,000000	0,000000	1003,000000	0,000000	2020-10-29T19:27:08:189
63,000000	0,000000	1003,000000	0,000000	2020-10-29T19:27:08:190
63,000000	0,000000	1003,000000	0,000000	2020-10-29T19:27:08:195
63,000000	0,000000	1003,000000	0,000000	2020-10-29T19:27:08:206
63,000000	0,000000	1003,000000	0,000000	2020-10-29T19:27:08:208
63,000000	0,000000	1003,000000	0,000000	2020-10-29T19:27:08:210
63,000000	0,000000	1003,000000	0,000000	2020-10-29T19:27:08:294
62,000000	0,000000	1003,000000	0,000000	2020-10-29T19:27:08:310
62,000000	0,000000	1003,000000	0,000000	2020-10-29T19:27:08:344
63,000000	0,000000	1003,000000	0,000000	2020-10-29T19:27:08:345
63,000000	0,000000	1003,000000	0,000000	2020-10-29T19:27:08:385
63,000000	0,000000	1003,000000	0,000000	2020-10-29T19:27:08:423
63,000000	0,000000	1003,000000	0,000000	2020-10-29T19:27:08:471
63,000000	0,000000	1003,000000	0,000000	2020-10-29T19:27:08:509
63,000000	0,000000	1003,000000	0,000000	2020-10-29T19:27:08:545
63,000000	0,000000	1003,000000	0,000000	2020-10-29T19:27:08:583
63,000000	0,000000	1003,000000	0,000000	2020-10-29T19:27:08:626
62,000000	0,000000	1003,000000	0,000000	2020-10-29T19:27:08:849
62,000000	0,000000	1003,000000	0,000000	2020-10-29T19:27:08:851
62,000000	0,000000	1003,000000	0,000000	2020-10-29T19:27:08:869
62,000000	0,000000	1003,000000	0,000000	2020-10-29T19:27:08:871
62,000000	0,000000	1003,000000	0,000000	2020-10-29T19:27:08:875
62,000000	0,000000	1003,000000	0,000000	2020-10-29T19:27:08:876
62,000000	0,000000	1003,000000	0,000000	2020-10-29T19:27:08:906
62,000000	0,000000	1003,000000	0,000000	2020-10-29T19:27:08:946
62,000000	0,000000	1003,000000	0,000000	2020-10-29T19:27:08:987
62,000000	0,000000	1003,000000	0,000000	2020-10-29T19:27:09:086
62,000000	0,000000	1003,000000	0,000000	2020-10-29T19:27:09:087
62,000000	0,000000	1003,000000	0,000000	2020-10-29T19:27:09:114
62,000000	0,000000	1003,000000	0,000000	2020-10-29T19:27:09:148
62,000000	0,000000	1003,000000	0,000000	2020-10-29T19:27:09:191
62,000000	0,000000	1003,000000	0,000000	2020-10-29T19:27:09:231
62,000000	0,000000	1003,000000	0,000000	2020-10-29T19:27:09:265
63,000000	0,000000	1003,000000	0,000000	2020-10-29T19:27:09:305
63,000000	0,000000	1003,000000	0,000000	2020-10-29T19:27:09:348
63,000000	0,000000	1003,000000	0,000000	2020-10-29T19:27:09:390
63,000000	0,000000	1003,000000	0,000000	2020-10-29T19:27:09:428
63,000000	0,000000	1003,000000	0,000000	2020-10-29T19:27:09:468
63,000000	0,000000	1003,000000	0,000000	2020-10-29T19:27:09:507
63,000000	0,000000	1003,000000	0,000000	2020-10-29T19:27:09:548
64,000000	0,000000	1003,000000	0,000000	2020-10-29T19:27:09:589
64,000000	0,000000	1003,000000	0,000000	2020-10-29T19:27:09:627
64,000000	0,000000	1003,000000	0,000000	2020-10-29T19:27:09:669
64,000000	0,000000	1003,000000	0,000000	2020-10-29T19:27:09:706
64,000000	0,000000	1003,000000	0,000000	2020-10-29T19:27:09:748
64,000000	0,000000	1003,000000	0,000000	2020-10-29T19:27:09:787
64,000000	0,000000	1003,000000	0,000000	2020-10-29T19:27:09:828
64,000000	0,000000	1003,000000	0,000000	2020-10-29T19:27:09:869
65,000000	0,000000	1003,000000	0,000000	2020-10-29T19:27:09:907
65,000000	0,000000	1003,000000	0,000000	2020-10-29T19:27:09:948
64,000000	0,000000	1003,000000	0,000000	2020-10-29T19:27:09:986
64,000000	0,000000	1003,000000	0,000000	2020-10-29T19:27:10:032
64,000000	0,000000	1003,000000	0,000000	2020-10-29T19:27:10:072
65,000000	0,000000	1003,000000	0,000000	2020-10-29T19:27:10:140
65,000000	0,000000	1003,000000	0,000000	2020-10-29T19:27:10:256
65,000000	0,000000	1003,000000	0,000000	2020-10-29T19:27:10:257
65,000000	0,000000	1003,000000	0,000000	2020-10-29T19:27:10:258
65,000000	0,000000	1003,000000	0,000000	2020-10-29T19:27:10:307
65,000000	0,000000	1003,000000	0,000000	2020-10-29T19:27:10:308
65,000000	0,000000	1003,000000	0,000000	2020-10-29T19:27:10:345
65,000000	0,000000	1003,000000	0,000000	2020-10-29T19:27:10:386
65,000000	0,000000	1003,000000	0,000000	2020-10-29T19:27:10:519
65,000000	0,000000	1003,000000	0,000000	2020-10-29T19:27:10:521
65,000000	0,000000	1003,000000	0,000000	2020-10-29T19:27:10:541
64,000000	0,000000	1003,000000	0,000000	2020-10-29T19:27:10:548
64,000000	0,000000	1003,000000	0,000000	2020-10-29T19:27:10:592
65,000000	0,000000	1003,000000	0,000000	2020-10-29T19:27:10:628
66,000000	0,000000	1003,000000	0,000000	2020-10-29T19:27:10:669
65,000000	0,000000	1003,000000	0,000000	2020-10-29T19:27:10:774
65,000000	0,000000	1003,000000	0,000000	2020-10-29T19:27:10:776
65,000000	0,000000	1003,000000	0,000000	2020-10-29T19:27:10:794
65,000000	0,000000	1003,000000	0,000000	2020-10-29T19:27:10:843
65,000000	0,000000	1003,000000	0,000000	2020-10-29T19:27:10:867
65,000000	0,000000	1003,000000	0,000000	2020-10-29T19:27:10:908
65,000000	0,000000	1003,000000	0,000000	2020-10-29T19:27:10:949
65,000000	0,000000	1003,000000	0,000000	2020-10-29T19:27:10:988
65,000000	0,000000	1003,000000	0,000000	2020-10-29T19:27:11:029
65,000000	0,000000	1003,000000	0,000000	2020-10-29T19:27:11:069
65,000000	0,000000	1003,000000	0,000000	2020-10-29T19:27:11:109
65,000000	0,000000	1003,000000	0,000000	2020-10-29T19:27:11:148
65,000000	0,000000	1003,000000	0,000000	2020-10-29T19:27:11:189
65,000000	0,000000	1003,000000	0,000000	2020-10-29T19:27:11:286
65,000000	0,000000	1003,000000	0,000000	2020-10-29T19:27:11:288
65,000000	0,000000	1003,000000	0,000000	2020-10-29T19:27:11:311
65,000000	0,000000	1003,000000	0,000000	2020-10-29T19:27:11:352
65,000000	0,000000	1003,000000	0,000000	2020-10-29T19:27:11:390
65,000000	0,000000	1003,000000	0,000000	2020-10-29T19:27:11:429
65,000000	0,000000	1003,000000	0,000000	2020-10-29T19:27:11:469
64,000000	0,000000	1003,000000	0,000000	2020-10-29T19:27:11:509
64,000000	0,000000	1003,000000	0,000000	2020-10-29T19:27:11:550
64,000000	0,000000	1003,000000	0,000000	2020-10-29T19:27:11:590
65,000000	0,000000	1003,000000	0,000000	2020-10-29T19:27:11:629
65,000000	0,000000	1003,000000	0,000000	2020-10-29T19:27:11:677
68,000000	0,000000	757,000000	0,000000	2020-10-29T19:27:17:100
68,000000	0,000000	757,000000	0,000000	2020-10-29T19:27:17:126
68,000000	0,000000	757,000000	0,000000	2020-10-29T19:27:17:155
68,000000	0,000000	757,000000	0,000000	2020-10-29T19:27:17:197
68,000000	0,000000	757,000000	0,000000	2020-10-29T19:27:17:236
68,000000	0,000000	757,000000	0,000000	2020-10-29T19:27:17:276
68,000000	0,000000	757,000000	0,000000	2020-10-29T19:27:17:318
68,000000	0,000000	757,000000	0,000000	2020-10-29T19:27:17:359
68,000000	0,000000	757,000000	0,000000	2020-10-29T19:27:17:395
68,000000	0,000000	757,000000	0,000000	2020-10-29T19:27:17:437
68,000000	0,000000	757,000000	0,000000	2020-10-29T19:27:17:476
68,000000	0,000000	757,000000	0,000000	2020-10-29T19:27:17:516
68,000000	0,000000	757,000000	0,000000	2020-10-29T19:27:17:558
68,000000	0,000000	757,000000	0,000000	2020-10-29T19:27:17:597
68,000000	0,000000	757,000000	0,000000	2020-10-29T19:27:17:635
68,000000	0,000000	757,000000	0,000000	2020-10-29T19:27:17:677
68,000000	0,000000	757,000000	0,000000	2020-10-29T19:27:17:716
67,000000	0,000000	757,000000	0,000000	2020-10-29T19:27:17:758
67,000000	0,000000	757,000000	0,000000	2020-10-29T19:27:17:797
67,000000	0,000000	757,000000	0,000000	2020-10-29T19:27:17:837
68,000000	0,000000	757,000000	0,000000	2020-10-29T19:27:17:876
68,000000	0,000000	757,000000	0,000000	2020-10-29T19:27:17:917
68,000000	0,000000	757,000000	0,000000	2020-10-29T19:27:17:956
68,000000	0,000000	757,000000	0,000000	2020-10-29T19:27:17:997
68,000000	0,000000	757,000000	0,000000	2020-10-29T19:27:18:038
68,000000	0,000000	757,000000	0,000000	2020-10-29T19:27:18:077
68,000000	0,000000	757,000000	0,000000	2020-10-29T19:27:18:116
68,000000	0,000000	757,000000	0,000000	2020-10-29T19:27:18:156
68,000000	0,000000	757,000000	0,000000	2020-10-29T19:27:18:197
68,000000	0,000000	757,000000	0,000000	2020-10-29T19:27:18:237
68,000000	0,000000	757,000000	0,000000	2020-10-29T19:27:18:278
68,000000	0,000000	757,000000	0,000000	2020-10-29T19:27:18:317
68,000000	0,000000	757,000000	0,000000	2020-10-29T19:27:18:357
68,000000	0,000000	757,000000	0,000000	2020-10-29T19:27:18:398
68,000000	0,000000	757,000000	0,000000	2020-10-29T19:27:18:437
68,000000	0,000000	757,000000	0,000000	2020-10-29T19:27:18:477
68,000000	0,000000	757,000000	0,000000	2020-10-29T19:27:18:518
68,000000	0,000000	757,000000	0,000000	2020-10-29T19:27:18:558
68,000000	0,000000	757,000000	0,000000	2020-10-29T19:27:18:597
68,000000	0,000000	757,000000	0,000000	2020-10-29T19:27:18:638
67,000000	0,000000	757,000000	0,000000	2020-10-29T19:27:18:677
68,000000	0,000000	757,000000	0,000000	2020-10-29T19:27:18:718
68,000000	0,000000	757,000000	0,000000	2020-10-29T19:27:18:759
68,000000	0,000000	757,000000	0,000000	2020-10-29T19:27:18:797
68,000000	0,000000	757,000000	0,000000	2020-10-29T19:27:18:837
68,000000	0,000000	757,000000	0,000000	2020-10-29T19:27:18:878
68,000000	0,000000	757,000000	0,000000	2020-10-29T19:27:18:916
68,000000	0,000000	844,000000	0,000000	2020-10-29T19:27:18:958
68,000000	0,000000	844,000000	0,000000	2020-10-29T19:27:18:999
68,000000	0,000000	844,000000	0,000000	2020-10-29T19:27:19:038
68,000000	0,000000	844,000000	0,000000	2020-10-29T19:27:19:077
67,000000	0,000000	844,000000	0,000000	2020-10-29T19:27:19:118
68,000000	0,000000	844,000000	0,000000	2020-10-29T19:27:19:158
68,000000	0,000000	844,000000	0,000000	2020-10-29T19:27:19:198
68,000000	0,000000	844,000000	0,000000	2020-10-29T19:27:19:239
68,000000	0,000000	844,000000	0,000000	2020-10-29T19:27:19:278
68,000000	0,000000	844,000000	0,000000	2020-10-29T19:27:19:317
68,000000	0,000000	844,000000	0,000000	2020-10-29T19:27:19:358
68,000000	0,000000	844,000000	0,000000	2020-10-29T19:27:19:398
68,000000	0,000000	844,000000	0,000000	2020-10-29T19:27:19:438
68,000000	0,000000	844,000000	0,000000	2020-10-29T19:27:19:479
68,000000	0,000000	844,000000	0,000000	2020-10-29T19:27:19:519
69,000000	0,000000	844,000000	0,000000	2020-10-29T19:27:19:558
69,000000	0,000000	844,000000	0,000000	2020-10-29T19:27:19:599
68,000000	0,000000	844,000000	0,000000	2020-10-29T19:27:19:638
68,000000	0,000000	844,000000	0,000000	2020-10-29T19:27:19:678
68,000000	0,000000	844,000000	0,000000	2020-10-29T19:27:19:720
69,000000	0,000000	844,000000	0,000000	2020-10-29T19:27:19:766
69,000000	0,000000	844,000000	0,000000	2020-10-29T19:27:19:798
69,000000	0,000000	844,000000	0,000000	2020-10-29T19:27:19:839
69,000000	0,000000	844,000000	0,000000	2020-10-29T19:27:19:878
69,000000	0,000000	844,000000	0,000000	2020-10-29T19:27:19:919
69,000000	0,000000	844,000000	0,000000	2020-10-29T19:27:19:960
69,000000	0,000000	844,000000	0,000000	2020-10-29T19:27:19:999
69,000000	0,000000	844,000000	0,000000	2020-10-29T19:27:20:039
69,000000	0,000000	844,000000	0,000000	2020-10-29T19:27:20:079
69,000000	0,000000	844,000000	0,000000	2020-10-29T19:27:20:119
69,000000	0,000000	844,000000	0,000000	2020-10-29T19:27:20:159
69,000000	0,000000	844,000000	0,000000	2020-10-29T19:27:20:200
69,000000	0,000000	844,000000	0,000000	2020-10-29T19:27:20:239
69,000000	0,000000	844,000000	0,000000	2020-10-29T19:27:20:278
69,000000	0,000000	844,000000	0,000000	2020-10-29T19:27:20:320
69,000000	0,000000	998,000000	0,000000	2020-10-29T19:27:20:358
69,000000	0,000000	998,000000	0,000000	2020-10-29T19:27:20:400
69,000000	0,000000	998,000000	0,000000	2020-10-29T19:27:20:439
69,000000	0,000000	998,000000	0,000000	2020-10-29T19:27:20:479
69,000000	0,000000	998,000000	0,000000	2020-10-29T19:27:20:519
69,000000	0,000000	998,000000	0,000000	2020-10-29T19:27:20:561
69,000000	0,000000	998,000000	0,000000	2020-10-29T19:27:20:598
69,000000	0,000000	998,000000	0,000000	2020-10-29T19:27:20:639
69,000000	0,000000	998,000000	0,000000	2020-10-29T19:27:20:680
69,000000	0,000000	998,000000	0,000000	2020-10-29T19:27:20:720
69,000000	0,000000	998,000000	0,000000	2020-10-29T19:27:20:759
70,000000	0,000000	998,000000	0,000000	2020-10-29T19:27:20:800
69,000000	0,000000	998,000000	0,000000	2020-10-29T19:27:20:839
69,000000	0,000000	998,000000	0,000000	2020-10-29T19:27:20:880
69,000000	0,000000	998,000000	0,000000	2020-10-29T19:27:20:921
69,000000	0,000000	998,000000	0,000000	2020-10-29T19:27:20:960
69,000000	0,000000	998,000000	0,000000	2020-10-29T19:27:20:999
69,000000	0,000000	998,000000	0,000000	2020-10-29T19:27:21:040
69,000000	0,000000	998,000000	0,000000	2020-10-29T19:27:21:079
69,000000	0,000000	998,000000	0,000000	2020-10-29T19:27:21:120
69,000000	0,000000	998,000000	0,000000	2020-10-29T19:27:21:161
69,000000	0,000000	998,000000	0,000000	2020-10-29T19:27:21:200
69,000000	0,000000	998,000000	0,000000	2020-10-29T19:27:21:239
69,000000	0,000000	998,000000	0,000000	2020-10-29T19:27:21:280
69,000000	0,000000	998,000000	0,000000	2020-10-29T19:27:21:320
69,000000	0,000000	998,000000	0,000000	2020-10-29T19:27:21:361
69,000000	0,000000	998,000000	0,000000	2020-10-29T19:27:21:401
69,000000	0,000000	998,000000	0,000000	2020-10-29T19:27:21:440
69,000000	0,000000	998,000000	0,000000	2020-10-29T19:27:21:479
69,000000	0,000000	998,000000	0,000000	2020-10-29T19:27:21:520
69,000000	0,000000	998,000000	0,000000	2020-10-29T19:27:21:560
69,000000	0,000000	998,000000	0,000000	2020-10-29T19:27:21:601
69,000000	0,000000	998,000000	0,000000	2020-10-29T19:27:21:640
69,000000	0,000000	998,000000	0,000000	2020-10-29T19:27:21:680
69,000000	0,000000	998,000000	0,000000	2020-10-29T19:27:21:719
69,000000	0,000000	998,000000	0,000000	2020-10-29T19:27:21:761
69,000000	0,000000	998,000000	0,000000	2020-10-29T19:27:21:800
69,000000	0,000000	998,000000	0,000000	2020-10-29T19:27:21:841
69,000000	0,000000	998,000000	0,000000	2020-10-29T19:27:21:883
69,000000	0,000000	998,000000	0,000000	2020-10-29T19:27:21:922
69,000000	0,000000	998,000000	0,000000	2020-10-29T19:27:21:960
69,000000	0,000000	998,000000	0,000000	2020-10-29T19:27:22:001
69,000000	0,000000	998,000000	0,000000	2020-10-29T19:27:22:041
69,000000	0,000000	998,000000	0,000000	2020-10-29T19:27:22:081
69,000000	0,000000	998,000000	0,000000	2020-10-29T19:27:22:124
69,000000	0,000000	998,000000	0,000000	2020-10-29T19:27:22:161
69,000000	0,000000	998,000000	0,000000	2020-10-29T19:27:22:200
69,000000	0,000000	998,000000	0,000000	2020-10-29T19:27:22:241
69,000000	0,000000	998,000000	0,000000	2020-10-29T19:27:22:280
69,000000	0,000000	998,000000	0,000000	2020-10-29T19:27:22:322
69,000000	0,000000	998,000000	0,000000	2020-10-29T19:27:22:363
69,000000	0,000000	998,000000	0,000000	2020-10-29T19:27:22:402
69,000000	0,000000	998,000000	0,000000	2020-10-29T19:27:22:440
69,000000	0,000000	998,000000	0,000000	2020-10-29T19:27:22:481
69,000000	0,000000	998,000000	0,000000	2020-10-29T19:27:22:521
69,000000	0,000000	998,000000	0,000000	2020-10-29T19:27:22:562
69,000000	0,000000	998,000000	0,000000	2020-10-29T19:27:22:603
69,000000	0,000000	998,000000	0,000000	2020-10-29T19:27:22:641
69,000000	0,000000	998,000000	0,000000	2020-10-29T19:27:22:682
70,000000	0,000000	998,000000	0,000000	2020-10-29T19:27:22:722
70,000000	0,000000	998,000000	0,000000	2020-10-29T19:27:22:761
70,000000	0,000000	998,000000	0,000000	2020-10-29T19:27:23:153
69,000000	0,000000	998,000000	0,000000	2020-10-29T19:27:23:153
69,000000	0,000000	998,000000	0,000000	2020-10-29T19:27:23:155
69,000000	0,000000	998,000000	0,000000	2020-10-29T19:27:23:156
69,000000	0,000000	998,000000	0,000000	2020-10-29T19:27:23:156
69,000000	0,000000	998,000000	0,000000	2020-10-29T19:27:23:166
69,000000	0,000000	998,000000	0,000000	2020-10-29T19:27:23:170
70,000000	0,000000	998,000000	0,000000	2020-10-29T19:27:23:171
70,000000	0,000000	998,000000	0,000000	2020-10-29T19:27:23:172
70,000000	0,000000	998,000000	0,000000	2020-10-29T19:27:23:173
70,000000	0,000000	998,000000	0,000000	2020-10-29T19:27:23:200
70,000000	0,000000	998,000000	0,000000	2020-10-29T19:27:23:243
70,000000	0,000000	998,000000	0,000000	2020-10-29T19:27:23:282
70,000000	0,000000	998,000000	0,000000	2020-10-29T19:27:23:321
70,000000	0,000000	998,000000	0,000000	2020-10-29T19:27:23:392
70,000000	0,000000	998,000000	0,000000	2020-10-29T19:27:23:422
70,000000	0,000000	998,000000	0,000000	2020-10-29T19:27:23:441
70,000000	0,000000	998,000000	0,000000	2020-10-29T19:27:23:481
70,000000	0,000000	998,000000	0,000000	2020-10-29T19:27:23:521
70,000000	0,000000	998,000000	0,000000	2020-10-29T19:27:23:569
70,000000	0,000000	998,000000	0,000000	2020-10-29T19:27:23:608
70,000000	0,000000	998,000000	0,000000	2020-10-29T19:27:23:640
70,000000	0,000000	998,000000	0,000000	2020-10-29T19:27:23:681
70,000000	0,000000	998,000000	0,000000	2020-10-29T19:27:23:722
70,000000	0,000000	998,000000	0,000000	2020-10-29T19:27:23:765
71,000000	0,000000	998,000000	0,000000	2020-10-29T19:27:23:805
71,000000	0,000000	998,000000	0,000000	2020-10-29T19:27:23:844
71,000000	0,000000	998,000000	0,000000	2020-10-29T19:27:23:926
71,000000	0,000000	998,000000	0,000000	2020-10-29T19:27:23:928
71,000000	0,000000	998,000000	0,000000	2020-10-29T19:27:23:964
71,000000	0,000000	998,000000	0,000000	2020-10-29T19:27:24:036
71,000000	0,000000	998,000000	0,000000	2020-10-29T19:27:24:044
71,000000	0,000000	998,000000	0,000000	2020-10-29T19:27:24:095
71,000000	0,000000	998,000000	0,000000	2020-10-29T19:27:24:123
71,000000	0,000000	998,000000	0,000000	2020-10-29T19:27:24:163
71,000000	0,000000	998,000000	0,000000	2020-10-29T19:27:24:202
71,000000	0,000000	998,000000	0,000000	2020-10-29T19:27:24:243
71,000000	0,000000	998,000000	0,000000	2020-10-29T19:27:24:284
71,000000	0,000000	998,000000	0,000000	2020-10-29T19:27:24:324
71,000000	0,000000	998,000000	0,000000	2020-10-29T19:27:24:363
71,000000	0,000000	998,000000	0,000000	2020-10-29T19:27:24:403
71,000000	0,000000	998,000000	0,000000	2020-10-29T19:27:24:443
70,000000	0,000000	998,000000	0,000000	2020-10-29T19:27:24:485
70,000000	0,000000	998,000000	0,000000	2020-10-29T19:27:24:529
70,000000	0,000000	998,000000	0,000000	2020-10-29T19:27:24:563
71,000000	0,000000	998,000000	0,000000	2020-10-29T19:27:24:603
71,000000	0,000000	998,000000	0,000000	2020-10-29T19:27:24:643
70,000000	0,000000	998,000000	0,000000	2020-10-29T19:27:24:682
70,000000	0,000000	998,000000	0,000000	2020-10-29T19:27:24:724
70,000000	0,000000	998,000000	0,000000	2020-10-29T19:27:24:768
70,000000	0,000000	998,000000	0,000000	2020-10-29T19:27:24:900
70,000000	0,000000	939,000000	0,000000	2020-10-29T19:27:24:931
70,000000	0,000000	939,000000	0,000000	2020-10-29T19:27:24:932
70,000000	0,000000	939,000000	0,000000	2020-10-29T19:27:24:932
70,000000	0,000000	939,000000	0,000000	2020-10-29T19:27:25:017
70,000000	0,000000	939,000000	0,000000	2020-10-29T19:27:25:018
69,000000	0,000000	939,000000	0,000000	2020-10-29T19:27:25:041
69,000000	0,000000	939,000000	0,000000	2020-10-29T19:27:25:081
69,000000	0,000000	939,000000	0,000000	2020-10-29T19:27:25:131
70,000000	0,000000	939,000000	0,000000	2020-10-29T19:27:25:182
70,000000	0,000000	939,000000	0,000000	2020-10-29T19:27:25:203
69,000000	0,000000	939,000000	0,000000	2020-10-29T19:27:25:241
69,000000	0,000000	939,000000	0,000000	2020-10-29T19:27:25:285
70,000000	0,000000	939,000000	0,000000	2020-10-29T19:27:25:323
70,000000	0,000000	939,000000	0,000000	2020-10-29T19:27:25:366
70,000000	0,000000	939,000000	0,000000	2020-10-29T19:27:25:404
70,000000	0,000000	939,000000	0,000000	2020-10-29T19:27:25:474
69,000000	0,000000	939,000000	0,000000	2020-10-29T19:27:25:487
69,000000	0,000000	939,000000	0,000000	2020-10-29T19:27:25:526
69,000000	0,000000	939,000000	0,000000	2020-10-29T19:27:25:563
69,000000	0,000000	939,000000	0,000000	2020-10-29T19:27:25:604
69,000000	0,000000	939,000000	0,000000	2020-10-29T19:27:25:644
69,000000	0,000000	939,000000	0,000000	2020-10-29T19:27:25:685
69,000000	0,000000	939,000000	0,000000	2020-10-29T19:27:25:726
69,000000	0,000000	939,000000	0,000000	2020-10-29T19:27:25:765
69,000000	0,000000	939,000000	0,000000	2020-10-29T19:27:25:818
76,000000	0,000000	752,000000	0,000000	2020-10-29T19:27:29:107
75,000000	0,000000	752,000000	0,000000	2020-10-29T19:27:29:116
75,000000	0,000000	752,000000	0,000000	2020-10-29T19:27:29:467
75,000000	0,000000	752,000000	0,000000	2020-10-29T19:27:29:468
76,000000	0,000000	752,000000	0,000000	2020-10-29T19:27:29:469
76,000000	0,000000	752,000000	0,000000	2020-10-29T19:27:29:470
76,000000	0,000000	752,000000	0,000000	2020-10-29T19:27:29:471
76,000000	0,000000	752,000000	0,000000	2020-10-29T19:27:29:471
76,000000	0,000000	752,000000	0,000000	2020-10-29T19:27:29:472
76,000000	0,000000	752,000000	0,000000	2020-10-29T19:27:29:539
76,000000	0,000000	752,000000	0,000000	2020-10-29T19:27:29:552
76,000000	0,000000	752,000000	0,000000	2020-10-29T19:27:29:556
75,000000	0,000000	752,000000	0,000000	2020-10-29T19:27:29:562
75,000000	0,000000	752,000000	0,000000	2020-10-29T19:27:29:597
74,000000	0,000000	752,000000	0,000000	2020-10-29T19:27:29:645
75,000000	0,000000	752,000000	0,000000	2020-10-29T19:27:29:679
75,000000	0,000000	752,000000	0,000000	2020-10-29T19:27:29:721
75,000000	0,000000	752,000000	0,000000	2020-10-29T19:27:29:805
75,000000	0,000000	752,000000	0,000000	2020-10-29T19:27:29:821
75,000000	0,000000	752,000000	0,000000	2020-10-29T19:27:29:839
75,000000	0,000000	752,000000	0,000000	2020-10-29T19:27:29:880
75,000000	0,000000	752,000000	0,000000	2020-10-29T19:27:29:916
74,000000	0,000000	752,000000	0,000000	2020-10-29T19:27:29:956
75,000000	0,000000	752,000000	0,000000	2020-10-29T19:27:29:998
75,000000	0,000000	752,000000	0,000000	2020-10-29T19:27:30:039
76,000000	0,000000	752,000000	0,000000	2020-10-29T19:27:30:080
75,000000	0,000000	752,000000	0,000000	2020-10-29T19:27:30:125
75,000000	0,000000	752,000000	0,000000	2020-10-29T19:27:30:156
75,000000	0,000000	752,000000	0,000000	2020-10-29T19:27:30:204
75,000000	0,000000	752,000000	0,000000	2020-10-29T19:27:30:245
75,000000	0,000000	752,000000	0,000000	2020-10-29T19:27:30:286
75,000000	0,000000	752,000000	0,000000	2020-10-29T19:27:30:317
75,000000	0,000000	752,000000	0,000000	2020-10-29T19:27:30:358
75,000000	0,000000	752,000000	0,000000	2020-10-29T19:27:30:399
76,000000	0,000000	752,000000	0,000000	2020-10-29T19:27:30:439
76,000000	0,000000	752,000000	0,000000	2020-10-29T19:27:30:484
75,000000	0,000000	752,000000	0,000000	2020-10-29T19:27:30:519
75,000000	0,000000	752,000000	0,000000	2020-10-29T19:27:30:558
75,000000	0,000000	752,000000	0,000000	2020-10-29T19:27:30:600
76,000000	0,000000	752,000000	0,000000	2020-10-29T19:27:30:640
75,000000	0,000000	752,000000	0,000000	2020-10-29T19:27:30:683
75,000000	0,000000	752,000000	0,000000	2020-10-29T19:27:30:719
75,000000	0,000000	752,000000	0,000000	2020-10-29T19:27:30:760
76,000000	0,000000	752,000000	0,000000	2020-10-29T19:27:30:799
76,000000	0,000000	752,000000	0,000000	2020-10-29T19:27:30:839
76,000000	0,000000	752,000000	0,000000	2020-10-29T19:27:30:880
76,000000	0,000000	752,000000	0,000000	2020-10-29T19:27:30:919
76,000000	0,000000	752,000000	0,000000	2020-10-29T19:27:30:959
76,000000	0,000000	752,000000	0,000000	2020-10-29T19:27:31:002
76,000000	0,000000	752,000000	0,000000	2020-10-29T19:27:31:043
76,000000	0,000000	752,000000	0,000000	2020-10-29T19:27:31:082
76,000000	0,000000	752,000000	0,000000	2020-10-29T19:27:31:120
77,000000	0,000000	752,000000	0,000000	2020-10-29T19:27:31:159
77,000000	0,000000	752,000000	0,000000	2020-10-29T19:27:31:205
77,000000	0,000000	752,000000	0,000000	2020-10-29T19:27:31:240
76,000000	0,000000	752,000000	0,000000	2020-10-29T19:27:31:278
77,000000	0,000000	752,000000	0,000000	2020-10-29T19:27:31:321
77,000000	0,000000	752,000000	0,000000	2020-10-29T19:27:31:360
77,000000	0,000000	752,000000	0,000000	2020-10-29T19:27:31:403
77,000000	0,000000	752,000000	0,000000	2020-10-29T19:27:31:441
77,000000	0,000000	752,000000	0,000000	2020-10-29T19:27:31:484
77,000000	0,000000	752,000000	0,000000	2020-10-29T19:27:31:741
77,000000	0,000000	752,000000	0,000000	2020-10-29T19:27:31:742
77,000000	0,000000	752,000000	0,000000	2020-10-29T19:27:31:743
77,000000	0,000000	752,000000	0,000000	2020-10-29T19:27:31:743
77,000000	0,000000	752,000000	0,000000	2020-10-29T19:27:31:744
77,000000	0,000000	752,000000	0,000000	2020-10-29T19:27:31:745
77,000000	0,000000	752,000000	0,000000	2020-10-29T19:27:31:758
77,000000	0,000000	752,000000	0,000000	2020-10-29T19:27:31:798
77,000000	0,000000	752,000000	0,000000	2020-10-29T19:27:31:982
78,000000	0,000000	752,000000	0,000000	2020-10-29T19:27:31:984
78,000000	0,000000	752,000000	0,000000	2020-10-29T19:27:32:004
78,000000	0,000000	752,000000	0,000000	2020-10-29T19:27:32:005
78,000000	0,000000	752,000000	0,000000	2020-10-29T19:27:32:010
78,000000	0,000000	752,000000	0,000000	2020-10-29T19:27:32:040
78,000000	0,000000	752,000000	0,000000	2020-10-29T19:27:32:079
78,000000	0,000000	752,000000	0,000000	2020-10-29T19:27:32:122
78,000000	0,000000	752,000000	0,000000	2020-10-29T19:27:32:186
78,000000	0,000000	752,000000	0,000000	2020-10-29T19:27:32:219
78,000000	0,000000	752,000000	0,000000	2020-10-29T19:27:32:243
79,000000	0,000000	752,000000	0,000000	2020-10-29T19:27:32:285
79,000000	0,000000	752,000000	0,000000	2020-10-29T19:27:32:318
79,000000	0,000000	752,000000	0,000000	2020-10-29T19:27:32:364
79,000000	0,000000	752,000000	0,000000	2020-10-29T19:27:32:402
79,000000	0,000000	752,000000	0,000000	2020-10-29T19:27:32:442
79,000000	0,000000	752,000000	0,000000	2020-10-29T19:27:32:480
79,000000	0,000000	752,000000	0,000000	2020-10-29T19:27:32:521
79,000000	0,000000	752,000000	0,000000	2020-10-29T19:27:32:575
79,000000	0,000000	752,000000	0,000000	2020-10-29T19:27:32:602
79,000000	0,000000	752,000000	0,000000	2020-10-29T19:27:32:641
79,000000	0,000000	752,000000	0,000000	2020-10-29T19:27:32:686
79,000000	0,000000	752,000000	0,000000	2020-10-29T19:27:32:720
79,000000	0,000000	752,000000	0,000000	2020-10-29T19:27:32:762
79,000000	0,000000	752,000000	0,000000	2020-10-29T19:27:32:801
79,000000	0,000000	752,000000	0,000000	2020-10-29T19:27:32:843
79,000000	0,000000	752,000000	0,000000	2020-10-29T19:27:32:883
79,000000	0,000000	752,000000	0,000000	2020-10-29T19:27:32:922
79,000000	0,000000	752,000000	0,000000	2020-10-29T19:27:32:960
79,000000	0,000000	752,000000	0,000000	2020-10-29T19:27:33:009
-10,000000	0,000000	752,000000	0,000000	2020-10-29T19:27:38:291
-10,000000	0,000000	752,000000	0,000000	2020-10-29T19:27:38:294
-10,000000	0,000000	752,000000	0,000000	2020-10-29T19:27:38:295
-10,000000	0,000000	752,000000	0,000000	2020-10-29T19:27:38:295
-10,000000	0,000000	752,000000	0,000000	2020-10-29T19:27:38:296
-10,000000	0,000000	752,000000	0,000000	2020-10-29T19:27:38:297
-10,000000	0,000000	752,000000	0,000000	2020-10-29T19:27:38:297
-10,000000	0,000000	752,000000	0,000000	2020-10-29T19:27:38:421
-10,000000	0,000000	752,000000	0,000000	2020-10-29T19:27:38:422
-10,000000	0,000000	752,000000	0,000000	2020-10-29T19:27:38:422
-10,000000	0,000000	752,000000	0,000000	2020-10-29T19:27:38:528
-10,000000	0,000000	752,000000	0,000000	2020-10-29T19:27:38:553
-10,000000	0,000000	752,000000	0,000000	2020-10-29T19:27:38:555
-10,000000	0,000000	752,000000	0,000000	2020-10-29T19:27:38:574
-10,000000	0,000000	752,000000	0,000000	2020-10-29T19:27:38:620
-10,000000	0,000000	752,000000	0,000000	2020-10-29T19:27:38:653
-10,000000	0,000000	752,000000	0,000000	2020-10-29T19:27:38:757
-10,000000	0,000000	752,000000	0,000000	2020-10-29T19:27:38:776
-10,000000	0,000000	752,000000	0,000000	2020-10-29T19:27:38:778
79,000000	0,000000	664,000000	0,000000	2020-10-29T19:27:38:836
-10,000000	0,000000	664,000000	0,000000	2020-10-29T19:27:38:853
-10,000000	0,000000	664,000000	0,000000	2020-10-29T19:27:38:897
-10,000000	0,000000	664,000000	0,000000	2020-10-29T19:27:38:952
-10,000000	0,000000	664,000000	0,000000	2020-10-29T19:27:39:011
-10,000000	0,000000	664,000000	0,000000	2020-10-29T19:27:39:022
-10,000000	0,000000	664,000000	0,000000	2020-10-29T19:27:39:057
-10,000000	0,000000	664,000000	0,000000	2020-10-29T19:27:39:096
-10,000000	0,000000	664,000000	0,000000	2020-10-29T19:27:39:134
-10,000000	0,000000	664,000000	0,000000	2020-10-29T19:27:39:176
-10,000000	0,000000	664,000000	0,000000	2020-10-29T19:27:39:264
-10,000000	0,000000	664,000000	0,000000	2020-10-29T19:27:39:266
-10,000000	0,000000	664,000000	0,000000	2020-10-29T19:27:39:301
-10,000000	0,000000	664,000000	0,000000	2020-10-29T19:27:39:335
-10,000000	0,000000	664,000000	0,000000	2020-10-29T19:27:39:378
-10,000000	0,000000	664,000000	0,000000	2020-10-29T19:27:39:421
-10,000000	0,000000	664,000000	0,000000	2020-10-29T19:27:39:454
-10,000000	0,000000	664,000000	0,000000	2020-10-29T19:27:39:498
-10,000000	0,000000	664,000000	0,000000	2020-10-29T19:27:39:536
-10,000000	0,000000	664,000000	0,000000	2020-10-29T19:27:39:576
-10,000000	0,000000	664,000000	0,000000	2020-10-29T19:27:39:615
-10,000000	0,000000	664,000000	0,000000	2020-10-29T19:27:39:655
-10,000000	0,000000	664,000000	0,000000	2020-10-29T19:27:39:715
-10,000000	0,000000	683,000000	0,000000	2020-10-29T19:28:16:611
-10,000000	0,000000	683,000000	0,000000	2020-10-29T19:28:16:611
-10,000000	0,000000	683,000000	0,000000	2020-10-29T19:28:16:629
-10,000000	0,000000	683,000000	0,000000	2020-10-29T19:28:16:630
-10,000000	0,000000	683,000000	0,000000	2020-10-29T19:28:16:631
-10,000000	0,000000	683,000000	0,000000	2020-10-29T19:28:16:636
-10,000000	0,000000	683,000000	0,000000	2020-10-29T19:28:16:800
-10,000000	0,000000	683,000000	0,000000	2020-10-29T19:28:16:800
-10,000000	0,000000	683,000000	0,000000	2020-10-29T19:28:16:801
-10,000000	0,000000	683,000000	0,000000	2020-10-29T19:28:16:802
-10,000000	0,000000	683,000000	0,000000	2020-10-29T19:28:16:802
-10,000000	0,000000	683,000000	0,000000	2020-10-29T19:28:16:804
-10,000000	0,000000	683,000000	0,000000	2020-10-29T19:28:16:805
-10,000000	0,000000	683,000000	0,000000	2020-10-29T19:28:16:806
-10,000000	0,000000	683,000000	0,000000	2020-10-29T19:28:16:806
-10,000000	0,000000	683,000000	0,000000	2020-10-29T19:28:16:807
-10,000000	0,000000	683,000000	0,000000	2020-10-29T19:28:16:808
-10,000000	0,000000	683,000000	0,000000	2020-10-29T19:28:16:818
-10,000000	0,000000	683,000000	0,000000	2020-10-29T19:28:16:849
-10,000000	0,000000	683,000000	0,000000	2020-10-29T19:28:16:876
-10,000000	0,000000	683,000000	0,000000	2020-10-29T19:28:16:918
-10,000000	0,000000	683,000000	0,000000	2020-10-29T19:28:16:982
-10,000000	0,000000	683,000000	0,000000	2020-10-29T19:28:17:002
-10,000000	0,000000	683,000000	0,000000	2020-10-29T19:28:17:037
-10,000000	0,000000	683,000000	0,000000	2020-10-29T19:28:17:076
-10,000000	0,000000	683,000000	0,000000	2020-10-29T19:28:17:131
-10,000000	0,000000	683,000000	0,000000	2020-10-29T19:28:17:283
-10,000000	0,000000	683,000000	0,000000	2020-10-29T19:28:17:284
-10,000000	0,000000	683,000000	0,000000	2020-10-29T19:28:17:285
-10,000000	0,000000	683,000000	0,000000	2020-10-29T19:28:17:315
-10,000000	0,000000	683,000000	0,000000	2020-10-29T19:28:17:316
-10,000000	0,000000	683,000000	0,000000	2020-10-29T19:28:17:358
-10,000000	0,000000	683,000000	0,000000	2020-10-29T19:28:17:404
-10,000000	0,000000	683,000000	0,000000	2020-10-29T19:28:17:439
-10,000000	0,000000	683,000000	0,000000	2020-10-29T19:28:17:479
-10,000000	0,000000	683,000000	0,000000	2020-10-29T19:28:17:521
-10,000000	0,000000	683,000000	0,000000	2020-10-29T19:28:17:559
-10,000000	0,000000	683,000000	0,000000	2020-10-29T19:28:17:604
-10,000000	0,000000	683,000000	0,000000	2020-10-29T19:28:17:640
-10,000000	0,000000	683,000000	0,000000	2020-10-29T19:28:17:679
-10,000000	0,000000	683,000000	0,000000	2020-10-29T19:28:17:727
-10,000000	0,000000	683,000000	0,000000	2020-10-29T19:28:17:766
-10,000000	0,000000	683,000000	0,000000	2020-10-29T19:28:17:831
-10,000000	0,000000	683,000000	0,000000	2020-10-29T19:28:17:844
-10,000000	0,000000	683,000000	0,000000	2020-10-29T19:28:17:878
-10,000000	0,000000	683,000000	0,000000	2020-10-29T19:28:17:929
-10,000000	0,000000	683,000000	0,000000	2020-10-29T19:28:17:959
-10,000000	0,000000	683,000000	0,000000	2020-10-29T19:28:17:999
-10,000000	0,000000	683,000000	0,000000	2020-10-29T19:28:18:038
-10,000000	0,000000	683,000000	0,000000	2020-10-29T19:28:18:079
-10,000000	0,000000	683,000000	0,000000	2020-10-29T19:28:18:119
-10,000000	0,000000	683,000000	0,000000	2020-10-29T19:28:18:158
-10,000000	0,000000	683,000000	0,000000	2020-10-29T19:28:18:204
-10,000000	0,000000	683,000000	0,000000	2020-10-29T19:28:18:249
-10,000000	0,000000	683,000000	0,000000	2020-10-29T19:28:18:330
-10,000000	0,000000	683,000000	0,000000	2020-10-29T19:28:18:333
-10,000000	0,000000	683,000000	0,000000	2020-10-29T19:28:18:400
-10,000000	0,000000	683,000000	0,000000	2020-10-29T19:28:18:401
-10,000000	0,000000	683,000000	0,000000	2020-10-29T19:28:18:455
-10,000000	0,000000	683,000000	0,000000	2020-10-29T19:28:18:484
-10,000000	0,000000	683,000000	0,000000	2020-10-29T19:28:18:525
-10,000000	0,000000	683,000000	0,000000	2020-10-29T19:28:18:560
-10,000000	0,000000	683,000000	0,000000	2020-10-29T19:28:18:599
-10,000000	0,000000	683,000000	0,000000	2020-10-29T19:28:18:658
-10,000000	0,000000	683,000000	0,000000	2020-10-29T19:28:18:807
-10,000000	0,000000	683,000000	0,000000	2020-10-29T19:28:18:808
-10,000000	0,000000	683,000000	0,000000	2020-10-29T19:28:18:808
-10,000000	0,000000	683,000000	0,000000	2020-10-29T19:28:18:809
-10,000000	0,000000	683,000000	0,000000	2020-10-29T19:28:18:867
-10,000000	0,000000	683,000000	0,000000	2020-10-29T19:28:18:879
-10,000000	0,000000	683,000000	0,000000	2020-10-29T19:28:18:918
-10,000000	0,000000	683,000000	0,000000	2020-10-29T19:28:18:959
-10,000000	0,000000	683,000000	0,000000	2020-10-29T19:28:19:062
-10,000000	0,000000	683,000000	0,000000	2020-10-29T19:28:19:063
-10,000000	0,000000	683,000000	0,000000	2020-10-29T19:28:19:079
-10,000000	0,000000	683,000000	0,000000	2020-10-29T19:28:19:121
-10,000000	0,000000	683,000000	0,000000	2020-10-29T19:28:19:163
-10,000000	0,000000	683,000000	0,000000	2020-10-29T19:28:19:202
-10,000000	0,000000	683,000000	0,000000	2020-10-29T19:28:19:240
-10,000000	0,000000	683,000000	0,000000	2020-10-29T19:28:19:279
-10,000000	0,000000	683,000000	0,000000	2020-10-29T19:28:19:320
-10,000000	0,000000	683,000000	0,000000	2020-10-29T19:28:19:361
-10,000000	0,000000	683,000000	0,000000	2020-10-29T19:28:19:400
-10,000000	0,000000	683,000000	0,000000	2020-10-29T19:28:19:442
-10,000000	0,000000	683,000000	0,000000	2020-10-29T19:28:19:481
-10,000000	0,000000	683,000000	0,000000	2020-10-29T19:28:19:525
-10,000000	0,000000	683,000000	0,000000	2020-10-29T19:28:19:562
-10,000000	0,000000	683,000000	0,000000	2020-10-29T19:28:19:601
-10,000000	0,000000	683,000000	0,000000	2020-10-29T19:28:19:642
-10,000000	0,000000	683,000000	0,000000	2020-10-29T19:28:19:683
-10,000000	0,000000	683,000000	0,000000	2020-10-29T19:28:19:739
-10,000000	0,000000	683,000000	0,000000	2020-10-29T19:28:19:762
-10,000000	0,000000	683,000000	0,000000	2020-10-29T19:28:19:811
-10,000000	0,000000	683,000000	0,000000	2020-10-29T19:28:19:842
-10,000000	0,000000	683,000000	0,000000	2020-10-29T19:28:19:884
-10,000000	0,000000	683,000000	0,000000	2020-10-29T19:28:19:921
-10,000000	0,000000	683,000000	0,000000	2020-10-29T19:28:19:961
-10,000000	0,000000	683,000000	0,000000	2020-10-29T19:28:20:002
-10,000000	0,000000	683,000000	0,000000	2020-10-29T19:28:20:043
-10,000000	0,000000	683,000000	0,000000	2020-10-29T19:28:20:081
-10,000000	0,000000	683,000000	0,000000	2020-10-29T19:28:20:121
-10,000000	0,000000	683,000000	0,000000	2020-10-29T19:28:20:333
-10,000000	0,000000	683,000000	0,000000	2020-10-29T19:28:20:352
-10,000000	0,000000	683,000000	0,000000	2020-10-29T19:28:20:353
-10,000000	0,000000	683,000000	0,000000	2020-10-29T19:28:20:366
-10,000000	0,000000	683,000000	0,000000	2020-10-29T19:28:20:384
-10,000000	0,000000	683,000000	0,000000	2020-10-29T19:28:20:392
-10,000000	0,000000	683,000000	0,000000	2020-10-29T19:28:20:401
-10,000000	0,000000	683,000000	0,000000	2020-10-29T19:28:20:444
-10,000000	0,000000	683,000000	0,000000	2020-10-29T19:28:20:481
-10,000000	0,000000	683,000000	0,000000	2020-10-29T19:28:20:519
-10,000000	0,000000	683,000000	0,000000	2020-10-29T19:28:20:560
-10,000000	0,000000	683,000000	0,000000	2020-10-29T19:28:20:601
-10,000000	0,000000	683,000000	0,000000	2020-10-29T19:28:20:642
-10,000000	0,000000	683,000000	0,000000	2020-10-29T19:28:20:681
-10,000000	0,000000	683,000000	0,000000	2020-10-29T19:28:20:721
-10,000000	0,000000	683,000000	0,000000	2020-10-29T19:28:20:763
-10,000000	0,000000	683,000000	0,000000	2020-10-29T19:28:20:803
-10,000000	0,000000	683,000000	0,000000	2020-10-29T19:28:20:843
-10,000000	0,000000	683,000000	0,000000	2020-10-29T19:28:20:884
-10,000000	0,000000	683,000000	0,000000	2020-10-29T19:28:20:922
-10,000000	0,000000	683,000000	0,000000	2020-10-29T19:28:20:962
-10,000000	0,000000	683,000000	0,000000	2020-10-29T19:28:21:004
-10,000000	0,000000	683,000000	0,000000	2020-10-29T19:28:21:043
-10,000000	0,000000	683,000000	0,000000	2020-10-29T19:28:21:093
-10,000000	0,000000	683,000000	0,000000	2020-10-29T19:28:21:122
-10,000000	0,000000	683,000000	0,000000	2020-10-29T19:28:21:161
-10,000000	0,000000	683,000000	0,000000	2020-10-29T19:28:21:204
-10,000000	0,000000	683,000000	0,000000	2020-10-29T19:28:21:246
-10,000000	0,000000	683,000000	0,000000	2020-10-29T19:28:21:308
-10,000000	0,000000	683,000000	0,000000	2020-10-29T19:28:21:321
-10,000000	0,000000	683,000000	0,000000	2020-10-29T19:28:21:363
-10,000000	0,000000	683,000000	0,000000	2020-10-29T19:28:21:400
-10,000000	0,000000	683,000000	0,000000	2020-10-29T19:28:21:444
-10,000000	0,000000	683,000000	0,000000	2020-10-29T19:28:21:486
-10,000000	0,000000	683,000000	0,000000	2020-10-29T19:28:21:539
-10,000000	0,000000	683,000000	0,000000	2020-10-29T19:28:21:564
-10,000000	0,000000	683,000000	0,000000	2020-10-29T19:28:21:602
-10,000000	0,000000	683,000000	0,000000	2020-10-29T19:28:21:644
-10,000000	0,000000	683,000000	0,000000	2020-10-29T19:28:21:684
-10,000000	0,000000	683,000000	0,000000	2020-10-29T19:28:21:724
-10,000000	0,000000	683,000000	0,000000	2020-10-29T19:28:21:764
-10,000000	0,000000	683,000000	0,000000	2020-10-29T19:28:21:803
-10,000000	0,000000	683,000000	0,000000	2020-10-29T19:28:21:844
-10,000000	0,000000	683,000000	0,000000	2020-10-29T19:28:21:883
-10,000000	0,000000	683,000000	0,000000	2020-10-29T19:28:21:924
-10,000000	0,000000	683,000000	0,000000	2020-10-29T19:28:21:965
-10,000000	0,000000	683,000000	0,000000	2020-10-29T19:28:22:004
-10,000000	0,000000	683,000000	0,000000	2020-10-29T19:28:22:043
-10,000000	0,000000	683,000000	0,000000	2020-10-29T19:28:22:084
-10,000000	0,000000	683,000000	0,000000	2020-10-29T19:28:22:123
-10,000000	0,000000	683,000000	0,000000	2020-10-29T19:28:22:163
-10,000000	0,000000	683,000000	0,000000	2020-10-29T19:28:22:206
-10,000000	0,000000	683,000000	0,000000	2020-10-29T19:28:22:244
-10,000000	0,000000	683,000000	0,000000	2020-10-29T19:28:22:283
-10,000000	0,000000	683,000000	0,000000	2020-10-29T19:28:22:324
-10,000000	0,000000	683,000000	0,000000	2020-10-29T19:28:22:364
-10,000000	0,000000	683,000000	0,000000	2020-10-29T19:28:22:406
-10,000000	0,000000	683,000000	0,000000	2020-10-29T19:28:22:446
-10,000000	0,000000	683,000000	0,000000	2020-10-29T19:28:22:490
-10,000000	0,000000	683,000000	0,000000	2020-10-29T19:28:22:529
-10,000000	0,000000	683,000000	0,000000	2020-10-29T19:28:22:567
-10,000000	0,000000	683,000000	0,000000	2020-10-29T19:28:22:616
-10,000000	0,000000	683,000000	0,000000	2020-10-29T19:28:22:691
-10,000000	0,000000	683,000000	0,000000	2020-10-29T19:28:22:693
