x	y	z	ts
2,473365	0,487253	9,477100	2020-10-29T19:26:04:260
2,477513	0,496876	9,475517	2020-10-29T19:26:04:261
2,643298	0,590669	9,425204	2020-10-29T19:26:04:312
2,637188	0,591225	9,426881	2020-10-29T19:26:04:317
2,626500	0,592205	9,429803	2020-10-29T19:26:04:318
2,620527	0,592756	9,431430	2020-10-29T19:26:04:321
2,614410	0,595703	9,432941	2020-10-29T19:26:04:323
2,578709	0,615983	9,441463	2020-10-29T19:26:04:345
2,512455	0,624383	9,458757	2020-10-29T19:26:04:364
2,428648	0,598874	9,482267	2020-10-29T19:26:04:385
2,355960	0,579190	9,501809	2020-10-29T19:26:04:404
2,295842	0,561858	9,517552	2020-10-29T19:26:04:424
2,247890	0,542383	9,530120	2020-10-29T19:26:04:445
2,230210	0,536658	9,534597	2020-10-29T19:26:04:465
2,235031	0,542455	9,533140	2020-10-29T19:26:04:484
2,249396	0,566574	9,528358	2020-10-29T19:26:04:505
2,254077	0,587254	9,525999	2020-10-29T19:26:04:524
2,242903	0,595185	9,528144	2020-10-29T19:26:04:547
2,214531	0,583791	9,535482	2020-10-29T19:26:04:564
2,154294	0,541199	9,551780	2020-10-29T19:26:04:585
2,079647	0,489368	9,571101	2020-10-29T19:26:04:604
2,010003	0,450164	9,587890	2020-10-29T19:26:04:625
1,939578	0,413976	9,604012	2020-10-29T19:26:04:645
5,167970	1,050421	8,267956	2020-10-29T19:26:04:665
5,356972	1,069719	8,144258	2020-10-29T19:26:04:685
5,588509	1,092930	7,984013	2020-10-29T19:26:04:706
5,836473	1,114856	7,801478	2020-10-29T19:26:04:724
6,140254	1,141628	7,560711	2020-10-29T19:26:04:746
6,430198	1,146672	7,314922	2020-10-29T19:26:04:764
6,743830	1,136167	7,028532	2020-10-29T19:26:04:786
6,971093	1,128289	6,804499	2020-10-29T19:26:04:804
7,178705	1,118904	6,586701	2020-10-29T19:26:04:826
7,380303	1,052725	6,371286	2020-10-29T19:26:04:845
7,566807	0,987765	6,159394	2020-10-29T19:26:04:867
7,691974	0,945982	6,009079	2020-10-29T19:26:04:884
7,797663	0,902377	5,878142	2020-10-29T19:26:04:906
7,864230	0,869490	5,793813	2020-10-29T19:26:04:924
7,921028	0,830812	5,721665	2020-10-29T19:26:04:947
7,971991	0,780908	5,657555	2020-10-29T19:26:04:964
8,025921	0,693277	5,592347	2020-10-29T19:26:04:986
8,073712	0,680049	5,524771	2020-10-29T19:26:05:005
8,137013	0,651932	5,434555	2020-10-29T19:26:05:025
8,204181	0,629485	5,335311	2020-10-29T19:26:05:045
8,287819	0,474366	5,220863	2020-10-29T19:26:05:067
8,374796	0,341097	5,090857	2020-10-29T19:26:05:084
8,479033	0,162539	4,924426	2020-10-29T19:26:05:106
8,576737	-0,053014	4,754698	2020-10-29T19:26:05:125
8,671774	-0,331924	4,567334	2020-10-29T19:26:05:146
8,754605	-0,643993	4,371789	2020-10-29T19:26:05:165
8,838339	-1,020389	4,124676	2020-10-29T19:26:05:186
8,901668	-1,240940	3,923106	2020-10-29T19:26:05:331
8,970837	-1,353502	3,723239	2020-10-29T19:26:05:334
9,043978	-1,314355	3,556588	2020-10-29T19:26:05:334
9,106994	-1,148809	3,451563	2020-10-29T19:26:05:336
9,147359	-0,944003	3,406621	2020-10-29T19:26:05:336
9,173213	-0,725555	3,390592	2020-10-29T19:26:05:336
9,223487	-0,745439	3,246844	2020-10-29T19:26:05:337
9,270830	-0,771134	3,102813	2020-10-29T19:26:05:353
9,311575	-0,801771	2,970206	2020-10-29T19:26:05:369
9,348932	-0,855589	2,834752	2020-10-29T19:26:05:386
9,381620	-0,924776	2,701918	2020-10-29T19:26:05:405
9,410218	-1,009875	2,568721	2020-10-29T19:26:05:427
9,434187	-1,105430	2,438141	2020-10-29T19:26:05:445
9,451298	-1,234571	2,306336	2020-10-29T19:26:05:467
9,459078	-1,408702	2,170666	2020-10-29T19:26:05:485
9,455806	-1,620370	2,032860	2020-10-29T19:26:05:508
9,423467	-1,994698	1,841153	2020-10-29T19:26:05:525
9,403766	-2,134134	1,784669	2020-10-29T19:26:05:548
9,350654	-2,425905	1,688387	2020-10-29T19:26:05:565
9,289038	-2,701408	1,608277	2020-10-29T19:26:05:587
9,258370	-2,803169	1,610967	2020-10-29T19:26:05:605
9,237676	-2,865584	1,619926	2020-10-29T19:26:05:627
9,229407	-2,883058	1,635970	2020-10-29T19:26:05:645
9,231609	-2,862496	1,659487	2020-10-29T19:26:05:668
9,224343	-2,897861	1,638376	2020-10-29T19:26:05:685
9,247550	-2,824713	1,635298	2020-10-29T19:26:05:707
9,269761	-2,762381	1,615910	2020-10-29T19:26:05:725
9,284311	-2,728894	1,589052	2020-10-29T19:26:05:747
9,286997	-2,732821	1,566447	2020-10-29T19:26:05:774
9,277727	-2,771523	1,553328	2020-10-29T19:26:05:788
9,248498	-2,883906	1,522748	2020-10-29T19:26:05:805
9,211937	-3,010960	1,498240	2020-10-29T19:26:05:828
9,163608	-3,169348	1,467621	2020-10-29T19:26:05:849
9,106157	-3,350344	1,422493	2020-10-29T19:26:05:868
9,033373	-3,567831	1,356148	2020-10-29T19:26:05:885
8,940187	-3,824360	1,271892	2020-10-29T19:26:05:911
8,858402	-4,025283	1,223192	2020-10-29T19:26:05:927
8,766330	-4,235929	1,174206	2020-10-29T19:26:05:950
8,641397	-4,509501	1,077515	2020-10-29T19:26:05:976
8,446985	-4,895461	0,923742	2020-10-29T19:26:06:000
8,389879	-5,001608	0,874205	2020-10-29T19:26:06:009
8,282997	-5,191901	0,778780	2020-10-29T19:26:06:029
8,193664	-5,341976	0,705374	2020-10-29T19:26:06:047
8,113000	-5,473811	0,622106	2020-10-29T19:26:06:069
8,047650	-5,580113	0,517730	2020-10-29T19:26:06:088
8,018192	-5,634385	0,364257	2020-10-29T19:26:06:110
8,026253	-5,625639	0,319123	2020-10-29T19:26:06:127
8,081982	-5,550437	0,211188	2020-10-29T19:26:06:159
8,095613	-5,530070	0,223057	2020-10-29T19:26:12:111
8,106477	-5,513771	0,231828	2020-10-29T19:26:12:114
8,071465	-5,564054	0,251264	2020-10-29T19:26:12:145
7,999659	-5,664986	0,289454	2020-10-29T19:26:12:148
7,858233	-5,853418	0,395032	2020-10-29T19:26:12:171
7,779120	-5,948029	0,525952	2020-10-29T19:26:12:183
7,812198	-5,889310	0,675259	2020-10-29T19:26:12:206
7,973459	-5,649511	0,823014	2020-10-29T19:26:12:224
8,196973	-5,296525	0,962721	2020-10-29T19:26:12:249
8,379484	-4,972786	1,107261	2020-10-29T19:26:12:265
8,426515	-4,871781	1,195817	2020-10-29T19:26:12:287
8,605527	-4,497738	1,373185	2020-10-29T19:26:12:303
8,528307	-4,613627	1,467246	2020-10-29T19:26:12:328
8,476596	-4,706748	1,471129	2020-10-29T19:26:12:344
8,319181	-5,002118	1,392994	2020-10-29T19:26:12:367
8,169080	-5,256675	1,343091	2020-10-29T19:26:12:384
8,019497	-5,494497	1,291727	2020-10-29T19:26:12:409
7,866063	-5,723724	1,238716	2020-10-29T19:26:12:424
7,705585	-5,951887	1,170210	2020-10-29T19:26:12:447
7,518661	-6,203465	1,075700	2020-10-29T19:26:12:464
7,297311	-6,486301	0,920622	2020-10-29T19:26:12:488
7,212255	-6,584586	0,892747	2020-10-29T19:26:12:505
7,124190	-6,681564	0,879204	2020-10-29T19:26:12:527
7,084098	-6,726161	0,862963	2020-10-29T19:26:12:544
7,159551	-6,642830	0,885451	2020-10-29T19:26:12:568
7,465587	-6,284232	0,971503	2020-10-29T19:26:12:584
8,297127	-5,104333	1,128651	2020-10-29T19:26:12:608
8,537780	-4,689869	1,132177	2020-10-29T19:26:12:624
8,899753	-3,979527	1,062146	2020-10-29T19:26:12:649
9,124469	-3,466911	0,946033	2020-10-29T19:26:12:664
9,273664	-3,084159	0,810865	2020-10-29T19:26:12:687
6,607295	-7,032826	1,747396	2020-10-29T19:26:12:704
6,517560	-7,078740	1,892944	2020-10-29T19:26:12:728
6,486051	-7,065458	2,044709	2020-10-29T19:26:12:744
6,472366	-7,034360	2,190124	2020-10-29T19:26:12:767
6,453507	-7,013638	2,309004	2020-10-29T19:26:12:784
6,429289	-6,988579	2,448344	2020-10-29T19:26:12:808
6,402457	-6,955839	2,606768	2020-10-29T19:26:12:824
6,287566	-6,944678	2,899715	2020-10-29T19:26:12:847
6,089575	-6,981141	3,217318	2020-10-29T19:26:12:864
5,813745	-7,064757	3,529868	2020-10-29T19:26:12:889
5,463511	-7,186353	3,831027	2020-10-29T19:26:12:904
5,110271	-7,293026	4,106980	2020-10-29T19:26:12:928
4,913288	-7,393033	4,168100	2020-10-29T19:26:12:944
4,720953	-7,385997	4,396595	2020-10-29T19:26:12:968
4,533890	-7,356503	4,636387	2020-10-29T19:26:12:984
4,497558	-7,237373	4,854152	2020-10-29T19:26:13:008
4,490534	-7,095715	5,065207	2020-10-29T19:26:13:024
4,526740	-6,928350	5,260891	2020-10-29T19:26:13:049
4,538809	-6,759688	5,465914	2020-10-29T19:26:13:065
4,465878	-6,637360	5,672017	2020-10-29T19:26:13:088
4,333015	-6,548030	5,875258	2020-10-29T19:26:13:104
4,148523	-6,487178	6,072615	2020-10-29T19:26:13:130
4,145848	-6,538701	6,018947	2020-10-29T19:26:13:144
4,101682	-6,617576	5,962740	2020-10-29T19:26:13:168
4,044374	-6,707740	5,900816	2020-10-29T19:26:13:184
4,014595	-6,810473	5,802660	2020-10-29T19:26:13:208
4,013714	-6,933694	5,655472	2020-10-29T19:26:13:225
4,026590	-7,061308	5,485880	2020-10-29T19:26:13:248
4,010455	-7,171235	5,353507	2020-10-29T19:26:13:265
3,985708	-7,236979	5,283053	2020-10-29T19:26:13:289
3,824989	-7,193329	5,458559	2020-10-29T19:26:13:305
3,632309	-7,116026	5,686728	2020-10-29T19:26:13:328
3,407845	-7,005596	5,956392	2020-10-29T19:26:13:345
3,167120	-6,857298	6,254375	2020-10-29T19:26:13:370
2,945507	-6,715641	6,511109	2020-10-29T19:26:13:385
2,745152	-6,600096	6,713663	2020-10-29T19:26:13:408
2,761792	-6,624803	6,682430	2020-10-29T19:26:13:425
2,821642	-6,654201	6,627996	2020-10-29T19:26:13:450
2,839349	-6,667275	6,607263	2020-10-29T19:26:13:465
2,882651	-6,673946	6,581729	2020-10-29T19:26:13:488
2,933083	-6,652308	6,581354	2020-10-29T19:26:13:505
2,823735	-6,565227	6,715259	2020-10-29T19:26:13:529
2,740592	-6,495238	6,816995	2020-10-29T19:26:13:546
2,925763	-6,486154	6,748341	2020-10-29T19:26:13:569
2,900464	-6,483805	6,761506	2020-10-29T19:26:13:585
2,740455	-6,490726	6,821346	2020-10-29T19:26:13:610
2,390423	-6,329652	7,098716	2020-10-29T19:26:13:627
8,705293	-2,903088	3,458374	2020-10-29T19:26:13:648
8,492969	-2,948327	3,917555	2020-10-29T19:26:13:665
8,186432	-3,030309	4,468775	2020-10-29T19:26:13:690
8,080120	-3,037321	4,653678	2020-10-29T19:26:13:705
7,791585	-3,039621	5,120770	2020-10-29T19:26:13:729
7,464207	-2,974093	5,622345	2020-10-29T19:26:13:746
7,141131	-2,813052	6,104209	2020-10-29T19:26:13:769
6,736024	-2,628752	6,624653	2020-10-29T19:26:13:786
6,415671	-2,548237	6,965345	2020-10-29T19:26:13:808
6,141127	-2,485975	7,230275	2020-10-29T19:26:13:827
5,985754	-2,478741	7,361860	2020-10-29T19:26:13:850
5,871377	-2,639194	7,398107	2020-10-29T19:26:13:866
5,620520	-2,730638	7,558026	2020-10-29T19:26:13:888
5,401851	-2,761063	7,704993	2020-10-29T19:26:13:906
5,078900	-2,692812	7,945056	2020-10-29T19:26:13:930
4,659148	-2,633708	8,217439	2020-10-29T19:26:13:946
4,327630	-2,611921	8,403563	2020-10-29T19:26:13:969
4,246802	-2,811809	8,380261	2020-10-29T19:26:13:986
4,223012	-3,065073	8,303124	2020-10-29T19:26:14:010
4,153893	-3,307981	8,244563	2020-10-29T19:26:14:026
4,074542	-3,452330	8,224957	2020-10-29T19:26:14:048
3,993979	-3,479813	8,252843	2020-10-29T19:26:14:067
3,896424	-3,369159	8,344881	2020-10-29T19:26:14:092
3,652500	-3,203248	8,518734	2020-10-29T19:26:14:106
3,599864	-3,107272	8,576492	2020-10-29T19:26:14:129
3,523887	-3,037417	8,632885	2020-10-29T19:26:14:146
3,411413	-2,857085	8,738976	2020-10-29T19:26:14:170
3,315917	-2,590703	8,857953	2020-10-29T19:26:14:186
3,232853	-2,235057	8,984630	2020-10-29T19:26:14:209
3,089852	-1,743400	9,142415	2020-10-29T19:26:14:234
2,980122	-1,419358	9,234429	2020-10-29T19:26:14:255
2,915107	-1,248836	9,279706	2020-10-29T19:26:14:371
2,922089	-1,271063	9,274490	2020-10-29T19:26:14:375
2,974873	-1,419486	9,236102	2020-10-29T19:26:14:376
3,029819	-1,595001	9,189481	2020-10-29T19:26:14:376
3,027581	-1,633057	9,183532	2020-10-29T19:26:14:409
2,989007	-1,673092	9,188960	2020-10-29T19:26:14:451
2,912385	-1,680405	9,212200	2020-10-29T19:26:14:472
2,802384	-1,668399	9,248431	2020-10-29T19:26:14:472
2,687887	-1,688913	9,278643	2020-10-29T19:26:14:482
2,587385	-1,716949	9,302038	2020-10-29T19:26:14:482
2,517294	-1,752896	9,314557	2020-10-29T19:26:14:483
2,443500	-1,788747	9,327383	2020-10-29T19:26:14:488
2,397794	-1,827201	9,331790	2020-10-29T19:26:14:508
2,386031	-1,874557	9,325410	2020-10-29T19:26:14:539
2,384145	-1,890639	9,322646	2020-10-29T19:26:14:548
2,397644	-1,922230	9,312718	2020-10-29T19:26:14:570
2,422513	-1,976273	9,294953	2020-10-29T19:26:14:586
2,454583	-2,059994	9,268324	2020-10-29T19:26:14:610
2,484528	-2,144609	9,241112	2020-10-29T19:26:14:628
2,505344	-2,215651	9,218705	2020-10-29T19:26:14:654
2,523546	-2,271966	9,200015	2020-10-29T19:26:14:664
2,537558	-2,317641	9,184754	2020-10-29T19:26:14:687
2,549751	-2,357654	9,171185	2020-10-29T19:26:14:705
2,557105	-2,394395	9,159611	2020-10-29T19:26:14:729
2,554492	-2,423091	9,152791	2020-10-29T19:26:14:744
2,536760	-2,446256	9,151561	2020-10-29T19:26:14:768
2,505911	-2,462559	9,155686	2020-10-29T19:26:14:786
2,466961	-2,465312	9,165519	2020-10-29T19:26:14:812
2,425550	-2,479118	9,172844	2020-10-29T19:26:14:826
2,399386	-2,498682	9,174417	2020-10-29T19:26:14:849
2,369491	-2,518689	9,176715	2020-10-29T19:26:14:867
2,344322	-2,536735	9,178208	2020-10-29T19:26:14:890
2,332024	-2,548560	9,178065	2020-10-29T19:26:14:907
2,318980	-2,554988	9,179584	2020-10-29T19:26:14:930
2,309582	-2,553174	9,182457	2020-10-29T19:26:14:946
2,297354	-2,543802	9,188124	2020-10-29T19:26:14:971
2,288784	-2,542792	9,190542	2020-10-29T19:26:14:986
2,281583	-2,547240	9,191101	2020-10-29T19:26:15:009
2,275088	-2,563535	9,188180	2020-10-29T19:26:15:027
2,264013	-2,592813	9,182698	2020-10-29T19:26:15:052
2,243493	-2,617495	9,180732	2020-10-29T19:26:15:067
2,209168	-2,628627	9,185874	2020-10-29T19:26:15:090
2,175331	-2,630676	9,193359	2020-10-29T19:26:15:106
2,120897	-2,634752	9,204905	2020-10-29T19:26:15:131
2,041794	-2,663810	9,214422	2020-10-29T19:26:15:148
1,933102	-2,689253	9,230461	2020-10-29T19:26:15:170
1,765347	-2,714140	9,256747	2020-10-29T19:26:15:187
1,545414	-2,740838	9,288158	2020-10-29T19:26:15:210
1,291257	-2,743880	9,325994	2020-10-29T19:26:15:227
1,076568	-2,747223	9,352227	2020-10-29T19:26:15:254
0,891472	-2,784122	9,360786	2020-10-29T19:26:15:267
0,736439	-2,876109	9,346445	2020-10-29T19:26:15:291
0,591651	-3,029701	9,308128	2020-10-29T19:26:15:306
0,456052	-3,264416	9,236124	2020-10-29T19:26:15:330
0,338338	-3,806027	9,031615	2020-10-29T19:26:15:346
0,264612	-5,045940	8,404693	2020-10-29T19:26:15:370
0,210148	-6,433742	7,398189	2020-10-29T19:26:15:390
0,371734	1,220378	9,723316	2020-10-29T19:26:15:411
0,523372	0,948957	9,746587	2020-10-29T19:26:15:429
0,461124	-7,090588	6,758795	2020-10-29T19:26:15:452
0,567769	-7,171057	6,665131	2020-10-29T19:26:15:472
0,678178	-7,228527	6,592334	2020-10-29T19:26:15:490
0,756796	-7,384282	6,408590	2020-10-29T19:26:15:507
0,803361	-7,595038	6,151455	2020-10-29T19:26:15:532
0,861551	-7,750092	5,946780	2020-10-29T19:26:15:547
0,943470	-7,869090	5,775610	2020-10-29T19:26:15:571
1,154647	-7,831387	5,788485	2020-10-29T19:26:15:588
1,350044	-7,874636	5,686641	2020-10-29T19:26:15:612
1,568594	-7,998979	5,452177	2020-10-29T19:26:15:628
1,798634	-8,086463	5,248278	2020-10-29T19:26:15:651
2,114816	-8,017438	5,236279	2020-10-29T19:26:15:668
2,719922	-7,827493	5,244307	2020-10-29T19:26:15:692
2,947384	-7,753045	5,231979	2020-10-29T19:26:15:712
3,461489	-7,580714	5,169261	2020-10-29T19:26:15:797
3,897069	-7,398993	5,122318	2020-10-29T19:26:15:799
4,353302	-7,171358	5,078461	2020-10-29T19:26:15:800
4,830676	-6,901380	5,020549	2020-10-29T19:26:15:801
5,338915	-6,571726	4,947603	2020-10-29T19:26:15:846
5,847817	-6,275815	4,752638	2020-10-29T19:26:15:848
6,268190	-6,133924	4,388069	2020-10-29T19:26:15:850
6,636019	-6,023084	3,981972	2020-10-29T19:26:15:931
6,938278	-5,913233	3,614465	2020-10-29T19:26:15:931
7,187562	-5,798982	3,298659	2020-10-29T19:26:15:932
7,400138	-5,651854	3,076505	2020-10-29T19:26:15:933
7,578258	-5,491299	2,930192	2020-10-29T19:26:15:946
7,745770	-5,315482	2,814088	2020-10-29T19:26:15:969
7,955039	-5,059667	2,699540	2020-10-29T19:26:15:986
8,149321	-4,817223	2,559944	2020-10-29T19:26:16:012
8,357197	-4,540498	2,389879	2020-10-29T19:26:16:038
8,576382	-4,203983	2,223194	2020-10-29T19:26:16:060
8,784516	-3,867926	2,010425	2020-10-29T19:26:16:068
8,966234	-3,563390	1,754788	2020-10-29T19:26:16:091
9,097582	-3,340304	1,498921	2020-10-29T19:26:16:108
9,189788	-3,183589	1,258152	2020-10-29T19:26:16:133
9,209059	-3,208478	1,034065	2020-10-29T19:26:16:148
9,002979	-3,806550	0,791787	2020-10-29T19:26:16:172
8,874223	-4,105779	0,749087	2020-10-29T19:26:16:192
8,565648	-4,727102	0,674207	2020-10-29T19:26:16:210
8,351920	-5,100843	0,630250	2020-10-29T19:26:16:228
8,301599	-5,181004	0,641119	2020-10-29T19:26:16:252
8,373645	-5,055535	0,702869	2020-10-29T19:26:16:268
8,511423	-4,808939	0,774700	2020-10-29T19:26:16:291
8,674252	-4,500710	0,819365	2020-10-29T19:26:16:320
8,808148	-4,235025	0,807140	2020-10-29T19:26:16:332
8,970979	-3,873576	0,829055	2020-10-29T19:26:16:352
9,133084	-3,456642	0,899327	2020-10-29T19:26:16:411
9,250334	-3,112249	0,956877	2020-10-29T19:26:16:419
9,337922	-2,830244	0,981490	2020-10-29T19:26:16:419
9,388696	-2,661779	0,968355	2020-10-29T19:26:16:429
9,414361	-2,577846	0,945993	2020-10-29T19:26:16:451
9,429363	-2,535260	0,911018	2020-10-29T19:26:16:467
9,435355	-2,524428	0,878480	2020-10-29T19:26:16:493
9,434299	-2,534423	0,860867	2020-10-29T19:26:16:515
9,432755	-2,543250	0,851711	2020-10-29T19:26:16:538
9,426719	-2,567188	0,846702	2020-10-29T19:26:16:547
9,402393	-2,654448	0,848107	2020-10-29T19:26:16:571
9,389981	-2,692977	0,864008	2020-10-29T19:26:16:587
9,352500	-2,809296	0,899432	2020-10-29T19:26:16:612
9,298360	-2,972537	0,935367	2020-10-29T19:26:16:629
9,237166	-3,151001	0,957253	2020-10-29T19:26:16:659
9,160908	-3,360133	0,978598	2020-10-29T19:26:16:670
9,067212	-3,595833	1,012933	2020-10-29T19:26:16:705
8,988536	-3,791562	1,000336	2020-10-29T19:26:16:710
8,920605	-3,955436	0,973507	2020-10-29T19:26:16:748
8,862867	-4,089741	0,945506	2020-10-29T19:26:16:751
8,821291	-4,189419	0,896645	2020-10-29T19:26:16:774
8,803024	-4,239995	0,836417	2020-10-29T19:26:16:787
8,805494	-4,237218	0,824396	2020-10-29T19:26:16:811
8,811973	-4,224321	0,821364	2020-10-29T19:26:16:829
8,817869	-4,213172	0,815320	2020-10-29T19:26:16:851
8,841865	-4,159753	0,829622	2020-10-29T19:26:16:868
8,921112	-3,988847	0,820510	2020-10-29T19:26:16:893
8,943528	-3,939321	0,815748	2020-10-29T19:26:16:908
9,011064	-3,779027	0,830709	2020-10-29T19:26:16:932
9,032911	-3,724590	0,839243	2020-10-29T19:26:16:948
9,077688	-3,607261	0,868119	2020-10-29T19:26:16:973
9,118941	-3,500327	0,873497	2020-10-29T19:26:16:988
9,140941	-3,448469	0,849501	2020-10-29T19:26:17:011
9,141483	-3,453539	0,822640	2020-10-29T19:26:17:028
9,106480	-3,557441	0,766182	2020-10-29T19:26:17:052
9,086042	-3,612801	0,749588	2020-10-29T19:26:17:069
9,047458	-3,713642	0,723018	2020-10-29T19:26:17:093
9,046377	-3,715691	0,725999	2020-10-29T19:26:17:108
9,057141	-3,685025	0,747769	2020-10-29T19:26:17:133
9,076159	-3,631627	0,777819	2020-10-29T19:26:17:149
9,089548	-3,592500	0,802767	2020-10-29T19:26:17:172
9,082225	-3,604800	0,830055	2020-10-29T19:26:17:189
9,001831	-3,783092	0,908644	2020-10-29T19:26:17:215
8,965728	-3,859321	0,944324	2020-10-29T19:26:17:228
8,903832	-3,982130	1,017249	2020-10-29T19:26:17:252
8,842938	-4,100937	1,074777	2020-10-29T19:26:17:268
8,776545	-4,229745	1,118887	2020-10-29T19:26:17:292
8,707083	-4,359283	1,163507	2020-10-29T19:26:17:308
8,657404	-4,450274	1,189455	2020-10-29T19:26:17:332
8,620541	-4,518070	1,201543	2020-10-29T19:26:17:348
8,594918	-4,564044	1,211305	2020-10-29T19:26:17:373
8,571609	-4,601405	1,234902	2020-10-29T19:26:17:389
8,550105	-4,633663	1,263034	2020-10-29T19:26:17:412
8,531773	-4,655802	1,304894	2020-10-29T19:26:17:429
8,522197	-4,661532	1,346348	2020-10-29T19:26:17:454
8,514203	-4,668128	1,373792	2020-10-29T19:26:17:469
8,498916	-4,690640	1,391657	2020-10-29T19:26:17:492
8,516914	-4,662870	1,374846	2020-10-29T19:26:17:510
8,543863	-4,633154	1,306393	2020-10-29T19:26:17:533
8,558434	-4,624679	1,239331	2020-10-29T19:26:17:549
8,565392	-4,625757	1,186087	2020-10-29T19:26:17:573
8,576723	-4,611789	1,158276	2020-10-29T19:26:17:589
8,587538	-4,586064	1,180084	2020-10-29T19:26:17:613
8,594741	-4,550995	1,260662	2020-10-29T19:26:17:630
8,618379	-4,471995	1,376660	2020-10-29T19:26:17:652
8,664212	-4,352326	1,469379	2020-10-29T19:26:17:669
8,712184	-4,240333	1,512550	2020-10-29T19:26:17:726
8,738288	-4,189046	1,504860	2020-10-29T19:26:17:728
8,732214	-4,218149	1,458094	2020-10-29T19:26:17:732
8,690151	-4,324874	1,395390	2020-10-29T19:26:17:749
8,598349	-4,527983	1,317633	2020-10-29T19:26:17:773
8,451472	-4,814475	1,250535	2020-10-29T19:26:17:788
8,257588	-5,154774	1,187822	2020-10-29T19:26:17:812
8,040030	-5,503185	1,115010	2020-10-29T19:26:17:832
7,836861	-5,804634	1,029670	2020-10-29T19:26:17:854
7,667538	-6,041556	0,937467	2020-10-29T19:26:17:869
7,499034	-6,266459	0,816307	2020-10-29T19:26:17:893
7,327679	-6,482678	0,671116	2020-10-29T19:26:17:909
7,171871	-6,668770	0,512010	2020-10-29T19:26:17:934
7,080211	-6,775322	0,368789	2020-10-29T19:26:17:949
7,074584	-6,786571	0,251180	2020-10-29T19:26:17:973
7,146434	-6,713876	0,150768	2020-10-29T19:26:17:989
7,292395	-6,555924	0,105940	2020-10-29T19:26:18:013
7,483018	-6,337941	0,073035	2020-10-29T19:26:18:030
7,693198	-6,081252	0,058878	2020-10-29T19:26:18:053
7,889037	-5,824941	0,059539	2020-10-29T19:26:18:069
8,062383	-5,582241	0,083369	2020-10-29T19:26:18:094
8,209982	-5,362261	0,112845	2020-10-29T19:26:18:110
8,340966	-5,155426	0,142290	2020-10-29T19:26:18:134
8,425571	-5,014801	0,178638	2020-10-29T19:26:18:159
8,505048	-4,877739	0,205457	2020-10-29T19:26:27:123
8,594645	-4,718753	0,189297	2020-10-29T19:26:27:126
8,716832	-4,490141	0,160773	2020-10-29T19:26:27:130
8,896770	-4,123499	0,120980	2020-10-29T19:26:27:146
9,120850	-3,601979	0,078986	2020-10-29T19:26:27:162
9,279298	-3,171984	0,059484	2020-10-29T19:26:27:177
9,404430	-2,779436	0,042540	2020-10-29T19:26:27:202
9,461586	-2,578506	0,008669	2020-10-29T19:26:27:218
9,479218	-2,512238	-0,058840	2020-10-29T19:26:27:242
9,482044	-2,500918	-0,081393	2020-10-29T19:26:27:259
9,500439	-2,428202	-0,126009	2020-10-29T19:26:27:285
9,518029	-2,356167	-0,161179	2020-10-29T19:26:27:299
9,541635	-2,256896	-0,184430	2020-10-29T19:26:27:323
9,571163	-2,127669	-0,190369	2020-10-29T19:26:27:338
9,625975	-1,865472	-0,176121	2020-10-29T19:26:27:362
9,685955	-1,526062	-0,154262	2020-10-29T19:26:27:379
9,736957	-1,159520	-0,132562	2020-10-29T19:26:27:402
9,775884	-0,768196	-0,111131	2020-10-29T19:26:27:419
9,803554	-0,234848	-0,074606	2020-10-29T19:26:27:442
9,799714	-0,338798	-0,145593	2020-10-29T19:26:27:459
9,791713	-0,489614	-0,230268	2020-10-29T19:26:27:482
9,778343	-0,672871	-0,318807	2020-10-29T19:26:27:499
9,745830	-1,001267	-0,432045	2020-10-29T19:26:27:526
9,730089	-1,130318	-0,467049	2020-10-29T19:26:27:539
9,686702	-1,425678	-0,552847	2020-10-29T19:26:27:563
9,632762	-1,717270	-0,656704	2020-10-29T19:26:27:579
9,570395	-2,000253	-0,759544	2020-10-29T19:26:27:603
9,516568	-2,217505	-0,829452	2020-10-29T19:26:27:619
9,468481	-2,385731	-0,909142	2020-10-29T19:26:27:643
9,461611	-2,402706	-0,935578	2020-10-29T19:26:27:659
9,453835	-2,412661	-0,987147	2020-10-29T19:26:27:683
9,427011	-2,523659	-0,965918	2020-10-29T19:26:27:699
9,473801	-2,386208	-0,850581	2020-10-29T19:26:27:721
9,545284	-2,112753	-0,770850	2020-10-29T19:26:27:739
9,613971	-1,799078	-0,710820	2020-10-29T19:26:27:765
9,644694	-1,633481	-0,694258	2020-10-29T19:26:27:779
9,658395	-1,548936	-0,697557	2020-10-29T19:26:27:802
9,668142	-1,486688	-0,697972	2020-10-29T19:26:27:820
9,695055	-1,314979	-0,668679	2020-10-29T19:26:27:843
9,706355	-1,231071	-0,664471	2020-10-29T19:26:27:859
9,727383	-1,029328	-0,699206	2020-10-29T19:26:27:882
9,737389	-0,901956	-0,734935	2020-10-29T19:26:27:899
9,735101	-0,873361	-0,797140	2020-10-29T19:26:27:923
9,721005	-0,937832	-0,890450	2020-10-29T19:26:27:939
9,699656	-1,051594	-0,990562	2020-10-29T19:26:27:962
9,681877	-1,142844	-1,060917	2020-10-29T19:26:27:980
9,682797	-1,125121	-1,071413	2020-10-29T19:26:28:005
9,690432	-1,073625	-1,055109	2020-10-29T19:26:28:019
9,704081	-0,988895	-1,011576	2020-10-29T19:26:28:043
9,725767	-0,843233	-0,932095	2020-10-29T19:26:28:059
9,752476	-0,634477	-0,810577	2020-10-29T19:26:28:084
9,774670	-0,415010	-0,673787	2020-10-29T19:26:28:100
9,787939	-0,285172	-0,534137	2020-10-29T19:26:28:122
9,796571	-0,177898	-0,407346	2020-10-29T19:26:28:139
9,800576	-0,130583	-0,319433	2020-10-29T19:26:28:163
9,800230	-0,161383	-0,315952	2020-10-29T19:26:28:180
9,796975	-0,266066	-0,344769	2020-10-29T19:26:28:203
9,788681	-0,426994	-0,412053	2020-10-29T19:26:28:219
9,770485	-0,630825	-0,556840	2020-10-29T19:26:28:245
9,135536	-2,608007	-2,431187	2020-10-29T19:26:28:259
8,625218	-3,339934	-3,258961	2020-10-29T19:26:28:283
8,092283	-4,048826	-3,780522	2020-10-29T19:26:28:300
7,579443	-4,723924	-4,050553	2020-10-29T19:26:28:323
7,250020	-5,258887	-3,993958	2020-10-29T19:26:28:339
7,026206	-5,739209	-3,723478	2020-10-29T19:26:28:362
6,886195	-6,122388	-3,356644	2020-10-29T19:26:28:380
6,775280	-6,408584	-3,032495	2020-10-29T19:26:28:403
6,708319	-6,581816	-2,801525	2020-10-29T19:26:28:420
6,694112	-6,674365	-2,609999	2020-10-29T19:26:28:443
6,678729	-6,750152	-2,449576	2020-10-29T19:26:28:459
6,663927	-6,805852	-2,332988	2020-10-29T19:26:28:484
6,682106	-6,805775	-2,280631	2020-10-29T19:26:28:499
6,615298	-6,834900	-2,385865	2020-10-29T19:26:28:523
6,571182	-6,824235	-2,533724	2020-10-29T19:26:28:540
6,546119	-6,743704	-2,800210	2020-10-29T19:26:28:564
6,554373	-6,701075	-2,882043	2020-10-29T19:26:28:580
6,617450	-6,574929	-3,024904	2020-10-29T19:26:28:603
6,725245	-6,411457	-3,136031	2020-10-29T19:26:28:620
6,903966	-6,182233	-3,207122	2020-10-29T19:26:28:643
7,152619	-5,889714	-3,212740	2020-10-29T19:26:28:660
7,488681	-5,567402	-3,015638	2020-10-29T19:26:28:683
8,011164	-5,019239	-2,607467	2020-10-29T19:26:28:701
8,181385	-4,825432	-2,439371	2020-10-29T19:26:28:725
8,561868	-4,348486	-1,988836	2020-10-29T19:26:28:740
8,937589	-3,769001	-1,443792	2020-10-29T19:26:28:763
9,297904	-2,997460	-0,857093	2020-10-29T19:26:28:780
9,642612	-1,785958	0,027700	2020-10-29T19:26:28:805
9,696094	-1,443865	0,267216	2020-10-29T19:26:28:820
9,750263	-0,778287	0,704994	2020-10-29T19:26:28:844
9,751449	-0,258631	1,006349	2020-10-29T19:26:28:860
9,751386	-0,080541	1,036518	2020-10-29T19:26:28:884
9,756392	0,000987	0,991561	2020-10-29T19:26:28:901
9,764047	0,045980	0,911956	2020-10-29T19:26:28:923
9,764686	0,192902	0,885483	2020-10-29T19:26:28:940
9,769197	0,343702	0,784241	2020-10-29T19:26:28:966
9,773399	0,348163	0,727898	2020-10-29T19:26:28:980
9,787035	0,254961	0,565089	2020-10-29T19:26:29:003
9,798320	0,107623	0,389535	2020-10-29T19:26:29:020
9,803851	-0,131598	0,193807	2020-10-29T19:26:29:043
9,797612	-0,420913	0,004232	2020-10-29T19:26:29:060
9,776340	-0,754616	-0,155330	2020-10-29T19:26:29:083
9,746872	-1,048316	-0,264411	2020-10-29T19:26:29:100
9,794432	-0,463617	-0,156712	2020-10-29T19:26:29:124
9,788675	-0,558222	-0,201503	2020-10-29T19:26:29:140
9,795693	-0,427134	-0,179801	2020-10-29T19:26:29:163
9,803295	-0,215147	-0,139670	2020-10-29T19:26:29:180
9,804920	-0,078367	-0,166664	2020-10-29T19:26:29:207
9,805397	-0,010996	-0,156373	2020-10-29T19:26:29:220
9,805216	0,123448	-0,113525	2020-10-29T19:26:29:243
9,804011	0,216202	-0,070792	2020-10-29T19:26:29:260
9,802880	0,270750	-0,024919	2020-10-29T19:26:29:284
9,803086	0,264351	-0,002129	2020-10-29T19:26:29:301
9,804759	0,189662	-0,033224	2020-10-29T19:26:29:323
9,805510	0,034184	-0,145615	2020-10-29T19:26:29:340
9,800256	-0,170669	-0,310222	2020-10-29T19:26:29:364
9,787011	-0,382227	-0,488560	2020-10-29T19:26:29:381
9,771516	-0,545825	-0,624451	2020-10-29T19:26:29:403
9,764724	-0,601319	-0,677477	2020-10-29T19:26:29:421
9,768575	-0,557075	-0,659548	2020-10-29T19:26:29:447
9,772289	-0,522492	-0,632254	2020-10-29T19:26:29:460
9,784498	-0,392993	-0,528715	2020-10-29T19:26:29:485
9,795993	-0,229713	-0,395153	2020-10-29T19:26:29:501
9,802359	-0,079295	-0,279036	2020-10-29T19:26:29:527
9,804883	0,045670	-0,180483	2020-10-29T19:26:29:544
9,805309	0,129299	-0,097896	2020-10-29T19:26:29:563
9,805205	0,150155	-0,076039	2020-10-29T19:26:29:581
9,805260	0,128924	-0,103141	2020-10-29T19:26:29:605
9,805384	0,117119	-0,105425	2020-10-29T19:26:29:621
9,805389	0,090020	-0,128882	2020-10-29T19:26:29:643
9,805212	0,063145	-0,155616	2020-10-29T19:26:29:661
9,805120	0,043504	-0,167702	2020-10-29T19:26:29:686
9,805297	0,044494	-0,156736	2020-10-29T19:26:29:701
9,805709	0,069291	-0,116874	2020-10-29T19:26:29:724
9,805924	0,106291	-0,054135	2020-10-29T19:26:29:741
9,805579	0,144445	0,011722	2020-10-29T19:26:29:765
9,804688	0,177837	0,082765	2020-10-29T19:26:29:781
9,804058	0,180879	0,134561	2020-10-29T19:26:29:805
9,790301	0,426261	0,372393	2020-10-29T19:26:29:821
9,797162	0,285281	0,323429	2020-10-29T19:26:29:846
9,800611	0,139068	0,314777	2020-10-29T19:26:29:861
9,802399	-0,088109	0,274973	2020-10-29T19:26:29:884
9,795841	-0,417438	0,193951	2020-10-29T19:26:29:902
9,778757	-0,729743	0,117369	2020-10-29T19:26:29:927
9,738283	-1,155874	0,013522	2020-10-29T19:26:29:942
9,652835	-1,726382	-0,112995	2020-10-29T19:26:29:964
9,533117	-2,292439	-0,186486	2020-10-29T19:26:29:982
9,438022	-2,653262	-0,233077	2020-10-29T19:26:30:005
9,333464	-2,995345	-0,291113	2020-10-29T19:26:30:021
9,243152	-3,256291	-0,362066	2020-10-29T19:26:30:044
9,159073	-3,471793	-0,477933	2020-10-29T19:26:30:062
9,051734	-3,713554	-0,667842	2020-10-29T19:26:30:085
8,839554	-4,170156	-0,801544	2020-10-29T19:26:30:101
8,624729	-4,565479	-0,969966	2020-10-29T19:26:30:124
8,433619	-4,874395	-1,133459	2020-10-29T19:26:30:141
8,231393	-5,175606	-1,275799	2020-10-29T19:26:30:166
7,992670	-5,505308	-1,406836	2020-10-29T19:26:30:181
7,771283	-5,799625	-1,463519	2020-10-29T19:26:30:205
7,594486	-6,049525	-1,377470	2020-10-29T19:26:30:222
7,504998	-6,201198	-1,179213	2020-10-29T19:26:30:245
7,450569	-6,307745	-0,933683	2020-10-29T19:26:30:261
7,401593	-6,394293	-0,706989	2020-10-29T19:26:30:285
7,376468	-6,440407	-0,528450	2020-10-29T19:26:30:302
7,348564	-6,485807	-0,321399	2020-10-29T19:26:30:325
7,334504	-6,507931	-0,149254	2020-10-29T19:26:30:341
7,344257	-6,498350	0,060961	2020-10-29T19:26:30:365
7,363152	-6,476263	0,111329	2020-10-29T19:26:30:382
7,447290	-6,376892	0,208557	2020-10-29T19:26:30:407
7,471710	-6,347725	0,224311	2020-10-29T19:26:30:421
7,521690	-6,287337	0,252880	2020-10-29T19:26:30:445
7,520647	-6,289455	0,230223	2020-10-29T19:26:30:462
7,525868	-6,284286	0,198600	2020-10-29T19:26:30:486
7,547482	-6,258230	0,201146	2020-10-29T19:26:30:502
7,570910	-6,228792	0,232081	2020-10-29T19:26:30:524
7,575624	-6,222417	0,248675	2020-10-29T19:26:30:541
7,514820	-6,296614	0,224760	2020-10-29T19:26:30:565
7,443246	-6,381835	0,201620	2020-10-29T19:26:30:582
7,429589	-6,396295	0,242898	2020-10-29T19:26:30:604
7,415559	-6,410357	0,295276	2020-10-29T19:26:30:622
7,436605	-6,381896	0,372405	2020-10-29T19:26:30:645
7,358300	-6,471586	0,379977	2020-10-29T19:26:30:661
7,315258	-6,519368	0,393996	2020-10-29T19:26:30:685
7,507339	-6,290163	0,494071	2020-10-29T19:26:30:702
7,717932	-6,023267	0,569353	2020-10-29T19:26:30:724
7,737027	-5,999517	0,560878	2020-10-29T19:26:30:742
7,566544	-6,221579	0,458002	2020-10-29T19:26:30:765
7,499693	-6,304171	0,427106	2020-10-29T19:26:30:781
7,408651	-6,413138	0,392339	2020-10-29T19:26:30:805
7,362895	-6,466827	0,371908	2020-10-29T19:26:30:821
7,423914	-6,394022	0,415169	2020-10-29T19:26:30:844
7,556868	-6,229165	0,511505	2020-10-29T19:26:30:862
7,696882	-6,047155	0,600255	2020-10-29T19:26:30:885
7,713263	-6,025138	0,611295	2020-10-29T19:26:30:902
7,571682	-6,209362	0,532767	2020-10-29T19:26:30:924
7,376578	-6,449222	0,404992	2020-10-29T19:26:30:942
7,235926	-6,613127	0,279854	2020-10-29T19:26:30:965
7,185729	-6,671900	0,146413	2020-10-29T19:26:30:982
7,219330	-6,636969	0,047918	2020-10-29T19:26:31:005
7,316473	-6,529783	-0,039362	2020-10-29T19:26:31:021
7,479084	-6,341723	-0,127395	2020-10-29T19:26:31:045
7,659115	-6,121334	-0,193945	2020-10-29T19:26:31:062
7,830787	-5,899135	-0,222203	2020-10-29T19:26:31:085
8,039553	-5,609162	-0,270708	2020-10-29T19:26:31:102
8,240349	-5,306652	-0,326312	2020-10-29T19:26:31:126
8,429842	-4,995406	-0,392521	2020-10-29T19:26:31:142
8,598442	-4,692581	-0,465687	2020-10-29T19:26:31:165
8,729822	-4,434979	-0,539954	2020-10-29T19:26:31:183
8,843509	-4,192697	-0,619704	2020-10-29T19:26:31:205
8,916673	-4,019899	-0,709750	2020-10-29T19:26:31:222
8,943409	-3,947397	-0,777097	2020-10-29T19:26:31:245
9,004458	-3,797581	-0,817611	2020-10-29T19:26:31:262
9,042564	-3,700897	-0,840110	2020-10-29T19:26:31:285
9,107233	-3,523935	-0,900317	2020-10-29T19:26:31:302
9,195610	-3,279964	-0,923566	2020-10-29T19:26:31:326
9,221723	-3,212005	-0,901802	2020-10-29T19:26:31:342
9,302174	-3,014629	-0,742948	2020-10-29T19:26:31:368
9,325268	-2,959367	-0,672247	2020-10-29T19:26:31:382
9,367031	-2,860894	-0,494370	2020-10-29T19:26:31:405
9,403464	-2,765768	-0,309473	2020-10-29T19:26:31:422
9,447562	-2,628662	-0,063895	2020-10-29T19:26:31:446
9,462620	-2,574722	0,004783	2020-10-29T19:26:31:462
9,492976	-2,457010	0,129936	2020-10-29T19:26:31:485
9,522678	-2,331933	0,225981	2020-10-29T19:26:31:502
9,547208	-2,222581	0,285208	2020-10-29T19:26:31:526
9,548842	-2,213735	0,298947	2020-10-29T19:26:31:542
9,541284	-2,248142	0,283094	2020-10-29T19:26:31:566
9,530574	-2,297833	0,241888	2020-10-29T19:26:31:583
9,517708	-2,355101	0,192694	2020-10-29T19:26:31:607
9,500986	-2,425383	0,138439	2020-10-29T19:26:31:622
9,467174	-2,556861	0,073980	2020-10-29T19:26:31:645
9,423458	-2,714525	0,012871	2020-10-29T19:26:31:662
9,378157	-2,866896	-0,038377	2020-10-29T19:26:31:685
9,336958	-2,997692	-0,073766	2020-10-29T19:26:31:703
9,293084	-3,130279	-0,101641	2020-10-29T19:26:31:725
9,242165	-3,276901	-0,121226	2020-10-29T19:26:31:742
9,182490	-3,440038	-0,135599	2020-10-29T19:26:31:766
9,108378	-3,630910	-0,155959	2020-10-29T19:26:31:783
8,953930	-3,995176	-0,190004	2020-10-29T19:26:31:806
8,897935	-4,117935	-0,199380	2020-10-29T19:26:31:823
8,764719	-4,393051	-0,226236	2020-10-29T19:26:31:846
8,619867	-4,669385	-0,255190	2020-10-29T19:26:31:862
8,453460	-4,964078	-0,259496	2020-10-29T19:26:31:886
8,318376	-5,187978	-0,244747	2020-10-29T19:26:31:903
8,253715	-5,289103	-0,268269	2020-10-29T19:26:31:926
8,222336	-5,337696	-0,269408	2020-10-29T19:26:31:943
8,036587	-5,615420	-0,225194	2020-10-29T19:26:31:966
7,848211	-5,877847	-0,163965	2020-10-29T19:26:31:985
7,680855	-6,096443	-0,090794	2020-10-29T19:26:32:006
7,580771	-6,220870	-0,055357	2020-10-29T19:26:32:023
7,466793	-6,357465	-0,005079	2020-10-29T19:26:32:046
7,345615	-6,496512	0,087492	2020-10-29T19:26:32:063
7,270820	-6,576048	0,247311	2020-10-29T19:26:32:087
7,309109	-6,522698	0,449132	2020-10-29T19:26:32:103
7,510094	-6,269520	0,679694	2020-10-29T19:26:32:133
7,803968	-5,873806	0,875705	2020-10-29T19:26:32:143
7,845657	-5,813221	0,906925	2020-10-29T19:26:32:165
7,728265	-5,975046	0,862050	2020-10-29T19:26:32:184
7,555110	-6,201369	0,796059	2020-10-29T19:26:32:206
7,344113	-6,460901	0,700820	2020-10-29T19:26:32:223
7,078694	-6,763248	0,566516	2020-10-29T19:26:32:247
6,828215	-7,025805	0,428863	2020-10-29T19:26:32:263
6,595448	-7,252173	0,276445	2020-10-29T19:26:32:286
6,416089	-7,415375	0,128084	2020-10-29T19:26:32:303
6,233210	-7,570307	-0,089049	2020-10-29T19:26:32:329
6,192060	-7,602785	-0,162639	2020-10-29T19:26:32:343
6,147009	-7,634174	-0,322557	2020-10-29T19:26:32:366
6,124071	-7,647134	-0,433000	2020-10-29T19:26:32:384
6,120548	-7,642939	-0,542923	2020-10-29T19:26:32:406
6,157525	-7,602922	-0,671447	2020-10-29T19:26:32:423
6,219681	-7,540257	-0,794023	2020-10-29T19:26:32:446
6,288822	-7,472797	-0,882278	2020-10-29T19:26:32:463
6,410141	-7,358004	-0,969668	2020-10-29T19:26:32:487
6,455096	-7,317306	-0,979359	2020-10-29T19:26:32:505
6,534739	-7,247263	-0,971981	2020-10-29T19:26:32:527
6,635603	-7,159564	-0,937970	2020-10-29T19:26:32:545
6,761251	-7,048887	-0,876960	2020-10-29T19:26:32:578
6,805249	-7,009043	-0,855739	2020-10-29T19:26:32:585
6,868213	-6,950791	-0,827365	2020-10-29T19:26:32:607
6,938606	-6,882360	-0,811943	2020-10-29T19:26:32:625
6,999958	-6,819211	-0,818127	2020-10-29T19:26:32:646
7,095953	-6,716145	-0,843351	2020-10-29T19:26:32:665
7,112007	-6,693992	-0,883294	2020-10-29T19:26:32:687
7,112710	-6,685587	-0,939500	2020-10-29T19:26:32:705
7,055455	-6,739441	-0,985327	2020-10-29T19:26:32:726
6,954690	-6,837223	-1,027155	2020-10-29T19:26:32:744
6,870375	-6,917468	-1,056870	2020-10-29T19:26:32:767
6,865927	-6,920667	-1,064799	2020-10-29T19:26:32:785
6,843759	-6,942776	-1,063588	2020-10-29T19:26:32:808
6,797499	-6,992718	-1,032610	2020-10-29T19:26:32:824
6,741896	-7,053535	-0,982281	2020-10-29T19:26:32:846
6,672101	-7,128615	-0,914501	2020-10-29T19:26:32:864
6,615676	-7,189484	-0,845301	2020-10-29T19:26:32:886
6,551841	-7,259517	-0,737010	2020-10-29T19:26:32:904
6,492380	-7,322245	-0,635699	2020-10-29T19:26:32:926
6,443338	-7,373998	-0,527195	2020-10-29T19:26:32:944
6,420703	-7,400088	-0,428541	2020-10-29T19:26:32:967
6,441139	-7,387565	-0,325578	2020-10-29T19:26:32:985
6,468469	-7,366911	-0,240673	2020-10-29T19:26:33:007
6,499174	-7,341291	-0,191223	2020-10-29T19:26:33:024
6,531785	-7,312107	-0,198156	2020-10-29T19:26:33:047
6,563536	-7,282808	-0,226014	2020-10-29T19:26:33:064
6,592657	-7,255523	-0,254276	2020-10-29T19:26:33:087
6,600539	-7,249850	-0,207233	2020-10-29T19:26:33:104
6,598628	-7,253221	-0,138872	2020-10-29T19:26:33:127
6,559068	-7,289018	-0,138709	2020-10-29T19:26:33:144
6,517834	-7,325483	-0,159780	2020-10-29T19:26:33:167
6,488551	-7,350749	-0,188623	2020-10-29T19:26:33:184
6,482690	-7,355162	-0,216095	2020-10-29T19:26:33:207
6,507159	-7,332870	-0,237243	2020-10-29T19:26:33:224
6,564361	-7,281223	-0,251691	2020-10-29T19:26:33:247
6,672240	-7,184000	-0,204333	2020-10-29T19:26:33:264
6,858810	-7,007948	-0,125582	2020-10-29T19:26:33:289
6,913545	-6,954311	-0,104155	2020-10-29T19:26:33:305
7,053967	-6,812608	-0,017293	2020-10-29T19:26:33:327
7,212702	-6,643594	0,099809	2020-10-29T19:26:33:344
7,388029	-6,445312	0,212984	2020-10-29T19:26:33:367
7,594946	-6,196264	0,305763	2020-10-29T19:26:33:384
7,800323	-5,928977	0,415411	2020-10-29T19:26:33:407
8,014645	-5,625119	0,542115	2020-10-29T19:26:33:425
8,229089	-5,293228	0,658961	2020-10-29T19:26:33:447
8,478220	-4,866634	0,778482	2020-10-29T19:26:33:464
8,763598	-4,315340	0,864620	2020-10-29T19:26:33:487
8,988199	-3,808955	0,935155	2020-10-29T19:26:33:505
9,225473	-3,150869	1,064444	2020-10-29T19:26:33:533
9,265846	-3,025019	1,078768	2020-10-29T19:26:33:544
9,259098	-3,053121	1,057323	2020-10-29T19:26:33:567
9,171542	-3,320872	1,012427	2020-10-29T19:26:33:585
8,947067	-3,901624	0,947470	2020-10-29T19:26:33:608
8,852777	-4,116070	0,925570	2020-10-29T19:26:33:625
8,637069	-4,561319	0,875094	2020-10-29T19:26:33:647
8,431326	-4,938870	0,831082	2020-10-29T19:26:33:664
8,271711	-5,206056	0,803841	2020-10-29T19:26:33:687
8,180187	-5,351932	0,782141	2020-10-29T19:26:33:705
8,167065	-5,375143	0,759787	2020-10-29T19:26:33:727
8,272044	-5,210200	0,772968	2020-10-29T19:26:33:745
8,470899	-4,875363	0,803180	2020-10-29T19:26:33:768
8,723696	-4,398786	0,847467	2020-10-29T19:26:33:785
8,943233	-3,925534	0,882701	2020-10-29T19:26:33:808
9,102912	-3,535906	0,897076	2020-10-29T19:26:33:824
9,200972	-3,286901	0,841893	2020-10-29T19:26:33:847
9,276299	-3,085217	0,775951	2020-10-29T19:26:33:865
9,332561	-2,928154	0,706827	2020-10-29T19:26:33:888
9,371029	-2,807299	0,687941	2020-10-29T19:26:33:905
9,391214	-2,753955	0,625467	2020-10-29T19:26:33:928
9,405411	-2,719746	0,558229	2020-10-29T19:26:33:945
9,418947	-2,686077	0,488676	2020-10-29T19:26:33:967
9,432600	-2,649337	0,421246	2020-10-29T19:26:33:985
9,445605	-2,611078	0,364971	2020-10-29T19:26:34:009
9,463007	-2,554451	0,310913	2020-10-29T19:26:34:025
9,481862	-2,488983	0,263881	2020-10-29T19:26:34:047
9,499145	-2,425961	0,226618	2020-10-29T19:26:34:065
7,377360	-6,435263	0,576481	2020-10-29T19:26:34:088
7,258442	-6,566105	0,609642	2020-10-29T19:26:34:105
7,220361	-6,603412	0,657055	2020-10-29T19:26:34:128
7,218228	-6,602568	0,688232	2020-10-29T19:26:34:145
7,244486	-6,572403	0,700950	2020-10-29T19:26:34:168
7,280306	-6,535143	0,677810	2020-10-29T19:26:34:185
7,225963	-6,598135	0,648421	2020-10-29T19:26:34:208
7,190149	-6,639603	0,622756	2020-10-29T19:26:34:225
7,267066	-6,553553	0,641145	2020-10-29T19:26:34:249
7,417026	-6,376557	0,705434	2020-10-29T19:26:34:265
7,586232	-6,162880	0,798986	2020-10-29T19:26:34:289
7,762314	-5,921950	0,920524	2020-10-29T19:26:34:306
8,044862	-5,481319	1,185632	2020-10-29T19:26:34:328
8,085165	-5,404860	1,260152	2020-10-29T19:26:34:345
8,140457	-5,280514	1,421096	2020-10-29T19:26:34:368
8,159571	-5,211907	1,558146	2020-10-29T19:26:34:386
8,161428	-5,182243	1,644940	2020-10-29T19:26:34:408
8,194217	-5,140252	1,613381	2020-10-29T19:26:34:425
8,246063	-5,067919	1,577664	2020-10-29T19:26:34:448
8,318298	-4,960767	1,538535	2020-10-29T19:26:34:465
8,397193	-4,834769	1,510811	2020-10-29T19:26:34:491
8,453409	-4,733774	1,517118	2020-10-29T19:26:34:505
8,477521	-4,695679	1,500876	2020-10-29T19:26:34:528
8,471252	-4,703657	1,511251	2020-10-29T19:26:34:546
8,428477	-4,778885	1,514401	2020-10-29T19:26:34:568
8,316815	-4,978927	1,487028	2020-10-29T19:26:34:585
8,178558	-5,207972	1,469216	2020-10-29T19:26:34:608
8,026087	-5,442543	1,459806	2020-10-29T19:26:34:625
7,886687	-5,644142	1,454030	2020-10-29T19:26:34:648
7,769387	-5,802985	1,460263	2020-10-29T19:26:34:666
7,693344	-5,899115	1,477593	2020-10-29T19:26:34:688
7,630994	-5,968098	1,523194	2020-10-29T19:26:34:706
7,626018	-5,953119	1,604559	2020-10-29T19:26:34:730
7,652765	-5,886098	1,720297	2020-10-29T19:26:34:745
7,651345	-5,856758	1,823648	2020-10-29T19:26:34:768
7,633030	-5,853052	1,910243	2020-10-29T19:26:34:786
7,605191	-5,866195	1,979698	2020-10-29T19:26:34:809
7,576386	-5,882703	2,040236	2020-10-29T19:26:34:826
7,542101	-5,912770	2,079961	2020-10-29T19:26:34:848
7,513007	-5,942728	2,099783	2020-10-29T19:26:34:866
7,435300	-6,045951	2,081627	2020-10-29T19:26:34:890
7,396847	-6,100841	2,058343	2020-10-29T19:26:34:906
7,284843	-6,261208	1,974518	2020-10-29T19:26:34:928
7,120213	-6,467207	1,910020	2020-10-29T19:26:34:947
6,947976	-6,675977	1,824100	2020-10-29T19:26:34:969
6,779058	-6,867320	1,747762	2020-10-29T19:26:34:986
6,621974	-7,034629	1,683397	2020-10-29T19:26:35:009
6,477197	-7,180611	1,629456	2020-10-29T19:26:35:026
6,391700	-7,269275	1,572956	2020-10-29T19:26:35:049
6,336810	-7,320757	1,556193	2020-10-29T19:26:35:066
6,296082	-7,350778	1,579810	2020-10-29T19:26:35:089
6,206663	-7,412261	1,645025	2020-10-29T19:26:35:106
6,117191	-7,472148	1,708030	2020-10-29T19:26:35:129
6,092521	-7,494065	1,700164	2020-10-29T19:26:35:146
6,095764	-7,502241	1,651794	2020-10-29T19:26:35:169
6,090693	-7,501988	1,671534	2020-10-29T19:26:35:186
6,134525	-7,462039	1,689960	2020-10-29T19:26:35:210
6,224977	-7,383709	1,703200	2020-10-29T19:26:35:226
6,342623	-7,281194	1,710476	2020-10-29T19:26:35:249
6,481922	-7,157116	1,711948	2020-10-29T19:26:35:266
6,679331	-6,990335	1,640777	2020-10-29T19:26:35:289
6,876024	-6,814152	1,567803	2020-10-29T19:26:35:307
7,028789	-6,668499	1,515795	2020-10-29T19:26:35:329
7,152938	-6,540931	1,490665	2020-10-29T19:26:35:346
7,296151	-6,379827	1,494781	2020-10-29T19:26:35:369
7,460370	-6,173624	1,549074	2020-10-29T19:26:35:387
9,519628	-2,260839	0,660069	2020-10-29T19:26:35:410
9,522096	-2,236123	0,706986	2020-10-29T19:26:35:426
9,525866	-2,162076	0,868154	2020-10-29T19:26:35:450
9,529436	-2,065945	1,045039	2020-10-29T19:26:35:466
9,532438	-1,946648	1,230272	2020-10-29T19:26:35:489
9,538731	-1,789069	1,407919	2020-10-29T19:26:35:507
9,542790	-1,625318	1,569672	2020-10-29T19:26:35:529
9,544182	-1,469828	1,708385	2020-10-29T19:26:35:546
9,543556	-1,342898	1,813158	2020-10-29T19:26:35:569
9,541225	-1,228207	1,904443	2020-10-29T19:26:35:586
9,543639	-1,135398	1,949411	2020-10-29T19:26:35:610
9,563562	-1,051955	1,897906	2020-10-29T19:26:35:626
9,584362	-0,972336	1,834382	2020-10-29T19:26:35:649
9,594442	-0,908228	1,814438	2020-10-29T19:26:35:667
9,601205	-0,869196	1,797706	2020-10-29T19:26:35:690
9,607663	-0,846291	1,773975	2020-10-29T19:26:35:706
9,615351	-0,816619	1,746007	2020-10-29T19:26:35:729
9,622675	-0,804731	1,710825	2020-10-29T19:26:35:746
9,626138	-0,807847	1,689744	2020-10-29T19:26:35:769
9,628306	-0,828925	1,667031	2020-10-29T19:26:35:787
9,638056	-0,816555	1,616017	2020-10-29T19:26:35:810
9,649288	-0,782072	1,565244	2020-10-29T19:26:35:826
9,658146	-0,748189	1,526701	2020-10-29T19:26:35:849
9,663857	-0,719777	1,504049	2020-10-29T19:26:35:866
9,669035	-0,679314	1,489522	2020-10-29T19:26:35:889
9,674843	-0,631326	1,472833	2020-10-29T19:26:35:907
9,681152	-0,568425	1,456903	2020-10-29T19:26:35:932
9,682791	-0,547928	1,453863	2020-10-29T19:26:35:946
9,687631	-0,500506	1,438644	2020-10-29T19:26:35:969
9,692601	-0,457707	1,419283	2020-10-29T19:26:35:987
9,699306	-0,399978	1,390639	2020-10-29T19:26:36:010
9,707504	-0,328492	1,351605	2020-10-29T19:26:36:026
9,716834	-0,246655	1,301032	2020-10-29T19:26:36:051
9,727359	-0,153498	1,235036	2020-10-29T19:26:36:067
9,737220	-0,077151	1,162320	2020-10-29T19:26:36:103
9,747060	0,003911	1,079440	2020-10-29T19:26:36:107
9,755177	0,080812	1,000190	2020-10-29T19:26:36:134
9,763036	0,164866	0,909034	2020-10-29T19:26:36:185
9,769892	0,249621	0,810739	2020-10-29T19:26:36:187
9,776701	0,350622	0,680857	2020-10-29T19:26:36:187
9,781549	0,461346	0,528072	2020-10-29T19:26:36:216
9,782429	0,583482	0,366091	2020-10-29T19:26:36:255
9,778744	0,707344	0,214999	2020-10-29T19:26:36:281
9,772179	0,815352	0,100509	2020-10-29T19:26:36:290
9,767043	0,879158	0,048353	2020-10-29T19:26:36:294
9,763178	0,922027	0,024592	2020-10-29T19:26:36:347
9,760332	0,951963	0,008284	2020-10-29T19:26:36:347
9,760844	0,946305	0,028499	2020-10-29T19:26:36:348
9,763230	0,919631	0,063164	2020-10-29T19:26:36:373
9,766276	0,883289	0,100150	2020-10-29T19:26:36:386
9,772326	0,806590	0,146389	2020-10-29T19:26:36:409
9,777175	0,738606	0,178028	2020-10-29T19:26:36:425
9,782019	0,663054	0,207008	2020-10-29T19:26:36:451
9,785060	0,610161	0,225157	2020-10-29T19:26:36:467
9,789948	0,518608	0,241577	2020-10-29T19:26:36:490
9,793663	0,437149	0,251888	2020-10-29T19:26:36:508
9,794962	0,407340	0,251342	2020-10-29T19:26:36:530
9,796260	0,372397	0,254927	2020-10-29T19:26:36:547
9,797905	0,303789	0,281337	2020-10-29T19:26:36:571
9,799338	0,176253	0,335087	2020-10-29T19:26:36:588
9,798476	0,001771	0,400316	2020-10-29T19:26:36:610
9,795389	-0,136005	0,449706	2020-10-29T19:26:36:627
9,790352	-0,261488	0,501022	2020-10-29T19:26:36:658
9,783260	-0,395298	0,549495	2020-10-29T19:26:36:668
9,771110	-0,594412	0,585213	2020-10-29T19:26:36:692
9,731023	-1,054025	0,605482	2020-10-29T19:26:36:708
9,498397	-2,370266	0,576788	2020-10-29T19:26:36:730
8,976235	-3,932068	0,369361	2020-10-29T19:26:36:748
9,387423	-2,824984	0,257187	2020-10-29T19:26:36:771
9,705222	-1,378077	0,282761	2020-10-29T19:26:36:787
9,787585	-0,506179	0,342546	2020-10-29T19:26:36:811
9,798510	-0,055341	0,395640	2020-10-29T19:26:36:831
9,792657	0,265615	0,451335	2020-10-29T19:26:36:851
9,789977	0,325888	0,469605	2020-10-29T19:26:36:868
9,782756	0,445567	0,519171	2020-10-29T19:26:36:891
9,775184	0,537158	0,572394	2020-10-29T19:26:36:908
9,767616	0,607776	0,628228	2020-10-29T19:26:36:931
9,756110	0,697356	0,708796	2020-10-29T19:26:36:949
9,738848	0,812793	0,815234	2020-10-29T19:26:36:981
9,608419	1,527718	1,230750	2020-10-29T19:26:53:145
9,408463	2,240560	1,622063	2020-10-29T19:26:53:147
9,210253	2,784976	1,893549	2020-10-29T19:26:53:148
8,989010	3,304658	2,108867	2020-10-29T19:26:53:148
8,803624	3,697057	2,235698	2020-10-29T19:26:53:149
8,791848	3,788926	2,125517	2020-10-29T19:26:53:150
8,857615	3,756309	1,898202	2020-10-29T19:26:53:171
8,844162	3,795377	1,883161	2020-10-29T19:26:53:186
8,866445	3,774012	1,820267	2020-10-29T19:26:53:210
8,915082	3,692446	1,748580	2020-10-29T19:26:53:227
8,948998	3,632311	1,700626	2020-10-29T19:26:53:252
9,052803	3,415252	1,597874	2020-10-29T19:26:53:268
9,226054	2,989606	1,453469	2020-10-29T19:26:53:292
9,292221	2,804894	1,399139	2020-10-29T19:26:53:307
9,428342	2,377988	1,273547	2020-10-29T19:26:53:330
9,564896	1,865421	1,096975	2020-10-29T19:26:53:347
9,721147	1,031995	0,777608	2020-10-29T19:26:53:370
9,755571	0,747056	0,664165	2020-10-29T19:26:53:387
9,797875	0,100990	0,402266	2020-10-29T19:26:53:411
9,797362	-0,380713	0,192708	2020-10-29T19:26:53:427
9,746763	-1,071711	-0,149732	2020-10-29T19:26:53:451
9,706429	-1,371736	-0,271973	2020-10-29T19:26:53:467
9,669960	-1,585049	-0,387130	2020-10-29T19:26:53:490
9,597527	-1,946352	-0,519211	2020-10-29T19:26:53:508
9,462102	-2,480369	-0,697696	2020-10-29T19:26:53:532
9,383433	-2,744063	-0,769208	2020-10-29T19:26:53:549
9,194020	-3,282095	-0,931790	2020-10-29T19:26:53:571
9,070278	-3,619034	-0,896120	2020-10-29T19:26:53:587
9,007401	-3,800387	-0,770832	2020-10-29T19:26:53:610
8,902619	-4,061681	-0,645369	2020-10-29T19:26:53:627
8,816022	-4,266757	-0,492869	2020-10-29T19:26:53:651
8,786462	-4,342866	-0,328627	2020-10-29T19:26:53:668
8,691727	-4,537975	-0,176197	2020-10-29T19:26:53:690
8,504100	-4,883568	-0,037825	2020-10-29T19:26:53:708
8,276920	-5,258892	0,083873	2020-10-29T19:26:53:731
8,181234	-5,404799	0,161042	2020-10-29T19:26:53:748
8,142226	-5,459171	0,268323	2020-10-29T19:26:53:773
8,147056	-5,451367	0,280120	2020-10-29T19:26:53:787
8,131696	-5,472952	0,304458	2020-10-29T19:26:53:812
8,101322	-5,517320	0,313285	2020-10-29T19:26:53:828
7,949130	-5,735615	0,290571	2020-10-29T19:26:53:850
7,752892	-6,000833	0,230350	2020-10-29T19:26:53:868
7,494103	-6,323555	0,146439	2020-10-29T19:26:53:892
7,411141	-6,420984	0,127832	2020-10-29T19:26:53:908
7,235802	-6,615585	0,218129	2020-10-29T19:26:53:931
7,203736	-6,649258	0,252874	2020-10-29T19:26:53:947
7,190217	-6,660768	0,324576	2020-10-29T19:26:53:971
7,198890	-6,648897	0,372193	2020-10-29T19:26:53:987
7,193731	-6,653434	0,390428	2020-10-29T19:26:54:012
7,251730	-6,588414	0,419043	2020-10-29T19:26:54:028
7,396108	-6,422759	0,464916	2020-10-29T19:26:54:051
7,711589	-6,032066	0,562098	2020-10-29T19:26:54:068
7,999215	-5,633999	0,664077	2020-10-29T19:26:54:091
8,237949	-5,266906	0,752518	2020-10-29T19:26:54:108
8,477368	-4,856199	0,849669	2020-10-29T19:26:54:132
8,546642	-4,729344	0,870967	2020-10-29T19:26:54:147
8,772295	-4,281423	0,941615	2020-10-29T19:26:54:172
8,834785	-4,147535	0,956502	2020-10-29T19:26:54:188
8,954602	-3,875330	0,983510	2020-10-29T19:26:54:212
9,019556	-3,718997	0,993502	2020-10-29T19:26:54:228
9,023894	-3,712157	0,979595	2020-10-29T19:26:54:253
8,991318	-3,795484	0,959630	2020-10-29T19:26:54:268
8,790927	-4,255837	0,881954	2020-10-29T19:26:54:292
8,678964	-4,486546	0,846686	2020-10-29T19:26:54:308
8,360174	-5,071811	0,744722	2020-10-29T19:26:54:330
8,010137	-5,622304	0,630699	2020-10-29T19:26:54:348
7,677377	-6,081683	0,491329	2020-10-29T19:26:54:372
7,461798	-6,354108	0,342444	2020-10-29T19:26:54:388
7,420244	-6,410406	0,130607	2020-10-29T19:26:54:412
7,463708	-6,360608	0,078149	2020-10-29T19:26:54:428
7,601937	-6,195193	-0,022883	2020-10-29T19:26:54:452
7,798110	-5,945112	-0,124549	2020-10-29T19:26:54:468
8,034627	-5,618216	-0,225381	2020-10-29T19:26:54:492
8,300527	-5,211908	-0,328113	2020-10-29T19:26:54:508
8,528196	-4,825064	-0,398760	2020-10-29T19:26:54:532
8,738071	-4,427992	-0,457581	2020-10-29T19:26:54:548
8,921446	-4,040466	-0,502804	2020-10-29T19:26:54:572
9,071435	-3,687461	-0,531118	2020-10-29T19:26:54:588
9,193322	-3,369945	-0,544677	2020-10-29T19:26:54:612
9,293385	-3,083733	-0,542203	2020-10-29T19:26:54:629
9,361444	-2,864259	-0,574248	2020-10-29T19:26:54:652
9,420266	-2,657743	-0,604465	2020-10-29T19:26:54:669
9,461410	-2,497798	-0,642745	2020-10-29T19:26:54:692
9,496179	-2,346850	-0,696607	2020-10-29T19:26:54:710
9,519003	-2,230681	-0,763565	2020-10-29T19:26:54:732
9,526856	-2,170091	-0,836717	2020-10-29T19:26:54:749
9,530301	-2,133587	-0,889692	2020-10-29T19:26:54:773
9,537433	-2,101497	-0,889648	2020-10-29T19:26:54:789
9,541371	-2,096289	-0,859178	2020-10-29T19:26:54:812
9,545397	-2,105771	-0,788362	2020-10-29T19:26:54:829
9,549556	-2,120896	-0,691501	2020-10-29T19:26:54:852
9,558322	-2,118676	-0,565745	2020-10-29T19:26:54:869
9,564925	-2,116931	-0,448536	2020-10-29T19:26:54:891
9,573298	-2,099761	-0,336680	2020-10-29T19:26:54:909
9,582623	-2,069734	-0,244795	2020-10-29T19:26:54:932
9,589899	-2,042876	-0,175711	2020-10-29T19:26:54:948
9,585812	-2,065369	-0,129833	2020-10-29T19:26:54:973
9,592259	-2,035784	-0,120527	2020-10-29T19:26:54:988
9,597099	-2,013071	-0,116679	2020-10-29T19:26:55:016
9,596501	-2,015934	-0,116445	2020-10-29T19:26:55:029
9,555723	-2,199711	-0,140774	2020-10-29T19:26:55:051
9,481368	-2,496725	-0,201008	2020-10-29T19:26:55:069
9,407445	-2,756610	-0,267341	2020-10-29T19:26:55:092
9,331661	-2,995509	-0,342659	2020-10-29T19:26:55:109
9,298065	-3,087810	-0,426382	2020-10-29T19:26:55:132
9,197605	-3,354109	-0,569564	2020-10-29T19:26:55:149
9,083327	-3,622826	-0,733955	2020-10-29T19:26:55:172
8,951234	-3,902450	-0,903705	2020-10-29T19:26:55:189
8,728279	-4,326540	-1,126316	2020-10-29T19:26:55:214
8,656849	-4,454956	-1,175892	2020-10-29T19:26:55:228
8,434845	-4,838142	-1,271279	2020-10-29T19:26:55:253
8,368098	-4,950742	-1,278852	2020-10-29T19:26:55:270
8,171790	-5,278273	-1,237762	2020-10-29T19:26:55:292
8,113457	-5,374170	-1,208509	2020-10-29T19:26:55:309
8,072309	-5,443409	-1,173671	2020-10-29T19:26:55:335
8,026576	-5,522128	-1,118290	2020-10-29T19:26:55:348
7,909195	-5,711463	-0,997096	2020-10-29T19:26:55:371
7,789706	-5,894513	-0,863475	2020-10-29T19:26:55:389
7,656436	-6,085358	-0,719571	2020-10-29T19:26:55:413
7,528141	-6,258019	-0,578497	2020-10-29T19:26:55:429
7,401844	-6,417442	-0,446702	2020-10-29T19:26:55:453
7,218938	-6,632046	-0,270720	2020-10-29T19:26:55:470
7,165723	-6,691091	-0,228258	2020-10-29T19:26:55:493
7,057005	-6,808021	-0,141121	2020-10-29T19:26:55:509
6,965642	-6,902543	-0,071551	2020-10-29T19:26:55:532
6,887854	-6,980214	-0,066792	2020-10-29T19:26:55:549
6,820056	-7,046638	-0,045827	2020-10-29T19:26:55:573
6,762370	-7,102165	0,000243	2020-10-29T19:26:55:589
6,721766	-7,140295	0,066576	2020-10-29T19:26:55:613
6,719196	-7,141268	0,158329	2020-10-29T19:26:55:629
6,717131	-7,141593	0,219512	2020-10-29T19:26:55:653
6,707806	-7,149129	0,256264	2020-10-29T19:26:55:670
6,680416	-7,174542	0,261476	2020-10-29T19:26:55:693
6,610537	-7,240969	0,198880	2020-10-29T19:26:55:709
6,525652	-7,319756	0,086160	2020-10-29T19:26:55:733
6,440842	-7,394892	-0,038912	2020-10-29T19:26:55:750
6,365269	-7,458385	-0,161941	2020-10-29T19:26:55:774
6,299058	-7,511447	-0,265367	2020-10-29T19:26:55:790
6,244654	-7,551442	-0,387826	2020-10-29T19:26:55:813
6,205092	-7,576036	-0,520480	2020-10-29T19:26:55:829
6,172627	-7,593453	-0,639163	2020-10-29T19:26:55:852
6,158118	-7,592440	-0,776415	2020-10-29T19:26:55:870
6,164821	-7,570015	-0,927487	2020-10-29T19:26:55:893
6,179891	-7,539531	-1,065272	2020-10-29T19:26:55:910
6,200627	-7,505160	-1,181177	2020-10-29T19:26:55:934
6,239923	-7,456470	-1,278594	2020-10-29T19:26:55:949
6,294701	-7,395845	-1,359631	2020-10-29T19:26:55:974
6,357771	-7,331662	-1,412752	2020-10-29T19:26:55:990
6,410179	-7,283346	-1,425784	2020-10-29T19:26:56:013
6,451383	-7,252134	-1,398780	2020-10-29T19:26:56:030
6,492865	-7,226687	-1,337193	2020-10-29T19:26:56:054
6,529196	-7,209085	-1,252633	2020-10-29T19:26:56:070
6,559902	-7,196685	-1,160082	2020-10-29T19:26:56:093
6,581773	-7,193021	-1,054086	2020-10-29T19:26:56:110
6,588690	-7,202225	-0,942074	2020-10-29T19:26:56:134
6,576221	-7,228027	-0,824213	2020-10-29T19:26:56:150
6,550027	-7,264380	-0,704502	2020-10-29T19:26:56:174
6,530760	-7,291597	-0,593429	2020-10-29T19:26:56:190
6,558971	-7,271772	-0,521167	2020-10-29T19:26:56:214
6,643937	-7,193453	-0,531718	2020-10-29T19:26:56:230
6,708263	-7,132179	-0,549190	2020-10-29T19:26:56:253
6,746214	-7,095563	-0,558535	2020-10-29T19:26:56:270
6,771089	-7,071832	-0,558507	2020-10-29T19:26:56:294
6,813317	-7,029727	-0,576229	2020-10-29T19:26:56:310
6,861325	-6,979769	-0,612714	2020-10-29T19:26:56:333
6,892541	-6,945564	-0,649922	2020-10-29T19:26:56:350
6,877363	-6,959482	-0,661721	2020-10-29T19:26:56:374
6,866375	-6,971533	-0,648845	2020-10-29T19:26:56:390
6,850127	-6,990521	-0,615430	2020-10-29T19:26:56:414
6,839348	-7,005413	-0,563826	2020-10-29T19:26:56:430
6,837233	-7,013357	-0,485245	2020-10-29T19:26:56:454
6,825771	-7,030553	-0,388018	2020-10-29T19:26:56:470
6,828302	-7,032493	-0,297872	2020-10-29T19:26:56:493
6,850266	-7,014408	-0,205695	2020-10-29T19:26:56:511
6,878137	-6,989135	-0,116639	2020-10-29T19:26:56:534
6,906781	-6,961752	-0,027712	2020-10-29T19:26:56:550
6,940045	-6,928308	0,068539	2020-10-29T19:26:56:574
6,946860	-6,921251	0,088351	2020-10-29T19:26:56:590
6,916454	-6,952186	0,012526	2020-10-29T19:26:56:615
6,911503	-6,957108	-0,012463	2020-10-29T19:26:56:630
6,924632	-6,943656	-0,074107	2020-10-29T19:26:56:655
6,943501	-6,924656	-0,085549	2020-10-29T19:26:56:670
7,007951	-6,859818	-0,043642	2020-10-29T19:26:56:694
7,110797	-6,753292	-0,001978	2020-10-29T19:26:56:710
7,236084	-6,618818	0,026619	2020-10-29T19:26:56:733
7,385404	-6,451606	0,054534	2020-10-29T19:26:56:750
7,537938	-6,272292	0,090767	2020-10-29T19:26:56:775
7,692691	-6,081034	0,117907	2020-10-29T19:26:56:790
7,925887	-5,773421	0,135334	2020-10-29T19:26:56:814
7,994446	-5,678070	0,136873	2020-10-29T19:26:56:830
8,185204	-5,399364	0,140356	2020-10-29T19:26:56:854
8,359174	-5,125093	0,167387	2020-10-29T19:26:56:872
8,482738	-4,915778	0,220566	2020-10-29T19:26:56:894
8,558536	-4,778887	0,289973	2020-10-29T19:26:56:911
8,631786	-4,637634	0,393698	2020-10-29T19:26:56:935
8,643940	-4,612418	0,422243	2020-10-29T19:26:56:950
8,589004	-4,691332	0,625154	2020-10-29T19:26:56:975
8,594141	-4,671942	0,695755	2020-10-29T19:26:56:990
8,666061	-4,521667	0,790126	2020-10-29T19:26:57:015
8,726533	-4,395802	0,833623	2020-10-29T19:26:57:031
8,737713	-4,367448	0,864959	2020-10-29T19:26:57:053
8,732371	-4,370842	0,901010	2020-10-29T19:26:57:071
8,683977	-4,457046	0,945340	2020-10-29T19:26:57:095
8,662436	-4,495175	0,962279	2020-10-29T19:26:57:111
8,630215	-4,551093	0,988605	2020-10-29T19:26:57:134
8,616038	-4,581408	0,972098	2020-10-29T19:26:57:150
8,670325	-4,477091	0,975445	2020-10-29T19:26:57:175
8,776647	-4,260851	0,992981	2020-10-29T19:26:57:191
8,953963	-3,858478	1,053123	2020-10-29T19:26:57:214
8,996321	-3,751006	1,080072	2020-10-29T19:26:57:231
9,058649	-3,579847	1,138402	2020-10-29T19:26:57:255
9,081454	-3,503766	1,192137	2020-10-29T19:26:57:271
9,067330	-3,524766	1,236904	2020-10-29T19:26:57:294
9,021905	-3,628524	1,268636	2020-10-29T19:26:57:311
8,912597	-3,885204	1,281091	2020-10-29T19:26:57:336
8,866421	-4,004162	1,234365	2020-10-29T19:26:57:351
8,732048	-4,322218	1,113620	2020-10-29T19:26:57:375
8,546904	-4,709689	0,969362	2020-10-29T19:26:57:390
8,286140	-5,183314	0,802193	2020-10-29T19:26:57:415
7,916803	-5,753990	0,621455	2020-10-29T19:26:57:430
6,973617	-6,886854	0,332101	2020-10-29T19:26:57:454
6,565960	-7,280192	0,239489	2020-10-29T19:26:57:471
5,942352	-7,800494	0,105490	2020-10-29T19:26:57:495
5,638022	-8,023826	0,036253	2020-10-29T19:26:57:511
5,647260	-8,017374	0,023712	2020-10-29T19:26:57:534
6,238801	-7,565934	0,066245	2020-10-29T19:26:57:551
7,903709	-5,803893	0,128816	2020-10-29T19:26:57:575
8,991129	-3,911671	0,169738	2020-10-29T19:26:57:591
9,281515	-3,158798	0,214134	2020-10-29T19:26:57:615
9,399201	-2,785096	0,261995	2020-10-29T19:26:57:631
9,478963	-2,495213	0,305881	2020-10-29T19:26:57:655
9,564143	-2,146533	0,299907	2020-10-29T19:26:57:671
8,257107	-5,237086	0,750672	2020-10-29T19:26:57:694
8,525706	-4,786392	0,757072	2020-10-29T19:26:57:712
8,861980	-4,129749	0,762147	2020-10-29T19:26:57:735
9,142195	-3,474607	0,719554	2020-10-29T19:26:57:751
9,369858	-2,821559	0,644174	2020-10-29T19:26:57:774
9,774046	-0,772634	0,203581	2020-10-29T19:26:57:792
9,649818	-1,689128	0,445243	2020-10-29T19:26:57:815
9,719978	-1,254938	0,342846	2020-10-29T19:26:57:831
9,799717	-0,345218	0,129454	2020-10-29T19:26:57:855
9,800850	-0,293977	0,165242	2020-10-29T19:26:57:871
9,802670	-0,224850	0,165738	2020-10-29T19:26:57:895
9,803759	-0,188652	0,145286	2020-10-29T19:26:57:912
9,802998	-0,219145	0,153598	2020-10-29T19:26:57:934
9,799543	-0,309735	0,208302	2020-10-29T19:26:57:951
9,792666	-0,438306	0,286288	2020-10-29T19:26:57:976
9,782403	-0,581632	0,369702	2020-10-29T19:26:57:991
9,762192	-0,799788	0,479926	2020-10-29T19:26:58:017
9,754779	-0,868240	0,510710	2020-10-29T19:26:58:032
9,730035	-1,077181	0,580071	2020-10-29T19:26:58:056
9,722342	-1,140149	0,588636	2020-10-29T19:26:58:072
9,708418	-1,253718	0,587540	2020-10-29T19:26:58:095
9,695720	-1,357624	0,565908	2020-10-29T19:26:58:112
9,685079	-1,443049	0,535959	2020-10-29T19:26:58:137
9,676549	-1,510660	0,502680	2020-10-29T19:26:58:152
9,672626	-1,548821	0,460246	2020-10-29T19:26:58:175
8,584711	-4,564021	1,281733	2020-10-29T19:26:58:192
8,463368	-4,773726	1,324131	2020-10-29T19:26:58:216
8,372048	-4,920198	1,367790	2020-10-29T19:26:58:232
8,285369	-5,052360	1,413049	2020-10-29T19:26:58:255
8,190603	-5,191344	1,460945	2020-10-29T19:26:58:272
8,076097	-5,343368	1,547728	2020-10-29T19:26:58:295
7,945507	-5,510006	1,636809	2020-10-29T19:26:58:312
7,813070	-5,685906	1,672361	2020-10-29T19:26:58:336
7,632604	-5,921897	1,686676	2020-10-29T19:26:58:351
7,410913	-6,195753	1,691570	2020-10-29T19:26:58:376
7,168524	-6,474186	1,693387	2020-10-29T19:26:58:392
6,901114	-6,760394	1,685847	2020-10-29T19:26:58:415
6,643700	-7,014444	1,682027	2020-10-29T19:26:58:432
6,394447	-7,247321	1,660655	2020-10-29T19:26:58:455
6,146442	-7,472434	1,598237	2020-10-29T19:26:58:472
5,940993	-7,658713	1,489667	2020-10-29T19:26:58:495
5,734983	-7,823094	1,442068	2020-10-29T19:26:58:512
5,580064	-7,942778	1,394827	2020-10-29T19:26:58:536
5,473020	-8,023651	1,355528	2020-10-29T19:26:58:552
5,421628	-8,062455	1,331595	2020-10-29T19:26:58:576
5,415855	-8,065363	1,337471	2020-10-29T19:26:58:592
5,463534	-8,035731	1,321817	2020-10-29T19:26:58:616
5,479946	-8,015464	1,375834	2020-10-29T19:26:58:632
5,507945	-7,986660	1,430450	2020-10-29T19:26:58:655
5,604784	-7,920004	1,424893	2020-10-29T19:26:58:673
5,648448	-7,879272	1,477324	2020-10-29T19:26:58:696
5,728489	-7,808107	1,545398	2020-10-29T19:26:58:713
5,832624	-7,718400	1,605359	2020-10-29T19:26:58:735
5,965582	-7,603499	1,664037	2020-10-29T19:26:58:752
6,110200	-7,472105	1,733055	2020-10-29T19:26:58:776
6,294081	-7,312649	1,755019	2020-10-29T19:26:58:793
6,486089	-7,130484	1,804783	2020-10-29T19:26:58:817
6,668550	-6,948815	1,847918	2020-10-29T19:26:58:834
6,813268	-6,807701	1,845256	2020-10-29T19:26:58:856
6,902963	-6,744576	1,740738	2020-10-29T19:26:58:873
6,948779	-6,733022	1,597269	2020-10-29T19:26:58:895
6,980462	-6,739591	1,421776	2020-10-29T19:26:58:913
7,015949	-6,732090	1,275072	2020-10-29T19:26:58:936
7,058931	-6,711772	1,137540	2020-10-29T19:26:58:952
7,165708	-6,616980	1,019113	2020-10-29T19:26:58:975
7,331119	-6,447097	0,927371	2020-10-29T19:26:58:993
7,574043	-6,172307	0,840762	2020-10-29T19:26:59:016
7,870691	-5,800752	0,757553	2020-10-29T19:26:59:033
8,196338	-5,341705	0,675735	2020-10-29T19:26:59:057
9,634769	-1,812537	0,237307	2020-10-29T19:26:59:073
9,642652	-1,768788	0,247064	2020-10-29T19:26:59:097
9,648840	-1,735273	0,243103	2020-10-29T19:26:59:113
9,655147	-1,703683	0,214478	2020-10-29T19:26:59:136
9,629600	-1,845099	0,191834	2020-10-29T19:26:59:153
9,413215	-2,741338	0,216403	2020-10-29T19:26:59:177
8,646684	-4,622364	0,197452	2020-10-29T19:26:59:193
7,998758	-5,672585	0,109728	2020-10-29T19:26:59:216
8,209509	-5,363919	0,052214	2020-10-29T19:26:59:233
8,481259	-4,923217	0,023769	2020-10-29T19:26:59:256
8,649603	-4,621100	0,013489	2020-10-29T19:26:59:273
8,697792	-4,529742	0,015438	2020-10-29T19:26:59:296
8,786658	-4,354864	0,013526	2020-10-29T19:26:59:313
8,925406	-4,062943	0,004237	2020-10-29T19:26:59:336
9,098298	-3,659387	-0,015322	2020-10-29T19:26:59:353
9,275690	-3,182707	-0,048394	2020-10-29T19:26:59:377
9,361198	-2,920813	-0,084800	2020-10-29T19:26:59:393
9,387136	-2,834172	-0,139777	2020-10-29T19:26:59:418
9,358713	-2,923264	-0,198514	2020-10-29T19:26:59:433
9,300577	-3,096981	-0,279933	2020-10-29T19:26:59:457
9,236167	-3,276996	-0,353405	2020-10-29T19:26:59:473
9,191241	-3,391109	-0,438001	2020-10-29T19:26:59:497
9,150481	-3,489702	-0,510937	2020-10-29T19:26:59:513
9,097017	-3,610936	-0,613023	2020-10-29T19:26:59:540
9,088976	-3,627619	-0,633468	2020-10-29T19:26:59:553
9,027950	-3,774348	-0,648689	2020-10-29T19:26:59:580
9,021858	-3,790312	-0,640309	2020-10-29T19:26:59:593
9,024294	-3,791695	-0,596282	2020-10-29T19:26:59:617
9,030177	-3,785887	-0,541612	2020-10-29T19:26:59:633
9,042283	-3,766532	-0,469833	2020-10-29T19:26:59:657
9,057432	-3,738231	-0,398677	2020-10-29T19:26:59:673
9,083002	-3,685582	-0,293142	2020-10-29T19:26:59:697
9,095453	-3,657029	-0,263157	2020-10-29T19:26:59:713
9,119890	-3,599639	-0,201445	2020-10-29T19:26:59:737
9,134532	-3,564905	-0,148842	2020-10-29T19:26:59:753
9,216115	-3,350259	-0,096799	2020-10-29T19:26:59:778
9,266671	-3,208767	-0,054801	2020-10-29T19:26:59:793
9,286203	-3,152229	-0,016433	2020-10-29T19:26:59:818
9,204378	-3,383745	0,009084	2020-10-29T19:26:59:833
9,221161	-3,337637	0,027513	2020-10-29T19:26:59:856
9,268661	-3,203346	0,029724	2020-10-29T19:26:59:873
9,258879	-3,231554	0,024770	2020-10-29T19:26:59:897
9,191310	-3,419051	0,017190	2020-10-29T19:26:59:913
9,113669	-3,620968	0,003415	2020-10-29T19:26:59:936
9,002930	-3,888123	-0,011665	2020-10-29T19:26:59:954
8,727324	-4,472584	-0,013629	2020-10-29T19:26:59:978
8,389352	-5,078290	0,011358	2020-10-29T19:26:59:993
8,021665	-5,640746	0,072527	2020-10-29T19:27:00:018
7,753653	-6,002151	0,159457	2020-10-29T19:27:00:033
7,629324	-6,155986	0,260057	2020-10-29T19:27:00:057
7,624130	-6,158519	0,340107	2020-10-29T19:27:00:074
7,735254	-6,011225	0,448777	2020-10-29T19:27:00:096
7,935966	-5,732790	0,570921	2020-10-29T19:27:00:114
8,142748	-5,420550	0,695465	2020-10-29T19:27:00:138
8,294680	-5,166282	0,823531	2020-10-29T19:27:00:153
8,391381	-4,983861	0,957204	2020-10-29T19:27:00:177
8,413037	-4,923562	1,072256	2020-10-29T19:27:00:193
8,372900	-4,967995	1,176417	2020-10-29T19:27:00:218
8,186819	-5,271685	1,164347	2020-10-29T19:27:00:234
7,863090	-5,759756	1,080471	2020-10-29T19:27:00:259
7,527963	-6,208086	0,979708	2020-10-29T19:27:00:274
7,228574	-6,567672	0,885314	2020-10-29T19:27:00:298
6,969036	-6,852328	0,805306	2020-10-29T19:27:00:314
6,674019	-7,148801	0,722839	2020-10-29T19:27:00:337
6,583311	-7,235276	0,693668	2020-10-29T19:27:00:353
6,433449	-7,372816	0,650158	2020-10-29T19:27:00:378
6,346960	-7,449204	0,629156	2020-10-29T19:27:00:393
6,272588	-7,514345	0,599705	2020-10-29T19:27:00:417
6,242063	-7,541128	0,581740	2020-10-29T19:27:00:434
6,261806	-7,524673	0,582644	2020-10-29T19:27:00:457
6,386124	-7,414085	0,647409	2020-10-29T19:27:00:474
6,494992	-7,316100	0,678340	2020-10-29T19:27:00:498
6,334229	-7,475542	0,405232	2020-10-29T19:27:00:514
6,339283	-7,479103	0,216560	2020-10-29T19:27:00:538
6,473211	-7,366355	0,068869	2020-10-29T19:27:00:554
6,743564	-7,119828	-0,052747	2020-10-29T19:27:00:577
7,096844	-6,767019	-0,112461	2020-10-29T19:27:00:594
7,515939	-6,298401	-0,105774	2020-10-29T19:27:00:618
7,934589	-5,762972	-0,028784	2020-10-29T19:27:00:634
8,386930	-5,081017	0,114285	2020-10-29T19:27:00:657
8,812965	-4,289609	0,318227	2020-10-29T19:27:00:674
9,168385	-3,434438	0,561907	2020-10-29T19:27:00:698
9,436683	-2,536163	0,829021	2020-10-29T19:27:00:714
9,598423	-1,692839	1,083956	2020-10-29T19:27:00:738
9,671991	-0,961883	1,302979	2020-10-29T19:27:00:754
9,687952	-0,322319	1,486635	2020-10-29T19:27:00:778
9,664334	0,248323	1,646014	2020-10-29T19:27:00:795
9,531646	1,232143	1,949341	2020-10-29T19:27:00:818
9,475211	1,504002	2,031929	2020-10-29T19:27:00:834
9,387411	1,849877	2,150548	2020-10-29T19:27:00:859
9,310098	2,071784	2,280388	2020-10-29T19:27:00:874
9,239376	2,211244	2,432019	2020-10-29T19:27:00:897
9,154691	2,327814	2,635017	2020-10-29T19:27:00:914
9,079860	2,363766	2,852918	2020-10-29T19:27:00:938
9,044150	2,278319	3,030347	2020-10-29T19:27:00:954
9,061734	2,083966	3,116480	2020-10-29T19:27:00:978
9,117294	1,854639	3,099298	2020-10-29T19:27:00:994
9,182965	1,640935	3,025041	2020-10-29T19:27:01:018
9,250054	1,463338	2,909557	2020-10-29T19:27:01:036
9,155502	1,518847	3,168638	2020-10-29T19:27:01:057
9,028912	1,621115	3,467149	2020-10-29T19:27:01:075
9,128478	1,527531	3,241593	2020-10-29T19:27:01:099
9,163896	1,504859	3,151000	2020-10-29T19:27:01:114
9,237449	1,484432	2,938773	2020-10-29T19:27:01:138
9,298450	1,498592	2,731931	2020-10-29T19:27:01:154
9,346728	1,538387	2,538192	2020-10-29T19:27:01:178
9,286642	1,760075	2,613580	2020-10-29T19:27:01:194
9,330437	1,765310	2,448880	2020-10-29T19:27:01:220
9,373509	1,726433	2,308060	2020-10-29T19:27:01:234
9,415697	1,658318	2,182891	2020-10-29T19:27:01:258
9,401020	1,710761	2,205563	2020-10-29T19:27:01:275
9,411637	1,684230	2,180561	2020-10-29T19:27:01:298
9,528432	1,341441	1,892063	2020-10-29T19:27:01:315
9,640415	0,902980	1,554803	2020-10-29T19:27:01:339
9,723860	0,433140	1,195542	2020-10-29T19:27:01:354
9,771751	-0,041808	0,825542	2020-10-29T19:27:01:378
9,783164	-0,495657	0,463048	2020-10-29T19:27:01:395
9,737835	-1,156204	-0,090303	2020-10-29T19:27:01:420
9,721463	-1,272528	-0,210249	2020-10-29T19:27:01:435
9,641536	-1,682599	-0,616470	2020-10-29T19:27:01:460
9,608701	-1,816826	-0,736482	2020-10-29T19:27:01:475
9,548195	-2,038033	-0,921292	2020-10-29T19:27:01:499
9,491265	-2,225091	-1,065473	2020-10-29T19:27:01:516
9,397366	-2,505800	-1,257327	2020-10-29T19:27:01:538
9,361900	-2,603182	-1,322366	2020-10-29T19:27:01:555
9,252704	-2,911224	-1,443131	2020-10-29T19:27:01:579
9,137772	-3,199940	-1,559452	2020-10-29T19:27:01:595
9,015521	-3,479882	-1,667688	2020-10-29T19:27:01:619
8,900343	-3,724792	-1,755052	2020-10-29T19:27:01:635
8,799741	-3,930669	-1,812397	2020-10-29T19:27:01:659
8,710115	-4,112043	-1,842654	2020-10-29T19:27:01:675
8,640264	-4,258807	-1,838151	2020-10-29T19:27:01:699
8,597050	-4,362339	-1,797529	2020-10-29T19:27:01:715
8,579250	-4,425498	-1,726793	2020-10-29T19:27:01:739
8,576152	-4,464739	-1,638936	2020-10-29T19:27:01:755
8,591689	-4,469475	-1,541767	2020-10-29T19:27:01:778
8,619771	-4,443049	-1,459193	2020-10-29T19:27:01:795
8,656001	-4,382150	-1,428562	2020-10-29T19:27:01:819
8,695510	-4,309839	-1,408466	2020-10-29T19:27:01:835
8,741654	-4,219182	-1,397274	2020-10-29T19:27:01:858
8,786840	-4,126097	-1,391809	2020-10-29T19:27:01:876
8,844122	-4,024333	-1,325380	2020-10-29T19:27:01:900
8,861713	-3,994527	-1,297755	2020-10-29T19:27:01:916
8,918560	-3,899587	-1,192851	2020-10-29T19:27:01:941
8,939342	-3,862385	-1,157809	2020-10-29T19:27:01:955
8,988487	-3,772302	-1,071080	2020-10-29T19:27:01:980
9,042528	-3,668492	-0,972230	2020-10-29T19:27:01:996
9,103602	-3,542308	-0,864215	2020-10-29T19:27:02:019
9,169109	-3,394781	-0,757149	2020-10-29T19:27:02:035
9,239506	-3,223614	-0,640489	2020-10-29T19:27:02:059
9,353358	-2,898661	-0,531818	2020-10-29T19:27:02:076
9,491174	-2,433796	-0,405763	2020-10-29T19:27:02:099
9,591946	-2,023418	-0,265980	2020-10-29T19:27:02:116
9,650774	-1,736814	-0,128166	2020-10-29T19:27:02:139
9,699666	-1,444585	0,006557	2020-10-29T19:27:02:156
9,731707	-1,203433	0,126564	2020-10-29T19:27:02:180
9,716418	-1,318421	0,152837	2020-10-29T19:27:02:195
9,680484	-1,561063	0,147289	2020-10-29T19:27:02:220
9,614266	-1,929206	0,120171	2020-10-29T19:27:02:236
9,488004	-2,478078	0,085492	2020-10-29T19:27:02:259
9,368554	-2,896947	0,090983	2020-10-29T19:27:02:276
9,209664	-3,368088	0,091964	2020-10-29T19:27:02:300
9,042481	-3,794192	0,089599	2020-10-29T19:27:02:316
8,812469	-4,301756	0,075195	2020-10-29T19:27:02:339
8,579902	-4,748902	0,059948	2020-10-29T19:27:02:356
8,364622	-5,118850	0,029412	2020-10-29T19:27:02:380
8,141326	-5,467067	-0,019195	2020-10-29T19:27:02:396
7,883424	-5,832402	-0,071326	2020-10-29T19:27:02:420
7,624705	-6,165840	-0,129135	2020-10-29T19:27:02:436
7,349906	-6,489480	-0,189500	2020-10-29T19:27:02:460
7,076423	-6,784441	-0,256866	2020-10-29T19:27:02:476
6,829723	-7,029635	-0,330903	2020-10-29T19:27:02:499
6,627226	-7,216201	-0,420346	2020-10-29T19:27:02:516
6,450659	-7,369859	-0,494527	2020-10-29T19:27:02:540
6,302908	-7,493925	-0,533694	2020-10-29T19:27:02:556
6,194242	-7,582850	-0,549667	2020-10-29T19:27:02:579
6,121965	-7,643072	-0,524761	2020-10-29T19:27:02:597
6,080835	-7,679717	-0,464518	2020-10-29T19:27:02:620
6,059467	-7,701365	-0,377106	2020-10-29T19:27:02:636
6,056106	-7,708195	-0,278733	2020-10-29T19:27:02:660
6,055955	-7,711229	-0,180940	2020-10-29T19:27:02:676
6,033423	-7,730489	-0,087869	2020-10-29T19:27:02:700
7,456918	-6,369026	0,016411	2020-10-29T19:27:02:716
6,384063	-7,443422	0,097912	2020-10-29T19:27:02:739
6,184668	-7,608729	0,165856	2020-10-29T19:27:02:756
6,137533	-7,645264	0,225879	2020-10-29T19:27:02:780
6,147493	-7,635263	0,285424	2020-10-29T19:27:02:803
6,168531	-7,615556	0,350596	2020-10-29T19:27:02:820
6,220853	-7,569413	0,418762	2020-10-29T19:27:02:837
6,258233	-7,534780	0,481663	2020-10-29T19:27:02:860
6,268517	-7,523315	0,525164	2020-10-29T19:27:02:877
6,214159	-7,566792	0,546141	2020-10-29T19:27:02:900
6,195092	-7,580235	0,575545	2020-10-29T19:27:02:916
6,185833	-7,586123	0,597143	2020-10-29T19:27:02:940
6,176969	-7,593442	0,595889	2020-10-29T19:27:02:956
6,150729	-7,617136	0,564056	2020-10-29T19:27:02:981
6,107069	-7,658432	0,471709	2020-10-29T19:27:02:996
6,066998	-7,696075	0,363782	2020-10-29T19:27:03:022
6,016838	-7,737672	0,310624	2020-10-29T19:27:03:037
5,993896	-7,751757	0,392254	2020-10-29T19:27:03:060
6,090299	-7,664530	0,577596	2020-10-29T19:27:03:077
6,290880	-7,487134	0,733517	2020-10-29T19:27:03:101
6,375130	-7,413351	0,755206	2020-10-29T19:27:03:117
6,433904	-7,360065	0,777628	2020-10-29T19:27:03:141
6,457530	-7,339287	0,778172	2020-10-29T19:27:03:156
6,446929	-7,348849	0,775827	2020-10-29T19:27:03:181
6,412859	-7,376456	0,795937	2020-10-29T19:27:03:197
6,350726	-7,433858	0,759220	2020-10-29T19:27:03:220
6,276875	-7,498678	0,735565	2020-10-29T19:27:03:237
6,185296	-7,577581	0,701968	2020-10-29T19:27:03:261
6,075064	-7,669887	0,660924	2020-10-29T19:27:03:277
5,976535	-7,752209	0,595538	2020-10-29T19:27:03:300
5,891506	-7,822271	0,522120	2020-10-29T19:27:03:317
5,819453	-7,879657	0,464054	2020-10-29T19:27:03:340
5,760003	-7,924542	0,440890	2020-10-29T19:27:03:357
5,725416	-7,948741	0,455529	2020-10-29T19:27:03:381
5,705965	-7,959185	0,513532	2020-10-29T19:27:03:396
5,720201	-7,941067	0,623803	2020-10-29T19:27:03:421
5,793386	-7,880446	0,711075	2020-10-29T19:27:03:437
5,930891	-7,771952	0,769203	2020-10-29T19:27:03:460
6,153974	-7,590180	0,829558	2020-10-29T19:27:03:477
6,441029	-7,341481	0,886673	2020-10-29T19:27:03:501
6,699523	-7,109390	0,862180	2020-10-29T19:27:03:517
6,951331	-6,876602	0,749486	2020-10-29T19:27:03:540
7,202702	-6,626645	0,615675	2020-10-29T19:27:03:557
7,470510	-6,333439	0,499427	2020-10-29T19:27:03:582
7,714128	-6,042666	0,385745	2020-10-29T19:27:03:597
7,870239	-5,845057	0,255015	2020-10-29T19:27:03:622
7,827575	-5,906648	0,104770	2020-10-29T19:27:03:637
7,627418	-6,163741	-0,034197	2020-10-29T19:27:03:661
8,617600	-4,676893	-0,184465	2020-10-29T19:27:03:677
9,588512	-2,049421	-0,175187	2020-10-29T19:27:03:700
9,732510	-1,198226	-0,113572	2020-10-29T19:27:03:717
9,762176	-0,929944	-0,074320	2020-10-29T19:27:03:741
9,767376	-0,872716	-0,084335	2020-10-29T19:27:03:757
9,474013	-2,514138	-0,304239	2020-10-29T19:27:03:780
9,438362	-2,636639	-0,368560	2020-10-29T19:27:03:797
9,359765	-2,895163	-0,428045	2020-10-29T19:27:03:821
9,277509	-3,140644	-0,484319	2020-10-29T19:27:03:837
9,161017	-3,449067	-0,591672	2020-10-29T19:27:03:862
9,121181	-3,544614	-0,640442	2020-10-29T19:27:03:877
8,962312	-3,890502	-0,843417	2020-10-29T19:27:03:902
8,898033	-4,019057	-0,917914	2020-10-29T19:27:03:918
8,743486	-4,304183	-1,093547	2020-10-29T19:27:03:940
8,517491	-4,685782	-1,290802	2020-10-29T19:27:03:957
8,249621	-5,068580	-1,556801	2020-10-29T19:27:03:982
7,954518	-5,423567	-1,865729	2020-10-29T19:27:03:997
7,587259	-5,801006	-2,225355	2020-10-29T19:27:04:021
7,191761	-6,151519	-2,570559	2020-10-29T19:27:04:037
6,762698	-6,484276	-2,896630	2020-10-29T19:27:04:061
6,331169	-6,786541	-3,166948	2020-10-29T19:27:04:077
5,937837	-7,046581	-3,355319	2020-10-29T19:27:04:102
5,611858	-7,260133	-3,459466	2020-10-29T19:27:04:117
5,379061	-7,419909	-3,490134	2020-10-29T19:27:04:141
5,222848	-7,535601	-3,479504	2020-10-29T19:27:04:157
5,117717	-7,577762	-3,543569	2020-10-29T19:27:04:181
5,077614	-7,573047	-3,610703	2020-10-29T19:27:04:198
5,058327	-7,554936	-3,675140	2020-10-29T19:27:04:222
5,065413	-7,527301	-3,721789	2020-10-29T19:27:04:237
5,133182	-7,474549	-3,735229	2020-10-29T19:27:04:261
5,247711	-7,412540	-3,699482	2020-10-29T19:27:04:278
5,368419	-7,368467	-3,613330	2020-10-29T19:27:04:301
5,432048	-7,425578	-3,394707	2020-10-29T19:27:04:318
5,473989	-7,502058	-3,150390	2020-10-29T19:27:04:342
5,552818	-7,519886	-2,964443	2020-10-29T19:27:04:357
5,702878	-7,490849	-2,744946	2020-10-29T19:27:04:382
5,850214	-7,432608	-2,588766	2020-10-29T19:27:04:398
5,929228	-7,402863	-2,492441	2020-10-29T19:27:04:421
5,956888	-7,403941	-2,422298	2020-10-29T19:27:04:438
5,947765	-7,430237	-2,363483	2020-10-29T19:27:04:462
5,961927	-7,435933	-2,309267	2020-10-29T19:27:04:478
5,935382	-7,467021	-2,277107	2020-10-29T19:27:04:501
5,819200	-7,554744	-2,287605	2020-10-29T19:27:04:518
5,695853	-7,637508	-2,322955	2020-10-29T19:27:04:542
5,583991	-7,704783	-2,371864	2020-10-29T19:27:04:558
5,500642	-7,745178	-2,434245	2020-10-29T19:27:04:582
5,515861	-7,721915	-2,473399	2020-10-29T19:27:04:598
5,557625	-7,676259	-2,521555	2020-10-29T19:27:04:622
5,626443	-7,611298	-2,565476	2020-10-29T19:27:04:638
5,725138	-7,522292	-2,609273	2020-10-29T19:27:04:661
5,857619	-7,409966	-2,636491	2020-10-29T19:27:04:678
6,002667	-7,292640	-2,637381	2020-10-29T19:27:04:702
6,171989	-7,161572	-2,605535	2020-10-29T19:27:04:718
6,354467	-7,022694	-2,544191	2020-10-29T19:27:04:741
6,540531	-6,863330	-2,507298	2020-10-29T19:27:04:758
6,742450	-6,683951	-2,456533	2020-10-29T19:27:04:782
6,930847	-6,506365	-2,408517	2020-10-29T19:27:04:799
7,107270	-6,328566	-2,367773	2020-10-29T19:27:04:823
7,263903	-6,158914	-2,339632	2020-10-29T19:27:04:838
7,449414	-5,935160	-2,334630	2020-10-29T19:27:04:862
7,613088	-5,720417	-2,342672	2020-10-29T19:27:04:878
7,756011	-5,529982	-2,331090	2020-10-29T19:27:04:901
7,915325	-5,324230	-2,273892	2020-10-29T19:27:04:918
8,032536	-5,203533	-2,138225	2020-10-29T19:27:04:942
8,114624	-5,150027	-1,949482	2020-10-29T19:27:04:958
8,247210	-5,020348	-1,717564	2020-10-29T19:27:04:981
8,360005	-4,914930	-1,457447	2020-10-29T19:27:04:998
8,452470	-4,831411	-1,176267	2020-10-29T19:27:05:028
8,537300	-4,737869	-0,915149	2020-10-29T19:27:05:038
8,631446	-4,606695	-0,668496	2020-10-29T19:27:05:062
8,729567	-4,443090	-0,473284	2020-10-29T19:27:05:078
8,792916	-4,327423	-0,358349	2020-10-29T19:27:05:103
8,810425	-4,294485	-0,322788	2020-10-29T19:27:05:119
8,789724	-4,336418	-0,326514	2020-10-29T19:27:05:141
8,742026	-4,430245	-0,346829	2020-10-29T19:27:05:159
8,581891	-4,731596	-0,365410	2020-10-29T19:27:05:183
8,510612	-4,858214	-0,370986	2020-10-29T19:27:05:198
8,381976	-5,072740	-0,424467	2020-10-29T19:27:05:222
8,266558	-5,254531	-0,473616	2020-10-29T19:27:05:238
8,171246	-5,397822	-0,514442	2020-10-29T19:27:05:262
8,050784	-5,575951	-0,513835	2020-10-29T19:27:05:279
7,931284	-5,741323	-0,549838	2020-10-29T19:27:05:302
7,804168	-5,908370	-0,597084	2020-10-29T19:27:05:318
7,681617	-6,064480	-0,620662	2020-10-29T19:27:05:343
7,564010	-6,212526	-0,600540	2020-10-29T19:27:05:359
7,454903	-6,348746	-0,536868	2020-10-29T19:27:05:382
7,359832	-6,467360	-0,420132	2020-10-29T19:27:05:399
7,271131	-6,575454	-0,253878	2020-10-29T19:27:05:423
7,205276	-6,652149	-0,057403	2020-10-29T19:27:05:439
7,277565	-6,570780	0,179645	2020-10-29T19:27:05:462
7,885092	-5,812896	0,453811	2020-10-29T19:27:05:479
8,787599	-4,305111	0,643822	2020-10-29T19:27:05:502
9,250693	-3,180439	0,692729	2020-10-29T19:27:05:519
9,463328	-2,481254	0,677633	2020-10-29T19:27:05:543
9,586435	-1,967565	0,631919	2020-10-29T19:27:05:559
9,646792	-1,642627	0,641534	2020-10-29T19:27:05:584
9,651870	-1,608109	0,652513	2020-10-29T19:27:05:599
9,659777	-1,556111	0,661529	2020-10-29T19:27:05:622
9,653071	-1,581775	0,697555	2020-10-29T19:27:05:639
9,630914	-1,676168	0,778682	2020-10-29T19:27:05:663
9,600760	-1,802020	0,865175	2020-10-29T19:27:05:679
9,573128	-1,919423	0,917290	2020-10-29T19:27:05:702
9,561151	-1,989428	0,892730	2020-10-29T19:27:05:720
9,548508	-2,050820	0,889114	2020-10-29T19:27:05:744
9,531208	-2,122261	0,906903	2020-10-29T19:27:05:759
9,509538	-2,198696	0,951214	2020-10-29T19:27:05:783
9,484192	-2,279593	1,011898	2020-10-29T19:27:05:798
9,450669	-2,384831	1,080657	2020-10-29T19:27:05:823
9,419855	-2,505466	1,076729	2020-10-29T19:27:05:839
9,374639	-2,674743	1,064085	2020-10-29T19:27:05:862
9,311213	-2,878471	1,089085	2020-10-29T19:27:05:880
9,242994	-3,094310	1,078282	2020-10-29T19:27:05:903
9,172787	-3,311271	1,032403	2020-10-29T19:27:05:919
9,110451	-3,500175	0,958568	2020-10-29T19:27:05:942
9,062830	-3,643275	0,872947	2020-10-29T19:27:05:960
9,035807	-3,728585	0,788819	2020-10-29T19:27:05:984
9,047877	-3,723170	0,666568	2020-10-29T19:27:05:999
9,103948	-3,603395	0,551421	2020-10-29T19:27:06:024
9,186129	-3,401973	0,460434	2020-10-29T19:27:06:039
9,281543	-3,143491	0,376588	2020-10-29T19:27:06:063
9,381855	-2,836804	0,322059	2020-10-29T19:27:06:080
9,485863	-2,475883	0,242485	2020-10-29T19:27:06:102
9,552493	-2,210520	0,184023	2020-10-29T19:27:06:119
7,996706	-5,662343	0,401185	2020-10-29T19:27:06:143
7,941183	-5,739067	0,413659	2020-10-29T19:27:06:159
7,894814	-5,798341	0,470680	2020-10-29T19:27:06:184
7,792838	-5,928740	0,540472	2020-10-29T19:27:06:199
7,673370	-6,073292	0,636314	2020-10-29T19:27:06:224
7,464397	-6,316222	0,747328	2020-10-29T19:27:06:240
7,233434	-6,562507	0,883926	2020-10-29T19:27:06:264
7,068236	-6,705193	1,118398	2020-10-29T19:27:06:280
7,002548	-6,704147	1,479568	2020-10-29T19:27:06:304
6,974657	-6,614231	1,943323	2020-10-29T19:27:06:320
6,925312	-6,500073	2,441205	2020-10-29T19:27:06:343
6,809586	-6,401581	2,969796	2020-10-29T19:27:06:360
6,659088	-6,225327	3,615553	2020-10-29T19:27:06:384
6,376859	-6,151484	4,203012	2020-10-29T19:27:06:400
5,983729	-6,137047	4,764665	2020-10-29T19:27:06:423
5,527051	-6,133296	5,291952	2020-10-29T19:27:06:440
4,721320	-6,071110	6,084500	2020-10-29T19:27:06:465
4,314879	-6,017628	6,429647	2020-10-29T19:27:06:480
3,124027	-5,797747	7,266152	2020-10-29T19:27:06:505
2,719970	-5,714443	7,491148	2020-10-29T19:27:06:520
1,554944	-5,395267	8,040126	2020-10-29T19:27:06:544
0,290655	-4,921745	8,477165	2020-10-29T19:27:06:560
-1,024649	-4,403677	-8,702189	2020-10-29T19:27:06:583
-0,088004	-4,961640	-8,458414	2020-10-29T19:27:06:600
0,416400	-5,375620	-8,191441	2020-10-29T19:27:06:624
0,308849	-5,526633	-8,095142	2020-10-29T19:27:06:640
0,081496	-5,684273	-7,990794	2020-10-29T19:27:06:664
0,011043	-5,816065	-7,895800	2020-10-29T19:27:06:680
0,039311	-5,888501	-7,841836	2020-10-29T19:27:06:704
0,033523	-5,934674	-7,806978	2020-10-29T19:27:06:721
0,174503	-6,055327	-7,711870	2020-10-29T19:27:06:744
0,341351	-6,141253	-7,637989	2020-10-29T19:27:06:760
0,529451	-6,213212	-7,568756	2020-10-29T19:27:06:785
0,680923	-6,274106	-7,506153	2020-10-29T19:27:06:800
0,622969	-6,215418	-7,559820	2020-10-29T19:27:06:824
0,566331	-6,155383	-7,613207	2020-10-29T19:27:06:840
0,642944	-6,233416	-7,543311	2020-10-29T19:27:06:865
0,702569	-6,315645	-7,469231	2020-10-29T19:27:06:880
0,852596	-6,437080	-7,348977	2020-10-29T19:27:06:904
0,892776	-6,475722	-7,310154	2020-10-29T19:27:06:920
0,969091	-6,547395	-7,236218	2020-10-29T19:27:06:944
1,165405	-6,609360	-7,150425	2020-10-29T19:27:06:961
1,280332	-6,622405	-7,118629	2020-10-29T19:27:06:985
1,165604	-6,534296	-7,219053	2020-10-29T19:27:07:001
1,303887	-6,477804	-7,246262	2020-10-29T19:27:07:025
1,526549	-6,443021	-7,233776	2020-10-29T19:27:07:041
1,594724	-6,469118	-7,195676	2020-10-29T19:27:07:063
1,594174	-6,462965	-7,201325	2020-10-29T19:27:07:081
1,652008	-6,481034	-7,171990	2020-10-29T19:27:07:105
8,620302	-3,145143	-3,459603	2020-10-29T19:27:07:120
8,666591	-3,135277	-3,351213	2020-10-29T19:27:07:144
8,713128	-3,128245	-3,235099	2020-10-29T19:27:07:161
8,790846	-3,134217	-3,011328	2020-10-29T19:27:07:185
8,821616	-3,138651	-2,915192	2020-10-29T19:27:07:200
8,917916	-3,130592	-2,615444	2020-10-29T19:27:07:225
9,014735	-3,094634	-2,308284	2020-10-29T19:27:07:240
9,124193	-3,017256	-1,953367	2020-10-29T19:27:07:264
9,228105	-2,919775	-1,577144	2020-10-29T19:27:07:281
9,318221	-2,815319	-1,189590	2020-10-29T19:27:07:304
9,412656	-2,647825	-0,749207	2020-10-29T19:27:07:321
9,476084	-2,502048	-0,337609	2020-10-29T19:27:07:344
9,517179	-2,363480	0,087437	2020-10-29T19:27:07:360
9,537531	-2,211841	0,560049	2020-10-29T19:27:07:384
9,535069	-2,033456	1,057314	2020-10-29T19:27:07:401
9,498424	-1,876221	1,558885	2020-10-29T19:27:07:425
9,438601	-1,728705	2,023556	2020-10-29T19:27:07:441
9,295366	-1,427617	2,780011	2020-10-29T19:27:07:465
9,226993	-1,307857	3,053277	2020-10-29T19:27:07:481
9,114782	-1,134120	3,435826	2020-10-29T19:27:07:504
9,032705	-1,081440	3,662117	2020-10-29T19:27:07:521
8,870086	-1,132047	4,026218	2020-10-29T19:27:07:544
8,799549	-1,206184	4,157335	2020-10-29T19:27:07:561
8,519236	-1,469157	4,629750	2020-10-29T19:27:07:585
8,284764	-1,322409	5,077825	2020-10-29T19:27:07:601
8,156678	-1,157411	5,319717	2020-10-29T19:27:07:625
8,011788	-0,855699	5,590117	2020-10-29T19:27:07:642
7,850393	-0,560023	5,850477	2020-10-29T19:27:08:131
7,681285	-0,292164	6,089572	2020-10-29T19:27:08:156
7,533937	-0,089856	6,277109	2020-10-29T19:27:08:157
7,465746	-0,061036	6,358403	2020-10-29T19:27:08:173
7,398766	-0,118259	6,435423	2020-10-29T19:27:08:173
7,330636	-0,158032	6,512080	2020-10-29T19:27:08:179
7,289061	-0,067230	6,560142	2020-10-29T19:27:08:180
7,268502	0,010876	6,583247	2020-10-29T19:27:08:181
7,265774	0,076723	6,585820	2020-10-29T19:27:08:181
7,281062	0,103417	6,568549	2020-10-29T19:27:08:182
7,333605	0,088443	6,510053	2020-10-29T19:27:08:183
7,350486	0,096731	6,490869	2020-10-29T19:27:08:183
7,379646	0,070930	6,458032	2020-10-29T19:27:08:183
7,448158	-0,013659	6,379274	2020-10-29T19:27:08:184
7,495283	-0,091506	6,323191	2020-10-29T19:27:08:184
7,511663	-0,135230	6,302938	2020-10-29T19:27:08:185
7,512294	-0,167819	6,301402	2020-10-29T19:27:08:189
7,487026	-0,183810	6,330958	2020-10-29T19:27:08:190
7,441757	-0,214328	6,383157	2020-10-29T19:27:08:190
7,379379	-0,238611	6,454317	2020-10-29T19:27:08:195
7,283977	-0,270289	6,560565	2020-10-29T19:27:08:206
7,169632	-0,297929	6,684160	2020-10-29T19:27:08:206
7,017808	-0,331428	6,841850	2020-10-29T19:27:08:207
6,866096	-0,353827	6,992991	2020-10-29T19:27:08:208
6,707869	-0,368972	7,144140	2020-10-29T19:27:08:208
6,524590	-0,388228	7,310908	2020-10-29T19:27:08:209
6,293983	-0,412751	7,509048	2020-10-29T19:27:08:209
6,068061	-0,431638	7,691730	2020-10-29T19:27:08:211
5,843616	-0,445547	7,862826	2020-10-29T19:27:08:272
5,659168	-0,449299	7,996395	2020-10-29T19:27:08:294
5,464148	-0,452212	8,130743	2020-10-29T19:27:08:309
5,292034	-0,448283	8,244016	2020-10-29T19:27:08:328
5,112274	-0,443296	8,356945	2020-10-29T19:27:08:343
1,896478	-0,186367	9,619720	2020-10-29T19:27:08:344
1,973377	-0,220671	9,603514	2020-10-29T19:27:08:345
2,094811	-0,282902	9,576122	2020-10-29T19:27:08:361
2,182238	-0,333849	9,554935	2020-10-29T19:27:08:384
2,253811	-0,384241	9,536408	2020-10-29T19:27:08:403
2,299818	-0,421797	9,523829	2020-10-29T19:27:08:424
2,328007	-0,448839	9,515740	2020-10-29T19:27:08:441
2,344051	-0,470092	9,510774	2020-10-29T19:27:08:470
2,350457	-0,485780	9,508405	2020-10-29T19:27:08:482
2,340669	-0,487604	9,510725	2020-10-29T19:27:08:508
2,332160	-0,483296	9,513035	2020-10-29T19:27:08:523
2,326933	-0,477335	9,514616	2020-10-29T19:27:08:545
2,325135	-0,472856	9,515279	2020-10-29T19:27:08:561
2,319615	-0,468935	9,516821	2020-10-29T19:27:08:583
2,316452	-0,466759	9,517697	2020-10-29T19:27:08:602
2,319085	-0,472411	9,516778	2020-10-29T19:27:08:626
2,323451	-0,483831	9,515139	2020-10-29T19:27:08:643
2,318140	-0,491182	9,516058	2020-10-29T19:27:08:849
2,317395	-0,502204	9,515664	2020-10-29T19:27:08:850
2,315248	-0,509374	9,515805	2020-10-29T19:27:08:850
2,312654	-0,515129	9,516126	2020-10-29T19:27:08:868
2,315550	-0,524386	9,514916	2020-10-29T19:27:08:869
2,318279	-0,527845	9,514060	2020-10-29T19:27:08:870
2,323710	-0,529785	9,512628	2020-10-29T19:27:08:870
2,335968	-0,533157	9,509437	2020-10-29T19:27:08:873
2,345988	-0,538102	9,506691	2020-10-29T19:27:08:875
2,359999	-0,546123	9,502765	2020-10-29T19:27:08:876
2,369620	-0,557160	9,499729	2020-10-29T19:27:08:876
2,379446	-0,572368	9,496368	2020-10-29T19:27:08:882
2,383088	-0,584055	9,494743	2020-10-29T19:27:08:905
2,377068	-0,592240	9,495746	2020-10-29T19:27:08:922
2,371164	-0,596221	9,496972	2020-10-29T19:27:08:946
2,364009	-0,590079	9,499140	2020-10-29T19:27:08:962
2,364127	-0,585412	9,499399	2020-10-29T19:27:08:987
2,365676	-0,583474	9,499132	2020-10-29T19:27:09:080
2,373691	-0,580391	9,497322	2020-10-29T19:27:09:080
2,380569	-0,584913	9,495322	2020-10-29T19:27:09:086
2,392797	-0,591258	9,491856	2020-10-29T19:27:09:087
2,411472	-0,603823	9,486337	2020-10-29T19:27:09:088
2,426466	-0,621326	9,481381	2020-10-29T19:27:09:113
2,443424	-0,645748	9,475393	2020-10-29T19:27:09:123
2,428712	-0,649335	9,478930	2020-10-29T19:27:09:147
2,402616	-0,653853	9,485268	2020-10-29T19:27:09:170
2,389412	-0,662442	9,488007	2020-10-29T19:27:09:191
2,384938	-0,657412	9,489482	2020-10-29T19:27:09:204
2,407976	-0,660823	9,483425	2020-10-29T19:27:09:228
2,456527	-0,685433	9,469215	2020-10-29T19:27:09:243
2,513546	-0,720778	9,451611	2020-10-29T19:27:09:265
2,553874	-0,753792	9,438215	2020-10-29T19:27:09:284
2,584677	-0,791156	9,426765	2020-10-29T19:27:09:305
2,602071	-0,830981	9,418550	2020-10-29T19:27:09:324
2,619963	-0,867451	9,410297	2020-10-29T19:27:09:348
2,636515	-0,929999	9,399695	2020-10-29T19:27:09:364
2,619121	-1,016706	9,395578	2020-10-29T19:27:09:389
2,562149	-1,099739	9,401934	2020-10-29T19:27:09:406
2,466888	-1,133608	9,423364	2020-10-29T19:27:09:428
2,388974	-1,135920	9,443139	2020-10-29T19:27:09:442
2,342440	-1,141890	9,454070	2020-10-29T19:27:09:467
2,320625	-1,206269	9,451455	2020-10-29T19:27:09:483
2,321434	-1,291075	9,440045	2020-10-29T19:27:09:507
2,337226	-1,365041	9,425732	2020-10-29T19:27:09:524
2,344850	-1,389985	9,420192	2020-10-29T19:27:09:547
2,372859	-1,400162	9,411667	2020-10-29T19:27:09:565
2,411840	-1,408234	9,400547	2020-10-29T19:27:09:589
2,475373	-1,458821	9,376287	2020-10-29T19:27:09:606
2,538344	-1,538471	9,346673	2020-10-29T19:27:09:629
2,634572	-1,604493	9,308867	2020-10-29T19:27:09:642
2,632561	-1,729397	9,287045	2020-10-29T19:27:09:669
2,551045	-1,913768	9,273621	2020-10-29T19:27:09:683
2,508592	-2,122745	9,239659	2020-10-29T19:27:09:705
2,498355	-2,328026	9,192872	2020-10-29T19:27:09:726
2,633461	-2,531526	9,100914	2020-10-29T19:27:09:748
2,848771	-2,812578	8,952334	2020-10-29T19:27:09:763
3,123275	-3,041041	8,784510	2020-10-29T19:27:09:786
3,399212	-3,228827	8,613386	2020-10-29T19:27:09:805
3,694115	-3,501235	8,382437	2020-10-29T19:27:09:827
4,017005	-3,771012	8,112554	2020-10-29T19:27:09:845
4,287098	-4,002730	7,859346	2020-10-29T19:27:09:868
4,516817	-4,128302	7,663280	2020-10-29T19:27:09:883
4,751773	-4,200367	7,479836	2020-10-29T19:27:09:906
5,050583	-4,279578	7,235137	2020-10-29T19:27:09:925
5,362351	-4,352871	6,961902	2020-10-29T19:27:09:948
5,696374	-4,532173	6,571234	2020-10-29T19:27:09:963
5,998139	-4,653029	6,208223	2020-10-29T19:27:09:988
6,330385	-4,686974	5,841993	2020-10-29T19:27:10:007
6,647758	-4,658508	5,502363	2020-10-29T19:27:10:031
6,937648	-4,579968	5,202242	2020-10-29T19:27:10:047
7,242514	-4,447518	4,892439	2020-10-29T19:27:10:072
7,569627	-4,242592	4,568540	2020-10-29T19:27:10:085
7,881609	-4,011528	4,237719	2020-10-29T19:27:10:119
8,190481	-3,758523	3,867804	2020-10-29T19:27:10:256
8,464912	-3,510378	3,491831	2020-10-29T19:27:10:256
8,728838	-3,270558	3,046509	2020-10-29T19:27:10:257
8,924762	-3,107064	2,620146	2020-10-29T19:27:10:257
9,067173	-2,982482	2,249792	2020-10-29T19:27:10:258
9,153481	-2,900518	1,992776	2020-10-29T19:27:10:306
9,209599	-2,846079	1,803747	2020-10-29T19:27:10:306
9,278516	-2,767532	1,555728	2020-10-29T19:27:10:307
9,335155	-2,701008	1,315229	2020-10-29T19:27:10:308
9,382827	-2,633884	1,093433	2020-10-29T19:27:10:308
9,423925	-2,564204	0,885930	2020-10-29T19:27:10:322
9,444200	-2,529675	0,760412	2020-10-29T19:27:10:346
9,473664	-2,467753	0,574691	2020-10-29T19:27:10:363
9,495210	-2,416894	0,412305	2020-10-29T19:27:10:389
9,505804	-2,392573	0,292692	2020-10-29T19:27:10:413
9,498824	-2,427855	0,219661	2020-10-29T19:27:10:519
9,468977	-2,543384	0,200129	2020-10-29T19:27:10:520
9,437269	-2,659051	0,194368	2020-10-29T19:27:10:520
9,427742	-2,692731	0,193043	2020-10-29T19:27:10:540
9,456199	-2,591197	0,190761	2020-10-29T19:27:10:541
9,516355	-2,361745	0,177612	2020-10-29T19:27:10:542
9,583388	-2,075276	0,149273	2020-10-29T19:27:10:547
9,659249	-1,690788	0,102605	2020-10-29T19:27:10:564
9,716712	-1,323900	0,056459	2020-10-29T19:27:10:591
8,922321	-4,067153	0,144318	2020-10-29T19:27:10:603
8,715341	-4,493269	0,154101	2020-10-29T19:27:10:627
8,503091	-4,882905	0,158353	2020-10-29T19:27:10:643
8,295695	-5,227659	0,152989	2020-10-29T19:27:10:669
8,105618	-5,518108	0,140851	2020-10-29T19:27:10:694
7,959180	-5,727666	0,125210	2020-10-29T19:27:10:720
7,862251	-5,860243	0,113788	2020-10-29T19:27:10:774
7,844548	-5,883871	0,116258	2020-10-29T19:27:10:775
7,850070	-5,876416	0,120509	2020-10-29T19:27:10:776
7,842868	-5,886013	0,121075	2020-10-29T19:27:10:793
7,832670	-5,899568	0,121479	2020-10-29T19:27:10:805
7,823135	-5,912169	0,123289	2020-10-29T19:27:10:837
7,806463	-5,934108	0,126004	2020-10-29T19:27:10:843
7,743873	-6,015670	0,120553	2020-10-29T19:27:10:868
7,635911	-6,152464	0,102199	2020-10-29T19:27:10:884
7,519973	-6,293902	0,084797	2020-10-29T19:27:10:907
7,444027	-6,383582	0,082066	2020-10-29T19:27:10:925
7,408419	-6,424805	0,087206	2020-10-29T19:27:10:949
7,412730	-6,419621	0,101423	2020-10-29T19:27:10:965
7,389585	-6,446243	0,101872	2020-10-29T19:27:10:987
7,454710	-6,370354	0,127597	2020-10-29T19:27:11:005
7,588222	-6,209626	0,172692	2020-10-29T19:27:11:029
7,705896	-6,061654	0,214236	2020-10-29T19:27:11:045
7,880547	-5,830116	0,277700	2020-10-29T19:27:11:069
7,919852	-5,775844	0,293162	2020-10-29T19:27:11:084
7,988516	-5,679318	0,315181	2020-10-29T19:27:11:109
8,027767	-5,624597	0,298736	2020-10-29T19:27:11:125
8,094531	-5,529539	0,270470	2020-10-29T19:27:11:147
8,251501	-5,294142	0,234880	2020-10-29T19:27:11:165
9,553555	-2,211273	0,101216	2020-10-29T19:27:11:188
9,291656	-3,134084	0,114179	2020-10-29T19:27:11:205
7,404640	-6,429476	0,059413	2020-10-29T19:27:11:235
6,482965	-7,357557	-0,088852	2020-10-29T19:27:11:287
6,679936	-7,176963	-0,200089	2020-10-29T19:27:11:287
6,637272	-7,213583	-0,285012	2020-10-29T19:27:11:288
6,563564	-7,278182	-0,343629	2020-10-29T19:27:11:310
6,514049	-7,320618	-0,382232	2020-10-29T19:27:11:325
6,464368	-7,363262	-0,405825	2020-10-29T19:27:11:351
6,478085	-7,350996	-0,409456	2020-10-29T19:27:11:364
9,327662	-3,022748	-0,167609	2020-10-29T19:27:11:389
9,262983	-3,214135	-0,191983	2020-10-29T19:27:11:405
9,186121	-3,425841	-0,221761	2020-10-29T19:27:11:430
9,086529	-3,677738	-0,282192	2020-10-29T19:27:11:445
8,987148	-3,905754	-0,382934	2020-10-29T19:27:11:468
8,898602	-4,089765	-0,509004	2020-10-29T19:27:11:485
8,824156	-4,229939	-0,642084	2020-10-29T19:27:11:509
8,767200	-4,322711	-0,787881	2020-10-29T19:27:11:525
8,723581	-4,384555	-0,919338	2020-10-29T19:27:11:549
8,683969	-4,436376	-1,038091	2020-10-29T19:27:11:565
8,642197	-4,493125	-1,137822	2020-10-29T19:27:11:589
8,590555	-4,572506	-1,210342	2020-10-29T19:27:11:606
8,517876	-4,700696	-1,232736	2020-10-29T19:27:11:628
8,404448	-4,908723	-1,200035	2020-10-29T19:27:11:645
8,218688	-5,232584	-1,115177	2020-10-29T19:27:11:675
8,161076	-5,334432	-1,054072	2020-10-29T19:27:17:098
8,196395	-5,279311	-1,057526	2020-10-29T19:27:17:110
8,398355	-4,938793	-1,116401	2020-10-29T19:27:17:125
8,614848	-4,535710	-1,175637	2020-10-29T19:27:17:145
8,816101	-4,132637	-1,169642	2020-10-29T19:27:17:154
9,028118	-3,646584	-1,168715	2020-10-29T19:27:17:171
9,253717	-2,996894	-1,248087	2020-10-29T19:27:17:196
9,405483	-2,432760	-1,337516	2020-10-29T19:27:17:214
9,495343	-1,982536	-1,441665	2020-10-29T19:27:17:235
9,549883	-1,637750	-1,512580	2020-10-29T19:27:17:252
9,585751	-1,386888	-1,536332	2020-10-29T19:27:17:276
9,612959	-1,188080	-1,532931	2020-10-29T19:27:17:292
9,637066	-1,018822	-1,503111	2020-10-29T19:27:17:317
9,658596	-0,892847	-1,443859	2020-10-29T19:27:17:331
9,680746	-0,789962	-1,352593	2020-10-29T19:27:17:358
9,695296	-0,730882	-1,279621	2020-10-29T19:27:17:372
9,700338	-0,709962	-1,252909	2020-10-29T19:27:17:395
9,698439	-0,728096	-1,257198	2020-10-29T19:27:17:412
9,681985	-0,832257	-1,317918	2020-10-29T19:27:17:436
9,643544	-1,045071	-1,442314	2020-10-29T19:27:17:452
9,601637	-1,270719	-1,537606	2020-10-29T19:27:17:475
9,566723	-1,483351	-1,564568	2020-10-29T19:27:17:492
9,522604	-1,762909	-1,543550	2020-10-29T19:27:17:516
9,460257	-2,122525	-1,472688	2020-10-29T19:27:17:532
9,331622	-2,706630	-1,328672	2020-10-29T19:27:17:555
8,989810	-3,777389	-1,041652	2020-10-29T19:27:17:572
8,532296	-4,786990	-0,674570	2020-10-29T19:27:17:596
8,418853	-5,013271	-0,400511	2020-10-29T19:27:17:612
8,427295	-5,006296	-0,296807	2020-10-29T19:27:17:635
8,270009	-5,256026	-0,389265	2020-10-29T19:27:17:652
8,420202	-4,990818	-0,601922	2020-10-29T19:27:17:677
8,876037	-4,088862	-0,817044	2020-10-29T19:27:17:693
9,182347	-3,307272	-0,957514	2020-10-29T19:27:17:715
9,303056	-2,922914	-1,039286	2020-10-29T19:27:17:733
9,347431	-2,760534	-1,084143	2020-10-29T19:27:17:757
9,357928	-2,721102	-1,093240	2020-10-29T19:27:17:773
9,355083	-2,737719	-1,075958	2020-10-29T19:27:17:796
9,348639	-2,779904	-1,022483	2020-10-29T19:27:17:812
9,333351	-2,860283	-0,936864	2020-10-29T19:27:17:836
9,304248	-2,980870	-0,846031	2020-10-29T19:27:17:852
9,262609	-3,130667	-0,757218	2020-10-29T19:27:17:875
9,232028	-3,236840	-0,680368	2020-10-29T19:27:17:892
9,270061	-3,133721	-0,645105	2020-10-29T19:27:17:917
9,353835	-2,870217	-0,661826	2020-10-29T19:27:17:933
9,443476	-2,550987	-0,695421	2020-10-29T19:27:17:956
9,518118	-2,260010	-0,684229	2020-10-29T19:27:17:972
9,558836	-2,090270	-0,655602	2020-10-29T19:27:17:996
9,592301	-1,956509	-0,574639	2020-10-29T19:27:18:013
9,622280	-1,830116	-0,482476	2020-10-29T19:27:18:037
9,638379	-1,754102	-0,441771	2020-10-29T19:27:18:053
9,648159	-1,708537	-0,405354	2020-10-29T19:27:18:076
9,657043	-1,668284	-0,358772	2020-10-29T19:27:18:092
8,694145	-4,474502	-0,749031	2020-10-29T19:27:18:116
8,545564	-4,761312	-0,688212	2020-10-29T19:27:18:133
8,524949	-4,808834	-0,608896	2020-10-29T19:27:18:157
8,566575	-4,738358	-0,576317	2020-10-29T19:27:18:172
8,556346	-4,758339	-0,563507	2020-10-29T19:27:18:196
8,491203	-4,873594	-0,563856	2020-10-29T19:27:18:213
8,346757	-5,120125	-0,535119	2020-10-29T19:27:18:236
8,143648	-5,441331	-0,493252	2020-10-29T19:27:18:253
7,874326	-5,831124	-0,404186	2020-10-29T19:27:18:277
7,606397	-6,181377	-0,321998	2020-10-29T19:27:18:292
7,435987	-6,385972	-0,309599	2020-10-29T19:27:18:317
7,310773	-6,528613	-0,316529	2020-10-29T19:27:18:333
7,197364	-6,651479	-0,355186	2020-10-29T19:27:18:357
7,194137	-6,653379	-0,383825	2020-10-29T19:27:18:373
7,238165	-6,599113	-0,480689	2020-10-29T19:27:18:397
7,306895	-6,513659	-0,593229	2020-10-29T19:27:18:413
7,393814	-6,403597	-0,704159	2020-10-29T19:27:18:436
7,508510	-6,254797	-0,818644	2020-10-29T19:27:18:453
7,718424	-5,975420	-0,943754	2020-10-29T19:27:18:477
7,782299	-5,887177	-0,973320	2020-10-29T19:27:18:493
7,940704	-5,651186	-1,086140	2020-10-29T19:27:18:519
7,998914	-5,557376	-1,141635	2020-10-29T19:27:18:533
8,149305	-5,291297	-1,327167	2020-10-29T19:27:18:559
8,153342	-5,268739	-1,390608	2020-10-29T19:27:18:573
8,078601	-5,341114	-1,542429	2020-10-29T19:27:18:596
7,975491	-5,460563	-1,656556	2020-10-29T19:27:18:614
7,865179	-5,615034	-1,667557	2020-10-29T19:27:18:638
7,906818	-5,568070	-1,627638	2020-10-29T19:27:18:653
7,969040	-5,483918	-1,609794	2020-10-29T19:27:18:676
7,977851	-5,482528	-1,570400	2020-10-29T19:27:18:693
8,020145	-5,441676	-1,495265	2020-10-29T19:27:18:717
8,033891	-5,448993	-1,391211	2020-10-29T19:27:18:733
8,007006	-5,519766	-1,261120	2020-10-29T19:27:18:758
7,838818	-5,790019	-1,094993	2020-10-29T19:27:18:773
7,558015	-6,198954	-0,787248	2020-10-29T19:27:18:798
7,485668	-6,295341	-0,709821	2020-10-29T19:27:18:813
7,400507	-6,408663	-0,576126	2020-10-29T19:27:18:836
7,273117	-6,563051	-0,445561	2020-10-29T19:27:18:853
7,127826	-6,726928	-0,336055	2020-10-29T19:27:18:877
7,016462	-6,846042	-0,267139	2020-10-29T19:27:18:893
6,951223	-6,913306	-0,238931	2020-10-29T19:27:18:917
6,911141	-6,953377	-0,238873	2020-10-29T19:27:18:934
6,872183	-6,991065	-0,261732	2020-10-29T19:27:18:957
6,867204	-6,993991	-0,309814	2020-10-29T19:27:18:973
6,826223	-7,031957	-0,353047	2020-10-29T19:27:18:997
6,773617	-7,080581	-0,392273	2020-10-29T19:27:19:013
6,717290	-7,132281	-0,423030	2020-10-29T19:27:19:037
6,661753	-7,182565	-0,449648	2020-10-29T19:27:19:053
6,591377	-7,244910	-0,485180	2020-10-29T19:27:19:077
6,577481	-7,256686	-0,497631	2020-10-29T19:27:19:093
6,563594	-7,267815	-0,518160	2020-10-29T19:27:19:117
6,573692	-7,257370	-0,536224	2020-10-29T19:27:19:133
6,622397	-7,211352	-0,557356	2020-10-29T19:27:19:157
6,716582	-7,120711	-0,594452	2020-10-29T19:27:19:173
6,835445	-7,002392	-0,643096	2020-10-29T19:27:19:197
6,979404	-6,853936	-0,694164	2020-10-29T19:27:19:214
7,237675	-6,570243	-0,786356	2020-10-29T19:27:19:239
7,325883	-6,467443	-0,820974	2020-10-29T19:27:19:254
7,524480	-6,220934	-0,923341	2020-10-29T19:27:19:277
7,721697	-5,959756	-1,013452	2020-10-29T19:27:19:294
7,880734	-5,732447	-1,097025	2020-10-29T19:27:19:317
8,080212	-5,430526	-1,178963	2020-10-29T19:27:19:334
8,251262	-5,144289	-1,274105	2020-10-29T19:27:19:358
8,352593	-4,948142	-1,385807	2020-10-29T19:27:19:373
8,420715	-4,788691	-1,526559	2020-10-29T19:27:19:397
8,402555	-4,764019	-1,694574	2020-10-29T19:27:19:414
8,157022	-5,062509	-2,001098	2020-10-29T19:27:19:438
8,046151	-5,197209	-2,102109	2020-10-29T19:27:19:455
7,852292	-5,410454	-2,288860	2020-10-29T19:27:19:478
7,610764	-5,666919	-2,476425	2020-10-29T19:27:19:494
7,329010	-5,941348	-2,675139	2020-10-29T19:27:19:518
7,042452	-6,185942	-2,882426	2020-10-29T19:27:19:534
6,746299	-6,401689	-3,110663	2020-10-29T19:27:19:557
6,484171	-6,577630	-3,295556	2020-10-29T19:27:19:574
6,252756	-6,716224	-3,459157	2020-10-29T19:27:19:598
6,075268	-6,806206	-3,596813	2020-10-29T19:27:19:614
5,951703	-6,864420	-3,691525	2020-10-29T19:27:19:637
5,870521	-6,910498	-3,735290	2020-10-29T19:27:19:655
5,818729	-6,989317	-3,669090	2020-10-29T19:27:19:679
5,823115	-7,017609	-3,607615	2020-10-29T19:27:19:694
5,841784	-7,109750	-3,390486	2020-10-29T19:27:19:719
5,867120	-7,214906	-3,113264	2020-10-29T19:27:19:734
5,890673	-7,274654	-2,923999	2020-10-29T19:27:19:766
5,932726	-7,305714	-2,756754	2020-10-29T19:27:19:775
5,981010	-7,319112	-2,613141	2020-10-29T19:27:19:797
6,055524	-7,340330	-2,370774	2020-10-29T19:27:19:814
6,133278	-7,332037	-2,189636	2020-10-29T19:27:19:838
6,195107	-7,312345	-2,078618	2020-10-29T19:27:19:854
6,202116	-7,329401	-1,995999	2020-10-29T19:27:19:878
6,222648	-7,338077	-1,897804	2020-10-29T19:27:19:895
6,298622	-7,301638	-1,784329	2020-10-29T19:27:19:919
6,416880	-7,225040	-1,671178	2020-10-29T19:27:19:934
6,587426	-7,102762	-1,525441	2020-10-29T19:27:19:959
6,775408	-6,960328	-1,348355	2020-10-29T19:27:19:974
6,984259	-6,785726	-1,159501	2020-10-29T19:27:19:998
7,172590	-6,619672	-0,950938	2020-10-29T19:27:20:015
7,313230	-6,491988	-0,735622	2020-10-29T19:27:20:038
7,506818	-6,285863	-0,553164	2020-10-29T19:27:20:055
7,705626	-6,052759	-0,397262	2020-10-29T19:27:20:079
7,793276	-5,947696	-0,245248	2020-10-29T19:27:20:095
7,771691	-5,980108	-0,097547	2020-10-29T19:27:20:118
7,697244	-6,076311	0,035734	2020-10-29T19:27:20:135
7,820179	-5,914073	0,197281	2020-10-29T19:27:20:160
8,861099	-4,186380	0,354286	2020-10-29T19:27:20:175
9,444898	-2,610184	0,388880	2020-10-29T19:27:20:199
9,590579	-2,004666	0,415324	2020-10-29T19:27:20:215
9,636980	-1,762657	0,438221	2020-10-29T19:27:20:239
9,664364	-1,612583	0,412349	2020-10-29T19:27:20:255
9,679771	-1,521355	0,397348	2020-10-29T19:27:20:278
9,681081	-1,510350	0,407301	2020-10-29T19:27:20:295
9,671313	-1,560545	0,448081	2020-10-29T19:27:20:319
9,654912	-1,642876	0,504001	2020-10-29T19:27:20:335
9,628316	-1,769343	0,579091	2020-10-29T19:27:20:359
9,597128	-1,924960	0,600032	2020-10-29T19:27:20:375
9,552591	-2,131773	0,611494	2020-10-29T19:27:20:399
9,491149	-2,391819	0,606359	2020-10-29T19:27:20:415
9,369236	-2,834076	0,596505	2020-10-29T19:27:20:440
9,324855	-2,986075	0,548472	2020-10-29T19:27:20:455
9,218158	-3,319391	0,421418	2020-10-29T19:27:20:479
9,045308	-3,777091	0,293896	2020-10-29T19:27:20:495
8,697989	-4,525769	0,181039	2020-10-29T19:27:20:518
8,137601	-5,471814	0,095369	2020-10-29T19:27:20:535
8,535630	-4,827832	0,073720	2020-10-29T19:27:20:560
8,673679	-4,575570	0,042833	2020-10-29T19:27:20:575
9,267120	-3,207511	0,052350	2020-10-29T19:27:20:599
9,410709	-2,755894	0,118220	2020-10-29T19:27:20:615
9,414819	-2,739610	0,161608	2020-10-29T19:27:20:639
9,387296	-2,832325	0,164314	2020-10-29T19:27:20:655
9,228953	-3,313015	0,143983	2020-10-29T19:27:20:679
6,633267	-7,222872	0,016357	2020-10-29T19:27:20:695
6,534047	-7,312763	-0,010709	2020-10-29T19:27:20:719
6,499089	-7,343493	-0,073034	2020-10-29T19:27:20:735
6,468923	-7,369297	-0,129953	2020-10-29T19:27:20:758
6,474078	-7,364145	-0,161449	2020-10-29T19:27:20:775
6,388011	-7,440178	-0,086270	2020-10-29T19:27:20:799
6,460239	-7,378051	0,007787	2020-10-29T19:27:20:816
9,357548	-2,932215	0,093775	2020-10-29T19:27:20:838
7,870570	-5,845029	0,245242	2020-10-29T19:27:20:856
7,767556	-5,976837	0,335968	2020-10-29T19:27:20:880
7,911184	-5,783509	0,366847	2020-10-29T19:27:20:895
8,163484	-5,418454	0,410222	2020-10-29T19:27:20:920
8,411520	-5,021391	0,449830	2020-10-29T19:27:20:935
8,532784	-4,812715	0,446940	2020-10-29T19:27:20:960
8,675081	-4,550447	0,454722	2020-10-29T19:27:20:976
8,762199	-4,380009	0,458006	2020-10-29T19:27:20:999
8,811194	-4,280024	0,463279	2020-10-29T19:27:21:016
8,876382	-4,140119	0,489542	2020-10-29T19:27:21:040
8,914888	-4,054501	0,506125	2020-10-29T19:27:21:056
9,004703	-3,844332	0,553913	2020-10-29T19:27:21:079
9,077325	-3,661547	0,604672	2020-10-29T19:27:21:096
9,137585	-3,499720	0,653371	2020-10-29T19:27:21:120
9,193592	-3,342489	0,689934	2020-10-29T19:27:21:136
9,238120	-3,212641	0,711662	2020-10-29T19:27:21:160
9,260077	-3,148323	0,713731	2020-10-29T19:27:21:175
9,261704	-3,144634	0,708873	2020-10-29T19:27:21:199
9,272407	-3,109799	0,722496	2020-10-29T19:27:21:216
9,261463	-3,133113	0,761109	2020-10-29T19:27:21:238
9,227354	-3,213801	0,835350	2020-10-29T19:27:21:256
9,169114	-3,358990	0,902730	2020-10-29T19:27:21:280
9,100330	-3,525434	0,962128	2020-10-29T19:27:21:296
9,018808	-3,705765	1,048227	2020-10-29T19:27:21:320
9,002766	-3,737741	1,072330	2020-10-29T19:27:21:336
8,998722	-3,716161	1,176238	2020-10-29T19:27:21:360
9,004086	-3,672194	1,269570	2020-10-29T19:27:21:376
9,000736	-3,647609	1,360913	2020-10-29T19:27:21:400
8,990726	-3,644542	1,433373	2020-10-29T19:27:21:416
8,953523	-3,736454	1,429589	2020-10-29T19:27:21:440
8,890639	-3,885202	1,425525	2020-10-29T19:27:21:456
8,800597	-4,083837	1,429038	2020-10-29T19:27:21:479
8,670893	-4,350378	1,435346	2020-10-29T19:27:21:496
8,528490	-4,598423	1,513192	2020-10-29T19:27:21:520
8,355169	-4,882853	1,587223	2020-10-29T19:27:21:536
8,135399	-5,249027	1,559935	2020-10-29T19:27:21:559
7,915079	-5,586224	1,521842	2020-10-29T19:27:21:576
7,715701	-5,840408	1,589961	2020-10-29T19:27:21:600
7,529277	-6,052137	1,688789	2020-10-29T19:27:21:616
7,291218	-6,290710	1,853507	2020-10-29T19:27:21:641
7,220938	-6,353259	1,914299	2020-10-29T19:27:21:656
7,082635	-6,470541	2,034395	2020-10-29T19:27:21:681
6,955470	-6,572840	2,142332	2020-10-29T19:27:21:696
6,834138	-6,673628	2,219825	2020-10-29T19:27:21:720
6,805923	-6,720751	2,163633	2020-10-29T19:27:21:736
6,770499	-6,705729	2,316016	2020-10-29T19:27:21:761
6,762063	-6,705497	2,341195	2020-10-29T19:27:21:776
6,743820	-6,708107	2,385911	2020-10-29T19:27:21:799
6,721649	-6,708867	2,445593	2020-10-29T19:27:21:816
6,697188	-6,692151	2,556007	2020-10-29T19:27:21:840
6,662188	-6,671181	2,698330	2020-10-29T19:27:21:857
6,607234	-6,658260	2,860491	2020-10-29T19:27:21:882
9,361046	-2,647473	1,237780	2020-10-29T19:27:21:895
9,303445	-2,721227	1,487015	2020-10-29T19:27:21:921
9,227213	-2,823492	1,748376	2020-10-29T19:27:21:936
9,135811	-2,918388	2,047034	2020-10-29T19:27:21:960
9,038480	-3,001759	2,337884	2020-10-29T19:27:21:976
8,929673	-3,096494	2,615921	2020-10-29T19:27:22:001
8,829337	-3,207643	2,815000	2020-10-29T19:27:22:017
8,769004	-3,333678	2,856843	2020-10-29T19:27:22:040
8,686811	-3,517397	2,887493	2020-10-29T19:27:22:057
8,592406	-3,721356	2,914180	2020-10-29T19:27:22:081
8,464116	-3,956929	2,978563	2020-10-29T19:27:22:097
8,296906	-4,224959	3,079196	2020-10-29T19:27:22:123
8,136337	-4,461972	3,171940	2020-10-29T19:27:22:137
7,958419	-4,741002	3,218207	2020-10-29T19:27:22:162
7,945650	-4,796225	3,167531	2020-10-29T19:27:22:177
7,687443	-5,125567	3,286665	2020-10-29T19:27:22:200
7,440643	-5,256116	3,630490	2020-10-29T19:27:22:217
7,158955	-5,406132	3,961500	2020-10-29T19:27:22:241
6,695794	-5,935021	4,014007	2020-10-29T19:27:22:257
6,231994	-6,253288	4,269547	2020-10-29T19:27:22:280
5,658337	-6,479670	4,708235	2020-10-29T19:27:22:297
5,499323	-6,441463	4,943215	2020-10-29T19:27:22:321
5,436947	-6,276843	5,216438	2020-10-29T19:27:22:337
5,271950	-6,106717	5,575387	2020-10-29T19:27:22:362
5,046222	-6,000937	5,890227	2020-10-29T19:27:22:377
4,833285	-5,718175	6,333420	2020-10-29T19:27:22:401
4,622839	-5,288751	6,843161	2020-10-29T19:27:22:417
4,283406	-5,014226	7,258123	2020-10-29T19:27:22:440
3,904477	-4,946742	7,513667	2020-10-29T19:27:22:457
3,574722	-4,933116	7,684798	2020-10-29T19:27:22:481
3,308028	-4,896275	7,826482	2020-10-29T19:27:22:497
3,115116	-4,869160	7,921977	2020-10-29T19:27:22:520
2,910152	-4,789608	8,047425	2020-10-29T19:27:22:537
3,007379	-4,508439	8,173129	2020-10-29T19:27:22:561
3,154012	-4,338893	8,209543	2020-10-29T19:27:22:577
3,287755	-4,458654	8,092061	2020-10-29T19:27:22:601
3,229105	-4,580475	8,047516	2020-10-29T19:27:22:617
3,077518	-4,775199	7,993544	2020-10-29T19:27:22:641
2,948127	-4,868640	7,985942	2020-10-29T19:27:22:657
2,812429	-4,751055	8,104819	2020-10-29T19:27:22:681
2,632110	-4,434845	8,341135	2020-10-29T19:27:22:697
2,279495	-4,148214	8,588749	2020-10-29T19:27:22:721
2,111868	-3,924136	8,735648	2020-10-29T19:27:22:737
1,989791	-3,747108	8,841396	2020-10-29T19:27:22:761
1,873270	-3,528772	8,955948	2020-10-29T19:27:23:152
1,808908	-3,162468	9,104781	2020-10-29T19:27:23:152
1,851288	-3,015648	9,145982	2020-10-29T19:27:23:153
1,920317	-3,035864	9,125037	2020-10-29T19:27:23:153
1,897099	-2,945457	9,159459	2020-10-29T19:27:23:154
4,620765	-7,342116	4,572991	2020-10-29T19:27:23:155
4,332181	-7,694331	4,266130	2020-10-29T19:27:23:155
4,359289	-7,519103	4,542035	2020-10-29T19:27:23:156
4,278510	-7,510134	4,632777	2020-10-29T19:27:23:157
4,083929	-7,562858	4,721768	2020-10-29T19:27:23:168
3,891254	-7,416903	5,100791	2020-10-29T19:27:23:168
3,919578	-7,111207	5,498912	2020-10-29T19:27:23:169
3,973069	-6,330952	6,348555	2020-10-29T19:27:23:170
3,919240	-5,868728	6,809403	2020-10-29T19:27:23:170
3,884859	-5,132628	7,398269	2020-10-29T19:27:23:171
3,811415	-4,574503	7,792139	2020-10-29T19:27:23:171
3,701705	-4,185709	8,059008	2020-10-29T19:27:23:172
3,541246	-3,556701	8,424953	2020-10-29T19:27:23:172
3,278676	-2,963962	8,754176	2020-10-29T19:27:23:172
2,906839	-2,929175	8,896101	2020-10-29T19:27:23:173
2,729683	-2,794697	8,994937	2020-10-29T19:27:23:178
2,509524	-2,823770	9,049807	2020-10-29T19:27:23:200
2,376365	-2,814662	9,088507	2020-10-29T19:27:23:217
2,280071	-2,791597	9,120233	2020-10-29T19:27:23:242
2,116416	-2,961074	9,106218	2020-10-29T19:27:23:268
1,999206	-2,995340	9,121486	2020-10-29T19:27:23:280
1,908719	-2,885498	9,176114	2020-10-29T19:27:23:298
1,806603	-2,857354	9,205547	2020-10-29T19:27:23:320
1,685656	-3,237455	9,102078	2020-10-29T19:27:23:340
1,587540	-3,198078	9,133587	2020-10-29T19:27:23:392
1,391484	-3,439988	9,077479	2020-10-29T19:27:23:393
1,120768	-3,778810	8,979692	2020-10-29T19:27:23:419
0,832086	-4,261649	8,792973	2020-10-29T19:27:23:423
0,305376	-7,260738	6,584741	2020-10-29T19:27:23:441
0,160296	8,172354	5,418240	2020-10-29T19:27:23:457
-0,067500	-0,538982	9,791595	2020-10-29T19:27:23:481
-0,205888	-1,143163	9,737617	2020-10-29T19:27:23:500
-0,265552	-1,141680	9,736346	2020-10-29T19:27:23:520
-0,343188	-1,050102	9,744224	2020-10-29T19:27:23:537
-0,149722	-0,363508	9,798767	2020-10-29T19:27:23:568
-0,168273	-0,357913	9,798672	2020-10-29T19:27:23:577
-0,174379	-0,346982	9,798958	2020-10-29T19:27:23:607
-0,200697	-0,373418	9,797482	2020-10-29T19:27:23:617
-0,247228	-0,467738	9,792369	2020-10-29T19:27:23:640
-0,290272	-0,594156	9,784329	2020-10-29T19:27:23:657
-0,336372	-0,762439	9,771178	2020-10-29T19:27:23:681
-0,434907	-1,106333	9,734335	2020-10-29T19:27:23:698
-0,585400	-1,801567	9,621957	2020-10-29T19:27:23:723
-0,623565	-1,965552	9,587396	2020-10-29T19:27:23:738
-0,679232	-2,232991	9,524851	2020-10-29T19:27:23:764
-0,663032	-2,422144	9,479662	2020-10-29T19:27:23:783
-0,634805	-2,487222	9,464731	2020-10-29T19:27:23:804
-0,611329	-2,481058	9,467894	2020-10-29T19:27:23:819
-0,552267	-2,423970	9,486293	2020-10-29T19:27:23:843
-0,504604	-2,310540	9,517203	2020-10-29T19:27:23:859
-0,450270	-2,161330	9,554910	2020-10-29T19:27:23:925
-0,375653	-1,983499	9,596614	2020-10-29T19:27:23:926
-0,309223	-1,760101	9,642448	2020-10-29T19:27:23:927
-0,253094	-1,523220	9,684324	2020-10-29T19:27:23:944
-0,219672	-1,264289	9,722330	2020-10-29T19:27:23:963
-0,198801	-1,030074	9,750375	2020-10-29T19:27:23:980
-0,180948	-0,864747	9,766773	2020-10-29T19:27:24:035
-0,150594	-0,728720	9,778378	2020-10-29T19:27:24:036
-0,099067	-0,574720	9,789293	2020-10-29T19:27:24:043
-0,020648	-0,401462	9,798408	2020-10-29T19:27:24:059
0,053285	-0,224836	9,803927	2020-10-29T19:27:24:094
0,115694	-0,080760	9,805634	2020-10-29T19:27:24:101
0,183948	0,045170	9,804821	2020-10-29T19:27:24:122
0,281984	0,220194	9,800121	2020-10-29T19:27:24:138
0,387404	0,382248	9,791536	2020-10-29T19:27:24:165
1,426616	1,590692	9,571042	2020-10-29T19:27:24:178
1,717464	2,060925	9,432566	2020-10-29T19:27:24:201
2,032264	2,575252	9,241665	2020-10-29T19:27:24:219
2,368745	3,118143	8,990918	2020-10-29T19:27:24:242
2,782504	3,992651	8,513918	2020-10-29T19:27:24:259
3,232286	5,091857	7,732768	2020-10-29T19:27:24:283
3,602056	6,292601	6,602935	2020-10-29T19:27:24:299
3,818966	7,428656	5,138186	2020-10-29T19:27:24:323
3,872321	8,288556	3,532046	2020-10-29T19:27:24:339
3,809119	8,852261	1,816170	2020-10-29T19:27:24:362
1,721776	4,235730	8,675509	2020-10-29T19:27:24:380
1,808413	-4,455009	8,547100	2020-10-29T19:27:24:403
2,102269	-4,308501	8,554979	2020-10-29T19:27:24:419
2,396954	-4,195761	8,533498	2020-10-29T19:27:24:442
2,679887	-4,133393	8,479602	2020-10-29T19:27:24:460
2,900957	-3,943145	8,497437	2020-10-29T19:27:24:484
3,108424	-3,847898	8,467690	2020-10-29T19:27:24:501
3,464248	-3,779654	8,359640	2020-10-29T19:27:24:527
3,576077	-3,748738	8,326405	2020-10-29T19:27:24:539
3,820020	-3,669942	8,252839	2020-10-29T19:27:24:564
3,970495	-3,650443	8,190228	2020-10-29T19:27:24:581
4,098194	-3,589178	8,154324	2020-10-29T19:27:24:602
4,217835	-3,548756	8,110893	2020-10-29T19:27:24:621
4,381857	-3,472472	8,056776	2020-10-29T19:27:24:644
4,550284	-3,414371	7,987952	2020-10-29T19:27:24:664
4,700496	-3,379761	7,915361	2020-10-29T19:27:24:683
4,865198	-3,375629	7,816992	2020-10-29T19:27:24:702
5,078489	-3,427227	7,657248	2020-10-29T19:27:24:723
5,317214	-3,542433	7,439676	2020-10-29T19:27:24:739
5,552583	-3,622095	7,226315	2020-10-29T19:27:24:767
5,768987	-3,665992	7,032046	2020-10-29T19:27:24:779
5,998505	-3,707123	6,815098	2020-10-29T19:27:24:894
6,213298	-3,597678	6,679973	2020-10-29T19:27:24:902
6,469175	-3,584571	6,439799	2020-10-29T19:27:24:930
6,670875	-3,676691	6,176711	2020-10-29T19:27:24:931
6,755903	-3,605129	6,126272	2020-10-29T19:27:24:932
6,805788	-3,604696	6,071063	2020-10-29T19:27:24:933
6,846045	-3,595577	6,031076	2020-10-29T19:27:24:933
6,891509	-3,477331	6,048608	2020-10-29T19:27:25:015
7,063567	-3,338906	5,926897	2020-10-29T19:27:25:015
7,273641	-3,233016	5,728188	2020-10-29T19:27:25:017
7,447700	-3,245587	5,492569	2020-10-29T19:27:25:018
7,616926	-3,234234	5,262371	2020-10-29T19:27:25:023
7,786808	-3,294418	4,968179	2020-10-29T19:27:25:042
8,025535	-3,357086	4,526715	2020-10-29T19:27:25:059
8,248531	-3,394524	4,075453	2020-10-29T19:27:25:082
8,444118	-3,414767	3,634092	2020-10-29T19:27:25:099
8,568502	-3,416509	3,328456	2020-10-29T19:27:25:130
8,581706	-3,409781	3,301227	2020-10-29T19:27:25:181
8,628497	-3,366551	3,222693	2020-10-29T19:27:25:182
8,745238	-3,281690	2,986923	2020-10-29T19:27:25:186
9,004687	-3,074057	2,374062	2020-10-29T19:27:25:206
9,085668	-2,977300	2,180987	2020-10-29T19:27:25:221
5,971810	-6,563756	4,174325	2020-10-29T19:27:25:242
6,183858	-6,471472	4,006286	2020-10-29T19:27:25:258
6,486216	-6,375493	3,667763	2020-10-29T19:27:25:284
6,771540	-6,267290	3,322305	2020-10-29T19:27:25:300
7,158808	-6,081494	2,817318	2020-10-29T19:27:25:324
7,276143	-6,003229	2,681299	2020-10-29T19:27:25:340
7,539001	-5,782250	2,428877	2020-10-29T19:27:25:365
7,794375	-5,522547	2,218013	2020-10-29T19:27:25:390
8,185082	-5,053216	1,907830	2020-10-29T19:27:25:404
8,299896	-4,903558	1,799229	2020-10-29T19:27:25:428
8,487076	-4,668429	1,531564	2020-10-29T19:27:25:472
8,657076	-4,442625	1,220041	2020-10-29T19:27:25:475
8,886743	-4,072548	0,781374	2020-10-29T19:27:25:487
9,089553	-3,669369	0,293500	2020-10-29T19:27:25:512
9,160542	-3,500138	-0,062373	2020-10-29T19:27:25:525
9,171143	-3,458297	-0,317362	2020-10-29T19:27:25:540
9,169989	-3,431147	-0,555815	2020-10-29T19:27:25:562
9,124389	-3,519771	-0,726031	2020-10-29T19:27:25:580
9,018605	-3,757729	-0,845345	2020-10-29T19:27:25:605
8,846016	-4,133359	-0,913086	2020-10-29T19:27:25:620
8,624553	-4,559257	-1,000329	2020-10-29T19:27:25:644
8,412610	-4,916244	-1,108564	2020-10-29T19:27:25:662
8,297806	-5,084702	-1,209379	2020-10-29T19:27:25:684
8,248700	-5,143011	-1,295671	2020-10-29T19:27:25:700
8,241989	-5,141463	-1,343631	2020-10-29T19:27:25:725
8,261160	-5,106285	-1,359957	2020-10-29T19:27:25:742
8,297907	-5,049276	-1,349048	2020-10-29T19:27:25:765
8,350759	-4,965595	-1,333447	2020-10-29T19:27:25:783
8,409183	-4,862547	-1,345984	2020-10-29T19:27:25:817
8,056349	-5,504707	-0,981748	2020-10-29T19:27:29:104
7,705208	-6,033484	-0,630257	2020-10-29T19:27:29:107
7,185073	-6,673419	-0,102926	2020-10-29T19:27:29:118
7,014430	-6,853099	0,056519	2020-10-29T19:27:29:465
6,724770	-7,130160	0,329665	2020-10-29T19:27:29:466
6,598602	-7,233643	0,550680	2020-10-29T19:27:29:467
6,648767	-7,171733	0,728367	2020-10-29T19:27:29:467
6,787203	-7,022988	0,884249	2020-10-29T19:27:29:468
6,888733	-6,905509	1,014732	2020-10-29T19:27:29:469
6,891116	-6,888281	1,111074	2020-10-29T19:27:29:471
6,893724	-6,869483	1,207130	2020-10-29T19:27:29:471
6,841784	-6,901113	1,317196	2020-10-29T19:27:29:471
6,699918	-6,995486	1,531227	2020-10-29T19:27:29:472
6,671704	-7,003641	1,614856	2020-10-29T19:27:29:472
6,709068	-6,929303	1,773004	2020-10-29T19:27:29:473
6,800572	-6,806106	1,897241	2020-10-29T19:27:29:473
7,038735	-6,513087	2,050923	2020-10-29T19:27:29:538
9,374192	-2,707195	0,982856	2020-10-29T19:27:29:539
9,113181	-3,326739	1,432871	2020-10-29T19:27:29:539
8,805007	-3,892790	1,867733	2020-10-29T19:27:29:549
8,469055	-4,378363	2,296832	2020-10-29T19:27:29:551
8,251060	-4,669178	2,507822	2020-10-29T19:27:29:553
7,834671	-5,135746	2,900419	2020-10-29T19:27:29:556
7,424551	-5,492237	3,298750	2020-10-29T19:27:29:557
7,272784	-5,487854	3,627734	2020-10-29T19:27:29:559
7,136068	-5,447904	3,945536	2020-10-29T19:27:29:590
7,013432	-5,390422	4,233852	2020-10-29T19:27:29:597
6,925335	-5,354801	4,419981	2020-10-29T19:27:29:644
6,856948	-5,197982	4,704639	2020-10-29T19:27:29:647
6,775993	-5,149597	4,872161	2020-10-29T19:27:29:657
