x	y	z	ts
0,490000	1,330000	1,050000	2020-10-29T19:26:04:261
0,490000	1,330000	1,050000	2020-10-29T19:26:04:261
-1,400000	-36,330002	-23,590000	2020-10-29T19:26:04:312
-2,100000	-2,380000	-37,029999	2020-10-29T19:26:04:317
-2,100000	-2,380000	-37,029999	2020-10-29T19:26:04:319
-2,100000	-2,380000	-37,029999	2020-10-29T19:26:04:321
-1,610000	-3,360000	-38,779999	2020-10-29T19:26:04:324
-3,150000	-3,360000	-37,240002	2020-10-29T19:26:04:345
-9,870000	-2,380000	-38,290001	2020-10-29T19:26:04:364
-17,150000	-5,460000	-36,680000	2020-10-29T19:26:04:385
-17,290001	-7,420000	-38,709999	2020-10-29T19:26:04:404
-16,030001	-8,610000	-39,270000	2020-10-29T19:26:04:424
-14,000000	-9,660000	-41,020000	2020-10-29T19:26:04:445
-8,470000	-11,060000	-43,400002	2020-10-29T19:26:04:465
1,190000	-9,520000	-44,450001	2020-10-29T19:26:04:484
4,480000	-7,560000	-44,099998	2020-10-29T19:26:04:505
1,750000	-6,090000	-44,099998	2020-10-29T19:26:04:524
-5,040000	-6,230000	-43,049999	2020-10-29T19:26:04:547
-13,230000	-4,060000	-41,090000	2020-10-29T19:26:04:564
-21,000000	-2,100000	-39,340000	2020-10-29T19:26:04:585
-23,520000	0,980000	-38,220001	2020-10-29T19:26:04:604
-23,940001	3,780000	-36,680000	2020-10-29T19:26:04:625
-26,740000	4,410000	-35,560001	2020-10-29T19:26:04:645
-33,880001	3,710000	-35,279999	2020-10-29T19:26:04:665
-44,939999	1,120000	-36,049999	2020-10-29T19:26:04:685
-58,799999	-2,170000	-38,150002	2020-10-29T19:26:04:707
-75,040001	-5,880000	-42,279999	2020-10-29T19:26:04:725
-93,940002	-10,430000	-49,279999	2020-10-29T19:26:04:747
-111,510002	-16,170000	-58,520000	2020-10-29T19:26:04:765
-121,379997	-22,120001	-68,599998	2020-10-29T19:26:04:786
-123,129997	-26,530001	-79,309998	2020-10-29T19:26:04:805
-121,730003	-29,400000	-90,720001	2020-10-29T19:26:04:826
-115,709999	-32,689999	-100,590004	2020-10-29T19:26:04:845
-107,029999	-32,900002	-108,430000	2020-10-29T19:26:04:867
-99,400002	-27,860001	-113,540001	2020-10-29T19:26:04:885
-92,820000	-18,549999	-116,620003	2020-10-29T19:26:04:906
-90,860001	-11,970000	-117,809998	2020-10-29T19:26:04:924
-100,660004	-11,970000	-116,970001	2020-10-29T19:26:04:947
-119,699997	-16,799999	-115,360001	2020-10-29T19:26:04:964
-139,160004	-22,540001	-114,590004	2020-10-29T19:26:04:986
-160,300003	-30,380001	-114,520004	2020-10-29T19:26:05:005
-188,089996	-39,130001	-117,529999	2020-10-29T19:26:05:026
-202,160004	-44,029999	-120,820000	2020-10-29T19:26:05:045
-211,960007	-48,860001	-123,129997	2020-10-29T19:26:05:067
-223,860001	-57,049999	-122,010002	2020-10-29T19:26:05:084
-248,080002	-59,360001	-118,160004	2020-10-29T19:26:05:106
-279,510010	-55,369999	-110,599998	2020-10-29T19:26:05:125
-304,429993	-48,299999	-103,110001	2020-10-29T19:26:05:146
-338,589996	-45,080002	-89,879997	2020-10-29T19:26:05:165
-373,309998	-37,730000	-79,449997	2020-10-29T19:26:05:186
-390,880005	-26,460001	-69,860001	2020-10-29T19:26:05:332
-372,119995	-12,740000	-67,129997	2020-10-29T19:26:05:334
-330,190002	-1,330000	-65,379997	2020-10-29T19:26:05:335
-277,130005	11,480000	-66,010002	2020-10-29T19:26:05:336
-222,460007	23,379999	-67,199997	2020-10-29T19:26:05:336
-171,990005	31,010000	-67,830002	2020-10-29T19:26:05:337
-134,399994	34,020000	-66,989998	2020-10-29T19:26:05:337
-108,150002	35,630001	-67,480003	2020-10-29T19:26:05:353
-90,510002	36,959999	-67,129997	2020-10-29T19:26:05:369
-80,500000	35,910000	-65,660004	2020-10-29T19:26:05:387
-67,760002	35,490002	-65,239998	2020-10-29T19:26:05:405
-52,220001	35,279999	-65,660004	2020-10-29T19:26:05:428
-37,380001	33,180000	-65,379997	2020-10-29T19:26:05:445
-21,350000	30,100000	-64,260002	2020-10-29T19:26:05:467
-1,190000	27,160000	-62,930000	2020-10-29T19:26:05:485
21,000000	23,379999	-61,670002	2020-10-29T19:26:05:509
44,450001	19,460001	-61,250000	2020-10-29T19:26:05:524
70,279999	17,639999	-60,480000	2020-10-29T19:26:05:548
94,989998	14,210000	-58,660000	2020-10-29T19:26:05:565
113,959999	9,170000	-55,020000	2020-10-29T19:26:05:587
125,230003	2,660000	-53,340000	2020-10-29T19:26:05:605
126,559998	-3,150000	-52,080002	2020-10-29T19:26:05:628
119,279999	-2,450000	-49,770000	2020-10-29T19:26:05:645
105,769997	2,310000	-45,709999	2020-10-29T19:26:05:668
87,849998	1,750000	-42,209999	2020-10-29T19:26:05:685
65,309998	-3,990000	-39,130001	2020-10-29T19:26:05:707
42,000000	-7,140000	-35,490002	2020-10-29T19:26:05:726
24,710001	-4,340000	-30,520000	2020-10-29T19:26:05:748
14,630000	3,150000	-22,750000	2020-10-29T19:26:05:774
8,190000	11,690000	-12,600000	2020-10-29T19:26:05:789
3,430000	14,910000	-1,610000	2020-10-29T19:26:05:805
-0,770000	15,680000	12,390000	2020-10-29T19:26:05:828
-6,790000	14,280000	24,219999	2020-10-29T19:26:05:849
-9,730000	11,340000	32,830002	2020-10-29T19:26:05:868
-12,250000	8,680000	37,660000	2020-10-29T19:26:05:885
-13,580000	9,380000	39,900002	2020-10-29T19:26:05:911
-13,790000	11,550000	37,799999	2020-10-29T19:26:05:927
-14,910000	17,780001	34,860001	2020-10-29T19:26:05:950
-17,639999	25,129999	31,639999	2020-10-29T19:26:05:976
-22,750000	29,750000	28,070000	2020-10-29T19:26:05:999
-31,150000	31,639999	25,340000	2020-10-29T19:26:06:013
-41,930000	31,360001	24,850000	2020-10-29T19:26:06:029
-53,060001	28,700001	23,940001	2020-10-29T19:26:06:047
-62,510002	23,520000	21,490000	2020-10-29T19:26:06:070
-70,279999	19,389999	16,170000	2020-10-29T19:26:06:088
-75,459999	16,450001	3,430000	2020-10-29T19:26:06:109
-74,550003	14,980000	-7,280000	2020-10-29T19:26:06:127
-69,930000	16,030001	-17,639999	2020-10-29T19:26:06:161
-18,620001	31,990000	-23,379999	2020-10-29T19:26:12:112
-21,070000	18,690001	-11,900000	2020-10-29T19:26:12:114
-23,660000	10,710000	-0,700000	2020-10-29T19:26:12:145
-10,080000	18,480000	7,770000	2020-10-29T19:26:12:148
13,510000	27,790001	11,900000	2020-10-29T19:26:12:171
44,520000	23,240000	9,240000	2020-10-29T19:26:12:183
84,000000	10,500000	6,160000	2020-10-29T19:26:12:206
124,110001	7,070000	8,960000	2020-10-29T19:26:12:224
146,789993	21,980000	18,410000	2020-10-29T19:26:12:250
147,279999	36,889999	30,660000	2020-10-29T19:26:12:266
124,250000	45,500000	38,990002	2020-10-29T19:26:12:287
80,220001	49,560001	43,610001	2020-10-29T19:26:12:304
28,980000	49,980000	45,220001	2020-10-29T19:26:12:327
-7,350000	46,619999	42,770000	2020-10-29T19:26:12:344
-24,500000	42,279999	36,820000	2020-10-29T19:26:12:368
-28,490000	38,639999	30,940001	2020-10-29T19:26:12:384
-15,400000	43,470001	28,700001	2020-10-29T19:26:12:410
-7,490000	47,180000	32,970001	2020-10-29T19:26:12:424
-8,050000	41,369999	40,529999	2020-10-29T19:26:12:448
-15,120000	31,080000	53,130001	2020-10-29T19:26:12:464
-27,230000	22,260000	67,760002	2020-10-29T19:26:12:488
-31,010000	7,490000	80,919998	2020-10-29T19:26:12:505
-21,840000	-13,790000	86,940002	2020-10-29T19:26:12:528
-3,150000	-40,670002	85,540001	2020-10-29T19:26:12:544
30,170000	-58,869999	79,309998	2020-10-29T19:26:12:569
85,540001	-77,419998	64,680000	2020-10-29T19:26:12:584
154,559998	-97,930000	44,799999	2020-10-29T19:26:12:607
212,800003	-105,980003	27,370001	2020-10-29T19:26:12:625
240,729996	-103,110001	16,030001	2020-10-29T19:26:12:650
237,720001	-99,959999	7,980000	2020-10-29T19:26:12:664
223,649994	-100,519997	-1,610000	2020-10-29T19:26:12:688
211,470001	-100,519997	-9,380000	2020-10-29T19:26:12:704
206,639999	-100,029999	-13,650000	2020-10-29T19:26:12:728
209,580002	-96,949997	-13,510000	2020-10-29T19:26:12:744
215,320007	-92,260002	-10,640000	2020-10-29T19:26:12:768
220,500000	-91,910004	-6,930000	2020-10-29T19:26:12:784
228,690002	-86,940002	-1,610000	2020-10-29T19:26:12:809
231,559998	-76,440002	8,400000	2020-10-29T19:26:12:825
223,020004	-67,690002	21,350000	2020-10-29T19:26:12:848
206,360001	-61,810001	37,520000	2020-10-29T19:26:12:865
186,339996	-56,420002	53,549999	2020-10-29T19:26:12:890
169,820007	-58,590000	64,400002	2020-10-29T19:26:12:904
162,750000	-72,660004	63,490002	2020-10-29T19:26:12:928
162,119995	-88,550003	50,470001	2020-10-29T19:26:12:945
166,250000	-99,400002	28,280001	2020-10-29T19:26:12:969
168,490005	-94,360001	28,280001	2020-10-29T19:26:12:985
166,039993	-61,529999	-16,309999	2020-10-29T19:26:13:008
162,050003	-51,590000	-25,830000	2020-10-29T19:26:13:025
161,350006	-66,430000	-30,870001	2020-10-29T19:26:13:050
155,889999	-62,720001	-23,799999	2020-10-29T19:26:13:066
145,320007	-52,500000	-5,600000	2020-10-29T19:26:13:089
136,220001	-47,810001	10,710000	2020-10-29T19:26:13:105
126,840004	-42,630001	27,860001	2020-10-29T19:26:13:130
120,400002	-37,450001	44,099998	2020-10-29T19:26:13:144
114,029999	-33,670002	57,260002	2020-10-29T19:26:13:169
108,220001	-31,639999	63,000000	2020-10-29T19:26:13:185
98,910004	-29,469999	62,230000	2020-10-29T19:26:13:209
88,410004	-26,320000	58,730000	2020-10-29T19:26:13:225
80,150002	-26,389999	53,970001	2020-10-29T19:26:13:248
87,570000	-27,719999	47,880001	2020-10-29T19:26:13:265
106,610001	-28,350000	38,709999	2020-10-29T19:26:13:289
125,300003	-28,910000	30,799999	2020-10-29T19:26:13:305
140,490005	-26,320000	26,809999	2020-10-29T19:26:13:328
157,639999	-22,820000	23,240000	2020-10-29T19:26:13:345
165,270004	-22,889999	19,320000	2020-10-29T19:26:13:370
155,820007	-21,910000	18,760000	2020-10-29T19:26:13:385
134,470001	-17,360001	19,809999	2020-10-29T19:26:13:408
120,470001	-11,690000	18,760000	2020-10-29T19:26:13:426
113,610001	-1,470000	15,960000	2020-10-29T19:26:13:448
102,830002	7,490000	14,840000	2020-10-29T19:26:13:465
103,809998	21,629999	12,110000	2020-10-29T19:26:13:488
106,400002	30,799999	9,310000	2020-10-29T19:26:13:505
97,720001	38,360001	10,640000	2020-10-29T19:26:13:530
84,910004	48,020000	11,340000	2020-10-29T19:26:13:546
73,570000	59,570000	13,510000	2020-10-29T19:26:13:568
45,360001	62,090000	22,049999	2020-10-29T19:26:13:585
57,820000	81,690002	35,349998	2020-10-29T19:26:13:610
111,160004	134,330002	36,330002	2020-10-29T19:26:13:627
99,750000	157,639999	43,889999	2020-10-29T19:26:13:649
62,790001	142,660004	52,920002	2020-10-29T19:26:13:666
55,860001	127,820000	56,840000	2020-10-29T19:26:13:689
72,870003	127,190002	53,760002	2020-10-29T19:26:13:706
93,449997	130,970001	56,700001	2020-10-29T19:26:13:729
123,059998	135,660004	55,510002	2020-10-29T19:26:13:747
141,750000	149,589996	44,590000	2020-10-29T19:26:13:770
116,760002	160,930008	39,410000	2020-10-29T19:26:13:786
73,919998	147,910004	33,740002	2020-10-29T19:26:13:808
36,959999	124,669998	20,160000	2020-10-29T19:26:13:827
-13,860000	101,570000	-1,190000	2020-10-29T19:26:13:850
-78,680000	116,690002	6,230000	2020-10-29T19:26:13:867
-47,740002	172,759995	-7,280000	2020-10-29T19:26:13:889
-23,100000	137,130005	-23,100000	2020-10-29T19:26:13:907
16,379999	169,750000	-17,430000	2020-10-29T19:26:13:930
10,290000	173,949997	-26,670000	2020-10-29T19:26:13:947
-19,040001	136,919998	-49,139999	2020-10-29T19:26:13:970
-111,580002	51,029999	-47,250000	2020-10-29T19:26:13:987
-130,059998	19,600000	-31,219999	2020-10-29T19:26:14:010
-103,529999	6,790000	-15,680000	2020-10-29T19:26:14:026
-46,759998	-12,670000	-9,450000	2020-10-29T19:26:14:049
28,910000	-38,080002	-11,550000	2020-10-29T19:26:14:067
90,300003	-44,660000	-20,510000	2020-10-29T19:26:14:092
102,690002	-46,270000	-21,559999	2020-10-29T19:26:14:106
77,419998	-48,439999	-2,310000	2020-10-29T19:26:14:130
82,250000	-37,380001	9,870000	2020-10-29T19:26:14:146
116,970001	-34,299999	3,780000	2020-10-29T19:26:14:170
126,980003	-32,549999	2,520000	2020-10-29T19:26:14:187
133,979996	-24,360001	-3,570000	2020-10-29T19:26:14:209
119,980003	-14,980000	-11,410000	2020-10-29T19:26:14:234
71,540001	-4,200000	-18,969999	2020-10-29T19:26:14:255
20,930000	4,410000	-25,129999	2020-10-29T19:26:14:371
-20,230000	10,360000	-25,129999	2020-10-29T19:26:14:376
-48,299999	15,820000	-22,960001	2020-10-29T19:26:14:376
-47,250000	17,219999	-17,570000	2020-10-29T19:26:14:376
-19,040001	21,139999	-5,390000	2020-10-29T19:26:14:417
1,540000	25,340000	8,470000	2020-10-29T19:26:14:471
1,680000	26,670000	11,200000	2020-10-29T19:26:14:472
0,630000	23,170000	13,370000	2020-10-29T19:26:14:481
-1,820000	15,890000	15,050000	2020-10-29T19:26:14:482
-3,220000	5,740000	11,550000	2020-10-29T19:26:14:482
-5,250000	-4,200000	9,170000	2020-10-29T19:26:14:483
-3,780000	-7,280000	8,120000	2020-10-29T19:26:14:488
-6,720000	-9,660000	7,210000	2020-10-29T19:26:14:508
-9,590000	-13,930000	7,210000	2020-10-29T19:26:14:540
-5,600000	-13,090000	5,880000	2020-10-29T19:26:14:551
-10,500000	-12,250000	4,620000	2020-10-29T19:26:14:570
-17,780001	-8,820000	4,620000	2020-10-29T19:26:14:586
-23,309999	-5,740000	5,110000	2020-10-29T19:26:14:610
-21,490000	-3,290000	5,180000	2020-10-29T19:26:14:629
-16,170000	-0,630000	4,830000	2020-10-29T19:26:14:654
-11,270000	1,190000	4,200000	2020-10-29T19:26:14:664
-8,540000	2,870000	3,500000	2020-10-29T19:26:14:687
-8,260000	4,130000	3,010000	2020-10-29T19:26:14:705
-8,190000	6,090000	2,940000	2020-10-29T19:26:14:729
-6,090000	8,190000	3,360000	2020-10-29T19:26:14:745
-4,130000	10,150000	3,710000	2020-10-29T19:26:14:768
-1,120000	10,570000	3,780000	2020-10-29T19:26:14:787
-0,560000	8,820000	2,240000	2020-10-29T19:26:14:812
-3,360000	6,860000	1,330000	2020-10-29T19:26:14:826
-4,830000	4,060000	0,980000	2020-10-29T19:26:14:850
-5,460000	2,730000	1,470000	2020-10-29T19:26:14:867
-3,640000	1,330000	2,030000	2020-10-29T19:26:14:891
-1,050000	-0,280000	2,800000	2020-10-29T19:26:14:907
-0,630000	-0,280000	3,290000	2020-10-29T19:26:14:930
0,420000	0,560000	3,570000	2020-10-29T19:26:14:946
1,190000	1,680000	3,570000	2020-10-29T19:26:14:971
-1,330000	2,380000	3,920000	2020-10-29T19:26:14:987
-3,360000	2,870000	4,270000	2020-10-29T19:26:15:010
-4,130000	3,500000	5,180000	2020-10-29T19:26:15:027
-6,230000	7,000000	7,280000	2020-10-29T19:26:15:052
-5,950000	10,850000	10,500000	2020-10-29T19:26:15:067
-6,300000	11,550000	13,860000	2020-10-29T19:26:15:090
-8,050000	14,140000	20,230000	2020-10-29T19:26:15:107
-14,420000	17,780001	25,900000	2020-10-29T19:26:15:131
-21,490000	21,700001	33,320000	2020-10-29T19:26:15:149
-19,180000	25,480000	41,860001	2020-10-29T19:26:15:170
-19,530001	28,700001	49,910000	2020-10-29T19:26:15:187
-16,379999	29,889999	59,220001	2020-10-29T19:26:15:211
-14,910000	23,940001	66,360001	2020-10-29T19:26:15:227
-9,380000	14,070000	66,639999	2020-10-29T19:26:15:254
-9,030000	6,510000	70,489998	2020-10-29T19:26:15:267
-16,379999	1,610000	77,559998	2020-10-29T19:26:15:292
-24,500000	-3,640000	78,190002	2020-10-29T19:26:15:307
-23,309999	-6,020000	74,830002	2020-10-29T19:26:15:330
-25,690001	-11,970000	72,590004	2020-10-29T19:26:15:347
-31,290001	-22,889999	69,930000	2020-10-29T19:26:15:372
-45,009998	-37,170002	72,029999	2020-10-29T19:26:15:391
-75,949997	-55,230000	71,820000	2020-10-29T19:26:15:411
-98,769997	-66,290001	60,970001	2020-10-29T19:26:15:430
-99,889999	-65,239998	49,560001	2020-10-29T19:26:15:452
-93,940002	-62,090000	36,470001	2020-10-29T19:26:15:472
-86,449997	-60,760002	29,540001	2020-10-29T19:26:15:490
-98,139999	-61,389999	25,270000	2020-10-29T19:26:15:508
-114,730003	-66,220001	17,290001	2020-10-29T19:26:15:533
-110,529999	-65,449997	8,330000	2020-10-29T19:26:15:548
-121,099998	-66,500000	-7,490000	2020-10-29T19:26:15:571
-107,379997	-75,599998	-34,160000	2020-10-29T19:26:15:588
-122,290001	-83,440002	-64,190002	2020-10-29T19:26:15:612
-152,949997	-95,620003	-76,090004	2020-10-29T19:26:15:628
-125,160004	-103,809998	-83,300003	2020-10-29T19:26:15:651
-29,889999	-111,160004	-103,040001	2020-10-29T19:26:15:668
4,550000	-120,190002	-112,209999	2020-10-29T19:26:15:691
16,520000	-132,089996	-119,770004	2020-10-29T19:26:15:712
27,930000	-138,740005	-125,720001	2020-10-29T19:26:15:798
39,759998	-136,850006	-129,149994	2020-10-29T19:26:15:800
47,950001	-137,830002	-136,009995	2020-10-29T19:26:15:801
63,000000	-143,289993	-144,199997	2020-10-29T19:26:15:801
52,220001	-144,550003	-152,250000	2020-10-29T19:26:15:847
-5,180000	-149,449997	-138,180008	2020-10-29T19:26:15:848
-74,480003	-146,930008	-120,330002	2020-10-29T19:26:15:851
-100,449997	-125,580002	-112,279999	2020-10-29T19:26:15:931
-109,480003	-102,059998	-104,930000	2020-10-29T19:26:15:932
-96,250000	-83,160004	-94,220001	2020-10-29T19:26:15:932
-67,480003	-62,720001	-80,989998	2020-10-29T19:26:15:933
-43,820000	-48,720001	-71,190002	2020-10-29T19:26:15:946
-29,820000	-37,939999	-63,420002	2020-10-29T19:26:15:969
-31,219999	-31,500000	-61,459999	2020-10-29T19:26:15:986
-36,330002	-34,439999	-61,180000	2020-10-29T19:26:16:013
-39,060001	-38,080002	-68,459999	2020-10-29T19:26:16:056
-33,810001	-40,040001	-80,919998	2020-10-29T19:26:16:062
-44,240002	-43,750000	-87,010002	2020-10-29T19:26:16:068
-60,760002	-50,400002	-93,800003	2020-10-29T19:26:16:092
-83,230003	-55,299999	-99,050003	2020-10-29T19:26:16:108
-108,849998	-45,150002	-99,820000	2020-10-29T19:26:16:134
-132,020004	-21,420000	-95,340004	2020-10-29T19:26:16:148
-146,160004	3,220000	-87,150002	2020-10-29T19:26:16:171
-141,259995	18,620001	-78,889999	2020-10-29T19:26:16:192
-120,050003	26,040001	-68,809998	2020-10-29T19:26:16:211
-83,650002	28,280001	-57,330002	2020-10-29T19:26:16:228
-36,119999	29,680000	-46,410000	2020-10-29T19:26:16:253
14,910000	30,799999	-37,450001	2020-10-29T19:26:16:268
57,750000	26,600000	-31,710001	2020-10-29T19:26:16:292
84,279999	14,840000	-29,260000	2020-10-29T19:26:16:321
99,050003	7,980000	-27,299999	2020-10-29T19:26:16:333
111,580002	14,980000	-23,940001	2020-10-29T19:26:16:354
119,489998	22,190001	-20,370001	2020-10-29T19:26:16:411
117,529999	16,799999	-16,100000	2020-10-29T19:26:16:419
109,480003	4,340000	-10,850000	2020-10-29T19:26:16:420
97,510002	0,280000	-4,410000	2020-10-29T19:26:16:429
82,599998	-0,140000	2,380000	2020-10-29T19:26:16:451
70,000000	-3,360000	8,190000	2020-10-29T19:26:16:468
63,279999	-3,780000	15,050000	2020-10-29T19:26:16:493
66,150002	-1,960000	23,450001	2020-10-29T19:26:16:515
76,790001	-1,470000	31,990000	2020-10-29T19:26:16:538
87,709999	3,500000	42,209999	2020-10-29T19:26:16:547
92,190002	10,850000	53,200001	2020-10-29T19:26:16:570
89,459999	12,390000	62,299999	2020-10-29T19:26:16:588
79,169998	16,940001	69,930000	2020-10-29T19:26:16:613
62,090000	22,680000	77,070000	2020-10-29T19:26:16:630
42,770000	21,280001	81,970001	2020-10-29T19:26:16:662
24,920000	23,030001	87,010002	2020-10-29T19:26:16:670
12,320000	26,460001	91,349998	2020-10-29T19:26:16:706
6,930000	20,580000	91,349998	2020-10-29T19:26:16:710
5,250000	11,830000	89,389999	2020-10-29T19:26:16:749
11,690000	9,100000	85,470001	2020-10-29T19:26:16:752
19,530001	4,410000	79,730003	2020-10-29T19:26:16:775
27,440001	-1,120000	72,309998	2020-10-29T19:26:16:788
36,400002	-7,000000	61,880001	2020-10-29T19:26:16:811
42,910000	-2,450000	50,889999	2020-10-29T19:26:16:829
40,389999	10,710000	40,740002	2020-10-29T19:26:16:851
41,020000	14,560000	25,900000	2020-10-29T19:26:16:869
38,849998	8,470000	10,990000	2020-10-29T19:26:16:892
27,860001	8,330000	2,100000	2020-10-29T19:26:16:909
25,410000	10,290000	-3,360000	2020-10-29T19:26:16:931
31,850000	10,150000	-6,720000	2020-10-29T19:26:16:949
38,080002	10,850000	-7,070000	2020-10-29T19:26:16:974
39,340000	10,990000	-5,530000	2020-10-29T19:26:16:988
25,270000	11,970000	-1,890000	2020-10-29T19:26:17:012
-5,110000	10,710000	1,960000	2020-10-29T19:26:17:029
-35,420002	5,390000	2,590000	2020-10-29T19:26:17:051
-43,400002	2,030000	-1,400000	2020-10-29T19:26:17:069
-21,559999	0,490000	-5,040000	2020-10-29T19:26:17:091
18,200001	2,380000	-5,740000	2020-10-29T19:26:17:109
53,830002	2,240000	-2,520000	2020-10-29T19:26:17:133
72,590004	0,140000	5,390000	2020-10-29T19:26:17:150
71,750000	0,560000	15,260000	2020-10-29T19:26:17:172
52,220001	5,740000	27,790001	2020-10-29T19:26:17:189
28,490000	13,440001	42,349998	2020-10-29T19:26:17:214
26,040001	17,150000	52,080002	2020-10-29T19:26:17:229
29,049999	16,100000	55,230000	2020-10-29T19:26:17:252
17,080000	10,220000	57,540001	2020-10-29T19:26:17:269
0,420000	3,990000	56,840000	2020-10-29T19:26:17:293
-7,420000	-6,090000	56,000000	2020-10-29T19:26:17:309
-7,000000	-12,810000	51,520000	2020-10-29T19:26:17:333
-5,180000	-17,500000	49,490002	2020-10-29T19:26:17:349
1,610000	-21,980000	47,389999	2020-10-29T19:26:17:373
7,560000	-24,780001	44,310001	2020-10-29T19:26:17:389
13,090000	-25,410000	41,230000	2020-10-29T19:26:17:412
17,780001	-23,379999	36,330002	2020-10-29T19:26:17:429
15,120000	-20,650000	31,500000	2020-10-29T19:26:17:454
1,680000	-15,470000	28,910000	2020-10-29T19:26:17:469
-17,639999	-12,250000	25,059999	2020-10-29T19:26:17:493
-34,369999	-20,790001	14,770000	2020-10-29T19:26:17:510
-48,720001	-24,219999	5,600000	2020-10-29T19:26:17:534
-57,750000	-16,030001	-1,750000	2020-10-29T19:26:17:549
-53,689999	-8,400000	-10,920000	2020-10-29T19:26:17:573
-35,000000	-2,730000	-19,250000	2020-10-29T19:26:17:590
-3,360000	9,940000	-24,010000	2020-10-29T19:26:17:614
35,630001	27,090000	-26,530001	2020-10-29T19:26:17:630
61,599998	40,110001	-28,910000	2020-10-29T19:26:17:653
61,389999	42,279999	-31,710001	2020-10-29T19:26:17:670
40,529999	42,349998	-35,070000	2020-10-29T19:26:17:727
10,010000	46,340000	-39,759998	2020-10-29T19:26:17:728
-15,750000	52,220001	-41,650002	2020-10-29T19:26:17:733
-34,509998	57,610001	-42,840000	2020-10-29T19:26:17:749
-54,670002	59,500000	-43,820000	2020-10-29T19:26:17:773
-73,080002	58,869999	-42,209999	2020-10-29T19:26:17:788
-81,620003	59,360001	-37,869999	2020-10-29T19:26:17:812
-81,269997	55,160000	-31,639999	2020-10-29T19:26:17:833
-77,769997	47,110001	-28,910000	2020-10-29T19:26:17:854
-71,959999	35,349998	-27,020000	2020-10-29T19:26:17:870
-63,349998	24,430000	-27,580000	2020-10-29T19:26:17:894
-55,650002	15,680000	-30,030001	2020-10-29T19:26:17:909
-48,439999	9,870000	-35,139999	2020-10-29T19:26:17:935
-41,160000	6,090000	-42,349998	2020-10-29T19:26:17:950
-32,900002	2,030000	-51,869999	2020-10-29T19:26:17:973
-24,150000	-0,280000	-62,650002	2020-10-29T19:26:17:990
-20,090000	0,630000	-72,239998	2020-10-29T19:26:18:014
-20,719999	3,500000	-80,290001	2020-10-29T19:26:18:030
-21,210001	5,810000	-86,940002	2020-10-29T19:26:18:054
-20,930000	7,770000	-90,510002	2020-10-29T19:26:18:070
-19,740000	6,440000	-91,209999	2020-10-29T19:26:18:094
-21,559999	1,750000	-89,180000	2020-10-29T19:26:18:110
-28,910000	-4,480000	-86,449997	2020-10-29T19:26:18:135
-40,250000	-10,010000	-83,300003	2020-10-29T19:26:18:160
0,700000	-0,630000	-63,700001	2020-10-29T19:26:27:124
-2,870000	-3,150000	-50,959999	2020-10-29T19:26:27:127
-9,450000	5,460000	-37,380001	2020-10-29T19:26:27:130
-27,090000	10,570000	-25,969999	2020-10-29T19:26:27:147
-51,660000	9,870000	-19,040001	2020-10-29T19:26:27:171
-79,940002	9,590000	-14,140000	2020-10-29T19:26:27:178
-107,449997	10,290000	-11,830000	2020-10-29T19:26:27:202
-130,690002	16,590000	-10,150000	2020-10-29T19:26:27:218
-143,990005	16,590000	-11,970000	2020-10-29T19:26:27:241
-145,320007	8,470000	-16,870001	2020-10-29T19:26:27:260
-134,820007	-2,660000	-23,450001	2020-10-29T19:26:27:285
-112,840004	-10,010000	-29,469999	2020-10-29T19:26:27:299
-82,529999	-16,379999	-35,209999	2020-10-29T19:26:27:323
-49,490002	-24,710001	-40,250000	2020-10-29T19:26:27:338
-19,600000	-32,480000	-43,610001	2020-10-29T19:26:27:362
-2,940000	-33,670002	-43,820000	2020-10-29T19:26:27:379
4,130000	-32,759998	-42,279999	2020-10-29T19:26:27:402
4,200000	-35,349998	-40,529999	2020-10-29T19:26:27:419
-0,910000	-37,799999	-37,939999	2020-10-29T19:26:27:443
-6,930000	-38,430000	-34,299999	2020-10-29T19:26:27:459
-5,320000	-43,750000	-31,430000	2020-10-29T19:26:27:482
5,250000	-47,880001	-28,070000	2020-10-29T19:26:27:499
21,770000	-47,110001	-23,100000	2020-10-29T19:26:27:526
40,810001	-46,549999	-16,520000	2020-10-29T19:26:27:540
50,330002	-46,410000	-7,280000	2020-10-29T19:26:27:563
48,930000	-50,889999	-0,910000	2020-10-29T19:26:27:579
41,720001	-53,619999	2,380000	2020-10-29T19:26:27:603
33,880001	-40,880001	7,910000	2020-10-29T19:26:27:619
23,940001	-26,180000	14,770000	2020-10-29T19:26:27:641
8,540000	-22,469999	19,740000	2020-10-29T19:26:27:659
-7,700000	-17,710001	28,280001	2020-10-29T19:26:27:683
-20,299999	-9,450000	42,630001	2020-10-29T19:26:27:699
-37,240002	5,950000	42,700001	2020-10-29T19:26:27:722
-54,320000	8,610000	29,889999	2020-10-29T19:26:27:740
-18,760000	11,060000	19,040001	2020-10-29T19:26:27:763
-17,920000	13,860000	-9,800000	2020-10-29T19:26:27:779
25,200001	0,700000	-34,930000	2020-10-29T19:26:27:803
86,590004	5,320000	-59,430000	2020-10-29T19:26:27:820
84,559998	18,129999	-57,750000	2020-10-29T19:26:27:842
21,139999	13,860000	-39,270000	2020-10-29T19:26:27:859
-45,080002	6,720000	-15,540000	2020-10-29T19:26:27:882
-84,699997	4,130000	2,380000	2020-10-29T19:26:27:900
-91,840004	-2,310000	14,350000	2020-10-29T19:26:27:923
-97,510002	-10,360000	20,790001	2020-10-29T19:26:27:940
-97,370003	-15,050000	19,740000	2020-10-29T19:26:27:963
-74,340004	-11,270000	8,890000	2020-10-29T19:26:27:981
-29,049999	-1,050000	-6,720000	2020-10-29T19:26:28:005
5,950000	6,300000	-19,530001	2020-10-29T19:26:28:020
30,170000	12,950000	-29,960001	2020-10-29T19:26:28:043
58,660000	22,049999	-45,570000	2020-10-29T19:26:28:060
46,900002	28,700001	-50,750000	2020-10-29T19:26:28:084
5,810000	29,680000	-47,529999	2020-10-29T19:26:28:100
-52,639999	35,209999	-34,369999	2020-10-29T19:26:28:123
-121,029999	44,380001	-11,830000	2020-10-29T19:26:28:140
-185,570007	44,380001	12,460000	2020-10-29T19:26:28:164
-223,860001	25,549999	29,049999	2020-10-29T19:26:28:180
-245,979996	42,209999	60,480000	2020-10-29T19:26:28:204
-245,559998	58,029999	84,559998	2020-10-29T19:26:28:220
-226,869995	44,099998	95,199997	2020-10-29T19:26:28:245
-196,279999	36,049999	103,389999	2020-10-29T19:26:28:260
-159,529999	35,490002	109,830002	2020-10-29T19:26:28:283
-120,889999	27,580000	110,739998	2020-10-29T19:26:28:300
-65,590004	18,900000	109,410004	2020-10-29T19:26:28:323
0,210000	15,050000	101,779999	2020-10-29T19:26:28:340
61,740002	17,500000	100,029999	2020-10-29T19:26:28:363
106,400002	21,420000	97,790001	2020-10-29T19:26:28:380
123,970001	26,950001	95,340004	2020-10-29T19:26:28:404
119,980003	31,639999	85,750000	2020-10-29T19:26:28:420
91,629997	36,610001	72,870003	2020-10-29T19:26:28:443
46,060001	45,220001	66,150002	2020-10-29T19:26:28:460
-11,060000	49,490002	57,470001	2020-10-29T19:26:28:485
-70,769997	49,139999	43,540001	2020-10-29T19:26:28:500
-123,760002	51,029999	34,160000	2020-10-29T19:26:28:524
-160,369995	50,470001	24,150000	2020-10-29T19:26:28:540
-178,850006	48,580002	12,880000	2020-10-29T19:26:28:563
-181,509995	47,180000	0,910000	2020-10-29T19:26:28:580
-173,740005	44,869999	-12,530000	2020-10-29T19:26:28:603
-163,169998	42,279999	-27,930000	2020-10-29T19:26:28:620
-154,139999	39,970001	-46,270000	2020-10-29T19:26:28:644
-145,460007	38,360001	-66,570000	2020-10-29T19:26:28:660
-136,850006	37,029999	-86,940002	2020-10-29T19:26:28:683
-125,930000	35,630001	-105,559998	2020-10-29T19:26:28:700
-109,900002	33,180000	-121,940002	2020-10-29T19:26:28:725
-88,760002	26,110001	-136,639999	2020-10-29T19:26:28:740
-66,360001	15,820000	-148,680008	2020-10-29T19:26:28:763
-51,520000	5,460000	-153,580002	2020-10-29T19:26:28:781
-41,160000	-1,610000	-151,339996	2020-10-29T19:26:28:804
-32,130001	-5,670000	-142,940002	2020-10-29T19:26:28:820
-20,440001	-10,990000	-129,220001	2020-10-29T19:26:28:844
-7,140000	-14,770000	-108,220001	2020-10-29T19:26:28:860
5,110000	-15,610000	-83,580002	2020-10-29T19:26:28:884
11,830000	-18,969999	-58,310001	2020-10-29T19:26:28:901
9,170000	-27,299999	-35,209999	2020-10-29T19:26:28:923
-3,780000	-39,830002	-15,400000	2020-10-29T19:26:28:940
-21,910000	-46,689999	-0,560000	2020-10-29T19:26:28:964
-32,060001	-45,360001	10,850000	2020-10-29T19:26:28:981
-15,540000	-46,619999	17,850000	2020-10-29T19:26:29:004
21,629999	-44,799999	22,469999	2020-10-29T19:26:29:021
56,560001	-39,200001	33,740002	2020-10-29T19:26:29:044
81,970001	-41,930000	44,869999	2020-10-29T19:26:29:060
95,480003	-48,720001	49,630001	2020-10-29T19:26:29:084
82,459999	-52,779999	52,779999	2020-10-29T19:26:29:101
50,959999	-54,459999	58,869999	2020-10-29T19:26:29:124
13,020000	-52,849998	52,779999	2020-10-29T19:26:29:141
14,560000	-15,890000	-12,110000	2020-10-29T19:26:29:163
-25,129999	-5,390000	-20,719999	2020-10-29T19:26:29:181
-53,970001	-18,200001	-38,290001	2020-10-29T19:26:29:205
-8,400000	-6,230000	-72,029999	2020-10-29T19:26:29:221
-3,780000	12,320000	-66,010002	2020-10-29T19:26:29:244
-52,849998	14,630000	-50,400002	2020-10-29T19:26:29:261
-94,779999	14,910000	-29,469999	2020-10-29T19:26:29:285
-91,070000	18,410000	-12,950000	2020-10-29T19:26:29:301
-74,410004	13,510000	15,610000	2020-10-29T19:26:29:324
-71,750000	0,560000	38,150002	2020-10-29T19:26:29:340
-73,360001	-7,630000	49,980000	2020-10-29T19:26:29:365
-71,750000	-7,210000	53,130001	2020-10-29T19:26:29:381
-53,410000	1,750000	42,630001	2020-10-29T19:26:29:404
-4,340000	13,720000	22,330000	2020-10-29T19:26:29:421
39,830002	20,719999	2,800000	2020-10-29T19:26:29:445
68,459999	26,110001	-12,530000	2020-10-29T19:26:29:461
86,940002	28,910000	-29,889999	2020-10-29T19:26:29:485
84,910004	26,040001	-41,439999	2020-10-29T19:26:29:501
55,020000	17,150000	-42,700001	2020-10-29T19:26:29:527
-7,770000	6,790000	-37,939999	2020-10-29T19:26:29:545
-77,139999	-0,140000	-30,799999	2020-10-29T19:26:29:564
-133,279999	0,070000	-22,190001	2020-10-29T19:26:29:581
-162,050003	0,840000	-16,240000	2020-10-29T19:26:29:605
-160,440002	2,170000	-10,990000	2020-10-29T19:26:29:621
-128,309998	5,460000	-8,330000	2020-10-29T19:26:29:644
-78,400002	8,820000	-8,260000	2020-10-29T19:26:29:661
-25,900000	14,140000	-10,710000	2020-10-29T19:26:29:686
17,430000	13,230000	-17,010000	2020-10-29T19:26:29:702
36,820000	11,830000	-23,940001	2020-10-29T19:26:29:724
30,590000	16,940001	-26,110001	2020-10-29T19:26:29:741
14,210000	17,360001	-26,389999	2020-10-29T19:26:29:765
3,500000	21,280001	-23,590000	2020-10-29T19:26:29:782
2,520000	24,639999	-18,900000	2020-10-29T19:26:29:805
10,990000	27,299999	-12,670000	2020-10-29T19:26:29:821
27,719999	29,049999	-9,100000	2020-10-29T19:26:29:846
52,220001	37,869999	-4,970000	2020-10-29T19:26:29:862
78,820000	45,990002	4,620000	2020-10-29T19:26:29:885
111,230003	42,490002	15,610000	2020-10-29T19:26:29:903
132,789993	36,400002	27,440001	2020-10-29T19:26:29:928
136,220001	42,980000	40,250000	2020-10-29T19:26:29:942
166,740005	51,869999	44,660000	2020-10-29T19:26:29:965
199,919998	60,549999	44,869999	2020-10-29T19:26:29:982
178,779999	70,840004	48,230000	2020-10-29T19:26:30:005
125,650002	73,779999	53,549999	2020-10-29T19:26:30:022
71,680000	68,669998	56,420002	2020-10-29T19:26:30:045
13,370000	63,630001	63,490002	2020-10-29T19:26:30:062
-42,279999	56,490002	73,360001	2020-10-29T19:26:30:085
-79,449997	44,799999	79,519997	2020-10-29T19:26:30:102
-91,489998	34,860001	81,340004	2020-10-29T19:26:30:124
-94,709999	24,850000	79,099998	2020-10-29T19:26:30:142
-99,470001	13,230000	76,720001	2020-10-29T19:26:30:167
-90,860001	3,220000	69,790001	2020-10-29T19:26:30:182
-38,150002	-0,840000	52,639999	2020-10-29T19:26:30:205
31,780001	2,100000	33,389999	2020-10-29T19:26:30:223
104,860001	4,060000	9,380000	2020-10-29T19:26:30:245
127,190002	1,400000	-2,730000	2020-10-29T19:26:30:262
117,180000	-5,530000	-5,390000	2020-10-29T19:26:30:285
87,430000	-11,900000	-8,190000	2020-10-29T19:26:30:302
56,139999	-17,219999	-11,060000	2020-10-29T19:26:30:325
29,260000	-21,840000	-13,230000	2020-10-29T19:26:30:341
4,970000	-22,540001	-13,580000	2020-10-29T19:26:30:364
-16,590000	-21,139999	-12,460000	2020-10-29T19:26:30:382
-31,570000	-20,580000	-11,410000	2020-10-29T19:26:30:406
-37,310001	-17,430000	-9,100000	2020-10-29T19:26:30:422
-35,420002	-11,480000	-5,110000	2020-10-29T19:26:30:445
-29,120001	-12,670000	-2,800000	2020-10-29T19:26:30:462
-21,700001	-21,629999	-5,040000	2020-10-29T19:26:30:486
-19,670000	-7,770000	-0,420000	2020-10-29T19:26:30:502
-22,610001	12,180000	7,840000	2020-10-29T19:26:30:524
-33,180000	13,090000	11,690000	2020-10-29T19:26:30:542
-56,000000	12,670000	18,690001	2020-10-29T19:26:30:565
-78,959999	14,350000	27,719999	2020-10-29T19:26:30:582
-88,900002	14,700000	35,139999	2020-10-29T19:26:30:605
-86,449997	17,290001	39,410000	2020-10-29T19:26:30:622
-77,209999	16,379999	40,529999	2020-10-29T19:26:30:646
-65,029999	12,740000	39,060001	2020-10-29T19:26:30:661
-45,709999	7,210000	34,090000	2020-10-29T19:26:30:685
-24,150000	3,710000	21,490000	2020-10-29T19:26:30:702
-15,750000	3,780000	12,390000	2020-10-29T19:26:30:725
-20,719999	-0,490000	2,450000	2020-10-29T19:26:30:742
-32,130001	-0,910000	-6,090000	2020-10-29T19:26:30:764
-36,820000	17,639999	-8,680000	2020-10-29T19:26:30:782
-36,400002	33,740002	-7,700000	2020-10-29T19:26:30:805
-43,330002	33,110001	-4,830000	2020-10-29T19:26:30:822
-51,240002	31,570000	2,310000	2020-10-29T19:26:30:845
-54,040001	30,590000	10,780000	2020-10-29T19:26:30:862
-56,209999	24,850000	16,940001	2020-10-29T19:26:30:886
-66,080002	17,639999	19,600000	2020-10-29T19:26:30:902
-78,190002	15,680000	18,410000	2020-10-29T19:26:30:925
-89,040001	20,370001	14,210000	2020-10-29T19:26:30:942
-98,910004	26,389999	7,910000	2020-10-29T19:26:30:965
-104,019997	29,190001	-2,030000	2020-10-29T19:26:30:983
-102,129997	30,380001	-13,440001	2020-10-29T19:26:31:005
-93,940002	34,580002	-25,340000	2020-10-29T19:26:31:022
-88,480003	44,660000	-34,160000	2020-10-29T19:26:31:045
-92,470001	56,349998	-40,250000	2020-10-29T19:26:31:062
-100,730003	56,630001	-46,340000	2020-10-29T19:26:31:085
-116,550003	56,770000	-48,090000	2020-10-29T19:26:31:102
-142,589996	66,639999	-42,910000	2020-10-29T19:26:31:126
-171,710007	68,809998	-37,240002	2020-10-29T19:26:31:142
-199,080002	64,470001	-32,200001	2020-10-29T19:26:31:165
-215,250000	64,820000	-27,370001	2020-10-29T19:26:31:184
-223,440002	67,340004	-24,430000	2020-10-29T19:26:31:205
-229,740005	67,760002	-22,120001	2020-10-29T19:26:31:222
-227,360001	67,199997	-21,559999	2020-10-29T19:26:31:245
-213,990005	65,660004	-25,340000	2020-10-29T19:26:31:261
-205,449997	63,770000	-28,770000	2020-10-29T19:26:31:286
-204,190002	63,279999	-32,900002	2020-10-29T19:26:31:303
-191,800003	60,760002	-42,349998	2020-10-29T19:26:31:325
-171,639999	58,240002	-51,310001	2020-10-29T19:26:31:343
-148,470001	55,160000	-58,660000	2020-10-29T19:26:31:365
-122,500000	49,070000	-64,610001	2020-10-29T19:26:31:383
-94,919998	43,680000	-69,230003	2020-10-29T19:26:31:406
-72,029999	39,060001	-71,330002	2020-10-29T19:26:31:423
-57,540001	33,529999	-70,699997	2020-10-29T19:26:31:445
-51,240002	28,840000	-68,320000	2020-10-29T19:26:31:463
-53,130001	27,580000	-63,630001	2020-10-29T19:26:31:486
-62,299999	26,320000	-57,540001	2020-10-29T19:26:31:503
-78,470001	24,780001	-50,119999	2020-10-29T19:26:31:526
-97,930000	25,200001	-42,070000	2020-10-29T19:26:31:543
-113,820000	21,210001	-36,330002	2020-10-29T19:26:31:566
-127,400002	14,280000	-31,639999	2020-10-29T19:26:31:583
-134,050003	8,610000	-28,000000	2020-10-29T19:26:31:607
-132,369995	5,670000	-25,200001	2020-10-29T19:26:31:623
-123,970001	6,650000	-24,080000	2020-10-29T19:26:31:646
-110,669998	3,640000	-25,620001	2020-10-29T19:26:31:663
-95,690002	-2,450000	-28,910000	2020-10-29T19:26:31:686
-80,430000	-6,230000	-32,759998	2020-10-29T19:26:31:703
-68,809998	-6,020000	-34,090000	2020-10-29T19:26:31:726
-59,639999	-2,800000	-32,970001	2020-10-29T19:26:31:742
-52,009998	-0,140000	-30,309999	2020-10-29T19:26:31:766
-49,070000	-2,590000	-25,900000	2020-10-29T19:26:31:783
-42,630001	-4,200000	-20,020000	2020-10-29T19:26:31:805
-33,459999	-4,620000	-13,650000	2020-10-29T19:26:31:823
-31,150000	-8,400000	-7,420000	2020-10-29T19:26:31:847
-32,410000	-12,390000	-2,170000	2020-10-29T19:26:31:862
-26,809999	-15,330000	0,560000	2020-10-29T19:26:31:886
-22,680000	-21,000000	0,280000	2020-10-29T19:26:31:903
-24,150000	-26,389999	1,260000	2020-10-29T19:26:31:925
-17,710001	-16,870001	3,290000	2020-10-29T19:26:31:943
-7,700000	-7,630000	6,510000	2020-10-29T19:26:31:966
1,890000	-7,490000	10,710000	2020-10-29T19:26:31:985
10,640000	-8,470000	15,890000	2020-10-29T19:26:32:007
17,850000	-13,370000	20,440001	2020-10-29T19:26:32:023
24,710001	-12,740000	25,620001	2020-10-29T19:26:32:046
45,709999	-6,160000	31,080000	2020-10-29T19:26:32:063
67,199997	-0,980000	37,380001	2020-10-29T19:26:32:088
90,230003	-0,490000	48,439999	2020-10-29T19:26:32:103
99,680000	8,750000	54,040001	2020-10-29T19:26:32:134
75,389999	16,030001	56,279999	2020-10-29T19:26:32:144
34,439999	19,600000	57,400002	2020-10-29T19:26:32:166
-0,980000	25,900000	58,450001	2020-10-29T19:26:32:184
-29,610001	29,540001	59,010002	2020-10-29T19:26:32:207
-46,689999	26,389999	55,930000	2020-10-29T19:26:32:224
-60,340000	25,270000	55,020000	2020-10-29T19:26:32:247
-69,160004	25,620001	52,430000	2020-10-29T19:26:32:263
-66,709999	23,870001	48,439999	2020-10-29T19:26:32:286
-62,510002	23,170000	43,259998	2020-10-29T19:26:32:304
-67,620003	23,590000	39,549999	2020-10-29T19:26:32:326
-74,269997	21,420000	37,170002	2020-10-29T19:26:32:343
-77,910004	18,200001	32,270000	2020-10-29T19:26:32:366
-84,000000	14,210000	25,480000	2020-10-29T19:26:32:384
-95,199997	9,870000	15,890000	2020-10-29T19:26:32:407
-97,160004	0,700000	9,730000	2020-10-29T19:26:32:424
-99,330002	-5,180000	4,900000	2020-10-29T19:26:32:446
-95,760002	-14,140000	2,100000	2020-10-29T19:26:32:463
-83,300003	-23,730000	-1,470000	2020-10-29T19:26:32:486
-67,830002	-29,889999	-6,160000	2020-10-29T19:26:32:505
-53,270000	-31,500000	-11,690000	2020-10-29T19:26:32:527
-46,970001	-30,730000	-18,129999	2020-10-29T19:26:32:545
-55,230000	-29,820000	-24,290001	2020-10-29T19:26:32:566
-66,010002	-27,230000	-29,190001	2020-10-29T19:26:32:585
-71,889999	-22,120001	-32,060001	2020-10-29T19:26:32:607
-74,059998	-14,490000	-34,160000	2020-10-29T19:26:32:625
-77,209999	-6,930000	-33,389999	2020-10-29T19:26:32:647
-79,379997	0,210000	-32,549999	2020-10-29T19:26:32:665
-87,500000	9,240000	-26,600000	2020-10-29T19:26:32:687
-87,360001	17,850000	-21,000000	2020-10-29T19:26:32:705
-86,309998	28,700001	-14,210000	2020-10-29T19:26:32:727
-77,699997	36,750000	-8,680000	2020-10-29T19:26:32:745
-61,389999	38,360001	-8,400000	2020-10-29T19:26:32:766
-46,970001	33,250000	-7,840000	2020-10-29T19:26:32:785
-32,200001	40,459999	-4,550000	2020-10-29T19:26:32:808
-16,240000	50,189999	-2,870000	2020-10-29T19:26:32:824
-7,770000	55,090000	-0,980000	2020-10-29T19:26:32:847
-5,950000	57,119999	-0,070000	2020-10-29T19:26:32:865
-1,750000	55,790001	-0,630000	2020-10-29T19:26:32:887
4,830000	58,240002	-0,350000	2020-10-29T19:26:32:905
9,170000	58,240002	0,560000	2020-10-29T19:26:32:927
15,330000	48,720001	2,800000	2020-10-29T19:26:32:944
26,320000	34,860001	4,970000	2020-10-29T19:26:32:967
35,209999	26,670000	6,020000	2020-10-29T19:26:32:985
36,119999	27,860001	8,120000	2020-10-29T19:26:33:007
31,360001	32,549999	10,710000	2020-10-29T19:26:33:025
19,600000	37,380001	12,320000	2020-10-29T19:26:33:048
0,420000	41,509998	14,350000	2020-10-29T19:26:33:064
-22,960001	44,170002	17,500000	2020-10-29T19:26:33:087
-45,009998	45,360001	21,980000	2020-10-29T19:26:33:105
-63,000000	45,150002	26,250000	2020-10-29T19:26:33:127
-77,840004	40,950001	29,540001	2020-10-29T19:26:33:145
-88,480003	33,040001	29,049999	2020-10-29T19:26:33:167
-91,699997	23,240000	23,379999	2020-10-29T19:26:33:185
-89,180000	15,540000	13,370000	2020-10-29T19:26:33:208
-85,190002	10,010000	0,070000	2020-10-29T19:26:33:225
-80,220001	5,530000	-16,170000	2020-10-29T19:26:33:248
-75,180000	0,700000	-34,860001	2020-10-29T19:26:33:264
-79,099998	-0,770000	-50,959999	2020-10-29T19:26:33:287
-73,010002	0,980000	-63,070000	2020-10-29T19:26:33:305
-49,490002	5,390000	-79,099998	2020-10-29T19:26:33:327
-30,240000	3,570000	-91,699997	2020-10-29T19:26:33:345
-13,230000	-5,390000	-103,739998	2020-10-29T19:26:33:367
1,820000	-11,550000	-111,860001	2020-10-29T19:26:33:385
37,730000	-19,110001	-119,279999	2020-10-29T19:26:33:408
67,900002	-22,750000	-123,620003	2020-10-29T19:26:33:425
82,809998	-22,610001	-116,480003	2020-10-29T19:26:33:447
93,940002	-16,940001	-103,809998	2020-10-29T19:26:33:465
90,510002	-27,650000	-87,080002	2020-10-29T19:26:33:487
57,610001	-5,880000	-62,860001	2020-10-29T19:26:33:505
21,070000	17,219999	-39,270000	2020-10-29T19:26:33:532
-16,520000	8,120000	-21,980000	2020-10-29T19:26:33:544
-55,930000	1,470000	-5,670000	2020-10-29T19:26:33:567
-84,559998	4,620000	9,730000	2020-10-29T19:26:33:585
-96,040001	14,070000	22,469999	2020-10-29T19:26:33:607
-98,000000	20,860001	31,990000	2020-10-29T19:26:33:625
-93,239998	20,719999	39,410000	2020-10-29T19:26:33:648
-78,680000	18,480000	44,730000	2020-10-29T19:26:33:665
-45,150002	16,799999	46,619999	2020-10-29T19:26:33:688
-3,570000	7,910000	43,049999	2020-10-29T19:26:33:705
31,920000	-5,600000	37,310001	2020-10-29T19:26:33:727
62,580002	-14,420000	30,380001	2020-10-29T19:26:33:745
92,120003	-14,280000	22,820000	2020-10-29T19:26:33:768
119,770004	-7,140000	17,150000	2020-10-29T19:26:33:785
140,139999	-2,170000	15,890000	2020-10-29T19:26:33:808
149,380005	-1,680000	19,389999	2020-10-29T19:26:33:825
148,889999	-3,780000	26,389999	2020-10-29T19:26:33:848
144,199997	-5,110000	34,509998	2020-10-29T19:26:33:865
134,889999	-6,370000	42,490002	2020-10-29T19:26:33:889
121,590004	-5,880000	48,720001	2020-10-29T19:26:33:905
106,610001	-2,450000	52,709999	2020-10-29T19:26:33:928
92,470001	-1,330000	54,670002	2020-10-29T19:26:33:945
82,669998	-1,820000	55,230000	2020-10-29T19:26:33:968
78,610001	-0,910000	54,810001	2020-10-29T19:26:33:986
79,099998	0,210000	53,900002	2020-10-29T19:26:34:009
83,300003	-0,280000	51,939999	2020-10-29T19:26:34:025
88,830002	-0,350000	49,209999	2020-10-29T19:26:34:048
91,000000	-1,470000	45,990002	2020-10-29T19:26:34:065
90,580002	-4,270000	42,070000	2020-10-29T19:26:34:088
90,160004	-5,530000	37,310001	2020-10-29T19:26:34:106
87,360001	-4,410000	32,689999	2020-10-29T19:26:34:128
79,029999	-2,520000	28,630001	2020-10-29T19:26:34:145
64,540001	-0,770000	24,570000	2020-10-29T19:26:34:168
45,849998	-0,350000	19,320000	2020-10-29T19:26:34:186
25,690001	-11,760000	8,680000	2020-10-29T19:26:34:209
12,530000	-16,309999	-1,540000	2020-10-29T19:26:34:225
18,129999	-10,430000	-10,920000	2020-10-29T19:26:34:250
40,810001	-18,549999	-25,270000	2020-10-29T19:26:34:265
71,959999	-30,590000	-38,500000	2020-10-29T19:26:34:289
108,919998	-35,840000	-45,990002	2020-10-29T19:26:34:306
145,809998	-35,630001	-46,060001	2020-10-29T19:26:34:327
170,029999	-26,880001	-38,500000	2020-10-29T19:26:34:346
183,119995	-16,450001	-27,299999	2020-10-29T19:26:34:368
189,419998	-19,530001	-17,080000	2020-10-29T19:26:34:386
185,710007	-28,630001	-11,480000	2020-10-29T19:26:34:409
172,550003	-27,860001	-7,560000	2020-10-29T19:26:34:426
155,889999	-14,350000	-2,450000	2020-10-29T19:26:34:448
134,330002	1,610000	3,360000	2020-10-29T19:26:34:466
101,430000	9,660000	8,120000	2020-10-29T19:26:34:491
59,709999	10,570000	15,260000	2020-10-29T19:26:34:506
16,520000	13,090000	25,480000	2020-10-29T19:26:34:528
-17,780001	16,450001	35,490002	2020-10-29T19:26:34:546
-44,869999	14,980000	42,980000	2020-10-29T19:26:34:568
-68,669998	-1,260000	49,139999	2020-10-29T19:26:34:586
-65,870003	-13,230000	48,439999	2020-10-29T19:26:34:609
-41,650002	-22,680000	42,139999	2020-10-29T19:26:34:626
-4,130000	-28,070000	31,500000	2020-10-29T19:26:34:649
29,049999	-31,639999	21,420000	2020-10-29T19:26:34:666
49,490002	-34,299999	12,950000	2020-10-29T19:26:34:689
60,549999	-32,480000	8,820000	2020-10-29T19:26:34:707
74,410004	-28,980000	3,850000	2020-10-29T19:26:34:730
77,980003	-25,830000	3,150000	2020-10-29T19:26:34:746
69,580002	-25,690001	5,950000	2020-10-29T19:26:34:769
63,770000	-25,830000	8,330000	2020-10-29T19:26:34:787
62,650002	-25,200001	10,570000	2020-10-29T19:26:34:809
61,880001	-23,240000	12,180000	2020-10-29T19:26:34:826
60,060001	-22,330000	13,580000	2020-10-29T19:26:34:849
55,369999	-17,430000	16,450001	2020-10-29T19:26:34:866
38,150002	-12,950000	23,730000	2020-10-29T19:26:34:888
15,050000	-11,200000	32,900002	2020-10-29T19:26:34:906
-8,120000	-11,060000	41,369999	2020-10-29T19:26:34:929
-25,340000	-23,030001	43,680000	2020-10-29T19:26:34:947
-34,930000	-31,990000	41,860001	2020-10-29T19:26:34:969
-38,779999	-20,020000	41,930000	2020-10-29T19:26:34:986
-34,090000	-14,000000	38,639999	2020-10-29T19:26:35:010
-19,250000	-17,710001	33,320000	2020-10-29T19:26:35:026
3,010000	-19,460001	29,120001	2020-10-29T19:26:35:049
23,379999	-18,760000	27,370001	2020-10-29T19:26:35:066
34,299999	-16,940001	27,370001	2020-10-29T19:26:35:089
43,119999	-13,370000	29,049999	2020-10-29T19:26:35:107
55,090000	-13,440001	28,840000	2020-10-29T19:26:35:129
62,510002	-18,969999	24,570000	2020-10-29T19:26:35:146
63,980000	-19,530001	18,410000	2020-10-29T19:26:35:169
66,220001	-10,010000	11,830000	2020-10-29T19:26:35:187
70,070000	1,260000	4,270000	2020-10-29T19:26:35:211
70,910004	8,960000	-3,290000	2020-10-29T19:26:35:226
67,550003	14,140000	-8,400000	2020-10-29T19:26:35:249
62,860001	18,620001	-10,570000	2020-10-29T19:26:35:267
55,299999	21,139999	-9,450000	2020-10-29T19:26:35:289
41,369999	21,420000	-6,510000	2020-10-29T19:26:35:307
30,380001	18,969999	-3,780000	2020-10-29T19:26:35:329
43,259998	13,230000	-6,160000	2020-10-29T19:26:35:347
61,599998	8,400000	-12,250000	2020-10-29T19:26:35:369
72,940002	5,880000	-18,410000	2020-10-29T19:26:35:387
104,510002	2,310000	-28,770000	2020-10-29T19:26:35:409
182,979996	4,620000	-46,340000	2020-10-29T19:26:35:427
230,720001	10,710000	-56,910000	2020-10-29T19:26:35:451
230,790009	15,470000	-58,029999	2020-10-29T19:26:35:466
220,639999	20,370001	-57,820000	2020-10-29T19:26:35:490
201,529999	23,030001	-55,299999	2020-10-29T19:26:35:507
160,300003	25,200001	-47,320000	2020-10-29T19:26:35:529
110,669998	27,790001	-40,529999	2020-10-29T19:26:35:547
68,389999	28,630001	-35,980000	2020-10-29T19:26:35:569
40,459999	33,110001	-34,020000	2020-10-29T19:26:35:587
13,930000	33,040001	-31,780001	2020-10-29T19:26:35:610
-11,130000	11,690000	-34,720001	2020-10-29T19:26:35:627
-27,580000	9,660000	-38,009998	2020-10-29T19:26:35:649
-57,750000	14,980000	-33,950001	2020-10-29T19:26:35:667
-83,440002	9,030000	-29,750000	2020-10-29T19:26:35:691
-100,169998	2,310000	-26,600000	2020-10-29T19:26:35:707
-104,019997	2,940000	-25,410000	2020-10-29T19:26:35:729
-110,110001	6,090000	-22,330000	2020-10-29T19:26:35:747
-116,970001	7,140000	-19,180000	2020-10-29T19:26:35:770
-118,090004	3,640000	-17,150000	2020-10-29T19:26:35:787
-96,459999	-1,400000	-21,070000	2020-10-29T19:26:35:810
-81,970001	-0,840000	-21,210001	2020-10-29T19:26:35:827
-79,239998	3,290000	-20,719999	2020-10-29T19:26:35:850
-79,870003	8,260000	-21,559999	2020-10-29T19:26:35:867
-79,379997	10,780000	-22,820000	2020-10-29T19:26:35:890
-79,519997	10,290000	-22,610001	2020-10-29T19:26:35:908
-80,500000	11,130000	-20,510000	2020-10-29T19:26:35:929
-80,500000	10,990000	-17,710001	2020-10-29T19:26:35:946
-82,250000	5,670000	-16,240000	2020-10-29T19:26:35:970
-82,250000	0,840000	-16,100000	2020-10-29T19:26:35:988
-74,059998	-0,490000	-19,040001	2020-10-29T19:26:36:011
-68,389999	-2,380000	-22,750000	2020-10-29T19:26:36:027
-67,760002	-4,760000	-26,460001	2020-10-29T19:26:36:052
-68,739998	-7,350000	-30,520000	2020-10-29T19:26:36:067
-73,919998	-12,530000	-33,529999	2020-10-29T19:26:36:103
-75,250000	-17,850000	-37,240002	2020-10-29T19:26:36:107
-72,590004	-21,000000	-39,900002	2020-10-29T19:26:36:135
-65,449997	-26,530001	-42,980000	2020-10-29T19:26:36:186
-55,439999	-34,090000	-46,340000	2020-10-29T19:26:36:187
-48,720001	-41,299999	-48,860001	2020-10-29T19:26:36:188
-49,070000	-47,740002	-51,240002	2020-10-29T19:26:36:216
-59,500000	-51,029999	-52,220001	2020-10-29T19:26:36:255
-86,379997	-50,680000	-52,150002	2020-10-29T19:26:36:290
-118,230003	-45,150002	-49,560001	2020-10-29T19:26:36:291
-149,729996	-35,560001	-42,209999	2020-10-29T19:26:36:294
-161,210007	-29,680000	-38,709999	2020-10-29T19:26:36:347
-167,089996	-31,360001	-34,230000	2020-10-29T19:26:36:348
-162,889999	-21,490000	-29,049999	2020-10-29T19:26:36:348
-131,669998	-10,990000	-26,600000	2020-10-29T19:26:36:374
-98,070000	-5,250000	-23,450001	2020-10-29T19:26:36:386
-79,519997	-5,320000	-21,700001	2020-10-29T19:26:36:410
-75,110001	-8,960000	-17,219999	2020-10-29T19:26:36:426
-75,040001	-8,120000	-12,670000	2020-10-29T19:26:36:451
-74,340004	-7,000000	-7,630000	2020-10-29T19:26:36:468
-67,269997	-11,060000	-5,460000	2020-10-29T19:26:36:490
-56,420002	-8,470000	-4,060000	2020-10-29T19:26:36:508
-50,049999	-4,830000	-4,620000	2020-10-29T19:26:36:531
-55,510002	-2,100000	-6,930000	2020-10-29T19:26:36:548
-65,940002	8,330000	-9,240000	2020-10-29T19:26:36:571
-76,019997	20,719999	-9,450000	2020-10-29T19:26:36:589
-83,370003	27,930000	-8,960000	2020-10-29T19:26:36:611
-85,540001	32,200001	-7,840000	2020-10-29T19:26:36:628
-88,059998	34,369999	-4,200000	2020-10-29T19:26:36:658
-99,050003	31,080000	0,980000	2020-10-29T19:26:36:669
-118,650002	25,760000	5,460000	2020-10-29T19:26:36:692
-138,320007	22,260000	6,720000	2020-10-29T19:26:36:708
-160,649994	17,780001	7,070000	2020-10-29T19:26:36:731
-189,350006	14,840000	2,100000	2020-10-29T19:26:36:748
-200,970001	13,440001	-3,080000	2020-10-29T19:26:36:771
-212,520004	13,720000	-5,950000	2020-10-29T19:26:36:788
-234,919998	10,570000	-6,720000	2020-10-29T19:26:36:811
-257,040009	6,440000	-8,960000	2020-10-29T19:26:36:832
-260,399994	5,880000	-15,120000	2020-10-29T19:26:36:850
-249,479996	10,500000	-21,910000	2020-10-29T19:26:36:868
-240,869995	12,390000	-27,510000	2020-10-29T19:26:36:892
-239,190002	12,040000	-31,150000	2020-10-29T19:26:36:909
-236,320007	13,930000	-34,369999	2020-10-29T19:26:36:931
-233,309998	14,210000	-37,520000	2020-10-29T19:26:36:949
-233,380005	8,890000	-40,180000	2020-10-29T19:26:36:982
-12,320000	-11,060000	-122,220001	2020-10-29T19:26:53:146
-12,810000	-3,920000	-125,580002	2020-10-29T19:26:53:147
-9,520000	5,040000	-121,660004	2020-10-29T19:26:53:148
-3,990000	2,450000	-117,599998	2020-10-29T19:26:53:149
-1,820000	3,150000	-106,400002	2020-10-29T19:26:53:149
-1,470000	5,740000	-91,489998	2020-10-29T19:26:53:151
1,470000	4,060000	-76,370003	2020-10-29T19:26:53:170
3,990000	5,810000	-60,970001	2020-10-29T19:26:53:186
-0,560000	9,520000	-44,869999	2020-10-29T19:26:53:211
-12,810000	7,350000	-30,240000	2020-10-29T19:26:53:227
-28,559999	0,700000	-19,670000	2020-10-29T19:26:53:252
-49,420002	2,310000	-9,940000	2020-10-29T19:26:53:268
-70,209999	10,500000	-0,420000	2020-10-29T19:26:53:290
-85,889999	18,480000	9,380000	2020-10-29T19:26:53:308
-98,980003	22,260000	19,040001	2020-10-29T19:26:53:331
-108,080002	20,230000	28,630001	2020-10-29T19:26:53:347
-110,669998	16,870001	37,939999	2020-10-29T19:26:53:369
-110,459999	14,630000	47,180000	2020-10-29T19:26:53:387
-110,320000	11,200000	54,599998	2020-10-29T19:26:53:412
-110,040001	2,030000	57,959999	2020-10-29T19:26:53:428
-103,110001	-7,700000	57,400002	2020-10-29T19:26:53:450
-84,209999	-16,030001	53,130001	2020-10-29T19:26:53:468
-58,099998	-35,840000	44,590000	2020-10-29T19:26:53:491
-84,070000	-4,970000	46,480000	2020-10-29T19:26:53:508
-97,650002	14,070000	30,100000	2020-10-29T19:26:53:531
-94,849998	15,400000	25,760000	2020-10-29T19:26:53:549
-66,570000	10,990000	15,540000	2020-10-29T19:26:53:572
36,049999	4,480000	-9,310000	2020-10-29T19:26:53:588
96,389999	-2,660000	-17,570000	2020-10-29T19:26:53:611
128,520004	3,150000	-23,660000	2020-10-29T19:26:53:628
161,000000	-1,680000	-36,119999	2020-10-29T19:26:53:651
181,089996	-2,380000	-46,619999	2020-10-29T19:26:53:668
174,440002	1,960000	-49,560001	2020-10-29T19:26:53:690
130,759995	-1,120000	-47,040001	2020-10-29T19:26:53:708
96,879997	-3,920000	-39,060001	2020-10-29T19:26:53:731
62,510002	-0,700000	-24,360001	2020-10-29T19:26:53:748
27,370001	7,350000	-4,200000	2020-10-29T19:26:53:771
-0,700000	-1,750000	11,130000	2020-10-29T19:26:53:788
-20,090000	0,910000	28,420000	2020-10-29T19:26:53:811
-39,689999	17,150000	48,790001	2020-10-29T19:26:53:828
-56,420002	15,400000	61,180000	2020-10-29T19:26:53:850
-75,389999	13,300000	68,040001	2020-10-29T19:26:53:868
-91,769997	15,190001	74,340004	2020-10-29T19:26:53:890
-99,680000	13,930000	78,680000	2020-10-29T19:26:53:908
-99,610001	10,360000	82,250000	2020-10-29T19:26:53:930
-82,879997	3,850000	83,160004	2020-10-29T19:26:53:948
-52,500000	1,960000	78,050003	2020-10-29T19:26:53:972
-21,910000	5,810000	69,650002	2020-10-29T19:26:53:988
7,980000	8,470000	58,590000	2020-10-29T19:26:54:012
34,930000	12,880000	42,560001	2020-10-29T19:26:54:028
54,180000	16,940001	22,889999	2020-10-29T19:26:54:052
60,340000	20,790001	4,340000	2020-10-29T19:26:54:068
57,049999	22,960001	-10,990000	2020-10-29T19:26:54:092
51,730000	23,240000	-22,960001	2020-10-29T19:26:54:108
47,670002	24,219999	-28,630001	2020-10-29T19:26:54:131
39,830002	25,129999	-27,510000	2020-10-29T19:26:54:148
30,730000	20,719999	-22,330000	2020-10-29T19:26:54:170
21,980000	15,050000	-14,980000	2020-10-29T19:26:54:188
6,230000	12,950000	-5,530000	2020-10-29T19:26:54:212
-20,090000	12,390000	3,220000	2020-10-29T19:26:54:228
-49,349998	11,060000	9,380000	2020-10-29T19:26:54:251
-70,000000	11,480000	11,550000	2020-10-29T19:26:54:268
-86,519997	16,660000	11,620000	2020-10-29T19:26:54:291
-99,889999	20,790001	9,660000	2020-10-29T19:26:54:309
-106,959999	23,170000	6,020000	2020-10-29T19:26:54:331
-111,440002	26,950001	0,560000	2020-10-29T19:26:54:348
-115,779999	29,400000	-5,670000	2020-10-29T19:26:54:372
-119,000000	29,960001	-12,250000	2020-10-29T19:26:54:388
-121,379997	31,080000	-19,389999	2020-10-29T19:26:54:411
-125,720001	33,250000	-25,760000	2020-10-29T19:26:54:428
-130,759995	34,650002	-31,430000	2020-10-29T19:26:54:452
-136,289993	36,049999	-35,910000	2020-10-29T19:26:54:469
-146,369995	37,029999	-39,200001	2020-10-29T19:26:54:492
-159,809998	37,450001	-41,790001	2020-10-29T19:26:54:508
-173,740005	38,709999	-44,520000	2020-10-29T19:26:54:532
-187,740005	43,189999	-46,270000	2020-10-29T19:26:54:548
-199,009995	49,139999	-47,670002	2020-10-29T19:26:54:572
-205,449997	53,689999	-48,439999	2020-10-29T19:26:54:589
-206,220001	56,490002	-48,230000	2020-10-29T19:26:54:613
-201,180008	56,770000	-47,320000	2020-10-29T19:26:54:629
-192,570007	54,110001	-45,150002	2020-10-29T19:26:54:652
-188,089996	51,380001	-41,790001	2020-10-29T19:26:54:669
-188,930008	46,480000	-38,220001	2020-10-29T19:26:54:692
-189,139999	39,200001	-35,770000	2020-10-29T19:26:54:710
-187,250000	32,759998	-34,439999	2020-10-29T19:26:54:733
-177,940002	28,770000	-34,650002	2020-10-29T19:26:54:749
-159,389999	24,150000	-36,330002	2020-10-29T19:26:54:773
-122,849998	18,690001	-39,130001	2020-10-29T19:26:54:790
-94,779999	13,020000	-40,599998	2020-10-29T19:26:54:812
-64,750000	9,940000	-42,139999	2020-10-29T19:26:54:829
-36,820000	7,350000	-42,840000	2020-10-29T19:26:54:853
-17,290001	6,860000	-42,630001	2020-10-29T19:26:54:869
-10,640000	7,910000	-40,670002	2020-10-29T19:26:54:892
-18,549999	7,140000	-37,450001	2020-10-29T19:26:54:909
-37,869999	4,760000	-34,509998	2020-10-29T19:26:54:932
-65,239998	4,550000	-30,100000	2020-10-29T19:26:54:949
-93,309998	4,830000	-24,850000	2020-10-29T19:26:54:972
-110,599998	6,580000	-20,230000	2020-10-29T19:26:54:989
-113,260002	9,240000	-16,590000	2020-10-29T19:26:55:019
-106,959999	12,740000	-13,510000	2020-10-29T19:26:55:029
-104,930000	21,770000	-10,430000	2020-10-29T19:26:55:051
-115,779999	32,410000	-5,320000	2020-10-29T19:26:55:069
-126,699997	30,309999	-4,200000	2020-10-29T19:26:55:093
-138,389999	29,889999	-2,800000	2020-10-29T19:26:55:109
-149,729996	29,820000	1,470000	2020-10-29T19:26:55:132
-155,960007	27,230000	4,970000	2020-10-29T19:26:55:149
-152,039993	25,129999	7,700000	2020-10-29T19:26:55:173
-140,070007	24,430000	9,380000	2020-10-29T19:26:55:189
-122,709999	23,170000	10,080000	2020-10-29T19:26:55:212
-101,360001	20,230000	8,820000	2020-10-29T19:26:55:228
-80,430000	15,260000	6,020000	2020-10-29T19:26:55:251
-61,320000	9,730000	3,010000	2020-10-29T19:26:55:270
-45,990002	3,920000	0,350000	2020-10-29T19:26:55:291
-31,710001	-3,570000	-1,750000	2020-10-29T19:26:55:309
-15,890000	-10,990000	-3,710000	2020-10-29T19:26:55:336
0,140000	-10,990000	-2,800000	2020-10-29T19:26:55:348
14,490000	-7,840000	-0,910000	2020-10-29T19:26:55:372
23,940001	-5,320000	2,030000	2020-10-29T19:26:55:389
25,340000	-1,890000	6,860000	2020-10-29T19:26:55:413
18,480000	-1,890000	12,390000	2020-10-29T19:26:55:430
3,290000	0,700000	17,570000	2020-10-29T19:26:55:453
-17,010000	2,660000	23,100000	2020-10-29T19:26:55:469
-33,320000	4,690000	27,299999	2020-10-29T19:26:55:493
-42,420002	8,680000	30,660000	2020-10-29T19:26:55:510
-45,990002	9,520000	32,619999	2020-10-29T19:26:55:532
-37,939999	9,170000	32,130001	2020-10-29T19:26:55:550
-21,280001	14,000000	29,820000	2020-10-29T19:26:55:574
-4,340000	22,049999	28,700001	2020-10-29T19:26:55:590
7,700000	30,520000	28,070000	2020-10-29T19:26:55:613
6,300000	34,930000	28,840000	2020-10-29T19:26:55:630
-8,050000	36,259998	29,889999	2020-10-29T19:26:55:653
-30,100000	34,720001	30,870001	2020-10-29T19:26:55:670
-52,779999	31,500000	32,410000	2020-10-29T19:26:55:694
-70,000000	29,960001	33,810001	2020-10-29T19:26:55:710
-82,669998	28,910000	32,619999	2020-10-29T19:26:55:734
-90,720001	27,930000	31,360001	2020-10-29T19:26:55:750
-92,330002	28,980000	29,610001	2020-10-29T19:26:55:774
-91,489998	30,030001	27,580000	2020-10-29T19:26:55:790
-90,090004	27,440001	26,530001	2020-10-29T19:26:55:814
-88,620003	22,889999	25,480000	2020-10-29T19:26:55:830
-92,889999	20,440001	24,150000	2020-10-29T19:26:55:853
-100,449997	18,410000	18,690001	2020-10-29T19:26:55:870
-110,599998	12,670000	13,370000	2020-10-29T19:26:55:894
-117,879997	8,890000	6,650000	2020-10-29T19:26:55:910
-121,449997	4,550000	-1,050000	2020-10-29T19:26:55:934
-116,199997	1,470000	-8,960000	2020-10-29T19:26:55:950
-103,809998	-0,070000	-14,350000	2020-10-29T19:26:55:974
-88,760002	1,120000	-18,900000	2020-10-29T19:26:55:990
-70,769997	3,780000	-23,030001	2020-10-29T19:26:56:013
-52,360001	5,180000	-27,230000	2020-10-29T19:26:56:030
-33,740002	5,740000	-30,100000	2020-10-29T19:26:56:054
-21,000000	6,860000	-31,290001	2020-10-29T19:26:56:070
-13,370000	7,840000	-30,660000	2020-10-29T19:26:56:094
-7,420000	8,120000	-29,540001	2020-10-29T19:26:56:110
-2,940000	9,240000	-27,440001	2020-10-29T19:26:56:134
-1,330000	12,390000	-25,059999	2020-10-29T19:26:56:150
-2,450000	14,910000	-22,680000	2020-10-29T19:26:56:175
-7,980000	17,290001	-20,860001	2020-10-29T19:26:56:190
-20,719999	16,590000	-19,740000	2020-10-29T19:26:56:215
-42,070000	6,720000	-21,700001	2020-10-29T19:26:56:230
-59,570000	20,299999	-18,830000	2020-10-29T19:26:56:253
-67,480003	33,880001	-17,290001	2020-10-29T19:26:56:271
-75,250000	32,130001	-17,710001	2020-10-29T19:26:56:295
-81,129997	28,910000	-17,639999	2020-10-29T19:26:56:310
-84,419998	28,210001	-17,780001	2020-10-29T19:26:56:333
-81,830002	30,380001	-17,850000	2020-10-29T19:26:56:351
-66,080002	37,380001	-17,010000	2020-10-29T19:26:56:374
-43,049999	42,279999	-15,120000	2020-10-29T19:26:56:391
-20,299999	38,009998	-12,670000	2020-10-29T19:26:56:415
-0,420000	28,490000	-10,430000	2020-10-29T19:26:56:430
15,680000	28,559999	-7,770000	2020-10-29T19:26:56:454
25,480000	35,279999	-3,850000	2020-10-29T19:26:56:471
27,719999	37,310001	-0,210000	2020-10-29T19:26:56:493
19,250000	35,420002	1,960000	2020-10-29T19:26:56:511
-0,910000	36,259998	5,880000	2020-10-29T19:26:56:535
-31,080000	36,540001	10,570000	2020-10-29T19:26:56:551
-65,590004	34,090000	14,490000	2020-10-29T19:26:56:573
-95,690002	30,450001	16,170000	2020-10-29T19:26:56:591
-115,080002	24,780001	15,050000	2020-10-29T19:26:56:614
-116,830002	18,340000	10,220000	2020-10-29T19:26:56:631
-107,449997	14,070000	1,960000	2020-10-29T19:26:56:653
-94,430000	10,920000	-9,730000	2020-10-29T19:26:56:671
-82,459999	8,330000	-24,010000	2020-10-29T19:26:56:694
-75,180000	7,770000	-39,130001	2020-10-29T19:26:56:711
-70,840004	9,800000	-53,760002	2020-10-29T19:26:56:733
-69,160004	12,320000	-66,010002	2020-10-29T19:26:56:751
-73,570000	12,950000	-74,550003	2020-10-29T19:26:56:775
-84,489998	7,770000	-81,620003	2020-10-29T19:26:56:790
-93,870003	2,870000	-87,080002	2020-10-29T19:26:56:813
-93,099998	0,350000	-90,090004	2020-10-29T19:26:56:831
-78,050003	-0,770000	-92,120003	2020-10-29T19:26:56:854
-47,180000	-2,800000	-95,129997	2020-10-29T19:26:56:872
-10,570000	-1,400000	-95,410004	2020-10-29T19:26:56:895
27,860001	2,660000	-90,860001	2020-10-29T19:26:56:912
62,720001	-2,380000	-86,029999	2020-10-29T19:26:56:934
85,400002	-17,639999	-80,639999	2020-10-29T19:26:56:951
107,660004	21,980000	-51,869999	2020-10-29T19:26:56:974
107,029999	21,629999	-36,330002	2020-10-29T19:26:56:991
80,989998	2,170000	-19,110001	2020-10-29T19:26:57:015
43,959999	-2,100000	1,540000	2020-10-29T19:26:57:031
17,010000	5,460000	21,000000	2020-10-29T19:26:57:054
5,530000	9,800000	35,490002	2020-10-29T19:26:57:071
3,290000	12,950000	48,090000	2020-10-29T19:26:57:094
12,110000	15,960000	58,590000	2020-10-29T19:26:57:111
27,930000	12,460000	65,730003	2020-10-29T19:26:57:135
47,180000	0,490000	68,180000	2020-10-29T19:26:57:151
72,029999	-8,260000	66,360001	2020-10-29T19:26:57:175
103,879997	-5,810000	60,970001	2020-10-29T19:26:57:191
138,110001	5,670000	56,349998	2020-10-29T19:26:57:213
164,990005	18,760000	54,110001	2020-10-29T19:26:57:231
173,529999	24,500000	54,880001	2020-10-29T19:26:57:255
161,000000	26,600000	62,720001	2020-10-29T19:26:57:271
135,800003	28,350000	75,040001	2020-10-29T19:26:57:294
103,320000	26,809999	89,110001	2020-10-29T19:26:57:311
68,180000	22,610001	101,919998	2020-10-29T19:26:57:335
34,230000	18,900000	110,459999	2020-10-29T19:26:57:351
4,690000	14,490000	114,590004	2020-10-29T19:26:57:375
-16,799999	8,960000	113,610001	2020-10-29T19:26:57:391
-26,040001	2,800000	108,360001	2020-10-29T19:26:57:415
-22,820000	-2,310000	99,260002	2020-10-29T19:26:57:431
-10,570000	-6,790000	86,449997	2020-10-29T19:26:57:453
6,440000	-9,730000	71,190002	2020-10-29T19:26:57:472
24,990000	-12,670000	54,110001	2020-10-29T19:26:57:495
37,869999	-14,000000	37,029999	2020-10-29T19:26:57:511
44,869999	-16,799999	20,160000	2020-10-29T19:26:57:534
51,170002	-17,500000	3,780000	2020-10-29T19:26:57:551
57,049999	-16,870001	-10,990000	2020-10-29T19:26:57:575
61,529999	-18,549999	-25,410000	2020-10-29T19:26:57:592
67,830002	-21,629999	-39,060001	2020-10-29T19:26:57:616
75,529999	-22,469999	-50,119999	2020-10-29T19:26:57:631
81,690002	-22,330000	-59,360001	2020-10-29T19:26:57:656
81,340004	-29,120001	-70,000000	2020-10-29T19:26:57:672
70,070000	-35,840000	-81,830002	2020-10-29T19:26:57:694
54,529999	-23,170000	-86,449997	2020-10-29T19:26:57:712
43,680000	-20,510000	-92,959999	2020-10-29T19:26:57:736
35,980000	-26,809999	-100,590004	2020-10-29T19:26:57:751
32,060001	-27,510000	-105,419998	2020-10-29T19:26:57:775
35,910000	-26,950001	-107,029999	2020-10-29T19:26:57:792
52,639999	-31,290001	-106,610001	2020-10-29T19:26:57:816
84,070000	-30,309999	-99,750000	2020-10-29T19:26:57:831
115,779999	-15,400000	-84,209999	2020-10-29T19:26:57:856
129,149994	-4,060000	-66,010002	2020-10-29T19:26:57:871
112,000000	-9,800000	-45,920002	2020-10-29T19:26:57:895
73,150002	-18,270000	-25,200001	2020-10-29T19:26:57:912
37,730000	-13,650000	-7,490000	2020-10-29T19:26:57:934
16,520000	-3,150000	4,970000	2020-10-29T19:26:57:951
8,190000	2,660000	14,700000	2020-10-29T19:26:57:976
11,900000	5,040000	23,030001	2020-10-29T19:26:57:991
19,670000	6,230000	30,590000	2020-10-29T19:26:58:014
25,129999	6,930000	36,889999	2020-10-29T19:26:58:032
25,410000	2,730000	44,170002	2020-10-29T19:26:58:055
22,400000	-1,820000	47,950001	2020-10-29T19:26:58:072
19,460001	-6,020000	49,910000	2020-10-29T19:26:58:096
18,340000	-10,150000	49,840000	2020-10-29T19:26:58:112
21,490000	-14,910000	46,830002	2020-10-29T19:26:58:137
32,689999	-19,600000	41,439999	2020-10-29T19:26:58:154
50,820000	-23,590000	34,509998	2020-10-29T19:26:58:175
71,680000	-25,340000	26,670000	2020-10-29T19:26:58:192
93,800003	-24,500000	19,460001	2020-10-29T19:26:58:216
107,169998	-25,129999	14,980000	2020-10-29T19:26:58:232
110,320000	-26,389999	13,650000	2020-10-29T19:26:58:255
107,800003	-26,600000	15,120000	2020-10-29T19:26:58:272
99,820000	-25,690001	20,440001	2020-10-29T19:26:58:296
86,870003	-23,379999	28,630001	2020-10-29T19:26:58:313
71,470001	-21,210001	37,799999	2020-10-29T19:26:58:336
58,939999	-22,049999	48,160000	2020-10-29T19:26:58:352
47,389999	-22,049999	57,400002	2020-10-29T19:26:58:376
43,470001	-19,950001	63,840000	2020-10-29T19:26:58:393
45,290001	-19,320000	67,690002	2020-10-29T19:26:58:415
49,420002	-18,059999	69,019997	2020-10-29T19:26:58:432
51,099998	-19,809999	68,949997	2020-10-29T19:26:58:456
46,410000	-25,410000	68,110001	2020-10-29T19:26:58:473
36,119999	-38,500000	62,230000	2020-10-29T19:26:58:495
26,950001	-43,889999	54,740002	2020-10-29T19:26:58:513
22,750000	-38,150002	46,410000	2020-10-29T19:26:58:536
25,549999	-36,540001	33,740002	2020-10-29T19:26:58:553
37,170002	-34,020000	20,440001	2020-10-29T19:26:58:577
52,360001	-23,730000	11,480000	2020-10-29T19:26:58:592
65,169998	-10,570000	8,680000	2020-10-29T19:26:58:616
73,779999	-2,940000	9,520000	2020-10-29T19:26:58:633
77,070000	-11,270000	8,540000	2020-10-29T19:26:58:655
73,989998	-25,900000	5,110000	2020-10-29T19:26:58:673
75,809998	-22,820000	2,450000	2020-10-29T19:26:58:696
85,680000	-11,410000	-5,460000	2020-10-29T19:26:58:713
92,540001	-3,220000	-12,600000	2020-10-29T19:26:58:736
99,260002	3,990000	-17,780001	2020-10-29T19:26:58:753
102,340004	11,550000	-16,450001	2020-10-29T19:26:58:776
100,099998	15,820000	-9,310000	2020-10-29T19:26:58:793
92,889999	20,370001	0,350000	2020-10-29T19:26:58:817
72,519997	22,889999	10,780000	2020-10-29T19:26:58:834
32,900002	19,950001	21,770000	2020-10-29T19:26:58:856
-15,120000	16,240000	28,770000	2020-10-29T19:26:58:873
-52,430000	14,140000	30,730000	2020-10-29T19:26:58:895
-74,550003	13,930000	28,700001	2020-10-29T19:26:58:913
-85,959999	14,980000	22,820000	2020-10-29T19:26:58:936
-84,559998	15,680000	14,630000	2020-10-29T19:26:58:953
-72,309998	17,360001	0,910000	2020-10-29T19:26:58:976
-58,170002	17,780001	-10,990000	2020-10-29T19:26:58:994
-45,009998	18,270000	-24,360001	2020-10-29T19:26:59:017
-39,410000	18,830000	-35,770000	2020-10-29T19:26:59:033
-38,290001	18,549999	-46,410000	2020-10-29T19:26:59:057
-38,150002	19,389999	-56,070000	2020-10-29T19:26:59:073
-40,459999	22,049999	-63,630001	2020-10-29T19:26:59:097
-46,830002	24,219999	-68,809998	2020-10-29T19:26:59:113
-71,540001	15,960000	-77,279999	2020-10-29T19:26:59:137
-90,440002	15,750000	-76,860001	2020-10-29T19:26:59:153
-102,269997	31,639999	-72,519997	2020-10-29T19:26:59:177
-109,059998	27,090000	-73,290001	2020-10-29T19:26:59:193
-108,989998	19,740000	-73,010002	2020-10-29T19:26:59:216
-100,800003	16,240000	-71,190002	2020-10-29T19:26:59:233
-86,590004	15,610000	-68,739998	2020-10-29T19:26:59:256
-73,360001	19,110001	-63,560001	2020-10-29T19:26:59:273
-60,410000	22,049999	-55,439999	2020-10-29T19:26:59:297
-48,230000	18,760000	-46,900002	2020-10-29T19:26:59:313
-45,639999	12,530000	-36,610001	2020-10-29T19:26:59:337
-59,849998	20,090000	-21,070000	2020-10-29T19:26:59:353
-87,290001	21,420000	-7,140000	2020-10-29T19:26:59:378
-119,980003	21,210001	3,920000	2020-10-29T19:26:59:393
-145,949997	25,760000	11,550000	2020-10-29T19:26:59:418
-164,360001	28,559999	16,870001	2020-10-29T19:26:59:433
-173,110001	27,930000	19,320000	2020-10-29T19:26:59:457
-172,270004	26,250000	18,480000	2020-10-29T19:26:59:473
-167,020004	23,450001	16,030001	2020-10-29T19:26:59:498
-157,639999	20,090000	12,250000	2020-10-29T19:26:59:514
-144,619995	16,170000	6,370000	2020-10-29T19:26:59:537
-129,919998	10,920000	-0,770000	2020-10-29T19:26:59:553
-114,379997	4,060000	-8,750000	2020-10-29T19:26:59:578
-97,370003	-0,840000	-17,290001	2020-10-29T19:26:59:594
-81,410004	-2,520000	-24,920000	2020-10-29T19:26:59:617
-67,830002	-3,570000	-31,780001	2020-10-29T19:26:59:633
-55,790001	-5,530000	-38,009998	2020-10-29T19:26:59:658
-46,410000	-8,120000	-43,189999	2020-10-29T19:26:59:673
-38,849998	-11,130000	-47,950001	2020-10-29T19:26:59:696
-32,619999	-14,350000	-52,080002	2020-10-29T19:26:59:714
-25,690001	-16,030001	-55,160000	2020-10-29T19:26:59:738
-16,450001	-17,010000	-56,980000	2020-10-29T19:26:59:754
-5,740000	-17,219999	-57,189999	2020-10-29T19:26:59:779
4,130000	-14,630000	-54,670002	2020-10-29T19:26:59:793
13,370000	-9,730000	-48,930000	2020-10-29T19:26:59:818
15,330000	-5,670000	-40,599998	2020-10-29T19:26:59:833
5,180000	-11,970000	-33,040001	2020-10-29T19:26:59:857
-13,720000	-20,650000	-24,080000	2020-10-29T19:26:59:874
-28,980000	-9,380000	-10,640000	2020-10-29T19:26:59:898
-35,840000	2,520000	0,280000	2020-10-29T19:26:59:914
-38,290001	2,870000	9,100000	2020-10-29T19:26:59:937
-37,170002	6,160000	18,620001	2020-10-29T19:26:59:954
-33,180000	11,550000	29,610001	2020-10-29T19:26:59:978
-29,330000	14,910000	39,830002	2020-10-29T19:26:59:994
-25,200001	17,500000	48,299999	2020-10-29T19:27:00:018
-14,280000	14,490000	53,970001	2020-10-29T19:27:00:033
5,950000	5,250000	55,090000	2020-10-29T19:27:00:058
36,259998	6,720000	52,360001	2020-10-29T19:27:00:074
58,869999	16,379999	54,529999	2020-10-29T19:27:00:097
81,480003	25,480000	51,660000	2020-10-29T19:27:00:114
94,709999	35,700001	51,240002	2020-10-29T19:27:00:138
94,989998	46,759998	54,670002	2020-10-29T19:27:00:154
86,029999	53,549999	59,220001	2020-10-29T19:27:00:177
66,709999	56,000000	66,290001	2020-10-29T19:27:00:194
39,130001	56,349998	80,220001	2020-10-29T19:27:00:218
-5,040000	54,110001	90,090004	2020-10-29T19:27:00:234
-33,320000	52,500000	98,419998	2020-10-29T19:27:00:259
-59,430000	48,439999	103,879997	2020-10-29T19:27:00:274
-79,660004	44,660000	107,239998	2020-10-29T19:27:00:298
-90,440002	41,860001	108,570000	2020-10-29T19:27:00:314
-91,769997	38,779999	105,629997	2020-10-29T19:27:00:336
-86,870003	38,220001	99,540001	2020-10-29T19:27:00:354
-78,540001	39,340000	90,440002	2020-10-29T19:27:00:378
-67,970001	39,549999	77,000000	2020-10-29T19:27:00:394
-57,400002	41,580002	61,599998	2020-10-29T19:27:00:418
-49,630001	46,619999	44,869999	2020-10-29T19:27:00:434
-46,130001	51,380001	27,719999	2020-10-29T19:27:00:458
-49,000000	56,279999	9,870000	2020-10-29T19:27:00:474
-57,540001	56,980000	-8,960000	2020-10-29T19:27:00:498
-73,570000	53,130001	-30,730000	2020-10-29T19:27:00:514
-95,410004	51,730000	-55,020000	2020-10-29T19:27:00:538
-117,180000	58,310001	-77,419998	2020-10-29T19:27:00:554
-132,860001	60,549999	-101,500000	2020-10-29T19:27:00:578
-142,869995	54,950001	-126,770004	2020-10-29T19:27:00:594
-147,490005	51,240002	-149,100006	2020-10-29T19:27:00:618
-145,180008	48,790001	-167,160004	2020-10-29T19:27:00:634
-134,610001	42,700001	-181,789993	2020-10-29T19:27:00:657
-117,599998	36,049999	-192,009995	2020-10-29T19:27:00:674
-97,300003	31,710001	-195,089996	2020-10-29T19:27:00:698
-73,919998	29,610001	-190,050003	2020-10-29T19:27:00:715
-49,980000	27,580000	-178,500000	2020-10-29T19:27:00:738
-28,210001	25,690001	-160,930008	2020-10-29T19:27:00:754
-14,420000	25,340000	-139,020004	2020-10-29T19:27:00:779
-21,490000	26,110001	-112,980003	2020-10-29T19:27:00:795
-56,700001	23,870001	-85,680000	2020-10-29T19:27:00:817
-113,959999	18,059999	-58,029999	2020-10-29T19:27:00:834
-174,789993	17,010000	-36,189999	2020-10-29T19:27:00:859
-226,100006	21,559999	-19,180000	2020-10-29T19:27:00:875
-265,299988	23,730000	-8,190000	2020-10-29T19:27:00:898
-287,980011	21,350000	-1,610000	2020-10-29T19:27:00:915
-295,260010	20,580000	1,540000	2020-10-29T19:27:00:938
-288,820007	25,900000	2,730000	2020-10-29T19:27:00:954
-271,529999	32,549999	0,280000	2020-10-29T19:27:00:979
-246,259995	32,130001	-6,160000	2020-10-29T19:27:00:995
-217,350006	26,950001	-15,190001	2020-10-29T19:27:01:019
-190,680008	23,379999	-24,360001	2020-10-29T19:27:01:036
-169,050003	16,940001	-32,970001	2020-10-29T19:27:01:058
-144,759995	4,830000	-42,139999	2020-10-29T19:27:01:075
-119,489998	-8,470000	-50,259998	2020-10-29T19:27:01:098
-93,590004	-19,460001	-56,490002	2020-10-29T19:27:01:115
-61,810001	-26,600000	-62,790001	2020-10-29T19:27:01:138
-32,270000	-30,520000	-66,570000	2020-10-29T19:27:01:155
-11,480000	-33,529999	-66,570000	2020-10-29T19:27:01:179
-2,660000	-31,780001	-61,740002	2020-10-29T19:27:01:195
-8,890000	-26,740000	-52,709999	2020-10-29T19:27:01:220
-26,880001	-23,590000	-40,250000	2020-10-29T19:27:01:235
-53,619999	-23,240000	-26,809999	2020-10-29T19:27:01:259
-81,830002	-28,350000	-14,840000	2020-10-29T19:27:01:276
-105,699997	-26,600000	-3,710000	2020-10-29T19:27:01:298
-124,809998	-3,920000	11,410000	2020-10-29T19:27:01:315
-133,559998	9,380000	19,530001	2020-10-29T19:27:01:339
-137,690002	13,440001	24,150000	2020-10-29T19:27:01:355
-139,020004	14,560000	27,860001	2020-10-29T19:27:01:379
-140,139999	15,120000	31,010000	2020-10-29T19:27:01:395
-139,300003	10,500000	30,730000	2020-10-29T19:27:01:418
-130,410004	6,440000	27,230000	2020-10-29T19:27:01:435
-112,139999	14,910000	24,430000	2020-10-29T19:27:01:458
-87,500000	25,129999	20,930000	2020-10-29T19:27:01:475
-64,540001	24,010000	16,030001	2020-10-29T19:27:01:499
-53,340000	21,139999	14,770000	2020-10-29T19:27:01:516
-49,910000	18,830000	17,500000	2020-10-29T19:27:01:537
-51,099998	16,870001	22,469999	2020-10-29T19:27:01:555
-55,510002	13,930000	27,020000	2020-10-29T19:27:01:580
-61,389999	5,320000	30,380001	2020-10-29T19:27:01:596
-65,519997	-3,570000	31,570000	2020-10-29T19:27:01:619
-63,910000	-8,680000	30,520000	2020-10-29T19:27:01:635
-57,400002	-9,940000	26,950001	2020-10-29T19:27:01:659
-48,160000	-8,750000	22,889999	2020-10-29T19:27:01:676
-37,939999	-5,880000	17,850000	2020-10-29T19:27:01:700
-28,490000	-3,780000	12,530000	2020-10-29T19:27:01:715
-21,559999	-2,030000	7,560000	2020-10-29T19:27:01:739
-17,920000	-0,560000	3,290000	2020-10-29T19:27:01:756
-19,110001	-0,280000	-0,210000	2020-10-29T19:27:01:779
-23,520000	-1,190000	-3,430000	2020-10-29T19:27:01:795
-30,590000	-1,400000	-6,020000	2020-10-29T19:27:01:820
-39,200001	0,630000	-8,330000	2020-10-29T19:27:01:836
-48,650002	1,610000	-9,940000	2020-10-29T19:27:01:859
-58,939999	2,380000	-11,060000	2020-10-29T19:27:01:876
-67,970001	3,500000	-11,690000	2020-10-29T19:27:01:899
-73,220001	1,260000	-13,510000	2020-10-29T19:27:01:916
-75,250000	-0,910000	-16,240000	2020-10-29T19:27:01:939
-76,230003	-1,750000	-20,299999	2020-10-29T19:27:01:956
-75,739998	-1,890000	-25,620001	2020-10-29T19:27:01:980
-72,730003	-0,840000	-32,340000	2020-10-29T19:27:01:996
-69,230003	0,560000	-39,689999	2020-10-29T19:27:02:019
-65,660004	2,940000	-47,040001	2020-10-29T19:27:02:036
-62,090000	6,580000	-54,250000	2020-10-29T19:27:02:060
-60,340000	7,210000	-62,230000	2020-10-29T19:27:02:076
-59,849998	-2,310000	-73,080002	2020-10-29T19:27:02:099
-56,840000	10,710000	-77,209999	2020-10-29T19:27:02:116
-47,180000	26,110001	-78,190002	2020-10-29T19:27:02:140
-38,150002	19,879999	-80,360001	2020-10-29T19:27:02:156
-30,240000	16,870001	-77,349998	2020-10-29T19:27:02:180
-16,240000	15,750000	-70,000000	2020-10-29T19:27:02:196
0,420000	10,150000	-61,320000	2020-10-29T19:27:02:220
20,650000	8,050000	-51,029999	2020-10-29T19:27:02:236
44,029999	14,070000	-37,939999	2020-10-29T19:27:02:259
63,279999	21,910000	-22,190001	2020-10-29T19:27:02:276
69,860001	21,910000	-5,670000	2020-10-29T19:27:02:300
65,730003	17,010000	11,690000	2020-10-29T19:27:02:317
52,290001	16,660000	29,469999	2020-10-29T19:27:02:339
32,130001	20,790001	47,180000	2020-10-29T19:27:02:356
13,930000	22,400000	62,650002	2020-10-29T19:27:02:380
-11,060000	23,660000	84,000000	2020-10-29T19:27:02:396
-22,889999	23,240000	95,620003	2020-10-29T19:27:02:420
-30,309999	22,049999	103,879997	2020-10-29T19:27:02:436
-34,930000	19,460001	109,620003	2020-10-29T19:27:02:460
-34,650002	14,000000	111,510002	2020-10-29T19:27:02:477
-26,950001	4,690000	109,550003	2020-10-29T19:27:02:499
-15,540000	-4,900000	104,930000	2020-10-29T19:27:02:516
-3,220000	-10,710000	98,070000	2020-10-29T19:27:02:540
11,760000	-16,309999	88,059998	2020-10-29T19:27:02:556
26,950001	-21,350000	75,040001	2020-10-29T19:27:02:580
39,549999	-24,920000	60,900002	2020-10-29T19:27:02:597
52,080002	-27,860001	45,360001	2020-10-29T19:27:02:620
61,670002	-30,870001	30,940001	2020-10-29T19:27:02:636
67,340004	-34,860001	18,129999	2020-10-29T19:27:02:660
71,610001	-39,619999	8,820000	2020-10-29T19:27:02:677
74,620003	-43,400002	3,990000	2020-10-29T19:27:02:700
77,139999	-44,590000	2,310000	2020-10-29T19:27:02:717
78,680000	-45,709999	1,820000	2020-10-29T19:27:02:739
80,570000	-48,020000	1,610000	2020-10-29T19:27:02:757
81,900002	-48,090000	0,980000	2020-10-29T19:27:02:781
77,980003	-39,340000	2,940000	2020-10-29T19:27:02:804
69,370003	-28,210001	7,490000	2020-10-29T19:27:02:820
59,709999	-21,910000	12,250000	2020-10-29T19:27:02:837
53,130001	-20,580000	16,450001	2020-10-29T19:27:02:860
49,490002	-31,780001	15,120000	2020-10-29T19:27:02:877
44,939999	-40,740002	9,870000	2020-10-29T19:27:02:901
43,189999	-33,880001	4,410000	2020-10-29T19:27:02:917
42,209999	-30,940001	-2,170000	2020-10-29T19:27:02:941
38,990002	-35,770000	-9,100000	2020-10-29T19:27:02:957
33,110001	-41,650002	-9,800000	2020-10-29T19:27:02:982
29,190001	-43,750000	-8,540000	2020-10-29T19:27:02:996
23,870001	-43,959999	-8,190000	2020-10-29T19:27:03:022
26,880001	-44,240002	-7,980000	2020-10-29T19:27:03:037
90,860001	-39,689999	-17,990000	2020-10-29T19:27:03:060
180,180008	-27,090000	-43,259998	2020-10-29T19:27:03:077
187,460007	-30,870001	-49,209999	2020-10-29T19:27:03:101
148,750000	-45,570000	-35,139999	2020-10-29T19:27:03:117
117,110001	-44,590000	-27,299999	2020-10-29T19:27:03:142
95,620003	-39,480000	-17,710001	2020-10-29T19:27:03:158
87,010002	-38,150002	-6,930000	2020-10-29T19:27:03:181
94,639999	-33,320000	4,830000	2020-10-29T19:27:03:197
103,949997	-24,219999	17,080000	2020-10-29T19:27:03:220
97,860001	-19,600000	29,820000	2020-10-29T19:27:03:237
79,730003	-21,559999	40,740002	2020-10-29T19:27:03:261
57,260002	-23,309999	49,139999	2020-10-29T19:27:03:277
36,680000	-21,980000	50,959999	2020-10-29T19:27:03:300
18,830000	-19,180000	49,560001	2020-10-29T19:27:03:317
7,420000	-14,140000	46,410000	2020-10-29T19:27:03:341
6,440000	-11,340000	40,740002	2020-10-29T19:27:03:357
12,320000	-8,120000	32,480000	2020-10-29T19:27:03:382
24,780001	-1,540000	26,389999	2020-10-29T19:27:03:397
41,439999	4,200000	18,129999	2020-10-29T19:27:03:421
57,470001	7,280000	7,560000	2020-10-29T19:27:03:437
65,379997	10,150000	-5,460000	2020-10-29T19:27:03:460
62,790001	18,340000	-23,309999	2020-10-29T19:27:03:477
58,310001	24,010000	-33,389999	2020-10-29T19:27:03:501
46,130001	24,219999	-43,959999	2020-10-29T19:27:03:517
19,530001	12,600000	-58,799999	2020-10-29T19:27:03:540
-16,590000	23,379999	-64,750000	2020-10-29T19:27:03:557
-54,810001	38,290001	-65,449997	2020-10-29T19:27:03:582
-91,840004	38,500000	-67,199997	2020-10-29T19:27:03:598
-128,800003	36,049999	-63,980000	2020-10-29T19:27:03:622
-160,020004	31,080000	-59,570000	2020-10-29T19:27:03:637
-176,889999	30,240000	-52,360001	2020-10-29T19:27:03:661
-176,119995	31,780001	-46,200001	2020-10-29T19:27:03:678
-161,559998	34,090000	-38,639999	2020-10-29T19:27:03:700
-135,309998	35,840000	-31,639999	2020-10-29T19:27:03:718
-105,070000	28,630001	-26,950001	2020-10-29T19:27:03:742
-82,529999	19,460001	-21,980000	2020-10-29T19:27:03:757
-78,540001	24,080000	-13,650000	2020-10-29T19:27:03:781
-88,059998	32,830002	-5,110000	2020-10-29T19:27:03:797
-99,400002	37,450001	2,450000	2020-10-29T19:27:03:822
-108,709999	36,470001	8,610000	2020-10-29T19:27:03:838
-121,029999	36,750000	15,470000	2020-10-29T19:27:03:861
-139,229996	38,920002	23,100000	2020-10-29T19:27:03:878
-159,880005	39,340000	28,840000	2020-10-29T19:27:03:901
-178,360001	36,540001	32,619999	2020-10-29T19:27:03:918
-195,720001	30,660000	34,580002	2020-10-29T19:27:03:941
-216,580002	25,900000	38,150002	2020-10-29T19:27:03:958
-229,250000	23,030001	42,770000	2020-10-29T19:27:03:982
-230,160004	24,710001	49,420002	2020-10-29T19:27:03:997
-220,710007	27,020000	56,490002	2020-10-29T19:27:04:021
-199,710007	25,760000	60,340000	2020-10-29T19:27:04:038
-176,119995	22,540001	61,040001	2020-10-29T19:27:04:062
-154,070007	22,260000	58,380001	2020-10-29T19:27:04:078
-130,339996	23,799999	53,200001	2020-10-29T19:27:04:102
-106,260002	21,840000	45,709999	2020-10-29T19:27:04:118
-83,790001	18,480000	36,820000	2020-10-29T19:27:04:142
-67,480003	16,590000	30,730000	2020-10-29T19:27:04:158
-61,599998	9,450000	22,889999	2020-10-29T19:27:04:181
-67,410004	-1,050000	12,530000	2020-10-29T19:27:04:198
-74,970001	3,290000	3,640000	2020-10-29T19:27:04:222
-74,340004	5,950000	-7,070000	2020-10-29T19:27:04:238
-63,700001	3,850000	-20,860001	2020-10-29T19:27:04:261
-45,709999	3,360000	-29,889999	2020-10-29T19:27:04:278
-25,620001	5,530000	-31,920000	2020-10-29T19:27:04:301
-2,590000	8,750000	-26,110001	2020-10-29T19:27:04:318
21,210001	2,730000	-17,430000	2020-10-29T19:27:04:342
50,889999	-10,920000	-9,940000	2020-10-29T19:27:04:358
82,669998	-9,310000	-12,320000	2020-10-29T19:27:04:382
63,560001	-3,710000	-11,130000	2020-10-29T19:27:04:399
35,000000	1,540000	-1,120000	2020-10-29T19:27:04:421
24,639999	15,960000	4,760000	2020-10-29T19:27:04:438
17,639999	27,230000	10,360000	2020-10-29T19:27:04:462
7,630000	31,780001	19,670000	2020-10-29T19:27:04:478
-3,360000	33,740002	28,280001	2020-10-29T19:27:04:501
-17,990000	31,639999	35,139999	2020-10-29T19:27:04:518
-31,920000	27,370001	38,430000	2020-10-29T19:27:04:542
-41,160000	24,710001	37,170002	2020-10-29T19:27:04:558
-46,619999	23,940001	32,060001	2020-10-29T19:27:04:582
-56,070000	24,570000	25,129999	2020-10-29T19:27:04:598
-66,570000	26,460001	16,450001	2020-10-29T19:27:04:622
-75,669998	27,580000	6,300000	2020-10-29T19:27:04:638
-83,160004	27,299999	-4,200000	2020-10-29T19:27:04:661
-85,750000	28,350000	-15,400000	2020-10-29T19:27:04:678
-84,559998	30,520000	-25,969999	2020-10-29T19:27:04:702
-78,050003	32,200001	-36,189999	2020-10-29T19:27:04:719
-67,970001	33,110001	-45,009998	2020-10-29T19:27:04:741
-58,799999	32,549999	-51,450001	2020-10-29T19:27:04:758
-54,599998	33,740002	-54,740002	2020-10-29T19:27:04:782
-57,049999	35,420002	-54,459999	2020-10-29T19:27:04:799
-62,090000	36,959999	-51,939999	2020-10-29T19:27:04:824
-65,730003	37,590000	-48,509998	2020-10-29T19:27:04:838
-73,430000	26,600000	-48,299999	2020-10-29T19:27:04:862
-82,599998	30,380001	-46,619999	2020-10-29T19:27:04:879
-82,809998	38,290001	-48,860001	2020-10-29T19:27:04:901
-70,910004	33,810001	-56,139999	2020-10-29T19:27:04:919
-46,689999	36,540001	-60,760002	2020-10-29T19:27:04:942
-12,390000	35,770000	-66,220001	2020-10-29T19:27:04:958
29,610001	27,020000	-71,050003	2020-10-29T19:27:04:982
73,639999	19,740000	-72,870003	2020-10-29T19:27:04:999
113,889999	15,890000	-70,769997	2020-10-29T19:27:05:028
141,119995	8,680000	-67,550003	2020-10-29T19:27:05:039
145,809998	-0,070000	-64,330002	2020-10-29T19:27:05:063
117,529999	3,640000	-56,630001	2020-10-29T19:27:05:079
50,820000	16,309999	-45,220001	2020-10-29T19:27:05:103
-11,340000	25,480000	-21,420000	2020-10-29T19:27:05:119
-42,560001	27,230000	-4,970000	2020-10-29T19:27:05:142
-48,860001	25,480000	7,140000	2020-10-29T19:27:05:159
-50,680000	24,500000	19,180000	2020-10-29T19:27:05:182
-58,520000	19,600000	30,380001	2020-10-29T19:27:05:199
-61,880001	9,030000	38,709999	2020-10-29T19:27:05:222
-60,830002	-0,210000	42,070000	2020-10-29T19:27:05:239
-70,840004	-3,640000	41,230000	2020-10-29T19:27:05:263
-89,879997	-3,430000	41,020000	2020-10-29T19:27:05:279
-103,809998	-1,960000	39,410000	2020-10-29T19:27:05:303
-99,400002	-0,140000	32,689999	2020-10-29T19:27:05:319
-73,080002	2,380000	21,000000	2020-10-29T19:27:05:343
-36,259998	3,710000	8,120000	2020-10-29T19:27:05:359
5,670000	3,010000	-4,200000	2020-10-29T19:27:05:382
46,830002	-2,660000	-18,549999	2020-10-29T19:27:05:399
87,709999	-11,620000	-31,920000	2020-10-29T19:27:05:423
126,910004	-18,129999	-43,259998	2020-10-29T19:27:05:439
164,220001	-20,020000	-50,470001	2020-10-29T19:27:05:462
194,250000	-17,780001	-53,060001	2020-10-29T19:27:05:480
209,160004	-13,300000	-50,750000	2020-10-29T19:27:05:503
203,910004	-10,570000	-43,400002	2020-10-29T19:27:05:519
182,490005	-21,280001	-37,310001	2020-10-29T19:27:05:544
157,080002	-30,590000	-33,320000	2020-10-29T19:27:05:559
129,779999	-4,690000	-18,270000	2020-10-29T19:27:05:583
104,580002	7,070000	-7,140000	2020-10-29T19:27:05:600
82,040001	0,840000	0,700000	2020-10-29T19:27:05:623
63,209999	7,280000	17,430000	2020-10-29T19:27:05:639
55,720001	22,750000	28,420000	2020-10-29T19:27:05:664
48,230000	24,990000	38,570000	2020-10-29T19:27:05:679
37,450001	14,140000	45,009998	2020-10-29T19:27:05:702
40,320000	0,560000	41,369999	2020-10-29T19:27:05:720
48,580002	4,900000	36,680000	2020-10-29T19:27:05:744
61,180000	18,480000	30,940001	2020-10-29T19:27:05:760
78,330002	32,549999	24,360001	2020-10-29T19:27:05:783
86,800003	45,360001	22,330000	2020-10-29T19:27:05:799
76,370003	50,540001	26,670000	2020-10-29T19:27:05:824
54,250000	47,950001	36,540001	2020-10-29T19:27:05:840
30,309999	40,599998	49,000000	2020-10-29T19:27:05:863
7,980000	30,450001	61,040001	2020-10-29T19:27:05:880
-14,490000	17,290001	70,980003	2020-10-29T19:27:05:904
-32,689999	3,360000	75,110001	2020-10-29T19:27:05:920
-39,340000	-7,630000	72,309998	2020-10-29T19:27:05:943
-32,410000	-14,070000	64,540001	2020-10-29T19:27:05:960
-14,840000	-14,840000	53,619999	2020-10-29T19:27:05:984
11,270000	-15,330000	40,110001	2020-10-29T19:27:06:000
40,529999	-14,700000	24,360001	2020-10-29T19:27:06:024
64,610001	-11,410000	9,240000	2020-10-29T19:27:06:039
77,910004	-8,610000	-5,250000	2020-10-29T19:27:06:064
80,500000	-14,350000	-20,090000	2020-10-29T19:27:06:080
71,820000	-22,190001	-32,689999	2020-10-29T19:27:06:103
54,320000	-11,270000	-33,389999	2020-10-29T19:27:06:120
40,250000	-11,830000	-32,689999	2020-10-29T19:27:06:143
36,959999	-24,080000	-29,889999	2020-10-29T19:27:06:160
49,980000	-35,560001	-22,120001	2020-10-29T19:27:06:184
78,680000	-43,119999	-12,880000	2020-10-29T19:27:06:200
101,570000	-33,950001	4,200000	2020-10-29T19:27:06:224
130,059998	-55,580002	13,580000	2020-10-29T19:27:06:240
168,070007	-79,099998	18,620001	2020-10-29T19:27:06:264
239,610001	-75,110001	21,420000	2020-10-29T19:27:06:280
333,760010	-54,810001	19,740000	2020-10-29T19:27:06:304
393,329987	-35,139999	19,040001	2020-10-29T19:27:06:321
388,220001	-18,129999	24,010000	2020-10-29T19:27:06:343
342,790009	-4,060000	34,860001	2020-10-29T19:27:06:360
280,279999	-0,490000	47,529999	2020-10-29T19:27:06:384
229,110001	-6,230000	60,410000	2020-10-29T19:27:06:400
203,070007	-10,780000	67,900002	2020-10-29T19:27:06:424
204,470001	-12,810000	73,150002	2020-10-29T19:27:06:441
230,020004	-9,660000	71,190002	2020-10-29T19:27:06:463
248,710007	-12,880000	73,570000	2020-10-29T19:27:06:481
262,570007	-26,320000	79,800003	2020-10-29T19:27:06:503
275,380005	-38,570000	83,090004	2020-10-29T19:27:06:521
282,100006	-41,650002	84,489998	2020-10-29T19:27:06:544
280,350006	-39,830002	82,949997	2020-10-29T19:27:06:560
253,330002	-39,480000	75,949997	2020-10-29T19:27:06:583
208,880005	-37,869999	78,400002	2020-10-29T19:27:06:600
177,729996	-34,439999	80,080002	2020-10-29T19:27:06:625
152,460007	-31,500000	84,489998	2020-10-29T19:27:06:640
148,259995	-42,349998	84,489998	2020-10-29T19:27:06:664
162,470001	-66,709999	66,989998	2020-10-29T19:27:06:681
164,990005	-77,489998	51,590000	2020-10-29T19:27:06:704
152,320007	-73,779999	41,580002	2020-10-29T19:27:06:721
127,540001	-80,779999	28,139999	2020-10-29T19:27:06:744
123,550003	-81,550003	11,480000	2020-10-29T19:27:06:760
122,989998	-70,349998	6,580000	2020-10-29T19:27:06:786
116,550003	-47,880001	9,030000	2020-10-29T19:27:06:801
116,830002	-33,950001	16,940001	2020-10-29T19:27:06:824
116,059998	-24,570000	25,620001	2020-10-29T19:27:06:841
108,500000	-14,980000	34,439999	2020-10-29T19:27:06:865
104,860001	-6,440000	37,450001	2020-10-29T19:27:06:881
109,340004	3,920000	33,880001	2020-10-29T19:27:06:903
106,540001	8,050000	34,720001	2020-10-29T19:27:06:921
103,739998	2,660000	33,250000	2020-10-29T19:27:06:945
107,660004	-2,520000	23,240000	2020-10-29T19:27:06:961
95,199997	-8,190000	15,260000	2020-10-29T19:27:06:985
88,059998	-11,410000	14,980000	2020-10-29T19:27:07:001
109,480003	-7,280000	3,710000	2020-10-29T19:27:07:026
104,860001	2,520000	1,540000	2020-10-29T19:27:07:041
73,709999	13,020000	10,850000	2020-10-29T19:27:07:064
57,750000	24,080000	9,100000	2020-10-29T19:27:07:081
74,480003	37,310001	9,310000	2020-10-29T19:27:07:105
71,610001	35,840000	12,670000	2020-10-29T19:27:07:120
64,610001	36,119999	17,290001	2020-10-29T19:27:07:144
70,489998	37,029999	18,129999	2020-10-29T19:27:07:161
79,590004	43,680000	20,790001	2020-10-29T19:27:07:184
98,910004	53,410000	21,070000	2020-10-29T19:27:07:201
118,090004	67,129997	16,450001	2020-10-29T19:27:07:226
102,340004	77,139999	11,760000	2020-10-29T19:27:07:241
91,769997	89,809998	-1,260000	2020-10-29T19:27:07:265
75,250000	104,650002	-2,940000	2020-10-29T19:27:07:281
63,209999	118,230003	-2,660000	2020-10-29T19:27:07:304
58,730000	130,479996	-2,240000	2020-10-29T19:27:07:321
52,570000	138,389999	1,050000	2020-10-29T19:27:07:345
48,090000	148,610001	0,280000	2020-10-29T19:27:07:361
50,119999	157,500000	-1,050000	2020-10-29T19:27:07:384
49,910000	161,350006	-3,570000	2020-10-29T19:27:07:401
42,209999	158,059998	-15,260000	2020-10-29T19:27:07:425
42,700001	151,970001	-24,710001	2020-10-29T19:27:07:441
61,320000	144,130005	-47,880001	2020-10-29T19:27:07:463
75,739998	150,779999	-50,540001	2020-10-29T19:27:07:481
-2,450000	110,949997	-35,279999	2020-10-29T19:27:07:505
-90,790001	90,650002	-23,520000	2020-10-29T19:27:07:521
-114,099998	94,989998	-7,280000	2020-10-29T19:27:07:543
-105,070000	85,959999	5,670000	2020-10-29T19:27:07:561
-58,240002	70,000000	14,770000	2020-10-29T19:27:07:586
-0,840000	53,900002	17,010000	2020-10-29T19:27:07:601
27,790001	41,509998	13,860000	2020-10-29T19:27:07:625
28,840000	35,980000	9,170000	2020-10-29T19:27:08:131
13,510000	34,090000	3,710000	2020-10-29T19:27:08:155
-6,160000	29,820000	-3,080000	2020-10-29T19:27:08:157
-19,320000	24,639999	-6,930000	2020-10-29T19:27:08:161
-17,990000	17,639999	-11,550000	2020-10-29T19:27:08:173
-4,760000	15,960000	-11,130000	2020-10-29T19:27:08:179
11,690000	10,850000	-12,670000	2020-10-29T19:27:08:180
25,059999	1,890000	-15,260000	2020-10-29T19:27:08:180
29,820000	-7,140000	-13,160000	2020-10-29T19:27:08:181
25,620001	-13,790000	-9,100000	2020-10-29T19:27:08:182
19,389999	-15,470000	-5,250000	2020-10-29T19:27:08:182
8,820000	-19,740000	-2,590000	2020-10-29T19:27:08:183
5,530000	-13,720000	-0,910000	2020-10-29T19:27:08:183
-6,650000	-13,580000	2,030000	2020-10-29T19:27:08:184
-17,570000	-18,270000	-1,540000	2020-10-29T19:27:08:184
-17,639999	-16,730000	-1,540000	2020-10-29T19:27:08:184
-9,870000	-10,640000	-4,550000	2020-10-29T19:27:08:185
-5,670000	-9,730000	-2,310000	2020-10-29T19:27:08:189
-3,710000	-3,360000	-5,040000	2020-10-29T19:27:08:190
-3,010000	-3,360000	-5,040000	2020-10-29T19:27:08:190
-3,780000	1,750000	-7,490000	2020-10-29T19:27:08:195
-2,730000	4,130000	-7,210000	2020-10-29T19:27:08:206
-3,220000	5,460000	-7,210000	2020-10-29T19:27:08:206
-4,550000	6,300000	-6,860000	2020-10-29T19:27:08:207
-2,590000	6,510000	-6,650000	2020-10-29T19:27:08:208
-1,610000	8,120000	-4,760000	2020-10-29T19:27:08:208
-2,590000	7,350000	-4,130000	2020-10-29T19:27:08:209
-4,270000	7,000000	-2,800000	2020-10-29T19:27:08:210
-4,550000	6,160000	-1,120000	2020-10-29T19:27:08:212
-4,690000	4,830000	-1,120000	2020-10-29T19:27:08:294
-5,320000	3,150000	0,630000	2020-10-29T19:27:08:295
-6,580000	1,960000	0,980000	2020-10-29T19:27:08:310
-7,000000	1,610000	1,470000	2020-10-29T19:27:08:343
-7,280000	2,240000	1,960000	2020-10-29T19:27:08:343
-7,910000	2,520000	2,030000	2020-10-29T19:27:08:345
-7,840000	3,290000	1,190000	2020-10-29T19:27:08:345
-7,560000	2,660000	0,350000	2020-10-29T19:27:08:361
-7,840000	3,570000	-0,140000	2020-10-29T19:27:08:384
-6,790000	4,970000	-0,280000	2020-10-29T19:27:08:403
-4,550000	5,110000	-0,420000	2020-10-29T19:27:08:424
-2,940000	5,880000	-0,280000	2020-10-29T19:27:08:441
-1,960000	5,320000	-0,070000	2020-10-29T19:27:08:471
-0,350000	4,340000	0,350000	2020-10-29T19:27:08:482
1,470000	3,220000	0,700000	2020-10-29T19:27:08:509
1,820000	1,470000	0,910000	2020-10-29T19:27:08:523
1,960000	0,420000	0,490000	2020-10-29T19:27:08:545
1,960000	-0,140000	0,420000	2020-10-29T19:27:08:561
2,520000	-0,070000	0,140000	2020-10-29T19:27:08:583
2,590000	0,210000	-0,210000	2020-10-29T19:27:08:602
1,540000	0,910000	-0,560000	2020-10-29T19:27:08:626
0,980000	1,960000	-0,630000	2020-10-29T19:27:08:643
1,400000	2,940000	-1,120000	2020-10-29T19:27:08:849
1,050000	2,520000	-1,330000	2020-10-29T19:27:08:850
0,980000	2,310000	-1,400000	2020-10-29T19:27:08:850
0,700000	2,170000	-0,980000	2020-10-29T19:27:08:869
0,210000	1,610000	-0,980000	2020-10-29T19:27:08:869
-0,280000	1,120000	-0,840000	2020-10-29T19:27:08:870
-0,560000	1,050000	-0,420000	2020-10-29T19:27:08:870
-1,820000	0,840000	-0,140000	2020-10-29T19:27:08:874
-2,450000	0,630000	0,070000	2020-10-29T19:27:08:875
-2,310000	0,350000	0,210000	2020-10-29T19:27:08:876
-1,960000	1,050000	0,280000	2020-10-29T19:27:08:876
-1,820000	1,470000	0,700000	2020-10-29T19:27:08:882
-0,770000	1,610000	1,120000	2020-10-29T19:27:08:906
-0,280000	2,450000	1,190000	2020-10-29T19:27:08:922
0,840000	1,750000	0,630000	2020-10-29T19:27:08:946
1,330000	1,260000	-0,070000	2020-10-29T19:27:08:962
1,050000	0,560000	-0,420000	2020-10-29T19:27:08:987
0,980000	0,560000	-0,350000	2020-10-29T19:27:09:080
-0,560000	1,120000	0,630000	2020-10-29T19:27:09:086
-2,030000	1,540000	1,330000	2020-10-29T19:27:09:087
-3,290000	1,400000	1,680000	2020-10-29T19:27:09:087
-4,060000	1,610000	1,960000	2020-10-29T19:27:09:088
-4,340000	2,030000	2,590000	2020-10-29T19:27:09:113
-2,660000	2,590000	4,130000	2020-10-29T19:27:09:123
-0,490000	3,780000	5,180000	2020-10-29T19:27:09:147
0,210000	1,820000	4,340000	2020-10-29T19:27:09:171
0,070000	-1,260000	2,940000	2020-10-29T19:27:09:191
-0,420000	-2,030000	2,170000	2020-10-29T19:27:09:204
-5,670000	-2,730000	2,800000	2020-10-29T19:27:09:230
-10,780000	-2,520000	4,410000	2020-10-29T19:27:09:244
-12,670000	-0,280000	6,790000	2020-10-29T19:27:09:265
-13,370000	3,220000	10,010000	2020-10-29T19:27:09:284
-13,580000	5,740000	12,390000	2020-10-29T19:27:09:305
-13,650000	7,700000	13,860000	2020-10-29T19:27:09:324
-14,140000	8,400000	13,650000	2020-10-29T19:27:09:348
-17,639999	9,660000	13,860000	2020-10-29T19:27:09:365
-21,000000	11,480000	16,030001	2020-10-29T19:27:09:390
-15,750000	11,340000	18,059999	2020-10-29T19:27:09:416
-5,600000	10,500000	18,830000	2020-10-29T19:27:09:428
-4,830000	9,100000	16,240000	2020-10-29T19:27:09:443
-13,160000	8,750000	15,050000	2020-10-29T19:27:09:468
-23,309999	5,320000	13,930000	2020-10-29T19:27:09:483
-24,360001	-0,840000	11,550000	2020-10-29T19:27:09:507
-18,900000	-7,140000	11,200000	2020-10-29T19:27:09:524
-11,130000	-10,010000	14,560000	2020-10-29T19:27:09:548
-16,379999	-8,190000	23,660000	2020-10-29T19:27:09:566
-25,969999	-8,400000	27,020000	2020-10-29T19:27:09:589
-33,810001	-13,930000	29,049999	2020-10-29T19:27:09:606
-40,250000	-21,070000	34,090000	2020-10-29T19:27:09:629
-38,709999	-23,940001	35,980000	2020-10-29T19:27:09:643
-49,420002	-19,950001	38,639999	2020-10-29T19:27:09:669
-61,180000	-38,290001	46,689999	2020-10-29T19:27:09:683
-62,650002	-55,439999	50,889999	2020-10-29T19:27:09:706
-50,820000	-71,120003	46,130001	2020-10-29T19:27:09:726
-56,070000	-86,730003	31,219999	2020-10-29T19:27:09:748
-82,250000	-98,139999	22,820000	2020-10-29T19:27:09:763
-65,940002	-102,900002	24,150000	2020-10-29T19:27:09:786
-59,990002	-100,309998	16,870001	2020-10-29T19:27:09:805
-76,790001	-101,919998	11,620000	2020-10-29T19:27:09:827
-67,129997	-112,279999	9,450000	2020-10-29T19:27:09:845
-44,029999	-116,410004	5,600000	2020-10-29T19:27:09:869
-16,940001	-119,629997	2,520000	2020-10-29T19:27:09:883
-15,330000	-124,949997	2,940000	2020-10-29T19:27:09:907
-27,090000	-134,750000	-5,740000	2020-10-29T19:27:09:925
-40,040001	-138,389999	-8,470000	2020-10-29T19:27:09:948
-54,250000	-143,430008	-13,860000	2020-10-29T19:27:09:963
-54,599998	-145,809998	-20,930000	2020-10-29T19:27:09:988
-6,790000	-145,460007	-32,060001	2020-10-29T19:27:10:008
0,280000	-144,059998	-38,920002	2020-10-29T19:27:10:032
2,310000	-150,779999	-45,080002	2020-10-29T19:27:10:047
11,340000	-154,490005	-56,070000	2020-10-29T19:27:10:072
21,350000	-156,169998	-70,699997	2020-10-29T19:27:10:085
16,030001	-154,490005	-82,180000	2020-10-29T19:27:10:120
2,730000	-148,960007	-91,139999	2020-10-29T19:27:10:256
-16,379999	-144,339996	-92,959999	2020-10-29T19:27:10:257
-48,720001	-141,680008	-84,349998	2020-10-29T19:27:10:257
-82,809998	-128,729996	-64,470001	2020-10-29T19:27:10:258
-87,849998	-97,160004	-48,930000	2020-10-29T19:27:10:258
-72,309998	-53,340000	-34,580002	2020-10-29T19:27:10:306
-57,470001	-27,510000	-21,420000	2020-10-29T19:27:10:307
-51,660000	-14,700000	-14,910000	2020-10-29T19:27:10:307
-73,709999	-9,450000	-4,200000	2020-10-29T19:27:10:308
-97,650002	-4,130000	-5,320000	2020-10-29T19:27:10:308
-104,510002	1,960000	-11,200000	2020-10-29T19:27:10:322
-108,220001	3,710000	-16,170000	2020-10-29T19:27:10:346
-115,639999	1,540000	-17,639999	2020-10-29T19:27:10:364
-115,360001	0,420000	-19,740000	2020-10-29T19:27:10:389
-101,010002	4,550000	-26,460001	2020-10-29T19:27:10:413
-78,190002	9,450000	-35,840000	2020-10-29T19:27:10:518
-50,820000	11,340000	-45,220001	2020-10-29T19:27:10:520
-23,590000	11,060000	-50,540001	2020-10-29T19:27:10:520
-0,980000	9,100000	-51,869999	2020-10-29T19:27:10:540
14,910000	4,690000	-50,259998	2020-10-29T19:27:10:541
21,910000	-2,100000	-45,779999	2020-10-29T19:27:10:542
25,059999	-7,770000	-39,830002	2020-10-29T19:27:10:547
26,740000	-14,280000	-34,020000	2020-10-29T19:27:10:564
28,770000	-16,100000	-28,070000	2020-10-29T19:27:10:591
34,020000	-16,030001	-22,680000	2020-10-29T19:27:10:603
43,049999	-18,200001	-19,670000	2020-10-29T19:27:10:628
51,520000	-18,059999	-17,150000	2020-10-29T19:27:10:644
55,299999	-15,750000	-14,070000	2020-10-29T19:27:10:669
55,650002	-12,740000	-11,830000	2020-10-29T19:27:10:694
55,090000	-11,620000	-10,080000	2020-10-29T19:27:10:773
53,619999	-10,850000	-8,610000	2020-10-29T19:27:10:775
50,049999	-9,520000	-7,630000	2020-10-29T19:27:10:776
44,240002	-7,210000	-6,790000	2020-10-29T19:27:10:776
35,910000	-6,510000	-5,880000	2020-10-29T19:27:10:794
24,500000	-6,160000	-4,480000	2020-10-29T19:27:10:805
12,040000	-4,970000	-2,310000	2020-10-29T19:27:10:839
-0,350000	-4,060000	0,840000	2020-10-29T19:27:10:844
-7,910000	-3,710000	4,200000	2020-10-29T19:27:10:868
-11,130000	-4,200000	7,280000	2020-10-29T19:27:10:884
-12,180000	-5,460000	9,730000	2020-10-29T19:27:10:908
-5,460000	-7,490000	10,360000	2020-10-29T19:27:10:925
11,760000	-7,000000	8,470000	2020-10-29T19:27:10:949
32,830002	-1,890000	6,090000	2020-10-29T19:27:10:965
44,660000	4,480000	6,090000	2020-10-29T19:27:10:988
48,230000	6,860000	7,140000	2020-10-29T19:27:11:005
54,110001	3,780000	6,930000	2020-10-29T19:27:11:029
60,200001	5,110000	7,910000	2020-10-29T19:27:11:045
59,990002	9,310000	10,920000	2020-10-29T19:27:11:067
50,049999	13,160000	17,010000	2020-10-29T19:27:11:085
39,060001	17,570000	22,889999	2020-10-29T19:27:11:109
22,469999	24,430000	30,240000	2020-10-29T19:27:11:125
0,770000	29,540001	38,570000	2020-10-29T19:27:11:148
-20,719999	32,619999	47,250000	2020-10-29T19:27:11:165
-38,570000	34,090000	55,650002	2020-10-29T19:27:11:189
-53,760002	29,330000	62,510002	2020-10-29T19:27:11:205
-63,139999	20,440001	67,690002	2020-10-29T19:27:11:286
-64,959999	15,820000	71,190002	2020-10-29T19:27:11:287
-61,459999	13,790000	73,010002	2020-10-29T19:27:11:288
-47,180000	10,360000	72,660004	2020-10-29T19:27:11:288
-23,030001	5,950000	69,720001	2020-10-29T19:27:11:311
-1,610000	2,660000	65,519997	2020-10-29T19:27:11:325
11,340000	-0,210000	61,040001	2020-10-29T19:27:11:352
19,180000	-3,010000	54,320000	2020-10-29T19:27:11:365
20,650000	-5,880000	46,270000	2020-10-29T19:27:11:389
17,500000	-9,030000	38,990002	2020-10-29T19:27:11:405
14,070000	-12,320000	33,389999	2020-10-29T19:27:11:430
4,830000	-17,990000	30,450001	2020-10-29T19:27:11:445
-19,740000	-26,950001	29,750000	2020-10-29T19:27:11:468
-45,849998	-36,889999	25,620001	2020-10-29T19:27:11:486
-63,070000	-45,779999	17,219999	2020-10-29T19:27:11:509
-65,730003	-53,270000	3,430000	2020-10-29T19:27:11:526
-60,200001	-55,790001	-12,530000	2020-10-29T19:27:11:549
-43,470001	-54,529999	-27,650000	2020-10-29T19:27:11:565
-12,320000	-55,090000	-41,439999	2020-10-29T19:27:11:590
25,129999	-52,500000	-49,139999	2020-10-29T19:27:11:606
63,490002	-42,279999	-48,720001	2020-10-29T19:27:11:629
104,720001	-26,600000	-42,000000	2020-10-29T19:27:11:646
136,850006	-14,070000	-30,870001	2020-10-29T19:27:11:677
-17,850000	-34,230000	8,610000	2020-10-29T19:27:17:099
-66,290001	-36,189999	-5,530000	2020-10-29T19:27:17:110
-139,509995	-28,630001	-26,180000	2020-10-29T19:27:17:125
-168,979996	-27,370001	-45,220001	2020-10-29T19:27:17:145
-192,009995	-29,469999	-65,519997	2020-10-29T19:27:17:155
-214,899994	-21,559999	-78,400002	2020-10-29T19:27:17:171
-241,779999	-11,200000	-86,660004	2020-10-29T19:27:17:196
-284,059998	-9,870000	-90,370003	2020-10-29T19:27:17:214
-336,980011	-16,100000	-91,489998	2020-10-29T19:27:17:236
-384,860016	0,560000	-76,510002	2020-10-29T19:27:17:252
-401,029999	8,470000	-63,630001	2020-10-29T19:27:17:276
-368,339996	-5,110000	-68,879997	2020-10-29T19:27:17:292
-288,820007	-17,500000	-76,230003	2020-10-29T19:27:17:317
-166,529999	-29,469999	-80,570000	2020-10-29T19:27:17:332
-30,660000	-42,420002	-85,470001	2020-10-29T19:27:17:358
71,959999	-50,889999	-84,070000	2020-10-29T19:27:17:372
110,389999	-51,939999	-76,930000	2020-10-29T19:27:17:395
97,090004	-36,750000	-60,830002	2020-10-29T19:27:17:412
126,279999	-32,340000	-34,439999	2020-10-29T19:27:17:437
181,930008	-35,139999	-33,529999	2020-10-29T19:27:17:453
222,600006	-32,200001	-32,410000	2020-10-29T19:27:17:475
261,869995	-25,900000	-31,219999	2020-10-29T19:27:17:492
301,559998	-16,870001	-32,619999	2020-10-29T19:27:17:516
320,390015	-5,110000	-33,110001	2020-10-29T19:27:17:532
304,429993	12,950000	-27,860001	2020-10-29T19:27:17:556
248,290009	28,139999	-16,450001	2020-10-29T19:27:17:572
166,600006	28,770000	1,190000	2020-10-29T19:27:17:597
73,570000	15,680000	17,570000	2020-10-29T19:27:17:613
-19,320000	-2,170000	30,100000	2020-10-29T19:27:17:635
-106,400002	-10,640000	42,279999	2020-10-29T19:27:17:653
-168,910004	-14,840000	48,230000	2020-10-29T19:27:17:677
-197,050003	-17,500000	46,619999	2020-10-29T19:27:17:693
-194,949997	-17,080000	40,740002	2020-10-29T19:27:17:716
-170,800003	-13,300000	33,670002	2020-10-29T19:27:17:733
-129,779999	-7,210000	26,040001	2020-10-29T19:27:17:757
-75,879997	-1,750000	15,820000	2020-10-29T19:27:17:774
-19,320000	3,360000	7,000000	2020-10-29T19:27:17:797
24,920000	11,340000	2,170000	2020-10-29T19:27:17:812
59,150002	16,379999	-0,420000	2020-10-29T19:27:17:837
81,199997	15,540000	-1,120000	2020-10-29T19:27:17:853
84,910004	13,720000	0,840000	2020-10-29T19:27:17:876
71,889999	13,860000	5,740000	2020-10-29T19:27:17:893
42,420002	15,260000	12,950000	2020-10-29T19:27:17:917
-1,540000	4,060000	14,140000	2020-10-29T19:27:17:933
-54,599998	4,970000	17,710001	2020-10-29T19:27:17:956
-106,120003	25,969999	28,070000	2020-10-29T19:27:17:973
-135,240005	21,070000	26,600000	2020-10-29T19:27:17:997
-149,029999	13,160000	23,240000	2020-10-29T19:27:18:013
-145,809998	12,950000	22,960001	2020-10-29T19:27:18:038
-124,040001	11,060000	16,870001	2020-10-29T19:27:18:053
-89,809998	9,660000	10,850000	2020-10-29T19:27:18:077
-48,580002	11,900000	5,810000	2020-10-29T19:27:18:093
-8,890000	24,710001	5,880000	2020-10-29T19:27:18:116
21,490000	21,770000	3,570000	2020-10-29T19:27:18:133
41,230000	12,530000	-0,980000	2020-10-29T19:27:18:158
50,049999	14,000000	-2,660000	2020-10-29T19:27:18:173
44,380001	20,160000	-2,940000	2020-10-29T19:27:18:196
14,910000	30,030001	1,540000	2020-10-29T19:27:18:213
-9,310000	36,400002	7,700000	2020-10-29T19:27:18:237
-30,590000	37,520000	14,070000	2020-10-29T19:27:18:253
-47,529999	35,279999	21,490000	2020-10-29T19:27:18:277
-59,430000	32,549999	28,280001	2020-10-29T19:27:18:293
-65,870003	28,210001	34,650002	2020-10-29T19:27:18:317
-70,419998	20,930000	38,500000	2020-10-29T19:27:18:333
-75,110001	11,550000	37,450001	2020-10-29T19:27:18:356
-82,669998	4,900000	33,529999	2020-10-29T19:27:18:373
-93,800003	4,270000	28,490000	2020-10-29T19:27:18:398
-107,169998	5,390000	21,070000	2020-10-29T19:27:18:413
-120,400002	4,760000	10,500000	2020-10-29T19:27:18:436
-131,600006	2,520000	-1,890000	2020-10-29T19:27:18:453
-143,919998	-2,100000	-13,790000	2020-10-29T19:27:18:476
-158,690002	-7,840000	-23,799999	2020-10-29T19:27:18:493
-177,240005	-13,790000	-30,940001	2020-10-29T19:27:18:517
-184,169998	-16,240000	-32,970001	2020-10-29T19:27:18:533
-180,880005	-11,480000	-32,200001	2020-10-29T19:27:18:557
-180,880005	-0,140000	-19,320000	2020-10-29T19:27:18:573
-159,809998	13,580000	-7,350000	2020-10-29T19:27:18:596
-113,190002	21,840000	-2,030000	2020-10-29T19:27:18:614
-57,820000	18,830000	-3,430000	2020-10-29T19:27:18:638
-20,580000	-5,530000	-12,250000	2020-10-29T19:27:18:654
-29,469999	-14,630000	-19,389999	2020-10-29T19:27:18:677
3,360000	5,810000	-13,300000	2020-10-29T19:27:18:693
33,040001	5,390000	-20,090000	2020-10-29T19:27:18:717
63,700001	7,070000	-12,180000	2020-10-29T19:27:18:733
86,519997	6,090000	-9,730000	2020-10-29T19:27:18:758
145,039993	26,880001	1,680000	2020-10-29T19:27:18:773
183,190002	41,580002	2,730000	2020-10-29T19:27:18:797
174,720001	19,879999	12,110000	2020-10-29T19:27:18:814
166,529999	6,790000	12,950000	2020-10-29T19:27:18:836
150,009995	8,050000	8,540000	2020-10-29T19:27:18:854
116,270004	16,450001	9,310000	2020-10-29T19:27:18:877
74,900002	19,040001	12,950000	2020-10-29T19:27:18:893
37,590000	21,070000	15,610000	2020-10-29T19:27:18:918
8,260000	22,049999	18,969999	2020-10-29T19:27:18:934
-14,210000	23,799999	24,360001	2020-10-29T19:27:18:958
-29,680000	25,900000	30,520000	2020-10-29T19:27:18:974
-38,570000	26,250000	36,610001	2020-10-29T19:27:18:998
-44,240002	22,820000	40,459999	2020-10-29T19:27:19:014
-49,000000	17,080000	43,189999	2020-10-29T19:27:19:038
-53,200001	12,810000	43,610001	2020-10-29T19:27:19:054
-57,470001	11,200000	42,000000	2020-10-29T19:27:19:076
-59,570000	10,220000	38,080002	2020-10-29T19:27:19:094
-58,939999	10,080000	32,200001	2020-10-29T19:27:19:118
-58,660000	10,780000	25,410000	2020-10-29T19:27:19:134
-61,950001	10,290000	16,660000	2020-10-29T19:27:19:157
-72,449997	9,660000	6,860000	2020-10-29T19:27:19:174
-90,650002	10,500000	-2,730000	2020-10-29T19:27:19:198
-111,300003	11,340000	-12,670000	2020-10-29T19:27:19:215
-129,710007	11,900000	-22,400000	2020-10-29T19:27:19:237
-143,919998	13,090000	-30,240000	2020-10-29T19:27:19:255
-153,509995	15,050000	-36,330002	2020-10-29T19:27:19:278
-157,500000	21,350000	-46,130001	2020-10-29T19:27:19:294
-164,990005	37,170002	-46,830002	2020-10-29T19:27:19:317
-172,550003	24,290001	-52,500000	2020-10-29T19:27:19:335
-185,149994	30,030001	-48,509998	2020-10-29T19:27:19:358
-198,309998	41,720001	-41,299999	2020-10-29T19:27:19:374
-197,889999	41,020000	-34,299999	2020-10-29T19:27:19:397
-178,710007	49,420002	-20,930000	2020-10-29T19:27:19:414
-145,180008	54,950001	-7,210000	2020-10-29T19:27:19:437
-113,470001	48,160000	8,190000	2020-10-29T19:27:19:455
-86,730003	41,020000	23,170000	2020-10-29T19:27:19:479
-69,860001	38,220001	35,910000	2020-10-29T19:27:19:494
-64,400002	34,369999	46,060001	2020-10-29T19:27:19:519
-68,320000	30,940001	52,779999	2020-10-29T19:27:19:534
-73,430000	27,930000	56,070000	2020-10-29T19:27:19:558
-74,900002	26,530001	55,090000	2020-10-29T19:27:19:574
-71,540001	28,840000	50,820000	2020-10-29T19:27:19:598
-66,290001	32,759998	44,099998	2020-10-29T19:27:19:614
-63,070000	37,170002	35,630001	2020-10-29T19:27:19:637
-58,590000	40,250000	26,740000	2020-10-29T19:27:19:655
-48,439999	41,930000	18,270000	2020-10-29T19:27:19:678
-34,160000	40,670002	10,990000	2020-10-29T19:27:19:695
-16,170000	34,160000	4,900000	2020-10-29T19:27:19:719
3,920000	24,150000	0,700000	2020-10-29T19:27:19:734
19,809999	16,590000	0,070000	2020-10-29T19:27:19:766
18,830000	10,080000	0,560000	2020-10-29T19:27:19:775
1,890000	1,050000	-0,910000	2020-10-29T19:27:19:798
-17,920000	-11,410000	-3,640000	2020-10-29T19:27:19:815
-41,299999	-20,160000	-11,130000	2020-10-29T19:27:19:839
-64,330002	-14,140000	-14,980000	2020-10-29T19:27:19:855
-64,610001	0,210000	-14,000000	2020-10-29T19:27:19:878
-40,810001	9,380000	-17,780001	2020-10-29T19:27:19:895
-18,129999	13,720000	-26,740000	2020-10-29T19:27:19:919
-6,440000	14,140000	-38,290001	2020-10-29T19:27:19:935
10,430000	14,910000	-51,450001	2020-10-29T19:27:19:959
33,950001	13,860000	-63,000000	2020-10-29T19:27:19:975
55,650002	11,760000	-74,760002	2020-10-29T19:27:19:999
71,330002	12,670000	-82,879997	2020-10-29T19:27:20:015
84,070000	10,430000	-87,639999	2020-10-29T19:27:20:038
96,529999	-7,560000	-90,510002	2020-10-29T19:27:20:055
112,699997	-28,210001	-91,629997	2020-10-29T19:27:20:079
133,979996	-21,420000	-82,320000	2020-10-29T19:27:20:095
158,970001	-21,000000	-72,309998	2020-10-29T19:27:20:119
180,320007	-29,610001	-63,139999	2020-10-29T19:27:20:136
193,970001	-28,350000	-51,029999	2020-10-29T19:27:20:160
199,360001	-21,000000	-35,490002	2020-10-29T19:27:20:175
195,369995	-11,270000	-18,620001	2020-10-29T19:27:20:200
183,960007	-1,120000	-0,560000	2020-10-29T19:27:20:215
170,869995	-0,910000	13,650000	2020-10-29T19:27:20:239
160,649994	-10,640000	21,559999	2020-10-29T19:27:20:255
150,009995	-9,940000	24,290001	2020-10-29T19:27:20:278
140,070007	4,130000	24,360001	2020-10-29T19:27:20:295
129,149994	20,020000	23,240000	2020-10-29T19:27:20:319
112,840004	33,250000	22,190001	2020-10-29T19:27:20:335
88,410004	44,170002	25,340000	2020-10-29T19:27:20:359
42,980000	44,869999	37,380001	2020-10-29T19:27:20:375
14,000000	40,180000	48,230000	2020-10-29T19:27:20:399
-14,280000	31,850000	59,570000	2020-10-29T19:27:20:415
-38,080002	18,969999	67,410004	2020-10-29T19:27:20:438
-54,810001	5,110000	69,370003	2020-10-29T19:27:20:455
-60,340000	-5,110000	65,309998	2020-10-29T19:27:20:479
-51,380001	-8,120000	56,980000	2020-10-29T19:27:20:495
-28,280001	-6,160000	46,060001	2020-10-29T19:27:20:519
5,740000	-5,950000	32,200001	2020-10-29T19:27:20:535
43,680000	-4,130000	19,879999	2020-10-29T19:27:20:560
71,260002	5,530000	13,300000	2020-10-29T19:27:20:575
86,940002	10,780000	11,130000	2020-10-29T19:27:20:599
95,690002	11,900000	9,800000	2020-10-29T19:27:20:616
92,050003	14,840000	9,940000	2020-10-29T19:27:20:639
60,480000	17,430000	11,690000	2020-10-29T19:27:20:656
3,710000	17,920000	14,210000	2020-10-29T19:27:20:680
-59,150002	28,980000	21,350000	2020-10-29T19:27:20:695
-105,279999	23,590000	22,469999	2020-10-29T19:27:20:720
-124,250000	5,530000	22,330000	2020-10-29T19:27:20:735
-114,449997	-5,390000	22,889999	2020-10-29T19:27:20:759
-69,860001	-33,040001	15,330000	2020-10-29T19:27:20:775
-3,010000	-53,900002	3,850000	2020-10-29T19:27:20:799
67,550003	-51,099998	-5,880000	2020-10-29T19:27:20:816
120,400002	-41,860001	-13,860000	2020-10-29T19:27:20:839
149,380005	-37,450001	-21,770000	2020-10-29T19:27:20:856
150,360001	-28,490000	-29,120001	2020-10-29T19:27:20:880
123,270004	-16,870001	-34,650002	2020-10-29T19:27:20:896
80,570000	-10,780000	-39,689999	2020-10-29T19:27:20:920
37,380001	-12,180000	-42,630001	2020-10-29T19:27:20:935
7,210000	-18,200001	-43,680000	2020-10-29T19:27:20:960
-4,410000	-24,290001	-45,080002	2020-10-29T19:27:20:976
3,780000	-30,030001	-47,599998	2020-10-29T19:27:20:999
28,139999	-33,880001	-51,939999	2020-10-29T19:27:21:016
64,190002	-36,189999	-56,209999	2020-10-29T19:27:21:039
103,529999	-34,790001	-58,590000	2020-10-29T19:27:21:056
136,919998	-31,430000	-57,680000	2020-10-29T19:27:21:079
165,550003	-29,889999	-54,320000	2020-10-29T19:27:21:096
185,080002	-30,730000	-49,279999	2020-10-29T19:27:21:120
189,770004	-32,759998	-43,400002	2020-10-29T19:27:21:136
181,160004	-33,320000	-36,540001	2020-10-29T19:27:21:161
164,080002	-31,500000	-29,469999	2020-10-29T19:27:21:176
145,740005	-30,520000	-24,010000	2020-10-29T19:27:21:200
135,520004	-28,070000	-20,090000	2020-10-29T19:27:21:216
137,059998	-12,460000	-13,930000	2020-10-29T19:27:21:239
146,930008	-0,210000	-5,810000	2020-10-29T19:27:21:256
158,479996	-8,960000	-1,190000	2020-10-29T19:27:21:280
170,660004	-15,820000	3,010000	2020-10-29T19:27:21:296
179,899994	-9,380000	6,650000	2020-10-29T19:27:21:318
181,930008	-2,940000	8,190000	2020-10-29T19:27:21:336
177,800003	1,330000	6,370000	2020-10-29T19:27:21:360
167,509995	9,730000	4,340000	2020-10-29T19:27:21:377
145,529999	15,960000	5,530000	2020-10-29T19:27:21:400
120,540001	18,620001	5,810000	2020-10-29T19:27:21:416
98,840004	22,400000	8,680000	2020-10-29T19:27:21:440
75,879997	25,760000	18,200001	2020-10-29T19:27:21:456
63,000000	26,809999	27,510000	2020-10-29T19:27:21:479
52,920002	21,700001	36,540001	2020-10-29T19:27:21:496
47,740002	17,150000	44,450001	2020-10-29T19:27:21:520
45,150002	9,240000	50,259998	2020-10-29T19:27:21:536
45,360001	-1,610000	52,360001	2020-10-29T19:27:21:560
49,980000	-5,250000	53,689999	2020-10-29T19:27:21:577
65,870003	1,190000	54,180000	2020-10-29T19:27:21:601
90,790001	-2,240000	52,009998	2020-10-29T19:27:21:617
105,699997	-9,450000	49,139999	2020-10-29T19:27:21:639
111,370003	-8,820000	49,070000	2020-10-29T19:27:21:657
112,419998	-0,910000	51,939999	2020-10-29T19:27:21:682
103,040001	6,790000	55,160000	2020-10-29T19:27:21:697
83,720001	8,750000	57,189999	2020-10-29T19:27:21:720
56,700001	9,590000	59,080002	2020-10-29T19:27:21:737
33,950001	14,490000	60,480000	2020-10-29T19:27:21:760
19,600000	21,629999	61,670002	2020-10-29T19:27:21:776
6,440000	24,290001	62,090000	2020-10-29T19:27:21:800
-0,630000	22,120001	61,599998	2020-10-29T19:27:21:817
3,220000	21,280001	61,599998	2020-10-29T19:27:21:841
14,770000	19,809999	62,230000	2020-10-29T19:27:21:857
33,320000	19,180000	63,070000	2020-10-29T19:27:21:883
61,110001	21,000000	61,950001	2020-10-29T19:27:21:896
83,160004	29,540001	60,830002	2020-10-29T19:27:21:922
93,519997	41,509998	63,000000	2020-10-29T19:27:21:937
96,879997	50,610001	64,959999	2020-10-29T19:27:21:960
83,720001	57,959999	67,620003	2020-10-29T19:27:21:976
53,340000	59,920002	70,769997	2020-10-29T19:27:22:001
19,879999	54,110001	72,239998	2020-10-29T19:27:22:017
-15,890000	44,869999	76,019997	2020-10-29T19:27:22:041
-42,139999	39,060001	80,150002	2020-10-29T19:27:22:057
-51,520000	45,709999	84,489998	2020-10-29T19:27:22:081
-51,240002	64,190002	88,340004	2020-10-29T19:27:22:097
-45,920002	68,809998	88,480003	2020-10-29T19:27:22:124
-30,870001	56,980000	80,849998	2020-10-29T19:27:22:137
-24,150000	33,950001	61,389999	2020-10-29T19:27:22:161
-47,740002	8,330000	26,950001	2020-10-29T19:27:22:177
-109,270004	65,590004	70,769997	2020-10-29T19:27:22:200
103,250000	80,639999	64,190002	2020-10-29T19:27:22:218
15,400000	120,750000	13,230000	2020-10-29T19:27:22:241
-202,580002	130,759995	105,349998	2020-10-29T19:27:22:257
-24,639999	142,380005	61,810001	2020-10-29T19:27:22:280
142,169998	98,910004	79,519997	2020-10-29T19:27:22:297
217,839996	8,190000	117,320000	2020-10-29T19:27:22:322
254,169998	34,720001	88,410004	2020-10-29T19:27:22:337
217,839996	82,110001	88,830002	2020-10-29T19:27:22:362
198,380005	92,400002	99,260002	2020-10-29T19:27:22:377
239,540009	104,019997	91,629997	2020-10-29T19:27:22:402
218,889999	104,650002	92,470001	2020-10-29T19:27:22:418
137,550003	102,480003	86,660004	2020-10-29T19:27:22:440
71,959999	92,610001	72,309998	2020-10-29T19:27:22:457
62,720001	73,570000	56,209999	2020-10-29T19:27:22:481
64,050003	49,420002	35,980000	2020-10-29T19:27:22:497
57,189999	23,660000	27,160000	2020-10-29T19:27:22:521
84,489998	-4,410000	1,610000	2020-10-29T19:27:22:537
67,340004	-48,090000	-23,100000	2020-10-29T19:27:22:561
0,210000	-60,900002	-42,840000	2020-10-29T19:27:22:577
-61,880001	-46,549999	-30,170000	2020-10-29T19:27:22:602
-71,540001	43,540001	-19,670000	2020-10-29T19:27:22:617
-104,300003	76,440002	-5,740000	2020-10-29T19:27:22:641
-38,849998	55,020000	-4,550000	2020-10-29T19:27:22:657
80,849998	48,930000	2,240000	2020-10-29T19:27:22:681
175,419998	47,320000	6,860000	2020-10-29T19:27:22:698
192,710007	41,580002	18,620001	2020-10-29T19:27:22:722
141,470001	14,980000	22,400000	2020-10-29T19:27:22:737
82,599998	10,150000	10,430000	2020-10-29T19:27:22:761
80,500000	9,730000	-19,110001	2020-10-29T19:27:23:152
81,970001	-16,030001	-46,270000	2020-10-29T19:27:23:152
18,410000	-54,880001	-60,130001	2020-10-29T19:27:23:153
4,900000	-50,330002	-57,959999	2020-10-29T19:27:23:154
54,389999	-20,930000	-39,480000	2020-10-29T19:27:23:154
35,000000	-11,340000	-13,230000	2020-10-29T19:27:23:155
22,960001	-8,470000	-0,420000	2020-10-29T19:27:23:156
2,310000	-7,490000	-6,860000	2020-10-29T19:27:23:156
-2,870000	-0,210000	-1,750000	2020-10-29T19:27:23:157
30,799999	4,410000	3,080000	2020-10-29T19:27:23:168
46,480000	8,610000	6,650000	2020-10-29T19:27:23:169
32,340000	13,160000	5,250000	2020-10-29T19:27:23:169
17,570000	19,600000	1,540000	2020-10-29T19:27:23:170
17,150000	27,160000	-0,490000	2020-10-29T19:27:23:170
12,530000	32,060001	-0,910000	2020-10-29T19:27:23:171
10,150000	32,759998	-2,380000	2020-10-29T19:27:23:171
16,100000	32,549999	-2,310000	2020-10-29T19:27:23:172
13,160000	34,580002	-3,010000	2020-10-29T19:27:23:172
2,590000	34,439999	-1,400000	2020-10-29T19:27:23:173
-0,770000	26,180000	-2,870000	2020-10-29T19:27:23:173
16,309999	13,300000	-7,980000	2020-10-29T19:27:23:179
20,510000	10,990000	-10,150000	2020-10-29T19:27:23:200
18,690001	7,910000	-12,320000	2020-10-29T19:27:23:218
18,620001	3,220000	-14,770000	2020-10-29T19:27:23:243
17,780001	2,520000	-17,080000	2020-10-29T19:27:23:276
1,960000	-0,420000	-16,100000	2020-10-29T19:27:23:280
-3,850000	-1,610000	-14,140000	2020-10-29T19:27:23:298
-10,640000	-1,960000	-11,690000	2020-10-29T19:27:23:321
-7,490000	-2,380000	-6,160000	2020-10-29T19:27:23:341
-0,910000	-1,610000	-4,830000	2020-10-29T19:27:23:392
-4,480000	2,730000	-3,990000	2020-10-29T19:27:23:393
-6,160000	8,120000	-4,900000	2020-10-29T19:27:23:422
-3,150000	12,250000	-4,690000	2020-10-29T19:27:23:423
-0,350000	15,960000	-4,690000	2020-10-29T19:27:23:441
-5,250000	16,799999	-2,380000	2020-10-29T19:27:23:457
-7,140000	14,490000	-0,420000	2020-10-29T19:27:23:481
-9,590000	7,840000	0,560000	2020-10-29T19:27:23:500
-1,050000	3,640000	-0,070000	2020-10-29T19:27:23:521
0,770000	3,150000	1,400000	2020-10-29T19:27:23:537
-5,460000	1,960000	1,400000	2020-10-29T19:27:23:568
-12,250000	-2,940000	1,610000	2020-10-29T19:27:23:577
-15,470000	-0,770000	1,120000	2020-10-29T19:27:23:607
-23,240000	3,990000	-0,140000	2020-10-29T19:27:23:617
-43,119999	9,100000	-0,910000	2020-10-29T19:27:23:640
-70,699997	3,780000	-8,120000	2020-10-29T19:27:23:658
-117,599998	-2,170000	-18,059999	2020-10-29T19:27:23:681
-171,710007	-3,290000	-19,040001	2020-10-29T19:27:23:698
-188,089996	-1,330000	-14,560000	2020-10-29T19:27:23:721
-134,820007	1,750000	-11,900000	2020-10-29T19:27:23:739
-80,639999	-8,540000	-16,799999	2020-10-29T19:27:23:765
-50,959999	-16,870001	-20,370001	2020-10-29T19:27:23:782
-23,940001	-17,150000	-21,280001	2020-10-29T19:27:23:805
8,820000	-17,639999	-17,080000	2020-10-29T19:27:23:820
41,509998	-16,379999	-14,420000	2020-10-29T19:27:23:844
60,340000	-13,440001	-12,110000	2020-10-29T19:27:23:860
69,300003	-13,300000	-11,830000	2020-10-29T19:27:23:925
71,400002	-14,140000	-8,540000	2020-10-29T19:27:23:927
85,610001	-12,390000	-2,100000	2020-10-29T19:27:23:928
102,970001	-12,530000	4,690000	2020-10-29T19:27:23:945
105,559998	-15,540000	10,010000	2020-10-29T19:27:23:964
82,949997	-19,740000	11,410000	2020-10-29T19:27:23:981
52,709999	-22,049999	10,010000	2020-10-29T19:27:24:036
41,790001	-25,900000	8,260000	2020-10-29T19:27:24:037
