light_intensity	ts
2097152,000000	2020-10-29T19:26:04:317
2097152,000000	2020-10-29T19:26:04:321
2097152,000000	2020-10-29T19:26:04:345
2757184,000000	2020-10-29T19:26:04:385
2754698,000000	2020-10-29T19:26:04:425
2751540,000000	2020-10-29T19:26:04:466
2748933,000000	2020-10-29T19:26:04:505
2745690,000000	2020-10-29T19:26:04:547
2745690,000000	2020-10-29T19:26:04:585
2744723,000000	2020-10-29T19:26:04:625
2743548,000000	2020-10-29T19:26:04:665
2148091,000000	2020-10-29T19:26:04:707
2146292,000000	2020-10-29T19:26:04:747
2146044,000000	2020-10-29T19:26:04:786
2146702,000000	2020-10-29T19:26:04:826
2148667,000000	2020-10-29T19:26:04:867
2109239,000000	2020-10-29T19:26:04:906
2112186,000000	2020-10-29T19:26:04:947
2113986,000000	2020-10-29T19:26:04:986
2114361,000000	2020-10-29T19:26:05:026
2113521,000000	2020-10-29T19:26:05:067
2067602,000000	2020-10-29T19:26:05:106
2091384,000000	2020-10-29T19:26:05:146
2130558,000000	2020-10-29T19:26:05:187
2180945,000000	2020-10-29T19:26:05:334
2150859,000000	2020-10-29T19:26:05:335
1971407,000000	2020-10-29T19:26:05:336
1920291,000000	2020-10-29T19:26:05:353
1885599,000000	2020-10-29T19:26:05:387
1858388,000000	2020-10-29T19:26:05:428
1833661,000000	2020-10-29T19:26:05:467
1817910,000000	2020-10-29T19:26:05:509
1824297,000000	2020-10-29T19:26:05:548
1856740,000000	2020-10-29T19:26:05:587
1892560,000000	2020-10-29T19:26:05:628
1906420,000000	2020-10-29T19:26:05:669
1904445,000000	2020-10-29T19:26:05:708
1906825,000000	2020-10-29T19:26:05:748
1914608,000000	2020-10-29T19:26:05:787
1921192,000000	2020-10-29T19:26:05:829
1924338,000000	2020-10-29T19:26:05:867
1913568,000000	2020-10-29T19:26:05:912
1894660,000000	2020-10-29T19:26:05:950
1880026,000000	2020-10-29T19:26:06:000
1871879,000000	2020-10-29T19:26:06:030
1867864,000000	2020-10-29T19:26:06:070
1862087,000000	2020-10-29T19:26:06:110
1858564,000000	2020-10-29T19:26:06:162
1854088,000000	2020-10-29T19:26:12:113
1860882,000000	2020-10-29T19:26:12:145
1868750,000000	2020-10-29T19:26:12:172
1877505,000000	2020-10-29T19:26:12:206
1874290,000000	2020-10-29T19:26:12:250
1859979,000000	2020-10-29T19:26:12:287
1858705,000000	2020-10-29T19:26:12:328
1869584,000000	2020-10-29T19:26:12:368
1876802,000000	2020-10-29T19:26:12:410
1864572,000000	2020-10-29T19:26:12:448
1848317,000000	2020-10-29T19:26:12:488
1842126,000000	2020-10-29T19:26:12:528
1848556,000000	2020-10-29T19:26:12:569
1870759,000000	2020-10-29T19:26:12:607
1886363,000000	2020-10-29T19:26:12:650
1873532,000000	2020-10-29T19:26:12:688
1870643,000000	2020-10-29T19:26:12:729
1875904,000000	2020-10-29T19:26:12:768
1874237,000000	2020-10-29T19:26:12:809
1871351,000000	2020-10-29T19:26:12:848
1878979,000000	2020-10-29T19:26:12:891
1897475,000000	2020-10-29T19:26:12:929
1909428,000000	2020-10-29T19:26:12:969
1903771,000000	2020-10-29T19:26:13:008
1909361,000000	2020-10-29T19:26:13:050
1916565,000000	2020-10-29T19:26:13:089
1933140,000000	2020-10-29T19:26:13:131
1938321,000000	2020-10-29T19:26:13:169
1927892,000000	2020-10-29T19:26:13:209
1915446,000000	2020-10-29T19:26:13:249
1915726,000000	2020-10-29T19:26:13:290
1918565,000000	2020-10-29T19:26:13:329
1924255,000000	2020-10-29T19:26:13:371
1924876,000000	2020-10-29T19:26:13:409
1933137,000000	2020-10-29T19:26:13:449
1944029,000000	2020-10-29T19:26:13:489
1955671,000000	2020-10-29T19:26:13:530
1970601,000000	2020-10-29T19:26:13:569
1989592,000000	2020-10-29T19:26:13:611
2015336,000000	2020-10-29T19:26:13:649
2013828,000000	2020-10-29T19:26:13:689
2027156,000000	2020-10-29T19:26:13:730
2044264,000000	2020-10-29T19:26:13:770
2045268,000000	2020-10-29T19:26:13:809
2058599,000000	2020-10-29T19:26:13:851
2098264,000000	2020-10-29T19:26:13:889
2079420,000000	2020-10-29T19:26:13:930
2064741,000000	2020-10-29T19:26:13:970
2052128,000000	2020-10-29T19:26:14:011
2028942,000000	2020-10-29T19:26:14:049
2025001,000000	2020-10-29T19:26:14:093
2021569,000000	2020-10-29T19:26:14:130
2028254,000000	2020-10-29T19:26:14:171
2028736,000000	2020-10-29T19:26:14:209
2029810,000000	2020-10-29T19:26:14:256
2038518,000000	2020-10-29T19:26:14:376
2051802,000000	2020-10-29T19:26:14:377
2068871,000000	2020-10-29T19:26:14:471
2074975,000000	2020-10-29T19:26:14:482
2082449,000000	2020-10-29T19:26:14:482
2088935,000000	2020-10-29T19:26:14:487
2098885,000000	2020-10-29T19:26:14:540
2111183,000000	2020-10-29T19:26:14:571
2125041,000000	2020-10-29T19:26:14:610
2141168,000000	2020-10-29T19:26:14:655
2153716,000000	2020-10-29T19:26:14:688
2162203,000000	2020-10-29T19:26:14:729
2169693,000000	2020-10-29T19:26:14:768
2176108,000000	2020-10-29T19:26:14:813
2181711,000000	2020-10-29T19:26:14:850
2186984,000000	2020-10-29T19:26:14:891
2191627,000000	2020-10-29T19:26:14:931
2192206,000000	2020-10-29T19:26:14:971
2184679,000000	2020-10-29T19:26:15:010
2168393,000000	2020-10-29T19:26:15:053
2154537,000000	2020-10-29T19:26:15:090
2139482,000000	2020-10-29T19:26:15:131
2116054,000000	2020-10-29T19:26:15:171
2085070,000000	2020-10-29T19:26:15:211
2060907,000000	2020-10-29T19:26:15:255
2056527,000000	2020-10-29T19:26:15:293
2054718,000000	2020-10-29T19:26:15:331
2053693,000000	2020-10-29T19:26:15:373
2059335,000000	2020-10-29T19:26:15:412
2064717,000000	2020-10-29T19:26:15:453
2066732,000000	2020-10-29T19:26:15:491
2075580,000000	2020-10-29T19:26:15:534
2094669,000000	2020-10-29T19:26:15:571
2112780,000000	2020-10-29T19:26:15:611
2121677,000000	2020-10-29T19:26:15:651
2134325,000000	2020-10-29T19:26:15:692
2163126,000000	2020-10-29T19:26:15:799
2193561,000000	2020-10-29T19:26:15:800
2210070,000000	2020-10-29T19:26:15:848
2198414,000000	2020-10-29T19:26:15:851
2187861,000000	2020-10-29T19:26:15:931
2190706,000000	2020-10-29T19:26:15:933
2196127,000000	2020-10-29T19:26:15:970
2193933,000000	2020-10-29T19:26:16:014
2187542,000000	2020-10-29T19:26:16:063
2186521,000000	2020-10-29T19:26:16:092
2190195,000000	2020-10-29T19:26:16:134
2201380,000000	2020-10-29T19:26:16:172
2219415,000000	2020-10-29T19:26:16:211
2239310,000000	2020-10-29T19:26:16:254
2260205,000000	2020-10-29T19:26:16:292
2271473,000000	2020-10-29T19:26:16:333
2274880,000000	2020-10-29T19:26:16:411
2274065,000000	2020-10-29T19:26:16:419
2277617,000000	2020-10-29T19:26:16:452
2286798,000000	2020-10-29T19:26:16:494
2301680,000000	2020-10-29T19:26:16:538
2314933,000000	2020-10-29T19:26:16:571
2320431,000000	2020-10-29T19:26:16:613
2316832,000000	2020-10-29T19:26:16:662
2309496,000000	2020-10-29T19:26:16:706
2303207,000000	2020-10-29T19:26:16:751
2293625,000000	2020-10-29T19:26:16:773
2280315,000000	2020-10-29T19:26:16:812
2279480,000000	2020-10-29T19:26:16:852
2279174,000000	2020-10-29T19:26:16:893
2275989,000000	2020-10-29T19:26:16:932
2278047,000000	2020-10-29T19:26:16:974
2278194,000000	2020-10-29T19:26:17:012
2274655,000000	2020-10-29T19:26:17:052
2285985,000000	2020-10-29T19:26:17:092
2317580,000000	2020-10-29T19:26:17:134
2337894,000000	2020-10-29T19:26:17:172
2347668,000000	2020-10-29T19:26:17:215
2357914,000000	2020-10-29T19:26:17:252
2364162,000000	2020-10-29T19:26:17:293
2382685,000000	2020-10-29T19:26:17:333
2406983,000000	2020-10-29T19:26:17:374
2430592,000000	2020-10-29T19:26:17:412
2453219,000000	2020-10-29T19:26:17:455
2471899,000000	2020-10-29T19:26:17:493
2481094,000000	2020-10-29T19:26:17:534
2490745,000000	2020-10-29T19:26:17:573
2503657,000000	2020-10-29T19:26:17:614
2513040,000000	2020-10-29T19:26:17:653
2505607,000000	2020-10-29T19:26:17:727
2489293,000000	2020-10-29T19:26:17:733
2472834,000000	2020-10-29T19:26:17:773
2456970,000000	2020-10-29T19:26:17:814
2444757,000000	2020-10-29T19:26:17:854
2427437,000000	2020-10-29T19:26:17:894
2411450,000000	2020-10-29T19:26:17:935
2398293,000000	2020-10-29T19:26:17:974
2388881,000000	2020-10-29T19:26:18:014
2381936,000000	2020-10-29T19:26:18:054
2382565,000000	2020-10-29T19:26:18:095
2390416,000000	2020-10-29T19:26:18:135
2119674,000000	2020-10-29T19:26:27:125
2122516,000000	2020-10-29T19:26:27:131
2114009,000000	2020-10-29T19:26:27:162
2102007,000000	2020-10-29T19:26:27:202
2098064,000000	2020-10-29T19:26:27:241
2099071,000000	2020-10-29T19:26:27:286
2101222,000000	2020-10-29T19:26:27:322
2097448,000000	2020-10-29T19:26:27:363
2087649,000000	2020-10-29T19:26:27:403
2081886,000000	2020-10-29T19:26:27:443
2083056,000000	2020-10-29T19:26:27:483
2086871,000000	2020-10-29T19:26:27:527
2083755,000000	2020-10-29T19:26:27:564
2073056,000000	2020-10-29T19:26:27:604
2069930,000000	2020-10-29T19:26:27:642
2065481,000000	2020-10-29T19:26:27:683
2064323,000000	2020-10-29T19:26:27:722
2010006,000000	2020-10-29T19:26:27:764
2009901,000000	2020-10-29T19:26:27:803
1999729,000000	2020-10-29T19:26:27:843
1990430,000000	2020-10-29T19:26:27:883
1987097,000000	2020-10-29T19:26:27:923
1990248,000000	2020-10-29T19:26:27:963
1980144,000000	2020-10-29T19:26:28:006
1945212,000000	2020-10-29T19:26:28:043
1910975,000000	2020-10-29T19:26:28:083
1887931,000000	2020-10-29T19:26:28:123
1879514,000000	2020-10-29T19:26:28:164
1885486,000000	2020-10-29T19:26:28:204
1881898,000000	2020-10-29T19:26:28:246
1875533,000000	2020-10-29T19:26:28:283
1872592,000000	2020-10-29T19:26:28:324
1875466,000000	2020-10-29T19:26:28:363
1864611,000000	2020-10-29T19:26:28:404
1847372,000000	2020-10-29T19:26:28:443
1839464,000000	2020-10-29T19:26:28:485
1838372,000000	2020-10-29T19:26:28:524
1843676,000000	2020-10-29T19:26:28:564
1850186,000000	2020-10-29T19:26:28:603
1847650,000000	2020-10-29T19:26:28:644
1838249,000000	2020-10-29T19:26:28:684
1833904,000000	2020-10-29T19:26:28:726
1834826,000000	2020-10-29T19:26:28:764
1835294,000000	2020-10-29T19:26:28:805
1844807,000000	2020-10-29T19:26:28:843
1861141,000000	2020-10-29T19:26:28:885
1865013,000000	2020-10-29T19:26:28:924
1859516,000000	2020-10-29T19:26:28:965
1858608,000000	2020-10-29T19:26:29:004
1852866,000000	2020-10-29T19:26:29:044
1839952,000000	2020-10-29T19:26:29:084
1837286,000000	2020-10-29T19:26:29:125
1833688,000000	2020-10-29T19:26:29:164
1814323,000000	2020-10-29T19:26:29:206
1818998,000000	2020-10-29T19:26:29:244
1815703,000000	2020-10-29T19:26:29:285
1805179,000000	2020-10-29T19:26:29:324
1775935,000000	2020-10-29T19:26:29:365
1754959,000000	2020-10-29T19:26:29:404
1730641,000000	2020-10-29T19:26:29:446
1707170,000000	2020-10-29T19:26:29:485
1685657,000000	2020-10-29T19:26:29:527
1670773,000000	2020-10-29T19:26:29:564
1666939,000000	2020-10-29T19:26:29:606
1671946,000000	2020-10-29T19:26:29:644
1674742,000000	2020-10-29T19:26:29:687
1671790,000000	2020-10-29T19:26:29:725
1671879,000000	2020-10-29T19:26:29:765
1676324,000000	2020-10-29T19:26:29:806
1683083,000000	2020-10-29T19:26:29:845
1687043,000000	2020-10-29T19:26:29:885
1687615,000000	2020-10-29T19:26:29:928
1691984,000000	2020-10-29T19:26:29:965
1691409,000000	2020-10-29T19:26:30:006
1684780,000000	2020-10-29T19:26:30:045
1683471,000000	2020-10-29T19:26:30:086
1688737,000000	2020-10-29T19:26:30:125
1691079,000000	2020-10-29T19:26:30:167
1704014,000000	2020-10-29T19:26:30:205
1720602,000000	2020-10-29T19:26:30:246
1726526,000000	2020-10-29T19:26:30:285
1729270,000000	2020-10-29T19:26:30:326
1735270,000000	2020-10-29T19:26:30:365
1742885,000000	2020-10-29T19:26:30:407
1751050,000000	2020-10-29T19:26:30:445
1757203,000000	2020-10-29T19:26:30:487
1764152,000000	2020-10-29T19:26:30:535
1765864,000000	2020-10-29T19:26:30:566
1769791,000000	2020-10-29T19:26:30:605
1777688,000000	2020-10-29T19:26:30:646
1783818,000000	2020-10-29T19:26:30:685
1784458,000000	2020-10-29T19:26:30:725
1783115,000000	2020-10-29T19:26:30:765
1781657,000000	2020-10-29T19:26:30:806
1780390,000000	2020-10-29T19:26:30:845
1784007,000000	2020-10-29T19:26:30:887
1787364,000000	2020-10-29T19:26:30:925
1790929,000000	2020-10-29T19:26:30:965
1795920,000000	2020-10-29T19:26:31:006
1800203,000000	2020-10-29T19:26:31:046
1799648,000000	2020-10-29T19:26:31:085
1798214,000000	2020-10-29T19:26:31:127
1797558,000000	2020-10-29T19:26:31:165
1801559,000000	2020-10-29T19:26:31:206
1806407,000000	2020-10-29T19:26:31:246
1812827,000000	2020-10-29T19:26:31:286
1814746,000000	2020-10-29T19:26:31:325
1819179,000000	2020-10-29T19:26:31:367
1825192,000000	2020-10-29T19:26:31:406
1833537,000000	2020-10-29T19:26:31:445
1839767,000000	2020-10-29T19:26:31:486
1843559,000000	2020-10-29T19:26:31:526
1849577,000000	2020-10-29T19:26:31:565
1861227,000000	2020-10-29T19:26:31:608
1874819,000000	2020-10-29T19:26:31:646
1892813,000000	2020-10-29T19:26:31:686
1908831,000000	2020-10-29T19:26:31:726
1924644,000000	2020-10-29T19:26:31:766
1941384,000000	2020-10-29T19:26:31:806
1958918,000000	2020-10-29T19:26:31:848
1975260,000000	2020-10-29T19:26:31:887
1989305,000000	2020-10-29T19:26:31:926
1998886,000000	2020-10-29T19:26:31:966
2007164,000000	2020-10-29T19:26:32:007
2010939,000000	2020-10-29T19:26:32:047
2014960,000000	2020-10-29T19:26:32:089
2011660,000000	2020-10-29T19:26:32:135
2009088,000000	2020-10-29T19:26:32:166
2010182,000000	2020-10-29T19:26:32:207
2012592,000000	2020-10-29T19:26:32:247
2010960,000000	2020-10-29T19:26:32:287
2005062,000000	2020-10-29T19:26:32:327
1998738,000000	2020-10-29T19:26:32:367
1994153,000000	2020-10-29T19:26:32:407
1993809,000000	2020-10-29T19:26:32:447
1994255,000000	2020-10-29T19:26:32:487
1991109,000000	2020-10-29T19:26:32:527
1983541,000000	2020-10-29T19:26:32:567
1971745,000000	2020-10-29T19:26:32:607
1963814,000000	2020-10-29T19:26:32:647
1954037,000000	2020-10-29T19:26:32:687
1945432,000000	2020-10-29T19:26:32:727
1939220,000000	2020-10-29T19:26:32:767
1926827,000000	2020-10-29T19:26:32:809
1916996,000000	2020-10-29T19:26:32:847
1908783,000000	2020-10-29T19:26:32:887
1902568,000000	2020-10-29T19:26:32:927
1902693,000000	2020-10-29T19:26:32:967
1899312,000000	2020-10-29T19:26:33:008
1891544,000000	2020-10-29T19:26:33:049
1883307,000000	2020-10-29T19:26:33:087
1880508,000000	2020-10-29T19:26:33:127
1880869,000000	2020-10-29T19:26:33:167
1881958,000000	2020-10-29T19:26:33:208
1882608,000000	2020-10-29T19:26:33:247
1885615,000000	2020-10-29T19:26:33:288
1894943,000000	2020-10-29T19:26:33:327
1901566,000000	2020-10-29T19:26:33:367
1914101,000000	2020-10-29T19:26:33:408
1927222,000000	2020-10-29T19:26:33:448
1939496,000000	2020-10-29T19:26:33:488
1942138,000000	2020-10-29T19:26:33:533
1944808,000000	2020-10-29T19:26:33:568
1955041,000000	2020-10-29T19:26:33:608
1967761,000000	2020-10-29T19:26:33:648
1980649,000000	2020-10-29T19:26:33:688
1993128,000000	2020-10-29T19:26:33:728
1990522,000000	2020-10-29T19:26:33:769
1975534,000000	2020-10-29T19:26:33:808
1960688,000000	2020-10-29T19:26:33:848
1950106,000000	2020-10-29T19:26:33:889
1944709,000000	2020-10-29T19:26:33:928
1941021,000000	2020-10-29T19:26:33:968
1937266,000000	2020-10-29T19:26:34:010
1935005,000000	2020-10-29T19:26:34:048
1933149,000000	2020-10-29T19:26:34:089
1933035,000000	2020-10-29T19:26:34:128
1932654,000000	2020-10-29T19:26:34:169
1931576,000000	2020-10-29T19:26:34:209
1931177,000000	2020-10-29T19:26:34:250
1938860,000000	2020-10-29T19:26:34:289
1960666,000000	2020-10-29T19:26:34:328
1985633,000000	2020-10-29T19:26:34:369
1993949,000000	2020-10-29T19:26:34:409
1988330,000000	2020-10-29T19:26:34:449
1978871,000000	2020-10-29T19:26:34:492
1970449,000000	2020-10-29T19:26:34:529
1966823,000000	2020-10-29T19:26:34:569
1972661,000000	2020-10-29T19:26:34:609
1985549,000000	2020-10-29T19:26:34:649
1993569,000000	2020-10-29T19:26:34:689
1997472,000000	2020-10-29T19:26:34:731
2001985,000000	2020-10-29T19:26:34:769
2010260,000000	2020-10-29T19:26:34:809
2019010,000000	2020-10-29T19:26:34:849
2024745,000000	2020-10-29T19:26:34:889
2025012,000000	2020-10-29T19:26:34:929
2013924,000000	2020-10-29T19:26:34:970
2003128,000000	2020-10-29T19:26:35:010
1998987,000000	2020-10-29T19:26:35:049
1998640,000000	2020-10-29T19:26:35:090
2004647,000000	2020-10-29T19:26:35:130
2008636,000000	2020-10-29T19:26:35:169
2004998,000000	2020-10-29T19:26:35:211
1993119,000000	2020-10-29T19:26:35:250
1984364,000000	2020-10-29T19:26:35:290
1981171,000000	2020-10-29T19:26:35:330
1994940,000000	2020-10-29T19:26:35:370
2005268,000000	2020-10-29T19:26:35:409
2035025,000000	2020-10-29T19:26:35:452
2033597,000000	2020-10-29T19:26:35:490
2029532,000000	2020-10-29T19:26:35:529
2024724,000000	2020-10-29T19:26:35:570
2023236,000000	2020-10-29T19:26:35:610
2020380,000000	2020-10-29T19:26:35:650
2016566,000000	2020-10-29T19:26:35:692
2014748,000000	2020-10-29T19:26:35:730
2017573,000000	2020-10-29T19:26:35:770
2021074,000000	2020-10-29T19:26:35:811
2024529,000000	2020-10-29T19:26:35:850
2024063,000000	2020-10-29T19:26:35:890
2023138,000000	2020-10-29T19:26:35:931
2023387,000000	2020-10-29T19:26:35:970
2023708,000000	2020-10-29T19:26:36:011
2024657,000000	2020-10-29T19:26:36:052
2025998,000000	2020-10-29T19:26:36:104
2027416,000000	2020-10-29T19:26:36:135
2030729,000000	2020-10-29T19:26:36:186
2029604,000000	2020-10-29T19:26:36:216
2027278,000000	2020-10-29T19:26:36:255
2027354,000000	2020-10-29T19:26:36:295
2027686,000000	2020-10-29T19:26:36:348
2029593,000000	2020-10-29T19:26:36:375
2032438,000000	2020-10-29T19:26:36:410
2035360,000000	2020-10-29T19:26:36:449
2040040,000000	2020-10-29T19:26:36:491
2043097,000000	2020-10-29T19:26:36:531
2040324,000000	2020-10-29T19:26:36:571
2038242,000000	2020-10-29T19:26:36:611
2037479,000000	2020-10-29T19:26:36:659
2036957,000000	2020-10-29T19:26:36:692
2035450,000000	2020-10-29T19:26:36:731
2033429,000000	2020-10-29T19:26:36:771
2030609,000000	2020-10-29T19:26:36:811
2022288,000000	2020-10-29T19:26:36:851
2016431,000000	2020-10-29T19:26:36:895
2013781,000000	2020-10-29T19:26:36:931
2012777,000000	2020-10-29T19:26:36:982
1607784,000000	2020-10-29T19:26:53:147
1610023,000000	2020-10-29T19:26:53:148
1617736,000000	2020-10-29T19:26:53:149
1630091,000000	2020-10-29T19:26:53:170
1642551,000000	2020-10-29T19:26:53:211
1653516,000000	2020-10-29T19:26:53:253
1658444,000000	2020-10-29T19:26:53:291
1659584,000000	2020-10-29T19:26:53:331
1661843,000000	2020-10-29T19:26:53:370
1664955,000000	2020-10-29T19:26:53:412
1671883,000000	2020-10-29T19:26:53:450
1682376,000000	2020-10-29T19:26:53:491
1667367,000000	2020-10-29T19:26:53:532
1684338,000000	2020-10-29T19:26:53:572
1719180,000000	2020-10-29T19:26:53:611
1714616,000000	2020-10-29T19:26:53:652
1714620,000000	2020-10-29T19:26:53:692
1711042,000000	2020-10-29T19:26:53:731
1713184,000000	2020-10-29T19:26:53:772
1714946,000000	2020-10-29T19:26:53:812
1717571,000000	2020-10-29T19:26:53:851
1720221,000000	2020-10-29T19:26:53:891
1725742,000000	2020-10-29T19:26:53:931
1737015,000000	2020-10-29T19:26:53:972
1742616,000000	2020-10-29T19:26:54:013
1741257,000000	2020-10-29T19:26:54:052
1735847,000000	2020-10-29T19:26:54:092
1735220,000000	2020-10-29T19:26:54:132
1736233,000000	2020-10-29T19:26:54:171
1742267,000000	2020-10-29T19:26:54:212
1746822,000000	2020-10-29T19:26:54:252
1750887,000000	2020-10-29T19:26:54:292
1753737,000000	2020-10-29T19:26:54:331
1757103,000000	2020-10-29T19:26:54:372
1760390,000000	2020-10-29T19:26:54:412
1763051,000000	2020-10-29T19:26:54:452
1766811,000000	2020-10-29T19:26:54:493
1768942,000000	2020-10-29T19:26:54:532
1765266,000000	2020-10-29T19:26:54:572
1762039,000000	2020-10-29T19:26:54:613
1765642,000000	2020-10-29T19:26:54:652
1769852,000000	2020-10-29T19:26:54:693
1774897,000000	2020-10-29T19:26:54:733
1781411,000000	2020-10-29T19:26:54:773
1784355,000000	2020-10-29T19:26:54:812
1787315,000000	2020-10-29T19:26:54:853
1793017,000000	2020-10-29T19:26:54:892
1794721,000000	2020-10-29T19:26:54:933
1794784,000000	2020-10-29T19:26:54:973
1798995,000000	2020-10-29T19:26:55:019
1805707,000000	2020-10-29T19:26:55:052
1810673,000000	2020-10-29T19:26:55:093
1821207,000000	2020-10-29T19:26:55:132
1836491,000000	2020-10-29T19:26:55:173
1852819,000000	2020-10-29T19:26:55:213
1866702,000000	2020-10-29T19:26:55:252
1878279,000000	2020-10-29T19:26:55:292
1888371,000000	2020-10-29T19:26:55:336
1898698,000000	2020-10-29T19:26:55:372
1908726,000000	2020-10-29T19:26:55:414
1915778,000000	2020-10-29T19:26:55:454
1922344,000000	2020-10-29T19:26:55:494
1932883,000000	2020-10-29T19:26:55:533
1941524,000000	2020-10-29T19:26:55:574
1941625,000000	2020-10-29T19:26:55:613
1934202,000000	2020-10-29T19:26:55:654
1930482,000000	2020-10-29T19:26:55:694
1931860,000000	2020-10-29T19:26:55:734
1932802,000000	2020-10-29T19:26:55:773
1937525,000000	2020-10-29T19:26:55:814
1941602,000000	2020-10-29T19:26:55:853
1940684,000000	2020-10-29T19:26:55:894
1926848,000000	2020-10-29T19:26:55:934
1921141,000000	2020-10-29T19:26:55:974
1917801,000000	2020-10-29T19:26:56:013
1918527,000000	2020-10-29T19:26:56:054
1924566,000000	2020-10-29T19:26:56:094
1933586,000000	2020-10-29T19:26:56:134
1943575,000000	2020-10-29T19:26:56:176
1950900,000000	2020-10-29T19:26:56:215
1948581,000000	2020-10-29T19:26:56:253
1946704,000000	2020-10-29T19:26:56:295
1942306,000000	2020-10-29T19:26:56:334
1937596,000000	2020-10-29T19:26:56:375
1940819,000000	2020-10-29T19:26:56:416
1946723,000000	2020-10-29T19:26:56:455
1947913,000000	2020-10-29T19:26:56:494
1940852,000000	2020-10-29T19:26:56:535
1930548,000000	2020-10-29T19:26:56:574
1925444,000000	2020-10-29T19:26:56:614
1926682,000000	2020-10-29T19:26:56:654
1929011,000000	2020-10-29T19:26:56:695
1929934,000000	2020-10-29T19:26:56:734
1929118,000000	2020-10-29T19:26:56:776
1930824,000000	2020-10-29T19:26:56:814
1940233,000000	2020-10-29T19:26:56:855
1959812,000000	2020-10-29T19:26:56:896
1983573,000000	2020-10-29T19:26:56:935
2000727,000000	2020-10-29T19:26:56:975
2019011,000000	2020-10-29T19:26:57:016
2023527,000000	2020-10-29T19:26:57:054
2026689,000000	2020-10-29T19:26:57:095
2035624,000000	2020-10-29T19:26:57:136
2042153,000000	2020-10-29T19:26:57:176
2033985,000000	2020-10-29T19:26:57:214
2016302,000000	2020-10-29T19:26:57:255
1995012,000000	2020-10-29T19:26:57:294
1980364,000000	2020-10-29T19:26:57:335
1969851,000000	2020-10-29T19:26:57:376
1963009,000000	2020-10-29T19:26:57:416
1957685,000000	2020-10-29T19:26:57:454
1949409,000000	2020-10-29T19:26:57:496
1944738,000000	2020-10-29T19:26:57:535
1945909,000000	2020-10-29T19:26:57:576
1951420,000000	2020-10-29T19:26:57:616
1959647,000000	2020-10-29T19:26:57:656
1959984,000000	2020-10-29T19:26:57:694
1952339,000000	2020-10-29T19:26:57:736
1948185,000000	2020-10-29T19:26:57:775
1956050,000000	2020-10-29T19:26:57:816
1981230,000000	2020-10-29T19:26:57:856
2008876,000000	2020-10-29T19:26:57:896
2014055,000000	2020-10-29T19:26:57:934
2019381,000000	2020-10-29T19:26:57:976
2023744,000000	2020-10-29T19:26:58:015
2023337,000000	2020-10-29T19:26:58:056
2019674,000000	2020-10-29T19:26:58:096
2014709,000000	2020-10-29T19:26:58:137
2010759,000000	2020-10-29T19:26:58:175
2008163,000000	2020-10-29T19:26:58:217
2005621,000000	2020-10-29T19:26:58:256
2002257,000000	2020-10-29T19:26:58:296
2001075,000000	2020-10-29T19:26:58:337
2000574,000000	2020-10-29T19:26:58:377
2000304,000000	2020-10-29T19:26:58:416
1999550,000000	2020-10-29T19:26:58:456
1997348,000000	2020-10-29T19:26:58:496
1991979,000000	2020-10-29T19:26:58:536
1988764,000000	2020-10-29T19:26:58:577
1987703,000000	2020-10-29T19:26:58:617
1986128,000000	2020-10-29T19:26:58:656
1987115,000000	2020-10-29T19:26:58:697
1988578,000000	2020-10-29T19:26:58:736
1983531,000000	2020-10-29T19:26:58:777
1976095,000000	2020-10-29T19:26:58:818
1966971,000000	2020-10-29T19:26:58:857
1953060,000000	2020-10-29T19:26:58:896
1943925,000000	2020-10-29T19:26:58:936
1939265,000000	2020-10-29T19:26:58:976
1936492,000000	2020-10-29T19:26:59:017
1932087,000000	2020-10-29T19:26:59:057
1927504,000000	2020-10-29T19:26:59:098
1922861,000000	2020-10-29T19:26:59:137
1914278,000000	2020-10-29T19:26:59:177
1907133,000000	2020-10-29T19:26:59:217
1908068,000000	2020-10-29T19:26:59:257
1913478,000000	2020-10-29T19:26:59:297
1921049,000000	2020-10-29T19:26:59:337
1911867,000000	2020-10-29T19:26:59:378
1908059,000000	2020-10-29T19:26:59:417
1905190,000000	2020-10-29T19:26:59:458
1904641,000000	2020-10-29T19:26:59:498
1907451,000000	2020-10-29T19:26:59:539
1910536,000000	2020-10-29T19:26:59:579
1911874,000000	2020-10-29T19:26:59:617
1914672,000000	2020-10-29T19:26:59:658
1918766,000000	2020-10-29T19:26:59:697
1924151,000000	2020-10-29T19:26:59:738
1930309,000000	2020-10-29T19:26:59:780
1936236,000000	2020-10-29T19:26:59:818
1934252,000000	2020-10-29T19:26:59:857
1935883,000000	2020-10-29T19:26:59:898
1941868,000000	2020-10-29T19:26:59:937
1949199,000000	2020-10-29T19:26:59:978
1961503,000000	2020-10-29T19:27:00:019
1965707,000000	2020-10-29T19:27:00:058
1955684,000000	2020-10-29T19:27:00:097
1936782,000000	2020-10-29T19:27:00:138
1924228,000000	2020-10-29T19:27:00:178
1916868,000000	2020-10-29T19:27:00:218
1914729,000000	2020-10-29T19:27:00:260
1915437,000000	2020-10-29T19:27:00:297
1915253,000000	2020-10-29T19:27:00:337
1913558,000000	2020-10-29T19:27:00:378
1909873,000000	2020-10-29T19:27:00:418
1904445,000000	2020-10-29T19:27:00:458
1899101,000000	2020-10-29T19:27:00:499
1887454,000000	2020-10-29T19:27:00:538
1877752,000000	2020-10-29T19:27:00:578
1872023,000000	2020-10-29T19:27:00:619
1871271,000000	2020-10-29T19:27:00:657
1865621,000000	2020-10-29T19:27:00:698
1859940,000000	2020-10-29T19:27:00:739
1847723,000000	2020-10-29T19:27:00:779
1823284,000000	2020-10-29T19:27:00:818
1812840,000000	2020-10-29T19:27:00:860
1812540,000000	2020-10-29T19:27:00:898
1811911,000000	2020-10-29T19:27:00:939
1809904,000000	2020-10-29T19:27:00:980
1808461,000000	2020-10-29T19:27:01:019
1810968,000000	2020-10-29T19:27:01:058
1817817,000000	2020-10-29T19:27:01:099
1827751,000000	2020-10-29T19:27:01:138
1830049,000000	2020-10-29T19:27:01:179
1828775,000000	2020-10-29T19:27:01:219
1831293,000000	2020-10-29T19:27:01:259
1831869,000000	2020-10-29T19:27:01:299
1836237,000000	2020-10-29T19:27:01:340
1841504,000000	2020-10-29T19:27:01:379
1843809,000000	2020-10-29T19:27:01:419
1843654,000000	2020-10-29T19:27:01:459
1838655,000000	2020-10-29T19:27:01:500
1831461,000000	2020-10-29T19:27:01:538
1832903,000000	2020-10-29T19:27:01:580
1837906,000000	2020-10-29T19:27:01:619
1841564,000000	2020-10-29T19:27:01:660
1844335,000000	2020-10-29T19:27:01:700
1844782,000000	2020-10-29T19:27:01:740
1843098,000000	2020-10-29T19:27:01:779
1840566,000000	2020-10-29T19:27:01:820
1838622,000000	2020-10-29T19:27:01:859
1838399,000000	2020-10-29T19:27:01:900
1838941,000000	2020-10-29T19:27:01:940
1838482,000000	2020-10-29T19:27:01:980
1838859,000000	2020-10-29T19:27:02:020
1838731,000000	2020-10-29T19:27:02:060
1834763,000000	2020-10-29T19:27:02:099
1834646,000000	2020-10-29T19:27:02:140
1846049,000000	2020-10-29T19:27:02:181
1867645,000000	2020-10-29T19:27:02:221
1897642,000000	2020-10-29T19:27:02:260
1914597,000000	2020-10-29T19:27:02:300
1918937,000000	2020-10-29T19:27:02:340
1915343,000000	2020-10-29T19:27:02:380
1905168,000000	2020-10-29T19:27:02:421
1894530,000000	2020-10-29T19:27:02:460
1888167,000000	2020-10-29T19:27:02:500
1880494,000000	2020-10-29T19:27:02:541
1872672,000000	2020-10-29T19:27:02:580
1853236,000000	2020-10-29T19:27:02:621
1831393,000000	2020-10-29T19:27:02:661
1821263,000000	2020-10-29T19:27:02:700
1818122,000000	2020-10-29T19:27:02:740
1815232,000000	2020-10-29T19:27:02:781
1811603,000000	2020-10-29T19:27:02:821
1809571,000000	2020-10-29T19:27:02:861
1805045,000000	2020-10-29T19:27:02:902
1802939,000000	2020-10-29T19:27:02:941
1801834,000000	2020-10-29T19:27:02:982
1799637,000000	2020-10-29T19:27:03:021
1828158,000000	2020-10-29T19:27:03:060
1835936,000000	2020-10-29T19:27:03:101
1848946,000000	2020-10-29T19:27:03:142
1862043,000000	2020-10-29T19:27:03:182
1865008,000000	2020-10-29T19:27:03:221
1845555,000000	2020-10-29T19:27:03:261
1813944,000000	2020-10-29T19:27:03:300
1784141,000000	2020-10-29T19:27:03:341
1763346,000000	2020-10-29T19:27:03:383
1748376,000000	2020-10-29T19:27:03:422
1737599,000000	2020-10-29T19:27:03:461
1726570,000000	2020-10-29T19:27:03:501
1709287,000000	2020-10-29T19:27:03:541
1695339,000000	2020-10-29T19:27:03:582
1683514,000000	2020-10-29T19:27:03:623
1679258,000000	2020-10-29T19:27:03:662
1684538,000000	2020-10-29T19:27:03:701
1693873,000000	2020-10-29T19:27:03:742
1689272,000000	2020-10-29T19:27:03:781
1684945,000000	2020-10-29T19:27:03:822
1682060,000000	2020-10-29T19:27:03:862
1677390,000000	2020-10-29T19:27:03:902
1677866,000000	2020-10-29T19:27:03:941
1688353,000000	2020-10-29T19:27:03:983
1706188,000000	2020-10-29T19:27:04:022
1721881,000000	2020-10-29T19:27:04:062
1732183,000000	2020-10-29T19:27:04:103
1737483,000000	2020-10-29T19:27:04:142
1730614,000000	2020-10-29T19:27:04:181
1718320,000000	2020-10-29T19:27:04:223
1712991,000000	2020-10-29T19:27:04:262
1714384,000000	2020-10-29T19:27:04:302
1727696,000000	2020-10-29T19:27:04:343
1722455,000000	2020-10-29T19:27:04:382
1706985,000000	2020-10-29T19:27:04:422
1697805,000000	2020-10-29T19:27:04:462
1673052,000000	2020-10-29T19:27:04:502
1644080,000000	2020-10-29T19:27:04:542
1621337,000000	2020-10-29T19:27:04:584
1601276,000000	2020-10-29T19:27:04:623
1586161,000000	2020-10-29T19:27:04:662
1573817,000000	2020-10-29T19:27:04:703
1563710,000000	2020-10-29T19:27:04:742
1552580,000000	2020-10-29T19:27:04:783
1540818,000000	2020-10-29T19:27:04:824
1530225,000000	2020-10-29T19:27:04:863
1519067,000000	2020-10-29T19:27:04:902
1511403,000000	2020-10-29T19:27:04:943
1512559,000000	2020-10-29T19:27:04:982
1538792,000000	2020-10-29T19:27:05:029
1553026,000000	2020-10-29T19:27:05:064
1541275,000000	2020-10-29T19:27:05:103
1533264,000000	2020-10-29T19:27:05:142
1532249,000000	2020-10-29T19:27:05:183
1538114,000000	2020-10-29T19:27:05:223
1543816,000000	2020-10-29T19:27:05:263
1545964,000000	2020-10-29T19:27:05:304
1553855,000000	2020-10-29T19:27:05:344
1562252,000000	2020-10-29T19:27:05:382
1571172,000000	2020-10-29T19:27:05:424
1583287,000000	2020-10-29T19:27:05:463
1590741,000000	2020-10-29T19:27:05:504
1587009,000000	2020-10-29T19:27:05:545
1584980,000000	2020-10-29T19:27:05:584
1588442,000000	2020-10-29T19:27:05:623
1594967,000000	2020-10-29T19:27:05:664
1602151,000000	2020-10-29T19:27:05:703
1602289,000000	2020-10-29T19:27:05:743
1592392,000000	2020-10-29T19:27:05:784
1579309,000000	2020-10-29T19:27:05:824
1576796,000000	2020-10-29T19:27:05:863
1581897,000000	2020-10-29T19:27:05:904
1586507,000000	2020-10-29T19:27:05:943
1585799,000000	2020-10-29T19:27:05:984
1572709,000000	2020-10-29T19:27:06:025
1555529,000000	2020-10-29T19:27:06:064
1535646,000000	2020-10-29T19:27:06:103
1521993,000000	2020-10-29T19:27:06:144
1530534,000000	2020-10-29T19:27:06:184
1548520,000000	2020-10-29T19:27:06:225
1570834,000000	2020-10-29T19:27:06:265
1595858,000000	2020-10-29T19:27:06:304
1566595,000000	2020-10-29T19:27:06:344
1538654,000000	2020-10-29T19:27:06:385
1537145,000000	2020-10-29T19:27:06:424
1549507,000000	2020-10-29T19:27:06:464
1569610,000000	2020-10-29T19:27:06:504
1604119,000000	2020-10-29T19:27:06:545
1635685,000000	2020-10-29T19:27:06:584
1670201,000000	2020-10-29T19:27:06:625
1717585,000000	2020-10-29T19:27:06:663
1773851,000000	2020-10-29T19:27:06:705
1819106,000000	2020-10-29T19:27:06:745
1874975,000000	2020-10-29T19:27:06:786
1940236,000000	2020-10-29T19:27:06:825
1981625,000000	2020-10-29T19:27:06:864
2007219,000000	2020-10-29T19:27:06:904
2015072,000000	2020-10-29T19:27:06:945
2015955,000000	2020-10-29T19:27:06:986
2022514,000000	2020-10-29T19:27:07:026
2041160,000000	2020-10-29T19:27:07:064
2065153,000000	2020-10-29T19:27:07:106
2090203,000000	2020-10-29T19:27:07:144
2113596,000000	2020-10-29T19:27:07:185
2130505,000000	2020-10-29T19:27:07:227
2132128,000000	2020-10-29T19:27:07:265
2132407,000000	2020-10-29T19:27:07:304
2137329,000000	2020-10-29T19:27:07:345
2143968,000000	2020-10-29T19:27:07:385
2138040,000000	2020-10-29T19:27:07:426
2130869,000000	2020-10-29T19:27:07:464
2115887,000000	2020-10-29T19:27:07:505
2106089,000000	2020-10-29T19:27:07:544
2088861,000000	2020-10-29T19:27:07:586
2078740,000000	2020-10-29T19:27:07:625
2073336,000000	2020-10-29T19:27:08:155
2072178,000000	2020-10-29T19:27:08:162
2076118,000000	2020-10-29T19:27:08:173
2073620,000000	2020-10-29T19:27:08:180
2066828,000000	2020-10-29T19:27:08:181
2060079,000000	2020-10-29T19:27:08:182
2052448,000000	2020-10-29T19:27:08:184
2046476,000000	2020-10-29T19:27:08:185
2043645,000000	2020-10-29T19:27:08:190
2040490,000000	2020-10-29T19:27:08:190
2041276,000000	2020-10-29T19:27:08:204
2035140,000000	2020-10-29T19:27:08:206
2003966,000000	2020-10-29T19:27:08:208
1958995,000000	2020-10-29T19:27:08:210
1916627,000000	2020-10-29T19:27:08:294
1881327,000000	2020-10-29T19:27:08:310
1852146,000000	2020-10-29T19:27:08:344
1827845,000000	2020-10-29T19:27:08:345
1807177,000000	2020-10-29T19:27:08:385
1781891,000000	2020-10-29T19:27:08:423
1756681,000000	2020-10-29T19:27:08:472
1732943,000000	2020-10-29T19:27:08:509
1714014,000000	2020-10-29T19:27:08:545
1699540,000000	2020-10-29T19:27:08:583
1686744,000000	2020-10-29T19:27:08:626
1673741,000000	2020-10-29T19:27:08:849
1652468,000000	2020-10-29T19:27:08:851
1606747,000000	2020-10-29T19:27:08:870
1558947,000000	2020-10-29T19:27:08:872
1522830,000000	2020-10-29T19:27:08:875
1495016,000000	2020-10-29T19:27:08:876
1472009,000000	2020-10-29T19:27:08:906
1453762,000000	2020-10-29T19:27:08:947
1438811,000000	2020-10-29T19:27:08:987
1425290,000000	2020-10-29T19:27:09:086
1412004,000000	2020-10-29T19:27:09:088
1401781,000000	2020-10-29T19:27:09:114
1397950,000000	2020-10-29T19:27:09:148
1393792,000000	2020-10-29T19:27:09:191
1391465,000000	2020-10-29T19:27:09:233
1393136,000000	2020-10-29T19:27:09:265
1404365,000000	2020-10-29T19:27:09:306
1401998,000000	2020-10-29T19:27:09:349
1385890,000000	2020-10-29T19:27:09:390
1372903,000000	2020-10-29T19:27:09:429
1364440,000000	2020-10-29T19:27:09:468
1360040,000000	2020-10-29T19:27:09:507
1360843,000000	2020-10-29T19:27:09:548
1363128,000000	2020-10-29T19:27:09:589
1366191,000000	2020-10-29T19:27:09:628
1374389,000000	2020-10-29T19:27:09:669
1386551,000000	2020-10-29T19:27:09:706
1404296,000000	2020-10-29T19:27:09:748
1425945,000000	2020-10-29T19:27:09:787
1458182,000000	2020-10-29T19:27:09:828
1488826,000000	2020-10-29T19:27:09:870
1515713,000000	2020-10-29T19:27:09:907
1542506,000000	2020-10-29T19:27:09:947
1563479,000000	2020-10-29T19:27:09:987
1590319,000000	2020-10-29T19:27:10:032
1617292,000000	2020-10-29T19:27:10:072
1643879,000000	2020-10-29T19:27:10:140
1659555,000000	2020-10-29T19:27:10:256
1668958,000000	2020-10-29T19:27:10:257
1680881,000000	2020-10-29T19:27:10:257
1696570,000000	2020-10-29T19:27:10:308
1708582,000000	2020-10-29T19:27:10:308
1709606,000000	2020-10-29T19:27:10:345
1719205,000000	2020-10-29T19:27:10:387
1731388,000000	2020-10-29T19:27:10:519
1741083,000000	2020-10-29T19:27:10:521
1747477,000000	2020-10-29T19:27:10:541
1758550,000000	2020-10-29T19:27:10:549
1775664,000000	2020-10-29T19:27:10:592
1789492,000000	2020-10-29T19:27:10:628
1797301,000000	2020-10-29T19:27:10:670
1799396,000000	2020-10-29T19:27:10:774
1798327,000000	2020-10-29T19:27:10:776
1799323,000000	2020-10-29T19:27:10:794
1802081,000000	2020-10-29T19:27:10:843
1811405,000000	2020-10-29T19:27:10:867
1822327,000000	2020-10-29T19:27:10:908
1833263,000000	2020-10-29T19:27:10:950
1840796,000000	2020-10-29T19:27:10:988
1838463,000000	2020-10-29T19:27:11:029
1839728,000000	2020-10-29T19:27:11:069
1840229,000000	2020-10-29T19:27:11:109
1841183,000000	2020-10-29T19:27:11:148
1844493,000000	2020-10-29T19:27:11:189
1851572,000000	2020-10-29T19:27:11:286
1851597,000000	2020-10-29T19:27:11:288
1838011,000000	2020-10-29T19:27:11:312
1815220,000000	2020-10-29T19:27:11:352
1793291,000000	2020-10-29T19:27:11:390
1779012,000000	2020-10-29T19:27:11:430
1762904,000000	2020-10-29T19:27:11:469
1734920,000000	2020-10-29T19:27:11:509
1723791,000000	2020-10-29T19:27:11:550
1716191,000000	2020-10-29T19:27:11:590
1713711,000000	2020-10-29T19:27:11:629
1724082,000000	2020-10-29T19:27:11:677
1597055,000000	2020-10-29T19:27:17:100
1602988,000000	2020-10-29T19:27:17:126
1610078,000000	2020-10-29T19:27:17:155
1613987,000000	2020-10-29T19:27:17:197
1610433,000000	2020-10-29T19:27:17:236
1636701,000000	2020-10-29T19:27:17:276
1703880,000000	2020-10-29T19:27:17:318
1756632,000000	2020-10-29T19:27:17:359
1806552,000000	2020-10-29T19:27:17:396
1851707,000000	2020-10-29T19:27:17:437
1852649,000000	2020-10-29T19:27:17:476
1818858,000000	2020-10-29T19:27:17:517
1773880,000000	2020-10-29T19:27:17:558
1748902,000000	2020-10-29T19:27:17:597
1743638,000000	2020-10-29T19:27:17:635
1751037,000000	2020-10-29T19:27:17:678
1759783,000000	2020-10-29T19:27:17:716
1764157,000000	2020-10-29T19:27:17:758
1761088,000000	2020-10-29T19:27:17:798
1757123,000000	2020-10-29T19:27:17:837
1735661,000000	2020-10-29T19:27:17:876
1693121,000000	2020-10-29T19:27:17:917
1651950,000000	2020-10-29T19:27:17:957
1630277,000000	2020-10-29T19:27:17:997
1625134,000000	2020-10-29T19:27:18:039
1628151,000000	2020-10-29T19:27:18:077
1635618,000000	2020-10-29T19:27:18:117
1630402,000000	2020-10-29T19:27:18:157
1613264,000000	2020-10-29T19:27:18:197
1600894,000000	2020-10-29T19:27:18:237
1593031,000000	2020-10-29T19:27:18:278
1594803,000000	2020-10-29T19:27:18:317
1599977,000000	2020-10-29T19:27:18:357
1601659,000000	2020-10-29T19:27:18:398
1597894,000000	2020-10-29T19:27:18:437
1579624,000000	2020-10-29T19:27:18:477
1548110,000000	2020-10-29T19:27:18:518
1522039,000000	2020-10-29T19:27:18:558
1485878,000000	2020-10-29T19:27:18:597
1447389,000000	2020-10-29T19:27:18:639
1427861,000000	2020-10-29T19:27:18:677
1417414,000000	2020-10-29T19:27:18:718
1409131,000000	2020-10-29T19:27:18:759
1410531,000000	2020-10-29T19:27:18:797
1416393,000000	2020-10-29T19:27:18:837
1408869,000000	2020-10-29T19:27:18:878
1396293,000000	2020-10-29T19:27:18:917
1387683,000000	2020-10-29T19:27:18:958
1381971,000000	2020-10-29T19:27:18:999
1363137,000000	2020-10-29T19:27:19:038
1336253,000000	2020-10-29T19:27:19:077
1318172,000000	2020-10-29T19:27:19:118
1306661,000000	2020-10-29T19:27:19:158
1299487,000000	2020-10-29T19:27:19:198
1295847,000000	2020-10-29T19:27:19:239
1288974,000000	2020-10-29T19:27:19:278
1275511,000000	2020-10-29T19:27:19:318
1259315,000000	2020-10-29T19:27:19:359
1245909,000000	2020-10-29T19:27:19:398
1236013,000000	2020-10-29T19:27:19:438
1227906,000000	2020-10-29T19:27:19:479
1221620,000000	2020-10-29T19:27:19:519
1215386,000000	2020-10-29T19:27:19:558
1193455,000000	2020-10-29T19:27:19:599
1156472,000000	2020-10-29T19:27:19:638
1128809,000000	2020-10-29T19:27:19:678
1123630,000000	2020-10-29T19:27:19:720
1148801,000000	2020-10-29T19:27:19:767
1160368,000000	2020-10-29T19:27:19:798
1183471,000000	2020-10-29T19:27:19:839
1220077,000000	2020-10-29T19:27:19:878
1243130,000000	2020-10-29T19:27:19:919
1248849,000000	2020-10-29T19:27:19:960
1246815,000000	2020-10-29T19:27:19:999
1251447,000000	2020-10-29T19:27:20:039
1254675,000000	2020-10-29T19:27:20:079
1270660,000000	2020-10-29T19:27:20:119
1286462,000000	2020-10-29T19:27:20:159
1298584,000000	2020-10-29T19:27:20:200
1309966,000000	2020-10-29T19:27:20:240
1310458,000000	2020-10-29T19:27:20:279
1301959,000000	2020-10-29T19:27:20:320
1292827,000000	2020-10-29T19:27:20:358
1294120,000000	2020-10-29T19:27:20:400
1301410,000000	2020-10-29T19:27:20:439
1303841,000000	2020-10-29T19:27:20:480
1293217,000000	2020-10-29T19:27:20:519
1281847,000000	2020-10-29T19:27:20:561
1271743,000000	2020-10-29T19:27:20:598
1262065,000000	2020-10-29T19:27:20:639
1239478,000000	2020-10-29T19:27:20:681
1226302,000000	2020-10-29T19:27:20:720
1234492,000000	2020-10-29T19:27:20:759
1257945,000000	2020-10-29T19:27:20:800
1263963,000000	2020-10-29T19:27:20:839
1253180,000000	2020-10-29T19:27:20:880
1249230,000000	2020-10-29T19:27:20:921
1259820,000000	2020-10-29T19:27:20:960
1280596,000000	2020-10-29T19:27:20:999
1305603,000000	2020-10-29T19:27:21:040
1327688,000000	2020-10-29T19:27:21:079
1345485,000000	2020-10-29T19:27:21:121
1354746,000000	2020-10-29T19:27:21:161
1361715,000000	2020-10-29T19:27:21:200
1372296,000000	2020-10-29T19:27:21:239
1387136,000000	2020-10-29T19:27:21:280
1390662,000000	2020-10-29T19:27:21:319
1389181,000000	2020-10-29T19:27:21:361
1382019,000000	2020-10-29T19:27:21:401
1368487,000000	2020-10-29T19:27:21:441
1352305,000000	2020-10-29T19:27:21:480
1348331,000000	2020-10-29T19:27:21:520
1346263,000000	2020-10-29T19:27:21:560
1345263,000000	2020-10-29T19:27:21:601
1356151,000000	2020-10-29T19:27:21:640
1362469,000000	2020-10-29T19:27:21:680
1364050,000000	2020-10-29T19:27:21:720
1366129,000000	2020-10-29T19:27:21:761
1367291,000000	2020-10-29T19:27:21:800
1369276,000000	2020-10-29T19:27:21:841
1376391,000000	2020-10-29T19:27:21:883
1387451,000000	2020-10-29T19:27:21:922
1394858,000000	2020-10-29T19:27:21:960
1397319,000000	2020-10-29T19:27:22:001
1405570,000000	2020-10-29T19:27:22:041
1427111,000000	2020-10-29T19:27:22:081
1460956,000000	2020-10-29T19:27:22:125
1526257,000000	2020-10-29T19:27:22:161
1576974,000000	2020-10-29T19:27:22:201
1702308,000000	2020-10-29T19:27:22:242
1788833,000000	2020-10-29T19:27:22:281
1803092,000000	2020-10-29T19:27:22:322
1831008,000000	2020-10-29T19:27:22:363
1836303,000000	2020-10-29T19:27:22:402
1804140,000000	2020-10-29T19:27:22:441
1791819,000000	2020-10-29T19:27:22:482
1790615,000000	2020-10-29T19:27:22:521
1798276,000000	2020-10-29T19:27:22:562
1857443,000000	2020-10-29T19:27:22:603
1913886,000000	2020-10-29T19:27:22:642
1936826,000000	2020-10-29T19:27:22:682
1887580,000000	2020-10-29T19:27:22:722
1850030,000000	2020-10-29T19:27:22:762
1841848,000000	2020-10-29T19:27:23:153
1864419,000000	2020-10-29T19:27:23:153
1882623,000000	2020-10-29T19:27:23:155
1902542,000000	2020-10-29T19:27:23:156
1918596,000000	2020-10-29T19:27:23:156
1932043,000000	2020-10-29T19:27:23:167
1954356,000000	2020-10-29T19:27:23:170
1979170,000000	2020-10-29T19:27:23:171
2001588,000000	2020-10-29T19:27:23:172
2016215,000000	2020-10-29T19:27:23:173
2030762,000000	2020-10-29T19:27:23:200
2035437,000000	2020-10-29T19:27:23:243
2038115,000000	2020-10-29T19:27:23:281
2040560,000000	2020-10-29T19:27:23:321
2045481,000000	2020-10-29T19:27:23:392
2052312,000000	2020-10-29T19:27:23:423
2057286,000000	2020-10-29T19:27:23:441
2061770,000000	2020-10-29T19:27:23:481
2066417,000000	2020-10-29T19:27:23:521
2065675,000000	2020-10-29T19:27:23:569
2066041,000000	2020-10-29T19:27:23:608
2066360,000000	2020-10-29T19:27:23:640
2061526,000000	2020-10-29T19:27:23:681
2058757,000000	2020-10-29T19:27:23:722
2058238,000000	2020-10-29T19:27:23:765
2064032,000000	2020-10-29T19:27:23:805
2072044,000000	2020-10-29T19:27:23:844
2069516,000000	2020-10-29T19:27:23:926
2065662,000000	2020-10-29T19:27:23:928
2059435,000000	2020-10-29T19:27:23:964
2053695,000000	2020-10-29T19:27:24:036
2052230,000000	2020-10-29T19:27:24:044
2051842,000000	2020-10-29T19:27:24:100
2045657,000000	2020-10-29T19:27:24:123
2043329,000000	2020-10-29T19:27:24:165
2043788,000000	2020-10-29T19:27:24:203
2045293,000000	2020-10-29T19:27:24:243
2049899,000000	2020-10-29T19:27:24:284
2056530,000000	2020-10-29T19:27:24:324
2052260,000000	2020-10-29T19:27:24:363
2046899,000000	2020-10-29T19:27:24:404
2044311,000000	2020-10-29T19:27:24:443
2045525,000000	2020-10-29T19:27:24:485
2039359,000000	2020-10-29T19:27:24:529
2046410,000000	2020-10-29T19:27:24:563
2047533,000000	2020-10-29T19:27:24:603
2043956,000000	2020-10-29T19:27:24:643
2035772,000000	2020-10-29T19:27:24:683
2026453,000000	2020-10-29T19:27:24:724
2021747,000000	2020-10-29T19:27:24:768
2017934,000000	2020-10-29T19:27:24:901
2010762,000000	2020-10-29T19:27:24:931
2031401,000000	2020-10-29T19:27:24:932
2061436,000000	2020-10-29T19:27:24:932
2061631,000000	2020-10-29T19:27:25:017
2054950,000000	2020-10-29T19:27:25:018
2049814,000000	2020-10-29T19:27:25:042
2021582,000000	2020-10-29T19:27:25:081
1930959,000000	2020-10-29T19:27:25:131
1832101,000000	2020-10-29T19:27:25:182
1800905,000000	2020-10-29T19:27:25:205
1762921,000000	2020-10-29T19:27:25:241
1737431,000000	2020-10-29T19:27:25:285
1726696,000000	2020-10-29T19:27:25:323
1736152,000000	2020-10-29T19:27:25:366
1729025,000000	2020-10-29T19:27:25:404
1733863,000000	2020-10-29T19:27:25:474
1735454,000000	2020-10-29T19:27:25:488
1725361,000000	2020-10-29T19:27:25:526
1735138,000000	2020-10-29T19:27:25:563
1712401,000000	2020-10-29T19:27:25:604
1684244,000000	2020-10-29T19:27:25:644
1639656,000000	2020-10-29T19:27:25:685
1575778,000000	2020-10-29T19:27:25:726
1515270,000000	2020-10-29T19:27:25:765
1466316,000000	2020-10-29T19:27:25:818
1929249,000000	2020-10-29T19:27:29:107
1944439,000000	2020-10-29T19:27:29:117
1964019,000000	2020-10-29T19:27:29:467
1978484,000000	2020-10-29T19:27:29:468
1991880,000000	2020-10-29T19:27:29:469
2006641,000000	2020-10-29T19:27:29:470
2011332,000000	2020-10-29T19:27:29:471
2009121,000000	2020-10-29T19:27:29:471
2006607,000000	2020-10-29T19:27:29:472
2018931,000000	2020-10-29T19:27:29:539
2017642,000000	2020-10-29T19:27:29:552
2023984,000000	2020-10-29T19:27:29:556
2030501,000000	2020-10-29T19:27:29:562
2047331,000000	2020-10-29T19:27:29:598
2061260,000000	2020-10-29T19:27:29:646
2071832,000000	2020-10-29T19:27:29:679
2090207,000000	2020-10-29T19:27:29:721
2076678,000000	2020-10-29T19:27:29:820
2077621,000000	2020-10-29T19:27:29:821
2127655,000000	2020-10-29T19:27:29:841
2149327,000000	2020-10-29T19:27:29:880
2172613,000000	2020-10-29T19:27:29:916
2200368,000000	2020-10-29T19:27:29:956
2236117,000000	2020-10-29T19:27:29:999
2272566,000000	2020-10-29T19:27:30:039
2295165,000000	2020-10-29T19:27:30:080
2304231,000000	2020-10-29T19:27:30:125
2312207,000000	2020-10-29T19:27:30:156
2319262,000000	2020-10-29T19:27:30:204
2323855,000000	2020-10-29T19:27:30:246
2325682,000000	2020-10-29T19:27:30:286
2328263,000000	2020-10-29T19:27:30:317
2331652,000000	2020-10-29T19:27:30:358
2335681,000000	2020-10-29T19:27:30:399
2340242,000000	2020-10-29T19:27:30:439
2345433,000000	2020-10-29T19:27:30:484
2351420,000000	2020-10-29T19:27:30:519
2357747,000000	2020-10-29T19:27:30:558
2364617,000000	2020-10-29T19:27:30:600
2371769,000000	2020-10-29T19:27:30:640
2379349,000000	2020-10-29T19:27:30:683
2386295,000000	2020-10-29T19:27:30:720
2392296,000000	2020-10-29T19:27:30:759
2399670,000000	2020-10-29T19:27:30:802
2410867,000000	2020-10-29T19:27:30:839
2406360,000000	2020-10-29T19:27:30:879
2297502,000000	2020-10-29T19:27:30:919
2269360,000000	2020-10-29T19:27:30:959
2260804,000000	2020-10-29T19:27:31:003
2256732,000000	2020-10-29T19:27:31:043
2242281,000000	2020-10-29T19:27:31:082
2226882,000000	2020-10-29T19:27:31:120
2217934,000000	2020-10-29T19:27:31:160
2224576,000000	2020-10-29T19:27:31:206
2233051,000000	2020-10-29T19:27:31:240
2245697,000000	2020-10-29T19:27:31:279
2261620,000000	2020-10-29T19:27:31:321
2283116,000000	2020-10-29T19:27:31:359
2312949,000000	2020-10-29T19:27:31:403
2314202,000000	2020-10-29T19:27:31:441
2304441,000000	2020-10-29T19:27:31:484
2292769,000000	2020-10-29T19:27:31:742
2291791,000000	2020-10-29T19:27:31:742
2295930,000000	2020-10-29T19:27:31:743
2294685,000000	2020-10-29T19:27:31:743
2292142,000000	2020-10-29T19:27:31:744
2294692,000000	2020-10-29T19:27:31:745
2291286,000000	2020-10-29T19:27:31:758
2266673,000000	2020-10-29T19:27:31:799
2235271,000000	2020-10-29T19:27:31:982
2215063,000000	2020-10-29T19:27:31:984
2195784,000000	2020-10-29T19:27:32:005
2177554,000000	2020-10-29T19:27:32:005
2165960,000000	2020-10-29T19:27:32:010
2166105,000000	2020-10-29T19:27:32:040
2168518,000000	2020-10-29T19:27:32:079
2168262,000000	2020-10-29T19:27:32:122
2166072,000000	2020-10-29T19:27:32:187
2162744,000000	2020-10-29T19:27:32:220
2162096,000000	2020-10-29T19:27:32:243
2179849,000000	2020-10-29T19:27:32:281
2204898,000000	2020-10-29T19:27:32:318
2225741,000000	2020-10-29T19:27:32:364
2233246,000000	2020-10-29T19:27:32:402
2238207,000000	2020-10-29T19:27:32:442
2251709,000000	2020-10-29T19:27:32:480
2267565,000000	2020-10-29T19:27:32:522
2300592,000000	2020-10-29T19:27:32:575
2356273,000000	2020-10-29T19:27:32:601
2406745,000000	2020-10-29T19:27:32:642
2439159,000000	2020-10-29T19:27:32:686
2458912,000000	2020-10-29T19:27:32:720
2469523,000000	2020-10-29T19:27:32:762
2441531,000000	2020-10-29T19:27:32:801
2334328,000000	2020-10-29T19:27:32:843
2254707,000000	2020-10-29T19:27:32:883
2204381,000000	2020-10-29T19:27:32:922
2166403,000000	2020-10-29T19:27:32:961
2120182,000000	2020-10-29T19:27:33:010
1796770,000000	2020-10-29T19:27:38:291
1790148,000000	2020-10-29T19:27:38:294
1790935,000000	2020-10-29T19:27:38:295
1792533,000000	2020-10-29T19:27:38:295
1809948,000000	2020-10-29T19:27:38:296
1833904,000000	2020-10-29T19:27:38:297
1833281,000000	2020-10-29T19:27:38:297
1843583,000000	2020-10-29T19:27:38:421
1945809,000000	2020-10-29T19:27:38:422
2056612,000000	2020-10-29T19:27:38:423
2074002,000000	2020-10-29T19:27:38:529
2063454,000000	2020-10-29T19:27:38:554
2043428,000000	2020-10-29T19:27:38:555
2022795,000000	2020-10-29T19:27:38:574
1966529,000000	2020-10-29T19:27:38:620
1984699,000000	2020-10-29T19:27:38:653
2030001,000000	2020-10-29T19:27:38:766
2055133,000000	2020-10-29T19:27:38:776
2043628,000000	2020-10-29T19:27:38:778
2049398,000000	2020-10-29T19:27:38:836
2024965,000000	2020-10-29T19:27:38:853
2001441,000000	2020-10-29T19:27:38:897
2073652,000000	2020-10-29T19:27:38:952
2110945,000000	2020-10-29T19:27:39:011
2123489,000000	2020-10-29T19:27:39:022
2138530,000000	2020-10-29T19:27:39:057
2139464,000000	2020-10-29T19:27:39:096
2141053,000000	2020-10-29T19:27:39:134
2145849,000000	2020-10-29T19:27:39:177
2151192,000000	2020-10-29T19:27:39:264
2153296,000000	2020-10-29T19:27:39:266
2155830,000000	2020-10-29T19:27:39:301
2171334,000000	2020-10-29T19:27:39:335
2190206,000000	2020-10-29T19:27:39:378
2194691,000000	2020-10-29T19:27:39:421
2191028,000000	2020-10-29T19:27:39:454
2188020,000000	2020-10-29T19:27:39:498
2184768,000000	2020-10-29T19:27:39:537
2186040,000000	2020-10-29T19:27:39:576
2190535,000000	2020-10-29T19:27:39:615
2193664,000000	2020-10-29T19:27:39:656
2197877,000000	2020-10-29T19:27:39:716
2134268,000000	2020-10-29T19:28:16:611
2125631,000000	2020-10-29T19:28:16:612
2120920,000000	2020-10-29T19:28:16:629
2117627,000000	2020-10-29T19:28:16:630
2115796,000000	2020-10-29T19:28:16:631
2114787,000000	2020-10-29T19:28:16:636
2104589,000000	2020-10-29T19:28:16:800
2110284,000000	2020-10-29T19:28:16:800
2135769,000000	2020-10-29T19:28:16:801
2179546,000000	2020-10-29T19:28:16:802
2202560,000000	2020-10-29T19:28:16:802
2196545,000000	2020-10-29T19:28:16:804
2177531,000000	2020-10-29T19:28:16:805
2142881,000000	2020-10-29T19:28:16:806
2110703,000000	2020-10-29T19:28:16:806
2104351,000000	2020-10-29T19:28:16:807
2102817,000000	2020-10-29T19:28:16:808
2054497,000000	2020-10-29T19:28:16:818
2042556,000000	2020-10-29T19:28:16:849
2038118,000000	2020-10-29T19:28:16:876
2034927,000000	2020-10-29T19:28:16:918
2032881,000000	2020-10-29T19:28:16:982
2016399,000000	2020-10-29T19:28:17:002
2002073,000000	2020-10-29T19:28:17:037
1994617,000000	2020-10-29T19:28:17:076
1985570,000000	2020-10-29T19:28:17:131
1960830,000000	2020-10-29T19:28:17:283
1935522,000000	2020-10-29T19:28:17:284
1918236,000000	2020-10-29T19:28:17:309
1906171,000000	2020-10-29T19:28:17:315
1888878,000000	2020-10-29T19:28:17:316
1865465,000000	2020-10-29T19:28:17:358
1846775,000000	2020-10-29T19:28:17:404
1834202,000000	2020-10-29T19:28:17:439
1816877,000000	2020-10-29T19:28:17:479
1801054,000000	2020-10-29T19:28:17:521
1789871,000000	2020-10-29T19:28:17:559
1775454,000000	2020-10-29T19:28:17:604
1748431,000000	2020-10-29T19:28:17:640
1715919,000000	2020-10-29T19:28:17:679
1686789,000000	2020-10-29T19:28:17:727
1658433,000000	2020-10-29T19:28:17:766
1635684,000000	2020-10-29T19:28:17:831
1614951,000000	2020-10-29T19:28:17:844
1599986,000000	2020-10-29T19:28:17:878
1590941,000000	2020-10-29T19:28:17:929
1582478,000000	2020-10-29T19:28:17:959
1573329,000000	2020-10-29T19:28:18:000
1563251,000000	2020-10-29T19:28:18:038
1557042,000000	2020-10-29T19:28:18:079
1549371,000000	2020-10-29T19:28:18:119
1532953,000000	2020-10-29T19:28:18:158
1493325,000000	2020-10-29T19:28:18:204
1452630,000000	2020-10-29T19:28:18:251
1423361,000000	2020-10-29T19:28:18:330
1403330,000000	2020-10-29T19:28:18:333
1389017,000000	2020-10-29T19:28:18:401
1377704,000000	2020-10-29T19:28:18:401
1365784,000000	2020-10-29T19:28:18:455
1352546,000000	2020-10-29T19:28:18:484
1340197,000000	2020-10-29T19:28:18:525
1329818,000000	2020-10-29T19:28:18:560
1321705,000000	2020-10-29T19:28:18:599
1315408,000000	2020-10-29T19:28:18:658
1310241,000000	2020-10-29T19:28:18:807
1303780,000000	2020-10-29T19:28:18:808
1271761,000000	2020-10-29T19:28:18:809
1231872,000000	2020-10-29T19:28:18:809
1203805,000000	2020-10-29T19:28:18:867
1187676,000000	2020-10-29T19:28:18:879
1178652,000000	2020-10-29T19:28:18:918
1174022,000000	2020-10-29T19:28:18:959
1168734,000000	2020-10-29T19:28:19:062
1161360,000000	2020-10-29T19:28:19:063
1153635,000000	2020-10-29T19:28:19:079
1147278,000000	2020-10-29T19:28:19:121
1142883,000000	2020-10-29T19:28:19:164
1140064,000000	2020-10-29T19:28:19:203
1139539,000000	2020-10-29T19:28:19:240
1140562,000000	2020-10-29T19:28:19:279
1127911,000000	2020-10-29T19:28:19:320
1095650,000000	2020-10-29T19:28:19:361
1069996,000000	2020-10-29T19:28:19:400
1057149,000000	2020-10-29T19:28:19:442
1052017,000000	2020-10-29T19:28:19:481
1052120,000000	2020-10-29T19:28:19:525
1053142,000000	2020-10-29T19:28:19:562
1052299,000000	2020-10-29T19:28:19:601
1049691,000000	2020-10-29T19:28:19:642
1048095,000000	2020-10-29T19:28:19:683
1049173,000000	2020-10-29T19:28:19:739
1051544,000000	2020-10-29T19:28:19:762
1054919,000000	2020-10-29T19:28:19:811
1059325,000000	2020-10-29T19:28:19:842
1060053,000000	2020-10-29T19:28:19:884
1038870,000000	2020-10-29T19:28:19:922
1017600,000000	2020-10-29T19:28:19:961
1010027,000000	2020-10-29T19:28:20:002
1009473,000000	2020-10-29T19:28:20:043
1013379,000000	2020-10-29T19:28:20:081
1021142,000000	2020-10-29T19:28:20:121
1026045,000000	2020-10-29T19:28:20:333
1027840,000000	2020-10-29T19:28:20:352
1030030,000000	2020-10-29T19:28:20:353
1034741,000000	2020-10-29T19:28:20:367
1040821,000000	2020-10-29T19:28:20:384
1047278,000000	2020-10-29T19:28:20:394
1054496,000000	2020-10-29T19:28:20:402
1061518,000000	2020-10-29T19:28:20:444
1066156,000000	2020-10-29T19:28:20:481
1051745,000000	2020-10-29T19:28:20:520
1035191,000000	2020-10-29T19:28:20:561
1028780,000000	2020-10-29T19:28:20:601
1031461,000000	2020-10-29T19:28:20:642
1038929,000000	2020-10-29T19:28:20:681
1047464,000000	2020-10-29T19:28:20:721
1054277,000000	2020-10-29T19:28:20:763
1058290,000000	2020-10-29T19:28:20:803
1061703,000000	2020-10-29T19:28:20:842
1066178,000000	2020-10-29T19:28:20:884
1072491,000000	2020-10-29T19:28:20:922
1079487,000000	2020-10-29T19:28:20:962
1086259,000000	2020-10-29T19:28:21:003
1093103,000000	2020-10-29T19:28:21:043
1100695,000000	2020-10-29T19:28:21:093
1099676,000000	2020-10-29T19:28:21:122
1087646,000000	2020-10-29T19:28:21:161
1082215,000000	2020-10-29T19:28:21:204
1077558,000000	2020-10-29T19:28:21:250
1078836,000000	2020-10-29T19:28:21:308
1083813,000000	2020-10-29T19:28:21:320
1086644,000000	2020-10-29T19:28:21:362
1087783,000000	2020-10-29T19:28:21:400
1088181,000000	2020-10-29T19:28:21:444
1089805,000000	2020-10-29T19:28:21:486
1092904,000000	2020-10-29T19:28:21:532
1095837,000000	2020-10-29T19:28:21:565
1099471,000000	2020-10-29T19:28:21:602
1103894,000000	2020-10-29T19:28:21:644
1108442,000000	2020-10-29T19:28:21:684
1102349,000000	2020-10-29T19:28:21:724
1084895,000000	2020-10-29T19:28:21:764
1068009,000000	2020-10-29T19:28:21:803
1065039,000000	2020-10-29T19:28:21:844
1071344,000000	2020-10-29T19:28:21:883
1079172,000000	2020-10-29T19:28:21:925
1086830,000000	2020-10-29T19:28:21:964
1093787,000000	2020-10-29T19:28:22:004
1097673,000000	2020-10-29T19:28:22:043
1101483,000000	2020-10-29T19:28:22:085
1107009,000000	2020-10-29T19:28:22:123
1112388,000000	2020-10-29T19:28:22:164
1117281,000000	2020-10-29T19:28:22:206
1122275,000000	2020-10-29T19:28:22:244
1127507,000000	2020-10-29T19:28:22:282
1120271,000000	2020-10-29T19:28:22:324
1110901,000000	2020-10-29T19:28:22:365
1107287,000000	2020-10-29T19:28:22:407
1107282,000000	2020-10-29T19:28:22:446
1110478,000000	2020-10-29T19:28:22:491
1113740,000000	2020-10-29T19:28:22:529
1116614,000000	2020-10-29T19:28:22:567
1119301,000000	2020-10-29T19:28:22:616
1122616,000000	2020-10-29T19:28:22:691
1126240,000000	2020-10-29T19:28:22:732
