x	y	z	ts
2,136754	1,186566	-0,461410	2020-10-29T19:26:04:260
0,031921	0,180344	-0,109200	2020-10-29T19:26:04:261
-0,005727	0,249685	-0,057367	2020-10-29T19:26:04:312
-0,181083	-0,102533	-0,019018	2020-10-29T19:26:04:317
-0,174974	-0,103090	-0,020695	2020-10-29T19:26:04:319
-0,164286	-0,104069	-0,023617	2020-10-29T19:26:04:321
-0,136777	0,146626	-0,075493	2020-10-29T19:26:04:323
-0,058876	0,229820	-0,239717	2020-10-29T19:26:04:345
-0,334242	0,257397	-0,334379	2020-10-29T19:26:04:364
-0,282344	-0,100354	-0,160249	2020-10-29T19:26:04:385
-0,188966	0,006510	-0,088045	2020-10-29T19:26:04:404
-0,176099	-0,014483	-0,210479	2020-10-29T19:26:04:424
-0,051374	-0,140722	-0,309971	2020-10-29T19:26:04:445
0,178432	-0,137996	-0,245968	2020-10-29T19:26:04:465
0,284647	-0,292590	0,024729	2020-10-29T19:26:04:484
0,239148	-0,044748	0,141042	2020-10-29T19:26:04:505
0,270247	0,010097	0,234359	2020-10-29T19:26:04:524
0,363671	0,034880	0,289359	2020-10-29T19:26:04:547
0,516022	0,007806	0,306357	2020-10-29T19:26:04:564
0,527644	-0,246403	0,169806	2020-10-29T19:26:04:585
0,473025	-0,285167	-0,054667	2020-10-29T19:26:04:604
0,447174	-0,001232	-0,339591	2020-10-29T19:26:04:625
0,399569	0,191113	-0,722482	2020-10-29T19:26:04:645
0,419745	0,421119	-1,102312	2020-10-29T19:26:04:665
-2,758397	-0,229683	-0,039039	2020-10-29T19:26:04:685
-3,045505	-0,150875	-0,355620	2020-10-29T19:26:04:707
-3,296185	-0,169300	-0,499264	2020-10-29T19:26:04:725
-3,589613	-0,193619	-0,661296	2020-10-29T19:26:04:747
-3,625397	-0,818597	-0,521027	2020-10-29T19:26:04:765
-3,613846	-1,436203	0,009509	2020-10-29T19:26:04:786
-3,721695	-1,770265	0,207364	2020-10-29T19:26:04:805
-3,601999	-2,429985	0,874069	2020-10-29T19:26:04:826
-3,098942	-3,222195	1,644608	2020-10-29T19:26:04:845
-2,515695	-3,852327	2,211770	2020-10-29T19:26:04:867
-2,242777	-3,904615	2,138915	2020-10-29T19:26:04:884
-2,387087	-3,755156	1,961413	2020-10-29T19:26:04:906
-2,722486	-3,338270	1,915281	2020-10-29T19:26:04:924
-3,114477	-2,939282	1,946969	2020-10-29T19:26:04:947
-3,245452	-2,893425	1,918617	2020-10-29T19:26:04:964
-3,442378	-3,195266	1,865479	2020-10-29T19:26:04:986
-3,584842	-3,174634	1,593299	2020-10-29T19:26:05:005
-3,560849	-3,618435	1,110527	2020-10-29T19:26:05:025
-3,640900	-3,748244	0,564251	2020-10-29T19:26:05:045
-3,356322	-5,010744	0,665888	2020-10-29T19:26:05:067
-2,573759	-5,573471	0,639160	2020-10-29T19:26:05:084
-2,062530	-6,227440	0,003462	2020-10-29T19:26:05:106
-1,896377	-6,321665	-0,870985	2020-10-29T19:26:05:125
-1,800264	-6,668425	-1,447817	2020-10-29T19:26:05:146
-1,455021	-6,664689	-1,808410	2020-10-29T19:26:05:165
-1,226785	-6,859899	-2,629815	2020-10-29T19:26:05:186
-1,097558	-7,512416	-3,339830	2020-10-29T19:26:05:332
-1,062781	-8,062354	-3,844143	2020-10-29T19:26:05:334
-0,866346	-8,449892	-4,302302	2020-10-29T19:26:05:335
-0,800703	-8,063117	-4,276828	2020-10-29T19:26:05:336
-1,004896	-7,568245	-4,143089	2020-10-29T19:26:05:336
-1,164902	-6,937955	-4,315894	2020-10-29T19:26:05:336
-1,123758	-6,342843	-4,467362	2020-10-29T19:26:05:337
-1,078319	-5,751075	-4,567682	2020-10-29T19:26:05:353
-1,053878	-5,189387	-4,485865	2020-10-29T19:26:05:369
-0,872089	-5,127644	-4,226438	2020-10-29T19:26:05:386
-0,605558	-5,028362	-4,088592	2020-10-29T19:26:05:405
-0,564069	-4,662464	-3,927043	2020-10-29T19:26:05:427
-0,406027	-4,407475	-3,808203	2020-10-29T19:26:05:445
-0,331889	-4,180316	-3,479019	2020-10-29T19:26:05:467
-0,317894	-3,984175	-3,184502	2020-10-29T19:26:05:485
-0,146212	-3,800473	-2,984226	2020-10-29T19:26:05:509
-0,029244	-3,169014	-2,413038	2020-10-29T19:26:05:525
-0,072316	-2,915374	-2,271861	2020-10-29T19:26:05:548
-0,069365	-2,433764	-2,074200	2020-10-29T19:26:05:565
0,175174	-1,720856	-2,011418	2020-10-29T19:26:05:587
0,811067	-1,122323	-1,847559	2020-10-29T19:26:05:605
1,499761	-0,733423	-1,591825	2020-10-29T19:26:05:628
1,637703	-0,481975	-1,493106	2020-10-29T19:26:05:645
1,243978	-0,246754	-1,370366	2020-10-29T19:26:05:668
1,016850	-0,078283	-1,341241	2020-10-29T19:26:05:685
1,481145	0,174829	-1,344059	2020-10-29T19:26:05:707
2,185357	-0,001211	-1,216554	2020-10-29T19:26:05:726
2,438320	-0,238218	-1,245023	2020-10-29T19:26:05:747
2,081596	-0,317169	-1,325842	2020-10-29T19:26:05:774
1,222281	-0,054817	-1,308022	2020-10-29T19:26:05:788
0,540024	0,342808	-1,108263	2020-10-29T19:26:05:805
0,227079	0,656188	-1,001112	2020-10-29T19:26:05:828
-0,037855	0,816741	-1,019676	2020-10-29T19:26:05:849
0,175579	1,128270	-1,180482	2020-10-29T19:26:05:868
0,733129	1,390622	-1,393779	2020-10-29T19:26:05:885
1,322762	1,706215	-1,569109	2020-10-29T19:26:05:911
1,805979	1,936423	-1,681064	2020-10-29T19:26:05:927
1,949978	2,111025	-1,780720	2020-10-29T19:26:05:950
1,702269	2,288171	-1,856161	2020-10-29T19:26:05:976
1,478443	3,067344	-1,622446	2020-10-29T19:26:06:001
0,995093	3,313805	-1,529126	2020-10-29T19:26:06:013
0,678918	3,534808	-1,264235	2020-10-29T19:26:06:029
0,570446	3,655709	-0,872100	2020-10-29T19:26:06:047
0,631066	3,733999	-0,779551	2020-10-29T19:26:06:069
0,860085	3,760550	-0,825496	2020-10-29T19:26:06:088
1,196568	3,854125	-0,593968	2020-10-29T19:26:06:110
1,488492	3,631592	-0,677717	2020-10-29T19:26:06:127
1,448630	3,279648	-0,443292	2020-10-29T19:26:06:161
3,451423	3,461503	-0,297330	2020-10-29T19:26:12:111
3,136296	3,730668	-0,098630	2020-10-29T19:26:12:114
3,118254	3,257339	0,911941	2020-10-29T19:26:12:145
2,284670	2,752487	1,256215	2020-10-29T19:26:12:148
0,640823	2,341356	1,354415	2020-10-29T19:26:12:171
0,018939	2,149329	1,263194	2020-10-29T19:26:12:183
0,674722	2,581328	0,572354	2020-10-29T19:26:12:206
1,605952	3,333775	-0,354620	2020-10-29T19:26:12:224
1,277193	4,182711	-0,918727	2020-10-29T19:26:12:250
0,383689	4,746176	-1,194825	2020-10-29T19:26:12:265
-0,516669	5,011072	-1,217331	2020-10-29T19:26:12:287
-1,090121	4,859817	-1,131211	2020-10-29T19:26:12:303
-1,280447	3,512928	-1,457675	2020-10-29T19:26:12:329
-1,024415	3,201861	-1,742421	2020-10-29T19:26:12:344
0,786020	2,486209	-2,076513	2020-10-29T19:26:12:367
2,326487	2,305407	-2,520013	2020-10-29T19:26:12:384
3,285362	2,301539	-3,130529	2020-10-29T19:26:12:409
3,578514	2,599182	-3,473981	2020-10-29T19:26:12:424
3,894660	3,182546	-3,368328	2020-10-29T19:26:12:447
3,844570	3,829453	-2,885864	2020-10-29T19:26:12:464
2,813547	4,530882	-1,781583	2020-10-29T19:26:12:488
1,611168	4,643827	-0,396594	2020-10-29T19:26:12:505
0,717560	4,603329	0,430484	2020-10-29T19:26:12:528
0,561556	4,322241	0,616310	2020-10-29T19:26:12:544
0,135048	3,639420	1,170937	2020-10-29T19:26:12:568
-0,005012	2,716208	2,052935	2020-10-29T19:26:12:584
-0,202208	0,706325	1,481918	2020-10-29T19:26:12:608
0,790813	1,129855	0,397969	2020-10-29T19:26:12:624
1,047867	1,457165	-0,761289	2020-10-29T19:26:12:649
0,688288	1,141639	-1,054968	2020-10-29T19:26:12:664
0,540142	0,796521	-0,953212	2020-10-29T19:26:12:687
0,383768	0,732014	-0,664903	2020-10-29T19:26:12:704
3,243957	4,575397	-1,433936	2020-10-29T19:26:12:728
3,288227	4,453814	-1,438307	2020-10-29T19:26:12:744
3,231202	4,418996	-1,891568	2020-10-29T19:26:12:768
3,333421	4,294579	-2,529905	2020-10-29T19:26:12:784
3,124962	4,292999	-2,777997	2020-10-29T19:26:12:809
2,227943	4,835038	-2,881445	2020-10-29T19:26:12:824
1,151684	5,189936	-2,791016	2020-10-29T19:26:12:847
0,204161	5,118954	-3,162925	2020-10-29T19:26:12:865
-0,485585	5,097990	-3,703061	2020-10-29T19:26:12:890
-0,580642	4,741326	-4,443927	2020-10-29T19:26:12:904
0,662115	4,527927	-5,570609	2020-10-29T19:26:12:928
2,869793	3,983753	-6,502195	2020-10-29T19:26:12:944
5,643845	2,966311	-7,041881	2020-10-29T19:26:12:969
8,078255	2,152894	-7,445051	2020-10-29T19:26:12:984
7,413473	1,532373	-7,127316	2020-10-29T19:26:13:008
6,679316	1,726702	-7,254153	2020-10-29T19:26:13:024
8,272782	2,484745	-8,053843	2020-10-29T19:26:13:050
8,657715	2,841409	-8,266276	2020-10-29T19:26:13:066
7,757906	2,471750	-7,908986	2020-10-29T19:26:13:088
6,955065	2,863878	-7,591061	2020-10-29T19:26:13:104
6,583042	3,573751	-7,468878	2020-10-29T19:26:13:130
6,188471	4,247497	-7,565736	2020-10-29T19:26:13:144
5,667118	4,483266	-7,634102	2020-10-29T19:26:13:168
5,318861	4,566927	-7,740608	2020-10-29T19:26:13:184
5,122529	4,716912	-7,616470	2020-10-29T19:26:13:208
4,704850	4,628219	-7,214426	2020-10-29T19:26:13:225
4,440128	4,485837	-6,607816	2020-10-29T19:26:13:248
4,396145	4,091815	-6,191763	2020-10-29T19:26:13:265
4,385960	4,019887	-5,961284	2020-10-29T19:26:13:289
4,281495	4,245951	-5,764010	2020-10-29T19:26:13:305
3,987577	4,113766	-5,836625	2020-10-29T19:26:13:328
3,809370	3,897680	-6,033688	2020-10-29T19:26:13:345
4,019476	4,091138	-6,308137	2020-10-29T19:26:13:370
4,607161	3,985911	-6,515192	2020-10-29T19:26:13:385
5,237947	3,602578	-6,410611	2020-10-29T19:26:13:408
5,957544	2,843364	-6,467202	2020-10-29T19:26:13:425
6,117943	2,978826	-6,103968	2020-10-29T19:26:13:450
6,405083	2,569653	-5,634974	2020-10-29T19:26:13:465
6,755870	2,659297	-5,422816	2020-10-29T19:26:13:488
7,021243	2,878930	-5,189106	2020-10-29T19:26:13:505
7,435017	2,859684	-5,033197	2020-10-29T19:26:13:529
7,546758	2,889851	-4,899107	2020-10-29T19:26:13:546
6,774740	3,368306	-4,922617	2020-10-29T19:26:13:569
7,418408	2,322642	-3,608958	2020-10-29T19:26:13:585
8,886580	0,394072	-2,760706	2020-10-29T19:26:13:610
7,285471	2,961313	-2,590836	2020-10-29T19:26:13:627
5,187647	4,267039	-3,150558	2020-10-29T19:26:13:649
-1,725429	0,194412	0,305537	2020-10-29T19:26:13:666
-1,199390	-0,271786	-1,109252	2020-10-29T19:26:13:690
-1,594205	0,022531	-0,427298	2020-10-29T19:26:13:705
-1,526179	-0,559091	0,770851	2020-10-29T19:26:13:729
-0,352300	-0,779324	1,315922	2020-10-29T19:26:13:746
-0,099099	0,334810	0,998595	2020-10-29T19:26:13:770
-0,773830	0,190519	1,648536	2020-10-29T19:26:13:786
-0,521863	-1,077730	1,314732	2020-10-29T19:26:13:808
1,193505	-2,290050	3,311828	2020-10-29T19:26:13:827
5,083603	-4,151715	8,885386	2020-10-29T19:26:13:850
2,630801	-4,307303	1,312123	2020-10-29T19:26:13:867
-1,198194	-2,062702	0,096214	2020-10-29T19:26:13:889
-0,851624	-3,277740	0,393323	2020-10-29T19:26:13:906
-1,640334	-2,062867	1,567195	2020-10-29T19:26:13:930
-4,882689	-1,999513	2,001907	2020-10-29T19:26:13:946
-7,071113	-0,948347	2,021450	2020-10-29T19:26:13:969
-5,571898	-1,771730	2,074607	2020-10-29T19:26:13:987
-6,055776	-2,686898	1,040281	2020-10-29T19:26:14:010
-7,651927	-3,036625	1,143740	2020-10-29T19:26:14:026
-7,470345	-3,743667	1,376977	2020-10-29T19:26:14:049
-6,151512	-3,271502	1,028089	2020-10-29T19:26:14:067
-5,314817	-0,568843	1,698907	2020-10-29T19:26:14:092
-4,518558	2,531671	0,865093	2020-10-29T19:26:14:106
-3,372540	1,116706	-1,309160	2020-10-29T19:26:14:130
-3,456295	-0,271394	-2,127835	2020-10-29T19:26:14:146
-3,507137	1,726150	-2,342154	2020-10-29T19:26:14:170
-2,865850	2,167953	-2,036680	2020-10-29T19:26:14:187
-2,301360	3,050125	-1,289455	2020-10-29T19:26:14:209
-1,423880	3,974639	-0,150329	2020-10-29T19:26:14:234
-0,412284	2,774706	0,299664	2020-10-29T19:26:14:255
0,042013	1,565320	0,035365	2020-10-29T19:26:14:371
0,331954	-0,227536	-0,256372	2020-10-29T19:26:14:375
0,418291	-1,444791	0,098195	2020-10-29T19:26:14:376
0,705377	-2,470405	1,815110	2020-10-29T19:26:14:376
1,191120	-3,910884	2,870346	2020-10-29T19:26:14:410
0,882291	-2,788879	0,851967	2020-10-29T19:26:14:471
-0,600970	-0,303379	-0,615477	2020-10-29T19:26:14:472
-1,333122	0,194462	0,036059	2020-10-29T19:26:14:481
-1,639472	-0,169288	0,777495	2020-10-29T19:26:14:482
-1,881506	-0,062633	1,015280	2020-10-29T19:26:14:482
-1,670934	-0,036990	0,766959	2020-10-29T19:26:14:483
-1,895160	0,085099	0,641977	2020-10-29T19:26:14:488
-1,467228	0,037201	0,387477	2020-10-29T19:26:14:508
-1,019528	-0,063129	0,131824	2020-10-29T19:26:14:540
-0,739769	0,285723	-0,192006	2020-10-29T19:26:14:551
-0,524922	0,182163	-0,485952	2020-10-29T19:26:14:570
-0,311102	-0,011170	-0,700950	2020-10-29T19:26:14:585
-0,127796	-0,442870	-0,668828	2020-10-29T19:26:14:610
0,000453	-0,593647	-0,522557	2020-10-29T19:26:14:628
0,111684	-0,736349	-0,296741	2020-10-29T19:26:14:654
0,294259	-0,698807	-0,078122	2020-10-29T19:26:14:664
0,316734	-0,647278	-0,157538	2020-10-29T19:26:14:687
0,309901	-0,525032	-0,216455	2020-10-29T19:26:14:705
0,278565	-0,485019	-0,238777	2020-10-29T19:26:14:729
0,247283	-0,508099	-0,038171	2020-10-29T19:26:14:745
0,065649	-0,529652	0,112218	2020-10-29T19:26:14:768
-0,163080	-0,516058	0,146948	2020-10-29T19:26:14:786
-0,431334	-0,181510	0,157180	2020-10-29T19:26:14:812
-0,569452	-0,298398	0,329202	2020-10-29T19:26:14:826
-0,444293	-0,306128	0,173521	2020-10-29T19:26:14:850
-0,585627	-0,183672	0,059486	2020-10-29T19:26:14:867
-0,500697	-0,245021	0,179222	2020-10-29T19:26:14:890
-0,238638	-0,181511	0,113122	2020-10-29T19:26:14:907
-0,295732	-0,006975	-0,111661	2020-10-29T19:26:14:930
-0,175011	0,102345	-0,129929	2020-10-29T19:26:14:946
-0,156042	0,179494	-0,034696	2020-10-29T19:26:14:971
-0,072029	0,081588	0,002708	2020-10-29T19:26:14:987
-0,041924	0,035114	0,026610	2020-10-29T19:26:15:010
-0,077793	-0,084865	-0,344835	2020-10-29T19:26:15:027
0,055521	-0,484921	0,026580	2020-10-29T19:26:15:052
0,061810	-0,410179	0,000955	2020-10-29T19:26:15:067
-0,185665	-0,086395	0,136919	2020-10-29T19:26:15:090
0,018549	0,156841	0,311239	2020-10-29T19:26:15:107
-0,323286	0,395780	0,342039	2020-10-29T19:26:15:131
-0,634954	0,072039	0,794701	2020-10-29T19:26:15:149
-0,924346	0,093918	0,797147	2020-10-29T19:26:15:170
-1,887638	0,413679	0,683003	2020-10-29T19:26:15:187
-2,870831	0,285425	0,099190	2020-10-29T19:26:15:211
-3,710919	0,898365	-0,329431	2020-10-29T19:26:15:227
-3,588367	0,779372	0,013193	2020-10-29T19:26:15:254
-3,160716	0,399864	0,219064	2020-10-29T19:26:15:267
-2,956478	-0,345690	-0,220203	2020-10-29T19:26:15:292
-2,815802	-0,201061	-0,579144	2020-10-29T19:26:15:307
-2,525052	0,378453	-0,693967	2020-10-29T19:26:15:330
-2,253062	0,919449	-0,581285	2020-10-29T19:26:15:346
-1,340930	0,709715	-0,357633	2020-10-29T19:26:15:371
-0,417753	1,758202	-0,080062	2020-10-29T19:26:15:390
0,859444	2,449692	0,761336	2020-10-29T19:26:15:411
1,772235	-5,261856	-1,556613	2020-10-29T19:26:15:429
1,780916	-5,313465	-1,438706	2020-10-29T19:26:15:452
1,575168	2,436547	1,640012	2020-10-29T19:26:15:472
1,633628	2,275342	1,503965	2020-10-29T19:26:15:490
1,173867	1,215364	1,019235	2020-10-29T19:26:15:508
1,033035	0,119672	1,655222	2020-10-29T19:26:15:532
1,058255	0,691745	2,065497	2020-10-29T19:26:15:548
1,031171	1,131544	2,877950	2020-10-29T19:26:15:571
1,631207	2,604880	1,173146	2020-10-29T19:26:15:588
1,013251	1,741653	-0,476419	2020-10-29T19:26:15:612
2,186548	-3,584592	-0,487037	2020-10-29T19:26:15:628
2,310171	-4,161347	-0,625853	2020-10-29T19:26:15:651
2,412734	-1,362794	-0,431526	2020-10-29T19:26:15:668
2,340898	-0,260248	-0,729051	2020-10-29T19:26:15:692
3,075494	1,048627	-1,702930	2020-10-29T19:26:15:712
3,879339	1,053142	-2,307950	2020-10-29T19:26:15:797
4,272114	-0,145710	-2,436657	2020-10-29T19:26:15:799
4,578308	-0,083364	-1,578548	2020-10-29T19:26:15:800
5,284987	0,081425	-1,733295	2020-10-29T19:26:15:801
6,082988	2,575156	-1,072392	2020-10-29T19:26:15:847
6,890801	4,332045	-2,162358	2020-10-29T19:26:15:848
7,786486	1,683988	-3,403086	2020-10-29T19:26:15:850
7,696323	0,460542	-3,957361	2020-10-29T19:26:15:931
6,943250	0,237239	-3,149270	2020-10-29T19:26:15:932
5,870501	-0,279391	-2,590337	2020-10-29T19:26:15:932
4,802871	0,771661	-1,209725	2020-10-29T19:26:15:933
3,719309	1,493128	-0,561649	2020-10-29T19:26:15:946
2,713272	2,457200	-0,846044	2020-10-29T19:26:15:969
1,732201	3,281583	-1,103220	2020-10-29T19:26:15:986
1,302792	3,131052	-1,326060	2020-10-29T19:26:16:013
1,008012	3,383922	-1,636315	2020-10-29T19:26:16:038
0,692458	3,801116	-1,801245	2020-10-29T19:26:16:062
0,643164	3,656027	-1,938448	2020-10-29T19:26:16:068
1,133733	3,308006	-1,914712	2020-10-29T19:26:16:091
1,863681	2,733080	-2,233352	2020-10-29T19:26:16:108
2,124756	2,340104	-2,463228	2020-10-29T19:26:16:133
1,352988	1,606718	-2,255959	2020-10-29T19:26:16:148
0,197423	1,763079	-1,660382	2020-10-29T19:26:16:173
-0,814740	1,466369	-1,248816	2020-10-29T19:26:16:192
-1,320082	1,418639	-0,854372	2020-10-29T19:26:16:211
-1,339324	1,628397	-0,322462	2020-10-29T19:26:16:228
-1,355307	1,621679	-0,046401	2020-10-29T19:26:16:253
-1,594517	1,658769	-0,172126	2020-10-29T19:26:16:268
-1,506244	1,679263	-0,834474	2020-10-29T19:26:16:292
-0,837641	1,717412	-1,703115	2020-10-29T19:26:16:321
-0,170160	1,330220	-1,896136	2020-10-29T19:26:16:333
-0,347128	0,976001	-1,450809	2020-10-29T19:26:16:352
-1,297196	0,734193	-1,027659	2020-10-29T19:26:16:411
-1,753619	0,360329	-0,770114	2020-10-29T19:26:16:419
-1,310948	0,078150	-0,786987	2020-10-29T19:26:16:419
-0,927150	-0,232569	-0,955169	2020-10-29T19:26:16:429
-0,867854	-0,716886	-1,097568	2020-10-29T19:26:16:451
-0,685345	-1,102315	-1,211596	2020-10-29T19:26:16:468
-0,453885	-1,377004	-1,159871	2020-10-29T19:26:16:493
-0,301951	-1,406980	-0,950265	2020-10-29T19:26:16:515
0,201598	-1,207952	-0,891974	2020-10-29T19:26:16:538
0,569243	-0,739703	-1,162778	2020-10-29T19:26:16:547
0,932208	-0,212154	-1,465455	2020-10-29T19:26:16:571
1,525628	0,067807	-1,716702	2020-10-29T19:26:16:587
1,913713	0,477223	-1,931207	2020-10-29T19:26:16:613
2,106728	0,823253	-2,263341	2020-10-29T19:26:16:629
2,503041	1,165956	-2,356704	2020-10-29T19:26:16:659
2,406307	1,387491	-2,096236	2020-10-29T19:26:16:670
1,716864	1,488946	-1,552875	2020-10-29T19:26:16:705
1,540170	1,679182	-1,347928	2020-10-29T19:26:16:710
1,563812	1,669128	-1,265939	2020-10-29T19:26:16:749
1,227356	1,672683	-1,236717	2020-10-29T19:26:16:751
1,175024	1,950558	-1,455178	2020-10-29T19:26:16:774
1,374525	2,102877	-1,492458	2020-10-29T19:26:16:788
2,072354	2,191739	-1,013486	2020-10-29T19:26:16:811
2,187133	2,138712	-1,061286	2020-10-29T19:26:16:829
1,223526	2,161708	-0,976898	2020-10-29T19:26:16:851
0,786921	2,784657	-0,738749	2020-10-29T19:26:16:869
1,092851	3,070004	-0,784617	2020-10-29T19:26:16:893
1,310597	2,701509	-0,734368	2020-10-29T19:26:16:908
1,081861	2,190193	-0,488536	2020-10-29T19:26:16:932
0,943079	2,106444	-0,383251	2020-10-29T19:26:16:949
0,715448	2,020900	-0,276929	2020-10-29T19:26:16:974
0,610850	2,176353	-0,647979	2020-10-29T19:26:16:988
0,437992	1,913885	-0,997924	2020-10-29T19:26:17:012
0,301138	1,177680	-0,832751	2020-10-29T19:26:17:029
0,302099	0,054348	-0,603470	2020-10-29T19:26:17:053
0,266206	-1,386131	-0,357009	2020-10-29T19:26:17:069
0,270193	-2,299521	-0,265989	2020-10-29T19:26:17:093
-0,076766	-2,440698	-0,289917	2020-10-29T19:26:17:109
-0,341289	-1,699266	-0,221113	2020-10-29T19:26:17:133
-0,330518	-1,201119	-0,156742	2020-10-29T19:26:17:150
-0,442856	-0,579740	-0,335147	2020-10-29T19:26:17:172
-0,874988	0,292798	-0,374452	2020-10-29T19:26:17:189
-1,459654	-0,074139	-0,178833	2020-10-29T19:26:17:215
-1,739615	0,016789	0,194447	2020-10-29T19:26:17:229
-1,626941	0,892221	0,230552	2020-10-29T19:26:17:252
-1,404727	1,000673	0,231805	2020-10-29T19:26:17:268
-1,334261	0,561953	0,581057	2020-10-29T19:26:17:293
-0,813231	-0,079728	0,848013	2020-10-29T19:26:17:309
-0,497309	-0,005225	0,779464	2020-10-29T19:26:17:332
-0,296882	-0,062589	0,696089	2020-10-29T19:26:17:349
-0,092521	-0,152719	0,765357	2020-10-29T19:26:17:373
-0,038185	-0,322099	1,133661	2020-10-29T19:26:17:389
0,104767	-0,547949	1,234491	2020-10-29T19:26:17:412
0,140627	-0,388872	1,376249	2020-10-29T19:26:17:429
0,209208	0,044832	1,317640	2020-10-29T19:26:17:454
0,051287	0,507592	0,910084	2020-10-29T19:26:17:469
-0,108217	0,588366	0,870676	2020-10-29T19:26:17:492
0,854629	0,814267	0,924595	2020-10-29T19:26:17:510
1,870328	0,645321	0,601626	2020-10-29T19:26:17:533
2,226232	-0,030457	0,464296	2020-10-29T19:26:17:549
2,338481	-0,728065	0,481109	2020-10-29T19:26:17:573
2,666517	-0,994983	0,692279	2020-10-29T19:26:17:589
2,542725	-0,635671	0,861266	2020-10-29T19:26:17:614
1,641779	0,030129	0,710246	2020-10-29T19:26:17:630
0,801873	1,074224	0,268352	2020-10-29T19:26:17:653
0,632274	1,978674	-0,402781	2020-10-29T19:26:17:670
1,062612	2,299284	-0,971672	2020-10-29T19:26:17:727
1,330492	2,015008	-1,548442	2020-10-29T19:26:17:728
1,464707	1,674189	-2,210743	2020-10-29T19:26:17:733
1,432497	1,660222	-2,570756	2020-10-29T19:26:17:749
1,486524	1,551593	-2,732978	2020-10-29T19:26:17:773
1,511327	1,182817	-2,155121	2020-10-29T19:26:17:788
1,141354	1,241991	-1,719528	2020-10-29T19:26:17:812
0,973922	1,859857	-1,451032	2020-10-29T19:26:17:833
0,830163	2,600691	-1,306436	2020-10-29T19:26:17:854
0,932833	3,105530	-1,118204	2020-10-29T19:26:17:870
1,319903	3,564985	-1,289212	2020-10-29T19:26:17:893
1,596086	3,809031	-1,412120	2020-10-29T19:26:17:909
1,903831	4,034821	-1,494247	2020-10-29T19:26:17:934
2,172101	4,170663	-1,380605	2020-10-29T19:26:17:950
2,603542	4,339429	-1,158421	2020-10-29T19:26:17:973
3,106875	4,278893	-1,138917	2020-10-29T19:26:17:990
3,353272	4,153556	-1,115075	2020-10-29T19:26:18:013
3,310204	3,902284	-1,094176	2020-10-29T19:26:18:030
3,028652	3,703443	-0,884202	2020-10-29T19:26:18:054
2,521761	3,348649	-0,324481	2020-10-29T19:26:18:070
2,074677	3,369905	0,028995	2020-10-29T19:26:18:094
1,803226	3,335381	0,237269	2020-10-29T19:26:18:110
1,679554	3,323576	0,439897	2020-10-29T19:26:18:134
1,290145	3,164597	0,915337	2020-10-29T19:26:18:160
0,100056	3,294361	0,189857	2020-10-29T19:26:27:124
0,910709	3,379832	-0,353812	2020-10-29T19:26:27:126
1,153715	3,419451	-0,581720	2020-10-29T19:26:27:130
1,134419	3,212374	-0,816406	2020-10-29T19:26:27:146
1,325369	2,726091	-1,013502	2020-10-29T19:26:27:162
1,725816	1,898289	-1,124650	2020-10-29T19:26:27:178
1,636760	1,130906	-1,016613	2020-10-29T19:26:27:202
0,788994	0,243044	-0,631175	2020-10-29T19:26:27:218
-0,202245	-0,466826	-0,192406	2020-10-29T19:26:27:242
-0,728666	-0,574503	0,066019	2020-10-29T19:26:27:260
-0,882239	-0,676750	0,169927	2020-10-29T19:26:27:285
-1,111203	-0,794930	0,334184	2020-10-29T19:26:27:299
-1,279541	-0,862180	0,321498	2020-10-29T19:26:27:322
-1,147613	-0,915987	0,500282	2020-10-29T19:26:27:338
-0,631578	-0,648005	0,310010	2020-10-29T19:26:27:362
-0,313108	-0,646992	0,092373	2020-10-29T19:26:27:379
-0,509480	-0,790190	-0,018022	2020-10-29T19:26:27:402
-0,510232	-0,967699	0,041634	2020-10-29T19:26:27:419
-0,463017	-1,268096	0,048918	2020-10-29T19:26:27:443
-0,607936	-1,966549	0,270817	2020-10-29T19:26:27:459
-0,304994	-2,293307	0,320269	2020-10-29T19:26:27:482
0,061931	-2,254954	0,395373	2020-10-29T19:26:27:499
0,239420	-1,726551	0,769433	2020-10-29T19:26:27:526
0,205920	-1,465733	0,611507	2020-10-29T19:26:27:540
0,539906	-0,867689	0,139232	2020-10-29T19:26:27:563
1,698348	-0,287583	-0,301391	2020-10-29T19:26:27:579
3,235838	-0,048633	-0,214283	2020-10-29T19:26:27:603
3,661914	0,066852	-0,049230	2020-10-29T19:26:27:619
3,010089	0,588721	-0,442803	2020-10-29T19:26:27:643
2,603310	0,830396	-0,849582	2020-10-29T19:26:27:659
1,799013	0,833014	-0,667614	2020-10-29T19:26:27:683
0,785054	1,221035	1,092431	2020-10-29T19:26:27:699
0,242386	5,148586	3,143386	2020-10-29T19:26:27:722
0,327201	8,636261	4,202926	2020-10-29T19:26:27:740
-0,078572	7,702171	0,686891	2020-10-29T19:26:27:765
0,292315	3,588909	-0,064455	2020-10-29T19:26:27:779
2,683128	0,044647	-1,373141	2020-10-29T19:26:27:802
3,195848	0,486522	-3,051996	2020-10-29T19:26:27:819
1,680424	0,968020	-3,140695	2020-10-29T19:26:27:843
1,046326	1,441799	-2,482668	2020-10-29T19:26:27:859
0,647388	0,704650	-2,092061	2020-10-29T19:26:27:882
-0,309233	0,313874	-1,499799	2020-10-29T19:26:27:900
-1,063406	-0,043209	-1,452105	2020-10-29T19:26:27:923
-1,343472	-0,880578	-1,365972	2020-10-29T19:26:27:939
-1,341341	-1,711022	-0,925702	2020-10-29T19:26:27:962
-1,250599	-1,666652	-0,466667	2020-10-29T19:26:27:980
-1,125144	-0,278493	-0,324527	2020-10-29T19:26:28:005
-0,805426	0,055530	-0,242247	2020-10-29T19:26:28:020
-0,420637	0,176317	-0,258551	2020-10-29T19:26:28:043
-0,388822	0,560580	-0,237478	2020-10-29T19:26:28:060
-0,173619	0,848019	0,276462	2020-10-29T19:26:28:084
0,280630	0,778047	0,695722	2020-10-29T19:26:28:100
0,516860	0,429367	0,812571	2020-10-29T19:26:28:123
0,314557	0,045890	0,428852	2020-10-29T19:26:28:139
1,382697	-0,465772	-0,210002	2020-10-29T19:26:28:163
3,883977	-0,852867	-1,585254	2020-10-29T19:26:28:180
4,063784	-1,535129	-1,782554	2020-10-29T19:26:28:204
2,485383	-2,054972	-0,992819	2020-10-29T19:26:28:220
2,469748	-2,212289	0,357018	2020-10-29T19:26:28:245
2,169701	-2,211848	1,277080	2020-10-29T19:26:28:260
1,622595	-0,000170	3,720918	2020-10-29T19:26:28:283
1,111176	0,530761	5,410109	2020-10-29T19:26:28:300
1,275618	0,610340	6,462876	2020-10-29T19:26:28:323
1,735816	2,489028	7,302400	2020-10-29T19:26:28:339
2,091560	3,713124	7,099842	2020-10-29T19:26:28:363
2,607297	5,346786	6,307727	2020-10-29T19:26:28:380
2,996162	6,708630	5,347473	2020-10-29T19:26:28:404
3,473180	7,743779	4,638079	2020-10-29T19:26:28:420
3,609533	8,553501	4,667926	2020-10-29T19:26:28:443
3,238494	8,476160	4,868823	2020-10-29T19:26:28:460
2,634138	7,994420	4,787364	2020-10-29T19:26:28:485
2,141660	7,564377	4,429101	2020-10-29T19:26:28:500
1,486990	6,865595	4,091998	2020-10-29T19:26:28:524
1,120697	6,392228	3,902915	2020-10-29T19:26:28:540
0,871632	5,961251	4,046870	2020-10-29T19:26:28:564
0,847703	5,686076	3,824338	2020-10-29T19:26:28:580
0,971054	5,432879	3,654925	2020-10-29T19:26:28:603
1,113760	4,921489	3,474755	2020-10-29T19:26:28:620
1,384031	4,530698	3,291564	2020-10-29T19:26:28:644
1,368022	3,985622	3,223872	2020-10-29T19:26:28:660
1,320366	3,209753	3,231883	2020-10-29T19:26:28:683
0,662819	1,784143	2,645752	2020-10-29T19:26:28:701
0,772888	1,396505	2,693609	2020-10-29T19:26:28:725
1,026196	1,061522	2,561405	2020-10-29T19:26:28:739
1,334846	0,771216	2,139584	2020-10-29T19:26:28:763
1,810970	0,174981	1,391150	2020-10-29T19:26:28:780
1,507941	-2,076058	-0,219126	2020-10-29T19:26:28:805
1,627583	-2,233984	-0,097092	2020-10-29T19:26:28:820
1,432924	-2,671790	-0,374893	2020-10-29T19:26:28:843
0,974368	-3,174656	-0,956240	2020-10-29T19:26:28:860
0,348656	-3,172677	-1,305451	2020-10-29T19:26:28:884
-0,180095	-2,616171	-1,493547	2020-10-29T19:26:28:901
-0,017604	-2,054029	-1,553874	2020-10-29T19:26:28:923
1,214224	-1,914775	-2,096403	2020-10-29T19:26:28:940
2,637589	-2,856166	-3,014351	2020-10-29T19:26:28:966
3,508576	-3,810902	-4,036087	2020-10-29T19:26:28:981
4,107365	-4,549960	-3,063293	2020-10-29T19:26:29:004
3,871197	-3,937515	-1,816535	2020-10-29T19:26:29:021
2,457718	-2,792370	-0,748458	2020-10-29T19:26:29:044
1,026064	-1,818552	0,248865	2020-10-29T19:26:29:060
-0,001396	-0,713285	0,936147	2020-10-29T19:26:29:084
-1,068858	-0,319761	1,279957	2020-10-29T19:26:29:101
-1,381564	0,067258	0,769297	2020-10-29T19:26:29:124
-0,297318	1,719849	2,446643	2020-10-29T19:26:29:140
-0,786877	7,784546	1,199311	2020-10-29T19:26:29:163
-1,435171	5,227136	0,014696	2020-10-29T19:26:29:181
0,855104	1,028317	-0,486577	2020-10-29T19:26:29:207
2,587508	0,609573	-2,063447	2020-10-29T19:26:29:220
2,067789	-0,575245	-2,956689	2020-10-29T19:26:29:243
1,520014	-1,609391	-2,207513	2020-10-29T19:26:29:261
1,437469	-1,812214	-1,015550	2020-10-29T19:26:29:285
0,620255	-1,505446	-0,702499	2020-10-29T19:26:29:301
-0,169582	-1,137731	-1,330673	2020-10-29T19:26:29:323
-0,384216	-1,431537	-1,849928	2020-10-29T19:26:29:340
-0,224648	-1,926907	-1,926569	2020-10-29T19:26:29:365
-0,236144	-2,045085	-1,893567	2020-10-29T19:26:29:381
-0,256399	-1,685172	-1,576446	2020-10-29T19:26:29:404
-0,391651	-0,253378	-1,277843	2020-10-29T19:26:29:421
-0,316925	0,679109	-0,989106	2020-10-29T19:26:29:447
-0,008251	0,899249	-0,869465	2020-10-29T19:26:29:461
-0,050251	1,348015	-0,762761	2020-10-29T19:26:29:485
-0,282599	1,673153	-0,461913	2020-10-29T19:26:29:501
-0,461592	1,435696	-0,593082	2020-10-29T19:26:29:527
-0,109034	1,110601	-0,579987	2020-10-29T19:26:29:544
0,393327	0,341967	-0,549328	2020-10-29T19:26:29:564
0,435972	-0,813647	-1,036302	2020-10-29T19:26:29:581
0,512647	-1,741381	-1,268727	2020-10-29T19:26:29:605
0,713588	-2,533710	-1,117198	2020-10-29T19:26:29:621
0,766108	-3,117718	-0,947417	2020-10-29T19:26:29:644
0,845065	-3,023620	-0,801926	2020-10-29T19:26:29:661
0,809349	-2,793355	-0,772799	2020-10-29T19:26:29:686
1,393291	-2,319079	-1,069387	2020-10-29T19:26:29:702
2,118138	-1,808004	-0,833893	2020-10-29T19:26:29:724
2,122511	-1,576769	-0,349726	2020-10-29T19:26:29:741
1,792087	-1,757338	0,231204	2020-10-29T19:26:29:765
1,014765	-1,965383	0,806623	2020-10-29T19:26:29:781
0,214060	-1,843241	0,936577	2020-10-29T19:26:29:805
-0,335659	-1,511289	0,896746	2020-10-29T19:26:29:821
-0,510935	-0,933540	1,017837	2020-10-29T19:26:29:846
-1,111216	-0,079499	1,318048	2020-10-29T19:26:29:861
-1,882761	0,150464	1,171166	2020-10-29T19:26:29:884
-1,580660	0,260392	1,007580	2020-10-29T19:26:29:902
-0,394441	1,041965	0,332470	2020-10-29T19:26:29:927
0,701806	1,217879	0,203269	2020-10-29T19:26:29:942
0,962419	0,552883	-0,590192	2020-10-29T19:26:29:964
1,325436	1,987200	-1,198272	2020-10-29T19:26:29:982
1,134086	3,345281	-0,861570	2020-10-29T19:26:30:005
0,669261	3,624748	-0,329236	2020-10-29T19:26:30:021
0,431645	4,117579	-0,082168	2020-10-29T19:26:30:044
0,206105	4,158385	0,177819	2020-10-29T19:26:30:062
-0,224273	3,859430	0,504254	2020-10-29T19:26:30:085
-0,155220	3,254132	0,806626	2020-10-29T19:26:30:102
0,145495	3,181920	0,823079	2020-10-29T19:26:30:124
0,298107	3,684920	0,914931	2020-10-29T19:26:30:141
0,620823	3,654056	1,348813	2020-10-29T19:26:30:167
0,995332	2,722963	1,962539	2020-10-29T19:26:30:181
0,975630	2,337211	1,880615	2020-10-29T19:26:30:205
0,991234	2,763133	2,145473	2020-10-29T19:26:30:223
0,885678	4,209444	2,399205	2020-10-29T19:26:30:245
0,833989	5,289532	2,287090	2020-10-29T19:26:30:261
0,962595	5,654504	2,010454	2020-10-29T19:26:30:285
1,253247	5,939657	1,711974	2020-10-29T19:26:30:302
1,627724	5,820666	1,782290	2020-10-29T19:26:30:325
2,112657	5,889995	1,745129	2020-10-29T19:26:30:341
2,375389	5,670434	1,424982	2020-10-29T19:26:30:365
2,444781	5,407223	1,386697	2020-10-29T19:26:30:382
2,533173	4,907699	1,100317	2020-10-29T19:26:30:408
2,552315	4,634917	0,894534	2020-10-29T19:26:30:421
2,503967	4,589000	0,699319	2020-10-29T19:26:30:445
3,344117	4,696110	0,297470	2020-10-29T19:26:30:462
5,204384	4,801120	0,193306	2020-10-29T19:26:30:486
5,565265	4,827057	0,433105	2020-10-29T19:26:30:502
4,280241	4,635896	0,612413	2020-10-29T19:26:30:524
3,924210	5,039559	0,358947	2020-10-29T19:26:30:542
3,890783	5,157611	0,148533	2020-10-29T19:26:30:565
3,456272	5,164809	0,646227	2020-10-29T19:26:30:582
2,829141	4,998784	1,174253	2020-10-29T19:26:30:605
1,840205	4,596892	1,508648	2020-10-29T19:26:30:622
1,033498	4,484135	1,741016	2020-10-29T19:26:30:645
0,519529	4,434138	1,541853	2020-10-29T19:26:30:661
0,956759	4,468794	1,199286	2020-10-29T19:26:30:685
1,779862	5,126745	0,802415	2020-10-29T19:26:30:702
2,473125	5,026752	0,312310	2020-10-29T19:26:30:724
3,765224	4,659359	-0,148216	2020-10-29T19:26:30:742
5,665766	4,663851	-0,630285	2020-10-29T19:26:30:765
5,617910	4,328856	-0,924603	2020-10-29T19:26:30:782
4,318457	4,600482	-0,752530	2020-10-29T19:26:30:805
3,550476	5,006158	-0,387553	2020-10-29T19:26:30:822
2,823351	5,201024	0,178442	2020-10-29T19:26:30:845
1,984665	5,422536	0,518032	2020-10-29T19:26:30:862
1,521501	5,456283	0,321197	2020-10-29T19:26:30:886
1,501128	5,128311	-0,073834	2020-10-29T19:26:30:902
1,551746	4,855048	-0,441405	2020-10-29T19:26:30:925
1,422938	4,850238	-0,621301	2020-10-29T19:26:30:942
1,266297	4,965672	-0,651453	2020-10-29T19:26:30:965
1,442842	4,792189	-0,543064	2020-10-29T19:26:30:983
2,072102	4,666715	-0,323482	2020-10-29T19:26:31:005
2,818561	4,593498	-0,476233	2020-10-29T19:26:31:022
3,075556	4,727988	-0,755055	2020-10-29T19:26:31:045
2,747839	4,559070	-0,745985	2020-10-29T19:26:31:062
3,118157	4,331503	-0,624400	2020-10-29T19:26:31:085
3,795939	4,389264	-1,213490	2020-10-29T19:26:31:102
3,560851	4,252431	-1,354018	2020-10-29T19:26:31:126
3,235628	3,916422	-1,291236	2020-10-29T19:26:31:142
3,350024	3,282145	-0,928317	2020-10-29T19:26:31:165
2,906249	2,610825	-0,472300	2020-10-29T19:26:31:183
2,167092	2,436972	-0,328641	2020-10-29T19:26:31:205
1,158489	2,094192	0,050212	2020-10-29T19:26:31:222
0,427299	1,765860	1,090209	2020-10-29T19:26:31:245
0,284479	1,933572	1,281819	2020-10-29T19:26:31:263
0,597939	2,002964	0,339046	2020-10-29T19:26:31:286
0,605296	1,327217	0,134227	2020-10-29T19:26:31:303
0,581463	0,523432	0,519179	2020-10-29T19:26:31:326
0,681961	0,265007	1,036029	2020-10-29T19:26:31:342
0,508400	-0,033828	1,396188	2020-10-29T19:26:31:368
0,362437	-0,105612	1,817325	2020-10-29T19:26:31:382
0,198166	-0,120196	2,038548	2020-10-29T19:26:31:405
-0,087665	0,061291	1,700353	2020-10-29T19:26:31:422
-0,127518	-0,120691	0,898991	2020-10-29T19:26:31:446
0,152442	0,118591	0,523317	2020-10-29T19:26:31:462
0,319239	0,251291	0,265606	2020-10-29T19:26:31:486
0,408525	0,368076	-0,058152	2020-10-29T19:26:31:503
0,386000	0,233428	-0,223588	2020-10-29T19:26:31:526
0,014511	-0,163063	0,358461	2020-10-29T19:26:31:543
-0,264690	-0,322657	0,732359	2020-10-29T19:26:31:566
-0,295417	-0,486854	0,922888	2020-10-29T19:26:31:583
-0,203352	-0,410842	1,263197	2020-10-29T19:26:31:607
-0,250305	-0,336825	1,429640	2020-10-29T19:26:31:622
-0,733685	-0,395755	1,912210	2020-10-29T19:26:31:646
-0,951118	-0,419810	2,244666	2020-10-29T19:26:31:662
-0,629835	-0,515785	2,322524	2020-10-29T19:26:31:686
-0,273467	-0,576376	2,191918	2020-10-29T19:26:31:703
0,169726	-0,711183	2,131593	2020-10-29T19:26:31:726
0,175315	-0,497240	2,080505	2020-10-29T19:26:31:742
0,073094	-0,187906	1,982842	2020-10-29T19:26:31:766
0,003556	-0,082196	2,100107	2020-10-29T19:26:31:783
0,052654	0,315014	2,424900	2020-10-29T19:26:31:807
-0,265592	0,446620	2,355509	2020-10-29T19:26:31:823
-0,255060	0,547843	2,194994	2020-10-29T19:26:31:847
-0,160129	0,669819	2,250564	2020-10-29T19:26:31:862
0,092400	1,017938	2,841831	2020-10-29T19:26:31:886
0,924012	1,616519	2,719317	2020-10-29T19:26:31:903
2,037815	1,596977	2,531879	2020-10-29T19:26:31:927
1,865532	1,594585	2,658699	2020-10-29T19:26:31:943
1,243670	1,643178	2,834514	2020-10-29T19:26:31:966
1,340885	2,141042	2,606052	2020-10-29T19:26:31:985
1,909719	2,779141	2,236150	2020-10-29T19:26:32:007
3,144275	3,201128	1,961981	2020-10-29T19:26:32:023
4,069881	3,184378	2,292646	2020-10-29T19:26:32:046
4,083362	3,483685	2,653934	2020-10-29T19:26:32:063
3,970043	4,831107	3,154782	2020-10-29T19:26:32:088
4,030481	5,755310	2,363259	2020-10-29T19:26:32:103
3,671555	5,929278	1,297629	2020-10-29T19:26:32:134
3,068574	5,176001	0,095581	2020-10-29T19:26:32:143
2,585668	4,488362	-0,796742	2020-10-29T19:26:32:166
2,082164	4,396669	-1,112708	2020-10-29T19:26:32:183
2,041629	4,498674	-0,998441	2020-10-29T19:26:32:207
2,322461	4,545536	-0,980306	2020-10-29T19:26:32:223
2,662671	4,491608	-1,040601	2020-10-29T19:26:32:247
2,789306	4,473317	-0,891939	2020-10-29T19:26:32:263
3,051749	4,592304	-0,945712	2020-10-29T19:26:32:286
3,286909	4,904815	-0,912936	2020-10-29T19:26:32:304
3,462507	5,330626	-0,549834	2020-10-29T19:26:32:329
3,302189	5,301911	-0,638369	2020-10-29T19:26:32:343
3,080129	5,468387	-0,600672	2020-10-29T19:26:32:366
2,821290	5,052319	0,044989	2020-10-29T19:26:32:383
2,743730	4,569964	0,265503	2020-10-29T19:26:32:406
2,644361	4,556197	0,083501	2020-10-29T19:26:32:424
2,511672	4,398932	0,286203	2020-10-29T19:26:32:446
2,545228	4,250126	0,808380	2020-10-29T19:26:32:463
2,582086	3,859697	1,228093	2020-10-29T19:26:32:488
2,804618	3,670664	1,575052	2020-10-29T19:26:32:505
2,723771	3,462469	1,728312	2020-10-29T19:26:32:527
2,569951	3,435497	1,962609	2020-10-29T19:26:32:545
2,448723	3,081587	2,374867	2020-10-29T19:26:32:578
2,527687	2,842305	2,666791	2020-10-29T19:26:32:585
2,600937	2,510537	2,662321	2020-10-29T19:26:32:607
2,387225	2,330251	2,191274	2020-10-29T19:26:32:625
2,302474	2,072786	1,663788	2020-10-29T19:26:32:646
2,032948	2,461881	1,069374	2020-10-29T19:26:32:665
2,003952	1,485434	0,998885	2020-10-29T19:26:32:687
2,090789	0,848327	1,232646	2020-10-29T19:26:32:705
2,082908	0,607818	1,530527	2020-10-29T19:26:32:727
2,099484	0,518103	1,514140	2020-10-29T19:26:32:745
2,983268	1,744185	1,140619	2020-10-29T19:26:32:767
4,347177	2,521852	0,475414	2020-10-29T19:26:32:785
4,971366	2,805012	0,251239	2020-10-29T19:26:32:808
4,869108	3,174080	0,407954	2020-10-29T19:26:32:824
4,479874	3,570982	0,711972	2020-10-29T19:26:32:847
3,999485	3,531300	1,025351	2020-10-29T19:26:32:864
3,595501	3,670986	0,969536	2020-10-29T19:26:32:887
2,634976	3,896960	0,996049	2020-10-29T19:26:32:904
1,571792	4,220632	1,323252	2020-10-29T19:26:32:927
1,243615	4,496322	1,243476	2020-10-29T19:26:32:944
1,888470	4,952461	0,893297	2020-10-29T19:26:32:967
2,961555	5,378153	0,392649	2020-10-29T19:26:32:985
3,685287	5,509199	0,201151	2020-10-29T19:26:33:007
3,961845	5,651257	-0,144572	2020-10-29T19:26:33:025
3,993354	5,845778	-0,509874	2020-10-29T19:26:33:048
3,912886	5,917091	-0,464656	2020-10-29T19:26:33:064
3,550926	6,088790	-0,175980	2020-10-29T19:26:33:087
2,894886	6,083040	0,500737	2020-10-29T19:26:33:104
2,135657	6,139581	0,810225	2020-10-29T19:26:33:127
1,371864	6,152522	0,966788	2020-10-29T19:26:33:144
1,141036	6,071071	1,105410	2020-10-29T19:26:33:167
1,347374	6,014216	1,339441	2020-10-29T19:26:33:184
1,608761	5,898306	1,475962	2020-10-29T19:26:33:207
1,791690	5,732828	1,565647	2020-10-29T19:26:33:224
1,850970	5,310935	1,663365	2020-10-29T19:26:33:247
1,982801	5,118111	1,452888	2020-10-29T19:26:33:264
1,815173	4,428485	1,656988	2020-10-29T19:26:33:289
2,126239	3,378036	1,781415	2020-10-29T19:26:33:305
1,851364	3,532574	1,743238	2020-10-29T19:26:33:327
1,890404	3,328658	1,831053	2020-10-29T19:26:33:344
2,195877	3,095038	1,565595	2020-10-29T19:26:33:367
2,870001	2,224373	2,091304	2020-10-29T19:26:33:385
3,428788	1,755185	1,890849	2020-10-29T19:26:33:408
3,405265	1,964070	1,695058	2020-10-29T19:26:33:425
3,100017	1,437680	1,204645	2020-10-29T19:26:33:447
3,280388	2,196915	0,709733	2020-10-29T19:26:33:464
4,495665	2,732237	0,556713	2020-10-29T19:26:33:487
3,040195	2,554223	0,523217	2020-10-29T19:26:33:505
0,429566	1,571606	0,469356	2020-10-29T19:26:33:533
0,283604	1,918566	0,131968	2020-10-29T19:26:33:544
0,743331	1,364401	-0,181459	2020-10-29T19:26:33:567
1,259749	0,918723	-0,349048	2020-10-29T19:26:33:585
1,200893	1,319768	-0,193731	2020-10-29T19:26:33:608
0,329906	0,838811	-0,200910	2020-10-29T19:26:33:625
-0,185974	0,828331	-0,152688	2020-10-29T19:26:33:648
-0,295690	0,940979	0,029393	2020-10-29T19:26:33:664
-0,389050	1,265887	-0,110842	2020-10-29T19:26:33:688
0,017026	1,650321	-0,516702	2020-10-29T19:26:33:705
1,352818	1,877554	-0,877854	2020-10-29T19:26:33:727
2,698743	1,819408	-1,113925	2020-10-29T19:26:33:745
3,581999	1,391255	-1,409459	2020-10-29T19:26:33:768
3,373573	1,159309	-1,640667	2020-10-29T19:26:33:785
2,527356	0,924407	-2,029522	2020-10-29T19:26:33:808
1,680900	1,035004	-2,414108	2020-10-29T19:26:33:825
1,224511	1,210082	-2,521803	2020-10-29T19:26:33:847
1,033131	1,291286	-2,526440	2020-10-29T19:26:33:865
1,168372	1,204458	-2,424606	2020-10-29T19:26:33:888
1,152788	0,925362	-2,391374	2020-10-29T19:26:33:905
0,930073	0,617867	-2,343775	2020-10-29T19:26:33:927
0,718461	0,557344	-2,343514	2020-10-29T19:26:33:945
0,721015	0,482457	-2,304989	2020-10-29T19:26:33:967
0,717050	0,544500	-2,158867	2020-10-29T19:26:33:985
0,519150	0,498189	-1,962224	2020-10-29T19:26:34:009
0,522894	0,426431	-1,910734	2020-10-29T19:26:34:025
0,328424	0,467910	-1,720286	2020-10-29T19:26:34:047
0,352639	0,352192	-1,457899	2020-10-29T19:26:34:065
0,545925	0,418382	-1,068892	2020-10-29T19:26:34:088
2,789743	4,518612	-1,055046	2020-10-29T19:26:34:106
3,009160	4,838487	-0,793889	2020-10-29T19:26:34:128
3,073561	5,083969	-0,860445	2020-10-29T19:26:34:145
3,068517	5,171659	-0,872480	2020-10-29T19:26:34:168
3,140364	5,206101	-0,983303	2020-10-29T19:26:34:185
4,334455	5,164056	-1,201838	2020-10-29T19:26:34:208
5,123394	4,679091	-0,803955	2020-10-29T19:26:34:225
4,412648	4,194138	0,231482	2020-10-29T19:26:34:249
3,704025	3,938198	1,572215	2020-10-29T19:26:34:265
3,116179	3,383136	2,613411	2020-10-29T19:26:34:289
2,044879	2,844035	2,957746	2020-10-29T19:26:34:306
0,607585	1,841836	2,025536	2020-10-29T19:26:34:329
-0,457221	2,140939	0,788447	2020-10-29T19:26:34:345
-1,533617	2,827790	-0,319773	2020-10-29T19:26:34:368
-1,612837	3,622288	-1,464166	2020-10-29T19:26:34:386
-0,500145	4,154280	-2,407598	2020-10-29T19:26:34:408
0,744658	4,313649	-2,843745	2020-10-29T19:26:34:426
1,415359	4,274050	-2,529832	2020-10-29T19:26:34:448
1,485546	4,328537	-2,113657	2020-10-29T19:26:34:465
1,511416	4,278812	-1,667748	2020-10-29T19:26:34:491
2,143191	3,954210	-1,257172	2020-10-29T19:26:34:506
2,101332	3,793395	-1,227587	2020-10-29T19:26:34:528
1,108126	3,441840	-0,792601	2020-10-29T19:26:34:546
0,509010	3,033467	-0,604371	2020-10-29T19:26:34:568
0,298146	2,646880	-0,657771	2020-10-29T19:26:34:586
0,524665	2,416214	-0,328902	2020-10-29T19:26:34:609
0,892632	2,252836	-0,291947	2020-10-29T19:26:34:626
1,293958	2,480229	-0,612747	2020-10-29T19:26:34:649
1,488392	2,715327	-0,788826	2020-10-29T19:26:34:666
1,701405	3,118238	-0,785488	2020-10-29T19:26:34:689
1,947338	2,702304	-0,451073	2020-10-29T19:26:34:706
1,899618	3,063211	-0,020502	2020-10-29T19:26:34:730
1,674884	3,311443	0,393448	2020-10-29T19:26:34:746
1,502174	3,007533	0,275317	2020-10-29T19:26:34:769
1,505988	2,990156	-0,072102	2020-10-29T19:26:34:786
1,572159	3,053449	-0,433872	2020-10-29T19:26:34:809
1,650247	3,128806	-0,646896	2020-10-29T19:26:34:826
1,992511	3,104636	-0,970645	2020-10-29T19:26:34:849
1,986119	3,345272	-1,283151	2020-10-29T19:26:34:866
2,068991	3,399489	-1,555206	2020-10-29T19:26:34:890
2,214953	3,387525	-1,780131	2020-10-29T19:26:34:906
2,863575	3,183990	-2,027236	2020-10-29T19:26:34:929
4,511774	3,478355	-2,077410	2020-10-29T19:26:34:947
6,097739	3,425930	-2,017697	2020-10-29T19:26:34:969
5,494701	2,981459	-1,666174	2020-10-29T19:26:34:986
4,227927	2,722951	-1,616156	2020-10-29T19:26:35:009
3,736555	3,091258	-1,630755	2020-10-29T19:26:35:026
3,469766	3,691875	-1,315996	2020-10-29T19:26:35:049
3,150877	4,137071	-1,077642	2020-10-29T19:26:35:066
2,466385	4,305800	-0,756990	2020-10-29T19:26:35:089
1,616982	4,295143	-0,637038	2020-10-29T19:26:35:106
1,531725	4,538481	-1,144925	2020-10-29T19:26:35:129
2,516113	4,971648	-1,700851	2020-10-29T19:26:35:146
3,904691	4,979209	-2,140443	2020-10-29T19:26:35:169
4,703044	4,724174	-2,254785	2020-10-29T19:26:35:187
4,961755	4,721528	-2,453987	2020-10-29T19:26:35:210
5,061492	4,892148	-2,484377	2020-10-29T19:26:35:226
4,927970	4,787497	-2,464118	2020-10-29T19:26:35:249
4,367651	4,936228	-2,330217	2020-10-29T19:26:35:267
3,656468	5,092110	-2,080443	2020-10-29T19:26:35:289
2,827353	5,236395	-1,820238	2020-10-29T19:26:35:307
2,223881	4,646255	-1,522339	2020-10-29T19:26:35:329
1,961046	4,014859	-1,360262	2020-10-29T19:26:35:346
1,779469	4,042824	-1,129349	2020-10-29T19:26:35:369
1,626685	3,616117	-0,470653	2020-10-29T19:26:35:387
-0,268975	-2,364487	1,105834	2020-10-29T19:26:35:410
0,039699	-2,651626	1,084299	2020-10-29T19:26:35:427
-0,036946	-0,996580	1,386733	2020-10-29T19:26:35:451
0,126781	-0,580098	1,565347	2020-10-29T19:26:35:466
0,192602	-0,025382	1,637316	2020-10-29T19:26:35:489
0,376240	0,967984	1,409011	2020-10-29T19:26:35:507
0,532660	1,671820	1,250507	2020-10-29T19:26:35:529
0,420923	1,780851	0,971505	2020-10-29T19:26:35:547
0,386033	1,414793	0,906971	2020-10-29T19:26:35:569
0,257445	1,273507	0,919445	2020-10-29T19:26:35:587
0,800554	0,905176	0,536236	2020-10-29T19:26:35:610
2,118978	0,699904	0,388376	2020-10-29T19:26:35:626
1,450600	0,379572	1,009373	2020-10-29T19:26:35:649
0,429601	0,383701	1,544284	2020-10-29T19:26:35:667
-0,252863	0,190381	1,774796	2020-10-29T19:26:35:691
-0,393623	0,038887	1,712565	2020-10-29T19:26:35:707
-0,919325	0,329441	1,224231	2020-10-29T19:26:35:729
-1,640073	0,235163	0,900455	2020-10-29T19:26:35:747
-2,250388	0,168240	0,665248	2020-10-29T19:26:35:769
-2,009783	-0,290459	0,423119	2020-10-29T19:26:35:787
-1,016538	0,051258	-0,102125	2020-10-29T19:26:35:810
-0,298869	0,287741	-0,072646	2020-10-29T19:26:35:827
0,111035	0,298722	0,042733	2020-10-29T19:26:35:849
0,281639	0,233733	0,227238	2020-10-29T19:26:35:867
0,275928	0,454174	0,450887	2020-10-29T19:26:35:890
0,459784	0,597958	0,527627	2020-10-29T19:26:35:907
0,342382	0,554068	0,603317	2020-10-29T19:26:35:932
-0,224717	0,733530	0,627245	2020-10-29T19:26:35:946
-0,362746	0,866173	0,725999	2020-10-29T19:26:35:970
-0,367586	0,706289	0,870430	2020-10-29T19:26:35:988
-0,616625	0,828594	0,868256	2020-10-29T19:26:36:011
-0,805184	0,885721	0,937578	2020-10-29T19:26:36:027
-1,055058	0,888412	0,983789	2020-10-29T19:26:36:052
-1,193600	0,878360	0,998471	2020-10-29T19:26:36:067
-1,256767	0,651205	1,023789	2020-10-29T19:26:36:103
-1,312092	0,385826	1,091719	2020-10-29T19:26:36:107
-1,398501	0,024803	1,327739	2020-10-29T19:26:36:135
-1,351583	-0,291381	1,438096	2020-10-29T19:26:36:186
-1,010091	-0,408934	1,569930	2020-10-29T19:26:36:187
-0,567096	-0,448225	1,519871	2020-10-29T19:26:36:187
0,100870	-0,453513	1,542075	2020-10-29T19:26:36:216
0,620051	-0,076101	2,113605	2020-10-29T19:26:36:255
0,939810	-0,052275	2,313871	2020-10-29T19:26:36:289
1,170813	-0,075638	2,503247	2020-10-29T19:26:36:290
1,679872	-1,028314	2,045852	2020-10-29T19:26:36:294
2,352603	-1,568291	1,353841	2020-10-29T19:26:36:347
3,394954	-1,903084	1,164641	2020-10-29T19:26:36:348
3,180052	-2,866221	1,042165	2020-10-29T19:26:36:348
2,102770	-3,288878	1,172698	2020-10-29T19:26:36:374
0,839368	-3,008565	1,367744	2020-10-29T19:26:36:386
-0,125594	-2,311804	1,333151	2020-10-29T19:26:36:409
-0,691565	-1,959931	1,234270	2020-10-29T19:26:36:426
-1,019444	-1,870411	0,846100	2020-10-29T19:26:36:451
-1,265964	-2,098748	0,513231	2020-10-29T19:26:36:468
-0,697120	-2,050640	0,322800	2020-10-29T19:26:36:490
0,104374	-1,837053	0,213059	2020-10-29T19:26:36:508
1,002752	-1,231566	-0,003034	2020-10-29T19:26:36:530
1,984904	-0,893083	-0,323126	2020-10-29T19:26:36:547
2,316209	-0,867712	-0,575566	2020-10-29T19:26:36:571
1,845569	-0,705783	-0,735973	2020-10-29T19:26:36:588
1,178932	-0,035076	-0,677261	2020-10-29T19:26:36:611
0,615088	0,768718	-0,553457	2020-10-29T19:26:36:627
0,012791	1,538199	-0,428171	2020-10-29T19:26:36:658
-0,223846	1,888608	-0,273704	2020-10-29T19:26:36:668
-0,125828	1,907562	-0,470532	2020-10-29T19:26:36:692
-0,094535	1,510863	-0,920208	2020-10-29T19:26:36:708
0,172871	1,317235	-1,067297	2020-10-29T19:26:36:730
0,453353	2,159698	-1,026638	2020-10-29T19:26:36:748
0,987478	3,247721	-1,063280	2020-10-29T19:26:36:771
0,468614	2,109530	-1,149710	2020-10-29T19:26:36:788
0,172349	0,346771	-1,316460	2020-10-29T19:26:36:811
0,235950	-0,879265	-1,141748	2020-10-29T19:26:36:831
0,477338	-2,261229	-1,315144	2020-10-29T19:26:36:851
0,348125	-2,311478	-1,322322	2020-10-29T19:26:36:868
0,274236	-2,290395	-1,366913	2020-10-29T19:26:36:891
0,171387	-2,467502	-1,306409	2020-10-29T19:26:36:908
-0,136894	-2,666770	-1,445774	2020-10-29T19:26:36:931
-0,275289	-2,569890	-1,525536	2020-10-29T19:26:36:949
0,272209	-2,728863	-1,821459	2020-10-29T19:26:36:981
3,711209	-3,018975	-1,001874	2020-10-29T19:26:53:146
4,219703	-3,882256	-1,326463	2020-10-29T19:26:53:147
3,510386	-4,954021	-1,102820	2020-10-29T19:26:53:148
3,146283	-5,452974	-1,044097	2020-10-29T19:26:53:149
2,317077	-5,972655	-1,115845	2020-10-29T19:26:53:149
1,339552	-6,147308	-1,187642	2020-10-29T19:26:53:151
0,314074	-6,139561	-0,898003	2020-10-29T19:26:53:171
-0,485129	-5,912243	-0,866896	2020-10-29T19:26:53:186
-1,299592	-5,599566	-0,923639	2020-10-29T19:26:53:210
-1,460659	-5,410703	-1,102420	2020-10-29T19:26:53:227
-0,655058	-5,164032	-1,705509	2020-10-29T19:26:53:252
0,201156	-5,139790	-2,145691	2020-10-29T19:26:53:268
0,462484	-4,707653	-2,025353	2020-10-29T19:26:53:292
0,567769	-4,899079	-2,137816	2020-10-29T19:26:53:308
0,413068	-4,826829	-2,150485	2020-10-29T19:26:53:330
0,406159	-4,440601	-1,603756	2020-10-29T19:26:53:347
0,142069	-2,924717	-0,748895	2020-10-29T19:26:53:370
-0,240783	-2,728506	-0,382793	2020-10-29T19:26:53:387
-0,940413	-2,426818	-0,192778	2020-10-29T19:26:53:411
-1,262677	-1,835787	0,105013	2020-10-29T19:26:53:427
-1,400598	-0,902368	0,841258	2020-10-29T19:26:53:451
-1,285743	-1,084222	2,016134	2020-10-29T19:26:53:468
0,888990	1,778516	5,031297	2020-10-29T19:26:53:491
1,346596	1,829117	7,278460	2020-10-29T19:26:53:508
0,597324	0,893928	6,215545	2020-10-29T19:26:53:533
-0,347841	-0,673371	3,815544	2020-10-29T19:26:53:548
-0,726201	-2,106189	2,465720	2020-10-29T19:26:53:571
-0,194614	-0,625384	2,515839	2020-10-29T19:26:53:588
-0,257512	1,003679	1,661823	2020-10-29T19:26:53:610
-0,725842	0,704075	1,519785	2020-10-29T19:26:53:628
-0,508597	1,219007	1,178969	2020-10-29T19:26:53:651
0,130742	2,534353	0,512012	2020-10-29T19:26:53:668
0,208158	3,024421	0,601408	2020-10-29T19:26:53:690
0,925027	3,241066	0,884472	2020-10-29T19:26:53:708
1,854429	3,557944	0,959062	2020-10-29T19:26:53:731
2,447711	3,753807	0,595688	2020-10-29T19:26:53:748
2,515406	3,980406	0,193491	2020-10-29T19:26:53:773
3,726174	4,217296	0,293990	2020-10-29T19:26:53:788
4,212875	4,611536	0,226748	2020-10-29T19:26:53:812
3,157642	4,247827	0,466030	2020-10-29T19:26:53:828
2,927198	4,184517	0,186815	2020-10-29T19:26:53:850
3,222959	4,419563	0,063567	2020-10-29T19:26:53:868
3,407597	4,868719	0,631229	2020-10-29T19:26:53:892
3,115671	4,851970	1,583572	2020-10-29T19:26:53:908
2,665699	5,024358	2,528831	2020-10-29T19:26:53:931
2,256526	4,940609	2,411583	2020-10-29T19:26:53:948
2,068452	4,866605	1,479530	2020-10-29T19:26:53:971
1,861831	4,835044	0,491376	2020-10-29T19:26:53:988
1,994335	4,751389	-0,204695	2020-10-29T19:26:54:012
2,327311	4,787032	-0,500498	2020-10-29T19:26:54:028
2,845982	4,944545	-0,634397	2020-10-29T19:26:54:051
3,180168	4,833924	-0,376381	2020-10-29T19:26:54:068
3,405466	4,321198	-0,241460	2020-10-29T19:26:54:091
3,280552	3,604885	-0,295582	2020-10-29T19:26:54:108
2,496116	2,968262	-0,684564	2020-10-29T19:26:54:132
1,900304	3,200366	-0,658243	2020-10-29T19:26:54:148
1,131598	2,903157	-0,530049	2020-10-29T19:26:54:172
1,110063	3,252509	-0,542013	2020-10-29T19:26:54:188
0,908788	3,408153	-0,535365	2020-10-29T19:26:54:212
0,652581	3,207733	-0,576730	2020-10-29T19:26:54:228
0,492361	2,743064	-0,491459	2020-10-29T19:26:54:253
0,635931	2,601887	-0,718777	2020-10-29T19:26:54:268
0,777970	3,090532	-0,714456	2020-10-29T19:26:54:292
0,651152	2,836893	-0,781455	2020-10-29T19:26:54:308
0,906683	3,060424	-0,920864	2020-10-29T19:26:54:331
1,177617	3,593047	-0,720794	2020-10-29T19:26:54:348
1,695152	4,076541	-0,690520	2020-10-29T19:26:54:372
2,063804	4,375600	-0,651648	2020-10-29T19:26:54:388
2,529112	4,601432	-0,410567	2020-10-29T19:26:54:412
2,435792	4,670824	-0,348354	2020-10-29T19:26:54:428
2,263115	4,453528	-0,338966	2020-10-29T19:26:54:452
2,100958	4,288114	-0,448503	2020-10-29T19:26:54:469
2,086641	4,124174	-0,624405	2020-10-29T19:26:54:492
2,338259	3,668066	-0,853782	2020-10-29T19:26:54:508
2,766277	3,048797	-1,308578	2020-10-29T19:26:54:532
2,950173	2,379599	-1,489177	2020-10-29T19:26:54:548
2,702013	1,724103	-1,739030	2020-10-29T19:26:54:572
2,190823	1,044652	-1,614844	2020-10-29T19:26:54:588
1,612518	0,483472	-1,411854	2020-10-29T19:26:54:613
1,177171	0,161170	-1,123120	2020-10-29T19:26:54:629
0,873719	0,035277	-1,096880	2020-10-29T19:26:54:652
0,530484	0,093371	-0,961944	2020-10-29T19:26:54:669
0,306558	-0,105968	-0,694838	2020-10-29T19:26:54:692
0,219951	-0,297019	-0,670915	2020-10-29T19:26:54:710
0,256967	-0,646571	-0,559624	2020-10-29T19:26:54:732
-0,000355	-0,992451	-0,016495	2020-10-29T19:26:54:749
-0,036922	-1,132004	0,386866	2020-10-29T19:26:54:773
0,091239	-1,103902	0,621696	2020-10-29T19:26:54:789
0,115214	-1,217348	1,040396	2020-10-29T19:26:54:812
0,147167	-1,081379	1,466955	2020-10-29T19:26:54:829
0,298676	-0,916364	1,587565	2020-10-29T19:26:54:853
0,222732	-0,355676	1,562489	2020-10-29T19:26:54:869
-0,008567	0,053670	1,460661	2020-10-29T19:26:54:892
0,044650	0,487419	1,360201	2020-10-29T19:26:54:909
0,311452	0,747816	1,449342	2020-10-29T19:26:54:932
0,639516	0,827859	1,596740	2020-10-29T19:26:54:949
0,947393	0,529177	1,747381	2020-10-29T19:26:54:974
0,945001	0,134361	2,103912	2020-10-29T19:26:54:988
1,031873	-0,158434	2,276461	2020-10-29T19:26:55:019
1,015069	0,038992	2,282184	2020-10-29T19:26:55:029
0,726135	0,247638	2,509268	2020-10-29T19:26:55:051
0,111280	-0,087828	2,827914	2020-10-29T19:26:55:069
-0,242681	0,101510	2,411976	2020-10-29T19:26:55:093
-0,599465	0,392502	2,102636	2020-10-29T19:26:55:109
-1,081209	0,370582	1,972171	2020-10-29T19:26:55:132
-1,030863	0,080032	1,838148	2020-10-29T19:26:55:149
-0,841868	-0,007807	1,706155	2020-10-29T19:26:55:173
-0,658199	-0,109977	1,743726	2020-10-29T19:26:55:189
-0,109332	0,464524	2,236586	2020-10-29T19:26:55:214
-0,027976	0,450167	2,456725	2020-10-29T19:26:55:228
0,442527	0,863664	2,675866	2020-10-29T19:26:55:254
0,590881	0,978519	2,836185	2020-10-29T19:26:55:270
0,932899	1,416257	3,307554	2020-10-29T19:26:55:293
1,236789	1,478471	3,484623	2020-10-29T19:26:55:309
1,785650	1,521726	3,486476	2020-10-29T19:26:55:335
2,030187	1,796748	3,391818	2020-10-29T19:26:55:348
1,824676	2,050142	3,324472	2020-10-29T19:26:55:371
1,721916	2,684543	3,066887	2020-10-29T19:26:55:389
1,542303	3,286337	2,961981	2020-10-29T19:26:55:413
1,704286	3,912675	2,858754	2020-10-29T19:26:55:430
1,954614	4,286334	2,779893	2020-10-29T19:26:55:453
2,433709	4,631646	2,575008	2020-10-29T19:26:55:470
2,661026	4,320579	2,632436	2020-10-29T19:26:55:493
2,728599	4,405945	2,491869	2020-10-29T19:26:55:510
3,050278	4,338628	2,177413	2020-10-29T19:26:55:532
3,892987	4,181904	1,703456	2020-10-29T19:26:55:550
4,365591	4,245218	1,256025	2020-10-29T19:26:55:573
4,375961	4,366677	0,981420	2020-10-29T19:26:55:590
4,060368	4,776341	0,641033	2020-10-29T19:26:55:613
3,653512	5,199716	0,407203	2020-10-29T19:26:55:630
3,342623	5,301188	0,191023	2020-10-29T19:26:55:653
3,270511	5,306299	0,208803	2020-10-29T19:26:55:670
3,289406	5,175051	0,270157	2020-10-29T19:26:55:693
3,290475	4,939646	-0,065265	2020-10-29T19:26:55:710
3,314892	4,855325	-0,368771	2020-10-29T19:26:55:734
3,198779	4,632616	-0,287157	2020-10-29T19:26:55:750
2,950986	4,583325	-0,169263	2020-10-29T19:26:55:774
2,385283	4,541534	0,035121	2020-10-29T19:26:55:790
2,267247	4,764486	-0,095949	2020-10-29T19:26:55:814
2,300117	4,833196	-0,172094	2020-10-29T19:26:55:830
2,344463	4,764469	0,142414	2020-10-29T19:26:55:853
2,348215	4,604818	0,093600	2020-10-29T19:26:55:870
2,451258	4,364522	0,065747	2020-10-29T19:26:55:893
2,604873	3,930532	0,503957	2020-10-29T19:26:55:910
2,745337	3,404734	0,897775	2020-10-29T19:26:55:934
2,904062	3,123902	1,121356	2020-10-29T19:26:55:950
3,130370	2,845500	1,056062	2020-10-29T19:26:55:974
3,223947	2,677199	1,067706	2020-10-29T19:26:55:990
3,029272	2,404840	1,345752	2020-10-29T19:26:56:013
2,814152	2,224919	1,636353	2020-10-29T19:26:56:030
2,904554	2,217636	1,784025	2020-10-29T19:26:56:054
2,781716	2,316615	1,851650	2020-10-29T19:26:56:070
2,848276	2,476081	1,858017	2020-10-29T19:26:56:093
2,913283	2,592895	1,925786	2020-10-29T19:26:56:110
2,929697	2,802192	2,039929	2020-10-29T19:26:56:134
2,719391	2,966929	2,045165	2020-10-29T19:26:56:150
2,564362	3,160229	2,066088	2020-10-29T19:26:56:175
2,427844	3,526791	1,905699	2020-10-29T19:26:56:190
3,069244	3,967967	1,263419	2020-10-29T19:26:56:214
4,806937	3,917034	0,664736	2020-10-29T19:26:56:230
4,829646	3,484578	0,814071	2020-10-29T19:26:56:253
3,516269	3,449625	1,075611	2020-10-29T19:26:56:270
2,975824	3,448901	0,977279	2020-10-29T19:26:56:295
2,934200	3,573526	0,797789	2020-10-29T19:26:56:310
2,925472	3,418957	0,530765	2020-10-29T19:26:56:333
2,745858	3,022041	0,507430	2020-10-29T19:26:56:351
1,965689	2,731804	0,669065	2020-10-29T19:26:56:374
1,062022	3,162072	0,829218	2020-10-29T19:26:56:390
1,013189	3,458869	0,718237	2020-10-29T19:26:56:414
2,029637	3,805674	0,491003	2020-10-29T19:26:56:430
2,904225	4,234524	0,532719	2020-10-29T19:26:56:454
2,980518	4,508071	0,492423	2020-10-29T19:26:56:471
3,030265	5,032546	0,325805	2020-10-29T19:26:56:493
3,377087	5,546550	0,338550	2020-10-29T19:26:56:511
3,383836	5,932852	0,401907	2020-10-29T19:26:56:534
3,025756	6,132505	0,492312	2020-10-29T19:26:56:550
2,339321	6,009464	0,527274	2020-10-29T19:26:56:574
1,841614	5,911358	0,826377	2020-10-29T19:26:56:590
1,489532	5,573920	1,231742	2020-10-29T19:26:56:615
1,410569	5,320281	1,521273	2020-10-29T19:26:56:630
1,383249	5,187325	1,732333	2020-10-29T19:26:56:655
1,545960	5,165789	1,631835	2020-10-29T19:26:56:670
1,799873	4,933828	1,418351	2020-10-29T19:26:56:694
2,106309	4,873775	1,115626	2020-10-29T19:26:56:710
2,204462	4,628465	0,784431	2020-10-29T19:26:56:733
2,143780	4,422207	0,624228	2020-10-29T19:26:56:751
1,836535	4,099462	0,778168	2020-10-29T19:26:56:775
2,004639	3,628223	0,952504	2020-10-29T19:26:56:790
1,762652	2,607716	1,020400	2020-10-29T19:26:56:814
2,033041	1,976012	1,037149	2020-10-29T19:26:56:831
2,198978	1,074279	1,038003	2020-10-29T19:26:56:854
2,498750	0,139940	0,943592	2020-10-29T19:26:56:872
2,599954	-0,399935	1,129523	2020-10-29T19:26:56:895
2,447676	-0,635571	0,710242	2020-10-29T19:26:56:911
4,318169	-0,478221	0,180580	2020-10-29T19:26:56:936
5,098229	-0,609826	0,482076	2020-10-29T19:26:56:951
2,238519	-0,118242	0,798576	2020-10-29T19:26:56:975
0,831539	1,130812	0,509044	2020-10-29T19:26:56:991
1,601675	1,879518	0,165661	2020-10-29T19:26:57:015
2,321780	1,762742	0,092826	2020-10-29T19:26:57:031
1,780352	1,170277	0,293397	2020-10-29T19:26:57:054
1,127895	1,127567	0,269239	2020-10-29T19:26:57:071
0,150324	1,119058	0,047682	2020-10-29T19:26:57:095
-0,768520	1,317663	-0,095888	2020-10-29T19:26:57:111
-0,991047	1,566360	-0,584213	2020-10-29T19:26:57:135
0,086839	1,689277	-1,084318	2020-10-29T19:26:57:151
1,931523	1,566451	-1,508090	2020-10-29T19:26:57:175
3,492391	1,088855	-1,951717	2020-10-29T19:26:57:191
3,995992	0,293173	-2,474460	2020-10-29T19:26:57:215
3,704069	0,747809	-2,929096	2020-10-29T19:26:57:231
3,314752	1,592680	-3,288648	2020-10-29T19:26:57:255
2,941357	2,029298	-3,380477	2020-10-29T19:26:57:271
2,363417	2,541851	-3,350463	2020-10-29T19:26:57:294
1,906154	2,940917	-3,294732	2020-10-29T19:26:57:311
1,859892	3,088394	-3,329348	2020-10-29T19:26:57:336
1,517717	2,913718	-3,236027	2020-10-29T19:26:57:351
1,159506	2,824500	-3,055303	2020-10-29T19:26:57:375
0,982812	2,972667	-2,867559	2020-10-29T19:26:57:391
1,029173	3,075391	-2,713730	2020-10-29T19:26:57:415
1,165509	3,450910	-2,594417	2020-10-29T19:26:57:431
2,473247	5,013274	-2,071683	2020-10-29T19:26:57:455
2,511532	5,032416	-1,935292	2020-10-29T19:26:57:472
2,912010	5,437718	-1,488542	2020-10-29T19:26:57:495
3,466227	6,214052	-0,830515	2020-10-29T19:26:57:511
3,713128	6,353635	-0,478925	2020-10-29T19:26:57:534
3,667999	6,354362	-0,164889	2020-10-29T19:26:57:551
2,863497	5,876601	-0,020781	2020-10-29T19:26:57:575
1,160303	4,006883	0,364105	2020-10-29T19:26:57:592
0,269094	2,229517	0,854390	2020-10-29T19:26:57:615
0,158171	1,459893	1,111489	2020-10-29T19:26:57:631
0,117054	1,294368	1,123449	2020-10-29T19:26:57:655
1,080563	1,478263	0,591427	2020-10-29T19:26:57:672
2,265972	1,366473	0,494510	2020-10-29T19:26:57:694
2,733128	4,083746	0,778342	2020-10-29T19:26:57:712
1,615076	3,472733	1,295969	2020-10-29T19:26:57:735
1,254873	2,521772	1,415322	2020-10-29T19:26:57:751
0,625307	1,428744	1,632590	2020-10-29T19:26:57:775
0,167933	0,033921	2,179357	2020-10-29T19:26:57:792
-0,023293	-3,115703	2,964516	2020-10-29T19:26:57:815
0,376108	-2,991233	2,665426	2020-10-29T19:26:57:831
-0,323364	-2,707576	2,212689	2020-10-29T19:26:57:855
-1,140092	-1,722181	1,681913	2020-10-29T19:26:57:871
-1,040726	-0,651188	1,153203	2020-10-29T19:26:57:895
-0,027990	-0,985918	0,817712	2020-10-29T19:26:57:912
0,461450	-1,737570	0,778343	2020-10-29T19:26:57:934
0,533997	-2,211963	1,040421	2020-10-29T19:26:57:951
0,360382	-2,446797	1,035966	2020-10-29T19:26:57:976
0,283510	-2,349333	0,912516	2020-10-29T19:26:57:991
-0,099974	-1,717461	0,333634	2020-10-29T19:26:58:017
-0,432576	-1,549964	0,103923	2020-10-29T19:26:58:032
-0,445883	-1,057217	-0,202005	2020-10-29T19:26:58:056
-0,436312	-0,975861	-0,529822	2020-10-29T19:26:58:072
-0,435799	-0,857858	-0,665206	2020-10-29T19:26:58:096
-0,357267	-0,868716	-0,841179	2020-10-29T19:26:58:112
-0,227321	-1,030413	-0,783655	2020-10-29T19:26:58:136
-0,013290	-1,141199	-0,600565	2020-10-29T19:26:58:154
0,251272	-1,152552	-0,617535	2020-10-29T19:26:58:175
0,326979	-1,312995	-0,520066	2020-10-29T19:26:58:192
1,283289	1,965415	-1,387017	2020-10-29T19:26:58:216
1,387883	2,400045	-1,391130	2020-10-29T19:26:58:232
1,565344	2,469948	-1,425218	2020-10-29T19:26:58:255
1,905663	2,384363	-1,468083	2020-10-29T19:26:58:272
2,246888	2,281671	-1,582979	2020-10-29T19:26:58:295
2,471464	2,720834	-1,557300	2020-10-29T19:26:58:313
2,369952	2,925757	-1,593738	2020-10-29T19:26:58:336
2,428211	3,058586	-1,933179	2020-10-29T19:26:58:352
2,627819	3,076831	-2,055170	2020-10-29T19:26:58:376
2,595872	3,207117	-2,124671	2020-10-29T19:26:58:392
2,594192	3,358731	-2,351413	2020-10-29T19:26:58:415
2,651034	3,594690	-2,303195	2020-10-29T19:26:58:432
2,556703	4,061701	-2,450123	2020-10-29T19:26:58:455
2,681530	4,541039	-2,751782	2020-10-29T19:26:58:473
4,003911	4,943221	-2,914289	2020-10-29T19:26:58:495
5,135382	5,093607	-2,772220	2020-10-29T19:26:58:513
5,255251	4,841637	-2,607373	2020-10-29T19:26:58:536
5,426921	4,513863	-2,258636	2020-10-29T19:26:58:553
5,510036	4,477488	-2,068589	2020-10-29T19:26:58:576
4,898617	4,772324	-1,826910	2020-10-29T19:26:58:592
3,475874	5,191583	-1,670073	2020-10-29T19:26:58:616
2,296390	5,484982	-1,649634	2020-10-29T19:26:58:632
2,528831	5,821245	-1,550510	2020-10-29T19:26:58:655
4,106417	5,825941	-1,435236	2020-10-29T19:26:58:673
5,091133	5,180222	-1,271753	2020-10-29T19:26:58:696
5,456643	4,921743	-1,364862	2020-10-29T19:26:58:713
5,627847	4,762044	-1,777501	2020-10-29T19:26:58:735
5,559603	4,825478	-2,086316	2020-10-29T19:26:58:753
5,022260	5,117356	-1,967925	2020-10-29T19:26:58:776
4,456504	5,356850	-1,730663	2020-10-29T19:26:58:793
3,624168	5,884134	-1,482237	2020-10-29T19:26:58:817
2,855491	6,436565	-1,565500	2020-10-29T19:26:58:834
2,491174	6,513321	-1,678028	2020-10-29T19:26:58:856
2,346457	6,108997	-1,749543	2020-10-29T19:26:58:873
2,263940	5,617557	-1,656989	2020-10-29T19:26:58:895
2,237267	5,364327	-1,587697	2020-10-29T19:26:58:913
2,038086	4,935402	-1,201637	2020-10-29T19:26:58:936
1,959529	4,399088	-1,004683	2020-10-29T19:26:58:953
1,859119	4,345270	-0,816902	2020-10-29T19:26:58:976
1,807378	4,181087	-0,583620	2020-10-29T19:26:58:993
1,938676	4,322271	-0,573233	2020-10-29T19:26:59:016
1,990068	4,368119	-0,541659	2020-10-29T19:26:59:033
2,071488	3,824281	-0,424951	2020-10-29T19:26:59:056
2,150227	3,334127	-0,386204	2020-10-29T19:26:59:073
1,051577	-0,077793	-0,321056	2020-10-29T19:26:59:097
1,938609	0,033991	-1,120444	2020-10-29T19:26:59:113
3,937607	-0,021059	-1,561548	2020-10-29T19:26:59:137
4,153832	-0,311074	-1,439603	2020-10-29T19:26:59:153
2,439797	-0,542938	-0,620149	2020-10-29T19:26:59:177
1,577020	0,248017	-0,245116	2020-10-29T19:26:59:193
2,094697	1,853868	-0,096954	2020-10-29T19:26:59:216
2,603840	2,707877	0,057769	2020-10-29T19:26:59:233
2,038951	2,305891	0,024357	2020-10-29T19:26:59:256
0,905784	1,716835	0,055194	2020-10-29T19:26:59:273
-0,052192	1,455395	0,173151	2020-10-29T19:26:59:297
-0,035774	2,254168	-0,089615	2020-10-29T19:26:59:313
0,564492	2,739709	-0,238451	2020-10-29T19:26:59:337
0,490352	2,957459	-0,461266	2020-10-29T19:26:59:353
0,578277	2,738150	-0,587669	2020-10-29T19:26:59:377
0,654525	2,086794	-0,521097	2020-10-29T19:26:59:393
0,461339	1,564083	-0,357872	2020-10-29T19:26:59:418
0,011872	1,259695	0,022529	2020-10-29T19:26:59:433
-0,352129	1,123861	0,265513	2020-10-29T19:26:59:457
-0,600274	1,297578	0,576643	2020-10-29T19:26:59:473
-0,904359	1,460844	0,817613	2020-10-29T19:26:59:498
-1,010180	1,503172	1,179776	2020-10-29T19:26:59:513
-1,023634	1,656000	1,577330	2020-10-29T19:26:59:540
-0,942278	1,593786	1,756792	2020-10-29T19:26:59:553
-0,468823	1,623200	1,861850	2020-10-29T19:26:59:580
-0,090758	1,644736	1,957563	2020-10-29T19:26:59:593
0,168974	1,670271	1,958755	2020-10-29T19:26:59:617
0,042110	1,619012	2,012833	2020-10-29T19:26:59:633
-0,069057	1,644310	2,029948	2020-10-29T19:26:59:658
-0,133804	1,605813	1,986883	2020-10-29T19:26:59:673
0,036045	1,364544	1,831727	2020-10-29T19:26:59:698
0,292077	1,299938	1,750371	2020-10-29T19:26:59:713
0,669656	0,996210	1,768242	2020-10-29T19:26:59:738
1,018499	0,699538	1,735244	2020-10-29T19:26:59:754
1,496779	0,542770	1,622821	2020-10-29T19:26:59:779
1,565943	0,079270	1,589921	2020-10-29T19:26:59:793
1,249784	0,124418	1,485709	2020-10-29T19:26:59:818
0,967042	0,529696	1,279843	2020-10-29T19:26:59:833
2,005996	1,294811	0,916939	2020-10-29T19:26:59:857
3,530191	1,129061	0,929616	2020-10-29T19:26:59:874
3,461155	0,260175	1,360506	2020-10-29T19:26:59:897
2,379811	0,104135	1,449209	2020-10-29T19:26:59:914
2,026242	0,315560	1,270148	2020-10-29T19:26:59:937
1,577461	0,785473	1,255209	2020-10-29T19:26:59:954
0,905748	1,224911	1,358824	2020-10-29T19:26:59:978
0,415651	1,991227	1,681427	2020-10-29T19:26:59:994
0,124311	2,520363	1,957935	2020-10-29T19:27:00:018
0,372357	2,982320	1,935051	2020-10-29T19:27:00:033
1,865494	3,334154	1,551411	2020-10-29T19:27:00:058
3,308269	3,643523	0,768857	2020-10-29T19:27:00:074
4,375876	3,605377	0,320312	2020-10-29T19:27:00:096
5,075917	3,692580	-0,405706	2020-10-29T19:27:00:114
5,289165	4,041064	-0,793454	2020-10-29T19:27:00:138
4,857457	3,879572	-0,898855	2020-10-29T19:27:00:153
4,167141	4,201975	-0,830709	2020-10-29T19:27:00:177
3,316700	4,440690	-0,921312	2020-10-29T19:27:00:194
2,699231	4,533532	-0,983722	2020-10-29T19:27:00:218
2,265589	4,513359	-1,269738	2020-10-29T19:27:00:234
1,944392	4,915154	-1,322274	2020-10-29T19:27:00:259
2,076695	5,168729	-1,190540	2020-10-29T19:27:00:274
2,213218	5,547667	-0,941423	2020-10-29T19:27:00:298
2,345109	5,794790	-0,691495	2020-10-29T19:27:00:314
2,844629	6,258671	-0,359130	2020-10-29T19:27:00:337
2,815916	6,127066	-0,380665	2020-10-29T19:27:00:354
2,655376	6,146542	-0,320388	2020-10-29T19:27:00:378
3,073236	6,303225	-0,281663	2020-10-29T19:27:00:394
3,317651	6,346113	-0,404231	2020-10-29T19:27:00:417
3,415950	6,552430	-0,458528	2020-10-29T19:27:00:434
3,381870	6,682105	-0,447742	2020-10-29T19:27:00:458
3,144381	6,849897	-0,295505	2020-10-29T19:27:00:474
3,266523	6,971413	-0,511018	2020-10-29T19:27:00:498
4,059749	7,076818	-1,106655	2020-10-29T19:27:00:514
4,921609	7,140546	-1,283398	2020-10-29T19:27:00:538
4,571988	6,634436	-1,027727	2020-10-29T19:27:00:554
4,009745	5,997661	-0,635968	2020-10-29T19:27:00:577
3,770499	5,478352	-0,375568	2020-10-29T19:27:00:594
3,350219	4,881475	-0,126821	2020-10-29T19:27:00:618
2,842590	4,056326	0,160809	2020-10-29T19:27:00:634
2,610580	3,362971	0,291994	2020-10-29T19:27:00:657
2,591341	2,432163	0,163282	2020-10-29T19:27:00:674
2,569692	1,367973	-0,229693	2020-10-29T19:27:00:698
2,556446	0,307019	-0,896902	2020-10-29T19:27:00:714
2,584858	-0,651076	-1,432012	2020-10-29T19:27:00:738
2,650435	-1,623613	-1,725232	2020-10-29T19:27:00:754
2,543368	-1,459654	-1,992112	2020-10-29T19:27:00:779
2,079950	-0,790344	-2,118340	2020-10-29T19:27:00:795
1,504051	-1,418783	-2,253229	2020-10-29T19:27:00:818
1,054202	-1,445104	-2,202980	2020-10-29T19:27:00:834
0,490895	-2,437203	-2,409995	2020-10-29T19:27:00:859
-0,265971	-3,089359	-2,554935	2020-10-29T19:27:00:874
-0,628938	-3,713260	-2,962342	2020-10-29T19:27:00:897
-0,302184	-4,094395	-3,748071	2020-10-29T19:27:00:915
0,337637	-4,414355	-4,312386	2020-10-29T19:27:00:938
0,587144	-4,668054	-4,322111	2020-10-29T19:27:00:954
0,192145	-4,948709	-4,131045	2020-10-29T19:27:00:979
-0,083863	-5,043888	-3,721864	2020-10-29T19:27:00:994
-0,208816	-4,934202	-3,565898	2020-10-29T19:27:01:018
-0,580769	-4,591285	-3,017863	2020-10-29T19:27:01:036
-1,068994	-4,337118	-2,119925	2020-10-29T19:27:01:058
-1,101261	-4,241879	-1,709016	2020-10-29T19:27:01:075
-0,885203	-4,195529	-1,511582	2020-10-29T19:27:01:099
-0,499959	-4,482667	-1,100016	2020-10-29T19:27:01:115
-0,006563	-4,589207	-0,760570	2020-10-29T19:27:01:138
0,352984	-4,353427	-0,505272	2020-10-29T19:27:01:155
0,830369	-4,061306	-0,229039	2020-10-29T19:27:01:179
1,016586	-3,648857	0,170484	2020-10-29T19:27:01:195
0,794320	-3,346517	0,456412	2020-10-29T19:27:01:220
0,556706	-2,997614	0,676146	2020-10-29T19:27:01:234
0,468170	-2,633312	0,572899	2020-10-29T19:27:01:258
1,481217	-2,577162	0,363072	2020-10-29T19:27:01:275
1,668178	-3,122527	-0,212342	2020-10-29T19:27:01:298
0,815287	-3,371170	-0,333302	2020-10-29T19:27:01:315
-0,399814	-3,262877	-0,188374	2020-10-29T19:27:01:339
-0,973612	-2,850737	-0,030575	2020-10-29T19:27:01:355
-1,126449	-2,304327	0,096583	2020-10-29T19:27:01:378
-0,903951	-1,956199	0,220122	2020-10-29T19:27:01:395
-0,058867	-1,253368	0,937362	2020-10-29T19:27:01:420
1,281114	-1,825253	0,827292	2020-10-29T19:27:01:435
1,915797	-1,834850	1,260139	2020-10-29T19:27:01:460
1,726765	-2,016705	1,006500	2020-10-29T19:27:01:475
1,953418	-1,396735	0,580949	2020-10-29T19:27:01:499
2,188601	-0,598858	0,701153	2020-10-29T19:27:01:516
2,157575	0,246975	1,360218	2020-10-29T19:27:01:538
1,411015	0,493436	1,594715	2020-10-29T19:27:01:555
0,549171	0,617140	1,860751	2020-10-29T19:27:01:579
0,124768	0,949109	1,981516	2020-10-29T19:27:01:595
0,033917	1,146898	2,229442	2020-10-29T19:27:01:619
-0,006543	1,331127	2,232394	2020-10-29T19:27:01:635
0,055992	1,597573	2,092440	2020-10-29T19:27:01:659
0,118309	1,683808	2,027751	2020-10-29T19:27:01:675
0,061973	1,903468	1,962295	2020-10-29T19:27:01:700
0,239501	2,193801	1,876436	2020-10-29T19:27:01:715
0,529176	2,440903	1,847778	2020-10-29T19:27:01:739
0,898720	2,516026	1,822506	2020-10-29T19:27:01:755
1,275100	2,682086	1,727471	2020-10-29T19:27:01:778
1,671126	2,646144	1,527411	2020-10-29T19:27:01:795
2,102468	2,679539	1,296481	2020-10-29T19:27:01:820
2,135629	2,546855	1,127066	2020-10-29T19:27:01:835
2,191833	2,500865	0,989722	2020-10-29T19:27:01:859
1,956656	2,352780	1,040743	2020-10-29T19:27:01:876
1,413908	2,102896	1,282309	2020-10-29T19:27:01:900
1,191377	2,117253	1,602947	2020-10-29T19:27:01:916
0,906369	2,059507	1,747985	2020-10-29T19:27:01:941
0,738873	2,054721	1,812592	2020-10-29T19:27:01:956
0,727661	1,955306	1,959405	2020-10-29T19:27:01:980
0,664160	1,898722	2,044958	2020-10-29T19:27:01:996
0,811115	1,641771	1,977216	2020-10-29T19:27:02:019
0,986930	1,417481	1,768702	2020-10-29T19:27:02:036
1,177455	1,243633	1,642493	2020-10-29T19:27:02:060
2,092902	1,015038	0,973092	2020-10-29T19:27:02:076
4,123018	0,565659	0,213572	2020-10-29T19:27:02:099
4,114416	-0,506983	0,295693	2020-10-29T19:27:02:116
2,345846	-1,163822	0,684723	2020-10-29T19:27:02:139
1,686419	-1,601174	0,740729	2020-10-29T19:27:02:156
0,862253	-2,027400	1,051070	2020-10-29T19:27:02:180
0,016653	-2,598762	1,325879	2020-10-29T19:27:02:196
-0,358088	-2,842698	1,445568	2020-10-29T19:27:02:220
-0,530330	-2,930265	1,549222	2020-10-29T19:27:02:236
-1,016855	-2,408982	1,473449	2020-10-29T19:27:02:259
-1,763972	-0,996301	1,149205	2020-10-29T19:27:02:276
-1,902947	-0,015118	0,715399	2020-10-29T19:27:02:300
-0,729501	1,173870	0,171246	2020-10-29T19:27:02:317
-0,201001	1,753114	0,125755	2020-10-29T19:27:02:339
0,856927	2,435355	-0,008196	2020-10-29T19:27:02:356
1,663772	3,066748	-0,208303	2020-10-29T19:27:02:380
2,182940	3,434303	-0,177767	2020-10-29T19:27:02:396
2,540236	3,674843	0,009624	2020-10-29T19:27:02:420
2,676101	3,946858	0,056969	2020-10-29T19:27:02:436
2,571111	4,268332	0,172206	2020-10-29T19:27:02:460
2,326669	4,474724	0,187107	2020-10-29T19:27:02:477
2,468546	4,791220	0,110904	2020-10-29T19:27:02:499
2,870780	5,292446	-0,063913	2020-10-29T19:27:02:516
2,948850	5,385692	-0,034290	2020-10-29T19:27:02:540
2,969883	5,637455	0,166710	2020-10-29T19:27:02:556
2,997993	5,663415	0,184342	2020-10-29T19:27:02:580
2,908056	5,742770	0,384562	2020-10-29T19:27:02:597
2,788906	5,709671	0,510405	2020-10-29T19:27:02:620
2,619468	5,652996	0,646372	2020-10-29T19:27:02:636
2,664763	5,421005	0,664244	2020-10-29T19:27:02:660
2,849980	4,975592	0,656799	2020-10-29T19:27:02:676
3,266482	4,468954	0,647541	2020-10-29T19:27:02:700
3,511546	4,363788	0,705217	2020-10-29T19:27:02:717
2,322548	2,985574	0,512403	2020-10-29T19:27:02:739
3,996002	4,158077	0,251440	2020-10-29T19:27:02:757
4,977849	4,431060	-0,043822	2020-10-29T19:27:02:781
4,962772	4,527416	-0,072738	2020-10-29T19:27:02:804
4,227785	4,486309	0,001715	2020-10-29T19:27:02:820
3,232870	4,619742	0,135147	2020-10-29T19:27:02:837
2,709162	4,834417	0,059802	2020-10-29T19:27:02:860
3,552341	4,900282	-0,041383	2020-10-29T19:27:02:877
4,669075	4,436574	-0,223669	2020-10-29T19:27:02:901
4,508080	3,908166	0,001816	2020-10-29T19:27:02:916
3,952869	3,462188	-0,219014	2020-10-29T19:27:02:941
3,847272	3,360399	-0,661749	2020-10-29T19:27:02:957
3,872887	3,303111	-1,285022	2020-10-29T19:27:02:981
3,439704	3,601979	-1,738932	2020-10-29T19:27:02:996
2,583663	3,511671	-1,792547	2020-10-29T19:27:03:022
1,786245	2,747718	-1,014630	2020-10-29T19:27:03:037
1,948869	0,367778	-0,248410	2020-10-29T19:27:03:060
1,722958	3,334607	-0,322862	2020-10-29T19:27:03:077
2,016584	4,994140	-0,874306	2020-10-29T19:27:03:101
2,919094	3,663403	-2,071105	2020-10-29T19:27:03:117
3,330159	3,197197	-2,891997	2020-10-29T19:27:03:142
3,261813	3,129555	-3,201557	2020-10-29T19:27:03:158
3,609076	2,879066	-3,429420	2020-10-29T19:27:03:181
3,775209	2,986734	-3,496466	2020-10-29T19:27:03:197
3,395321	3,923613	-3,344293	2020-10-29T19:27:03:220
3,000424	4,457187	-2,788334	2020-10-29T19:27:03:237
2,995314	4,790003	-2,343542	2020-10-29T19:27:03:261
3,220890	4,751658	-1,972557	2020-10-29T19:27:03:277
3,429227	4,951640	-1,819050	2020-10-29T19:27:03:300
3,625862	4,993284	-1,495239	2020-10-29T19:27:03:317
3,674999	4,914992	-1,096398	2020-10-29T19:27:03:341
3,833194	4,871879	-0,593266	2020-10-29T19:27:03:357
3,918965	5,187153	-0,196822	2020-10-29T19:27:03:382
3,819554	5,362101	0,051749	2020-10-29T19:27:03:396
3,690649	5,626183	0,264135	2020-10-29T19:27:03:421
3,939624	5,959810	-0,190702	2020-10-29T19:27:03:437
4,182292	6,179150	-0,545970	2020-10-29T19:27:03:460
4,171605	6,293188	-0,482064	2020-10-29T19:27:03:477
3,965273	6,331555	-0,458670	2020-10-29T19:27:03:501
4,470242	6,642776	-1,109206	2020-10-29T19:27:03:517
6,123614	6,800715	-1,503456	2020-10-29T19:27:03:540
6,280979	6,374109	-1,330942	2020-10-29T19:27:03:557
4,857125	5,707801	-0,840600	2020-10-29T19:27:03:582
3,792507	5,390667	-0,477891	2020-10-29T19:27:03:597
3,099037	4,958717	-0,426423	2020-10-29T19:27:03:622
2,816107	4,466791	-0,487119	2020-10-29T19:27:03:637
2,468741	4,028282	-0,195697	2020-10-29T19:27:03:661
2,008479	3,773311	0,015054	2020-10-29T19:27:03:677
0,176023	1,716971	0,256250	2020-10-29T19:27:03:700
-1,488808	-0,917679	0,189544	2020-10-29T19:27:03:717
-1,257133	-1,450628	-0,156817	2020-10-29T19:27:03:741
0,048398	-1,046527	-1,033557	2020-10-29T19:27:03:757
0,722759	-0,804653	-1,473392	2020-10-29T19:27:03:781
0,961085	0,865483	-1,090777	2020-10-29T19:27:03:797
0,688064	0,909021	-0,368429	2020-10-29T19:27:03:822
0,486700	1,306328	0,011694	2020-10-29T19:27:03:838
0,462915	2,137800	0,201642	2020-10-29T19:27:03:863
-0,168790	2,204799	0,110715	2020-10-29T19:27:03:878
-0,541969	2,557700	0,360067	2020-10-29T19:27:03:902
-0,936784	2,067171	0,958272	2020-10-29T19:27:03:918
-0,819864	1,523343	1,877436	2020-10-29T19:27:03:940
-0,533712	1,073872	2,316279	2020-10-29T19:27:03:958
-0,147397	0,632341	2,300573	2020-10-29T19:27:03:982
-0,154702	0,763892	2,049722	2020-10-29T19:27:03:997
-0,220915	0,803027	2,040405	2020-10-29T19:27:04:021
-0,069011	0,847863	2,187070	2020-10-29T19:27:04:037
0,245131	0,791596	2,367169	2020-10-29T19:27:04:062
0,729229	0,684074	2,721953	2020-10-29T19:27:04:078
1,206223	0,804484	3,095163	2020-10-29T19:27:04:102
2,094868	0,964026	3,384033	2020-10-29T19:27:04:118
2,870698	1,273291	3,409216	2020-10-29T19:27:04:142
3,522239	1,796776	3,138389	2020-10-29T19:27:04:158
4,295800	2,391033	2,577410	2020-10-29T19:27:04:181
5,477702	2,466692	2,426121	2020-10-29T19:27:04:198
5,702051	2,019305	2,813893	2020-10-29T19:27:04:222
5,395915	1,407774	3,019507	2020-10-29T19:27:04:238
5,128011	1,243748	2,960871	2020-10-29T19:27:04:261
4,619963	1,296281	3,005418	2020-10-29T19:27:04:278
3,797159	1,267772	3,340559	2020-10-29T19:27:04:301
2,726501	1,068165	3,797578	2020-10-29T19:27:04:318
2,622193	1,407629	3,796701	2020-10-29T19:27:04:342
4,047053	1,627678	2,894358	2020-10-29T19:27:04:358
4,839211	3,356374	1,636426	2020-10-29T19:27:04:382
5,404605	4,248575	1,170469	2020-10-29T19:27:04:399
5,841116	3,383952	0,789364	2020-10-29T19:27:04:421
5,297895	3,490598	0,688253	2020-10-29T19:27:04:438
4,502141	3,970241	0,821499	2020-10-29T19:27:04:462
3,633097	4,499030	0,954111	2020-10-29T19:27:04:478
2,874766	4,724864	1,093713	2020-10-29T19:27:04:501
2,269607	5,028735	1,415691	2020-10-29T19:27:04:518
2,373825	4,965711	1,450117	2020-10-29T19:27:04:542
2,504350	5,086759	1,509396	2020-10-29T19:27:04:558
2,821995	5,304782	1,402771	2020-10-29T19:27:04:582
2,969950	5,275785	1,410117	2020-10-29T19:27:04:598
3,098301	5,166380	1,406200	2020-10-29T19:27:04:622
3,235998	4,984333	1,480677	2020-10-29T19:27:04:638
3,401676	4,687268	1,483920	2020-10-29T19:27:04:661
3,614049	4,428372	1,554038	2020-10-29T19:27:04:678
3,548567	3,937981	1,665005	2020-10-29T19:27:04:702
3,611694	3,473695	1,732894	2020-10-29T19:27:04:719
3,664904	3,172737	1,722584	2020-10-29T19:27:04:741
3,764780	3,045822	1,486564	2020-10-29T19:27:04:758
3,724678	2,982172	1,298923	2020-10-29T19:27:04:782
3,568223	2,908077	1,178765	2020-10-29T19:27:04:799
3,272148	2,708956	1,078107	2020-10-29T19:27:04:823
3,165117	2,729760	0,877045	2020-10-29T19:27:04:838
4,240788	2,852033	0,288983	2020-10-29T19:27:04:862
4,383093	2,286105	0,042306	2020-10-29T19:27:04:879
3,501574	1,757902	0,373379	2020-10-29T19:27:04:901
2,889657	1,182223	0,718328	2020-10-29T19:27:04:919
1,593752	0,844866	1,359833	2020-10-29T19:27:04:942
0,057597	0,652384	1,875015	2020-10-29T19:27:04:958
-0,771052	0,574950	2,107408	2020-10-29T19:27:04:982
-1,286489	0,708481	2,100415	2020-10-29T19:27:04:999
-1,614638	1,206055	1,763728	2020-10-29T19:27:05:028
-1,065826	1,971988	1,281551	2020-10-29T19:27:05:039
0,390322	2,924109	0,809865	2020-10-29T19:27:05:063
1,777333	3,742886	0,601497	2020-10-29T19:27:05:078
2,229561	4,029131	0,468498	2020-10-29T19:27:05:103
2,190139	2,860623	0,116674	2020-10-29T19:27:05:119
2,076919	2,121802	0,155290	2020-10-29T19:27:05:142
1,968407	2,158949	0,319336	2020-10-29T19:27:05:159
1,436857	2,987228	0,705191	2020-10-29T19:27:05:184
0,424693	3,013549	1,143078	2020-10-29T19:27:05:198
-0,037626	2,936777	1,294615	2020-10-29T19:27:05:222
0,035974	3,536548	1,458166	2020-10-29T19:27:05:239
0,373924	4,409865	1,698741	2020-10-29T19:27:05:263
0,598449	4,368908	1,808959	2020-10-29T19:27:05:279
0,879230	3,676050	1,700675	2020-10-29T19:27:05:303
1,060943	3,006327	1,691214	2020-10-29T19:27:05:319
1,317272	2,594311	1,642747	2020-10-29T19:27:05:343
1,284289	2,558995	1,623254	2020-10-29T19:27:05:359
1,095615	2,668756	1,418885	2020-10-29T19:27:05:382
1,199936	2,907867	1,563389	2020-10-29T19:27:05:399
1,773571	2,954696	1,623722	2020-10-29T19:27:05:423
2,388695	3,014934	1,538824	2020-10-29T19:27:05:439
2,842186	3,129914	1,107852	2020-10-29T19:27:05:462
2,805790	3,338077	0,593237	2020-10-29T19:27:05:480
1,822589	3,197541	-0,035067	2020-10-29T19:27:05:503
0,831549	2,395638	-0,658179	2020-10-29T19:27:05:519
1,916610	1,847637	-0,862619	2020-10-29T19:27:05:544
3,725910	1,160416	-0,352209	2020-10-29T19:27:05:559
2,688209	-0,051492	0,026064	2020-10-29T19:27:05:584
1,388905	-0,288381	-0,280218	2020-10-29T19:27:05:599
1,517827	-0,298971	-0,267268	2020-10-29T19:27:05:622
0,358972	-0,262434	0,094603	2020-10-29T19:27:05:639
-1,048481	-0,107558	0,230860	2020-10-29T19:27:05:663
-1,918847	-0,010772	-0,020157	2020-10-29T19:27:05:679
-1,295272	-0,143345	-0,396182	2020-10-29T19:27:05:702
0,826080	-0,049870	-1,123073	2020-10-29T19:27:05:720
2,591996	-0,377073	-1,880966	2020-10-29T19:27:05:744
3,602446	-0,834924	-2,564090	2020-10-29T19:27:05:760
3,658031	-0,775447	-2,995837	2020-10-29T19:27:05:783
2,870927	0,009263	-3,396678	2020-10-29T19:27:05:798
1,742931	0,554368	-3,287473	2020-10-29T19:27:05:824
0,745147	1,195598	-2,731705	2020-10-29T19:27:05:840
-0,068705	1,519623	-2,196570	2020-10-29T19:27:05:862
-0,791583	1,751113	-1,827396	2020-10-29T19:27:05:880
-1,101439	1,816057	-1,861967	2020-10-29T19:27:05:903
-1,107397	1,467191	-1,908592	2020-10-29T19:27:05:919
-0,922335	1,459226	-1,958426	2020-10-29T19:27:05:943
-0,685323	1,375348	-1,930054	2020-10-29T19:27:05:960
-0,656844	1,312666	-1,944931	2020-10-29T19:27:05:984
-0,340289	1,309441	-2,040266	2020-10-29T19:27:06:000
0,181240	1,406918	-2,063976	2020-10-29T19:27:06:024
0,606127	1,303892	-1,977543	2020-10-29T19:27:06:039
1,014474	1,363288	-1,922449	2020-10-29T19:27:06:063
2,163328	1,320160	-2,073100	2020-10-29T19:27:06:080
3,429317	1,073294	-2,322458	2020-10-29T19:27:06:103
2,212647	0,365414	-1,946175	2020-10-29T19:27:06:119
0,528469	-0,402442	-0,782229	2020-10-29T19:27:06:143
1,397516	2,601923	-0,061405	2020-10-29T19:27:06:160
1,287935	2,135477	0,768396	2020-10-29T19:27:06:184
0,508779	2,568030	0,395522	2020-10-29T19:27:06:200
-0,923044	2,820464	0,112768	2020-10-29T19:27:06:224
-0,205371	2,531915	-0,141000	2020-10-29T19:27:06:240
2,276784	2,238852	-0,259193	2020-10-29T19:27:06:264
3,871656	1,310261	-0,611144	2020-10-29T19:27:06:280
4,319207	2,326327	-1,338537	2020-10-29T19:27:06:304
4,724675	3,983508	-2,410376	2020-10-29T19:27:06:321
4,812388	5,145038	-2,945916	2020-10-29T19:27:06:343
4,172600	5,619514	-2,644595	2020-10-29T19:27:06:360
3,572872	5,805768	-2,070095	2020-10-29T19:27:06:384
3,290268	4,988238	-2,002790	2020-10-29T19:27:06:400
3,194432	4,385581	-2,386859	2020-10-29T19:27:06:423
3,613883	4,117505	-3,037047	2020-10-29T19:27:06:440
4,433619	3,953462	-4,943124	2020-10-29T19:27:06:465
3,758844	3,934320	-5,057980	2020-10-29T19:27:06:480
5,384850	3,579601	-6,088883	2020-10-29T19:27:06:506
5,626525	3,438424	-6,679911	2020-10-29T19:27:06:520
5,688408	3,484332	-7,567718	2020-10-29T19:27:06:544
6,078160	4,385496	-7,274423	2020-10-29T19:27:06:560
7,079239	5,395524	-6,282947	2020-10-29T19:27:06:583
8,667324	4,083039	11,781753	2020-10-29T19:27:06:600
8,135067	3,298628	11,612154	2020-10-29T19:27:06:624
7,496665	1,709816	10,041092	2020-10-29T19:27:06:640
6,919868	0,219352	8,767526	2020-10-29T19:27:06:664
7,872247	0,680881	7,823296	2020-10-29T19:27:06:680
8,964436	1,755445	8,446149	2020-10-29T19:27:06:704
8,936167	1,270353	9,299065	2020-10-29T19:27:06:720
9,678944	0,223006	9,455633	2020-10-29T19:27:06:744
10,262988	-0,467507	9,676377	2020-10-29T19:27:06:760
10,081785	0,135269	9,367999	2020-10-29T19:27:06:786
8,986804	1,138035	9,358587	2020-10-29T19:27:06:800
8,253878	2,019667	8,891597	2020-10-29T19:27:06:824
7,835659	2,961179	8,588734	2020-10-29T19:27:06:841
7,528588	3,415601	8,649299	2020-10-29T19:27:06:865
7,428047	3,577383	9,139323	2020-10-29T19:27:06:881
6,507727	4,527608	8,688957	2020-10-29T19:27:06:904
5,804236	4,635285	8,743993	2020-10-29T19:27:06:921
5,864555	4,566250	8,841560	2020-10-29T19:27:06:944
5,888739	5,812799	8,274704	2020-10-29T19:27:06:961
5,919743	4,989419	7,923307	2020-10-29T19:27:06:985
7,032334	2,767568	9,427704	2020-10-29T19:27:07:001
7,809874	3,993118	10,631218	2020-10-29T19:27:07:026
7,894124	4,575510	11,617949	2020-10-29T19:27:07:041
8,205061	3,030856	12,153419	2020-10-29T19:27:07:064
8,684841	2,453961	11,959786	2020-10-29T19:27:07:081
8,005831	3,153691	10,914986	2020-10-29T19:27:07:105
8,292563	3,413436	10,064913	2020-10-29T19:27:07:120
1,285984	-0,307700	6,129993	2020-10-29T19:27:07:144
1,653654	-0,284066	6,019210	2020-10-29T19:27:07:161
1,579647	-0,600979	6,138746	2020-10-29T19:27:07:185
1,905071	-0,342554	6,916414	2020-10-29T19:27:07:201
1,611090	1,635958	6,365642	2020-10-29T19:27:07:225
1,866535	2,479744	5,977360	2020-10-29T19:27:07:240
1,566327	2,898422	5,808983	2020-10-29T19:27:07:265
1,042911	2,557835	6,494944	2020-10-29T19:27:07:281
0,319258	1,955467	6,960995	2020-10-29T19:27:07:304
-0,306851	1,810333	6,846222	2020-10-29T19:27:07:321
-0,652532	1,281523	6,231164	2020-10-29T19:27:07:345
-0,849958	0,858179	6,161739	2020-10-29T19:27:07:361
-1,209299	0,954108	5,954441	2020-10-29T19:27:07:384
-1,665144	1,608850	5,584719	2020-10-29T19:27:07:401
-1,576540	0,825080	6,358044	2020-10-29T19:27:07:425
0,046546	-1,021487	9,125069	2020-10-29T19:27:07:441
1,859972	-3,336493	13,378720	2020-10-29T19:27:07:465
-2,672033	-0,594318	14,819200	2020-10-29T19:27:07:481
-4,328885	1,111645	8,068563	2020-10-29T19:27:07:504
-5,370015	0,791946	4,331277	2020-10-29T19:27:07:521
-6,936685	0,378308	3,463317	2020-10-29T19:27:07:544
-8,570983	-0,408931	4,647765	2020-10-29T19:27:07:561
-9,713608	-0,889928	5,239279	2020-10-29T19:27:07:585
-9,445258	2,469357	4,144730	2020-10-29T19:27:07:601
-8,815971	4,227295	3,194163	2020-10-29T19:27:07:625
-8,369639	5,182138	2,863736	2020-10-29T19:27:07:642
-8,167322	4,459290	2,500015	2020-10-29T19:27:08:132
-7,898250	3,558230	2,715828	2020-10-29T19:27:08:157
-6,886868	1,569931	2,639444	2020-10-29T19:27:08:159
-6,148493	0,276496	2,329874	2020-10-29T19:27:08:173
-5,922376	-0,594597	2,440005	2020-10-29T19:27:08:174
-5,790789	-0,606766	2,741052	2020-10-29T19:27:08:180
-5,229738	0,426029	3,257814	2020-10-29T19:27:08:180
-4,666527	0,347190	3,781638	2020-10-29T19:27:08:181
-4,296617	0,596901	4,062421	2020-10-29T19:27:08:182
-3,805753	0,016597	3,995243	2020-10-29T19:27:08:182
-3,452546	-0,337913	3,344916	2020-10-29T19:27:08:183
-4,091331	0,019234	2,932025	2020-10-29T19:27:08:183
-4,524563	-0,190051	2,333861	2020-10-29T19:27:08:184
-4,510652	-0,757670	2,438482	2020-10-29T19:27:08:184
-4,698805	-0,675474	2,519634	2020-10-29T19:27:08:184
-4,657395	-0,432522	2,740821	2020-10-29T19:27:08:185
-4,913057	-0,278728	2,564863	2020-10-29T19:27:08:189
-5,102721	-0,164783	2,822431	2020-10-29T19:27:08:190
-5,247344	-0,313897	3,008228	2020-10-29T19:27:08:190
-5,048934	-0,321664	3,152241	2020-10-29T19:27:08:195
-5,094234	-0,412237	2,982975	2020-10-29T19:27:08:206
-4,941403	-0,378166	2,749907	2020-10-29T19:27:08:206
-4,724168	-0,498881	2,784239	2020-10-29T19:27:08:207
-4,469452	-0,384026	2,621764	2020-10-29T19:27:08:208
-4,387132	-0,275485	2,559157	2020-10-29T19:27:08:208
-4,109263	-0,356053	2,412794	2020-10-29T19:27:08:209
-3,942735	-0,425331	2,255597	2020-10-29T19:27:08:209
-3,846125	-0,302703	1,921066	2020-10-29T19:27:08:212
-3,660881	-0,209638	1,724027	2020-10-29T19:27:08:294
-3,493864	0,000482	1,435683	2020-10-29T19:27:08:294
-3,314202	0,030555	1,251864	2020-10-29T19:27:08:309
-3,052183	0,155502	1,040946	2020-10-29T19:27:08:343
-2,949461	0,175501	0,870245	2020-10-29T19:27:08:343
-2,752951	0,038909	0,666389	2020-10-29T19:27:08:344
0,620772	-0,421410	-0,211142	2020-10-29T19:27:08:345
0,773584	-0,918313	-0,032223	2020-10-29T19:27:08:361
0,630614	-0,827367	-0,007225	2020-10-29T19:27:08:384
0,507294	-0,759670	0,052249	2020-10-29T19:27:08:403
0,488363	-0,685351	0,099488	2020-10-29T19:27:08:423
0,437571	-0,470725	0,167103	2020-10-29T19:27:08:441
0,308883	-0,431720	0,089049	2020-10-29T19:27:08:471
0,187555	-0,305183	-0,130909	2020-10-29T19:27:08:482
0,035187	-0,110032	-0,092648	2020-10-29T19:27:08:509
0,083260	0,009040	-0,106933	2020-10-29T19:27:08:523
0,113304	0,050195	-0,116421	2020-10-29T19:27:08:545
0,142460	0,015520	-0,199357	2020-10-29T19:27:08:561
0,084437	-0,012886	-0,231127	2020-10-29T19:27:08:583
0,144993	-0,059879	-0,232669	2020-10-29T19:27:08:602
0,160120	-0,188874	-0,171332	2020-10-29T19:27:08:626
0,174236	-0,288506	-0,079486	2020-10-29T19:27:08:643
0,055015	-0,236409	-0,075453	2020-10-29T19:27:08:849
0,112968	-0,291271	0,016948	2020-10-29T19:27:08:850
0,077821	-0,220428	-0,006587	2020-10-29T19:27:08:850
0,065611	-0,165402	0,002843	2020-10-29T19:27:08:868
0,101201	-0,150390	0,030053	2020-10-29T19:27:08:869
0,120344	-0,145604	0,039624	2020-10-29T19:27:08:870
0,091294	-0,020111	-0,107874	2020-10-29T19:27:08:870
0,112183	0,010542	-0,166263	2020-10-29T19:27:08:873
0,016177	0,001950	-0,067358	2020-10-29T19:27:08:875
0,092299	-0,064889	-0,098112	2020-10-29T19:27:08:876
0,049574	-0,147795	-0,110936	2020-10-29T19:27:08:876
0,114130	-0,244435	0,023705	2020-10-29T19:27:08:882
0,061233	-0,212478	-0,126075	2020-10-29T19:27:08:906
-0,045301	-0,152934	-0,095736	2020-10-29T19:27:08:922
0,001397	-0,120821	-0,099132	2020-10-29T19:27:08:946
-0,021412	0,072193	-0,153000	2020-10-29T19:27:08:962
0,064588	0,020706	-0,196105	2020-10-29T19:27:08:987
0,165086	0,042242	-0,093213	2020-10-29T19:27:09:080
0,168323	0,095338	-0,174302	2020-10-29T19:27:09:085
0,035881	0,001328	-0,170100	2020-10-29T19:27:09:086
0,076860	0,013028	-0,053244	2020-10-29T19:27:09:087
0,167523	-0,083518	-0,018671	2020-10-29T19:27:09:088
0,129706	-0,192987	0,061026	2020-10-29T19:27:09:113
0,208031	-0,357338	-0,400620	2020-10-29T19:27:09:123
-0,208528	-0,002707	-0,540593	2020-10-29T19:27:09:147
-0,392420	-0,056548	-0,221099	2020-10-29T19:27:09:170
-0,225147	-0,157314	0,119522	2020-10-29T19:27:09:191
-0,176051	0,145592	0,083284	2020-10-29T19:27:09:204
-0,006472	0,200383	0,079415	2020-10-29T19:27:09:230
0,250450	-0,030703	0,118972	2020-10-29T19:27:09:243
0,412467	-0,168805	-0,065423	2020-10-29T19:27:09:265
0,221450	-0,064068	-0,119602	2020-10-29T19:27:09:284
0,207443	-0,169838	-0,204312	2020-10-29T19:27:09:305
0,097677	-0,201865	-0,080400	2020-10-29T19:27:09:324
0,178389	-0,162041	0,025922	2020-10-29T19:27:09:348
0,007356	-0,553885	-0,150074	2020-10-29T19:27:09:364
-0,559545	-0,905296	-0,163400	2020-10-29T19:27:09:390
-0,920217	-1,048300	-0,214317	2020-10-29T19:27:09:405
-1,069028	-0,355098	0,107143	2020-10-29T19:27:09:428
-1,014444	0,231514	0,329782	2020-10-29T19:27:09:442
-0,962852	0,480286	0,128152	2020-10-29T19:27:09:467
-0,801463	-0,250733	-0,026349	2020-10-29T19:27:09:483
-0,669577	-0,722347	-0,076376	2020-10-29T19:27:09:507
-0,464604	-0,582505	-0,213321	2020-10-29T19:27:09:524
-0,535431	0,218879	-0,478968	2020-10-29T19:27:09:547
-0,720123	1,303844	-0,825173	2020-10-29T19:27:09:565
-0,606955	1,163273	-0,436189	2020-10-29T19:27:09:588
-0,880434	1,281414	-0,731350	2020-10-29T19:27:09:606
-0,443867	0,427515	0,618534	2020-10-29T19:27:09:628
0,634538	1,359010	2,476263	2020-10-29T19:27:09:643
-2,366576	0,324333	2,088146	2020-10-29T19:27:09:668
-3,374336	0,083135	0,446959	2020-10-29T19:27:09:683
-3,668493	-0,450341	0,398168	2020-10-29T19:27:09:706
-3,281474	-0,346648	0,841303	2020-10-29T19:27:09:726
-2,388285	-0,268186	1,665757	2020-10-29T19:27:09:748
-1,343730	-1,404667	1,274364	2020-10-29T19:27:09:763
1,013245	-0,276556	0,030321	2020-10-29T19:27:09:786
1,533158	0,011728	-0,005243	2020-10-29T19:27:09:805
1,096902	-0,946649	-1,324848	2020-10-29T19:27:09:827
1,491132	-1,148019	-2,232882	2020-10-29T19:27:09:845
1,232848	-2,191902	-1,283438	2020-10-29T19:27:09:869
0,965147	-1,194480	-0,101815	2020-10-29T19:27:09:883
1,194850	-0,114172	-0,018212	2020-10-29T19:27:09:907
1,620314	0,175640	-0,937859	2020-10-29T19:27:09:925
1,532073	0,719058	-1,729252	2020-10-29T19:27:09:948
1,808938	-1,710541	-2,712249	2020-10-29T19:27:09:963
2,238226	-2,289764	-3,175819	2020-10-29T19:27:09:988
2,276242	-1,082566	-3,004234	2020-10-29T19:27:10:008
2,113886	-0,634664	-2,257545	2020-10-29T19:27:10:032
2,631608	-0,395133	-2,016020	2020-10-29T19:27:10:047
3,341918	0,126925	-1,797255	2020-10-29T19:27:10:072
3,903254	1,236350	-1,731520	2020-10-29T19:27:10:085
4,607448	1,330527	-1,175517	2020-10-29T19:27:10:119
4,754886	0,998964	-0,756162	2020-10-29T19:27:10:256
4,570443	0,930207	-0,233107	2020-10-29T19:27:10:256
4,717148	0,483457	-0,400304	2020-10-29T19:27:10:257
4,946143	-1,359554	-0,708722	2020-10-29T19:27:10:257
4,214227	-2,245680	-1,395020	2020-10-29T19:27:10:258
2,332233	-1,793592	-1,732942	2020-10-29T19:27:10:306
1,063871	-0,631289	-2,346913	2020-10-29T19:27:10:307
0,483726	0,943785	-2,751305	2020-10-29T19:27:10:307
0,299953	1,439515	-2,620534	2020-10-29T19:27:10:308
0,133245	1,794129	-2,473355	2020-10-29T19:27:10:308
-0,304458	1,640862	-2,457342	2020-10-29T19:27:10:322
-0,809764	1,619039	-2,541764	2020-10-29T19:27:10:346
-0,923358	0,837949	-2,533494	2020-10-29T19:27:10:364
-0,828396	-0,214602	-2,436307	2020-10-29T19:27:10:388
-0,926512	-0,825381	-1,903034	2020-10-29T19:27:10:413
-1,095032	-1,036342	-1,312035	2020-10-29T19:27:10:518
-1,303407	-0,752206	-0,858545	2020-10-29T19:27:10:520
-1,622911	-0,371074	-0,642801	2020-10-29T19:27:10:520
-1,923806	0,022161	-0,584398	2020-10-29T19:27:10:540
-2,289952	0,321443	-0,465825	2020-10-29T19:27:10:541
-2,361479	0,239052	-0,415686	2020-10-29T19:27:10:542
-2,328315	-0,062185	-0,593963	2020-10-29T19:27:10:547
-2,120174	-0,384545	-0,709194	2020-10-29T19:27:10:564
-1,906504	-0,871925	-0,578777	2020-10-29T19:27:10:591
-1,841933	-1,382383	-0,348383	2020-10-29T19:27:10:603
-0,767582	1,327371	-0,436242	2020-10-29T19:27:10:627
-0,144250	1,751095	-0,513025	2020-10-29T19:27:10:643
0,228319	2,317799	-0,775701	2020-10-29T19:27:10:669
0,619962	2,669732	-0,945013	2020-10-29T19:27:10:694
0,982323	3,204248	-0,918518	2020-10-29T19:27:10:720
1,463755	3,370736	-0,804771	2020-10-29T19:27:10:775
1,823895	3,457850	-0,513390	2020-10-29T19:27:10:776
1,944490	3,622654	-0,415361	2020-10-29T19:27:10:776
2,065786	3,562556	-0,390898	2020-10-29T19:27:10:794
2,051453	3,502761	-0,262252	2020-10-29T19:27:10:805
1,934832	3,427782	-0,104729	2020-10-29T19:27:10:837
1,702693	3,308778	0,048994	2020-10-29T19:27:10:844
1,671507	3,196719	-0,018327	2020-10-29T19:27:10:868
1,769989	3,572598	-0,177981	2020-10-29T19:27:10:884
2,033486	3,520359	-0,123734	2020-10-29T19:27:10:908
2,611238	3,286124	0,082700	2020-10-29T19:27:10:925
3,125072	3,205913	-0,058138	2020-10-29T19:27:10:949
3,337748	3,371563	-0,560985	2020-10-29T19:27:10:965
2,948192	3,828194	-0,778592	2020-10-29T19:27:10:988
2,763162	3,842852	-0,439260	2020-10-29T19:27:11:005
3,250778	3,704749	-0,228096	2020-10-29T19:27:11:029
3,232122	3,668448	-0,495723	2020-10-29T19:27:11:045
2,791443	3,336795	-0,627052	2020-10-29T19:27:11:070
2,937405	3,430115	-0,765836	2020-10-29T19:27:11:085
2,910063	3,586411	-0,879404	2020-10-29T19:27:11:109
2,487262	3,674133	-0,937315	2020-10-29T19:27:11:125
2,038838	3,660089	-0,877799	2020-10-29T19:27:11:148
1,488724	3,404713	-0,715535	2020-10-29T19:27:11:165
0,829261	3,121459	-0,696695	2020-10-29T19:27:11:189
-0,448865	-0,131301	-0,606102	2020-10-29T19:27:11:205
0,382526	0,688620	-0,750670	2020-10-29T19:27:11:286
2,755285	3,938547	-0,990221	2020-10-29T19:27:11:287
3,547747	4,672811	-0,739065	2020-10-29T19:27:11:288
3,051673	4,171577	-0,445973	2020-10-29T19:27:11:288
2,893340	4,289553	-0,346693	2020-10-29T19:27:11:311
2,653588	4,660434	-0,295254	2020-10-29T19:27:11:325
2,465646	4,798157	-0,139738	2020-10-29T19:27:11:352
2,039723	4,843620	-0,154095	2020-10-29T19:27:11:365
1,552227	4,872032	-0,081073	2020-10-29T19:27:11:389
-1,744807	0,524641	-0,260706	2020-10-29T19:27:11:405
-2,165872	0,888311	-0,169334	2020-10-29T19:27:11:430
-2,467075	1,523547	-0,500872	2020-10-29T19:27:11:445
-2,396197	2,100868	-0,653401	2020-10-29T19:27:11:468
-2,172390	2,048924	-0,428233	2020-10-29T19:27:11:486
-1,485638	1,555765	-0,158594	2020-10-29T19:27:11:509
-0,544990	1,069020	-0,061406	2020-10-29T19:27:11:526
0,280062	0,376946	-0,020893	2020-10-29T19:27:11:549
1,419595	-0,441768	-0,054540	2020-10-29T19:27:11:565
2,945148	-0,748871	-0,440673	2020-10-29T19:27:11:589
4,683433	-0,684942	-0,783615	2020-10-29T19:27:11:606
5,464885	-0,739560	-0,651274	2020-10-29T19:27:11:629
4,853218	-0,283554	-0,659987	2020-10-29T19:27:11:645
3,557273	0,749998	-0,376835	2020-10-29T19:27:11:677
-1,109612	6,280640	4,285667	2020-10-29T19:27:17:099
-0,717005	5,992458	2,968329	2020-10-29T19:27:17:110
-0,802573	5,140527	2,495613	2020-10-29T19:27:17:125
-0,494862	4,649261	2,805734	2020-10-29T19:27:17:145
0,465914	3,846577	2,692686	2020-10-29T19:27:17:154
1,264861	2,692158	2,581407	2020-10-29T19:27:17:171
1,770690	2,033821	0,881576	2020-10-29T19:27:17:196
2,822858	0,979744	-0,725992	2020-10-29T19:27:17:214
4,250356	-0,692267	-2,120112	2020-10-29T19:27:17:236
3,555111	-3,092640	-1,881966	2020-10-29T19:27:17:252
2,438158	-5,112403	1,199120	2020-10-29T19:27:17:276
2,462111	-6,428071	4,532146	2020-10-29T19:27:17:292
2,580866	-7,055195	6,153471	2020-10-29T19:27:17:317
1,939410	-6,456355	5,905904	2020-10-29T19:27:17:332
1,444101	-5,536667	5,490122	2020-10-29T19:27:17:358
1,139598	-5,352414	4,793472	2020-10-29T19:27:17:372
1,172904	-5,031035	3,052702	2020-10-29T19:27:17:395
0,316017	-4,939492	1,362979	2020-10-29T19:27:17:412
-0,373609	-4,892644	-0,405814	2020-10-29T19:27:17:436
-0,644294	-3,563358	-1,740110	2020-10-29T19:27:17:452
-0,263680	-2,816945	-1,756890	2020-10-29T19:27:17:475
0,390791	-2,095982	-1,123213	2020-10-29T19:27:17:492
1,234478	-1,081755	-0,112800	2020-10-29T19:27:17:516
2,326653	0,293716	0,854417	2020-10-29T19:27:17:532
2,290895	1,677460	1,566008	2020-10-29T19:27:17:556
1,065193	2,649203	1,826379	2020-10-29T19:27:17:572
0,263235	3,944886	1,651822	2020-10-29T19:27:17:596
0,306790	5,117199	1,334989	2020-10-29T19:27:17:613
0,719337	4,850559	0,608686	2020-10-29T19:27:17:635
0,825750	4,089845	0,143666	2020-10-29T19:27:17:652
0,791611	3,784441	-0,098871	2020-10-29T19:27:17:677
0,629453	2,758314	-0,075247	2020-10-29T19:27:17:693
0,209511	1,437615	-0,001302	2020-10-29T19:27:17:715
-0,072872	0,036283	0,086526	2020-10-29T19:27:17:733
-0,152902	-0,876889	0,283154	2020-10-29T19:27:17:757
-0,032172	-1,187623	0,452437	2020-10-29T19:27:17:773
0,268397	-0,951881	0,387357	2020-10-29T19:27:17:797
0,271242	-0,471057	0,537573	2020-10-29T19:27:17:812
0,069511	-0,007735	0,823878	2020-10-29T19:27:17:837
0,295367	0,582316	0,752617	2020-10-29T19:27:17:853
0,891568	1,346572	0,755104	2020-10-29T19:27:17:875
1,414165	2,061076	0,613648	2020-10-29T19:27:17:893
2,241555	2,688884	0,161125	2020-10-29T19:27:17:917
4,230246	3,021258	-0,527378	2020-10-29T19:27:17:933
5,256740	2,757754	-1,058613	2020-10-29T19:27:17:956
3,200199	1,577108	-0,278457	2020-10-29T19:27:17:972
1,924360	1,051635	0,923512	2020-10-29T19:27:17:997
0,971976	0,532542	2,182223	2020-10-29T19:27:18:013
-0,341649	-0,146782	2,536753	2020-10-29T19:27:18:038
-1,419684	-0,548350	2,241201	2020-10-29T19:27:18:053
-1,828206	-0,863646	1,765002	2020-10-29T19:27:18:076
-2,280658	-1,012102	1,427090	2020-10-29T19:27:18:093
-3,036103	-0,817859	1,588683	2020-10-29T19:27:18:116
-2,106705	2,423853	1,596090	2020-10-29T19:27:18:133
0,252845	3,304083	0,666676	2020-10-29T19:27:18:157
1,761796	3,801455	0,075297	2020-10-29T19:27:18:173
3,115185	4,132974	-0,285100	2020-10-29T19:27:18:196
3,984437	4,102706	-0,070591	2020-10-29T19:27:18:213
3,980188	3,928429	0,649997	2020-10-29T19:27:18:237
3,246469	4,136675	1,418071	2020-10-29T19:27:18:253
2,262737	4,412417	1,833233	2020-10-29T19:27:18:277
1,189687	4,845282	1,701096	2020-10-29T19:27:18:293
0,170276	5,245784	1,350911	2020-10-29T19:27:18:317
-0,267090	5,409700	1,099231	2020-10-29T19:27:18:333
0,057673	5,859455	0,886393	2020-10-29T19:27:18:358
0,490774	5,809206	0,541826	2020-10-29T19:27:18:373
0,912746	5,677108	0,295290	2020-10-29T19:27:18:397
0,981181	5,328524	0,253371	2020-10-29T19:27:18:413
1,091913	4,967895	0,430517	2020-10-29T19:27:18:436
1,107885	4,424733	0,536662	2020-10-29T19:27:18:453
0,993843	3,692667	0,950932	2020-10-29T19:27:18:477
1,170912	3,345708	1,443854	2020-10-29T19:27:18:493
1,171165	1,999738	2,079162	2020-10-29T19:27:18:519
1,640158	0,710007	2,325622	2020-10-29T19:27:18:533
1,778516	-0,037519	2,425473	2020-10-29T19:27:18:559
2,252295	-0,930041	2,523579	2020-10-29T19:27:18:573
2,006583	-1,835552	2,256810	2020-10-29T19:27:18:596
1,251015	-1,047722	1,808032	2020-10-29T19:27:18:614
1,404374	0,457170	1,709198	2020-10-29T19:27:18:638
4,161148	1,413237	1,789591	2020-10-29T19:27:18:654
4,322898	0,055006	1,362035	2020-10-29T19:27:18:676
2,434953	0,604953	0,702914	2020-10-29T19:27:18:693
2,062432	1,003164	0,175384	2020-10-29T19:27:18:717
2,505880	1,507875	0,554886	2020-10-29T19:27:18:733
2,145176	0,940915	1,063395	2020-10-29T19:27:18:758
1,229290	0,865726	0,696414	2020-10-29T19:27:18:773
0,441191	3,629062	-0,014347	2020-10-29T19:27:18:798
0,960433	4,473729	-0,150738	2020-10-29T19:27:18:814
2,411046	4,184871	-0,177916	2020-10-29T19:27:18:836
3,577764	4,618832	-0,299647	2020-10-29T19:27:18:853
4,133469	4,849790	-0,164609	2020-10-29T19:27:18:877
4,431900	4,920347	-0,317185	2020-10-29T19:27:18:893
4,519336	5,003568	-0,491386	2020-10-29T19:27:18:917
4,342901	5,109118	-0,416703	2020-10-29T19:27:18:934
3,880489	5,094154	-0,373690	2020-10-29T19:27:18:957
3,153744	5,131842	-0,262296	2020-10-29T19:27:18:973
2,287735	5,134768	-0,020396	2020-10-29T19:27:18:998
1,953043	5,299553	0,175978	2020-10-29T19:27:19:014
1,914721	5,484568	0,385095	2020-10-29T19:27:19:037
2,136153	5,536269	0,523528	2020-10-29T19:27:19:053
2,369743	5,648898	0,647892	2020-10-29T19:27:19:077
2,305137	5,641719	0,631142	2020-10-29T19:27:19:094
2,275962	5,653495	0,662736	2020-10-29T19:27:19:118
2,210886	5,712480	0,649766	2020-10-29T19:27:19:134
2,246252	5,783391	0,624758	2020-10-29T19:27:19:157
2,393759	5,691909	0,550177	2020-10-29T19:27:19:174
2,414429	5,280631	0,618380	2020-10-29T19:27:19:198
2,455885	5,042671	0,784272	2020-10-29T19:27:19:214
2,259438	4,431060	0,886854	2020-10-29T19:27:19:240
3,185461	3,828068	0,836605	2020-10-29T19:27:19:255
4,075917	3,631948	0,476408	2020-10-29T19:27:19:278
4,126173	2,827912	0,384956	2020-10-29T19:27:19:294
3,672924	2,427950	0,388925	2020-10-29T19:27:19:317
5,399432	1,994858	0,025041	2020-10-29T19:27:19:334
5,661768	1,235908	-0,182553	2020-10-29T19:27:19:358
4,447447	0,317966	-0,123304	2020-10-29T19:27:19:374
3,537343	-0,232319	-0,387274	2020-10-29T19:27:19:397
1,887565	-1,023476	-0,124488	2020-10-29T19:27:19:414
0,397319	-0,783157	0,625225	2020-10-29T19:27:19:439
-0,698593	-0,330914	0,787937	2020-10-29T19:27:19:455
-1,061502	0,524026	0,809985	2020-10-29T19:27:19:478
-1,353386	1,072267	1,125948	2020-10-29T19:27:19:494
-1,212357	1,524943	1,313513	2020-10-29T19:27:19:518
-0,696106	1,962084	1,272945	2020-10-29T19:27:19:534
0,174300	2,388532	1,152415	2020-10-29T19:27:19:558
1,185908	2,616243	1,088728	2020-10-29T19:27:19:574
2,077347	2,768256	1,060660	2020-10-29T19:27:19:598
2,823220	3,103062	1,006513	2020-10-29T19:27:19:614
3,522344	3,221758	1,237490	2020-10-29T19:27:19:637
3,767942	3,191437	1,628912	2020-10-29T19:27:19:655
3,747777	3,227800	2,343466	2020-10-29T19:27:19:679
3,101714	3,416833	3,068491	2020-10-29T19:27:19:694
2,441695	3,213021	3,885183	2020-10-29T19:27:19:719
2,300992	3,202271	4,658682	2020-10-29T19:27:19:734
2,158408	3,752492	4,316854	2020-10-29T19:27:19:766
2,084605	4,496587	3,653810	2020-10-29T19:27:19:775
2,166978	4,604217	3,907701	2020-10-29T19:27:19:797
2,764757	4,332870	4,970072	2020-10-29T19:27:19:814
3,422446	3,775024	4,907166	2020-10-29T19:27:19:839
3,270514	3,242703	4,017753	2020-10-29T19:27:19:855
2,610480	2,739661	3,538239	2020-10-29T19:27:19:878
2,208656	2,993607	2,740167	2020-10-29T19:27:19:895
2,001483	3,483240	1,955231	2020-10-29T19:27:19:919
2,282040	3,408515	1,494798	2020-10-29T19:27:19:935
2,460492	3,485058	1,300290	2020-10-29T19:27:19:959
3,007792	3,286210	1,247874	2020-10-29T19:27:19:974
3,398873	2,997814	1,305284	2020-10-29T19:27:19:999
3,118237	2,516930	1,527995	2020-10-29T19:27:20:015
2,628412	2,460946	1,173470	2020-10-29T19:27:20:038
3,485578	2,558188	0,821764	2020-10-29T19:27:20:055
4,974144	2,088852	0,569913	2020-10-29T19:27:20:079
4,332664	1,480075	0,626973	2020-10-29T19:27:20:095
3,395563	1,245800	0,343354	2020-10-29T19:27:20:119
3,467396	1,476816	-0,206341	2020-10-29T19:27:20:136
3,362383	2,027655	-0,423371	2020-10-29T19:27:20:160
2,564671	2,281769	-0,582526	2020-10-29T19:27:20:175
0,413482	1,142710	-0,555283	2020-10-29T19:27:20:200
-1,376300	-0,014742	-0,463057	2020-10-29T19:27:20:215
-1,780406	-0,208695	-0,429681	2020-10-29T19:27:20:239
-0,393506	-0,220993	-0,861750	2020-10-29T19:27:20:255
1,268443	-0,320818	-1,328800	2020-10-29T19:27:20:278
2,336984	-0,703970	-1,763649	2020-10-29T19:27:20:295
2,749632	-0,925544	-2,072706	2020-10-29T19:27:20:319
1,933877	-0,695886	-2,489159	2020-10-29T19:27:20:335
1,012291	-0,123027	-2,384760	2020-10-29T19:27:20:359
0,242078	0,240329	-2,096140	2020-10-29T19:27:20:375
-0,324940	0,800334	-1,712694	2020-10-29T19:27:20:399
-0,833146	0,913827	-1,470517	2020-10-29T19:27:20:415
-0,755075	1,333776	-1,599098	2020-10-29T19:27:20:440
-0,307616	0,998781	-1,960414	2020-10-29T19:27:20:455
0,299078	0,856463	-2,177984	2020-10-29T19:27:20:479
0,745556	0,742321	-2,077252	2020-10-29T19:27:20:495
0,810728	0,807598	-1,851623	2020-10-29T19:27:20:518
1,454757	1,429456	-1,597590	2020-10-29T19:27:20:535
2,374069	2,722461	-1,741631	2020-10-29T19:27:20:560
1,653008	2,729327	-1,499843	2020-10-29T19:27:20:575
1,148858	2,558421	-0,901856	2020-10-29T19:27:20:599
0,878448	1,621069	0,081648	2020-10-29T19:27:20:616
1,330671	1,813122	-0,553714	2020-10-29T19:27:20:639
2,183192	2,761145	-1,970582	2020-10-29T19:27:20:656
2,153288	2,942394	-2,076180	2020-10-29T19:27:20:680
0,428479	2,851201	-0,658440	2020-10-29T19:27:20:695
1,672220	6,064746	1,208768	2020-10-29T19:27:20:719
0,881311	5,367398	1,932145	2020-10-29T19:27:20:735
0,289349	4,620461	2,638139	2020-10-29T19:27:20:758
1,252716	4,208378	2,838629	2020-10-29T19:27:20:775
2,924930	4,040515	2,393953	2020-10-29T19:27:20:799
3,956160	4,487434	1,722960	2020-10-29T19:27:20:816
4,070573	5,004371	1,047447	2020-10-29T19:27:20:839
1,345548	1,199811	0,100044	2020-10-29T19:27:20:856
2,880382	4,847222	-0,546738	2020-10-29T19:27:20:880
2,363655	5,392988	-0,493894	2020-10-29T19:27:20:895
1,346647	5,113519	-0,232849	2020-10-29T19:27:20:920
0,639711	4,348863	0,252590	2020-10-29T19:27:20:935
0,140428	3,250703	0,701117	2020-10-29T19:27:20:960
0,076591	2,482105	1,039003	2020-10-29T19:27:20:976
0,108971	1,628811	1,043185	2020-10-29T19:27:20:999
0,299420	0,967844	0,836511	2020-10-29T19:27:21:016
0,558518	0,254175	0,726011	2020-10-29T19:27:21:040
0,831300	0,414494	0,745154	2020-10-29T19:27:21:056
0,735365	0,391090	0,680715	2020-10-29T19:27:21:079
0,413447	0,415417	0,281182	2020-10-29T19:27:21:096
0,216398	0,689661	-0,054323	2020-10-29T19:27:21:120
0,254244	1,147576	-0,215484	2020-10-29T19:27:21:136
0,547589	1,322947	-0,431509	2020-10-29T19:27:21:160
0,759092	1,322311	-0,826517	2020-10-29T19:27:21:176
1,318591	1,076139	-1,094190	2020-10-29T19:27:21:200
1,876885	0,780525	-1,144367	2020-10-29T19:27:21:216
1,081336	0,410696	-0,956993	2020-10-29T19:27:21:239
-0,264450	0,340688	-1,263601	2020-10-29T19:27:21:256
-0,278197	0,670231	-1,921692	2020-10-29T19:27:21:280
0,662994	1,028381	-2,604028	2020-10-29T19:27:21:295
1,136332	1,810649	-3,043841	2020-10-29T19:27:21:320
1,342113	2,107359	-3,010342	2020-10-29T19:27:21:336
1,757758	2,151299	-2,972231	2020-10-29T19:27:21:360
1,685231	2,158433	-3,133567	2020-10-29T19:27:21:376
1,620047	1,798614	-3,198185	2020-10-29T19:27:21:400
1,403256	1,757279	-3,696308	2020-10-29T19:27:21:416
1,154843	1,763783	-4,008050	2020-10-29T19:27:21:440
0,612983	1,951409	-3,906160	2020-10-29T19:27:21:456
0,170980	2,083406	-3,698707	2020-10-29T19:27:21:479
-0,188828	2,246149	-3,661542	2020-10-29T19:27:21:496
-0,430012	2,570118	-3,751598	2020-10-29T19:27:21:520
-0,510141	2,753557	-4,020870	2020-10-29T19:27:21:535
0,177636	3,088236	-4,204971	2020-10-29T19:27:21:560
0,442870	3,480731	-4,306895	2020-10-29T19:27:21:576
-0,076192	3,789214	-4,034306	2020-10-29T19:27:21:600
-0,137632	3,887865	-3,267330	2020-10-29T19:27:21:617
0,705595	4,644448	-2,913528	2020-10-29T19:27:21:641
1,193731	4,697091	-2,516319	2020-10-29T19:27:21:656
1,271190	5,034813	-2,814001	2020-10-29T19:27:21:682
1,325743	5,578018	-2,737885	2020-10-29T19:27:21:696
1,828582	6,003348	-2,618504	2020-10-29T19:27:21:720
2,761081	6,180707	-2,356216	2020-10-29T19:27:21:736
3,403782	6,042917	-1,782417	2020-10-29T19:27:21:762
3,580852	6,018989	-1,868558	2020-10-29T19:27:21:776
3,615609	5,882366	-1,764525	2020-10-29T19:27:21:799
3,743921	5,683979	-1,483817	2020-10-29T19:27:21:817
3,548346	5,596205	-0,997935	2020-10-29T19:27:21:840
3,163635	5,629738	-0,988708	2020-10-29T19:27:21:857
2,990459	5,522626	-1,121460	2020-10-29T19:27:21:882
2,985592	5,528848	-1,128087	2020-10-29T19:27:21:896
-0,325747	1,862627	0,719549	2020-10-29T19:27:21:921
-1,117599	2,166092	0,546885	2020-10-29T19:27:21:937
-1,778356	2,454998	-0,004008	2020-10-29T19:27:21:960
-2,232518	2,664749	-0,594591	2020-10-29T19:27:21:976
-2,262006	2,537552	-0,483447	2020-10-29T19:27:22:001
-0,999859	1,983831	-0,790198	2020-10-29T19:27:22:017
0,627098	0,910533	-1,484590	2020-10-29T19:27:22:041
2,599297	-0,765227	-1,823143	2020-10-29T19:27:22:057
3,456764	-1,675028	-2,081112	2020-10-29T19:27:22:081
2,637111	-2,351628	-2,079085	2020-10-29T19:27:22:097
1,781951	-4,343773	-1,095412	2020-10-29T19:27:22:123
2,499509	-5,719612	-0,162345	2020-10-29T19:27:22:137
3,883660	-6,423908	-0,459282	2020-10-29T19:27:22:162
4,584757	-7,467179	-3,644129	2020-10-29T19:27:22:177
3,372400	-22,656630	21,040657	2020-10-29T19:27:22:200
3,424826	-17,024792	16,549833	2020-10-29T19:27:22:217
-3,585806	-5,904008	10,345987	2020-10-29T19:27:22:241
-5,708905	-13,772341	7,466620	2020-10-29T19:27:22:257
-9,464290	-5,170069	1,156883	2020-10-29T19:27:22:280
-10,474468	-1,803346	-0,371638	2020-10-29T19:27:22:297
-1,585753	-4,785738	-2,466160	2020-10-29T19:27:22:321
-0,948174	2,053027	-4,139226	2020-10-29T19:27:22:337
-2,670845	3,824200	-3,436178	2020-10-29T19:27:22:362
-2,436455	1,785279	-3,149064	2020-10-29T19:27:22:377
-3,378425	4,768633	-3,849150	2020-10-29T19:27:22:402
-4,172866	6,455165	-4,512482	2020-10-29T19:27:22:417
-5,357435	6,611982	-4,948046	2020-10-29T19:27:22:440
-5,958382	5,131475	-4,291023	2020-10-29T19:27:22:457
-5,763700	4,015934	-4,362320	2020-10-29T19:27:22:481
-5,632549	3,908988	-2,851296	2020-10-29T19:27:22:497
-4,853791	2,687700	0,471826	2020-10-29T19:27:22:521
-3,641537	4,129777	1,790490	2020-10-29T19:27:22:537
-1,924309	4,416328	2,746596	2020-10-29T19:27:22:561
-0,150349	4,482118	2,360076	2020-10-29T19:27:22:577
4,553270	-3,076465	2,373912	2020-10-29T19:27:22:601
0,830293	-4,669964	2,874244	2020-10-29T19:27:22:617
-1,501487	-6,972073	4,251593	2020-10-29T19:27:22:641
-1,720787	-7,004667	3,286223	2020-10-29T19:27:22:657
-2,060390	-5,348713	1,877273	2020-10-29T19:27:22:681
-3,719309	-0,797901	1,844537	2020-10-29T19:27:22:698
-5,429319	3,721784	0,756376	2020-10-29T19:27:22:722
-4,452178	4,734456	-1,175785	2020-10-29T19:27:22:737
-3,413563	5,199511	-1,774927	2020-10-29T19:27:22:761
-4,260580	5,333549	-2,143886	2020-10-29T19:27:23:152
-4,706372	7,606142	-2,878178	2020-10-29T19:27:23:152
-2,974213	5,162868	-2,491019	2020-10-29T19:27:23:153
-1,439722	-5,038593	4,612748	2020-10-29T19:27:23:153
-3,497187	-1,776102	8,189427	2020-10-29T19:27:23:154
-2,710659	-0,236997	5,769362	2020-10-29T19:27:23:155
-5,214185	7,758467	5,778359	2020-10-29T19:27:23:156
-4,126399	9,082168	3,558400	2020-10-29T19:27:23:156
-4,182220	5,891983	3,526563	2020-10-29T19:27:23:157
-4,266545	5,792088	4,232631	2020-10-29T19:27:23:168
-3,680686	6,510024	4,389144	2020-10-29T19:27:23:169
-2,847983	6,835448	4,348466	2020-10-29T19:27:23:169
-2,325958	6,797747	4,883545	2020-10-29T19:27:23:170
-2,183238	5,864352	4,481360	2020-10-29T19:27:23:170
-1,619738	5,497840	3,374449	2020-10-29T19:27:23:171
-1,343682	4,082179	2,658765	2020-10-29T19:27:23:171
-1,370736	3,990655	2,738674	2020-10-29T19:27:23:172
-2,275583	4,066068	1,976491	2020-10-29T19:27:23:172
-3,311535	3,975445	1,979039	2020-10-29T19:27:23:172
-3,776383	1,999655	1,616317	2020-10-29T19:27:23:173
-2,660378	1,972046	0,952757	2020-10-29T19:27:23:179
-3,043143	2,220419	-0,184565	2020-10-29T19:27:23:200
-3,059874	2,204029	-0,497859	2020-10-29T19:27:23:217
-2,807073	1,615858	-0,376240	2020-10-29T19:27:23:242
-2,648565	2,537958	0,494129	2020-10-29T19:27:23:276
-2,219307	2,451403	0,608642	2020-10-29T19:27:23:280
-2,123633	3,265728	0,923584	2020-10-29T19:27:23:298
-2,066645	3,127173	0,603353	2020-10-29T19:27:23:321
-2,033921	2,811891	0,301137	2020-10-29T19:27:23:341
-2,037401	3,912230	0,670209	2020-10-29T19:27:23:392
-2,602096	3,561787	0,708093	2020-10-29T19:27:23:393
-2,791285	3,272491	0,500990	2020-10-29T19:27:23:422
-2,621068	3,190176	0,878737	2020-10-29T19:27:23:423
-2,245955	7,318166	2,732910	2020-10-29T19:27:23:441
-2,222027	7,112383	3,053548	2020-10-29T19:27:23:457
-1,971663	-8,406851	4,595723	2020-10-29T19:27:23:481
-0,920736	-0,456432	-0,076735	2020-10-29T19:27:23:500
-0,265498	0,554529	-0,463036	2020-10-29T19:27:23:521
-0,437938	0,990932	-0,576622	2020-10-29T19:27:23:537
-0,786224	0,827569	0,379809	2020-10-29T19:27:23:568
-0,749979	0,193618	0,176910	2020-10-29T19:27:23:577
-0,118866	0,257414	-0,079026	2020-10-29T19:27:23:607
-0,277864	0,413981	-0,464557	2020-10-29T19:27:23:617
-0,648756	1,574615	-1,116323	2020-10-29T19:27:23:640
-0,513689	2,386782	-1,218885	2020-10-29T19:27:23:657
-0,224185	2,214097	-0,229789	2020-10-29T19:27:23:681
-0,529830	0,448979	0,510780	2020-10-29T19:27:23:698
-0,338229	-1,615383	0,777251	2020-10-29T19:27:23:723
-0,735438	-3,070219	0,485326	2020-10-29T19:27:23:738
-0,855200	-2,832058	-0,138139	2020-10-29T19:27:23:765
-0,334775	-3,004778	-0,114154	2020-10-29T19:27:23:783
-0,219433	-3,592941	0,228594	2020-10-29T19:27:23:805
0,194525	-3,724545	-0,283470	2020-10-29T19:27:23:819
0,240442	-2,819045	-0,552237	2020-10-29T19:27:23:843
-0,127295	-1,856789	-0,046607	2020-10-29T19:27:23:860
-0,038567	-1,486869	0,255084	2020-10-29T19:27:23:925
0,426341	-1,621722	0,506909	2020-10-29T19:27:23:927
0,425902	-1,828268	0,637488	2020-10-29T19:27:23:927
-0,006630	-1,118465	0,053268	2020-10-29T19:27:23:944
-0,603536	-0,070400	-0,778238	2020-10-29T19:27:23:963
-0,797278	0,783332	-0,818637	2020-10-29T19:27:23:981
-0,949753	0,582616	-0,329832	2020-10-29T19:27:24:035
-0,934107	0,161257	0,115584	2020-10-29T19:27:24:036
-0,727572	0,118550	0,197300	2020-10-29T19:27:24:044
-0,345998	-0,167055	0,105028	2020-10-29T19:27:24:059
-0,448345	0,217215	-0,456828	2020-10-29T19:27:24:095
-0,771132	-0,057517	-0,512597	2020-10-29T19:27:24:101
-0,639722	-0,510267	-0,444912	2020-10-29T19:27:24:122
-0,016450	-0,131312	-0,769523	2020-10-29T19:27:24:138
0,402364	-0,327871	-1,073498	2020-10-29T19:27:24:165
0,277801	-0,590424	-1,024235	2020-10-29T19:27:24:179
-0,328310	-1,494979	-1,169842	2020-10-29T19:27:24:202
-0,578481	-1,560825	-1,110329	2020-10-29T19:27:24:219
-0,799960	-1,847834	-0,553327	2020-10-29T19:27:24:242
-0,459273	-2,278263	-0,036976	2020-10-29T19:27:24:259
0,163060	-3,088164	0,411310	2020-10-29T19:27:24:283
0,242092	-4,508008	0,859858	2020-10-29T19:27:24:300
0,106819	-5,890606	1,841336	2020-10-29T19:27:24:323
0,141155	-7,160660	3,243872	2020-10-29T19:27:24:339
0,489794	-7,967918	4,809333	2020-10-29T19:27:24:362
0,899956	-8,471802	6,235679	2020-10-29T19:27:24:380
2,980120	-3,836129	-0,458557	2020-10-29T19:27:24:403
3,099266	4,469367	-0,547894	2020-10-29T19:27:24:419
3,535221	4,255859	-0,340419	2020-10-29T19:27:24:442
4,302950	2,738532	-0,259117	2020-10-29T19:27:24:459
2,603465	4,317640	-0,200436	2020-10-29T19:27:24:484
2,415895	3,029087	-0,254163	2020-10-29T19:27:24:501
2,697270	2,073572	-0,929926	2020-10-29T19:27:24:527
3,216513	2,157320	-1,626237	2020-10-29T19:27:24:539
3,138183	2,674361	-2,545345	2020-10-29T19:27:24:564
2,726742	2,892274	-2,608170	2020-10-29T19:27:24:581
2,200595	3,511659	-2,122029	2020-10-29T19:27:24:602
2,130324	3,526965	-1,906664	2020-10-29T19:27:24:621
2,336106	3,409973	-2,052267	2020-10-29T19:27:24:644
2,571685	3,388724	-1,890471	2020-10-29T19:27:24:664
2,293189	3,136803	-1,687650	2020-10-29T19:27:24:683
2,631113	3,008873	-1,983554	2020-10-29T19:27:24:702
3,392432	2,621890	-2,713101	2020-10-29T19:27:24:723
3,885025	1,984355	-4,113478	2020-10-29T19:27:24:740
3,820975	2,319701	-4,326614	2020-10-29T19:27:24:767
3,903852	2,514218	-4,084539	2020-10-29T19:27:24:780
3,216062	2,591615	-4,304228	2020-10-29T19:27:24:895
2,819046	4,506326	-3,647001	2020-10-29T19:27:24:904
2,766965	4,047528	-4,134009	2020-10-29T19:27:24:931
6,291749	0,615078	0,707562	2020-10-29T19:27:24:931
6,877286	1,628435	5,351909	2020-10-29T19:27:24:932
4,074012	-0,175531	-0,273427	2020-10-29T19:27:24:933
1,011563	0,249959	-1,756803	2020-10-29T19:27:24:933
0,779881	1,688498	0,032336	2020-10-29T19:27:25:015
2,507499	2,340740	-1,229464	2020-10-29T19:27:25:015
2,345012	2,522954	-3,483825	2020-10-29T19:27:25:018
0,495853	2,170603	-4,694488	2020-10-29T19:27:25:018
1,137748	1,656753	-2,365150	2020-10-29T19:27:25:023
2,751173	0,221670	-2,568053	2020-10-29T19:27:25:042
1,779697	1,274876	-4,319724	2020-10-29T19:27:25:059
2,373673	1,500256	-4,237183	2020-10-29T19:27:25:082
2,014284	1,372589	-4,142452	2020-10-29T19:27:25:099
2,660973	1,562722	-5,847453	2020-10-29T19:27:25:130
0,038481	0,097664	1,636652	2020-10-29T19:27:25:181
0,872336	-1,048048	3,960989	2020-10-29T19:27:25:183
1,177290	-0,373430	-0,372841	2020-10-29T19:27:25:195
0,726922	-0,000720	-1,474360	2020-10-29T19:27:25:206
0,805886	1,097585	-1,531788	2020-10-29T19:27:25:221
3,896190	4,862458	-2,953985	2020-10-29T19:27:25:242
3,903369	5,259667	-3,351193	2020-10-29T19:27:25:259
4,519237	4,703176	-4,515957	2020-10-29T19:27:25:285
4,221665	5,023548	-4,177434	2020-10-29T19:27:25:300
3,568216	4,856369	-3,061386	2020-10-29T19:27:25:325
4,298027	4,526159	-2,963281	2020-10-29T19:27:25:340
5,312497	3,567336	-2,860761	2020-10-29T19:27:25:365
5,317635	2,772079	-3,962676	2020-10-29T19:27:25:391
5,748323	1,681730	-4,781610	2020-10-29T19:27:25:404
5,992392	2,404362	-4,647612	2020-10-29T19:27:25:428
4,137996	3,254903	-4,845292	2020-10-29T19:27:25:473
2,641942	5,525060	-5,307438	2020-10-29T19:27:25:476
1,912023	7,854790	-6,163612	2020-10-29T19:27:25:487
1,067400	7,920207	-6,435614	2020-10-29T19:27:25:513
1,283333	5,406558	-6,883334	2020-10-29T19:27:25:526
2,025905	4,749191	-7,872227	2020-10-29T19:27:25:540
1,723378	5,456304	-8,622222	2020-10-29T19:27:25:563
0,664513	6,041717	-8,412484	2020-10-29T19:27:25:581
0,140620	6,230839	-7,311460	2020-10-29T19:27:25:605
0,227262	5,530810	-5,495635	2020-10-29T19:27:25:621
0,380709	5,140738	-4,119020	2020-10-29T19:27:25:644
0,066179	5,296246	-4,529484	2020-10-29T19:27:25:662
0,074732	5,808767	-3,715366	2020-10-29T19:27:25:685
0,421639	6,060974	-2,853633	2020-10-29T19:27:25:700
0,504245	5,985285	-2,585487	2020-10-29T19:27:25:725
0,412850	6,012451	-2,934735	2020-10-29T19:27:25:743
0,845923	6,491729	-3,057194	2020-10-29T19:27:25:765
1,029315	6,468220	-2,642180	2020-10-29T19:27:25:783
0,883144	6,279255	-2,516604	2020-10-29T19:27:25:817
-7,598016	3,594351	4,595437	2020-10-29T19:27:29:105
-6,977186	3,803410	5,528111	2020-10-29T19:27:29:107
-5,560347	5,175511	5,537026	2020-10-29T19:27:29:118
-5,340207	4,567735	6,317087	2020-10-29T19:27:29:466
-5,037958	4,771344	6,786954	2020-10-29T19:27:29:466
-3,989773	5,699252	7,817896	2020-10-29T19:27:29:467
-2,454233	6,214301	10,035168	2020-10-29T19:27:29:467
-0,649961	7,044914	10,860073	2020-10-29T19:27:29:468
1,245502	8,547216	9,902596	2020-10-29T19:27:29:469
2,067602	9,863038	9,666830	2020-10-29T19:27:29:471
0,478778	11,721783	10,391223	2020-10-29T19:27:29:471
-1,115057	11,576164	11,032158	2020-10-29T19:27:29:472
-2,014771	10,646934	9,729397	2020-10-29T19:27:29:472
-3,330824	9,728090	9,181440	2020-10-29T19:27:29:472
-4,369808	9,568747	8,963813	2020-10-29T19:27:29:473
-4,612956	8,795705	8,965984	2020-10-29T19:27:29:538
-3,989005	7,174601	8,382324	2020-10-29T19:27:29:539
-5,306332	5,103714	7,400727	2020-10-29T19:27:29:539
-9,912578	0,402906	8,389830	2020-10-29T19:27:29:539
-10,840799	1,041594	8,229347	2020-10-29T19:27:29:549
-10,075596	2,634166	7,162780	2020-10-29T19:27:29:552
-9,706144	3,244165	5,726303	2020-10-29T19:27:29:553
-9,713074	2,001181	6,450906	2020-10-29T19:27:29:556
-8,081131	3,350700	6,608658	2020-10-29T19:27:29:558
-6,254461	5,106993	5,607336	2020-10-29T19:27:29:559
-5,073780	5,191144	4,952928	2020-10-29T19:27:29:594
-3,910543	5,227765	5,338615	2020-10-29T19:27:29:597
-2,268465	6,409765	5,674826	2020-10-29T19:27:29:644
-1,670696	6,381321	4,897670	2020-10-29T19:27:29:647
-1,461133	6,736567	4,940829	2020-10-29T19:27:29:658
-0,126339	8,664654	3,665430	2020-10-29T19:27:29:678
3,098815	2,818071	4,660645	2020-10-29T19:27:29:703
3,535265	-2,191303	11,027278	2020-10-29T19:27:29:720
0,664132	-11,025101	12,222758	2020-10-29T19:27:29:804
-5,910979	2,458562	4,880436	2020-10-29T19:27:29:804
-4,770844	7,746423	0,085932	2020-10-29T19:27:29:820
-4,509918	5,706387	4,174411	2020-10-29T19:27:29:821
-5,696318	1,106812	6,889465	2020-10-29T19:27:29:822
-7,014248	-0,836857	4,106925	2020-10-29T19:27:29:836
