x	y	z	ts
-1,386579	5,963530	7,660554	2020-11-19T14:35:16:367
-1,392899	5,963088	7,659752	2020-11-19T14:35:16:367
-1,340245	5,845445	7,759181	2020-11-19T14:35:16:367
-1,345478	5,819842	7,777500	2020-11-19T14:35:16:369
-1,342828	5,799455	7,793171	2020-11-19T14:35:16:370
-1,341205	5,767505	7,817125	2020-11-19T14:35:16:370
-1,343479	5,733432	7,841760	2020-11-19T14:35:16:371
-1,362149	5,664879	7,888224	2020-11-19T14:35:16:397
-1,362626	5,661097	7,890857	2020-11-19T14:35:16:406
-1,363445	5,654592	7,895378	2020-11-19T14:35:16:406
-1,363871	5,650743	7,898060	2020-11-19T14:35:16:407
-1,362614	5,605174	7,930681	2020-11-19T14:35:16:425
-1,354856	5,555635	7,966785	2020-11-19T14:35:16:447
-1,347170	5,502619	8,004792	2020-11-19T14:35:16:465
-1,334335	5,424028	8,060389	2020-11-19T14:35:16:486
-1,337616	5,340492	8,115437	2020-11-19T14:35:16:506
-1,362343	5,254070	8,167567	2020-11-19T14:35:16:525
-1,358837	5,140117	8,240336	2020-11-19T14:35:16:546
-1,376340	5,057878	8,288181	2020-11-19T14:35:16:566
-1,366466	4,994858	8,327938	2020-11-19T14:35:16:585
-1,302152	4,961367	8,358207	2020-11-19T14:35:16:606
-1,292403	4,848832	8,425491	2020-11-19T14:35:16:625
-1,291923	4,748507	8,482512	2020-11-19T14:35:16:647
-1,254256	4,667508	8,532971	2020-11-19T14:35:16:665
-1,221562	4,571432	8,589540	2020-11-19T14:35:16:686
-1,189298	4,486175	8,638877	2020-11-19T14:35:16:705
-1,113540	4,424616	8,680621	2020-11-19T14:35:16:726
-1,085264	4,360464	8,716590	2020-11-19T14:35:16:747
-1,046399	4,210015	8,794953	2020-11-19T14:35:16:767
-0,992265	4,003538	8,897049	2020-11-19T14:35:16:786
-0,916778	3,697115	9,036661	2020-11-19T14:35:16:806
-0,821106	3,293237	9,200584	2020-11-19T14:35:16:826
-0,723572	2,807344	9,368332	2020-11-19T14:35:16:847
-0,666737	2,324148	9,503903	2020-11-19T14:35:16:866
-0,635690	1,820630	9,615175	2020-11-19T14:35:16:886
-0,619771	1,255089	9,706236	2020-11-19T14:35:16:906
-2,202289	3,299597	8,968443	2020-11-19T14:35:16:926
-2,899353	4,125219	8,411106	2020-11-19T14:35:16:946
-3,441074	5,188709	7,576721	2020-11-19T14:35:16:968
-3,729372	6,281903	6,542160	2020-11-19T14:35:16:986
-4,034944	7,279659	5,186152	2020-11-19T14:35:17:006
-3,654778	8,257824	3,823785	2020-11-19T14:35:17:025
-2,782640	9,124819	2,272659	2020-11-19T14:35:17:047
-1,594666	9,648181	0,734870	2020-11-19T14:35:17:066
-0,716123	-9,734200	0,950218	2020-11-19T14:35:17:089
-0,249655	-9,488746	2,464094	2020-11-19T14:35:17:199
0,258239	-9,048653	3,771682	2020-11-19T14:35:17:200
0,763793	-8,461308	4,898292	2020-11-19T14:35:17:200
1,230225	-7,828413	5,776927	2020-11-19T14:35:17:201
1,635154	-7,254165	6,393257	2020-11-19T14:35:17:202
2,019848	-6,762278	6,808980	2020-11-19T14:35:17:214
2,399951	-6,366164	7,062759	2020-11-19T14:35:17:235
2,659802	-6,159859	7,152061	2020-11-19T14:35:17:257
2,886356	-6,035187	7,170485	2020-11-19T14:35:17:266
3,041297	-5,984004	7,149307	2020-11-19T14:35:17:287
3,130409	-5,988602	7,106868	2020-11-19T14:35:17:306
3,174109	-6,033867	7,048962	2020-11-19T14:35:17:327
3,170549	-6,107937	6,986495	2020-11-19T14:35:17:346
3,113861	-6,202225	6,928684	2020-11-19T14:35:17:368
2,921545	-6,438787	6,795365	2020-11-19T14:35:17:387
2,720524	-6,679080	6,645226	2020-11-19T14:35:17:408
2,595567	-6,802649	6,569428	2020-11-19T14:35:17:426
2,423138	-6,934710	6,496814	2020-11-19T14:35:17:449
2,217820	-7,057783	6,437341	2020-11-19T14:35:17:467
1,980217	-7,184583	6,374237	2020-11-19T14:35:17:488
1,711959	-7,307547	6,311841	2020-11-19T14:35:17:507
1,394120	-7,427382	6,249865	2020-11-19T14:35:17:536
1,034527	-7,546599	6,176486	2020-11-19T14:35:17:547
0,651958	-7,666561	6,080228	2020-11-19T14:35:17:599
0,234110	-7,791835	5,950033	2020-11-19T14:35:17:599
-0,227629	-7,923045	5,774420	2020-11-19T14:35:17:609
-0,726762	-8,055196	5,545812	2020-11-19T14:35:17:626
-1,244573	-8,189692	5,248844	2020-11-19T14:35:17:653
-1,726107	-8,327166	4,883569	2020-11-19T14:35:17:776
-2,170080	-8,474607	4,431950	2020-11-19T14:35:17:777
-2,585075	-8,637502	3,857634	2020-11-19T14:35:17:778
-2,861488	-8,748519	3,383147	2020-11-19T14:35:17:779
-3,151572	-8,848947	2,816758	2020-11-19T14:35:17:779
-3,375696	-8,926312	2,257433	2020-11-19T14:35:17:779
-3,498586	-9,036890	1,504959	2020-11-19T14:35:17:786
-3,570221	-9,098262	0,803450	2020-11-19T14:35:17:809
-3,592802	-9,123099	0,176677	2020-11-19T14:35:17:827
-3,683422	9,088575	0,024215	2020-11-19T14:35:17:849
-4,861759	8,506180	0,422599	2020-11-19T14:35:17:867
-5,850378	7,836312	0,731894	2020-11-19T14:35:17:890
-6,447283	7,333323	0,908456	2020-11-19T14:35:17:907
-7,140632	6,632832	1,089636	2020-11-19T14:35:17:929
-7,702457	5,949392	1,203026	2020-11-19T14:35:17:948
-8,132384	5,330978	1,270975	2020-11-19T14:35:17:969
-8,469568	4,766350	1,310994	2020-11-19T14:35:17:987
-8,738002	4,256085	1,305160	2020-11-19T14:35:18:009
-8,932217	3,848932	1,253641	2020-11-19T14:35:18:027
-8,995906	3,723146	1,175692	2020-11-19T14:35:18:050
-9,088193	3,517733	1,095757	2020-11-19T14:35:18:068
-9,147181	3,387412	1,012380	2020-11-19T14:35:18:089
-9,188798	3,295588	0,935675	2020-11-19T14:35:18:107
-9,221225	3,221546	0,872376	2020-11-19T14:35:18:129
-9,256605	3,130975	0,826218	2020-11-19T14:35:18:147
-9,296338	3,019633	0,793920	2020-11-19T14:35:18:169
-9,338304	2,895254	0,764184	2020-11-19T14:35:18:188
-9,382961	2,752910	0,742905	2020-11-19T14:35:18:209
-9,428291	2,594907	0,737675	2020-11-19T14:35:18:227
-9,475650	2,411736	0,752313	2020-11-19T14:35:18:249
-9,516594	2,236896	0,775324	2020-11-19T14:35:18:267
-9,554569	2,056633	0,806757	2020-11-19T14:35:18:289
-9,593863	1,844988	0,850991	2020-11-19T14:35:18:307
-9,637652	1,574788	0,897823	2020-11-19T14:35:18:329
-9,679690	1,269019	0,929287	2020-11-19T14:35:18:348
-9,713751	0,970029	0,934064	2020-11-19T14:35:18:369
-9,737790	0,706871	0,919873	2020-11-19T14:35:18:388
-9,754163	0,483110	0,890676	2020-11-19T14:35:18:411
-9,763363	0,361466	0,846449	2020-11-19T14:35:18:429
-9,768312	0,382745	0,777151	2020-11-19T14:35:18:450
-9,767927	0,526481	0,693402	2020-11-19T14:35:18:468
-9,758902	0,758706	0,598819	2020-11-19T14:35:18:491
-9,741620	1,003558	0,513903	2020-11-19T14:35:18:507
-9,723306	1,200335	0,432336	2020-11-19T14:35:18:531
-9,709053	1,333132	0,356988	2020-11-19T14:35:18:549
-9,703177	1,388991	0,299059	2020-11-19T14:35:18:579
-9,703392	1,396333	0,254603	2020-11-19T14:35:18:588
-9,692881	1,475134	0,205983	2020-11-19T14:35:18:616
-9,689706	1,498440	0,186182	2020-11-19T14:35:18:628
-9,693954	1,470108	0,190823	2020-11-19T14:35:18:651
-9,705450	1,388359	0,216984	2020-11-19T14:35:18:671
-9,723207	1,249409	0,261950	2020-11-19T14:35:18:691
-9,747765	1,020781	0,330877	2020-11-19T14:35:18:709
-9,770350	0,736488	0,410179	2020-11-19T14:35:18:731
-9,786566	0,376298	0,501918	2020-11-19T14:35:18:749
-9,788903	-0,004083	0,589701	2020-11-19T14:35:18:771
-9,771151	-0,469865	0,688644	2020-11-19T14:35:18:789
-9,730947	-0,933814	0,779131	2020-11-19T14:35:18:810
-9,657428	-1,461255	0,877043	2020-11-19T14:35:18:829
-9,576617	-1,880839	0,959809	2020-11-19T14:35:18:851
-9,499501	-2,203455	1,036650	2020-11-19T14:35:18:868
-9,418729	-2,487446	1,127182	2020-11-19T14:35:18:891
-9,354421	-2,685127	1,206352	2020-11-19T14:35:18:909
-9,279934	-2,891084	1,301863	2020-11-19T14:35:18:930
-9,185953	-3,129734	1,411884	2020-11-19T14:35:18:948
-9,071342	-3,398216	1,527498	2020-11-19T14:35:18:970
-8,932964	-3,698126	1,642069	2020-11-19T14:35:18:988
-8,785151	-3,993806	1,743851	2020-11-19T14:35:19:010
-8,622089	-4,300029	1,827488	2020-11-19T14:35:19:028
-8,480479	-4,546894	1,891459	2020-11-19T14:35:19:051
-8,347709	-4,761790	1,952306	2020-11-19T14:35:19:068
-8,222503	-4,956843	1,997634	2020-11-19T14:35:19:090
-8,110121	-5,121790	2,040489	2020-11-19T14:35:19:108
-7,969818	-5,318141	2,090397	2020-11-19T14:35:19:130
-7,846303	-5,480639	2,137406	2020-11-19T14:35:19:149
-7,739347	-5,613308	2,182579	2020-11-19T14:35:19:170
-7,646185	-5,722979	2,225702	2020-11-19T14:35:19:188
-7,568892	-5,812173	2,258520	2020-11-19T14:35:19:210
-7,510943	-5,876359	2,285722	2020-11-19T14:35:19:228
-7,473719	-5,907060	2,328209	2020-11-19T14:35:19:251
-7,471609	-5,891262	2,374546	2020-11-19T14:35:19:268
-7,512049	-5,820161	2,421825	2020-11-19T14:35:19:290
-7,582396	-5,709784	2,464960	2020-11-19T14:35:19:309
-7,678039	-5,565670	2,498285	2020-11-19T14:35:19:330
-7,837438	-5,325521	2,526614	2020-11-19T14:35:19:348
-8,012580	-5,050504	2,541921	2020-11-19T14:35:19:371
-8,162779	-4,809946	2,530583	2020-11-19T14:35:19:389
-8,316071	-4,558068	2,497473	2020-11-19T14:35:19:415
-8,452654	-4,326936	2,449622	2020-11-19T14:35:19:429
-8,585728	-4,099761	2,376473	2020-11-19T14:35:19:451
-8,710804	-3,877722	2,292500	2020-11-19T14:35:19:468
-8,842963	-3,620946	2,204798	2020-11-19T14:35:19:522
-8,960820	-3,363024	2,136390	2020-11-19T14:35:19:523
-9,072834	-3,089398	2,075980	2020-11-19T14:35:19:539
-9,174820	-2,821309	2,008304	2020-11-19T14:35:19:549
-9,256141	-2,598861	1,933951	2020-11-19T14:35:19:574
-9,319113	-2,421315	1,860578	2020-11-19T14:35:19:658
-9,361071	-2,313974	1,785011	2020-11-19T14:35:19:659
-9,376762	-2,302674	1,715924	2020-11-19T14:35:19:660
-9,349136	-2,484457	1,609816	2020-11-19T14:35:19:660
-9,273088	-2,814456	1,503021	2020-11-19T14:35:19:696
-9,137017	-3,287444	1,370402	2020-11-19T14:35:19:707
-8,983190	-3,742166	1,211978	2020-11-19T14:35:19:713
-8,879522	-4,032804	1,030030	2020-11-19T14:35:19:731
-8,924644	-3,962451	0,905591	2020-11-19T14:35:19:749
-9,046091	-3,695407	0,826195	2020-11-19T14:35:19:798
-9,149386	-3,451797	0,737710	2020-11-19T14:35:19:800
-9,257684	-3,163809	0,675274	2020-11-19T14:35:19:811
-9,360234	-2,854522	0,638835	2020-11-19T14:35:19:828
-9,460038	-2,507862	0,623448	2020-11-19T14:35:19:851
-9,544593	-2,162359	0,628758	2020-11-19T14:35:19:869
-9,616021	-1,812509	0,646012	2020-11-19T14:35:19:893
-9,670560	-1,482942	0,671969	2020-11-19T14:35:19:911
-9,706842	-1,210540	0,694394	2020-11-19T14:35:19:933
-9,730235	-0,990690	0,715148	2020-11-19T14:35:19:951
-9,744475	-0,819926	0,737093	2020-11-19T14:35:19:973
-9,757699	-0,596974	0,775441	2020-11-19T14:35:19:990
-9,766384	-0,349259	0,816173	2020-11-19T14:35:20:013
-9,768956	-0,111564	0,851719	2020-11-19T14:35:20:031
-9,767363	0,073222	0,873874	2020-11-19T14:35:20:053
-9,762565	0,253800	0,893474	2020-11-19T14:35:20:070
-9,759191	0,378344	0,886254	2020-11-19T14:35:20:093
-9,762087	0,418713	0,834696	2020-11-19T14:35:20:111
-9,770121	0,394184	0,748162	2020-11-19T14:35:20:133
-9,762748	0,515404	0,770388	2020-11-19T14:35:20:151
-9,762784	0,535324	0,756212	2020-11-19T14:35:20:173
-9,769552	0,472675	0,709098	2020-11-19T14:35:20:190
-9,779949	0,352088	0,631678	2020-11-19T14:35:20:213
-9,792609	0,152651	0,501876	2020-11-19T14:35:20:231
-9,801281	-0,204737	0,251699	2020-11-19T14:35:20:253
-9,764633	-0,873773	-0,242572	2020-11-19T14:35:20:271
-9,609282	-1,739865	-0,897199	2020-11-19T14:35:20:294
-9,380456	-2,469880	-1,441221	2020-11-19T14:35:20:311
-9,015497	-3,295614	-2,007516	2020-11-19T14:35:20:333
-8,579475	-4,066633	-2,454687	2020-11-19T14:35:20:352
-8,129531	-4,734481	-2,768719	2020-11-19T14:35:20:373
-7,649920	-5,352114	-3,000663	2020-11-19T14:35:20:391
-7,183454	-5,885012	-3,151983	2020-11-19T14:35:20:413
-6,733852	-6,349415	-3,241998	2020-11-19T14:35:20:431
-6,346302	-6,727854	-3,260493	2020-11-19T14:35:20:454
-5,984814	-6,994251	-3,381247	2020-11-19T14:35:20:471
-5,688199	-7,194608	-3,471655	2020-11-19T14:35:20:494
-5,458675	-7,331425	-3,552951	2020-11-19T14:35:20:511
-5,299617	-7,411024	-3,627832	2020-11-19T14:35:20:534
-5,181746	-7,461714	-3,693605	2020-11-19T14:35:20:551
-5,101044	-7,500267	-3,727698	2020-11-19T14:35:20:576
-5,048471	-7,537164	-3,724846	2020-11-19T14:35:20:598
-5,089926	-7,587654	-3,562379	2020-11-19T14:35:20:614
-5,127434	-7,642122	-3,387887	2020-11-19T14:35:20:631
-5,165077	-7,699026	-3,196460	2020-11-19T14:35:20:654
-5,195971	-7,753219	-3,009960	2020-11-19T14:35:20:671
-5,231076	-7,801908	-2,817173	2020-11-19T14:35:20:694
-5,286546	-7,840896	-2,596760	2020-11-19T14:35:20:711
-5,372079	-7,859622	-2,353189	2020-11-19T14:35:20:734
-5,497522	-7,850859	-2,076452	2020-11-19T14:35:20:752
-5,668912	-7,800827	-1,783511	2020-11-19T14:35:20:775
-5,840716	-7,721569	-1,560062	2020-11-19T14:35:20:791
-6,069118	-7,588390	-1,323835	2020-11-19T14:35:20:814
-6,330376	-7,408791	-1,098424	2020-11-19T14:35:20:833
-6,615256	-7,183125	-0,900822	2020-11-19T14:35:20:854
-6,902519	-6,926861	-0,737712	2020-11-19T14:35:20:871
-7,198889	-6,630804	-0,615488	2020-11-19T14:35:20:894
-7,499919	-6,295046	-0,542216	2020-11-19T14:35:20:912
-7,791697	-5,933001	-0,509262	2020-11-19T14:35:20:934
-8,076602	-5,540264	-0,494333	2020-11-19T14:35:20:952
-8,338808	-5,139778	-0,466206	2020-11-19T14:35:20:974
-8,642013	-4,621562	-0,356624	2020-11-19T14:35:20:992
-8,911199	-4,088413	-0,214018	2020-11-19T14:35:21:014
-9,150813	-3,525780	-0,043364	2020-11-19T14:35:21:031
-9,354054	-2,941918	0,130992	2020-11-19T14:35:21:055
-9,460172	-2,573689	0,227273	2020-11-19T14:35:21:073
-9,540691	-2,249128	0,294986	2020-11-19T14:35:21:094
-9,611238	-1,916874	0,346505	2020-11-19T14:35:21:112
-9,668329	-1,598031	0,374285	2020-11-19T14:35:21:134
-9,710820	-1,313548	0,380717	2020-11-19T14:35:21:152
-9,737406	-1,102452	0,371376	2020-11-19T14:35:21:175
-9,752595	-0,966168	0,351835	2020-11-19T14:35:21:191
-9,764421	-0,846422	0,331709	2020-11-19T14:35:21:215
-9,772472	-0,756148	0,312093	2020-11-19T14:35:21:232
-9,791942	-0,422037	0,331888	2020-11-19T14:35:21:255
-9,797544	-0,245619	0,343801	2020-11-19T14:35:21:271
-9,797459	-0,258703	0,336536	2020-11-19T14:35:21:295
-9,792487	-0,429420	0,305243	2020-11-19T14:35:21:314
-9,774935	-0,750628	0,239977	2020-11-19T14:35:21:335
-9,726923	-1,239162	0,147753	2020-11-19T14:35:21:353
-9,635247	-1,824663	0,054762	2020-11-19T14:35:21:375
-9,490956	-2,468077	-0,026896	2020-11-19T14:35:21:392
-9,173545	-3,465081	-0,098311	2020-11-19T14:35:21:425
-8,778051	-4,369534	-0,152884	2020-11-19T14:35:21:432
-8,333595	-5,165740	-0,191584	2020-11-19T14:35:21:455
-7,984025	-5,689509	-0,234973	2020-11-19T14:35:21:472
-7,627217	-6,158790	-0,255458	2020-11-19T14:35:21:495
-7,282867	-6,562289	-0,258062	2020-11-19T14:35:21:512
-6,976761	-6,887289	-0,245860	2020-11-19T14:35:21:535
-6,704633	-7,153512	-0,213406	2020-11-19T14:35:21:553
-6,491394	-7,350132	-0,088008	2020-11-19T14:35:21:585
-6,374381	-7,452060	0,066708	2020-11-19T14:35:21:592
-6,364266	-7,457106	0,240973	2020-11-19T14:35:21:615
-6,459247	-7,366114	0,434606	2020-11-19T14:35:21:632
-6,745411	-7,086342	0,673481	2020-11-19T14:35:21:655
-7,201729	-6,589770	0,938304	2020-11-19T14:35:21:672
-7,530363	-6,183422	1,108745	2020-11-19T14:35:21:695
-7,774579	-5,849677	1,227836	2020-11-19T14:35:21:713
-8,004445	-5,504239	1,342609	2020-11-19T14:35:21:735
-8,177970	-5,216815	1,440843	2020-11-19T14:35:21:753
-8,261092	-5,058795	1,527528	2020-11-19T14:35:21:775
-8,291580	-4,980856	1,615909	2020-11-19T14:35:21:793
-8,305345	-4,932452	1,691907	2020-11-19T14:35:21:815
-8,295484	-4,921089	1,771502	2020-11-19T14:35:21:833
-8,269813	-4,929732	1,865027	2020-11-19T14:35:21:856
-8,235976	-4,944307	1,973045	2020-11-19T14:35:21:872
-8,186918	-4,982069	2,079360	2020-11-19T14:35:21:896
-8,122996	-5,047363	2,170584	2020-11-19T14:35:21:912
-8,051444	-5,124249	2,255373	2020-11-19T14:35:21:935
-7,967022	-5,216669	2,341646	2020-11-19T14:35:21:953
-7,877102	-5,318162	2,416363	2020-11-19T14:35:21:976
-7,799244	-5,422780	2,436316	2020-11-19T14:35:21:993
-7,703457	-5,556628	2,439470	2020-11-19T14:35:22:016
-7,570004	-5,724833	2,468141	2020-11-19T14:35:22:033
-7,447230	-5,873135	2,493077	2020-11-19T14:35:22:056
-7,352490	-5,981290	2,517032	2020-11-19T14:35:22:073
-7,280883	-6,058105	2,541356	2020-11-19T14:35:22:096
-7,227172	-6,114980	2,558396	2020-11-19T14:35:22:112
-7,192344	-6,153267	2,564738	2020-11-19T14:35:22:136
-7,177745	-6,169842	2,565817	2020-11-19T14:35:22:153
-7,181467	-6,162889	2,572103	2020-11-19T14:35:22:176
-7,209981	-6,123981	2,585231	2020-11-19T14:35:22:193
-7,260854	-6,057376	2,599727	2020-11-19T14:35:22:216
-7,328860	-5,969626	2,611850	2020-11-19T14:35:22:233
-7,407044	-5,870292	2,616439	2020-11-19T14:35:22:256
-7,486943	-5,771585	2,608617	2020-11-19T14:35:22:274
-7,576759	-5,663936	2,585138	2020-11-19T14:35:22:296
-7,678637	-5,546548	2,538649	2020-11-19T14:35:22:313
-7,782527	-5,431427	2,470274	2020-11-19T14:35:22:336
-7,928538	-5,254419	2,387416	2020-11-19T14:35:22:353
-8,082431	-5,044143	2,324075	2020-11-19T14:35:22:376
-8,256125	-4,789697	2,250686	2020-11-19T14:35:22:393
-8,414973	-4,556708	2,143599	2020-11-19T14:35:22:417
-8,586770	-4,289751	2,008929	2020-11-19T14:35:22:433
-8,778599	-3,967667	1,834177	2020-11-19T14:35:22:457
-8,922165	-3,703641	1,687721	2020-11-19T14:35:22:473
-9,080071	-3,381658	1,512309	2020-11-19T14:35:22:497
-9,218472	-3,060525	1,350311	2020-11-19T14:35:22:514
-9,330844	-2,761611	1,216238	2020-11-19T14:35:22:536
-9,404330	-2,521977	1,169869	2020-11-19T14:35:22:553
-9,455752	-2,329716	1,153931	2020-11-19T14:35:22:577
-9,495244	-2,166700	1,147233	2020-11-19T14:35:22:593
-9,535087	-2,004281	1,111471	2020-11-19T14:35:22:616
-9,574997	-1,816065	1,091661	2020-11-19T14:35:22:633
-9,617082	-1,623878	1,022320	2020-11-19T14:35:22:657
-9,653657	-1,470457	0,902800	2020-11-19T14:35:22:673
-9,674760	-1,391712	0,795329	2020-11-19T14:35:22:696
-9,684034	-1,363915	0,727737	2020-11-19T14:35:22:713
-9,693795	-1,328854	0,659447	2020-11-19T14:35:22:737
-9,697021	-1,335829	0,594737	2020-11-19T14:35:22:754
-9,692098	-1,393092	0,541229	2020-11-19T14:35:22:776
-9,683905	-1,466483	0,491738	2020-11-19T14:35:22:793
-9,676151	-1,530092	0,448665	2020-11-19T14:35:22:817
-9,670629	-1,572135	0,421574	2020-11-19T14:35:22:833
-9,674965	-1,551144	0,399235	2020-11-19T14:35:22:857
-9,683852	-1,495576	0,395773	2020-11-19T14:35:22:873
-9,695483	-1,417280	0,399137	2020-11-19T14:35:22:897
-9,704892	-1,348529	0,408564	2020-11-19T14:35:22:914
-9,710510	-1,302425	0,424336	2020-11-19T14:35:22:936
-9,708199	-1,306471	0,463033	2020-11-19T14:35:22:953
-9,699132	-1,352488	0,517684	2020-11-19T14:35:22:977
-9,685845	-1,419109	0,583880	2020-11-19T14:35:22:994
-9,667823	-1,505251	0,661669	2020-11-19T14:35:23:016
-9,644741	-1,606402	0,754206	2020-11-19T14:35:23:033
-9,612029	-1,734841	0,877269	2020-11-19T14:35:23:058
-9,588020	-1,816730	0,969400	2020-11-19T14:35:23:073
-9,561991	-1,891825	1,076899	2020-11-19T14:35:23:098
-9,532891	-1,958570	1,207633	2020-11-19T14:35:23:113
-9,502216	-2,011135	1,354106	2020-11-19T14:35:23:139
-9,463984	-2,071259	1,520940	2020-11-19T14:35:23:154
-9,423390	-2,132497	1,680048	2020-11-19T14:35:23:177
-9,371989	-2,204964	1,863959	2020-11-19T14:35:23:193
-9,304088	-2,302350	2,074494	2020-11-19T14:35:23:218
-9,222860	-2,419485	2,292448	2020-11-19T14:35:23:234
-9,132249	-2,541568	2,512537	2020-11-19T14:35:23:257
-9,029670	-2,655802	2,753572	2020-11-19T14:35:23:274
-8,916797	-2,747562	3,018612	2020-11-19T14:35:23:297
-8,797005	-2,812876	3,297093	2020-11-19T14:35:23:313
-8,676085	-2,856420	3,568867	2020-11-19T14:35:23:337
-8,549978	-2,894547	3,832735	2020-11-19T14:35:23:354
-8,427665	-2,944730	4,058746	2020-11-19T14:35:23:377
-8,302026	-3,027630	4,252082	2020-11-19T14:35:23:394
-8,248862	-3,158708	4,260190	2020-11-19T14:35:23:417
-8,183126	-3,345296	4,244504	2020-11-19T14:35:23:433
-8,099436	-3,588077	4,206570	2020-11-19T14:35:23:458
-7,992372	-3,873199	4,158210	2020-11-19T14:35:23:475
-7,872326	-4,173850	4,095832	2020-11-19T14:35:23:497
-7,692444	-4,470755	4,124202	2020-11-19T14:35:23:514
-7,517889	-4,743711	4,141128	2020-11-19T14:35:23:537
-7,346355	-4,978108	4,173713	2020-11-19T14:35:23:554
-7,197716	-5,137041	4,239584	2020-11-19T14:35:23:577
-7,074317	-5,253389	4,304223	2020-11-19T14:35:23:594
-6,989408	-5,337834	4,338904	2020-11-19T14:35:23:617
-6,924587	-5,428832	4,329926	2020-11-19T14:35:23:634
-6,884367	-5,514595	4,285455	2020-11-19T14:35:23:657
-6,871572	-5,575827	4,226351	2020-11-19T14:35:23:674
-6,887095	-5,605978	4,160687	2020-11-19T14:35:23:698
-6,929678	-5,616366	4,075092	2020-11-19T14:35:23:715
-7,005318	-5,582590	3,991315	2020-11-19T14:35:23:737
-7,122976	-5,496826	3,901091	2020-11-19T14:35:23:754
-7,336655	-5,295402	3,781878	2020-11-19T14:35:23:778
-7,536201	-5,111684	3,639608	2020-11-19T14:35:23:794
-7,765241	-4,870669	3,485399	2020-11-19T14:35:23:817
-8,018036	-4,590536	3,287624	2020-11-19T14:35:23:835
-8,264358	-4,315902	3,040358	2020-11-19T14:35:23:859
-8,496013	-4,053128	2,749602	2020-11-19T14:35:23:877
-8,705427	-3,785611	2,460705	2020-11-19T14:35:23:897
-8,898659	-3,492060	2,188556	2020-11-19T14:35:23:914
-9,068218	-3,181460	1,953487	2020-11-19T14:35:23:938
-9,225315	-2,834762	1,740137	2020-11-19T14:35:23:956
-9,364718	-2,463386	1,550537	2020-11-19T14:35:23:977
-9,494761	-2,041925	1,360310	2020-11-19T14:35:23:994
-9,599417	-1,623366	1,177399	2020-11-19T14:35:24:018
-9,677311	-1,236733	0,995249	2020-11-19T14:35:24:034
-9,726311	-0,948402	0,818415	2020-11-19T14:35:24:058
-9,759223	-0,713372	0,647335	2020-11-19T14:35:24:074
-9,779586	-0,531891	0,497171	2020-11-19T14:35:24:098
-9,791037	-0,409340	0,372049	2020-11-19T14:35:24:115
-9,796372	-0,348420	0,282966	2020-11-19T14:35:24:137
-9,799937	-0,302333	0,200504	2020-11-19T14:35:24:155
-9,803690	-0,212460	0,113597	2020-11-19T14:35:24:178
-9,806572	0,032903	0,020963	2020-11-19T14:35:24:195
-9,803879	-0,231468	-0,027602	2020-11-19T14:35:24:217
-9,629672	-1,854468	-0,027523	2020-11-19T14:35:24:235
-9,256603	-3,237998	-0,032561	2020-11-19T14:35:24:259
-8,827843	-4,270494	-0,049482	2020-11-19T14:35:24:274
-8,560101	-4,784433	-0,065356	2020-11-19T14:35:24:298
-8,443976	-4,986591	-0,059679	2020-11-19T14:35:24:315
-8,446473	-4,982606	-0,033315	2020-11-19T14:35:24:338
-8,292697	-5,234448	-0,045967	2020-11-19T14:35:24:355
-8,229032	-5,334005	-0,042596	2020-11-19T14:35:24:378
-8,180625	-5,408031	-0,030986	2020-11-19T14:35:24:395
-8,078963	-5,558787	-0,024896	2020-11-19T14:35:24:419
-7,958168	-5,730405	-0,020203	2020-11-19T14:35:24:436
-7,811833	-5,928342	-0,020164	2020-11-19T14:35:24:458
-7,664384	-6,117773	-0,021463	2020-11-19T14:35:24:475
-7,561996	-6,243844	-0,031825	2020-11-19T14:35:24:499
-9,172120	-3,469891	-0,049517	2020-11-19T14:35:24:515
-8,578952	-4,750712	-0,052021	2020-11-19T14:35:24:538
-7,433940	-6,395619	-0,054585	2020-11-19T14:35:24:555
-6,734819	-7,128263	-0,021717	2020-11-19T14:35:24:579
-6,851394	-7,016053	0,061537	2020-11-19T14:35:24:595
-7,689517	-6,083270	0,188525	2020-11-19T14:35:24:618
-8,139127	-5,460676	0,325599	2020-11-19T14:35:24:635
-8,287263	-5,222805	0,462578	2020-11-19T14:35:24:659
-8,352386	-5,103506	0,601882	2020-11-19T14:35:24:676
-8,323924	-5,130761	0,746969	2020-11-19T14:35:24:698
-8,216392	-5,279856	0,885669	2020-11-19T14:35:24:715
-8,051864	-5,507918	1,000355	2020-11-19T14:35:24:739
-7,852626	-5,770236	1,100464	2020-11-19T14:35:24:755
-7,655596	-6,011800	1,191842	2020-11-19T14:35:24:778
-7,464396	-6,241534	1,223291	2020-11-19T14:35:24:795
-7,198906	-6,548725	1,208444	2020-11-19T14:35:24:820
-6,953966	-6,816345	1,161971	2020-11-19T14:35:24:836
-6,683487	-7,093102	1,090544	2020-11-19T14:35:24:859
-6,476258	-7,290289	1,039307	2020-11-19T14:35:24:875
-6,294157	-7,448398	1,036982	2020-11-19T14:35:24:899
-6,131785	-7,584204	1,025398	2020-11-19T14:35:24:916
-5,984622	-7,704426	0,998249	2020-11-19T14:35:24:938
-5,857163	-7,806038	0,964258	2020-11-19T14:35:24:956
-5,780549	-7,865624	0,942123	2020-11-19T14:35:24:979
-5,757022	-7,884343	0,929634	2020-11-19T14:35:24:995
-5,803068	-7,849706	0,936435	2020-11-19T14:35:25:019
-5,912396	-7,764868	0,959578	2020-11-19T14:35:25:035
-6,092158	-7,620086	0,995130	2020-11-19T14:35:25:060
-6,279695	-7,461287	1,031999	2020-11-19T14:35:25:076
-6,659324	-7,112350	1,112778	2020-11-19T14:35:25:098
-6,909194	-6,867242	1,128898	2020-11-19T14:35:25:115
-7,155628	-6,610573	1,125919	2020-11-19T14:35:25:139
-7,416476	-6,319150	1,111126	2020-11-19T14:35:25:157
-7,681745	-5,995106	1,104486	2020-11-19T14:35:25:178
-8,022023	-5,524055	1,141202	2020-11-19T14:35:25:196
-8,337147	-5,028943	1,171371	2020-11-19T14:35:25:220
-8,599021	-4,570385	1,157067	2020-11-19T14:35:25:247
-8,846217	-4,077000	1,137061	2020-11-19T14:35:25:259
-9,073144	-3,551253	1,112230	2020-11-19T14:35:25:275
-9,257106	-3,055438	1,068022	2020-11-19T14:35:25:300
-9,389935	-2,643870	1,004709	2020-11-19T14:35:25:316
-9,474170	-2,349761	0,942926	2020-11-19T14:35:25:338
-9,526993	-2,148797	0,888517	2020-11-19T14:35:25:356
-9,552884	-2,048659	0,846046	2020-11-19T14:35:25:380
-9,554870	-2,059489	0,795840	2020-11-19T14:35:25:397
-9,529053	-2,197921	0,732580	2020-11-19T14:35:25:419
-9,473852	-2,442837	0,670115	2020-11-19T14:35:25:436
-9,371870	-2,823241	0,606422	2020-11-19T14:35:25:460
-9,189969	-3,381124	0,531850	2020-11-19T14:35:25:476
-8,850064	-4,202785	0,428190	2020-11-19T14:35:25:499
-8,399742	-5,052367	0,297164	2020-11-19T14:35:25:516
-8,161349	-5,434165	0,180618	2020-11-19T14:35:25:540
-8,188210	-5,395707	0,099753	2020-11-19T14:35:25:557
-8,327677	-5,178657	0,041173	2020-11-19T14:35:25:580
-8,508269	-4,876441	-0,008041	2020-11-19T14:35:25:596
-8,666917	-4,588343	-0,045174	2020-11-19T14:35:25:620
-8,792779	-4,341987	-0,067620	2020-11-19T14:35:25:637
-9,008643	-3,874093	-0,078386	2020-11-19T14:35:25:660
-9,168518	-3,478963	-0,074022	2020-11-19T14:35:25:676
-9,282585	-3,162272	-0,063455	2020-11-19T14:35:25:700
-9,348584	-2,961696	-0,052094	2020-11-19T14:35:25:716
-9,388013	-2,834350	-0,045313	2020-11-19T14:35:25:739
-9,398208	-2,800367	-0,044926	2020-11-19T14:35:25:757
-9,370484	-2,891642	-0,053116	2020-11-19T14:35:25:780
-9,300004	-3,110483	-0,072100	2020-11-19T14:35:25:796
-9,185823	-3,432352	-0,099909	2020-11-19T14:35:25:819
-8,992620	-3,909515	-0,137366	2020-11-19T14:35:25:837
-8,707742	-4,507210	-0,175141	2020-11-19T14:35:25:861
-8,206982	-5,365023	-0,179892	2020-11-19T14:35:25:877
-7,707335	-6,061388	-0,164197	2020-11-19T14:35:25:899
-7,262179	-6,588622	-0,145626	2020-11-19T14:35:25:916
-6,882745	-6,984727	-0,108607	2020-11-19T14:35:25:946
-6,553790	-7,295014	-0,031374	2020-11-19T14:35:25:956
-6,361859	-7,462437	0,095691	2020-11-19T14:35:25:979
-6,323462	-7,491125	0,259346	2020-11-19T14:35:25:998
-6,326694	-7,481736	0,408605	2020-11-19T14:35:26:021
-6,218342	-7,566575	0,499549	2020-11-19T14:35:26:037
-5,980372	-7,755326	0,510340	2020-11-19T14:35:26:060
-5,767731	-7,915647	0,496193	2020-11-19T14:35:26:077
-5,509233	-8,100507	0,447817	2020-11-19T14:35:26:101
-5,244111	-8,278736	0,363622	2020-11-19T14:35:26:117
-4,994758	-8,435699	0,248488	2020-11-19T14:35:26:139
-4,811884	-8,543368	0,164362	2020-11-19T14:35:26:157
-4,757983	-8,573298	0,174735	2020-11-19T14:35:26:181
-4,734843	-8,584727	0,232593	2020-11-19T14:35:26:196
-4,783226	-8,554721	0,328461	2020-11-19T14:35:26:220
-4,826035	-8,527894	0,393453	2020-11-19T14:35:26:236
-4,803946	-8,541265	0,373191	2020-11-19T14:35:26:261
-4,808240	-8,539517	0,357554	2020-11-19T14:35:26:277
-4,866666	-8,505565	0,375933	2020-11-19T14:35:26:300
-4,969863	-8,444224	0,407336	2020-11-19T14:35:26:316
-5,093712	-8,369061	0,428153	2020-11-19T14:35:26:342
-5,223388	-8,288970	0,423760	2020-11-19T14:35:26:358
-5,388720	-8,181621	0,439514	2020-11-19T14:35:26:381
-5,599385	-8,037298	0,468089	2020-11-19T14:35:26:397
-5,859795	-7,847340	0,502440	2020-11-19T14:35:26:421
-6,112793	-7,652214	0,497761	2020-11-19T14:35:26:437
-6,384861	-7,428768	0,466185	2020-11-19T14:35:26:461
-6,698923	-7,147603	0,454516	2020-11-19T14:35:26:477
-7,066702	-6,783732	0,461616	2020-11-19T14:35:26:502
-7,500596	-6,297197	0,506705	2020-11-19T14:35:26:517
-7,970093	-5,681430	0,607742	2020-11-19T14:35:26:540
-8,472983	-4,874854	0,784044	2020-11-19T14:35:26:557
-8,893998	-3,999110	1,036480	2020-11-19T14:35:26:581
-9,215914	-3,060624	1,367446	2020-11-19T14:35:26:598
-9,406187	-2,123526	1,784566	2020-11-19T14:35:26:620
-9,470610	-1,504999	2,052537	2020-11-19T14:35:26:637
-9,484827	-1,085562	2,242766	2020-11-19T14:35:26:661
-9,488946	-0,864745	2,320021	2020-11-19T14:35:26:676
-9,504290	-0,849192	2,262243	2020-11-19T14:35:26:700
-9,525187	-1,001147	2,106869	2020-11-19T14:35:26:717
-9,541708	-1,222993	1,905383	2020-11-19T14:35:26:741
-9,547361	-1,402212	1,747018	2020-11-19T14:35:26:757
-9,545687	-1,603730	1,574263	2020-11-19T14:35:26:780
-9,533228	-1,840960	1,377973	2020-11-19T14:35:26:797
-9,539935	-1,869563	1,290256	2020-11-19T14:35:26:821
-9,542771	-1,938915	1,160388	2020-11-19T14:35:26:838
-9,483835	-2,346718	0,848623	2020-11-19T14:35:26:860
-9,390915	-2,769231	0,558985	2020-11-19T14:35:26:877
-9,262917	-3,205326	0,307634	2020-11-19T14:35:26:901
-9,189686	-3,419928	0,155428	2020-11-19T14:35:26:917
-9,100982	-3,652716	0,013565	2020-11-19T14:35:26:940
-9,002326	-3,887771	-0,117287	2020-11-19T14:35:26:958
-8,906014	-4,098188	-0,241116	2020-11-19T14:35:26:981
-8,822143	-4,266608	-0,369111	2020-11-19T14:35:26:997
-8,749800	-4,402570	-0,478300	2020-11-19T14:35:27:020
-8,653791	-4,576450	-0,581707	2020-11-19T14:35:27:037
-8,546232	-4,762725	-0,669890	2020-11-19T14:35:27:061
-8,419656	-4,971996	-0,747687	2020-11-19T14:35:27:080
-8,318354	-5,134777	-0,780670	2020-11-19T14:35:27:101
-8,089166	-5,490867	-0,765617	2020-11-19T14:35:27:117
-7,873392	-5,800624	-0,729963	2020-11-19T14:35:27:142
-7,742347	-5,975892	-0,717753	2020-11-19T14:35:27:157
-7,644142	-6,098044	-0,742515	2020-11-19T14:35:27:180
-7,518261	-6,250014	-0,763844	2020-11-19T14:35:27:197
-7,354512	-6,442394	-0,759673	2020-11-19T14:35:27:221
-7,106199	-6,725188	-0,666453	2020-11-19T14:35:27:237
-6,860178	-6,988920	-0,513157	2020-11-19T14:35:27:261
-6,624719	-7,222824	-0,338076	2020-11-19T14:35:27:277
-6,439928	-7,393943	-0,165281	2020-11-19T14:35:27:301
-6,333825	-7,486836	-0,017880	2020-11-19T14:35:27:318
-6,263504	-7,545506	0,065053	2020-11-19T14:35:27:341
-6,234613	-7,567420	0,184747	2020-11-19T14:35:27:358
-6,386525	-7,432460	0,375797	2020-11-19T14:35:27:381
-6,775790	-7,059504	0,649965	2020-11-19T14:35:27:397
-7,132474	-6,669667	0,902071	2020-11-19T14:35:27:421
-7,319007	-6,431293	1,113994	2020-11-19T14:35:27:437
-7,383900	-6,320482	1,303810	2020-11-19T14:35:27:462
-7,431888	-6,221729	1,492484	2020-11-19T14:35:27:478
-7,449630	-6,140901	1,721258	2020-11-19T14:35:27:500
-7,398324	-6,118113	2,000971	2020-11-19T14:35:27:517
-7,263679	-6,171401	2,307198	2020-11-19T14:35:27:541
-7,084202	-6,239795	2,655075	2020-11-19T14:35:27:559
-6,873122	-6,290313	3,059828	2020-11-19T14:35:27:581
-6,687068	-6,274244	3,476690	2020-11-19T14:35:27:598
-6,513300	-6,295048	3,757617	2020-11-19T14:35:27:622
-6,272007	-6,392774	3,995592	2020-11-19T14:35:27:637
-6,017723	-6,526311	4,167093	2020-11-19T14:35:27:661
-5,803572	-6,608483	4,337844	2020-11-19T14:35:27:678
-5,644357	-6,583998	4,578492	2020-11-19T14:35:27:701
-5,520191	-6,494171	4,850114	2020-11-19T14:35:27:718
-5,431400	-6,404123	5,065321	2020-11-19T14:35:27:741
-5,373329	-6,310109	5,242161	2020-11-19T14:35:27:758
-5,297223	-6,275185	5,360211	2020-11-19T14:35:27:782
-5,170066	-6,287839	5,468444	2020-11-19T14:35:27:809
-5,013564	-6,375310	5,512711	2020-11-19T14:35:27:821
-4,838168	-6,515943	5,504999	2020-11-19T14:35:27:838
-4,629592	-6,679048	5,488859	2020-11-19T14:35:27:863
-4,488926	-6,762930	5,502972	2020-11-19T14:35:27:878
-4,356173	-6,791951	5,573468	2020-11-19T14:35:27:901
-4,242538	-6,756151	5,703128	2020-11-19T14:35:27:918
-4,163553	-6,631507	5,904094	2020-11-19T14:35:27:942
-4,046967	-6,472970	6,155737	2020-11-19T14:35:27:959
-3,915540	-6,382283	6,332882	2020-11-19T14:35:27:981
-3,793081	-6,287705	6,499821	2020-11-19T14:35:27:998
-3,702430	-6,194153	6,640397	2020-11-19T14:35:28:022
-3,576758	-6,096282	6,797981	2020-11-19T14:35:28:039
-3,447172	-5,974094	6,971197	2020-11-19T14:35:28:061
-3,345353	-5,768560	7,190459	2020-11-19T14:35:28:078
-3,313192	-5,501262	7,411427	2020-11-19T14:35:28:102
-3,299542	-5,265769	7,586506	2020-11-19T14:35:28:118
-3,278436	-5,099665	7,708156	2020-11-19T14:35:28:141
-3,236680	-4,932651	7,833469	2020-11-19T14:35:28:159
-3,192177	-4,765280	7,954401	2020-11-19T14:35:28:181
-3,161036	-4,573645	8,078366	2020-11-19T14:35:28:199
-3,143232	-4,393786	8,184444	2020-11-19T14:35:28:221
-3,154303	-4,222262	8,270021	2020-11-19T14:35:28:238
-3,155204	-4,079315	8,341119	2020-11-19T14:35:28:263
-3,125022	-3,985455	8,397664	2020-11-19T14:35:28:278
-3,116650	-3,902611	8,439580	2020-11-19T14:35:28:300
-3,109939	-3,775916	8,499477	2020-11-19T14:35:28:318
-3,093853	-3,650608	8,559878	2020-11-19T14:35:28:343
-3,075917	-3,620885	8,578946	2020-11-19T14:35:28:358
-3,065549	-3,639156	8,574924	2020-11-19T14:35:28:382
-3,040529	-3,644225	8,581677	2020-11-19T14:35:28:398
-3,012626	-3,600329	8,610000	2020-11-19T14:35:28:423
-2,994969	-3,505668	8,655105	2020-11-19T14:35:28:439
-2,980422	-3,385309	8,707879	2020-11-19T14:35:28:463
-2,967146	-3,276542	8,753896	2020-11-19T14:35:28:478
-2,956944	-3,213008	8,780857	2020-11-19T14:35:28:503
-2,939471	-3,196143	8,792870	2020-11-19T14:35:28:519
-2,924117	-3,147467	8,815519	2020-11-19T14:35:28:542
-2,903257	-3,069555	8,849820	2020-11-19T14:35:28:559
-2,892974	-2,967656	8,887862	2020-11-19T14:35:28:583
-2,891241	-2,886436	8,915133	2020-11-19T14:35:28:598
-2,903526	-2,831793	8,928655	2020-11-19T14:35:28:622
-2,914509	-2,798280	8,935639	2020-11-19T14:35:28:638
-2,926020	-2,787348	8,935294	2020-11-19T14:35:28:663
-2,941538	-2,767977	8,936220	2020-11-19T14:35:28:679
-2,961420	-2,709545	8,947555	2020-11-19T14:35:28:702
-2,989957	-2,620346	8,964615	2020-11-19T14:35:28:718
-3,025814	-2,565759	8,968373	2020-11-19T14:35:28:743
-3,067772	-2,579159	8,950257	2020-11-19T14:35:28:760
-3,101785	-2,619111	8,926902	2020-11-19T14:35:28:781
-3,127077	-2,663104	8,905035	2020-11-19T14:35:28:799
-3,142138	-2,671901	8,897095	2020-11-19T14:35:28:823
-3,139945	-2,656033	8,902618	2020-11-19T14:35:28:839
-3,161434	-2,727731	8,873286	2020-11-19T14:35:28:861
-3,185283	-2,848076	8,826823	2020-11-19T14:35:28:879
-3,195596	-2,936468	8,794072	2020-11-19T14:35:28:902
-3,192522	-3,002560	8,772845	2020-11-19T14:35:28:920
-3,191841	-3,069933	8,749745	2020-11-19T14:35:28:941
-3,195383	-3,139375	8,723774	2020-11-19T14:35:28:959
-3,170609	-3,209658	8,707222	2020-11-19T14:35:28:982
-3,130797	-3,293889	8,690155	2020-11-19T14:35:29:000
-3,057272	-3,364296	8,689361	2020-11-19T14:35:29:021
-2,949927	-3,420273	8,704599	2020-11-19T14:35:29:040
-2,794744	-3,461713	8,739355	2020-11-19T14:35:29:063
-2,624178	-3,521422	8,768332	2020-11-19T14:35:29:079
-2,430499	-3,598026	8,793024	2020-11-19T14:35:29:101
-2,236090	-3,700922	8,801901	2020-11-19T14:35:29:119
-2,059026	-3,787483	8,808279	2020-11-19T14:35:29:142
-1,847816	-3,801823	8,848847	2020-11-19T14:35:29:160
-1,659146	-3,750983	8,907735	2020-11-19T14:35:29:181
-1,441476	-3,703737	8,965202	2020-11-19T14:35:29:199
-1,179748	-3,675037	9,015136	2020-11-19T14:35:29:223
-0,948285	-3,664742	9,046591	2020-11-19T14:35:29:240
-0,782981	-3,642305	9,071435	2020-11-19T14:35:29:262
-0,583531	-3,527363	9,131680	2020-11-19T14:35:29:279
-0,396874	-3,404950	9,187991	2020-11-19T14:35:29:302
-0,173319	-3,217036	9,262344	2020-11-19T14:35:29:319
-0,040390	-3,077527	9,311153	2020-11-19T14:35:29:342
0,057964	-2,838186	9,386785	2020-11-19T14:35:29:360
0,121948	-2,613266	9,451262	2020-11-19T14:35:29:382
0,119168	-2,639611	9,443974	2020-11-19T14:35:29:400
0,116132	-2,719504	9,421316	2020-11-19T14:35:29:422
0,003712	-3,367376	9,210382	2020-11-19T14:35:29:439
-0,167943	-4,228383	8,846636	2020-11-19T14:35:29:463
-0,375335	-5,026716	8,411994	2020-11-19T14:35:29:480
-0,589673	-5,593484	8,033406	2020-11-19T14:35:29:502
-0,836607	-6,008832	7,704830	2020-11-19T14:35:29:519
-1,181025	-6,379475	7,353765	2020-11-19T14:35:29:543
-1,616471	-6,661458	7,013016	2020-11-19T14:35:29:560
-2,008365	-6,820579	6,754003	2020-11-19T14:35:29:582
-2,434730	-6,903717	6,525425	2020-11-19T14:35:29:599
-2,857268	-6,889724	6,366954	2020-11-19T14:35:29:623
-3,301948	-6,794158	6,253554	2020-11-19T14:35:29:640
-3,857330	-6,666680	6,070154	2020-11-19T14:35:29:663
-4,353012	-6,534979	5,875008	2020-11-19T14:35:29:679
-4,905530	-6,371030	5,613924	2020-11-19T14:35:29:703
-5,452250	-6,183868	5,310661	2020-11-19T14:35:29:721
-5,962411	-5,983437	4,981820	2020-11-19T14:35:29:742
-6,432665	-5,770810	4,635619	2020-11-19T14:35:29:768
-6,859499	-5,559331	4,267494	2020-11-19T14:35:29:783
-7,170690	-5,392227	3,959228	2020-11-19T14:35:29:800
-7,425136	-5,232876	3,695233	2020-11-19T14:35:29:823
-7,613881	-5,108308	3,479136	2020-11-19T14:35:29:840
-7,734808	-5,026375	3,328466	2020-11-19T14:35:29:864
-7,807000	-4,965622	3,250189	2020-11-19T14:35:29:880
-7,865837	-4,899640	3,208197	2020-11-19T14:35:29:903
-7,913918	-4,831915	3,192629	2020-11-19T14:35:29:920
-7,965680	-4,763401	3,166756	2020-11-19T14:35:29:944
-8,007551	-4,686822	3,175406	2020-11-19T14:35:29:961
-8,014612	-4,643250	3,221273	2020-11-19T14:35:29:982
-8,012500	-4,603774	3,282604	2020-11-19T14:35:30:001
-7,981453	-4,611530	3,346728	2020-11-19T14:35:30:024
-7,954541	-4,623258	3,394282	2020-11-19T14:35:30:040
-7,930065	-4,645730	3,420767	2020-11-19T14:35:30:063
-7,910264	-4,671911	3,430943	2020-11-19T14:35:30:080
-7,899624	-4,691418	3,428836	2020-11-19T14:35:30:104
-7,898183	-4,704171	3,414655	2020-11-19T14:35:30:120
-7,898266	-4,719243	3,393602	2020-11-19T14:35:30:143
-7,882916	-4,762795	3,368353	2020-11-19T14:35:30:160
-7,847687	-4,839504	3,341166	2020-11-19T14:35:30:184
-7,798018	-4,940258	3,309856	2020-11-19T14:35:30:201
-7,746814	-5,038644	3,281666	2020-11-19T14:35:30:223
-7,697182	-5,123759	3,266629	2020-11-19T14:35:30:240
-7,648309	-5,193663	3,271027	2020-11-19T14:35:30:264
-7,605610	-5,240110	3,296411	2020-11-19T14:35:30:280
-7,564908	-5,270342	3,341563	2020-11-19T14:35:30:303
-7,519929	-5,295733	3,402391	2020-11-19T14:35:30:320
-7,471857	-5,316873	3,474566	2020-11-19T14:35:30:344
-7,427964	-5,328907	3,549435	2020-11-19T14:35:30:361
-7,444445	-5,271142	3,600790	2020-11-19T14:35:30:383
-7,443744	-5,261360	3,616512	2020-11-19T14:35:30:400
-7,371766	-5,347608	3,637382	2020-11-19T14:35:30:424
-7,304427	-5,439463	3,637028	2020-11-19T14:35:30:441
-7,255301	-5,514128	3,622898	2020-11-19T14:35:30:463
-7,227386	-5,574158	3,586648	2020-11-19T14:35:30:480
-7,221599	-5,615324	3,533698	2020-11-19T14:35:30:504
-7,232652	-5,643540	3,465485	2020-11-19T14:35:30:520
-7,266116	-5,648960	3,385733	2020-11-19T14:35:30:543
-7,335013	-5,603573	3,311787	2020-11-19T14:35:30:561
-7,440660	-5,479604	3,283429	2020-11-19T14:35:30:588
-7,568815	-5,305771	3,276006	2020-11-19T14:35:30:601
-7,712707	-5,095755	3,273809	2020-11-19T14:35:30:623
-7,869474	-4,875323	3,236200	2020-11-19T14:35:30:640
-8,028693	-4,687081	3,121176	2020-11-19T14:35:30:664
-8,208868	-4,507322	2,910140	2020-11-19T14:35:30:683
-8,330647	-4,378894	2,756086	2020-11-19T14:35:30:703
-8,453614	-4,246829	2,582874	2020-11-19T14:35:30:721
-8,567924	-4,112783	2,417866	2020-11-19T14:35:30:744
-8,670942	-3,976497	2,274339	2020-11-19T14:35:30:761
-8,759784	-3,850005	2,148031	2020-11-19T14:35:30:784
-8,837027	-3,740957	2,020540	2020-11-19T14:35:30:800
-8,910872	-3,631310	1,892173	2020-11-19T14:35:30:824
-8,993093	-3,481470	1,781578	2020-11-19T14:35:30:841
-9,068163	-3,330727	1,686733	2020-11-19T14:35:30:864
-9,123672	-3,216374	1,607464	2020-11-19T14:35:30:880
-9,159970	-3,144580	1,541736	2020-11-19T14:35:30:905
-9,108099	-3,325566	1,467490	2020-11-19T14:35:30:921
-9,024813	-3,571423	1,402880	2020-11-19T14:35:30:943
-8,917240	-3,846127	1,364008	2020-11-19T14:35:30:961
-8,795178	-4,123030	1,347533	2020-11-19T14:35:30:985
-8,670199	-4,380223	1,345984	2020-11-19T14:35:31:000
-8,517678	-4,670153	1,345068	2020-11-19T14:35:31:025
-8,426105	-4,846761	1,296165	2020-11-19T14:35:31:041
-8,309741	-5,063261	1,217363	2020-11-19T14:35:31:065
-8,180518	-5,291800	1,116405	2020-11-19T14:35:31:081
-8,028640	-5,541591	1,001045	2020-11-19T14:35:31:104
-7,860725	-5,795170	0,891850	2020-11-19T14:35:31:121
-7,684605	-6,038522	0,808387	2020-11-19T14:35:31:145
-7,518864	-6,248477	0,770462	2020-11-19T14:35:31:162
-7,404346	-6,379288	0,806684	2020-11-19T14:35:31:184
-7,394723	-6,371575	0,944184	2020-11-19T14:35:31:201
-7,506027	-6,206433	1,144609	2020-11-19T14:35:31:224
-7,652578	-5,985602	1,334542	2020-11-19T14:35:31:241
-7,740462	-5,836119	1,481674	2020-11-19T14:35:31:264
-7,738898	-5,814742	1,571183	2020-11-19T14:35:31:281
-7,679780	-5,877650	1,626222	2020-11-19T14:35:31:304
-7,624777	-5,939166	1,661164	2020-11-19T14:35:31:322
-7,566050	-6,000085	1,710044	2020-11-19T14:35:31:344
-7,513183	-6,045699	1,781006	2020-11-19T14:35:31:361
-7,454630	-6,100903	1,837895	2020-11-19T14:35:31:385
-7,399193	-6,156202	1,877100	2020-11-19T14:35:31:402
-7,344590	-6,213292	1,903257	2020-11-19T14:35:31:424
-7,300096	-6,253035	1,943844	2020-11-19T14:35:31:442
-7,262637	-6,272255	2,020720	2020-11-19T14:35:31:465
-7,219701	-6,302472	2,079700	2020-11-19T14:35:31:481
-7,092886	-6,425157	2,139789	2020-11-19T14:35:31:504
-6,938568	-6,584226	2,162087	2020-11-19T14:35:31:521
-6,789655	-6,738611	2,159185	2020-11-19T14:35:31:545
-6,651228	-6,881186	2,140286	2020-11-19T14:35:31:562
-6,529687	-7,005770	2,110155	2020-11-19T14:35:31:584
-6,426821	-7,111738	2,071121	2020-11-19T14:35:31:601
-6,347740	-7,195088	2,026645	2020-11-19T14:35:31:625
-6,293963	-7,253254	1,986634	2020-11-19T14:35:31:642
-6,270991	-7,282347	1,952555	2020-11-19T14:35:31:664
-6,289762	-7,271812	1,931326	2020-11-19T14:35:31:681
-6,344176	-7,227088	1,921202	2020-11-19T14:35:31:705
-6,432364	-7,147716	1,924899	2020-11-19T14:35:31:721
-6,566914	-7,014569	1,960063	2020-11-19T14:35:31:745
-6,720842	-6,858492	1,990417	2020-11-19T14:35:31:762
-6,873001	-6,703207	1,999813	2020-11-19T14:35:31:785
-7,021613	-6,548070	1,997526	2020-11-19T14:35:31:802
-7,179293	-6,378801	1,984701	2020-11-19T14:35:31:824
-7,362392	-6,171988	1,967772	2020-11-19T14:35:31:842
-7,574647	-5,916823	1,945845	2020-11-19T14:35:31:866
-7,796307	-5,632220	1,914700	2020-11-19T14:35:31:884
-7,977608	-5,384863	1,879204	2020-11-19T14:35:31:904
-8,190793	-5,076452	1,819594	2020-11-19T14:35:31:922
-8,410955	-4,731965	1,742045	2020-11-19T14:35:31:946
-8,632501	-4,349637	1,652567	2020-11-19T14:35:31:963
-8,842914	-3,940780	1,563175	2020-11-19T14:35:31:985
-9,042444	-3,495708	1,478043	2020-11-19T14:35:32:001
-9,192636	-3,096802	1,440710	2020-11-19T14:35:32:025
-9,300577	-2,763975	1,424815	2020-11-19T14:35:32:042
-9,424648	-2,354522	1,342613	2020-11-19T14:35:32:065
-9,512751	-2,025738	1,254726	2020-11-19T14:35:32:082
-9,564766	-1,811432	1,185055	2020-11-19T14:35:32:106
-9,589875	-1,723804	1,110487	2020-11-19T14:35:32:123
-9,601384	-1,695858	1,052555	2020-11-19T14:35:32:145
-9,595548	-1,742080	1,030056	2020-11-19T14:35:32:162
-9,570497	-1,872745	1,033828	2020-11-19T14:35:32:185
-9,519786	-2,104759	1,055488	2020-11-19T14:35:32:202
-9,428281	-2,463456	1,099674	2020-11-19T14:35:32:225
-9,313845	-2,864709	1,102781	2020-11-19T14:35:32:242
-9,172728	-3,299134	1,071060	2020-11-19T14:35:32:266
-9,043204	-3,654261	1,018439	2020-11-19T14:35:32:282
-8,963865	-3,851914	0,991090	2020-11-19T14:35:32:305
-8,969083	-3,837421	1,000065	2020-11-19T14:35:32:322
-9,027816	-3,690856	1,022990	2020-11-19T14:35:32:345
-9,108314	-3,482943	1,038326	2020-11-19T14:35:32:364
-9,198412	-3,233651	1,050286	2020-11-19T14:35:32:385
-9,265145	-3,032674	1,063185	2020-11-19T14:35:32:402
-9,350517	-2,765158	1,045038	2020-11-19T14:35:32:426
-9,428311	-2,491668	1,033886	2020-11-19T14:35:32:442
-9,488043	-2,254381	1,032080	2020-11-19T14:35:32:466
-9,524521	-2,091566	1,038866	2020-11-19T14:35:32:482
-9,546520	-1,982472	1,050778	2020-11-19T14:35:32:506
-9,557995	-1,919575	1,063179	2020-11-19T14:35:32:523
-9,561322	-1,893075	1,080632	2020-11-19T14:35:32:545
-9,557866	-1,892519	1,111729	2020-11-19T14:35:32:562
-9,541923	-1,935071	1,173712	2020-11-19T14:35:32:586
-9,511803	-2,020426	1,270385	2020-11-19T14:35:32:603
-9,466595	-2,145768	1,396295	2020-11-19T14:35:32:625
-9,406458	-2,304255	1,542510	2020-11-19T14:35:32:642
-9,326924	-2,506503	1,701856	2020-11-19T14:35:32:666
-9,251675	-2,669428	1,857701	2020-11-19T14:35:32:682
-9,169417	-2,818750	2,036375	2020-11-19T14:35:32:705
-9,080933	-2,946825	2,241267	2020-11-19T14:35:32:722
-8,984160	-3,056333	2,472667	2020-11-19T14:35:32:746
-8,875354	-3,159998	2,722661	2020-11-19T14:35:32:763
-8,758500	-3,265588	2,965637	2020-11-19T14:35:32:785
-8,627151	-3,391525	3,200033	2020-11-19T14:35:32:802
-8,525034	-3,534278	3,317087	2020-11-19T14:35:32:826
-8,410186	-3,711435	3,415321	2020-11-19T14:35:32:844
-8,281320	-3,929741	3,485292	2020-11-19T14:35:32:866
-8,150548	-4,163826	3,521578	2020-11-19T14:35:32:883
-8,015057	-4,417961	3,522907	2020-11-19T14:35:32:906
-7,879647	-4,669507	3,503892	2020-11-19T14:35:32:922
-7,750722	-4,909878	3,462628	2020-11-19T14:35:32:946
-7,630230	-5,126646	3,415768	2020-11-19T14:35:32:963
-7,474607	-5,328990	3,450002	2020-11-19T14:35:32:986
-7,333973	-5,508141	3,470391	2020-11-19T14:35:33:003
-7,219081	-5,654549	3,475820	2020-11-19T14:35:33:025
-7,125787	-5,779336	3,463066	2020-11-19T14:35:33:042
-7,051152	-5,894594	3,421316	2020-11-19T14:35:33:067
-7,008421	-5,976722	3,366186	2020-11-19T14:35:33:083
-6,996311	-6,028418	3,298514	2020-11-19T14:35:33:106
-7,030151	-6,025340	3,231506	2020-11-19T14:35:33:123
-7,110392	-5,968506	3,160640	2020-11-19T14:35:33:146
-7,268942	-5,809137	3,096253	2020-11-19T14:35:33:163
-7,522796	-5,510614	3,034972	2020-11-19T14:35:33:186
-7,796188	-5,165345	2,951110	2020-11-19T14:35:33:203
-8,084026	-4,779284	2,824418	2020-11-19T14:35:33:227
-8,368422	-4,377618	2,641281	2020-11-19T14:35:33:243
-8,638252	-3,963796	2,416466	2020-11-19T14:35:33:266
-8,877802	-3,564825	2,155698	2020-11-19T14:35:33:283
-9,096474	-3,145922	1,878224	2020-11-19T14:35:33:307
-9,275482	-2,748157	1,607310	2020-11-19T14:35:33:324
-9,417999	-2,377953	1,347964	2020-11-19T14:35:33:346
-9,524103	-2,052892	1,116902	2020-11-19T14:35:33:364
-9,599073	-1,784742	0,918076	2020-11-19T14:35:33:387
-8,322158	-4,626304	2,347209	2020-11-19T14:35:33:403
-8,569563	-4,226598	2,206547	2020-11-19T14:35:33:426
-8,732542	-3,967924	2,041734	2020-11-19T14:35:33:443
-8,813695	-3,882931	1,847164	2020-11-19T14:35:33:467
-8,874187	-3,818848	1,683919	2020-11-19T14:35:33:483
-8,906128	-3,794924	1,565192	2020-11-19T14:35:33:506
-8,907305	-3,827042	1,477854	2020-11-19T14:35:33:523
-8,916907	-3,836352	1,393394	2020-11-19T14:35:33:547
-8,936992	-3,816004	1,318589	2020-11-19T14:35:33:589
-8,966380	-3,766578	1,259879	2020-11-19T14:35:33:590
-9,002436	-3,693318	1,218992	2020-11-19T14:35:33:603
-9,061201	-3,559577	1,180861	2020-11-19T14:35:33:627
-9,124433	-3,407368	1,142343	2020-11-19T14:35:33:643
-9,180083	-3,265077	1,111633	2020-11-19T14:35:33:666
-9,226893	-3,136883	1,093066	2020-11-19T14:35:33:683
-9,742773	-1,049602	0,383516	2020-11-19T14:35:33:707
-9,740654	-1,058655	0,411442	2020-11-19T14:35:33:724
-9,737195	-1,077697	0,442697	2020-11-19T14:35:33:746
-9,730715	-1,116781	0,486175	2020-11-19T14:35:33:764
-9,729216	-1,125538	0,495898	2020-11-19T14:35:33:787
-9,725624	-1,148306	0,513826	2020-11-19T14:35:33:804
-9,721405	-1,175759	0,531288	2020-11-19T14:35:33:826
-9,715063	-1,214656	0,559057	2020-11-19T14:35:33:844
-9,703268	-1,279391	0,616548	2020-11-19T14:35:33:869
-9,690610	-1,343754	0,675855	2020-11-19T14:35:33:883
-9,669446	-1,443529	0,767087	2020-11-19T14:35:33:907
-9,639792	-1,571266	0,880860	2020-11-19T14:35:33:924
-9,598929	-1,731462	1,016355	2020-11-19T14:35:33:947
-9,549196	-1,907536	1,159540	2020-11-19T14:35:33:964
-9,494794	-2,078609	1,303326	2020-11-19T14:35:33:986
-9,426128	-2,264725	1,479697	2020-11-19T14:35:34:004
-9,343940	-2,451323	1,688842	2020-11-19T14:35:34:029
-9,254109	-2,619186	1,916169	2020-11-19T14:35:34:049
-9,150435	-2,781134	2,169150	2020-11-19T14:35:34:067
-9,036221	-2,939930	2,423615	2020-11-19T14:35:34:084
-8,906877	-3,109976	2,676935	2020-11-19T14:35:34:108
-8,799241	-3,279776	2,826093	2020-11-19T14:35:34:124
-8,682647	-3,472500	2,953604	2020-11-19T14:35:34:147
-8,563017	-3,679293	3,050889	2020-11-19T14:35:34:164
-8,450294	-3,874370	3,122849	2020-11-19T14:35:34:187
-8,343087	-4,055902	3,180085	2020-11-19T14:35:34:204
-8,253098	-4,206562	3,218942	2020-11-19T14:35:34:227
-8,194521	-4,320091	3,218234	2020-11-19T14:35:34:244
-8,110440	-4,419588	3,295208	2020-11-19T14:35:34:268
-8,046793	-4,488127	3,358010	2020-11-19T14:35:34:285
-7,999209	-4,536149	3,406814	2020-11-19T14:35:34:306
-7,966213	-4,572377	3,435580	2020-11-19T14:35:34:324
-7,947955	-4,606734	3,431967	2020-11-19T14:35:34:348
-7,941427	-4,635961	3,407636	2020-11-19T14:35:34:364
-7,948554	-4,653424	3,366976	2020-11-19T14:35:34:387
-7,968479	-4,648341	3,326658	2020-11-19T14:35:34:404
-8,042974	-4,589191	3,228043	2020-11-19T14:35:34:428
-8,132940	-4,507325	3,116036	2020-11-19T14:35:34:444
-8,239973	-4,388340	3,002614	2020-11-19T14:35:34:467
-8,326437	-4,278539	2,921463	2020-11-19T14:35:34:484
-8,422737	-4,146637	2,834304	2020-11-19T14:35:34:508
-8,522374	-3,997677	2,749201	2020-11-19T14:35:34:525
-8,627055	-3,836210	2,651000	2020-11-19T14:35:34:547
-8,741625	-3,629252	2,565719	2020-11-19T14:35:34:565
-8,838719	-3,431638	2,504254	2020-11-19T14:35:34:588
-8,927326	-3,243833	2,439421	2020-11-19T14:35:34:604
-9,016029	-3,085910	2,314899	2020-11-19T14:35:34:627
-9,106534	-2,911399	2,182929	2020-11-19T14:35:34:644
-9,196230	-2,734054	2,030933	2020-11-19T14:35:34:668
-9,274130	-2,562309	1,896176	2020-11-19T14:35:34:685
-9,340954	-2,393285	1,785822	2020-11-19T14:35:34:707
-9,400833	-2,235681	1,672257	2020-11-19T14:35:34:724
-9,453775	-2,091381	1,556485	2020-11-19T14:35:34:748
-9,498833	-1,966938	1,440039	2020-11-19T14:35:34:765
-9,537547	-1,862277	1,318147	2020-11-19T14:35:34:787
-9,572325	-1,767138	1,190882	2020-11-19T14:35:34:806
-9,601826	-1,683553	1,068161	2020-11-19T14:35:34:828
-9,626792	-1,606507	0,956242	2020-11-19T14:35:34:845
-9,648241	-1,530097	0,860596	2020-11-19T14:35:34:868
-9,665912	-1,459436	0,781397	2020-11-19T14:35:34:884
-9,684050	-1,377303	0,701863	2020-11-19T14:35:34:908
-9,701846	-1,287857	0,621279	2020-11-19T14:35:34:925
-9,717881	-1,199795	0,541905	2020-11-19T14:35:34:947
-9,731723	-1,115030	0,469742	2020-11-19T14:35:34:965
-9,743830	-1,030264	0,408317	2020-11-19T14:35:34:989
-9,754153	-0,949167	0,354910	2020-11-19T14:35:35:005
-9,762796	-0,873036	0,309842	2020-11-19T14:35:35:028
-9,769773	-0,804541	0,273192	2020-11-19T14:35:35:045
-9,557698	-2,102577	0,632426	2020-11-19T14:35:35:069
-9,598123	-1,939078	0,535164	2020-11-19T14:35:35:085
-9,629260	-1,800102	0,455382	2020-11-19T14:35:35:108
-9,650236	-1,699577	0,393397	2020-11-19T14:35:35:125
-9,663810	-1,630978	0,347952	2020-11-19T14:35:35:148
-9,672768	-1,582294	0,322935	2020-11-19T14:35:35:165
-9,681166	-1,530722	0,319838	2020-11-19T14:35:35:188
-9,793185	-0,500073	0,117609	2020-11-19T14:35:35:205
-9,779085	-0,698587	0,227713	2020-11-19T14:35:35:229
-9,750124	-0,984446	0,369233	2020-11-19T14:35:35:246
-9,694234	-1,380208	0,535947	2020-11-19T14:35:35:268
-9,612183	-1,818836	0,684223	2020-11-19T14:35:35:285
-9,488033	-2,333221	0,838856	2020-11-19T14:35:35:308
-9,310155	-2,916325	0,993200	2020-11-19T14:35:35:325
-9,070899	-3,550685	1,132171	2020-11-19T14:35:35:348
-8,758182	-4,233197	1,242854	2020-11-19T14:35:35:365
-8,378251	-4,925157	1,310776	2020-11-19T14:35:35:389
-8,056255	-5,426339	1,349808	2020-11-19T14:35:35:405
-7,724597	-5,879944	1,388252	2020-11-19T14:35:35:428
-7,494427	-6,162232	1,425076	2020-11-19T14:35:35:445
-7,293197	-6,392571	1,454200	2020-11-19T14:35:35:469
-7,155477	-6,538861	1,487560	2020-11-19T14:35:35:486
-7,002598	-6,690959	1,537880	2020-11-19T14:35:35:508
-6,917518	-6,773591	1,561022	2020-11-19T14:35:35:525
-6,813343	-6,880307	1,552453	2020-11-19T14:35:35:549
-6,711988	-6,985738	1,522848	2020-11-19T14:35:35:565
-6,657975	-7,040332	1,508469	2020-11-19T14:35:35:591
-6,654530	-7,041270	1,519252	2020-11-19T14:35:35:605
-6,704352	-6,985271	1,558218	2020-11-19T14:35:35:629
-6,769787	-6,913072	1,596812	2020-11-19T14:35:35:645
-6,820187	-6,861046	1,606700	2020-11-19T14:35:35:668
-6,850420	-6,839867	1,567912	2020-11-19T14:35:35:685
-6,835227	-6,880742	1,451016	2020-11-19T14:35:35:709
-6,784137	-6,967517	1,264743	2020-11-19T14:35:35:726
-6,747256	-7,044126	1,012524	2020-11-19T14:35:35:748
-6,806242	-7,019026	0,760748	2020-11-19T14:35:35:766
-6,967200	-6,878402	0,562216	2020-11-19T14:35:35:789
-7,216735	-6,623015	0,474114	2020-11-19T14:35:35:805
-7,518713	-6,282236	0,415769	2020-11-19T14:35:35:828
-7,851640	-5,862845	0,386237	2020-11-19T14:35:35:846
-8,205137	-5,355319	0,408234	2020-11-19T14:35:35:869
-8,559204	-4,758979	0,512384	2020-11-19T14:35:35:885
-8,902722	-4,047857	0,725792	2020-11-19T14:35:35:909
-9,203571	-3,209537	1,078668	2020-11-19T14:35:35:925
-9,414929	-2,217745	1,615886	2020-11-19T14:35:35:949
-9,450706	-1,098910	2,376329	2020-11-19T14:35:35:967
-9,225967	0,034563	3,324261	2020-11-19T14:35:35:988
-8,718796	1,082395	4,356766	2020-11-19T14:35:36:005
-8,028595	1,940185	5,286562	2020-11-19T14:35:36:029
-7,333332	2,568484	5,982935	2020-11-19T14:35:36:045
-6,656520	3,069426	6,514580	2020-11-19T14:35:36:070
-6,693138	3,145153	6,440520	2020-11-19T14:35:36:086
-6,877367	3,156315	6,237779	2020-11-19T14:35:36:110
-7,131027	3,102339	5,974474	2020-11-19T14:35:36:126
-7,381318	3,010239	5,711829	2020-11-19T14:35:36:149
-7,283640	3,087969	5,795120	2020-11-19T14:35:36:166
-7,162503	3,147790	5,912728	2020-11-19T14:35:36:190
-6,980412	3,209931	6,094307	2020-11-19T14:35:36:207
-6,713223	3,271193	6,356281	2020-11-19T14:35:36:229
-6,355590	3,327744	6,686029	2020-11-19T14:35:36:246
-6,470135	3,215812	6,630708	2020-11-19T14:35:36:270
-6,648238	3,093324	6,511733	2020-11-19T14:35:36:286
-6,927471	2,954939	6,280833	2020-11-19T14:35:36:309
-7,241943	2,836534	5,973167	2020-11-19T14:35:36:326
-7,553413	2,711115	5,636150	2020-11-19T14:35:36:351
-7,886924	2,536779	5,247053	2020-11-19T14:35:36:367
-8,212506	2,329335	4,826937	2020-11-19T14:35:36:389
-8,496156	2,115752	4,416934	2020-11-19T14:35:36:406
-8,730037	1,916275	4,035434	2020-11-19T14:35:36:430
-8,929885	1,723918	3,668194	2020-11-19T14:35:36:447
-9,128865	1,499485	3,253574	2020-11-19T14:35:36:469
-9,293185	1,294243	2,851672	2020-11-19T14:35:36:486
-9,419097	1,137364	2,481411	2020-11-19T14:35:36:510
-9,382820	1,247926	2,564324	2020-11-19T14:35:36:526
-9,353354	1,353627	2,617795	2020-11-19T14:35:36:549
-9,325325	1,472524	2,653370	2020-11-19T14:35:36:567
-9,301180	1,589709	2,670442	2020-11-19T14:35:36:590
-9,301250	1,662405	2,625552	2020-11-19T14:35:36:607
-9,321037	1,687735	2,537754	2020-11-19T14:35:36:629
-9,349269	1,691393	2,429145	2020-11-19T14:35:36:646
-9,285089	1,824479	2,574641	2020-11-19T14:35:36:671
-9,051941	2,095927	3,136853	2020-11-19T14:35:36:688
-8,936967	2,336813	3,292463	2020-11-19T14:35:36:709
-9,701052	0,880584	1,133384	2020-11-19T14:35:36:728
-9,721414	0,887445	0,936451	2020-11-19T14:35:36:750
-9,742398	0,865593	0,711904	2020-11-19T14:35:36:767
-9,756948	0,846130	0,506378	2020-11-19T14:35:36:789
-9,762591	0,846566	0,381462	2020-11-19T14:35:36:806
-9,766895	0,830563	0,297165	2020-11-19T14:35:36:830
-9,769815	0,818272	0,226972	2020-11-19T14:35:36:847
-9,773973	0,781581	0,170165	2020-11-19T14:35:36:870
-9,777350	0,744561	0,139425	2020-11-19T14:35:36:887
-9,780683	0,701673	0,127649	2020-11-19T14:35:36:911
-9,789006	0,584075	0,067784	2020-11-19T14:35:36:927
-9,795276	0,471841	0,017952	2020-11-19T14:35:36:949
-9,799735	0,367474	-0,023309	2020-11-19T14:35:36:967
-9,801989	0,300919	-0,029054	2020-11-19T14:35:36:991
-9,803988	0,225270	-0,037987	2020-11-19T14:35:37:007
-9,805581	0,120509	-0,080295	2020-11-19T14:35:37:030
-9,806090	0,059701	-0,086085	2020-11-19T14:35:37:047
-9,806331	0,062748	-0,048163	2020-11-19T14:35:37:071
-9,806327	0,078190	-0,014728	2020-11-19T14:35:37:087
-9,806095	0,100621	-0,027517	2020-11-19T14:35:37:110
-9,804258	0,216543	-0,003061	2020-11-19T14:35:37:127
-9,800215	0,349172	0,065234	2020-11-19T14:35:37:151
-9,794731	0,462787	0,139472	2020-11-19T14:35:37:168
-9,681373	1,479598	0,502199	2020-11-19T14:35:37:189
-9,679891	1,470248	0,555404	2020-11-19T14:35:37:207
-9,706915	1,267558	0,582652	2020-11-19T14:35:37:231
-9,755320	0,833742	0,555874	2020-11-19T14:35:37:247
-9,792319	0,234474	0,475273	2020-11-19T14:35:37:271
-9,792526	-0,408066	0,332099	2020-11-19T14:35:37:287
-9,751635	-1,031660	0,108093	2020-11-19T14:35:37:311
-9,667565	-1,622282	-0,277077	2020-11-19T14:35:37:327
-9,462091	-2,405262	-0,924078	2020-11-19T14:35:37:350
-9,100860	-3,204283	-1,754227	2020-11-19T14:35:37:367
-8,545234	-4,042477	-2,609167	2020-11-19T14:35:37:391
-7,819695	-4,861937	-3,374067	2020-11-19T14:35:37:408
-6,989000	-5,444923	-4,204411	2020-11-19T14:35:37:430
-6,421205	-5,625870	-4,825774	2020-11-19T14:35:37:447
-5,973870	-5,625345	-5,370173	2020-11-19T14:35:37:471
-5,390054	-5,512528	-6,060506	2020-11-19T14:35:37:487
-4,911139	-5,525782	-6,443356	2020-11-19T14:35:37:510
-4,743004	-5,571955	-6,528983	2020-11-19T14:35:37:527
-4,636395	-5,598851	-6,582332	2020-11-19T14:35:37:551
-4,609283	-5,636539	-6,569195	2020-11-19T14:35:37:568
-4,754982	-5,680072	-6,426298	2020-11-19T14:35:37:590
-5,042006	-5,719855	-6,166994	2020-11-19T14:35:37:607
-5,432527	-5,740620	-5,805456	2020-11-19T14:35:37:631
-5,869823	-5,715233	-5,389961	2020-11-19T14:35:37:648
-6,408465	-5,593277	-4,880288	2020-11-19T14:35:37:670
-6,949665	-5,376142	-4,355416	2020-11-19T14:35:37:687
-7,543164	-5,017604	-3,754292	2020-11-19T14:35:37:711
-8,104388	-4,541238	-3,141088	2020-11-19T14:35:37:727
-8,649640	-3,909364	-2,463937	2020-11-19T14:35:37:750
-9,142572	-3,098168	-1,727747	2020-11-19T14:35:37:768
-9,491687	-2,234996	-1,040704	2020-11-19T14:35:37:791
-9,705876	-1,341455	-0,408472	2020-11-19T14:35:37:808
-9,793792	-0,490278	0,107923	2020-11-19T14:35:37:830
-9,791774	0,259505	0,473503	2020-11-19T14:35:37:849
-9,748751	0,823444	0,673926	2020-11-19T14:35:37:872
-9,691269	1,280852	0,780453	2020-11-19T14:35:37:889
-9,649855	1,545575	0,813560	2020-11-19T14:35:37:910
-9,638372	1,620389	0,804049	2020-11-19T14:35:37:928
-9,664474	1,482531	0,755278	2020-11-19T14:35:37:951
-9,721673	1,108890	0,655605	2020-11-19T14:35:37:968
-9,777426	0,556835	0,512110	2020-11-19T14:35:37:990
-9,799402	-0,195278	0,322446	2020-11-19T14:35:38:008
-9,747961	-1,063002	0,132922	2020-11-19T14:35:38:031
-9,574124	-2,122543	-0,036540	2020-11-19T14:35:38:053
-9,266042	-3,208186	-0,135610	2020-11-19T14:35:38:072
-8,820595	-4,282771	-0,159281	2020-11-19T14:35:38:169
-8,315938	-5,196461	-0,111134	2020-11-19T14:35:38:169
-7,838766	-5,892718	-0,003495	2020-11-19T14:35:38:173
-7,488231	-6,330658	0,139781	2020-11-19T14:35:38:175
-7,262127	-6,581840	0,333567	2020-11-19T14:35:38:178
-7,122991	-6,722064	0,497234	2020-11-19T14:35:38:331
-6,996644	-6,843559	0,618916	2020-11-19T14:35:38:338
-6,868747	-6,963417	0,708193	2020-11-19T14:35:38:338
-6,739838	-7,081748	0,770596	2020-11-19T14:35:38:342
-6,618190	-7,190104	0,819974	2020-11-19T14:35:38:343
-6,518292	-7,275700	0,863969	2020-11-19T14:35:38:344
-6,443887	-7,336001	0,910928	2020-11-19T14:35:38:345
-6,367260	-7,394743	0,972704	2020-11-19T14:35:38:345
-6,314071	-7,430598	1,043602	2020-11-19T14:35:38:354
-6,267163	-7,458958	1,121160	2020-11-19T14:35:38:368
-6,227575	-7,483857	1,174555	2020-11-19T14:35:38:389
-6,149725	-7,545129	1,192598	2020-11-19T14:35:38:406
-6,060081	-7,617908	1,188812	2020-11-19T14:35:38:430
-6,088317	-7,590020	1,222447	2020-11-19T14:35:38:447
-6,190224	-7,491929	1,312447	2020-11-19T14:35:38:471
-6,348763	-7,334419	1,438709	2020-11-19T14:35:38:488
-6,592971	-7,081249	1,599694	2020-11-19T14:35:38:511
-6,877708	-6,768523	1,747742	2020-11-19T14:35:38:528
-7,191200	-6,402227	1,862394	2020-11-19T14:35:38:551
-7,492035	-6,024327	1,935787	2020-11-19T14:35:38:568
-7,816359	-5,584703	1,971298	2020-11-19T14:35:38:592
-8,061115	-5,224401	1,973434	2020-11-19T14:35:38:609
-8,328161	-4,794233	1,956387	2020-11-19T14:35:38:641
-8,545053	-4,413839	1,915849	2020-11-19T14:35:38:648
-8,741352	-4,040075	1,853897	2020-11-19T14:35:38:673
-8,875987	-3,774771	1,771536	2020-11-19T14:35:38:688
-8,994645	-3,525687	1,684124	2020-11-19T14:35:38:712
-9,088292	-3,318809	1,599634	2020-11-19T14:35:38:728
-9,157797	-3,165031	1,512518	2020-11-19T14:35:38:751
-9,194458	-3,098156	1,426099	2020-11-19T14:35:38:769
-9,194006	-3,137505	1,340412	2020-11-19T14:35:38:791
-9,126560	-3,381098	1,201855	2020-11-19T14:35:38:808
-8,985491	-3,796815	1,007740	2020-11-19T14:35:38:832
-8,849683	-4,149508	0,796923	2020-11-19T14:35:38:850
-8,824706	-4,232821	0,614957	2020-11-19T14:35:38:872
-8,892543	-4,104247	0,498214	2020-11-19T14:35:38:888
-9,000457	-3,872713	0,405283	2020-11-19T14:35:38:912
-9,140034	-3,539124	0,323683	2020-11-19T14:35:38:928
-9,310237	-3,070131	0,253308	2020-11-19T14:35:38:952
-9,525361	-2,321141	0,224030	2020-11-19T14:35:38:969
-9,698191	-1,439153	0,210507	2020-11-19T14:35:38:992
-9,796616	-0,391914	0,207636	2020-11-19T14:35:39:009
-9,778921	0,705603	0,212628	2020-11-19T14:35:39:032
-9,736031	1,159682	0,187690	2020-11-19T14:35:39:048
-9,696622	1,455956	0,161558	2020-11-19T14:35:39:073
-9,498303	2,434191	0,165291	2020-11-19T14:35:39:089
-9,770695	0,838567	0,026819	2020-11-19T14:35:39:111
-9,788160	0,601452	-0,023474	2020-11-19T14:35:39:129
-9,801699	0,303736	-0,069473	2020-11-19T14:35:39:152
-9,805774	-0,079947	-0,103914	2020-11-19T14:35:39:169
-9,789037	-0,576330	-0,114000	2020-11-19T14:35:39:192
-9,695524	-1,469279	-0,091725	2020-11-19T14:35:39:209
-8,940767	-4,028999	-0,015293	2020-11-19T14:35:39:232
-9,777359	-0,755008	0,059968	2020-11-19T14:35:39:249
-9,692819	-1,479045	0,179085	2020-11-19T14:35:39:272
-9,612150	-1,917570	0,316021	2020-11-19T14:35:39:289
-9,533466	-2,248981	0,474853	2020-11-19T14:35:39:312
-9,455923	-2,513116	0,663435	2020-11-19T14:35:39:330
-9,366388	-2,770319	0,875491	2020-11-19T14:35:39:351
-9,252150	-3,054003	1,114080	2020-11-19T14:35:39:369
-9,110386	-3,366948	1,354593	2020-11-19T14:35:39:393
-8,936607	-3,704008	1,608651	2020-11-19T14:35:39:409
-8,739045	-4,042597	1,859273	2020-11-19T14:35:39:432
-8,516418	-4,383741	2,103292	2020-11-19T14:35:39:449
-8,276571	-4,715652	2,330534	2020-11-19T14:35:39:473
-8,023492	-5,045287	2,517744	2020-11-19T14:35:39:489
-7,828337	-5,276662	2,654122	2020-11-19T14:35:39:511
-7,637014	-5,497269	2,761599	2020-11-19T14:35:39:529
-7,468337	-5,687792	2,836081	2020-11-19T14:35:39:553
-7,293303	-5,891594	2,875277	2020-11-19T14:35:39:572
-7,142258	-6,041470	2,942648	2020-11-19T14:35:39:592
-6,990015	-6,182357	3,014720	2020-11-19T14:35:39:610
-6,856508	-6,312621	3,051148	2020-11-19T14:35:39:633
-6,729854	-6,448501	3,048982	2020-11-19T14:35:39:649
-6,625731	-6,562769	3,033171	2020-11-19T14:35:39:672
-6,561779	-6,630464	3,024962	2020-11-19T14:35:39:689
-6,537097	-6,658088	3,017717	2020-11-19T14:35:39:713
-6,565660	-6,630977	3,015401	2020-11-19T14:35:39:729
-6,639973	-6,559136	3,009795	2020-11-19T14:35:39:752
-6,775973	-6,419077	3,008658	2020-11-19T14:35:39:769
-7,043890	-6,120067	3,016417	2020-11-19T14:35:39:793
-7,362131	-5,738694	3,006127	2020-11-19T14:35:39:811
-7,636977	-5,395956	2,954764	2020-11-19T14:35:39:832
-7,943634	-4,988609	2,860567	2020-11-19T14:35:39:850
-8,253236	-4,547000	2,716481	2020-11-19T14:35:39:873
-8,542157	-4,088061	2,547488	2020-11-19T14:35:39:890
-8,809393	-3,599100	2,368852	2020-11-19T14:35:39:913
-9,051899	-3,082546	2,175183	2020-11-19T14:35:39:929
-9,260602	-2,553448	1,972697	2020-11-19T14:35:39:953
-9,434949	-2,009127	1,765087	2020-11-19T14:35:39:970
-9,557240	-1,523773	1,583558	2020-11-19T14:35:39:992
-9,644031	-1,087336	1,407395	2020-11-19T14:35:40:009
-9,696877	-0,753267	1,254409	2020-11-19T14:35:40:033
-9,728838	-0,510319	1,122349	2020-11-19T14:35:40:050
-9,745139	-0,419570	1,013214	2020-11-19T14:35:40:072
-9,753194	-0,414608	0,934720	2020-11-19T14:35:40:091
-9,753855	-0,508685	0,879744	2020-11-19T14:35:40:113
-9,744551	-0,716505	0,837105	2020-11-19T14:35:40:129
-9,719806	-1,028086	0,799248	2020-11-19T14:35:40:152
-9,674048	-1,415270	0,761698	2020-11-19T14:35:40:170
-9,613776	-1,798392	0,715170	2020-11-19T14:35:40:193
-9,536367	-2,191724	0,651476	2020-11-19T14:35:40:210
-9,443967	-2,576964	0,584060	2020-11-19T14:35:40:232
-9,363581	-2,865672	0,530727	2020-11-19T14:35:40:250
-9,322907	-3,000720	0,499457	2020-11-19T14:35:40:274
-9,296820	-3,083980	0,478112	2020-11-19T14:35:40:291
-9,245974	-3,237049	0,451516	2020-11-19T14:35:40:312
-9,176962	-3,431083	0,425933	2020-11-19T14:35:40:330
-9,121728	-3,577038	0,411413	2020-11-19T14:35:40:353
-9,056233	-3,745637	0,353868	2020-11-19T14:35:40:370
-9,038803	-3,790397	0,321434	2020-11-19T14:35:40:393
-9,078264	-3,695840	0,310286	2020-11-19T14:35:40:410
-9,237206	-3,278039	0,314431	2020-11-19T14:35:40:433
-9,480256	-2,488286	0,321819	2020-11-19T14:35:40:451
-9,637599	-1,781314	0,337609	2020-11-19T14:35:40:474
-9,677537	-1,543298	0,365910	2020-11-19T14:35:40:490
-9,678351	-1,522985	0,424760	2020-11-19T14:35:40:514
-9,650712	-1,664721	0,512692	2020-11-19T14:35:40:532
-9,601010	-1,897184	0,625842	2020-11-19T14:35:40:553
-9,530747	-2,179988	0,763476	2020-11-19T14:35:40:574
-9,458421	-2,426526	0,905891	2020-11-19T14:35:40:595
-9,378774	-2,657417	1,071037	2020-11-19T14:35:40:610
-9,291038	-2,874071	1,259650	2020-11-19T14:35:40:634
-9,190652	-3,086969	1,474085	2020-11-19T14:35:40:650
-9,076222	-3,294888	1,713560	2020-11-19T14:35:40:674
-8,949923	-3,495004	1,963213	2020-11-19T14:35:40:691
-8,800963	-3,714773	2,216730	2020-11-19T14:35:40:713
-8,630013	-3,950528	2,467102	2020-11-19T14:35:40:730
-8,444800	-4,199702	2,686677	2020-11-19T14:35:40:754
-8,288436	-4,406789	2,837677	2020-11-19T14:35:40:772
-8,138350	-4,610588	2,946203	2020-11-19T14:35:40:793
-7,990332	-4,800652	3,046102	2020-11-19T14:35:40:811
-7,862029	-4,943709	3,149384	2020-11-19T14:35:40:834
-7,701057	-5,112364	3,275337	2020-11-19T14:35:40:851
-7,558714	-5,246796	3,392250	2020-11-19T14:35:40:874
-7,435433	-5,354720	3,494523	2020-11-19T14:35:40:891
-7,332768	-5,436290	3,584362	2020-11-19T14:35:40:914
-7,246953	-5,496132	3,666686	2020-11-19T14:35:40:931
-7,182513	-5,545067	3,719425	2020-11-19T14:35:40:954
-7,134728	-5,589704	3,744496	2020-11-19T14:35:40:971
-7,121336	-5,598165	3,757327	2020-11-19T14:35:40:994
-7,140489	-5,575649	3,754457	2020-11-19T14:35:41:012
-7,188909	-5,532700	3,725482	2020-11-19T14:35:41:033
-7,266065	-5,473768	3,662314	2020-11-19T14:35:41:050
-7,415285	-5,341993	3,556268	2020-11-19T14:35:41:075
-7,591467	-5,161936	3,448830	2020-11-19T14:35:41:091
-7,792199	-4,942822	3,319717	2020-11-19T14:35:41:113
-7,993497	-4,725447	3,153496	2020-11-19T14:35:41:131
-8,188582	-4,501660	2,975325	2020-11-19T14:35:41:154
-8,394316	-4,225634	2,801762	2020-11-19T14:35:41:172
-8,600452	-3,904750	2,637335	2020-11-19T14:35:41:193
-8,810225	-3,535891	2,459223	2020-11-19T14:35:41:211
-8,990588	-3,180791	2,285228	2020-11-19T14:35:41:234
-9,147815	-2,831867	2,113859	2020-11-19T14:35:41:252
-9,280958	-2,500507	1,944652	2020-11-19T14:35:41:274
-9,381407	-2,224412	1,792091	2020-11-19T14:35:41:291
-9,453771	-2,010371	1,659825	2020-11-19T14:35:41:314
-9,503012	-1,861477	1,548568	2020-11-19T14:35:41:332
-9,529461	-1,795783	1,461136	2020-11-19T14:35:41:355
-9,524568	-1,882452	1,381802	2020-11-19T14:35:41:371
-9,493536	-2,080588	1,309316	2020-11-19T14:35:41:394
-9,433980	-2,380218	1,226774	2020-11-19T14:35:41:411
-9,334340	-2,792467	1,114719	2020-11-19T14:35:41:435
-9,245853	-3,108676	1,010302	2020-11-19T14:35:41:451
-9,168104	-3,367076	0,882639	2020-11-19T14:35:41:477
-9,146309	-3,454419	0,763152	2020-11-19T14:35:41:493
-9,160506	-3,430970	0,695664	2020-11-19T14:35:41:513
-9,193799	-3,353833	0,629479	2020-11-19T14:35:41:531
-9,250909	-3,205495	0,562032	2020-11-19T14:35:41:554
-9,317503	-3,017226	0,500866	2020-11-19T14:35:41:571
-9,357540	-2,898962	0,450386	2020-11-19T14:35:41:594
-9,349771	-2,930463	0,405635	2020-11-19T14:35:41:611
-9,314860	-3,045339	0,360090	2020-11-19T14:35:41:635
-9,267485	-3,191766	0,311034	2020-11-19T14:35:41:652
-9,199380	-3,387144	0,262778	2020-11-19T14:35:41:674
-9,089108	-3,675311	0,224954	2020-11-19T14:35:41:691
-9,087399	-3,681405	0,191921	2020-11-19T14:35:41:715
-9,061045	-3,747211	0,162053	2020-11-19T14:35:41:732
-8,998471	-3,895988	0,138457	2020-11-19T14:35:41:754
-8,852278	-4,217953	0,128231	2020-11-19T14:35:41:772
-8,647285	-4,623336	0,140023	2020-11-19T14:35:41:795
-8,409338	-5,042057	0,176307	2020-11-19T14:35:41:811
-8,232011	-5,323439	0,255687	2020-11-19T14:35:41:834
-8,283296	-5,234892	0,391544	2020-11-19T14:35:41:852
-8,534704	-4,798093	0,554540	2020-11-19T14:35:41:875
-8,751592	-4,367264	0,712065	2020-11-19T14:35:41:892
-8,860126	-4,112415	0,869830	2020-11-19T14:35:41:914
-8,892661	-3,997817	1,052820	2020-11-19T14:35:41:932
-8,873658	-3,981123	1,256674	2020-11-19T14:35:41:955
-8,817193	-4,027758	1,484808	2020-11-19T14:35:41:973
-8,723390	-4,138485	1,716333	2020-11-19T14:35:41:994
-8,593535	-4,300465	1,956409	2020-11-19T14:35:42:012
-8,483566	-4,408037	2,183737	2020-11-19T14:35:42:035
-8,348827	-4,560865	2,380329	2020-11-19T14:35:42:051
-8,167166	-4,791955	2,550482	2020-11-19T14:35:42:076
-8,018250	-4,995506	2,631155	2020-11-19T14:35:42:092
-7,843637	-5,241644	2,678229	2020-11-19T14:35:42:115
-7,635081	-5,513369	2,734718	2020-11-19T14:35:42:132
-7,457849	-5,736780	2,764096	2020-11-19T14:35:42:154
-7,306726	-5,918355	2,784819	2020-11-19T14:35:42:172
-7,200316	-6,038276	2,804470	2020-11-19T14:35:42:195
-7,123809	-6,119777	2,823130	2020-11-19T14:35:42:213
-7,069862	-6,180110	2,827307	2020-11-19T14:35:42:234
-7,033954	-6,225560	2,817139	2020-11-19T14:35:42:252
-7,014870	-6,260392	2,787377	2020-11-19T14:35:42:275
-7,019354	-6,272227	2,749220	2020-11-19T14:35:42:292
-7,062374	-6,239655	2,712928	2020-11-19T14:35:42:315
-7,148747	-6,155473	2,678795	2020-11-19T14:35:42:332
-7,277283	-6,019026	2,642512	2020-11-19T14:35:42:355
-7,518373	-5,737382	2,593627	2020-11-19T14:35:42:373
-7,783105	-5,399000	2,538594	2020-11-19T14:35:42:395
-8,017397	-5,086769	2,452858	2020-11-19T14:35:42:412
-8,267304	-4,728609	2,337162	2020-11-19T14:35:42:436
-8,549602	-4,277040	2,186693	2020-11-19T14:35:42:453
-8,829221	-3,759120	2,020957	2020-11-19T14:35:42:475
-9,075262	-3,208241	1,875417	2020-11-19T14:35:42:492
-9,286107	-2,622705	1,749289	2020-11-19T14:35:42:514
-9,450998	-2,052386	1,623798	2020-11-19T14:35:42:532
-9,558132	-1,575378	1,526654	2020-11-19T14:35:42:555
-9,641465	-1,143162	1,380473	2020-11-19T14:35:42:572
-9,700307	-0,793566	1,201953	2020-11-19T14:35:42:595
-9,742240	-0,506638	1,001232	2020-11-19T14:35:42:612
-9,765768	-0,308360	0,839689	2020-11-19T14:35:42:635
-9,777698	-0,196860	0,726815	2020-11-19T14:35:42:652
-9,781457	-0,192207	0,675680	2020-11-19T14:35:42:676
-9,780337	-0,247354	0,673950	2020-11-19T14:35:42:693
-9,772949	-0,390271	0,712416	2020-11-19T14:35:42:714
-9,756536	-0,616444	0,774853	2020-11-19T14:35:42:732
-9,725104	-0,950181	0,830598	2020-11-19T14:35:42:755
-9,660397	-1,426085	0,901885	2020-11-19T14:35:42:772
-9,551307	-1,999072	0,972954	2020-11-19T14:35:42:795
-9,399165	-2,601313	1,029196	2020-11-19T14:35:42:812
-9,219881	-3,173431	1,045712	2020-11-19T14:35:42:835
-8,994495	-3,770873	1,024670	2020-11-19T14:35:42:853
-8,823048	-4,156769	1,022490	2020-11-19T14:35:42:875
-8,704027	-4,395200	1,045228	2020-11-19T14:35:42:892
-8,603243	-4,584573	1,065964	2020-11-19T14:35:42:915
-8,494805	-4,782635	1,065394	2020-11-19T14:35:42:933
-8,398926	-4,945026	1,084039	2020-11-19T14:35:42:955
-8,327928	-5,054458	1,126258	2020-11-19T14:35:42:973
-8,274642	-5,129793	1,177244	2020-11-19T14:35:42:995
-8,204928	-5,239363	1,182629	2020-11-19T14:35:43:012
-8,147627	-5,326524	1,189413	2020-11-19T14:35:43:036
-8,107572	-5,384639	1,201384	2020-11-19T14:35:43:052
-8,092921	-5,398902	1,235664	2020-11-19T14:35:43:076
-8,102612	-5,366991	1,308997	2020-11-19T14:35:43:093
-8,114126	-5,324204	1,408613	2020-11-19T14:35:43:116
-8,115638	-5,295037	1,506451	2020-11-19T14:35:43:132
-8,102283	-5,290235	1,592735	2020-11-19T14:35:43:166
-8,083437	-5,289786	1,687186	2020-11-19T14:35:43:174
-8,077164	-5,264749	1,792272	2020-11-19T14:35:43:195
-8,082086	-5,214677	1,912438	2020-11-19T14:35:43:213
-8,131262	-5,078660	2,064021	2020-11-19T14:35:43:236
-8,148122	-5,001290	2,183023	2020-11-19T14:35:43:253
-8,143231	-4,962627	2,287027	2020-11-19T14:35:43:276
-8,131118	-4,929126	2,399796	2020-11-19T14:35:43:293
-8,125832	-4,877491	2,520185	2020-11-19T14:35:43:315
-8,113643	-4,855201	2,601192	2020-11-19T14:35:43:334
-8,046613	-4,935879	2,656973	2020-11-19T14:35:43:358
-7,962762	-5,046975	2,700526	2020-11-19T14:35:43:373
-7,869689	-5,173887	2,732998	2020-11-19T14:35:43:396
-7,808944	-5,258053	2,746571	2020-11-19T14:35:43:414
-7,736576	-5,357124	2,759893	2020-11-19T14:35:43:435
-7,593371	-5,556958	2,762483	2020-11-19T14:35:43:453
-7,437657	-5,764495	2,760839	2020-11-19T14:35:43:476
-7,286341	-5,945813	2,779737	2020-11-19T14:35:43:493
-7,148913	-6,081656	2,841986	2020-11-19T14:35:43:516
-7,066697	-6,136294	2,928834	2020-11-19T14:35:43:533
-7,064935	-6,087173	3,033712	2020-11-19T14:35:43:556
-7,127287	-5,894051	3,260724	2020-11-19T14:35:43:573
-7,212162	-5,635921	3,520157	2020-11-19T14:35:43:596
-7,285067	-5,388625	3,749788	2020-11-19T14:35:43:613
-7,363064	-5,132001	3,951991	2020-11-19T14:35:43:636
-7,457726	-4,884498	4,085877	2020-11-19T14:35:43:654
-7,584237	-4,640836	4,136711	2020-11-19T14:35:43:676
-7,736105	-4,417899	4,099418	2020-11-19T14:35:43:693
-7,913288	-4,196916	3,992012	2020-11-19T14:35:43:716
-8,158131	-3,904613	3,790683	2020-11-19T14:35:43:733
-8,428562	-3,634255	3,452812	2020-11-19T14:35:43:756
-8,669585	-3,359920	3,117630	2020-11-19T14:35:43:773
-8,878565	-3,070116	2,813514	2020-11-19T14:35:43:796
-9,056126	-2,766958	2,549690	2020-11-19T14:35:43:813
-9,192380	-2,491371	2,337435	2020-11-19T14:35:43:836
-9,308909	-2,225997	2,135306	2020-11-19T14:35:43:854
-9,406516	-1,981600	1,939355	2020-11-19T14:35:43:876
-9,483026	-1,760694	1,772727	2020-11-19T14:35:43:894
-9,540821	-1,572034	1,634571	2020-11-19T14:35:43:916
-9,578755	-1,441093	1,530059	2020-11-19T14:35:43:933
-9,605068	-1,353559	1,442539	2020-11-19T14:35:43:956
-9,618491	-1,326468	1,376770	2020-11-19T14:35:43:973
-9,616461	-1,382150	1,335559	2020-11-19T14:35:43:996
-9,603553	-1,499947	1,300892	2020-11-19T14:35:44:013
-9,581895	-1,662518	1,262422	2020-11-19T14:35:44:036
-9,550631	-1,864359	1,216552	2020-11-19T14:35:44:053
-9,509906	-2,087856	1,171720	2020-11-19T14:35:44:076
-9,463747	-2,311688	1,124266	2020-11-19T14:35:44:093
-9,422776	-2,497346	1,070013	2020-11-19T14:35:44:117
-9,389880	-2,643741	1,005572	2020-11-19T14:35:44:135
-9,378656	-2,698075	0,965187	2020-11-19T14:35:44:156
-9,386809	-2,684920	0,921624	2020-11-19T14:35:44:174
-9,408668	-2,619752	0,885583	2020-11-19T14:35:44:196
-9,434854	-2,533026	0,858895	2020-11-19T14:35:44:213
-9,459058	-2,445397	0,846550	2020-11-19T14:35:44:236
-9,492354	-2,315022	0,840397	2020-11-19T14:35:44:253
-9,531162	-2,152632	0,832768	2020-11-19T14:35:44:277
-9,572646	-1,976247	0,793269	2020-11-19T14:35:44:294
-9,606322	-1,818286	0,763411	2020-11-19T14:35:44:316
-9,631333	-1,688281	0,746666	2020-11-19T14:35:44:334
-9,643110	-1,619455	0,747109	2020-11-19T14:35:44:357
-9,643924	-1,606842	0,763657	2020-11-19T14:35:44:376
-9,638351	-1,626481	0,791911	2020-11-19T14:35:44:397
-9,624911	-1,684385	0,833254	2020-11-19T14:35:44:416
-9,598341	-1,802200	0,891238	2020-11-19T14:35:44:437
-9,554053	-1,988997	0,966615	2020-11-19T14:35:44:453
-9,484701	-2,252390	1,066566	2020-11-19T14:35:44:477
-9,390756	-2,562133	1,191456	2020-11-19T14:35:44:494
-9,271830	-2,900957	1,337164	2020-11-19T14:35:44:517
-9,128594	-3,259957	1,487220	2020-11-19T14:35:44:534
-8,958557	-3,636852	1,639495	2020-11-19T14:35:44:557
-8,819884	-3,909702	1,759049	2020-11-19T14:35:44:574
-8,662918	-4,184519	1,901064	2020-11-19T14:35:44:597
-8,490661	-4,453835	2,059712	2020-11-19T14:35:44:614
-8,298616	-4,731475	2,217315	2020-11-19T14:35:44:637
-8,078152	-5,031753	2,365441	2020-11-19T14:35:44:654
-7,829839	-5,351631	2,494805	2020-11-19T14:35:44:677
-7,564858	-5,675277	2,595099	2020-11-19T14:35:44:694
-7,288498	-5,998652	2,657887	2020-11-19T14:35:44:717
-7,083187	-6,229869	2,680967	2020-11-19T14:35:44:734
-6,911620	-6,414017	2,694490	2020-11-19T14:35:44:757
-6,771837	-6,554848	2,710457	2020-11-19T14:35:44:775
-6,673517	-6,640514	2,745565	2020-11-19T14:35:44:798
-6,633820	-6,660215	2,793627	2020-11-19T14:35:44:814
-6,547420	-6,705638	2,887230	2020-11-19T14:35:44:837
-6,484757	-6,728632	2,973855	2020-11-19T14:35:44:856
-6,444537	-6,735299	3,045338	2020-11-19T14:35:44:877
-6,410425	-6,750738	3,082917	2020-11-19T14:35:44:894
-6,384269	-6,770494	3,093850	2020-11-19T14:35:44:917
-6,367597	-6,790071	3,085294	2020-11-19T14:35:44:934
-6,362849	-6,809572	3,051929	2020-11-19T14:35:44:957
-6,370874	-6,825809	2,998446	2020-11-19T14:35:44:975
-6,394596	-6,826696	2,945463	2020-11-19T14:35:44:997
-6,457630	-6,788367	2,896112	2020-11-19T14:35:45:015
-6,543387	-6,725927	2,848925	2020-11-19T14:35:45:037
-6,659536	-6,633122	2,796900	2020-11-19T14:35:45:054
-6,815444	-6,493174	2,749326	2020-11-19T14:35:45:078
-7,079956	-6,215456	2,722630	2020-11-19T14:35:45:096
-7,316877	-5,943540	2,703335	2020-11-19T14:35:45:117
-7,556359	-5,666992	2,637617	2020-11-19T14:35:45:135
-7,796971	-5,384307	2,527225	2020-11-19T14:35:45:157
-8,046845	-5,073056	2,383854	2020-11-19T14:35:45:175
-8,285545	-4,744340	2,238607	2020-11-19T14:35:45:197
-8,533344	-4,353446	2,097599	2020-11-19T14:35:45:214
-8,794280	-3,855076	1,992336	2020-11-19T14:35:45:237
-9,073890	-3,170817	1,944436	2020-11-19T14:35:45:255
-9,317535	-2,335052	1,975208	2020-11-19T14:35:45:277
-9,481956	-1,397088	2,076307	2020-11-19T14:35:45:295
-9,540597	-0,421636	2,229262	2020-11-19T14:35:45:317
-9,487768	0,557686	2,416947	2020-11-19T14:35:45:336
-9,296927	1,626059	2,663356	2020-11-19T14:35:45:358
-9,061356	2,397094	2,883774	2020-11-19T14:35:45:375
-8,755096	3,096766	3,150985	2020-11-19T14:35:45:397
-8,422774	3,646686	3,453830	2020-11-19T14:35:45:415
-8,108828	4,028233	3,767047	2020-11-19T14:35:45:438
-7,841186	4,249155	4,078096	2020-11-19T14:35:45:455
-7,856276	4,106090	4,193964	2020-11-19T14:35:45:478
-7,865553	3,975452	4,301075	2020-11-19T14:35:45:495
-7,896884	3,826374	4,378181	2020-11-19T14:35:45:517
-7,994943	3,604361	4,388606	2020-11-19T14:35:45:535
-8,167863	3,312248	4,299466	2020-11-19T14:35:45:558
-8,417335	2,934773	4,087294	2020-11-19T14:35:45:576
-8,681020	2,533521	3,793620	2020-11-19T14:35:45:598
-8,736237	2,396732	3,755559	2020-11-19T14:35:45:615
-8,784242	2,277599	3,717530	2020-11-19T14:35:45:638
-8,825753	2,176021	3,679863	2020-11-19T14:35:45:655
-8,865463	2,090466	3,633717	2020-11-19T14:35:45:678
-8,900529	2,030803	3,581454	2020-11-19T14:35:45:695
-9,107390	1,735736	3,195785	2020-11-19T14:35:45:718
-9,249348	1,525071	2,879949	2020-11-19T14:35:45:735
-9,328566	1,432498	2,663870	2020-11-19T14:35:45:758
-9,373439	1,429147	2,503312	2020-11-19T14:35:45:776
-9,265284	1,762657	2,686622	2020-11-19T14:35:45:798
-9,117702	2,138804	2,909194	2020-11-19T14:35:45:816
-8,959405	2,486963	3,116804	2020-11-19T14:35:45:838
-8,781546	2,811025	3,339608	2020-11-19T14:35:45:856
-8,611680	3,066749	3,550269	2020-11-19T14:35:45:878
-8,475812	3,253752	3,707303	2020-11-19T14:35:45:895
-8,430321	3,342480	3,732011	2020-11-19T14:35:45:918
-8,510576	3,300947	3,583884	2020-11-19T14:35:45:935
-8,692243	3,133317	3,285974	2020-11-19T14:35:45:958
-8,932846	2,840063	2,882478	2020-11-19T14:35:45:976
-9,164388	2,461596	2,474859	2020-11-19T14:35:45:998
-9,386432	1,959547	2,055593	2020-11-19T14:35:46:015
-9,558365	1,413005	1,676744	2020-11-19T14:35:46:038
-9,685394	0,795226	1,315729	2020-11-19T14:35:46:057
-9,764214	-0,059491	0,909383	2020-11-19T14:35:46:078
-9,717045	-1,262635	0,393918	2020-11-19T14:35:46:096
-9,511828	-2,385996	-0,050239	2020-11-19T14:35:46:118
-9,267176	-3,187390	-0,361080	2020-11-19T14:35:46:136
-8,953751	-3,947695	-0,645321	2020-11-19T14:35:46:158
-8,566604	-4,690740	-0,883543	2020-11-19T14:35:46:176
-8,075272	-5,463615	-1,053225	2020-11-19T14:35:46:198
-7,627808	-6,053690	-1,157486	2020-11-19T14:35:46:216
-7,185373	-6,567426	-1,187311	2020-11-19T14:35:46:238
-6,670508	-7,104937	-1,092968	2020-11-19T14:35:46:256
-6,207834	-7,536267	-0,915347	2020-11-19T14:35:46:279
-5,827250	-7,856041	-0,704383	2020-11-19T14:35:46:296
-5,561226	-8,063610	-0,470460	2020-11-19T14:35:46:318
-5,421953	-8,168234	-0,229710	2020-11-19T14:35:46:336
-5,398317	-8,187096	-0,004474	2020-11-19T14:35:46:359
-5,353839	-8,215081	0,138656	2020-11-19T14:35:46:376
-5,336948	-8,222794	0,270248	2020-11-19T14:35:46:399
-5,319032	-8,231551	0,346196	2020-11-19T14:35:46:416
-5,256588	-8,269497	0,392532	2020-11-19T14:35:46:438
-5,119519	-8,355699	0,378434	2020-11-19T14:35:46:456
-4,896597	-8,492373	0,270759	2020-11-19T14:35:46:479
-4,582662	-8,669909	0,047769	2020-11-19T14:35:46:496
-4,313109	-8,805845	-0,156704	2020-11-19T14:35:46:520
-4,229085	-8,844350	-0,250384	2020-11-19T14:35:46:537
-4,333601	-8,795027	-0,194386	2020-11-19T14:35:46:558
-4,647336	-8,635528	-0,017722	2020-11-19T14:35:46:576
-5,329850	-8,228642	0,229185	2020-11-19T14:35:46:598
-6,632197	-7,206238	0,504456	2020-11-19T14:35:46:616
-7,712966	-6,017807	0,683033	2020-11-19T14:35:46:639
-8,192711	-5,331365	0,791467	2020-11-19T14:35:46:656
-8,369201	-5,034629	0,882822	2020-11-19T14:35:46:679
-8,434542	-4,906594	0,976844	2020-11-19T14:35:46:696
-8,446011	-4,873894	1,039445	2020-11-19T14:35:46:719
-8,404992	-4,939449	1,062230	2020-11-19T14:35:46:736
-8,330678	-5,062812	1,066828	2020-11-19T14:35:46:759
-8,242407	-5,203853	1,073793	2020-11-19T14:35:46:777
-8,180030	-5,299319	1,083838	2020-11-19T14:35:46:798
-8,128179	-5,372085	1,115253	2020-11-19T14:35:46:816
-8,105917	-5,396444	1,158834	2020-11-19T14:35:46:839
-8,145595	-5,321321	1,226057	2020-11-19T14:35:46:856
-8,249706	-5,144642	1,282726	2020-11-19T14:35:46:879
-8,353417	-4,958203	1,344254	2020-11-19T14:35:46:897
-8,447656	-4,778938	1,403296	2020-11-19T14:35:46:919
-8,541600	-4,594296	1,450483	2020-11-19T14:35:46:937
-8,624188	-4,427913	1,478965	2020-11-19T14:35:46:959
-8,692966	-4,286562	1,492690	2020-11-19T14:35:46:976
-8,748673	-4,173630	1,487249	2020-11-19T14:35:46:999
-8,766577	-4,115233	1,543495	2020-11-19T14:35:47:017
-8,804108	-4,034536	1,542919	2020-11-19T14:35:47:039
-8,856200	-3,932288	1,508380	2020-11-19T14:35:47:056
-8,883490	-3,864293	1,523564	2020-11-19T14:35:47:079
-8,880818	-3,852414	1,568552	2020-11-19T14:35:47:096
-8,865298	-3,844065	1,673331	2020-11-19T14:35:47:119
-8,858443	-3,807381	1,789475	2020-11-19T14:35:47:136
-8,856678	-3,793448	1,827397	2020-11-19T14:35:47:159
-8,845346	-3,800001	1,868214	2020-11-19T14:35:47:177
-8,828405	-3,815991	1,915166	2020-11-19T14:35:47:199
-8,801715	-3,850224	1,968748	2020-11-19T14:35:47:217
-8,770223	-3,905319	2,000517	2020-11-19T14:35:47:239
-8,725424	-3,989875	2,029352	2020-11-19T14:35:47:257
-8,667883	-4,098437	2,059370	2020-11-19T14:35:47:280
-8,619040	-4,204696	2,050134	2020-11-19T14:35:47:299
-8,573565	-4,315092	2,011058	2020-11-19T14:35:47:320
-8,531457	-4,411840	1,979975	2020-11-19T14:35:47:336
-8,484580	-4,508638	1,963279	2020-11-19T14:35:47:360
-8,438490	-4,598399	1,953716	2020-11-19T14:35:47:377
-8,372995	-4,718213	1,949821	2020-11-19T14:35:47:400
-8,303485	-4,831659	1,969158	2020-11-19T14:35:47:417
-8,233428	-4,936291	2,003514	2020-11-19T14:35:47:440
-8,185899	-5,000299	2,039228	2020-11-19T14:35:47:457
-8,141465	-5,055103	2,081553	2020-11-19T14:35:47:480
-8,100425	-5,094545	2,144554	2020-11-19T14:35:47:497
-8,072849	-5,111268	2,207810	2020-11-19T14:35:47:519
-1,060303	-8,917599	3,939870	2020-11-19T14:35:47:537
-0,973274	-8,874795	4,057233	2020-11-19T14:35:47:560
-0,923814	-8,822657	4,180631	2020-11-19T14:35:47:577
-0,890962	-8,755442	4,326524	2020-11-19T14:35:47:600
-0,960980	-8,675219	4,470737	2020-11-19T14:35:47:617
-8,115592	-4,839361	2,624526	2020-11-19T14:35:47:640
-8,106347	-4,791420	2,738581	2020-11-19T14:35:47:657
-8,092927	-4,753184	2,842914	2020-11-19T14:35:47:680
-8,071586	-4,730384	2,939960	2020-11-19T14:35:47:697
-8,037751	-4,723874	3,041373	2020-11-19T14:35:47:720
-7,997581	-4,719844	3,151531	2020-11-19T14:35:47:738
-7,966819	-4,699139	3,258568	2020-11-19T14:35:47:760
-7,948619	-4,669489	3,344504	2020-11-19T14:35:47:777
-7,973555	-4,559128	3,436154	2020-11-19T14:35:47:800
-8,024933	-4,391358	3,533667	2020-11-19T14:35:47:817
-8,096036	-4,189622	3,615473	2020-11-19T14:35:47:840
-8,177683	-4,035822	3,606663	2020-11-19T14:35:47:857
-8,298247	-3,874213	3,507129	2020-11-19T14:35:47:880
-8,444175	-3,715389	3,325987	2020-11-19T14:35:47:897
-8,580770	-3,556757	3,144876	2020-11-19T14:35:47:919
-8,715439	-3,377753	2,966866	2020-11-19T14:35:47:937
-8,840030	-3,203266	2,786279	2020-11-19T14:35:47:960
-8,954654	-3,035463	2,602023	2020-11-19T14:35:47:978
-9,046902	-2,887447	2,446753	2020-11-19T14:35:47:999
-9,119031	-2,774072	2,306120	2020-11-19T14:35:48:017
-9,173063	-2,695393	2,181776	2020-11-19T14:35:48:040
-9,219209	-2,642095	2,048391	2020-11-19T14:35:48:057
-9,258299	-2,600292	1,921659	2020-11-19T14:35:48:081
-9,286510	-2,580669	1,808659	2020-11-19T14:35:48:097
-9,310372	-2,568677	1,699780	2020-11-19T14:35:48:120
-9,326692	-2,556708	1,626793	2020-11-19T14:35:48:138
-9,336027	-2,568622	1,552790	2020-11-19T14:35:48:160
-9,325028	-2,683696	1,418453	2020-11-19T14:35:48:178
-9,263883	-2,954831	1,272728	2020-11-19T14:35:48:201
-9,152607	-3,332387	1,138138	2020-11-19T14:35:48:219
-9,007234	-3,745151	1,006965	2020-11-19T14:35:48:240
-8,887252	-4,053466	0,869805	2020-11-19T14:35:48:257
-8,840820	-4,180477	0,730675	2020-11-19T14:35:48:281
-8,901791	-4,066241	0,627845	2020-11-19T14:35:48:297
-9,014080	-3,820293	0,567539	2020-11-19T14:35:48:319
-9,182706	-3,398291	0,547640	2020-11-19T14:35:48:337
-9,308430	-3,038818	0,537678	2020-11-19T14:35:48:360
-9,407246	-2,719826	0,525981	2020-11-19T14:35:48:378
-9,477242	-2,468786	0,507328	2020-11-19T14:35:48:400
-9,544730	-2,201137	0,472775	2020-11-19T14:35:48:417
-9,594251	-1,985083	0,424490	2020-11-19T14:35:48:441
-9,623191	-1,851178	0,371106	2020-11-19T14:35:48:460
-9,538926	-2,251047	0,334745	2020-11-19T14:35:48:481
-9,381840	-2,833258	0,352292	2020-11-19T14:35:48:498
-9,332385	-2,983323	0,420417	2020-11-19T14:35:48:521
-9,449619	-2,576505	0,486528	2020-11-19T14:35:48:538
-9,595490	-1,954534	0,526070	2020-11-19T14:35:48:561
-9,661609	-1,583768	0,561590	2020-11-19T14:35:48:578
-9,665199	-1,540153	0,618257	2020-11-19T14:35:48:601
-9,634447	-1,686757	0,708983	2020-11-19T14:35:48:618
-9,578292	-1,928657	0,840825	2020-11-19T14:35:48:641
-9,498614	-2,215017	1,020001	2020-11-19T14:35:48:658
-9,392042	-2,528321	1,252010	2020-11-19T14:35:48:681
-9,264367	-2,832523	1,522729	2020-11-19T14:35:48:699
-9,105873	-3,143687	1,835946	2020-11-19T14:35:48:720
-8,925012	-3,449778	2,147927	2020-11-19T14:35:48:738
-8,725643	-3,750264	2,443163	2020-11-19T14:35:48:761
-8,523194	-4,029623	2,699571	2020-11-19T14:35:48:778
-8,374231	-4,254419	2,818255	2020-11-19T14:35:48:801
-8,238716	-4,469419	2,884135	2020-11-19T14:35:48:818
-8,113724	-4,673826	2,914314	2020-11-19T14:35:48:841
-7,953849	-4,886684	3,004495	2020-11-19T14:35:48:859
-7,813575	-5,069540	3,068907	2020-11-19T14:35:48:881
-7,694710	-5,224791	3,108597	2020-11-19T14:35:48:898
-7,594625	-5,354886	3,133251	2020-11-19T14:35:48:921
-7,519854	-5,453340	3,143767	2020-11-19T14:35:48:940
-7,470180	-5,524314	3,138271	2020-11-19T14:35:48:961
-7,447490	-5,571986	3,107773	2020-11-19T14:35:48:979
-7,452799	-5,597135	3,049303	2020-11-19T14:35:49:001
-7,546678	-5,567652	2,866929	2020-11-19T14:35:49:018
-7,657858	-5,507746	2,681853	2020-11-19T14:35:49:041
-7,788936	-5,403358	2,511292	2020-11-19T14:35:49:058
-7,947505	-5,252352	2,328165	2020-11-19T14:35:49:082
-8,060034	-5,144763	2,176615	2020-11-19T14:35:49:099
-8,167377	-5,019174	2,066935	2020-11-19T14:35:49:122
-8,281717	-4,856699	1,999001	2020-11-19T14:35:49:138
-8,439283	-4,620852	1,896472	2020-11-19T14:35:49:161
-8,597181	-4,356804	1,810284	2020-11-19T14:35:49:180
-8,746910	-4,083161	1,729087	2020-11-19T14:35:49:201
-8,883309	-3,811094	1,653105	2020-11-19T14:35:49:219
-8,980968	-3,584388	1,632406	2020-11-19T14:35:49:242
-9,035888	-3,425911	1,669204	2020-11-19T14:35:49:258
-9,043238	-3,325980	1,824305	2020-11-19T14:35:49:282
-9,020107	-3,300612	1,978386	2020-11-19T14:35:49:299
-8,974804	-3,327939	2,132626	2020-11-19T14:35:49:321
-8,944890	-3,362805	2,202471	2020-11-19T14:35:49:339
-8,904849	-3,418971	2,276991	2020-11-19T14:35:49:361
-8,855702	-3,484853	2,367008	2020-11-19T14:35:49:379
-8,806866	-3,543118	2,460855	2020-11-19T14:35:49:401
-8,763835	-3,595775	2,536924	2020-11-19T14:35:49:420
-8,733600	-3,649078	2,564927	2020-11-19T14:35:49:441
-8,719461	-3,697430	2,543694	2020-11-19T14:35:49:459
-8,713642	-3,744048	2,494983	2020-11-19T14:35:49:482
-8,710912	-3,787732	2,437927	2020-11-19T14:35:49:499
-8,716570	-3,825886	2,356776	2020-11-19T14:35:49:522
-2,971690	-8,006137	4,820915	2020-11-19T14:35:49:539
-2,857580	-8,071941	4,779998	2020-11-19T14:35:49:561
-2,716601	-8,127117	4,768693	2020-11-19T14:35:49:580
-2,566098	-8,161989	4,792437	2020-11-19T14:35:49:602
-2,400694	-8,179364	4,848201	2020-11-19T14:35:49:619
-2,237744	-8,171660	4,938305	2020-11-19T14:35:49:642
-2,109699	-8,139088	5,047258	2020-11-19T14:35:49:660
-2,052636	-8,087159	5,153148	2020-11-19T14:35:49:682
-2,057871	-8,019745	5,255401	2020-11-19T14:35:49:699
-2,088455	-7,940818	5,362103	2020-11-19T14:35:49:722
-2,148293	-7,859200	5,457856	2020-11-19T14:35:49:739
-2,209811	-7,797278	5,521736	2020-11-19T14:35:49:762
-2,326000	-7,838599	5,414469	2020-11-19T14:35:49:779
-2,337209	-7,873529	5,358673	2020-11-19T14:35:49:802
-2,290951	-7,895978	5,345602	2020-11-19T14:35:49:819
-2,085944	-7,940998	5,362814	2020-11-19T14:35:49:842
-1,819830	-8,055148	5,288970	2020-11-19T14:35:49:860
-1,431538	-8,164285	5,240757	2020-11-19T14:35:49:883
-0,960078	-8,161586	5,351369	2020-11-19T14:35:49:900
-0,376407	-8,018083	5,633742	2020-11-19T14:35:49:922
0,075811	-7,858602	5,865750	2020-11-19T14:35:49:939
0,650620	-7,613037	6,147255	2020-11-19T14:35:49:962
1,166965	-7,342090	6,395490	2020-11-19T14:35:49:979
1,472835	-7,170387	6,525848	2020-11-19T14:35:50:002
1,875566	-6,859040	6,753237	2020-11-19T14:35:50:019
2,539304	-6,351736	7,026932	2020-11-19T14:35:50:042
3,052548	-6,138501	7,012214	2020-11-19T14:35:50:060
3,260273	-6,069541	6,978658	2020-11-19T14:35:50:083
3,461633	-6,153115	6,806369	2020-11-19T14:35:50:099
3,510471	-6,393237	6,555418	2020-11-19T14:35:50:123
3,705802	-6,449687	6,390536	2020-11-19T14:35:50:140
3,804758	-6,488304	6,292544	2020-11-19T14:35:50:162
3,841647	-6,634776	6,114891	2020-11-19T14:35:50:181
3,992797	-6,703334	5,940814	2020-11-19T14:35:50:203
4,179593	-6,723616	5,787432	2020-11-19T14:35:50:220
-6,191614	-5,745231	4,982633	2020-11-19T14:35:50:250
-6,006537	-5,808315	5,133748	2020-11-19T14:35:50:260
-5,834941	-5,847570	5,284863	2020-11-19T14:35:50:283
-5,668269	-5,850632	5,459964	2020-11-19T14:35:50:300
-5,483330	-5,859756	5,636199	2020-11-19T14:35:50:322
-5,278863	-5,876781	5,810976	2020-11-19T14:35:50:340
-5,021418	-5,903454	6,008741	2020-11-19T14:35:50:363
-4,763491	-5,904332	6,214371	2020-11-19T14:35:50:381
-4,536775	-5,844187	6,436888	2020-11-19T14:35:50:402
-4,349681	-5,739848	6,656186	2020-11-19T14:35:50:420
-4,185035	-5,629928	6,852720	2020-11-19T14:35:50:443
-4,059009	-5,525030	7,012053	2020-11-19T14:35:50:460
-3,978338	-5,416049	7,142103	2020-11-19T14:35:50:483
-3,944483	-5,300165	7,247047	2020-11-19T14:35:50:500
-3,932271	-5,185057	7,336403	2020-11-19T14:35:50:522
-3,913222	-5,103556	7,403431	2020-11-19T14:35:50:540
-3,912454	-5,021025	7,460053	2020-11-19T14:35:50:563
-3,938506	-4,899133	7,527088	2020-11-19T14:35:50:581
-3,947755	-4,750406	7,617037	2020-11-19T14:35:50:605
-3,930067	-4,694654	7,660625	2020-11-19T14:35:50:621
-3,884713	-4,717478	7,669733	2020-11-19T14:35:50:642
-3,831059	-4,629001	7,750208	2020-11-19T14:35:50:660
-3,774111	-4,439793	7,887630	2020-11-19T14:35:50:684
-3,704487	-4,245861	8,026196	2020-11-19T14:35:50:700
-3,607868	-3,983390	8,202821	2020-11-19T14:35:50:723
-3,512992	-3,755490	8,350183	2020-11-19T14:35:50:740
-3,418958	-3,597781	8,457960	2020-11-19T14:35:50:763
-3,301052	-3,527709	8,533974	2020-11-19T14:35:50:781
-3,167180	-3,516066	8,589333	2020-11-19T14:35:50:803
-3,011106	-3,520281	8,643566	2020-11-19T14:35:50:820
-2,856249	-3,513325	8,698780	2020-11-19T14:35:50:843
-2,680069	-3,523230	8,750684	2020-11-19T14:35:50:861
-2,516770	-3,534280	8,794607	2020-11-19T14:35:50:883
-2,333566	-3,571491	8,830023	2020-11-19T14:35:50:900
-2,103117	-3,628734	8,864512	2020-11-19T14:35:50:923
-1,853039	-3,703313	8,889438	2020-11-19T14:35:50:942
-1,597943	-3,790627	8,902141	2020-11-19T14:35:50:963
-1,361729	-3,902257	8,893169	2020-11-19T14:35:50:980
-1,043014	-4,025969	8,881108	2020-11-19T14:35:51:003
-0,863095	-4,129027	8,853055	2020-11-19T14:35:51:021
-0,701247	-4,182068	8,842451	2020-11-19T14:35:51:043
-0,572959	-4,219097	8,834100	2020-11-19T14:35:51:060
-0,471329	-4,248407	8,826056	2020-11-19T14:35:51:084
-0,398654	-4,228924	8,838985	2020-11-19T14:35:51:101
-0,339537	-4,144178	8,881492	2020-11-19T14:35:51:123
-0,298413	-4,020074	8,939817	2020-11-19T14:35:51:140
-0,264548	-3,882105	9,001648	2020-11-19T14:35:51:163
-0,165085	-3,527659	9,148703	2020-11-19T14:35:51:181
-0,144946	-3,372190	9,207481	2020-11-19T14:35:51:204
-0,143601	-3,342925	9,218167	2020-11-19T14:35:51:221
-0,158221	-3,477496	9,168008	2020-11-19T14:35:51:244
-0,187408	-3,808409	9,035003	2020-11-19T14:35:51:261
-0,233247	-4,297195	8,811929	2020-11-19T14:35:51:284
-0,279420	-4,742847	8,578911	2020-11-19T14:35:51:300
-0,336293	-5,118452	8,358154	2020-11-19T14:35:51:324
-0,392277	-5,276527	8,256802	2020-11-19T14:35:51:342
-0,418236	-5,472501	8,126943	2020-11-19T14:35:51:364
-0,427278	-5,669411	7,990344	2020-11-19T14:35:51:381
-0,448999	-5,762125	7,922544	2020-11-19T14:35:51:404
-0,504295	-5,754132	7,925026	2020-11-19T14:35:51:421
-0,539079	-5,835894	7,862705	2020-11-19T14:35:51:444
-0,561288	-5,916161	7,800922	2020-11-19T14:35:51:461
-0,571006	-6,003764	7,732991	2020-11-19T14:35:51:484
-0,588343	-6,046587	7,698248	2020-11-19T14:35:51:501
-0,636085	-5,978356	7,747583	2020-11-19T14:35:51:523
-0,686362	-5,925946	7,783473	2020-11-19T14:35:51:541
-0,698696	-6,017019	7,712178	2020-11-19T14:35:51:564
-0,692605	-6,174261	7,587436	2020-11-19T14:35:51:582
-0,671197	-6,292695	7,491454	2020-11-19T14:35:51:604
-0,626377	-6,389253	7,413197	2020-11-19T14:35:51:621
-0,583203	-6,441763	7,371157	2020-11-19T14:35:51:644
-0,535771	-6,466577	7,353008	2020-11-19T14:35:51:661
-0,502297	-6,439788	7,378835	2020-11-19T14:35:51:685
-0,497692	-6,374603	7,435531	2020-11-19T14:35:51:701
-0,520003	-6,255923	7,534150	2020-11-19T14:35:51:724
-0,550826	-6,123504	7,640005	2020-11-19T14:35:51:741
-0,571678	-5,975081	7,755126	2020-11-19T14:35:51:764
-0,558404	-5,883424	7,825848	2020-11-19T14:35:51:781
-0,499670	-5,762132	7,919504	2020-11-19T14:35:51:805
-0,403038	-5,535342	8,085044	2020-11-19T14:35:51:822
-0,382187	-5,467779	8,131895	2020-11-19T14:35:51:844
-0,364016	-5,432848	8,156104	2020-11-19T14:35:51:862
-0,312664	-5,336491	8,221587	2020-11-19T14:35:51:884
-0,315790	-5,437896	8,154750	2020-11-19T14:35:51:901
-0,332436	-5,676092	7,990109	2020-11-19T14:35:51:924
-0,380008	-6,073129	7,690454	2020-11-19T14:35:51:941
-0,452342	-6,448303	7,374630	2020-11-19T14:35:51:964
-0,522770	-6,657050	7,181976	2020-11-19T14:35:51:982
-0,578585	-6,810091	7,032658	2020-11-19T14:35:52:004
-0,637067	-6,997745	6,840767	2020-11-19T14:35:52:021
-0,728634	-7,117095	6,707192	2020-11-19T14:35:52:044
-0,843537	-7,187308	6,618265	2020-11-19T14:35:52:063
-0,972581	-7,212595	6,572895	2020-11-19T14:35:52:084
-1,079524	-7,149516	6,624910	2020-11-19T14:35:52:103
-1,205538	-7,146484	6,606424	2020-11-19T14:35:52:125
-1,346442	-7,184858	6,537224	2020-11-19T14:35:52:141
-1,514071	-7,172721	6,513835	2020-11-19T14:35:52:164
-1,696212	-7,109872	6,537811	2020-11-19T14:35:52:183
-1,849608	-7,120351	6,484592	2020-11-19T14:35:52:204
-2,007032	-7,181019	6,369865	2020-11-19T14:35:52:222
-2,149683	-7,258914	6,233572	2020-11-19T14:35:52:245
-2,258132	-7,346726	6,090717	2020-11-19T14:35:52:261
-2,507608	-7,399171	5,927441	2020-11-19T14:35:52:285
-2,888701	-7,330824	5,838220	2020-11-19T14:35:52:304
-3,104317	-7,330779	5,726542	2020-11-19T14:35:52:324
-3,331078	-7,372953	5,542008	2020-11-19T14:35:52:343
-3,560262	-7,405328	5,353134	2020-11-19T14:35:52:365
-3,784319	-7,408682	5,192374	2020-11-19T14:35:52:382
-4,097670	-7,356732	5,025732	2020-11-19T14:35:52:405
-4,377230	-7,345531	4,801397	2020-11-19T14:35:52:421
-4,586930	-7,330626	4,625190	2020-11-19T14:35:52:444
-4,799989	-7,281334	4,484715	2020-11-19T14:35:52:462
-5,027067	-7,195999	4,372251	2020-11-19T14:35:52:485
-5,302732	-7,091259	4,214909	2020-11-19T14:35:52:503
-5,588542	-6,955486	4,069372	2020-11-19T14:35:52:525
-5,885864	-6,775731	3,951767	2020-11-19T14:35:52:543
-6,178215	-6,565907	3,858615	2020-11-19T14:35:52:565
-6,430255	-6,375045	3,765767	2020-11-19T14:35:52:582
-6,659555	-6,211398	3,638577	2020-11-19T14:35:52:605
-6,872294	-6,057605	3,499626	2020-11-19T14:35:52:622
-7,062271	-5,919531	3,354679	2020-11-19T14:35:52:645
-7,223028	-5,788832	3,238469	2020-11-19T14:35:52:661
-7,395990	-5,612030	3,158296	2020-11-19T14:35:52:685
-7,527976	-5,481004	3,075476	2020-11-19T14:35:52:702
-7,623290	-5,382758	3,013594	2020-11-19T14:35:52:725
-7,758745	-5,216352	2,960057	2020-11-19T14:35:52:742
-7,890327	-5,039823	2,917758	2020-11-19T14:35:52:765
-7,941822	-4,953195	2,926381	2020-11-19T14:35:52:783
-7,959105	-4,872702	3,013274	2020-11-19T14:35:52:805
-7,932260	-4,863494	3,097751	2020-11-19T14:35:52:822
-7,900017	-4,845077	3,207078	2020-11-19T14:35:52:845
-7,846354	-4,855922	3,320411	2020-11-19T14:35:52:862
-7,753873	-4,933986	3,421056	2020-11-19T14:35:52:885
-7,662517	-5,012410	3,511690	2020-11-19T14:35:52:902
-7,576853	-5,086549	3,590083	2020-11-19T14:35:52:925
-7,486207	-5,173589	3,655279	2020-11-19T14:35:52:943
-7,391953	-5,262052	3,720245	2020-11-19T14:35:52:965
-7,307797	-5,315079	3,810042	2020-11-19T14:35:52:982
-7,256691	-5,296750	3,931318	2020-11-19T14:35:53:005
-7,242123	-5,206132	4,076546	2020-11-19T14:35:53:023
-7,252917	-5,079541	4,214718	2020-11-19T14:35:53:045
-7,286750	-4,944646	4,315568	2020-11-19T14:35:53:062
-7,343181	-4,808455	4,373424	2020-11-19T14:35:53:085
-7,403057	-4,710621	4,378948	2020-11-19T14:35:53:102
-7,446394	-4,654715	4,365229	2020-11-19T14:35:53:125
-7,461375	-4,646588	4,348275	2020-11-19T14:35:53:142
-7,433421	-4,692667	4,346667	2020-11-19T14:35:53:165
-7,408732	-4,749723	4,326800	2020-11-19T14:35:53:185
-7,386690	-4,811986	4,295578	2020-11-19T14:35:53:205
-7,366513	-4,874171	4,259967	2020-11-19T14:35:53:222
-7,363833	-4,920283	4,211313	2020-11-19T14:35:53:246
-7,392087	-4,944675	4,132509	2020-11-19T14:35:53:263
-7,421819	-4,941056	4,083252	2020-11-19T14:35:53:285
-7,447464	-4,945920	4,030328	2020-11-19T14:35:53:303
-7,468733	-4,961049	3,971952	2020-11-19T14:35:53:325
-7,481473	-4,991628	3,909167	2020-11-19T14:35:53:342
-7,479002	-5,046450	3,842949	2020-11-19T14:35:53:366
-7,467276	-5,125501	3,760241	2020-11-19T14:35:53:383
-7,450172	-5,199657	3,691732	2020-11-19T14:35:53:405
-7,425463	-5,276928	3,631380	2020-11-19T14:35:53:423
-7,394083	-5,360613	3,572359	2020-11-19T14:35:53:445
-7,365401	-5,433080	3,521774	2020-11-19T14:35:53:463
-7,348228	-5,483250	3,479640	2020-11-19T14:35:53:486
-7,342598	-5,512418	3,445270	2020-11-19T14:35:53:504
-7,350203	-5,520026	3,416757	2020-11-19T14:35:53:525
-7,373303	-5,502090	3,395849	2020-11-19T14:35:53:543
-7,417704	-5,449822	3,383414	2020-11-19T14:35:53:566
-7,486150	-5,358829	3,378001	2020-11-19T14:35:53:583
-7,566348	-5,253294	3,365066	2020-11-19T14:35:53:606
-7,705895	-5,071574	3,326967	2020-11-19T14:35:53:623
-7,841419	-4,898958	3,268445	2020-11-19T14:35:53:646
-7,973020	-4,737031	3,187770	2020-11-19T14:35:53:663
-8,104559	-4,580227	3,083510	2020-11-19T14:35:53:686
-8,237183	-4,418852	2,965292	2020-11-19T14:35:53:704
-8,345207	-4,291782	2,847543	2020-11-19T14:35:53:726
-8,455641	-4,148950	2,731070	2020-11-19T14:35:53:744
-8,569180	-3,985641	2,618056	2020-11-19T14:35:53:765
-8,687504	-3,796184	2,507318	2020-11-19T14:35:53:783
-8,808508	-3,578711	2,402792	2020-11-19T14:35:53:806
-8,926006	-3,339878	2,311279	2020-11-19T14:35:53:823
-9,029667	-3,101055	2,240301	2020-11-19T14:35:53:846
-9,109692	-2,883091	2,207189	2020-11-19T14:35:53:863
-9,162898	-2,717387	2,197154	2020-11-19T14:35:53:886
-9,206294	-2,567679	2,195805	2020-11-19T14:35:53:903
-9,249516	-2,428700	2,172157	2020-11-19T14:35:53:926
-9,280705	-2,342323	2,133637	2020-11-19T14:35:53:943
-9,290617	-2,341998	2,090424	2020-11-19T14:35:53:966
-9,271586	-2,450867	2,049715	2020-11-19T14:35:53:984
-9,226843	-2,641967	2,013891	2020-11-19T14:35:54:006
-9,149977	-2,923476	1,975246	2020-11-19T14:35:54:023
-9,034028	-3,297955	1,918386	2020-11-19T14:35:54:046
-8,870968	-3,758158	1,831003	2020-11-19T14:35:54:063
-8,673655	-4,234136	1,734992	2020-11-19T14:35:54:086
-8,476302	-4,654461	1,630546	2020-11-19T14:35:54:103
-8,281122	-5,031248	1,509949	2020-11-19T14:35:54:126
-8,100506	-5,354335	1,372329	2020-11-19T14:35:54:144
-7,952561	-5,604273	1,232588	2020-11-19T14:35:54:167
-7,848733	-5,772358	1,116983	2020-11-19T14:35:54:184
-7,803074	-5,845583	1,054316	2020-11-19T14:35:54:206
-7,813438	-5,833373	1,045146	2020-11-19T14:35:54:224
-7,870900	-5,751080	1,069772	2020-11-19T14:35:54:246
-7,974690	-5,596948	1,117530	2020-11-19T14:35:54:263
-8,133201	-5,349963	1,182929	2020-11-19T14:35:54:287
-8,339948	-5,004927	1,251548	2020-11-19T14:35:54:303
-8,629417	-4,454551	1,364006	2020-11-19T14:35:54:326
-8,883983	-3,897674	1,432959	2020-11-19T14:35:54:344
-9,085200	-3,389117	1,464036	2020-11-19T14:35:54:367
-9,233940	-2,978022	1,426930	2020-11-19T14:35:54:384
-9,361982	-2,583448	1,359951	2020-11-19T14:35:54:407
-9,437407	-2,323357	1,306813	2020-11-19T14:35:54:424
-9,493416	-2,102271	1,275109	2020-11-19T14:35:54:446
-9,521481	-1,965368	1,284181	2020-11-19T14:35:54:464
-9,529634	-1,892298	1,332538	2020-11-19T14:35:54:497
-9,518723	-1,886454	1,416182	2020-11-19T14:35:54:504
-9,496163	-1,921996	1,516311	2020-11-19T14:35:54:527
-9,469282	-1,970919	1,618197	2020-11-19T14:35:54:544
-9,432461	-2,038050	1,745115	2020-11-19T14:35:54:566
-9,379888	-2,131516	1,909119	2020-11-19T14:35:54:584
-9,311589	-2,249442	2,098737	2020-11-19T14:35:54:606
-9,222901	-2,401283	2,311344	2020-11-19T14:35:54:624
-9,100836	-2,600037	2,566121	2020-11-19T14:35:54:647
-9,003269	-2,766032	2,731410	2020-11-19T14:35:54:664
-8,853669	-3,020197	2,943015	2020-11-19T14:35:54:687
-8,642308	-3,375542	3,175942	2020-11-19T14:35:54:706
-8,461978	-3,677479	3,322870	2020-11-19T14:35:54:727
-8,255988	-4,012890	3,450473	2020-11-19T14:35:54:744
-8,031328	-4,359093	3,558999	2020-11-19T14:35:54:768
-7,870628	-4,590484	3,626439	2020-11-19T14:35:54:784
-7,756171	-4,808009	3,590996	2020-11-19T14:35:54:807
-7,673398	-4,966368	3,553103	2020-11-19T14:35:54:824
-7,630796	-5,056170	3,518023	2020-11-19T14:35:54:847
-7,567767	-5,111673	3,573525	2020-11-19T14:35:54:865
-7,531433	-5,133230	3,619097	2020-11-19T14:35:54:887
-7,516232	-5,145918	3,632653	2020-11-19T14:35:54:904
-7,519469	-5,164338	3,599665	2020-11-19T14:35:54:927
-7,543972	-5,179744	3,525495	2020-11-19T14:35:54:945
-7,593662	-5,170325	3,431388	2020-11-19T14:35:54:967
-7,670825	-5,122714	3,329659	2020-11-19T14:35:54:985
-7,774737	-5,032822	3,224058	2020-11-19T14:35:55:007
-7,960466	-4,830649	3,076718	2020-11-19T14:35:55:024
-8,175540	-4,558303	2,924518	2020-11-19T14:35:55:047
-8,404698	-4,225901	2,770051	2020-11-19T14:35:55:064
-8,628275	-3,867021	2,601809	2020-11-19T14:35:55:088
-8,852721	-3,463406	2,409261	2020-11-19T14:35:55:105
-9,070143	-3,023140	2,182546	2020-11-19T14:35:55:128
-9,266515	-2,566579	1,927370	2020-11-19T14:35:55:144
-9,429538	-2,117175	1,664861	2020-11-19T14:35:55:168
-9,555269	-1,699454	1,406791	2020-11-19T14:35:55:186
-9,644549	-1,338812	1,166466	2020-11-19T14:35:55:207
-9,705311	-1,038160	0,948442	2020-11-19T14:35:55:225
-9,734056	-0,855857	0,828285	2020-11-19T14:35:55:248
-9,754437	-0,713876	0,715338	2020-11-19T14:35:55:264
-9,769037	-0,603545	0,609936	2020-11-19T14:35:55:288
-9,777986	-0,528122	0,531473	2020-11-19T14:35:55:305
-9,783167	-0,474490	0,484649	2020-11-19T14:35:55:328
-9,785639	-0,447142	0,460139	2020-11-19T14:35:55:345
-9,788006	-0,432455	0,422275	2020-11-19T14:35:55:368
-9,785712	-0,457706	0,448031	2020-11-19T14:35:55:385
-9,779030	-0,525295	0,514802	2020-11-19T14:35:55:408
-9,765685	-0,647678	0,618304	2020-11-19T14:35:55:426
-9,744777	-0,820336	0,732642	2020-11-19T14:35:55:448
-9,718787	-1,009564	0,834475	2020-11-19T14:35:55:465
-9,685235	-1,215106	0,943467	2020-11-19T14:35:55:488
-9,645491	-1,417805	1,060533	2020-11-19T14:35:55:505
-9,598983	-1,618098	1,188140	2020-11-19T14:35:55:528
-9,553786	-1,780848	1,313064	2020-11-19T14:35:55:545
-9,510828	-1,911339	1,435730	2020-11-19T14:35:55:568
-9,471018	-2,012759	1,555314	2020-11-19T14:35:55:585
-9,439807	-2,077652	1,656441	2020-11-19T14:35:55:610
-9,414258	-2,121453	1,744011	2020-11-19T14:35:55:625
-9,398694	-2,144773	1,798578	2020-11-19T14:35:55:648
-9,390620	-2,152767	1,830911	2020-11-19T14:35:55:667
-9,389462	-2,146060	1,844670	2020-11-19T14:35:55:690
-9,391363	-2,133039	1,850086	2020-11-19T14:35:55:705
-9,392661	-2,116436	1,862527	2020-11-19T14:35:55:728
-9,391923	-2,104291	1,879927	2020-11-19T14:35:55:745
-9,378282	-2,120440	1,929237	2020-11-19T14:35:55:770
-9,354771	-2,162121	1,995968	2020-11-19T14:35:55:786
-9,319903	-2,232399	2,079946	2020-11-19T14:35:55:808
-9,281521	-2,307191	2,168093	2020-11-19T14:35:55:826
-9,234340	-2,385381	2,281953	2020-11-19T14:35:55:849
-9,172136	-2,473130	2,434323	2020-11-19T14:35:55:866
-9,099235	-2,566381	2,605380	2020-11-19T14:35:55:890
-9,019893	-2,669235	2,772562	2020-11-19T14:35:55:906
-8,930353	-2,797961	2,930972	2020-11-19T14:35:55:929
-8,872564	-2,950382	2,956896	2020-11-19T14:35:55:946
-8,757706	-3,144778	3,095699	2020-11-19T14:35:55:968
-8,627834	-3,369046	3,221861	2020-11-19T14:35:55:986
-8,495456	-3,614099	3,306947	2020-11-19T14:35:56:009
-8,370994	-3,869262	3,335514	2020-11-19T14:35:56:025
-8,265409	-4,106760	3,314801	2020-11-19T14:35:56:049
-8,174054	-4,323588	3,265242	2020-11-19T14:35:56:066
-8,097480	-4,505867	3,209107	2020-11-19T14:35:56:090
-8,043968	-4,633924	3,160965	2020-11-19T14:35:56:105
-8,015791	-4,712526	3,116019	2020-11-19T14:35:56:129
-8,006074	-4,749696	3,084404	2020-11-19T14:35:56:147
-8,008211	-4,756425	3,068446	2020-11-19T14:35:56:169
-8,027087	-4,733438	3,054641	2020-11-19T14:35:56:186
-8,062135	-4,695888	3,020101	2020-11-19T14:35:56:209
-8,116854	-4,643599	2,953653	2020-11-19T14:35:56:225
-8,192016	-4,565883	2,866004	2020-11-19T14:35:56:250
-8,312998	-4,422970	2,738940	2020-11-19T14:35:56:266
-8,448258	-4,234810	2,619865	2020-11-19T14:35:56:289
-8,590621	-4,013941	2,501977	2020-11-19T14:35:56:306
-8,727697	-3,790724	2,372360	2020-11-19T14:35:56:330
-8,870507	-3,537407	2,229628	2020-11-19T14:35:56:346
-9,015734	-3,256555	2,069245	2020-11-19T14:35:56:370
-9,164325	-2,940590	1,881082	2020-11-19T14:35:56:387
-9,304156	-2,604779	1,678747	2020-11-19T14:35:56:411
-9,413107	-2,297506	1,511709	2020-11-19T14:35:56:426
-9,475272	-2,066641	1,455539	2020-11-19T14:35:56:449
-9,530208	-1,846128	1,391882	2020-11-19T14:35:56:466
-9,588032	-1,588820	1,309837	2020-11-19T14:35:56:490
-9,591997	-1,546137	1,331704	2020-11-19T14:35:56:506
-9,568081	-1,631556	1,400085	2020-11-19T14:35:56:529
-9,529906	-1,786818	1,469202	2020-11-19T14:35:56:546
-9,481474	-1,966068	1,551329	2020-11-19T14:35:56:571
-9,423408	-2,148446	1,659504	2020-11-19T14:35:56:586
-9,342474	-2,358469	1,823784	2020-11-19T14:35:56:609
-9,256086	-2,560076	1,985263	2020-11-19T14:35:56:627
-9,155142	-2,817758	2,100954	2020-11-19T14:35:56:650
-9,043659	-3,112173	2,167256	2020-11-19T14:35:56:666
-8,894647	-3,463089	2,250037	2020-11-19T14:35:56:690
-8,728587	-3,792178	2,366755	2020-11-19T14:35:56:705
-8,517688	-4,160845	2,511323	2020-11-19T14:35:56:730
-8,302757	-4,489377	2,660846	2020-11-19T14:35:56:745
-8,041578	-4,880014	2,772882	2020-11-19T14:35:56:769
-7,703401	-5,396360	2,776202	2020-11-19T14:35:56:787
-7,331895	-5,926936	2,699098	2020-11-19T14:35:56:810
-6,889135	-6,504292	2,530687	2020-11-19T14:35:56:827
-6,498072	-6,958616	2,350128	2020-11-19T14:35:56:849
-6,078171	-7,404357	2,098024	2020-11-19T14:35:56:870
-5,814645	-7,663791	1,904362	2020-11-19T14:35:56:890
-5,553743	-7,902599	1,695656	2020-11-19T14:35:56:907
-5,349452	-8,076778	1,522956	2020-11-19T14:35:56:929
-5,192358	-8,203910	1,380458	2020-11-19T14:35:56:947
-5,081108	-8,292794	1,257888	2020-11-19T14:35:56:970
-4,987024	-8,367955	1,130175	2020-11-19T14:35:56:987
-4,904187	-8,433065	1,001368	2020-11-19T14:35:57:009
-4,841177	-8,483492	0,873933	2020-11-19T14:35:57:027
-4,782343	-8,527532	0,762090	2020-11-19T14:35:57:050
-4,711243	-8,578627	0,617847	2020-11-19T14:35:57:067
-4,614353	-8,641757	0,445149	2020-11-19T14:35:57:090
-4,492676	-8,713174	0,258551	2020-11-19T14:35:57:107
-4,387808	-8,769904	0,079436	2020-11-19T14:35:57:130
-4,333820	-8,796858	-0,060585	2020-11-19T14:35:57:147
-4,367985	-8,779423	-0,113290	2020-11-19T14:35:57:169
-4,461200	-8,732534	-0,104488	2020-11-19T14:35:57:186
-4,626184	-8,646788	-0,043283	2020-11-19T14:35:57:210
-4,803429	-8,549704	-0,004107	2020-11-19T14:35:57:226
-5,142956	-8,346877	0,223682	2020-11-19T14:35:57:249
-5,629319	-8,008089	0,593011	2020-11-19T14:35:57:267
-5,960768	-7,738708	0,867201	2020-11-19T14:35:57:291
-6,146807	-7,571587	1,028694	2020-11-19T14:35:57:306
-6,291045	-7,432970	1,159356	2020-11-19T14:35:57:329
-6,380117	-7,341680	1,250690	2020-11-19T14:35:57:347
-6,483932	-7,224233	1,392646	2020-11-19T14:35:57:370
-6,567948	-7,123247	1,513867	2020-11-19T14:35:57:387
-6,571086	-7,112017	1,552557	2020-11-19T14:35:57:410
-6,495676	-7,190206	1,509145	2020-11-19T14:35:57:426
-6,427629	-7,257175	1,479650	2020-11-19T14:35:57:451
-6,339384	-7,350911	1,395244	2020-11-19T14:35:57:466
-6,209312	-7,487476	1,246005	2020-11-19T14:35:57:490
-6,107598	-7,586679	1,144521	2020-11-19T14:35:57:507
-6,021791	-7,662573	1,092425	2020-11-19T14:35:57:530
-5,931987	-7,738478	1,047798	2020-11-19T14:35:57:547
-5,822957	-7,832098	0,960105	2020-11-19T14:35:57:570
-5,697626	-7,936507	0,848115	2020-11-19T14:35:57:588
-5,567913	-8,039296	0,733789	2020-11-19T14:35:57:610
-5,429876	-8,142356	0,623589	2020-11-19T14:35:57:627
-5,330980	-8,214328	0,525217	2020-11-19T14:35:57:650
-5,271183	-8,258073	0,435027	2020-11-19T14:35:57:667
-5,227612	-8,289835	0,347974	2020-11-19T14:35:57:691
-5,221798	-8,295320	0,301471	2020-11-19T14:35:57:706
-5,217016	-8,300621	0,229807	2020-11-19T14:35:57:730
-5,214624	-8,303202	0,186882	2020-11-19T14:35:57:747
-5,228380	-8,295639	0,129620	2020-11-19T14:35:57:771
-5,253521	-8,280602	0,050170	2020-11-19T14:35:57:787
-5,332501	-8,229995	-0,044747	2020-11-19T14:35:57:810
-5,454639	-8,149002	-0,105157	2020-11-19T14:35:57:828
-5,635733	-8,024659	-0,117249	2020-11-19T14:35:57:851
-5,859470	-7,863346	-0,069218	2020-11-19T14:35:57:867
-6,151992	-7,636724	0,061935	2020-11-19T14:35:57:891
-6,478422	-7,358199	0,239464	2020-11-19T14:35:57:907
-6,894361	-6,957488	0,481182	2020-11-19T14:35:57:931
-7,308722	-6,494824	0,755132	2020-11-19T14:35:57:947
-7,710441	-5,965862	1,062060	2020-11-19T14:35:57:970
-8,083576	-5,376119	1,386911	2020-11-19T14:35:57:989
-8,380116	-4,817353	1,654430	2020-11-19T14:35:58:011
-8,631863	-4,256982	1,881338	2020-11-19T14:35:58:027
-8,828805	-3,738611	2,060430	2020-11-19T14:35:58:050
-8,974770	-3,288256	2,193459	2020-11-19T14:35:58:068
-9,078629	-2,926525	2,276910	2020-11-19T14:35:58:091
-9,113579	-2,842887	2,243003	2020-11-19T14:35:58:108
-9,132145	-2,850276	2,156440	2020-11-19T14:35:58:131
-9,130203	-2,930544	2,054672	2020-11-19T14:35:58:147
-9,112352	-3,084111	1,903598	2020-11-19T14:35:58:171
-9,121368	-3,120960	1,797398	2020-11-19T14:35:58:188
-9,115786	-3,201825	1,679630	2020-11-19T14:35:58:210
-9,043028	-3,496083	1,473578	2020-11-19T14:35:58:229
-8,949077	-3,804462	1,269048	2020-11-19T14:35:58:251
-8,824933	-4,140447	1,071279	2020-11-19T14:35:58:267
-8,679485	-4,477625	0,887578	2020-11-19T14:35:58:290
-8,604177	-4,644672	0,752016	2020-11-19T14:35:58:308
-8,518253	-4,821967	0,598641	2020-11-19T14:35:58:332
-8,448563	-4,955655	0,483378	2020-11-19T14:35:58:348
-8,292474	-5,223061	0,353402	2020-11-19T14:35:58:371
-8,132751	-5,474061	0,251809	2020-11-19T14:35:58:388
-7,986082	-5,688423	0,186346	2020-11-19T14:35:58:411
-7,844795	-5,882645	0,155145	2020-11-19T14:35:58:428
-7,710029	-6,058429	0,145854	2020-11-19T14:35:58:450
-7,570749	-6,231538	0,148565	2020-11-19T14:35:58:468
-7,436242	-6,391046	0,164990	2020-11-19T14:35:58:492
-7,304673	-6,539711	0,210535	2020-11-19T14:35:58:507
-7,228834	-6,622013	0,251570	2020-11-19T14:35:58:530
-7,172548	-6,678366	0,352646	2020-11-19T14:35:58:549
-7,205400	-6,630521	0,537379	2020-11-19T14:35:58:572
-7,464707	-6,307047	0,818348	2020-11-19T14:35:58:589
-7,944944	-5,640208	1,111895	2020-11-19T14:35:58:610
-8,432852	-4,810737	1,383548	2020-11-19T14:35:58:628
-8,696057	-4,246327	1,586719	2020-11-19T14:35:58:652
-8,843686	-3,867476	1,732693	2020-11-19T14:35:58:668
-8,956915	-3,551286	1,825496	2020-11-19T14:35:58:691
-9,032799	-3,304177	1,913466	2020-11-19T14:35:58:708
-9,081202	-3,111697	2,004871	2020-11-19T14:35:58:732
-9,093099	-3,015488	2,095896	2020-11-19T14:35:58:748
-9,071217	-3,023148	2,178070	2020-11-19T14:35:58:771
-9,017802	-3,119341	2,262596	2020-11-19T14:35:58:789
-8,945432	-3,257602	2,353225	2020-11-19T14:35:58:812
-8,845548	-3,449008	2,455812	2020-11-19T14:35:58:828
-8,735338	-3,656092	2,548969	2020-11-19T14:35:58:851
-8,613734	-3,877766	2,633799	2020-11-19T14:35:58:868
-8,487586	-4,098192	2,708521	2020-11-19T14:35:58:892
-8,350082	-4,321039	2,788390	2020-11-19T14:35:58:908
-8,224871	-4,509919	2,860511	2020-11-19T14:35:58:931
-8,142780	-4,643762	2,881145	2020-11-19T14:35:58:948
-8,059247	-4,756385	2,931847	2020-11-19T14:35:58:972
-7,989049	-4,851974	2,967123	2020-11-19T14:35:58:988
-7,928024	-4,956819	2,957494	2020-11-19T14:35:59:011
-7,873134	-5,069241	2,913237	2020-11-19T14:35:59:029
-7,829733	-5,173199	2,846696	2020-11-19T14:35:59:052
-7,798617	-5,267436	2,757912	2020-11-19T14:35:59:068
-7,778426	-5,348577	2,656915	2020-11-19T14:35:59:091
-7,774638	-5,400021	2,562256	2020-11-19T14:35:59:108
-7,800245	-5,401964	2,478981	2020-11-19T14:35:59:132
-7,867369	-5,335192	2,410522	2020-11-19T14:35:59:148
-7,994417	-5,176702	2,336972	2020-11-19T14:35:59:172
-8,134889	-4,983364	2,271574	2020-11-19T14:35:59:189
-8,345564	-4,660294	2,191713	2020-11-19T14:35:59:212
-8,577362	-4,271268	2,086985	2020-11-19T14:35:59:228
-8,779452	-3,903814	1,962610	2020-11-19T14:35:59:251
-8,980792	-3,489665	1,827019	2020-11-19T14:35:59:269
-9,163273	-3,057035	1,690963	2020-11-19T14:35:59:293
-9,322090	-2,622117	1,547101	2020-11-19T14:35:59:308
-9,459245	-2,179700	1,393552	2020-11-19T14:35:59:331
-9,564823	-1,761637	1,257446	2020-11-19T14:35:59:348
-9,638748	-1,394732	1,148753	2020-11-19T14:35:59:372
-9,686248	-1,091166	1,075338	2020-11-19T14:35:59:389
-9,707554	-0,903934	1,056733	2020-11-19T14:35:59:411
-9,716075	-0,787345	1,071617	2020-11-19T14:35:59:429
-9,718983	-0,714917	1,095740	2020-11-19T14:35:59:452
-9,714514	-0,701099	1,143270	2020-11-19T14:35:59:468
-9,695825	-0,771206	1,251639	2020-11-19T14:35:59:492
-9,668823	-0,906286	1,364874	2020-11-19T14:35:59:509
-9,630068	-1,101225	1,489792	2020-11-19T14:35:59:532
-9,578735	-1,331335	1,626582	2020-11-19T14:35:59:549
-9,514870	-1,582814	1,769843	2020-11-19T14:35:59:572
-9,427830	-1,885007	1,932139	2020-11-19T14:35:59:589
-9,319061	-2,228465	2,087922	2020-11-19T14:35:59:612
-9,179475	-2,637059	2,225655	2020-11-19T14:35:59:629
-9,006725	-3,106701	2,323294	2020-11-19T14:35:59:651
-8,800605	-3,617741	2,373119	2020-11-19T14:35:59:669
-8,591170	-4,085518	2,381328	2020-11-19T14:35:59:693
-8,396728	-4,484752	2,356342	2020-11-19T14:35:59:709
-8,230258	-4,803274	2,315556	2020-11-19T14:35:59:732
-8,108114	-5,023707	2,278429	2020-11-19T14:35:59:750
-8,047539	-5,127691	2,261481	2020-11-19T14:35:59:773
-8,053718	-5,115055	2,268088	2020-11-19T14:35:59:791
-8,108212	-5,021936	2,281979	2020-11-19T14:35:59:812
-8,199209	-4,869427	2,287365	2020-11-19T14:35:59:829
-8,310742	-4,680681	2,278854	2020-11-19T14:35:59:853
-8,440758	-4,454879	2,253452	2020-11-19T14:35:59:869
-8,601192	-4,142134	2,243350	2020-11-19T14:35:59:892
-8,754927	-3,825161	2,211285	2020-11-19T14:35:59:909
-8,896098	-3,515265	2,161650	2020-11-19T14:35:59:933
-9,028036	-3,205892	2,094565	2020-11-19T14:35:59:949
-9,151325	-2,915935	1,980141	2020-11-19T14:35:59:972
-9,269703	-2,616753	1,842714	2020-11-19T14:35:59:991
-9,371070	-2,336040	1,701867	2020-11-19T14:36:00:013
-9,456205	-2,069990	1,570254	2020-11-19T14:36:00:029
-9,524080	-1,833793	1,448958	2020-11-19T14:36:00:052
-9,575578	-1,634692	1,344050	2020-11-19T14:36:00:069
-9,601468	-1,509928	1,304728	2020-11-19T14:36:00:094
-9,601823	-1,476187	1,340244	2020-11-19T14:36:00:109
-9,565337	-1,574572	1,481701	2020-11-19T14:36:00:132
-9,523327	-1,688583	1,620284	2020-11-19T14:36:00:150
-9,495012	-1,748813	1,719530	2020-11-19T14:36:00:173
-9,453721	-1,831819	1,855255	2020-11-19T14:36:00:189
-9,399647	-1,932505	2,020505	2020-11-19T14:36:00:212
-9,328387	-2,056068	2,219046	2020-11-19T14:36:00:230
-9,242746	-2,201614	2,427946	2020-11-19T14:36:00:253
-9,140934	-2,376562	2,639255	2020-11-19T14:36:00:270
-9,030577	-2,569840	2,831076	2020-11-19T14:36:00:292
-8,913088	-2,767560	3,011289	2020-11-19T14:36:00:309
-8,790782	-2,973837	3,169989	2020-11-19T14:36:00:333
-8,666572	-3,200087	3,289434	2020-11-19T14:36:00:349
-8,544107	-3,431508	3,375406	2020-11-19T14:36:00:372
-8,422643	-3,659729	3,440329	2020-11-19T14:36:00:390
-8,315999	-3,855292	3,485868	2020-11-19T14:36:00:413
-8,219863	-4,034601	3,510873	2020-11-19T14:36:00:429
-8,107928	-4,197294	3,579749	2020-11-19T14:36:00:452
-8,012136	-4,328415	3,638802	2020-11-19T14:36:00:471
-7,934053	-4,431500	3,685512	2020-11-19T14:36:00:493
-7,872668	-4,510639	3,720970	2020-11-19T14:36:00:510
-7,828760	-4,571621	3,739142	2020-11-19T14:36:00:532
-7,803849	-4,614715	3,738280	2020-11-19T14:36:00:549
-7,800928	-4,635347	3,718799	2020-11-19T14:36:00:574
-7,824525	-4,625367	3,681464	2020-11-19T14:36:00:594
-7,873667	-4,582636	3,629765	2020-11-19T14:36:00:613
-7,952771	-4,499456	3,560718	2020-11-19T14:36:00:630
-8,087764	-4,327621	3,468452	2020-11-19T14:36:00:653
-8,244371	-4,115612	3,355960	2020-11-19T14:36:00:669
-8,418903	-3,873119	3,208020	2020-11-19T14:36:00:693
-8,575500	-3,643071	3,059286	2020-11-19T14:36:00:711
-8,740585	-3,377583	2,892143	2020-11-19T14:36:00:733
-8,917781	-3,067823	2,689244	2020-11-19T14:36:00:750
-9,091473	-2,727325	2,465200	2020-11-19T14:36:00:773
-9,247988	-2,367501	2,245004	2020-11-19T14:36:00:790
-9,383994	-1,992992	2,034457	2020-11-19T14:36:00:814
-9,458500	-1,749095	1,909931	2020-11-19T14:36:00:830
-9,520485	-1,524717	1,790525	2020-11-19T14:36:00:853
-9,573554	-1,315080	1,669734	2020-11-19T14:36:00:871
-9,618779	-1,126350	1,542987	2020-11-19T14:36:00:894
-9,658767	-0,947579	1,407376	2020-11-19T14:36:00:910
-9,686827	-0,814054	1,293480	2020-11-19T14:36:00:934
-9,705443	-0,721931	1,205641	2020-11-19T14:36:00:951
-9,715884	-0,669800	1,150367	2020-11-19T14:36:00:973
-9,715851	-0,695732	1,135156	2020-11-19T14:36:00:990
-9,710509	-0,765915	1,135683	2020-11-19T14:36:01:013
-9,698419	-0,891160	1,147562	2020-11-19T14:36:01:030
-9,679517	-1,059549	1,163912	2020-11-19T14:36:01:054
-9,649996	-1,275788	1,191775	2020-11-19T14:36:01:070
-9,611736	-1,520317	1,213900	2020-11-19T14:36:01:093
-9,571557	-1,754353	1,215697	2020-11-19T14:36:01:111
-9,535335	-1,946565	1,207752	2020-11-19T14:36:01:134
-9,514045	-2,057261	1,192059	2020-11-19T14:36:01:150
-9,503627	-2,113507	1,176666	2020-11-19T14:36:01:173
-9,497565	-2,148223	1,162657	2020-11-19T14:36:01:192
-9,496440	-2,160147	1,149687	2020-11-19T14:36:01:214
-9,499473	-2,155255	1,133698	2020-11-19T14:36:01:230
-9,510783	-2,113522	1,117327	2020-11-19T14:36:01:253
-9,531362	-2,026473	1,103150	2020-11-19T14:36:01:270
-9,570588	-1,864244	1,048245	2020-11-19T14:36:01:294
-9,607959	-1,691824	0,997616	2020-11-19T14:36:01:310
-9,640876	-1,526035	0,946102	2020-11-19T14:36:01:333
-9,667876	-1,377687	0,896955	2020-11-19T14:36:01:351
-9,685033	-1,271839	0,867725	2020-11-19T14:36:01:376
-9,692993	-1,210215	0,866976	2020-11-19T14:36:01:391
-9,693356	-1,190936	0,889337	2020-11-19T14:36:01:413
-9,689113	-1,197198	0,926389	2020-11-19T14:36:01:431
-9,677932	-1,231722	0,995431	2020-11-19T14:36:01:454
-9,650504	-1,319734	1,138621	2020-11-19T14:36:01:470
-9,588866	-1,493748	1,411647	2020-11-19T14:36:01:494
-9,514811	-1,666546	1,691564	2020-11-19T14:36:01:511
-9,432641	-1,828752	1,962483	2020-11-19T14:36:01:534
