v1	v2	v3	v4	ts
1000,857422	103,688110	25,939999	1000,765137	2020-11-19T14:35:16:370
1000,847168	103,775307	25,939999	1000,754883	2020-11-19T14:35:16:506
1000,836548	103,865143	25,939999	1000,740723	2020-11-19T14:35:16:747
1000,826782	103,947052	25,949999	1000,739014	2020-11-19T14:35:16:987
1000,819031	104,010468	25,949999	1000,749512	2020-11-19T14:35:17:238
1000,815308	104,042175	25,949999	1000,781494	2020-11-19T14:35:17:467
1000,811279	104,076530	25,949999	1000,775146	2020-11-19T14:35:17:777
1000,808411	104,100304	25,949999	1000,782715	2020-11-19T14:35:17:949
1000,808167	104,102951	25,949999	1000,805908	2020-11-19T14:35:18:189
1000,801941	104,155792	25,949999	1000,745605	2020-11-19T14:35:18:430
1000,801758	104,155792	25,949999	1000,799805	2020-11-19T14:35:18:672
1000,801025	104,163719	25,959999	1000,794678	2020-11-19T14:35:18:910
1000,799133	104,179573	25,959999	1000,782227	2020-11-19T14:35:19:150
1000,797058	104,195427	25,959999	1000,778320	2020-11-19T14:35:19:389
1000,793457	104,227135	25,959999	1000,760986	2020-11-19T14:35:19:659
1000,793335	104,227135	25,959999	1000,791748	2020-11-19T14:35:19:869
1000,796692	104,200714	25,969999	1000,826904	2020-11-19T14:35:20:113
1000,799988	104,171646	25,959999	1000,829834	2020-11-19T14:35:20:353
1000,801941	104,155792	25,969999	1000,819336	2020-11-19T14:35:20:599
1000,801636	104,158440	25,969999	1000,798828	2020-11-19T14:35:20:834
1000,798157	104,187500	25,969999	1000,767090	2020-11-19T14:35:21:073
1000,795349	104,211281	25,969999	1000,770264	2020-11-19T14:35:21:315
1000,791565	104,242989	25,969999	1000,757324	2020-11-19T14:35:21:555
1000,789124	104,264130	25,980000	1000,766846	2020-11-19T14:35:21:794
1000,785645	104,293190	25,980000	1000,754395	2020-11-19T14:35:22:034
1000,780579	104,335472	25,969999	1000,735107	2020-11-19T14:35:22:275
1000,776611	104,367180	25,980000	1000,740479	2020-11-19T14:35:22:515
1000,773315	104,396240	25,980000	1000,743896	2020-11-19T14:35:22:755
1000,771179	104,414742	25,990000	1000,751465	2020-11-19T14:35:22:995
1000,773743	104,393600	25,980000	1000,797119	2020-11-19T14:35:23:235
1000,774475	104,385674	25,980000	1000,780762	2020-11-19T14:35:23:475
1000,778259	104,353966	25,980000	1000,812012	2020-11-19T14:35:23:716
1000,776917	104,364532	25,980000	1000,764404	2020-11-19T14:35:23:956
1000,776306	104,369820	25,990000	1000,770508	2020-11-19T14:35:24:196
1000,775452	104,377747	25,990000	1000,767822	2020-11-19T14:35:24:436
1000,774353	104,388313	25,990000	1000,764404	2020-11-19T14:35:24:676
1000,775269	104,380386	25,990000	1000,783203	2020-11-19T14:35:24:917
1000,773254	104,396240	25,990000	1000,755127	2020-11-19T14:35:25:158
1000,773438	104,396240	25,990000	1000,775146	2020-11-19T14:35:25:398
1000,775696	104,375107	25,990000	1000,796387	2020-11-19T14:35:25:638
1000,775085	104,380386	25,990000	1000,769531	2020-11-19T14:35:25:877
1000,776550	104,369820	25,990000	1000,789795	2020-11-19T14:35:26:119
1000,779114	104,346039	26,000000	1000,802490	2020-11-19T14:35:26:359
1000,781799	104,324898	26,000000	1000,805908	2020-11-19T14:35:26:599
1000,782654	104,316971	26,000000	1000,790283	2020-11-19T14:35:26:839
1000,780273	104,338112	25,990000	1000,758789	2020-11-19T14:35:27:079
1000,780029	104,340752	25,990000	1000,777832	2020-11-19T14:35:27:319
1000,782593	104,316971	26,000000	1000,805664	2020-11-19T14:35:27:560
1000,786255	104,287910	26,000000	1000,819336	2020-11-19T14:35:27:810
1000,788940	104,264130	25,990000	1000,813477	2020-11-19T14:35:28:040
1000,796692	104,200714	26,000000	1000,866699	2020-11-19T14:35:28:279
1000,801086	104,161079	25,990000	1000,840820	2020-11-19T14:35:28:520
1000,804260	104,134659	26,000000	1000,832764	2020-11-19T14:35:28:761
1000,806091	104,121445	25,990000	1000,822266	2020-11-19T14:35:29:001
1000,807495	104,108231	25,990000	1000,820312	2020-11-19T14:35:29:241
1000,810425	104,084457	25,990000	1000,836426	2020-11-19T14:35:29:481
1000,815430	104,042175	25,990000	1000,860107	2020-11-19T14:35:29:722
1000,819519	104,007828	26,000000	1000,856201	2020-11-19T14:35:29:962
1000,823242	103,976120	25,990000	1000,856689	2020-11-19T14:35:30:202
1000,824280	103,968193	26,000000	1000,833252	2020-11-19T14:35:30:442
1000,822876	103,978760	26,000000	1000,810059	2020-11-19T14:35:30:681
1000,822815	103,978760	25,990000	1000,822754	2020-11-19T14:35:30:922
1000,823730	103,970833	25,990000	1000,831543	2020-11-19T14:35:31:163
1000,821228	103,991974	25,990000	1000,798584	2020-11-19T14:35:31:403
1000,814575	104,050102	25,990000	1000,754883	2020-11-19T14:35:31:643
1000,808228	104,102951	25,990000	1000,751221	2020-11-19T14:35:31:882
1000,804321	104,134659	25,990000	1000,769287	2020-11-19T14:35:32:124
1000,798828	104,182220	25,990000	1000,749268	2020-11-19T14:35:32:364
1000,793152	104,229782	26,000000	1000,742188	2020-11-19T14:35:32:604
1000,790527	104,250916	25,990000	1000,766846	2020-11-19T14:35:32:845
1000,789246	104,261482	25,990000	1000,778076	2020-11-19T14:35:33:084
1000,786499	104,285263	25,990000	1000,761719	2020-11-19T14:35:33:325
1000,786072	104,287910	25,990000	1000,782227	2020-11-19T14:35:33:589
1000,788208	104,269409	25,990000	1000,807373	2020-11-19T14:35:33:805
1000,791138	104,245636	25,990000	1000,817383	2020-11-19T14:35:34:050
1000,790100	104,253555	25,990000	1000,780762	2020-11-19T14:35:34:285
1000,790039	104,256203	25,990000	1000,789551	2020-11-19T14:35:34:526
1000,792236	104,237709	25,990000	1000,812256	2020-11-19T14:35:34:766
1000,792053	104,237709	25,990000	1000,790283	2020-11-19T14:35:35:007
1000,792175	104,237709	25,990000	1000,793457	2020-11-19T14:35:35:247
1000,788208	104,269409	25,990000	1000,752197	2020-11-19T14:35:35:487
1000,786743	104,282623	25,990000	1000,773682	2020-11-19T14:35:35:727
1000,784119	104,306404	25,980000	1000,760498	2020-11-19T14:35:35:968
1000,782776	104,316971	25,990000	1000,770508	2020-11-19T14:35:36:208
1000,781250	104,330185	25,990000	1000,767578	2020-11-19T14:35:36:448
1000,781189	104,330185	25,990000	1000,780518	2020-11-19T14:35:36:689
1000,780823	104,332825	25,990000	1000,777344	2020-11-19T14:35:36:928
1000,780762	104,332825	25,980000	1000,780273	2020-11-19T14:35:37:169
1000,778015	104,356606	25,990000	1000,753662	2020-11-19T14:35:37:409
1000,774231	104,388313	25,990000	1000,739990	2020-11-19T14:35:37:649
1000,775574	104,377747	25,990000	1000,787598	2020-11-19T14:35:37:890
1000,775635	104,375107	25,980000	1000,776123	2020-11-19T14:35:38:171
1000,775940	104,372459	25,980000	1000,778320	2020-11-19T14:35:38:369
1000,778015	104,356606	25,990000	1000,797119	2020-11-19T14:35:38:609
1000,779114	104,346039	25,980000	1000,788818	2020-11-19T14:35:38:851
1000,778992	104,348679	25,980000	1000,778076	2020-11-19T14:35:39:091
1000,778992	104,348679	25,980000	1000,779053	2020-11-19T14:35:39:331
1000,777710	104,359253	25,980000	1000,766357	2020-11-19T14:35:39:571
1000,775818	104,375107	25,980000	1000,759033	2020-11-19T14:35:39:812
1000,777405	104,361893	25,980000	1000,791504	2020-11-19T14:35:40:051
1000,778137	104,356606	25,980000	1000,784912	2020-11-19T14:35:40:291
1000,776428	104,369820	25,969999	1000,760742	2020-11-19T14:35:40:533
1000,775696	104,375107	25,980000	1000,768555	2020-11-19T14:35:40:773
1000,772827	104,398888	25,980000	1000,746826	2020-11-19T14:35:41:013
1000,769592	104,427948	25,980000	1000,740723	2020-11-19T14:35:41:252
1000,770325	104,420021	25,980000	1000,776855	2020-11-19T14:35:41:493
1000,772217	104,404167	25,980000	1000,789062	2020-11-19T14:35:41:733
1000,770874	104,417381	25,980000	1000,758789	2020-11-19T14:35:41:974
1000,770813	104,417381	25,969999	1000,770264	2020-11-19T14:35:42:213
1000,770447	104,420021	25,980000	1000,766846	2020-11-19T14:35:42:454
1000,774414	104,385674	25,969999	1000,810547	2020-11-19T14:35:42:694
1000,777893	104,356606	25,980000	1000,809326	2020-11-19T14:35:42:934
1000,777649	104,359253	25,969999	1000,775635	2020-11-19T14:35:43:175
1000,774292	104,388313	25,969999	1000,743896	2020-11-19T14:35:43:415
1000,771790	104,409454	25,969999	1000,749512	2020-11-19T14:35:43:655
1000,770081	104,422668	25,959999	1000,754883	2020-11-19T14:35:43:895
1000,767090	104,449089	25,969999	1000,740234	2020-11-19T14:35:44:137
1000,764648	104,467583	25,969999	1000,742432	2020-11-19T14:35:44:377
1000,764221	104,472870	25,969999	1000,760010	2020-11-19T14:35:44:615
1000,765564	104,462296	25,969999	1000,777588	2020-11-19T14:35:44:856
1000,765320	104,462296	25,959999	1000,763428	2020-11-19T14:35:45:096
1000,765198	104,464943	25,969999	1000,763916	2020-11-19T14:35:45:337
1000,766846	104,449089	25,969999	1000,781494	2020-11-19T14:35:45:577
1000,768616	104,435875	25,959999	1000,784912	2020-11-19T14:35:45:817
1000,769775	104,425308	25,969999	1000,780273	2020-11-19T14:35:46:057
1000,769104	104,430588	25,969999	1000,763184	2020-11-19T14:35:46:297
1000,770874	104,417381	25,969999	1000,786621	2020-11-19T14:35:46:538
1000,772583	104,401527	25,969999	1000,787598	2020-11-19T14:35:46:779
1000,775452	104,377747	25,969999	1000,801025	2020-11-19T14:35:47:018
1000,778015	104,356606	25,959999	1000,801025	2020-11-19T14:35:47:258
1000,777405	104,361893	25,969999	1000,771729	2020-11-19T14:35:47:499
1000,775208	104,380386	25,959999	1000,755127	2020-11-19T14:35:47:739
1000,776306	104,369820	25,959999	1000,785889	2020-11-19T14:35:47:979
1000,774414	104,385674	25,969999	1000,757080	2020-11-19T14:35:48:220
1000,773376	104,396240	25,959999	1000,764160	2020-11-19T14:35:48:460
1000,772095	104,406815	25,969999	1000,760498	2020-11-19T14:35:48:700
1000,771484	104,412094	25,959999	1000,765625	2020-11-19T14:35:48:940
1000,772400	104,404167	25,959999	1000,780273	2020-11-19T14:35:49:181
1000,776123	104,372459	25,959999	1000,809570	2020-11-19T14:35:49:421
1000,774475	104,385674	25,959999	1000,759521	2020-11-19T14:35:49:661
1000,775513	104,377747	25,969999	1000,784912	2020-11-19T14:35:49:901
1000,776306	104,369820	25,959999	1000,783203	2020-11-19T14:35:50:141
1000,777527	104,359253	25,959999	1000,788086	2020-11-19T14:35:50:382
1000,782654	104,316971	25,959999	1000,828857	2020-11-19T14:35:50:622
1000,788757	104,266769	25,959999	1000,843994	2020-11-19T14:35:50:862
1000,796021	104,206001	25,959999	1000,861572	2020-11-19T14:35:51:103
1000,802246	104,153152	25,959999	1000,858398	2020-11-19T14:35:51:343
1000,807495	104,108231	25,949999	1000,854980	2020-11-19T14:35:51:583
1000,811157	104,076530	25,959999	1000,843994	2020-11-19T14:35:51:823
1000,816589	104,031609	25,959999	1000,864990	2020-11-19T14:35:52:063
1000,823486	103,973480	25,949999	1000,885498	2020-11-19T14:35:52:303
1000,827026	103,944412	25,949999	1000,858887	2020-11-19T14:35:52:544
1000,828308	103,933846	25,949999	1000,839844	2020-11-19T14:35:52:784
1000,828247	103,933846	25,949999	1000,827148	2020-11-19T14:35:53:024
1000,826233	103,952339	25,949999	1000,807617	2020-11-19T14:35:53:264
1000,824402	103,965553	25,949999	1000,807617	2020-11-19T14:35:53:504
1000,821960	103,986687	25,949999	1000,799805	2020-11-19T14:35:53:744
1000,820435	103,999901	25,949999	1000,806641	2020-11-19T14:35:53:985
1000,816040	104,036896	25,949999	1000,776611	2020-11-19T14:35:54:225
1000,811707	104,073883	25,949999	1000,772705	2020-11-19T14:35:54:465
1000,806519	104,116158	25,949999	1000,759521	2020-11-19T14:35:54:705
1000,802612	104,150513	25,949999	1000,767334	2020-11-19T14:35:54:946
1000,800720	104,166367	25,949999	1000,783691	2020-11-19T14:35:55:187
1000,798462	104,184860	25,949999	1000,777832	2020-11-19T14:35:55:427
1000,797607	104,192787	25,949999	1000,790283	2020-11-19T14:35:55:668
1000,796753	104,198074	25,949999	1000,788818	2020-11-19T14:35:55:907
1000,795715	104,208641	25,949999	1000,786377	2020-11-19T14:35:56:148
1000,796753	104,198074	25,949999	1000,805908	2020-11-19T14:35:56:388
1000,795715	104,208641	25,949999	1000,786621	2020-11-19T14:35:56:627
1000,797180	104,195427	25,949999	1000,810547	2020-11-19T14:35:56:869
1000,797913	104,187500	25,949999	1000,804443	2020-11-19T14:35:57:108
1000,798889	104,179573	25,949999	1000,807617	2020-11-19T14:35:57:348
1000,799377	104,176933	25,939999	1000,803467	2020-11-19T14:35:57:589
1000,798035	104,187500	25,939999	1000,785889	2020-11-19T14:35:57:829
1000,793274	104,227135	25,939999	1000,750244	2020-11-19T14:35:58:069
1000,787170	104,279984	25,939999	1000,731934	2020-11-19T14:35:58:309
1000,786377	104,285263	25,939999	1000,779053	2020-11-19T14:35:58:550
1000,787048	104,279984	25,939999	1000,793457	2020-11-19T14:35:58:790
1000,786438	104,285263	25,939999	1000,781250	2020-11-19T14:35:59:030
1000,784912	104,298477	25,939999	1000,770996	2020-11-19T14:35:59:270
1000,781860	104,324898	25,939999	1000,754395	2020-11-19T14:35:59:510
1000,779297	104,346039	25,939999	1000,756104	2020-11-19T14:35:59:751
1000,780090	104,338112	25,939999	1000,787109	2020-11-19T14:35:59:992
1000,781677	104,324898	25,939999	1000,795410	2020-11-19T14:36:00:231
1000,784546	104,301117	25,939999	1000,810059	2020-11-19T14:36:00:471
1000,781799	104,324898	25,939999	1000,757080	2020-11-19T14:36:00:711
1000,781067	104,330185	25,939999	1000,774414	2020-11-19T14:36:00:952
1000,780396	104,335472	25,939999	1000,774170	2020-11-19T14:36:01:192
1000,780762	104,332825	25,939999	1000,783936	2020-11-19T14:36:01:432
1000,780151	104,338112	25,939999	1000,774658	2020-11-19T14:36:01:672
1000,779480	104,343399	25,939999	1000,773438	2020-11-19T14:36:01:913
1000,778320	104,353966	25,930000	1000,767822	2020-11-19T14:36:02:153
1000,775513	104,377747	25,930000	1000,750488	2020-11-19T14:36:02:394
1000,773193	104,396240	25,930000	1000,752441	2020-11-19T14:36:02:633
1000,771790	104,409454	25,930000	1000,759277	2020-11-19T14:36:02:874
1000,769409	104,427948	25,930000	1000,748291	2020-11-19T14:36:03:114
1000,763550	104,478149	25,930000	1000,710938	2020-11-19T14:36:03:354
1000,759705	104,509857	25,930000	1000,724609	2020-11-19T14:36:03:595
1000,758362	104,520432	25,920000	1000,746338	2020-11-19T14:36:03:834
1000,758484	104,520432	25,930000	1000,759766	2020-11-19T14:36:04:075
1000,760986	104,499290	25,930000	1000,783447	2020-11-19T14:36:04:315
1000,761658	104,494003	25,930000	1000,767334	2020-11-19T14:36:04:555
1000,760803	104,501930	25,930000	1000,752930	2020-11-19T14:36:04:796
1000,760254	104,504578	25,930000	1000,755615	2020-11-19T14:36:05:036
1000,759460	104,512505	25,920000	1000,752197	2020-11-19T14:36:05:276
1000,759338	104,512505	25,920000	1000,758301	2020-11-19T14:36:05:517
1000,756531	104,536285	25,920000	1000,730713	2020-11-19T14:36:05:757
1000,755737	104,544212	25,920000	1000,748779	2020-11-19T14:36:05:997
1000,754395	104,554779	25,920000	1000,742432	2020-11-19T14:36:06:237
1000,755066	104,549492	25,920000	1000,760742	2020-11-19T14:36:06:477
1000,757263	104,530998	25,920000	1000,776611	2020-11-19T14:36:06:717
1000,761536	104,494003	25,920000	1000,799805	2020-11-19T14:36:06:957
1000,765381	104,462296	25,920000	1000,799805	2020-11-19T14:36:07:198
1000,767212	104,446442	25,920000	1000,783691	2020-11-19T14:36:07:439
1000,767273	104,446442	25,910000	1000,767822	2020-11-19T14:36:07:678
1000,764343	104,470222	25,920000	1000,737549	2020-11-19T14:36:08:242
1000,762817	104,483437	25,910000	1000,749512	2020-11-19T14:36:08:243
1000,762878	104,483437	25,910000	1000,763428	2020-11-19T14:36:08:415
1000,763000	104,483437	25,910000	1000,763672	2020-11-19T14:36:08:642
1000,763916	104,475510	25,910000	1000,771729	2020-11-19T14:36:08:880
1000,763672	104,475510	25,910000	1000,761230	2020-11-19T14:36:09:119
1000,763428	104,478149	25,900000	1000,761230	2020-11-19T14:36:09:360
1000,764160	104,472870	25,910000	1000,770508	2020-11-19T14:36:09:601
1000,764587	104,470222	25,900000	1000,768066	2020-11-19T14:36:09:840
1000,763000	104,483437	25,910000	1000,748779	2020-11-19T14:36:10:082
1000,761169	104,499290	25,900000	1000,744629	2020-11-19T14:36:10:321
1000,757446	104,528358	25,910000	1000,723633	2020-11-19T14:36:10:565
1000,755798	104,544212	25,900000	1000,740967	2020-11-19T14:36:10:802
1000,752991	104,565346	25,910000	1000,727783	2020-11-19T14:36:11:041
1000,751831	104,575920	25,910000	1000,741211	2020-11-19T14:36:11:282
1000,751709	104,578560	25,910000	1000,750244	2020-11-19T14:36:11:524
1000,752014	104,575920	25,910000	1000,754639	2020-11-19T14:36:11:762
1000,751648	104,578560	25,910000	1000,748047	2020-11-19T14:36:12:003
1000,751465	104,578560	25,910000	1000,750000	2020-11-19T14:36:12:243
1000,751160	104,581200	25,920000	1000,748779	2020-11-19T14:36:12:483
1000,753418	104,562706	25,920000	1000,773682	2020-11-19T14:36:12:723
1000,758301	104,523071	25,920000	1000,802490	2020-11-19T14:36:12:963
1000,760559	104,501930	25,920000	1000,780762	2020-11-19T14:36:13:204
1000,762878	104,483437	25,920000	1000,783447	2020-11-19T14:36:13:444
1000,763733	104,475510	25,910000	1000,771484	2020-11-19T14:36:13:684
1000,764099	104,472870	25,920000	1000,767578	2020-11-19T14:36:13:924
1000,765808	104,459656	25,920000	1000,781250	2020-11-19T14:36:14:165
1000,766724	104,451729	25,920000	1000,774902	2020-11-19T14:36:14:405
1000,766174	104,457016	25,920000	1000,761475	2020-11-19T14:36:14:645
1000,766602	104,451729	25,920000	1000,770508	2020-11-19T14:36:14:885
1000,766357	104,454369	25,920000	1000,763672	2020-11-19T14:36:15:126
1000,766418	104,454369	25,920000	1000,766846	2020-11-19T14:36:15:366
1000,762329	104,488724	25,910000	1000,725586	2020-11-19T14:36:15:606
1000,760254	104,504578	25,920000	1000,741211	2020-11-19T14:36:15:847
1000,759827	104,509857	25,920000	1000,756104	2020-11-19T14:36:16:087
1000,757812	104,525711	25,920000	1000,739502	2020-11-19T14:36:16:326
1000,757263	104,530998	25,920000	1000,752197	2020-11-19T14:36:16:567
1000,757751	104,525711	25,920000	1000,762207	2020-11-19T14:36:16:807
1000,754944	104,549492	25,920000	1000,729980	2020-11-19T14:36:17:047
1000,756775	104,536285	25,920000	1000,773193	2020-11-19T14:36:17:288
1000,758789	104,517784	25,920000	1000,776611	2020-11-19T14:36:17:528
1000,755493	104,546852	25,920000	1000,725830	2020-11-19T14:36:17:768
1000,753479	104,562706	25,920000	1000,735352	2020-11-19T14:36:18:009
1000,754333	104,554779	25,930000	1000,762207	2020-11-19T14:36:18:249
1000,754333	104,554779	25,920000	1000,753906	2020-11-19T14:36:18:491
1000,753967	104,557419	25,920000	1000,750244	2020-11-19T14:36:18:730
1000,756104	104,541565	25,920000	1000,775391	2020-11-19T14:36:18:970
1000,757568	104,528358	25,920000	1000,770508	2020-11-19T14:36:19:211
1000,761353	104,496651	25,920000	1000,795898	2020-11-19T14:36:19:452
1000,766785	104,451729	25,920000	1000,815918	2020-11-19T14:36:19:694
1000,767822	104,441162	25,920000	1000,777588	2020-11-19T14:36:19:931
1000,768066	104,441162	25,910000	1000,770264	2020-11-19T14:36:20:171
1000,769226	104,430588	25,910000	1000,780029	2020-11-19T14:36:20:412
1000,770508	104,420021	25,910000	1000,781982	2020-11-19T14:36:20:651
1000,769165	104,430588	25,910000	1000,757324	2020-11-19T14:36:20:892
1000,768433	104,435875	25,910000	1000,762207	2020-11-19T14:36:21:132
1000,765686	104,459656	25,920000	1000,740479	2020-11-19T14:36:21:372
1000,765198	104,464943	25,910000	1000,760986	2020-11-19T14:36:21:612
1000,761292	104,496651	25,910000	1000,725830	2020-11-19T14:36:21:852
1000,757141	104,530998	25,910000	1000,719727	2020-11-19T14:36:22:092
1000,757935	104,525711	25,910000	1000,765381	2020-11-19T14:36:22:333
1000,760986	104,499290	25,900000	1000,788574	2020-11-19T14:36:22:573
1000,759094	104,515144	25,910000	1000,741699	2020-11-19T14:36:22:814
1000,760010	104,507217	25,910000	1000,768311	2020-11-19T14:36:23:053
1000,761963	104,491364	25,900000	1000,779541	2020-11-19T14:36:23:293
1000,760864	104,501930	25,900000	1000,751221	2020-11-19T14:36:23:534
1000,758057	104,523071	25,900000	1000,732910	2020-11-19T14:36:23:774
1000,760925	104,499290	25,900000	1000,786377	2020-11-19T14:36:24:015
1000,766479	104,454369	25,900000	1000,816162	2020-11-19T14:36:24:255
1000,771118	104,414742	25,900000	1000,812988	2020-11-19T14:36:24:495
1000,771973	104,406815	25,900000	1000,779541	2020-11-19T14:36:24:735
1000,770691	104,417381	25,900000	1000,759033	2020-11-19T14:36:24:975
1000,768860	104,433235	25,889999	1000,752441	2020-11-19T14:36:25:216
1000,769958	104,422668	25,889999	1000,779541	2020-11-19T14:36:25:456
1000,768860	104,433235	25,900000	1000,759277	2020-11-19T14:36:25:696
1000,766235	104,454369	25,889999	1000,742676	2020-11-19T14:36:25:936
1000,765686	104,459656	25,889999	1000,760742	2020-11-19T14:36:26:176
1000,761902	104,491364	25,889999	1000,727783	2020-11-19T14:36:26:416
1000,759644	104,509857	25,889999	1000,739746	2020-11-19T14:36:26:658
1000,760254	104,504578	25,889999	1000,765869	2020-11-19T14:36:26:899
1000,761719	104,494003	25,889999	1000,774658	2020-11-19T14:36:27:138
1000,760803	104,501930	25,889999	1000,752197	2020-11-19T14:36:27:377
1000,760254	104,504578	25,879999	1000,755615	2020-11-19T14:36:27:619
1000,759644	104,509857	25,879999	1000,753906	2020-11-19T14:36:27:858
1000,757446	104,528358	25,889999	1000,737549	2020-11-19T14:36:28:099
1000,759705	104,509857	25,889999	1000,779785	2020-11-19T14:36:28:339
1000,760132	104,507217	25,879999	1000,764160	2020-11-19T14:36:28:579
1000,762085	104,491364	25,879999	1000,779541	2020-11-19T14:36:28:820
1000,766907	104,449089	25,879999	1000,810303	2020-11-19T14:36:29:060
1000,771484	104,412094	25,879999	1000,812744	2020-11-19T14:36:29:300
1000,777039	104,364532	25,879999	1000,826660	2020-11-19T14:36:29:540
1000,781006	104,330185	25,869999	1000,816162	2020-11-19T14:36:29:781
1000,784546	104,301117	25,869999	1000,816650	2020-11-19T14:36:30:021
1000,783936	104,306404	25,869999	1000,778564	2020-11-19T14:36:30:261
1000,783447	104,311691	25,879999	1000,779297	2020-11-19T14:36:30:501
1000,782593	104,316971	25,869999	1000,774902	2020-11-19T14:36:30:740
1000,785339	104,295837	25,869999	1000,810547	2020-11-19T14:36:30:980
1000,788513	104,266769	25,869999	1000,817139	2020-11-19T14:36:31:220
1000,791870	104,240349	25,869999	1000,822021	2020-11-19T14:36:31:459
1000,792053	104,237709	25,869999	1000,793701	2020-11-19T14:36:31:703
1000,792847	104,232422	25,869999	1000,800049	2020-11-19T14:36:31:940
1000,793579	104,224495	25,859999	1000,800049	2020-11-19T14:36:32:180
1000,796387	104,200714	25,859999	1000,822021	2020-11-19T14:36:32:423
1000,796509	104,200714	25,859999	1000,797607	2020-11-19T14:36:32:663
1000,798706	104,182220	25,849998	1000,818359	2020-11-19T14:36:32:904
1000,797180	104,195427	25,859999	1000,783447	2020-11-19T14:36:33:144
1000,795166	104,211281	25,859999	1000,776611	2020-11-19T14:36:33:383
1000,791199	104,245636	25,859999	1000,755127	2020-11-19T14:36:33:623
1000,784790	104,298477	25,859999	1000,727295	2020-11-19T14:36:33:864
1000,783325	104,311691	25,859999	1000,770264	2020-11-19T14:36:34:104
1000,782776	104,316971	25,859999	1000,778076	2020-11-19T14:36:34:345
1000,784607	104,301117	25,859999	1000,801025	2020-11-19T14:36:34:587
1000,783569	104,309044	25,849998	1000,774414	2020-11-19T14:36:34:825
1000,783936	104,306404	25,859999	1000,786865	2020-11-19T14:36:35:064
1000,784424	104,303764	25,849998	1000,788818	2020-11-19T14:36:35:305
1000,782532	104,319618	25,849998	1000,765625	2020-11-19T14:36:35:545
1000,781250	104,330185	25,849998	1000,769287	2020-11-19T14:36:35:785
1000,778320	104,353966	25,849998	1000,751709	2020-11-19T14:36:36:026
1000,775757	104,375107	25,849998	1000,752686	2020-11-19T14:36:36:266
1000,775696	104,375107	25,849998	1000,774902	2020-11-19T14:36:36:507
1000,775635	104,375107	25,849998	1000,774658	2020-11-19T14:36:36:747
1000,777405	104,361893	25,849998	1000,793213	2020-11-19T14:36:36:989
1000,776978	104,364532	25,849998	1000,773193	2020-11-19T14:36:37:228
1000,777100	104,364532	25,859999	1000,778076	2020-11-19T14:36:37:467
1000,776489	104,369820	25,849998	1000,771484	2020-11-19T14:36:37:708
1000,777405	104,361893	25,849998	1000,785889	2020-11-19T14:36:37:948
1000,777466	104,361893	25,849998	1000,778076	2020-11-19T14:36:38:189
1000,775879	104,375107	25,849998	1000,761719	2020-11-19T14:36:38:429
1000,775146	104,380386	25,849998	1000,768555	2020-11-19T14:36:38:669
1000,774536	104,385674	25,849998	1000,769043	2020-11-19T14:36:38:910
1000,773560	104,393600	25,849998	1000,764648	2020-11-19T14:36:39:149
1000,769958	104,422668	25,849998	1000,737549	2020-11-19T14:36:39:389
1000,770752	104,417381	25,849998	1000,777832	2020-11-19T14:36:39:629
1000,773376	104,396240	25,849998	1000,797119	2020-11-19T14:36:39:870
1000,775940	104,372459	25,840000	1000,798584	2020-11-19T14:36:40:110
1000,777283	104,361893	25,840000	1000,789551	2020-11-19T14:36:40:350
1000,776001	104,372459	25,849998	1000,764404	2020-11-19T14:36:40:595
1000,775146	104,380386	25,840000	1000,767334	2020-11-19T14:36:40:832
1000,773926	104,390961	25,840000	1000,762451	2020-11-19T14:36:41:071
1000,775513	104,377747	25,849998	1000,789307	2020-11-19T14:36:41:312
1000,777039	104,364532	25,840000	1000,791016	2020-11-19T14:36:41:552
1000,774170	104,388313	25,840000	1000,748291	2020-11-19T14:36:41:792
1000,769409	104,427948	25,830000	1000,726562	2020-11-19T14:36:42:033
1000,765869	104,459656	25,840000	1000,733887	2020-11-19T14:36:42:272
1000,761780	104,494003	25,830000	1000,724854	2020-11-19T14:36:42:512
1000,760376	104,504578	25,840000	1000,747559	2020-11-19T14:36:42:752
1000,761475	104,496651	25,830000	1000,770996	2020-11-19T14:36:42:993
1000,762207	104,488724	25,830000	1000,769043	2020-11-19T14:36:43:233
1000,760071	104,507217	25,830000	1000,740967	2020-11-19T14:36:43:472
1000,758789	104,517784	25,830000	1000,747559	2020-11-19T14:36:43:714
1000,754883	104,552139	25,830000	1000,719727	2020-11-19T14:36:43:954
1000,750916	104,583847	25,830000	1000,715088	2020-11-19T14:36:44:194
1000,748901	104,602341	25,820000	1000,730713	2020-11-19T14:36:44:434
1000,751099	104,583847	25,830000	1000,770752	2020-11-19T14:36:44:675
1000,752563	104,570633	25,820000	1000,765869	2020-11-19T14:36:44:915
1000,749634	104,594414	25,820000	1000,723145	2020-11-19T14:36:45:155
1000,747864	104,610268	25,809999	1000,732422	2020-11-19T14:36:45:395
1000,748962	104,599693	25,809999	1000,759277	2020-11-19T14:36:45:636
1000,751160	104,581200	25,820000	1000,770752	2020-11-19T14:36:45:876
1000,750427	104,589127	25,809999	1000,743652	2020-11-19T14:36:46:116
1000,751221	104,581200	25,820000	1000,758545	2020-11-19T14:36:46:356
1000,752441	104,570633	25,809999	1000,763184	2020-11-19T14:36:46:596
1000,752808	104,567993	25,799999	1000,755859	2020-11-19T14:36:46:837
1000,752686	104,567993	25,799999	1000,751465	2020-11-19T14:36:47:077
1000,752930	104,567993	25,799999	1000,755127	2020-11-19T14:36:47:317
1000,756287	104,538925	25,809999	1000,786377	2020-11-19T14:36:47:558
1000,755920	104,541565	25,799999	1000,752197	2020-11-19T14:36:47:798
1000,754883	104,552139	25,799999	1000,745850	2020-11-19T14:36:48:039
1000,756287	104,538925	25,799999	1000,768555	2020-11-19T14:36:48:279
1000,756470	104,538925	25,799999	1000,758057	2020-11-19T14:36:48:519
1000,755859	104,541565	25,799999	1000,750488	2020-11-19T14:36:48:759
1000,755920	104,541565	25,789999	1000,756592	2020-11-19T14:36:48:999
1000,759216	104,515144	25,799999	1000,789062	2020-11-19T14:36:49:240
1000,761841	104,491364	25,789999	1000,785156	2020-11-19T14:36:49:479
1000,764771	104,467583	25,789999	1000,791260	2020-11-19T14:36:49:721
1000,767700	104,443802	25,799999	1000,793945	2020-11-19T14:36:49:960
1000,768188	104,438515	25,789999	1000,772217	2020-11-19T14:36:50:200
1000,768860	104,433235	25,799999	1000,774658	2020-11-19T14:36:50:442
1000,769104	104,430588	25,789999	1000,771484	2020-11-19T14:36:50:680
1000,766907	104,449089	25,789999	1000,746582	2020-11-19T14:36:50:921
1000,764465	104,470222	25,779999	1000,742432	2020-11-19T14:36:51:162
1000,762146	104,488724	25,789999	1000,741455	2020-11-19T14:36:51:401
1000,762573	104,486076	25,789999	1000,766113	2020-11-19T14:36:51:642
1000,762329	104,488724	25,779999	1000,760498	2020-11-19T14:36:51:882
1000,762146	104,488724	25,779999	1000,760254	2020-11-19T14:36:52:122
1000,759949	104,507217	25,779999	1000,739990	2020-11-19T14:36:52:363
1000,757263	104,530998	25,769999	1000,732910	2020-11-19T14:36:52:602
1000,756714	104,536285	25,779999	1000,751953	2020-11-19T14:36:52:843
1000,759399	104,512505	25,769999	1000,783203	2020-11-19T14:36:53:083
1000,762817	104,483437	25,769999	1000,793945	2020-11-19T14:36:53:323
1000,762939	104,483437	25,769999	1000,763916	2020-11-19T14:36:53:564
1000,760498	104,504578	25,769999	1000,738037	2020-11-19T14:36:53:804
1000,759460	104,512505	25,769999	1000,750000	2020-11-19T14:36:54:045
1000,757568	104,528358	25,769999	1000,740723	2020-11-19T14:36:54:284
1000,758667	104,517784	25,769999	1000,768799	2020-11-19T14:36:54:524
1000,760437	104,504578	25,760000	1000,775879	2020-11-19T14:36:54:764
1000,764160	104,472870	25,760000	1000,797607	2020-11-19T14:36:55:006
1000,765686	104,459656	25,760000	1000,779053	2020-11-19T14:36:55:245
1000,765930	104,457016	25,760000	1000,768066	2020-11-19T14:36:55:485
1000,763367	104,478149	25,760000	1000,740234	2020-11-19T14:36:55:726
1000,766663	104,451729	25,760000	1000,796143	2020-11-19T14:36:55:965
1000,769836	104,425308	25,760000	1000,797852	2020-11-19T14:36:56:207
1000,769592	104,427948	25,760000	1000,767822	2020-11-19T14:36:56:446
1000,769958	104,422668	25,750000	1000,773193	2020-11-19T14:36:56:687
1000,767639	104,443802	25,750000	1000,746826	2020-11-19T14:36:56:927
1000,764099	104,472870	25,760000	1000,732422	2020-11-19T14:36:57:167
1000,760742	104,501930	25,750000	1000,730225	2020-11-19T14:36:57:408
1000,757996	104,525711	25,750000	1000,733643	2020-11-19T14:36:57:649
1000,757385	104,530998	25,750000	1000,751465	2020-11-19T14:36:57:887
1000,758606	104,520432	25,750000	1000,769287	2020-11-19T14:36:58:128
1000,757751	104,525711	25,750000	1000,749756	2020-11-19T14:36:58:368
1000,755493	104,546852	25,750000	1000,735107	2020-11-19T14:36:58:608
1000,756104	104,541565	25,740000	1000,761230	2020-11-19T14:36:58:848
1000,757324	104,530998	25,740000	1000,768311	2020-11-19T14:36:59:089
1000,760132	104,507217	25,740000	1000,785156	2020-11-19T14:36:59:329
1000,757935	104,525711	25,740000	1000,738281	2020-11-19T14:36:59:571
1000,758057	104,523071	25,740000	1000,759033	2020-11-19T14:36:59:809
1000,758850	104,517784	25,740000	1000,765869	2020-11-19T14:37:00:050
1000,756165	104,538925	25,740000	1000,731934	2020-11-19T14:37:00:290
1000,755981	104,541565	25,740000	1000,753906	2020-11-19T14:37:00:530
1000,756775	104,536285	25,740000	1000,763672	2020-11-19T14:37:00:772
1000,757202	104,530998	25,730000	1000,760986	2020-11-19T14:37:01:011
1000,758728	104,517784	25,730000	1000,772461	2020-11-19T14:37:01:251
1000,758301	104,523071	25,730000	1000,754395	2020-11-19T14:37:01:491
1000,756287	104,538925	25,730000	1000,738525	2020-11-19T14:37:01:731
1000,756836	104,533638	25,730000	1000,761230	2020-11-19T14:37:01:972
1000,759827	104,509857	25,730000	1000,786377	2020-11-19T14:37:02:212
1000,760986	104,499290	25,719999	1000,770996	2020-11-19T14:37:02:452
1000,760498	104,504578	25,730000	1000,755859	2020-11-19T14:37:02:692
1000,760620	104,501930	25,730000	1000,761719	2020-11-19T14:37:02:933
1000,758179	104,523071	25,730000	1000,736328	2020-11-19T14:37:03:173
1000,757019	104,533638	25,719999	1000,747070	2020-11-19T14:37:03:413
1000,758057	104,523071	25,719999	1000,767578	2020-11-19T14:37:03:653
1000,759094	104,515144	25,709999	1000,768066	2020-11-19T14:37:03:893
1000,756714	104,536285	25,719999	1000,735107	2020-11-19T14:37:04:157
1000,753784	104,560066	25,719999	1000,727539	2020-11-19T14:37:04:374
1000,753723	104,560066	25,709999	1000,753174	2020-11-19T14:37:04:615
1000,755188	104,549492	25,709999	1000,768311	2020-11-19T14:37:04:854
1000,759644	104,509857	25,699999	1000,799805	2020-11-19T14:37:05:096
1000,762207	104,488724	25,699999	1000,785156	2020-11-19T14:37:05:335
1000,762512	104,486076	25,699999	1000,765381	2020-11-19T14:37:05:577
1000,762085	104,491364	25,699999	1000,758301	2020-11-19T14:37:05:815
1000,760498	104,504578	25,699999	1000,746094	2020-11-19T14:37:06:055
1000,760254	104,504578	25,699999	1000,758057	2020-11-19T14:37:06:296
1000,758667	104,517784	25,699999	1000,744629	2020-11-19T14:37:06:536
1000,757751	104,525711	25,699999	1000,749023	2020-11-19T14:37:06:776
1000,757568	104,528358	25,699999	1000,755859	2020-11-19T14:37:07:017
1000,758301	104,523071	25,689999	1000,764893	2020-11-19T14:37:07:257
1000,759216	104,515144	25,689999	1000,767578	2020-11-19T14:37:07:497
1000,758606	104,520432	25,689999	1000,752930	2020-11-19T14:37:07:737
1000,755249	104,546852	25,689999	1000,724609	2020-11-19T14:37:07:977
1000,749451	104,597054	25,689999	1000,697266	2020-11-19T14:37:08:217
1000,747559	104,612907	25,689999	1000,730469	2020-11-19T14:37:08:458
1000,749878	104,591766	25,689999	1000,770752	2020-11-19T14:37:08:698
1000,749878	104,591766	25,689999	1000,749756	2020-11-19T14:37:08:939
1000,748840	104,602341	25,680000	1000,739746	2020-11-19T14:37:09:179
1000,748779	104,602341	25,689999	1000,748291	2020-11-19T14:37:09:419
1000,749939	104,591766	25,680000	1000,760254	2020-11-19T14:37:09:659
1000,751709	104,578560	25,680000	1000,767334	2020-11-19T14:37:09:899
1000,750427	104,589127	25,680000	1000,738770	2020-11-19T14:37:10:139
1000,750061	104,591766	25,680000	1000,746826	2020-11-19T14:37:10:380
1000,751160	104,581200	25,680000	1000,760986	2020-11-19T14:37:10:620
1000,755615	104,544212	25,680000	1000,795410	2020-11-19T14:37:10:860
1000,759277	104,515144	25,680000	1000,791992	2020-11-19T14:37:11:101
1000,763367	104,478149	25,670000	1000,800049	2020-11-19T14:37:11:341
1000,765259	104,462296	25,670000	1000,781982	2020-11-19T14:37:11:582
1000,767334	104,446442	25,670000	1000,786133	2020-11-19T14:37:11:821
1000,773132	104,396240	25,670000	1000,825684	2020-11-19T14:37:12:062
1000,775818	104,375107	25,670000	1000,799805	2020-11-19T14:37:12:303
1000,775818	104,375107	25,660000	1000,775391	2020-11-19T14:37:12:542
1000,776245	104,369820	25,660000	1000,779785	2020-11-19T14:37:12:783
1000,772827	104,398888	25,660000	1000,741943	2020-11-19T14:37:13:023
1000,770386	104,420021	25,660000	1000,748535	2020-11-19T14:37:13:262
1000,768250	104,438515	25,660000	1000,749023	2020-11-19T14:37:13:502
1000,763428	104,478149	25,660000	1000,719971	2020-11-19T14:37:13:743
1000,756958	104,533638	25,660000	1000,698730	2020-11-19T14:37:13:983
1000,755493	104,546852	25,650000	1000,742432	2020-11-19T14:37:14:223
1000,755066	104,549492	25,650000	1000,750977	2020-11-19T14:37:14:464
1000,755188	104,549492	25,650000	1000,755859	2020-11-19T14:37:14:704
1000,756531	104,536285	25,650000	1000,768555	2020-11-19T14:37:14:944
1000,757080	104,533638	25,650000	1000,762207	2020-11-19T14:37:15:186
1000,757690	104,528358	25,639999	1000,763428	2020-11-19T14:37:15:425
1000,756104	104,541565	25,650000	1000,742188	2020-11-19T14:37:15:665
1000,756042	104,541565	25,650000	1000,755371	2020-11-19T14:37:15:905
1000,753052	104,565346	25,639999	1000,725830	2020-11-19T14:37:16:146
1000,750916	104,583847	25,639999	1000,731445	2020-11-19T14:37:16:386
1000,750244	104,589127	25,639999	1000,744141	2020-11-19T14:37:16:626
1000,751099	104,583847	25,639999	1000,758789	2020-11-19T14:37:16:866
1000,750061	104,591766	25,639999	1000,740723	2020-11-19T14:37:17:106
1000,751831	104,575920	25,639999	1000,767822	2020-11-19T14:37:17:347
1000,752686	104,567993	25,629999	1000,760498	2020-11-19T14:37:17:588
1000,753235	104,565346	25,629999	1000,758301	2020-11-19T14:37:17:827
1000,749878	104,591766	25,629999	1000,719482	2020-11-19T14:37:18:068
1000,749207	104,599693	25,629999	1000,743408	2020-11-19T14:37:18:308
1000,748718	104,602341	25,629999	1000,744629	2020-11-19T14:37:18:548
1000,744263	104,639328	25,619999	1000,703857	2020-11-19T14:37:18:788
1000,744995	104,634048	25,629999	1000,751465	2020-11-19T14:37:19:028
1000,744080	104,641975	25,619999	1000,735840	2020-11-19T14:37:19:269
1000,743469	104,647255	25,619999	1000,737549	2020-11-19T14:37:19:509
1000,741882	104,660469	25,619999	1000,727051	2020-11-19T14:37:19:749
1000,743774	104,644615	25,619999	1000,760986	2020-11-19T14:37:19:989
1000,744629	104,636688	25,619999	1000,752441	2020-11-19T14:37:20:229
1000,745605	104,628761	25,619999	1000,754150	2020-11-19T14:37:20:470
1000,745422	104,631401	25,619999	1000,743652	2020-11-19T14:37:20:710
1000,745422	104,631401	25,619999	1000,745850	2020-11-19T14:37:20:950
1000,747009	104,618195	25,609999	1000,761719	2020-11-19T14:37:21:190
1000,750122	104,591766	25,609999	1000,777832	2020-11-19T14:37:21:431
1000,753601	104,562706	25,609999	1000,784668	2020-11-19T14:37:21:671
1000,754150	104,557419	25,599998	1000,759033	2020-11-19T14:37:21:911
1000,750732	104,586487	25,609999	1000,720215	2020-11-19T14:37:22:151
1000,751099	104,583847	25,609999	1000,753906	2020-11-19T14:37:22:392
1000,749084	104,599693	25,609999	1000,730713	2020-11-19T14:37:22:632
1000,750610	104,586487	25,599998	1000,764648	2020-11-19T14:37:22:883
1000,748657	104,602341	25,599998	1000,731201	2020-11-19T14:37:23:112
1000,744690	104,636688	25,599998	1000,708984	2020-11-19T14:37:23:352
1000,745178	104,631401	25,599998	1000,749268	2020-11-19T14:37:23:592
1000,746338	104,623474	25,599998	1000,756592	2020-11-19T14:37:23:832
1000,747192	104,615547	25,599998	1000,754639	2020-11-19T14:37:24:073
1000,748718	104,602341	25,599998	1000,762695	2020-11-19T14:37:24:314
1000,748657	104,602341	25,590000	1000,748291	2020-11-19T14:37:24:553
1000,750061	104,591766	25,590000	1000,762939	2020-11-19T14:37:24:794
1000,750366	104,589127	25,590000	1000,752930	2020-11-19T14:37:25:034
1000,749390	104,597054	25,590000	1000,740723	2020-11-19T14:37:25:274
1000,751831	104,575920	25,590000	1000,773682	2020-11-19T14:37:25:515
1000,750916	104,583847	25,590000	1000,742676	2020-11-19T14:37:25:755
1000,747498	104,612907	25,580000	1000,716797	2020-11-19T14:37:25:995
1000,748962	104,599693	25,590000	1000,762207	2020-11-19T14:37:26:235
1000,748718	104,602341	25,580000	1000,746338	2020-11-19T14:37:26:476
1000,745972	104,626122	25,590000	1000,721191	2020-11-19T14:37:26:716
1000,742920	104,652542	25,580000	1000,715820	2020-11-19T14:37:26:956
1000,742737	104,652542	25,580000	1000,741211	2020-11-19T14:37:27:196
1000,740723	104,671036	25,580000	1000,722656	2020-11-19T14:37:27:436
1000,741821	104,660469	25,580000	1000,751465	2020-11-19T14:37:27:677
1000,742188	104,657829	25,580000	1000,745605	2020-11-19T14:37:27:917
1000,741577	104,663109	25,580000	1000,735840	2020-11-19T14:37:28:157
1000,741699	104,660469	25,580000	1000,742432	2020-11-19T14:37:28:397
1000,741760	104,660469	25,580000	1000,742676	2020-11-19T14:37:28:637
1000,739258	104,681610	25,570000	1000,717041	2020-11-19T14:37:28:878
1000,743042	104,649902	25,570000	1000,777100	2020-11-19T14:37:29:118
1000,743286	104,647255	25,570000	1000,745361	2020-11-19T14:37:29:358
1000,745544	104,628761	25,570000	1000,765869	2020-11-19T14:37:29:598
1000,747009	104,618195	25,559999	1000,760254	2020-11-19T14:37:29:839
1000,745911	104,626122	25,559999	1000,735596	2020-11-19T14:37:30:079
1000,747681	104,610268	25,570000	1000,763184	2020-11-19T14:37:30:319
1000,750793	104,586487	25,559999	1000,778809	2020-11-19T14:37:30:559
1000,751160	104,581200	25,559999	1000,754150	2020-11-19T14:37:30:799
1000,751587	104,578560	25,559999	1000,755127	2020-11-19T14:37:31:040
1000,753357	104,562706	25,549999	1000,769531	2020-11-19T14:37:31:280
1000,754517	104,554779	25,549999	1000,765137	2020-11-19T14:37:31:520
1000,753357	104,562706	25,549999	1000,742920	2020-11-19T14:37:31:760
1000,754211	104,557419	25,539999	1000,761963	2020-11-19T14:37:32:001
1000,752258	104,573273	25,549999	1000,734375	2020-11-19T14:37:32:240
1000,752197	104,573273	25,539999	1000,751465	2020-11-19T14:37:32:481
1000,751282	104,581200	25,539999	1000,743408	2020-11-19T14:37:32:722
1000,751282	104,581200	25,539999	1000,750977	2020-11-19T14:37:32:961
1000,754333	104,554779	25,539999	1000,781738	2020-11-19T14:37:33:203
1000,755005	104,549492	25,539999	1000,760742	2020-11-19T14:37:33:442
1000,753662	104,560066	25,539999	1000,741455	2020-11-19T14:37:33:684
1000,756165	104,538925	25,539999	1000,778809	2020-11-19T14:37:33:922
1000,757935	104,525711	25,539999	1000,773682	2020-11-19T14:37:34:163
1000,756226	104,538925	25,539999	1000,740479	2020-11-19T14:37:34:403
1000,751709	104,578560	25,529999	1000,710938	2020-11-19T14:37:34:643
1000,749573	104,594414	25,529999	1000,730225	2020-11-19T14:37:34:884
1000,749084	104,599693	25,529999	1000,744629	2020-11-19T14:37:35:124
1000,744324	104,639328	25,529999	1000,701660	2020-11-19T14:37:35:364
1000,744690	104,636688	25,529999	1000,748047	2020-11-19T14:37:35:604
1000,744934	104,634048	25,519999	1000,746582	2020-11-19T14:37:35:848
1000,743774	104,644615	25,519999	1000,733154	2020-11-19T14:37:36:085
1000,743896	104,644615	25,529999	1000,744873	2020-11-19T14:37:36:325
1000,749084	104,599693	25,519999	1000,795410	2020-11-19T14:37:36:565
1000,749084	104,599693	25,510000	1000,749512	2020-11-19T14:37:36:806
1000,751099	104,583847	25,510000	1000,769531	2020-11-19T14:37:37:046
1000,752014	104,575920	25,519999	1000,760498	2020-11-19T14:37:37:287
1000,754456	104,554779	25,519999	1000,776367	2020-11-19T14:37:37:526
1000,757446	104,528358	25,519999	1000,783936	2020-11-19T14:37:37:766
1000,760925	104,499290	25,510000	1000,792236	2020-11-19T14:37:38:007
1000,761169	104,499290	25,510000	1000,763184	2020-11-19T14:37:38:247
1000,762329	104,488724	25,510000	1000,772461	2020-11-19T14:37:38:488
1000,762085	104,491364	25,500000	1000,759766	2020-11-19T14:37:38:727
1000,763367	104,478149	25,500000	1000,775146	2020-11-19T14:37:38:968
1000,762939	104,483437	25,500000	1000,759277	2020-11-19T14:37:39:207
1000,764038	104,472870	25,500000	1000,773926	2020-11-19T14:37:39:448
1000,762268	104,488724	25,490000	1000,746338	2020-11-19T14:37:39:689
1000,760193	104,507217	25,500000	1000,741455	2020-11-19T14:37:39:929
1000,759583	104,512505	25,500000	1000,754395	2020-11-19T14:37:40:169
1000,760376	104,504578	25,500000	1000,767822	2020-11-19T14:37:40:409
1000,759644	104,509857	25,500000	1000,753174	2020-11-19T14:37:40:649
1000,757080	104,533638	25,500000	1000,734131	2020-11-19T14:37:40:890
1000,753723	104,560066	25,490000	1000,723633	2020-11-19T14:37:41:129
1000,751526	104,578560	25,490000	1000,731445	2020-11-19T14:37:41:370
1000,748718	104,602341	25,490000	1000,723633	2020-11-19T14:37:42:033
1000,747559	104,612907	25,490000	1000,737061	2020-11-19T14:37:42:106
1000,747437	104,612907	25,490000	1000,746094	2020-11-19T14:37:42:174
1000,747314	104,615547	25,480000	1000,746338	2020-11-19T14:37:42:334
1000,748657	104,602341	25,480000	1000,760986	2020-11-19T14:37:42:597
1000,752441	104,570633	25,480000	1000,786377	2020-11-19T14:37:42:809
1000,755310	104,546852	25,469999	1000,780762	2020-11-19T14:37:43:051
1000,757507	104,528358	25,469999	1000,777588	2020-11-19T14:37:43:293
1000,759583	104,512505	25,480000	1000,778076	2020-11-19T14:37:43:533
1000,759033	104,515144	25,480000	1000,753906	2020-11-19T14:37:43:773
1000,756958	104,533638	25,469999	1000,738037	2020-11-19T14:37:44:014
1000,753601	104,562706	25,480000	1000,723389	2020-11-19T14:37:44:262
1000,753235	104,565346	25,480000	1000,750000	2020-11-19T14:37:44:494
1000,755127	104,549492	25,469999	1000,771729	2020-11-19T14:37:44:733
1000,753723	104,560066	25,480000	1000,741455	2020-11-19T14:37:44:973
1000,753540	104,562706	25,469999	1000,751953	2020-11-19T14:37:45:224
1000,753967	104,557419	25,469999	1000,757812	2020-11-19T14:37:45:454
1000,755676	104,544212	25,480000	1000,771484	2020-11-19T14:37:45:694
1000,756409	104,538925	25,480000	1000,762451	2020-11-19T14:37:45:934
1000,754578	104,552139	25,469999	1000,738525	2020-11-19T14:37:46:175
1000,751587	104,578560	25,469999	1000,724854	2020-11-19T14:37:46:415
1000,750793	104,586487	25,469999	1000,743652	2020-11-19T14:37:46:656
1000,749634	104,594414	25,469999	1000,738770	2020-11-19T14:37:46:896
1000,749634	104,594414	25,480000	1000,749756	2020-11-19T14:37:47:135
1000,752197	104,573273	25,480000	1000,775635	2020-11-19T14:37:47:376
1000,751160	104,581200	25,480000	1000,741943	2020-11-19T14:37:47:617
1000,747253	104,615547	25,480000	1000,712158	2020-11-19T14:37:47:856
1000,744324	104,639328	25,480000	1000,718018	2020-11-19T14:37:48:097
1000,741882	104,660469	25,480000	1000,719727	2020-11-19T14:37:48:336
1000,740662	104,671036	25,480000	1000,729492	2020-11-19T14:37:48:576
1000,742432	104,655182	25,480000	1000,758545	2020-11-19T14:37:48:817
1000,743835	104,644615	25,480000	1000,756836	2020-11-19T14:37:49:057
1000,747131	104,615547	25,480000	1000,776855	2020-11-19T14:37:49:298
1000,749817	104,594414	25,480000	1000,773438	2020-11-19T14:37:49:538
1000,751282	104,581200	25,469999	1000,764648	2020-11-19T14:37:49:779
1000,752075	104,573273	25,480000	1000,759277	2020-11-19T14:37:50:019
1000,755127	104,549492	25,480000	1000,782959	2020-11-19T14:37:50:259
1000,754211	104,557419	25,469999	1000,746338	2020-11-19T14:37:50:499
1000,753296	104,565346	25,480000	1000,744873	2020-11-19T14:37:50:739
1000,751892	104,575920	25,480000	1000,739258	2020-11-19T14:37:50:980
1000,749817	104,594414	25,469999	1000,730713	2020-11-19T14:37:51:220
1000,750244	104,589127	25,469999	1000,754150	2020-11-19T14:37:51:460
1000,750305	104,589127	25,469999	1000,750977	2020-11-19T14:37:51:700
1000,748474	104,604980	25,469999	1000,732178	2020-11-19T14:37:51:940
1000,744385	104,639328	25,469999	1000,708008	2020-11-19T14:37:52:180
1000,740295	104,673683	25,469999	1000,703613	2020-11-19T14:37:52:421
1000,739746	104,678963	25,469999	1000,734375	2020-11-19T14:37:52:661
1000,737183	104,700104	25,459999	1000,713867	2020-11-19T14:37:52:902
1000,734802	104,718597	25,459999	1000,713135	2020-11-19T14:37:53:141
1000,734375	104,723885	25,469999	1000,730469	2020-11-19T14:37:53:382
1000,736328	104,708031	25,459999	1000,753906	2020-11-19T14:37:53:621
1000,736633	104,705391	25,459999	1000,739258	2020-11-19T14:37:53:862
1000,739380	104,681610	25,459999	1000,763916	2020-11-19T14:37:54:103
1000,741577	104,663109	25,459999	1000,761230	2020-11-19T14:37:54:343
1000,743103	104,649902	25,459999	1000,756592	2020-11-19T14:37:54:583
1000,742004	104,657829	25,459999	1000,732422	2020-11-19T14:37:54:823
1000,740540	104,671036	25,459999	1000,727539	2020-11-19T14:37:55:064
1000,739624	104,678963	25,459999	1000,731445	2020-11-19T14:37:55:303
1000,741577	104,663109	25,459999	1000,759033	2020-11-19T14:37:55:544
1000,745422	104,631401	25,449999	1000,779541	2020-11-19T14:37:55:784
1000,747009	104,618195	25,449999	1000,761719	2020-11-19T14:37:56:025
1000,747314	104,615547	25,439999	1000,750000	2020-11-19T14:37:56:265
1000,749573	104,594414	25,439999	1000,769775	2020-11-19T14:37:56:505
1000,747559	104,612907	25,449999	1000,729004	2020-11-19T14:37:56:745
1000,747620	104,612907	25,439999	1000,747803	2020-11-19T14:37:56:985
1000,749146	104,599693	25,449999	1000,762451	2020-11-19T14:37:57:225
1000,746948	104,618195	25,439999	1000,727051	2020-11-19T14:37:57:466
1000,747681	104,610268	25,439999	1000,754395	2020-11-19T14:37:57:707
1000,745422	104,631401	25,430000	1000,724609	2020-11-19T14:37:57:946
1000,747253	104,615547	25,439999	1000,763672	2020-11-19T14:37:58:187
1000,751099	104,583847	25,439999	1000,786133	2020-11-19T14:37:58:427
1000,754639	104,552139	25,430000	1000,786377	2020-11-19T14:37:58:667
1000,756042	104,541565	25,430000	1000,768799	2020-11-19T14:37:58:908
1000,754761	104,552139	25,430000	1000,742920	2020-11-19T14:37:59:148
1000,754456	104,554779	25,430000	1000,751709	2020-11-19T14:37:59:388
1000,755615	104,544212	25,420000	1000,765869	2020-11-19T14:37:59:629
1000,754700	104,552139	25,430000	1000,746094	2020-11-19T14:37:59:868
1000,758545	104,520432	25,430000	1000,793213	2020-11-19T14:38:00:109
1000,758545	104,520432	25,420000	1000,758301	2020-11-19T14:38:00:348
1000,755798	104,544212	25,420000	1000,731201	2020-11-19T14:38:00:595
1000,753296	104,565346	25,420000	1000,731201	2020-11-19T14:38:00:829
1000,752686	104,567993	25,420000	1000,747314	2020-11-19T14:38:01:069
1000,749146	104,599693	25,420000	1000,717773	2020-11-19T14:38:01:310
1000,745728	104,628761	25,410000	1000,715088	2020-11-19T14:38:01:550
1000,742737	104,652542	25,410000	1000,715820	2020-11-19T14:38:01:790
1000,743591	104,644615	25,420000	1000,750977	2020-11-19T14:38:02:030
1000,742920	104,652542	25,410000	1000,737061	2020-11-19T14:38:02:270
1000,745056	104,634048	25,410000	1000,764404	2020-11-19T14:38:02:511
1000,746033	104,626122	25,410000	1000,754883	2020-11-19T14:38:02:751
1000,745422	104,631401	25,410000	1000,739990	2020-11-19T14:38:02:992
1000,743103	104,649902	25,400000	1000,722168	2020-11-19T14:38:03:231
1000,740906	104,668396	25,400000	1000,720947	2020-11-19T14:38:03:472
1000,740173	104,673683	25,400000	1000,733398	2020-11-19T14:38:03:712
1000,738403	104,689537	25,400000	1000,722412	2020-11-19T14:38:03:952
1000,738525	104,689537	25,400000	1000,739746	2020-11-19T14:38:04:192
1000,737671	104,694817	25,400000	1000,729736	2020-11-19T14:38:04:432
1000,737000	104,700104	25,400000	1000,730713	2020-11-19T14:38:04:673
1000,737061	104,700104	25,400000	1000,737549	2020-11-19T14:38:04:913
1000,737061	104,700104	25,400000	1000,736816	2020-11-19T14:38:05:153
1000,736206	104,708031	25,400000	1000,728760	2020-11-19T14:38:05:393
1000,733582	104,729172	25,389999	1000,710449	2020-11-19T14:38:05:633
1000,731995	104,742378	25,389999	1000,717529	2020-11-19T14:38:05:874
1000,735718	104,710670	25,389999	1000,769531	2020-11-19T14:38:06:115
1000,738464	104,689537	25,389999	1000,763428	2020-11-19T14:38:06:354
1000,741272	104,665756	25,389999	1000,766357	2020-11-19T14:38:06:595
1000,741211	104,665756	25,379999	1000,740479	2020-11-19T14:38:06:835
1000,738464	104,689537	25,389999	1000,714111	2020-11-19T14:38:07:075
1000,739868	104,676323	25,389999	1000,752197	2020-11-19T14:38:07:315
1000,742371	104,655182	25,379999	1000,765381	2020-11-19T14:38:07:557
1000,744690	104,636688	25,379999	1000,765625	2020-11-19T14:38:07:797
1000,745178	104,631401	25,369999	1000,749512	2020-11-19T14:38:08:038
1000,749207	104,599693	25,369999	1000,785156	2020-11-19T14:38:08:276
1000,749939	104,591766	25,379999	1000,756592	2020-11-19T14:38:08:516
1000,746033	104,626122	25,369999	1000,710938	2020-11-19T14:38:08:756
1000,746155	104,623474	25,369999	1000,747559	2020-11-19T14:38:08:998
1000,746582	104,620834	25,369999	1000,750244	2020-11-19T14:38:09:237
1000,752441	104,570633	25,369999	1000,805176	2020-11-19T14:38:09:477
1000,755493	104,546852	25,359999	1000,782715	2020-11-19T14:38:09:718
1000,758911	104,517784	25,359999	1000,789551	2020-11-19T14:38:09:960
1000,761719	104,494003	25,369999	1000,787109	2020-11-19T14:38:10:198
1000,762695	104,486076	25,359999	1000,770996	2020-11-19T14:38:10:439
1000,763489	104,478149	25,359999	1000,770752	2020-11-19T14:38:10:678
1000,763733	104,475510	25,359999	1000,765625	2020-11-19T14:38:10:919
1000,764221	104,472870	25,359999	1000,769043	2020-11-19T14:38:11:160
1000,765686	104,459656	25,350000	1000,778320	2020-11-19T14:38:11:401
1000,766479	104,454369	25,350000	1000,773682	2020-11-19T14:38:11:639
1000,766724	104,451729	25,350000	1000,769043	2020-11-19T14:38:11:879
1000,766907	104,449089	25,350000	1000,768555	2020-11-19T14:38:12:121
1000,766724	104,451729	25,350000	1000,765381	2020-11-19T14:38:12:361
1000,765808	104,459656	25,350000	1000,757568	2020-11-19T14:38:12:600
1000,766418	104,454369	25,350000	1000,771729	2020-11-19T14:38:12:840
1000,764832	104,467583	25,350000	1000,750244	2020-11-19T14:38:13:081
1000,765076	104,464943	25,340000	1000,766846	2020-11-19T14:38:13:322
1000,766174	104,457016	25,340000	1000,776367	2020-11-19T14:38:13:562
1000,767273	104,446442	25,340000	1000,777100	2020-11-19T14:38:13:802
1000,767456	104,446442	25,350000	1000,768555	2020-11-19T14:38:14:042
1000,766113	104,457016	25,340000	1000,753906	2020-11-19T14:38:14:283
1000,766418	104,454369	25,340000	1000,769531	2020-11-19T14:38:14:523
1000,768921	104,433235	25,330000	1000,791260	2020-11-19T14:38:14:762
1000,770874	104,417381	25,330000	1000,788330	2020-11-19T14:38:15:003
1000,772522	104,401527	25,330000	1000,787354	2020-11-19T14:38:15:243
1000,771423	104,412094	25,330000	1000,761475	2020-11-19T14:38:15:483
1000,767761	104,443802	25,340000	1000,734619	2020-11-19T14:38:15:723
1000,767517	104,443802	25,330000	1000,764893	2020-11-19T14:38:15:964
1000,765564	104,462296	25,330000	1000,748047	2020-11-19T14:38:16:204
1000,763062	104,483437	25,330000	1000,740723	2020-11-19T14:38:16:445
1000,760864	104,501930	25,330000	1000,741211	2020-11-19T14:38:16:684
1000,757507	104,528358	25,320000	1000,727051	2020-11-19T14:38:16:925
1000,757690	104,528358	25,320000	1000,759277	2020-11-19T14:38:17:165
1000,759033	104,515144	25,320000	1000,771484	2020-11-19T14:38:17:405
1000,760498	104,504578	25,320000	1000,773438	2020-11-19T14:38:17:645
1000,761902	104,491364	25,320000	1000,774170	2020-11-19T14:38:17:885
1000,760498	104,504578	25,320000	1000,748291	2020-11-19T14:38:18:127
1000,760986	104,499290	25,309999	1000,764893	2020-11-19T14:38:18:368
1000,759705	104,509857	25,309999	1000,748047	2020-11-19T14:38:18:607
1000,758606	104,520432	25,309999	1000,748779	2020-11-19T14:38:18:846
1000,760498	104,504578	25,309999	1000,777588	2020-11-19T14:38:19:087
1000,764893	104,467583	25,309999	1000,803955	2020-11-19T14:38:19:327
1000,764221	104,472870	25,309999	1000,758301	2020-11-19T14:38:19:567
1000,763306	104,480797	25,309999	1000,754883	2020-11-19T14:38:19:807
1000,762512	104,486076	25,299999	1000,755127	2020-11-19T14:38:20:048
1000,762329	104,488724	25,299999	1000,760742	2020-11-19T14:38:20:289
1000,759460	104,512505	25,299999	1000,733643	2020-11-19T14:38:20:529
1000,756470	104,538925	25,299999	1000,729492	2020-11-19T14:38:20:768
1000,754517	104,554779	25,299999	1000,737305	2020-11-19T14:38:21:009
1000,754333	104,554779	25,299999	1000,753174	2020-11-19T14:38:21:249
1000,752380	104,570633	25,299999	1000,734375	2020-11-19T14:38:21:489
1000,754028	104,557419	25,299999	1000,768555	2020-11-19T14:38:21:730
1000,754028	104,557419	25,299999	1000,754395	2020-11-19T14:38:21:970
1000,753479	104,562706	25,299999	1000,748779	2020-11-19T14:38:22:211
1000,753662	104,560066	25,289999	1000,755371	2020-11-19T14:38:22:450
1000,752563	104,570633	25,289999	1000,742676	2020-11-19T14:38:22:690
1000,753418	104,562706	25,289999	1000,760986	2020-11-19T14:38:22:931
1000,754578	104,552139	25,289999	1000,764893	2020-11-19T14:38:23:171
1000,756042	104,541565	25,289999	1000,769531	2020-11-19T14:38:23:411
1000,758606	104,520432	25,289999	1000,781738	2020-11-19T14:38:23:651
1000,757263	104,530998	25,289999	1000,744873	2020-11-19T14:38:23:891
1000,757080	104,533638	25,279999	1000,755371	2020-11-19T14:38:24:132
1000,756653	104,536285	25,279999	1000,753174	2020-11-19T14:38:24:371
1000,758301	104,523071	25,289999	1000,773193	2020-11-19T14:38:24:612
1000,758972	104,515144	25,279999	1000,765137	2020-11-19T14:38:24:852
1000,759460	104,512505	25,279999	1000,763672	2020-11-19T14:38:25:093
1000,759399	104,512505	25,269999	1000,759033	2020-11-19T14:38:25:334
1000,759338	104,512505	25,269999	1000,759033	2020-11-19T14:38:25:572
1000,760742	104,501930	25,279999	1000,773193	2020-11-19T14:38:25:814
1000,760925	104,499290	25,269999	1000,762939	2020-11-19T14:38:26:056
1000,757446	104,528358	25,269999	1000,726074	2020-11-19T14:38:26:294
1000,756165	104,538925	25,269999	1000,744385	2020-11-19T14:38:26:534
1000,756287	104,538925	25,269999	1000,757080	2020-11-19T14:38:26:774
1000,756653	104,536285	25,269999	1000,759521	2020-11-19T14:38:27:015
1000,758911	104,517784	25,269999	1000,779297	2020-11-19T14:38:27:255
1000,759949	104,507217	25,269999	1000,769531	2020-11-19T14:38:27:495
1000,758728	104,517784	25,269999	1000,747559	2020-11-19T14:38:27:735
1000,758484	104,520432	25,269999	1000,755859	2020-11-19T14:38:27:975
1000,758728	104,517784	25,269999	1000,760986	2020-11-19T14:38:28:215
1000,756714	104,536285	25,260000	1000,738281	2020-11-19T14:38:28:456
1000,754761	104,552139	25,260000	1000,737305	2020-11-19T14:38:28:696
1000,754761	104,552139	25,260000	1000,754883	2020-11-19T14:38:28:937
1000,754272	104,554779	25,260000	1000,750000	2020-11-19T14:38:29:176
1000,753723	104,560066	25,250000	1000,748779	2020-11-19T14:38:29:417
1000,752869	104,567993	25,250000	1000,744873	2020-11-19T14:38:29:657
1000,754211	104,557419	25,250000	1000,766113	2020-11-19T14:38:29:897
1000,754028	104,557419	25,240000	1000,752441	2020-11-19T14:38:30:138
1000,755798	104,544212	25,250000	1000,771729	2020-11-19T14:38:30:378
1000,757690	104,528358	25,240000	1000,775146	2020-11-19T14:38:30:618
1000,754883	104,552139	25,240000	1000,729492	2020-11-19T14:38:30:858
1000,752502	104,570633	25,240000	1000,731201	2020-11-19T14:38:31:098
1000,747559	104,612907	25,240000	1000,703125	2020-11-19T14:38:31:339
1000,747192	104,615547	25,240000	1000,743896	2020-11-19T14:38:31:579
1000,748413	104,604980	25,240000	1000,759766	2020-11-19T14:38:31:819
1000,749695	104,594414	25,250000	1000,761230	2020-11-19T14:38:32:059
1000,752441	104,570633	25,240000	1000,777344	2020-11-19T14:38:32:299
1000,753357	104,562706	25,240000	1000,761719	2020-11-19T14:38:32:540
1000,751892	104,575920	25,230000	1000,738770	2020-11-19T14:38:32:780
1000,750305	104,589127	25,230000	1000,736084	2020-11-19T14:38:33:021
1000,750610	104,586487	25,230000	1000,753662	2020-11-19T14:38:33:269
1000,751526	104,578560	25,230000	1000,759766	2020-11-19T14:38:33:501
1000,753479	104,562706	25,230000	1000,770996	2020-11-19T14:38:33:743
1000,752808	104,567993	25,230000	1000,747070	2020-11-19T14:38:33:982
1000,753357	104,562706	25,219999	1000,758301	2020-11-19T14:38:34:221
1000,750366	104,589127	25,230000	1000,723633	2020-11-19T14:38:34:461
1000,751953	104,575920	25,219999	1000,766113	2020-11-19T14:38:34:702
1000,752136	104,573273	25,219999	1000,753662	2020-11-19T14:38:34:943
1000,754272	104,554779	25,219999	1000,773438	2020-11-19T14:38:35:183
1000,752869	104,567993	25,219999	1000,739990	2020-11-19T14:38:35:423
1000,750549	104,586487	25,209999	1000,729736	2020-11-19T14:38:35:664
1000,748901	104,602341	25,219999	1000,733887	2020-11-19T14:38:35:903
1000,749146	104,599693	25,219999	1000,751221	2020-11-19T14:38:36:144
1000,751221	104,581200	25,209999	1000,770020	2020-11-19T14:38:36:384
1000,751648	104,578560	25,209999	1000,755615	2020-11-19T14:38:36:624
1000,748230	104,607620	25,209999	1000,717529	2020-11-19T14:38:36:864
1000,747131	104,615547	25,209999	1000,737305	2020-11-19T14:38:37:104
1000,745239	104,631401	25,209999	1000,728027	2020-11-19T14:38:37:345
1000,742676	104,652542	25,209999	1000,719238	2020-11-19T14:38:37:584
1000,743103	104,649902	25,199999	1000,746826	2020-11-19T14:38:37:826
1000,741638	104,663109	25,209999	1000,728516	2020-11-19T14:38:38:066
1000,739441	104,681610	25,209999	1000,719482	2020-11-19T14:38:38:306
1000,733887	104,726524	25,199999	1000,683838	2020-11-19T14:38:39:085
1000,729614	104,763519	25,199999	1000,691406	2020-11-19T14:38:39:087
1000,727112	104,784653	25,199999	1000,704590	2020-11-19T14:38:39:099
1000,720581	104,840141	25,199999	1000,662109	2020-11-19T14:38:39:264
1000,720215	104,842789	25,199999	1000,716797	2020-11-19T14:38:39:523
1000,717773	104,863922	25,199999	1000,695801	2020-11-19T14:38:39:750
1000,718323	104,858643	25,189999	1000,722900	2020-11-19T14:38:39:990
1000,718628	104,855995	25,189999	1000,720947	2020-11-19T14:38:40:230
1000,719849	104,845428	25,199999	1000,730713	2020-11-19T14:38:40:467
1000,722900	104,819008	25,189999	1000,750244	2020-11-19T14:38:40:708
1000,727905	104,776726	25,189999	1000,772949	2020-11-19T14:38:40:949
1000,730896	104,752953	25,189999	1000,757568	2020-11-19T14:38:41:187
1000,734985	104,718597	25,189999	1000,771973	2020-11-19T14:38:41:433
1000,735718	104,710670	25,189999	1000,742432	2020-11-19T14:38:41:674
1000,738159	104,692177	25,189999	1000,760254	2020-11-19T14:38:41:909
1000,737671	104,694817	25,189999	1000,733154	2020-11-19T14:38:42:158
1000,737244	104,700104	25,189999	1000,733398	2020-11-19T14:38:42:393
1000,736572	104,705391	25,189999	1000,730225	2020-11-19T14:38:42:631
1000,736206	104,708031	25,189999	1000,732910	2020-11-19T14:38:42:872
1000,732910	104,734451	25,199999	1000,703613	2020-11-19T14:38:43:296
1000,732239	104,742378	25,189999	1000,725830	2020-11-19T14:38:43:351
1000,735413	104,713318	25,189999	1000,764160	2020-11-19T14:38:43:589
1000,734619	104,721245	25,189999	1000,727051	2020-11-19T14:38:43:972
1000,733276	104,731812	25,199999	1000,721436	2020-11-19T14:38:44:182
1000,730103	104,758232	25,189999	1000,701416	2020-11-19T14:38:44:310
1000,727417	104,782013	25,199999	1000,703369	2020-11-19T14:38:44:871
1000,725952	104,795227	25,199999	1000,712891	2020-11-19T14:38:44:877
1000,726013	104,792580	25,199999	1000,726807	2020-11-19T14:38:45:098
1000,726746	104,787300	25,209999	1000,733398	2020-11-19T14:38:45:274
1000,726196	104,792580	25,209999	1000,721436	2020-11-19T14:38:45:556
1000,725708	104,795227	25,209999	1000,720947	2020-11-19T14:38:45:752
1000,724670	104,805794	25,209999	1000,715332	2020-11-19T14:38:45:993
1000,723206	104,816360	25,209999	1000,709961	2020-11-19T14:38:46:515
1000,717773	104,863922	25,209999	1000,668945	2020-11-19T14:38:46:521
1000,711792	104,914131	25,219999	1000,657471	2020-11-19T14:38:46:714
1000,705994	104,961685	25,219999	1000,653809	2020-11-19T14:38:46:957
1000,704468	104,974899	25,219999	1000,690674	2020-11-19T14:38:47:194
1000,703735	104,980186	25,219999	1000,697510	2020-11-19T14:38:47:435
1000,704529	104,974899	25,219999	1000,711182	2020-11-19T14:38:47:676
