x	y	z	ts
-11,690000	-38,500000	-0,910000	2020-11-19T14:35:16:369
-1,190000	-6,510000	-6,300000	2020-11-19T14:35:16:369
-1,330000	-4,480000	-8,260000	2020-11-19T14:35:16:370
-2,100000	-4,970000	-10,570000	2020-11-19T14:35:16:370
-1,610000	-5,460000	-12,530000	2020-11-19T14:35:16:371
0,140000	-5,810000	-14,140000	2020-11-19T14:35:16:398
0,980000	-7,980000	-16,730000	2020-11-19T14:35:16:406
0,980000	-7,980000	-16,730000	2020-11-19T14:35:16:407
0,280000	-10,220000	-18,480000	2020-11-19T14:35:16:407
-0,840000	-12,950000	-19,389999	2020-11-19T14:35:16:425
-1,190000	-14,350000	-21,070000	2020-11-19T14:35:16:447
-3,990000	-15,470000	-23,240000	2020-11-19T14:35:16:465
-7,490000	-17,219999	-28,910000	2020-11-19T14:35:16:486
-7,630000	-18,760000	-34,650002	2020-11-19T14:35:16:506
-10,710000	-23,170000	-36,820000	2020-11-19T14:35:16:526
-14,070000	-29,750000	-36,400002	2020-11-19T14:35:16:546
-12,040000	-34,299999	-36,959999	2020-11-19T14:35:16:566
-9,940000	-33,740002	-27,299999	2020-11-19T14:35:16:585
-16,030001	-29,610001	-15,960000	2020-11-19T14:35:16:607
-44,099998	-23,520000	-30,309999	2020-11-19T14:35:16:625
-33,950001	-24,430000	-28,910000	2020-11-19T14:35:16:647
-23,660000	-26,110001	-25,270000	2020-11-19T14:35:16:666
-29,960001	-25,830000	-20,020000	2020-11-19T14:35:16:686
-27,510000	-25,480000	-12,810000	2020-11-19T14:35:16:706
-17,150000	-24,010000	-2,870000	2020-11-19T14:35:16:726
-38,920002	-24,430000	-17,990000	2020-11-19T14:35:16:747
-68,809998	-24,710001	-9,380000	2020-11-19T14:35:16:767
-105,699997	-26,460001	-0,350000	2020-11-19T14:35:16:786
-151,270004	-24,990000	12,320000	2020-11-19T14:35:16:806
-192,990005	-22,049999	23,520000	2020-11-19T14:35:16:826
-230,089996	-14,630000	29,889999	2020-11-19T14:35:16:847
-266,350006	-1,960000	42,209999	2020-11-19T14:35:16:866
-303,940002	10,570000	57,889999	2020-11-19T14:35:16:886
-340,410004	14,070000	76,090004	2020-11-19T14:35:16:906
-367,360016	15,190001	94,919998	2020-11-19T14:35:16:926
-377,019989	20,160000	121,870003	2020-11-19T14:35:16:947
-378,489990	28,700001	150,430008	2020-11-19T14:35:16:968
-393,329987	35,209999	163,940002	2020-11-19T14:35:16:987
-428,890015	40,599998	178,639999	2020-11-19T14:35:17:007
-477,049988	32,340000	188,720001	2020-11-19T14:35:17:026
-481,670013	8,680000	198,940002	2020-11-19T14:35:17:047
-454,929993	-15,680000	206,639999	2020-11-19T14:35:17:066
-408,239990	-32,759998	217,000000	2020-11-19T14:35:17:089
-368,970001	-45,920002	217,490005	2020-11-19T14:35:17:200
-331,940002	-53,760002	216,580002	2020-11-19T14:35:17:200
-274,049988	-61,040001	219,800003	2020-11-19T14:35:17:201
-206,009995	-67,690002	220,500000	2020-11-19T14:35:17:202
-129,149994	-65,449997	220,710007	2020-11-19T14:35:17:202
-62,930000	-59,570000	217,350006	2020-11-19T14:35:17:214
-13,160000	-51,730000	214,339996	2020-11-19T14:35:17:236
17,430000	-43,959999	210,770004	2020-11-19T14:35:17:257
49,490002	-32,970001	206,080002	2020-11-19T14:35:17:266
76,370003	-29,049999	195,860001	2020-11-19T14:35:17:287
79,870003	-26,040001	178,009995	2020-11-19T14:35:17:306
70,489998	-21,770000	158,270004	2020-11-19T14:35:17:327
66,150002	-17,780001	135,869995	2020-11-19T14:35:17:346
65,870003	-13,370000	114,169998	2020-11-19T14:35:17:368
48,580002	-7,910000	87,010002	2020-11-19T14:35:17:387
28,139999	-1,050000	63,139999	2020-11-19T14:35:17:408
23,309999	5,110000	42,560001	2020-11-19T14:35:17:426
31,150000	6,930000	25,129999	2020-11-19T14:35:17:449
41,580002	5,320000	10,500000	2020-11-19T14:35:17:467
48,790001	3,150000	-1,960000	2020-11-19T14:35:17:488
56,980000	1,960000	-13,370000	2020-11-19T14:35:17:508
68,389999	0,560000	-24,219999	2020-11-19T14:35:17:536
77,489998	-1,260000	-34,509998	2020-11-19T14:35:17:547
78,260002	-0,490000	-45,430000	2020-11-19T14:35:17:599
79,449997	0,840000	-57,820000	2020-11-19T14:35:17:599
84,349998	0,350000	-70,279999	2020-11-19T14:35:17:609
89,110001	0,420000	-82,180000	2020-11-19T14:35:17:626
92,190002	0,210000	-93,800003	2020-11-19T14:35:17:654
84,769997	-1,400000	-105,070000	2020-11-19T14:35:17:776
73,500000	-2,660000	-114,169998	2020-11-19T14:35:17:777
64,820000	-5,250000	-119,770004	2020-11-19T14:35:17:778
60,830002	-7,630000	-121,870003	2020-11-19T14:35:17:779
63,070000	-8,890000	-120,889999	2020-11-19T14:35:17:779
61,250000	-11,900000	-119,070000	2020-11-19T14:35:17:779
53,340000	-14,490000	-116,900002	2020-11-19T14:35:17:786
44,099998	-13,090000	-113,190002	2020-11-19T14:35:17:809
36,119999	-11,270000	-109,480003	2020-11-19T14:35:17:827
31,500000	-7,910000	-105,209999	2020-11-19T14:35:17:849
31,639999	-3,220000	-100,029999	2020-11-19T14:35:17:867
31,010000	-2,660000	-94,360001	2020-11-19T14:35:17:890
26,250000	-1,610000	-87,290001	2020-11-19T14:35:17:907
21,980000	2,450000	-77,349998	2020-11-19T14:35:17:929
22,540001	5,880000	-65,730003	2020-11-19T14:35:17:949
21,980000	5,040000	-53,480000	2020-11-19T14:35:17:969
16,660000	5,320000	-41,020000	2020-11-19T14:35:17:987
15,610000	12,670000	-25,270000	2020-11-19T14:35:18:009
28,770000	21,000000	-7,140000	2020-11-19T14:35:18:027
39,689999	21,700001	10,920000	2020-11-19T14:35:18:050
43,119999	19,670000	27,160000	2020-11-19T14:35:18:068
42,490002	17,920000	46,900002	2020-11-19T14:35:18:089
40,250000	17,150000	57,330002	2020-11-19T14:35:18:108
33,810001	17,430000	63,279999	2020-11-19T14:35:18:129
26,040001	17,710001	62,580002	2020-11-19T14:35:18:148
21,000000	15,330000	55,369999	2020-11-19T14:35:18:169
15,610000	12,810000	46,480000	2020-11-19T14:35:18:188
9,030000	9,730000	40,250000	2020-11-19T14:35:18:209
-1,820000	5,460000	37,310001	2020-11-19T14:35:18:227
-12,600000	-0,910000	37,939999	2020-11-19T14:35:18:250
-20,090000	-6,020000	43,189999	2020-11-19T14:35:18:267
-33,880001	-10,780000	51,170002	2020-11-19T14:35:18:289
-59,430000	-13,720000	58,799999	2020-11-19T14:35:18:307
-86,449997	-11,410000	65,449997	2020-11-19T14:35:18:329
-102,199997	-5,530000	71,750000	2020-11-19T14:35:18:348
-102,340004	3,780000	77,279999	2020-11-19T14:35:18:370
-93,730003	11,970000	80,430000	2020-11-19T14:35:18:388
-80,500000	20,930000	81,059998	2020-11-19T14:35:18:411
-56,840000	33,180000	80,709999	2020-11-19T14:35:18:430
-24,080000	43,119999	82,529999	2020-11-19T14:35:18:450
0,210000	51,099998	83,720001	2020-11-19T14:35:18:468
17,920000	56,209999	80,709999	2020-11-19T14:35:18:491
34,299999	55,720001	76,370003	2020-11-19T14:35:18:508
42,630001	50,889999	69,019997	2020-11-19T14:35:18:531
36,400002	45,009998	61,740002	2020-11-19T14:35:18:550
21,420000	41,509998	56,770000	2020-11-19T14:35:18:580
1,960000	37,660000	53,760002	2020-11-19T14:35:18:588
-13,930000	31,150000	52,080002	2020-11-19T14:35:18:617
-24,639999	21,490000	49,139999	2020-11-19T14:35:18:628
-32,900002	11,620000	44,939999	2020-11-19T14:35:18:652
-40,180000	2,520000	38,500000	2020-11-19T14:35:18:671
-48,299999	-5,810000	28,980000	2020-11-19T14:35:18:691
-55,439999	-12,250000	16,170000	2020-11-19T14:35:18:709
-61,180000	-16,450001	-0,070000	2020-11-19T14:35:18:731
-64,470001	-18,549999	-17,639999	2020-11-19T14:35:18:749
-63,700001	-20,299999	-33,880001	2020-11-19T14:35:18:771
-58,450001	-25,480000	-49,770000	2020-11-19T14:35:18:789
-43,959999	-30,309999	-64,820000	2020-11-19T14:35:18:810
-24,639999	-30,870001	-79,660004	2020-11-19T14:35:18:829
-5,880000	-28,070000	-96,250000	2020-11-19T14:35:18:851
14,840000	-25,760000	-111,930000	2020-11-19T14:35:18:869
36,189999	-25,760000	-122,639999	2020-11-19T14:35:18:891
49,630001	-28,420000	-127,680000	2020-11-19T14:35:18:909
52,290001	-31,010000	-127,680000	2020-11-19T14:35:18:930
46,130001	-40,320000	-124,529999	2020-11-19T14:35:18:948
32,480000	-51,520000	-120,540001	2020-11-19T14:35:18:970
14,980000	-57,820000	-113,680000	2020-11-19T14:35:18:988
-3,220000	-59,010002	-105,980003	2020-11-19T14:35:19:011
-15,750000	-57,750000	-100,379997	2020-11-19T14:35:19:028
-19,389999	-56,000000	-98,980003	2020-11-19T14:35:19:051
-16,309999	-53,900002	-99,889999	2020-11-19T14:35:19:069
-11,550000	-51,380001	-99,889999	2020-11-19T14:35:19:090
-8,820000	-48,650002	-97,019997	2020-11-19T14:35:19:108
-8,330000	-47,180000	-90,860001	2020-11-19T14:35:19:130
-8,610000	-44,450001	-83,230003	2020-11-19T14:35:19:150
-12,950000	-41,230000	-72,309998	2020-11-19T14:35:19:170
-16,379999	-38,639999	-64,260002	2020-11-19T14:35:19:188
-18,129999	-34,650002	-53,970001	2020-11-19T14:35:19:210
-19,110001	-30,030001	-41,439999	2020-11-19T14:35:19:228
-17,010000	-26,460001	-27,440001	2020-11-19T14:35:19:251
-10,570000	-22,820000	-9,730000	2020-11-19T14:35:19:268
-2,240000	-19,389999	11,690000	2020-11-19T14:35:19:290
2,100000	-19,740000	33,110001	2020-11-19T14:35:19:310
0,280000	-19,879999	54,459999	2020-11-19T14:35:19:331
-1,960000	-18,270000	76,860001	2020-11-19T14:35:19:349
-4,760000	-17,570000	99,190002	2020-11-19T14:35:19:371
-12,180000	-17,360001	119,279999	2020-11-19T14:35:19:389
-23,170000	-18,059999	135,029999	2020-11-19T14:35:19:416
-33,389999	-20,230000	146,860001	2020-11-19T14:35:19:429
-40,740002	-17,990000	155,259995	2020-11-19T14:35:19:451
-46,549999	-7,910000	160,860001	2020-11-19T14:35:19:468
-46,549999	1,120000	162,960007	2020-11-19T14:35:19:522
-37,520000	3,080000	157,080002	2020-11-19T14:35:19:523
-24,290001	4,410000	146,089996	2020-11-19T14:35:19:539
-15,960000	9,450000	133,559998	2020-11-19T14:35:19:549
-12,180000	13,230000	118,090004	2020-11-19T14:35:19:574
-13,370000	10,640000	100,239998	2020-11-19T14:35:19:659
-24,290001	6,370000	85,470001	2020-11-19T14:35:19:659
-48,860001	1,260000	74,410004	2020-11-19T14:35:19:660
-86,449997	-6,790000	64,820000	2020-11-19T14:35:19:660
-129,990005	-15,610000	56,279999	2020-11-19T14:35:19:706
-172,130005	-24,219999	50,189999	2020-11-19T14:35:19:707
-203,210007	-32,270000	45,709999	2020-11-19T14:35:19:714
-223,720001	-39,340000	42,420002	2020-11-19T14:35:19:732
-233,869995	-43,330002	39,900002	2020-11-19T14:35:19:749
-235,550003	-44,799999	38,990002	2020-11-19T14:35:19:799
-230,089996	-43,680000	40,320000	2020-11-19T14:35:19:807
-221,410004	-42,980000	44,240002	2020-11-19T14:35:19:811
-214,479996	-42,980000	49,420002	2020-11-19T14:35:19:828
-209,440002	-41,509998	55,299999	2020-11-19T14:35:19:851
-206,220001	-40,110001	60,200001	2020-11-19T14:35:19:869
-205,169998	-34,160000	63,490002	2020-11-19T14:35:19:893
-202,789993	-25,830000	66,080002	2020-11-19T14:35:19:911
-196,070007	-17,639999	67,340004	2020-11-19T14:35:19:934
-184,169998	-7,840000	68,809998	2020-11-19T14:35:19:951
-168,490005	0,210000	70,629997	2020-11-19T14:35:19:973
-155,050003	5,110000	71,750000	2020-11-19T14:35:19:990
-146,860001	8,610000	72,239998	2020-11-19T14:35:20:013
-139,440002	13,720000	73,150002	2020-11-19T14:35:20:031
-130,410004	19,600000	73,080002	2020-11-19T14:35:20:054
-124,809998	24,500000	68,529999	2020-11-19T14:35:20:071
-125,580002	24,010000	59,360001	2020-11-19T14:35:20:094
-126,139999	23,379999	48,439999	2020-11-19T14:35:20:111
-125,580002	29,820000	40,320000	2020-11-19T14:35:20:133
-124,040001	33,670002	31,219999	2020-11-19T14:35:20:151
-122,639999	26,110001	20,230000	2020-11-19T14:35:20:173
-126,349998	13,020000	10,360000	2020-11-19T14:35:20:191
-134,820007	2,940000	2,310000	2020-11-19T14:35:20:214
-145,180008	-3,850000	-6,230000	2020-11-19T14:35:20:231
-152,809998	-11,970000	-25,900000	2020-11-19T14:35:20:254
-156,380005	-13,020000	-42,630001	2020-11-19T14:35:20:271
-155,539993	-11,130000	-59,500000	2020-11-19T14:35:20:293
-142,309998	-8,960000	-73,010002	2020-11-19T14:35:20:311
-119,279999	-8,680000	-82,529999	2020-11-19T14:35:20:334
-97,230003	-10,640000	-90,300003	2020-11-19T14:35:20:352
-85,190002	-18,410000	-99,050003	2020-11-19T14:35:20:374
-79,169998	-26,740000	-106,959999	2020-11-19T14:35:20:391
-77,769997	-33,599998	-109,620003	2020-11-19T14:35:20:414
-78,260002	-39,340000	-106,610001	2020-11-19T14:35:20:431
-77,629997	-44,380001	-98,139999	2020-11-19T14:35:20:455
-76,930000	-53,130001	-86,660004	2020-11-19T14:35:20:471
-77,629997	-65,519997	-73,989998	2020-11-19T14:35:20:494
-81,900002	-75,389999	-59,570000	2020-11-19T14:35:20:511
-87,010002	-80,919998	-44,240002	2020-11-19T14:35:20:534
-87,779999	-82,669998	-31,990000	2020-11-19T14:35:20:551
-80,779999	-81,830002	-25,270000	2020-11-19T14:35:20:576
-70,279999	-78,680000	-20,930000	2020-11-19T14:35:20:599
-67,620003	-73,150002	-20,580000	2020-11-19T14:35:20:615
-65,519997	-64,470001	-21,840000	2020-11-19T14:35:20:631
-57,330002	-57,470001	-23,379999	2020-11-19T14:35:20:655
-45,639999	-51,029999	-23,309999	2020-11-19T14:35:20:671
-32,480000	-44,869999	-19,110001	2020-11-19T14:35:20:694
-17,780001	-41,090000	-11,130000	2020-11-19T14:35:20:712
-4,340000	-39,130001	-1,260000	2020-11-19T14:35:20:734
4,970000	-38,500000	10,920000	2020-11-19T14:35:20:752
8,890000	-39,970001	25,200001	2020-11-19T14:35:20:774
6,160000	-42,770000	41,090000	2020-11-19T14:35:20:791
-1,820000	-45,570000	58,240002	2020-11-19T14:35:20:814
-13,230000	-49,910000	75,110001	2020-11-19T14:35:20:833
-26,809999	-56,209999	91,489998	2020-11-19T14:35:20:855
-42,560001	-62,160000	105,139999	2020-11-19T14:35:20:871
-61,040001	-66,779999	114,660004	2020-11-19T14:35:20:894
-81,199997	-67,550003	119,770004	2020-11-19T14:35:20:912
-99,050003	-62,230000	120,889999	2020-11-19T14:35:20:935
-109,900002	-49,980000	118,510002	2020-11-19T14:35:20:952
-113,330002	-28,630001	115,709999	2020-11-19T14:35:20:975
-107,520004	-1,260000	113,959999	2020-11-19T14:35:20:992
-93,029999	22,120001	112,349998	2020-11-19T14:35:21:015
-75,320000	35,209999	110,669998	2020-11-19T14:35:21:032
-59,639999	44,799999	110,459999	2020-11-19T14:35:21:055
-43,400002	55,439999	112,840004	2020-11-19T14:35:21:073
-11,830000	63,349998	115,430000	2020-11-19T14:35:21:094
22,610001	68,459999	115,570000	2020-11-19T14:35:21:112
43,330002	68,739998	110,669998	2020-11-19T14:35:21:134
47,599998	64,680000	101,989998	2020-11-19T14:35:21:152
41,160000	61,670002	91,699997	2020-11-19T14:35:21:175
21,840000	55,160000	80,360001	2020-11-19T14:35:21:192
-11,830000	44,520000	68,040001	2020-11-19T14:35:21:215
-54,040001	35,279999	55,230000	2020-11-19T14:35:21:232
-92,050003	28,070000	41,720001	2020-11-19T14:35:21:255
-119,629997	21,420000	27,090000	2020-11-19T14:35:21:272
-136,009995	16,030001	12,950000	2020-11-19T14:35:21:295
-140,419998	11,480000	1,610000	2020-11-19T14:35:21:315
-118,160004	13,440001	-10,220000	2020-11-19T14:35:21:336
-86,239998	14,980000	-17,850000	2020-11-19T14:35:21:354
-51,660000	11,550000	-25,900000	2020-11-19T14:35:21:375
-19,600000	2,100000	-32,689999	2020-11-19T14:35:21:392
-12,390000	-8,750000	-45,220001	2020-11-19T14:35:21:426
-26,670000	-13,510000	-61,180000	2020-11-19T14:35:21:432
-42,070000	-16,450001	-72,239998	2020-11-19T14:35:21:455
-42,840000	-19,250000	-81,340004	2020-11-19T14:35:21:473
-36,330002	-20,719999	-89,529999	2020-11-19T14:35:21:495
-29,469999	-22,820000	-94,010002	2020-11-19T14:35:21:512
-24,570000	-22,540001	-91,489998	2020-11-19T14:35:21:535
-15,120000	-19,670000	-83,650002	2020-11-19T14:35:21:553
0,490000	-16,940001	-72,590004	2020-11-19T14:35:21:586
18,480000	-13,020000	-63,700001	2020-11-19T14:35:21:592
34,860001	-7,840000	-57,189999	2020-11-19T14:35:21:615
58,660000	-2,030000	-50,540001	2020-11-19T14:35:21:632
88,199997	2,310000	-42,139999	2020-11-19T14:35:21:656
103,110001	7,070000	-38,500000	2020-11-19T14:35:21:672
92,190002	6,510000	-39,270000	2020-11-19T14:35:21:695
97,790001	10,010000	-40,880001	2020-11-19T14:35:21:713
108,849998	4,620000	-34,860001	2020-11-19T14:35:21:735
112,349998	2,940000	-33,110001	2020-11-19T14:35:21:753
94,220001	-6,580000	-34,790001	2020-11-19T14:35:21:776
85,540001	-12,110000	-45,430000	2020-11-19T14:35:21:793
84,980003	-15,610000	-44,799999	2020-11-19T14:35:21:816
81,269997	-18,340000	-52,500000	2020-11-19T14:35:21:833
84,070000	-22,260000	-55,930000	2020-11-19T14:35:21:856
89,180000	-27,299999	-58,799999	2020-11-19T14:35:21:873
86,660004	-33,250000	-62,369999	2020-11-19T14:35:21:896
74,269997	-35,630001	-65,519997	2020-11-19T14:35:21:913
61,389999	-36,470001	-66,570000	2020-11-19T14:35:21:936
48,580002	-37,939999	-67,059998	2020-11-19T14:35:21:953
36,470001	-40,040001	-69,230003	2020-11-19T14:35:21:976
23,660000	-41,160000	-74,830002	2020-11-19T14:35:21:993
11,340000	-40,459999	-80,779999	2020-11-19T14:35:22:016
3,220000	-35,209999	-85,190002	2020-11-19T14:35:22:033
7,140000	-26,040001	-85,750000	2020-11-19T14:35:22:056
18,059999	-18,480000	-82,879997	2020-11-19T14:35:22:073
25,760000	-14,140000	-77,489998	2020-11-19T14:35:22:096
27,090000	-11,550000	-69,790001	2020-11-19T14:35:22:113
25,830000	-7,210000	-59,639999	2020-11-19T14:35:22:137
24,150000	-1,330000	-48,860001	2020-11-19T14:35:22:153
25,900000	5,880000	-39,689999	2020-11-19T14:35:22:176
31,780001	13,650000	-31,290001	2020-11-19T14:35:22:193
37,170002	20,020000	-24,010000	2020-11-19T14:35:22:216
38,290001	22,610001	-17,010000	2020-11-19T14:35:22:233
32,759998	23,660000	-10,080000	2020-11-19T14:35:22:256
24,639999	24,990000	-3,080000	2020-11-19T14:35:22:274
16,450001	26,530001	4,200000	2020-11-19T14:35:22:296
6,440000	28,630001	11,340000	2020-11-19T14:35:22:314
-1,890000	32,759998	18,200001	2020-11-19T14:35:22:336
-1,610000	37,660000	26,040001	2020-11-19T14:35:22:353
6,370000	43,400002	33,810001	2020-11-19T14:35:22:376
13,860000	47,529999	45,849998	2020-11-19T14:35:22:393
12,390000	52,360001	54,670002	2020-11-19T14:35:22:417
4,550000	55,580002	67,550003	2020-11-19T14:35:22:433
-7,070000	56,700001	82,669998	2020-11-19T14:35:22:456
-18,830000	56,630001	97,790001	2020-11-19T14:35:22:473
-26,530001	55,720001	111,020004	2020-11-19T14:35:22:497
-25,620001	52,849998	118,510002	2020-11-19T14:35:22:514
-14,350000	50,330002	117,599998	2020-11-19T14:35:22:536
6,230000	49,000000	109,970001	2020-11-19T14:35:22:553
36,119999	48,369999	97,510002	2020-11-19T14:35:22:577
67,900002	48,580002	80,989998	2020-11-19T14:35:22:593
91,419998	47,320000	66,919998	2020-11-19T14:35:22:617
95,550003	39,970001	63,490002	2020-11-19T14:35:22:634
35,070000	27,510000	57,959999	2020-11-19T14:35:22:658
-68,040001	18,760000	60,549999	2020-11-19T14:35:22:674
-125,090004	6,790000	53,340000	2020-11-19T14:35:22:696
-122,360001	-6,650000	53,340000	2020-11-19T14:35:22:713
-132,509995	-3,360000	53,270000	2020-11-19T14:35:22:737
-166,460007	4,620000	47,040001	2020-11-19T14:35:22:755
-181,720001	10,080000	40,459999	2020-11-19T14:35:22:778
-165,970001	18,760000	37,029999	2020-11-19T14:35:22:793
-129,149994	27,650000	38,080002	2020-11-19T14:35:22:817
-78,260002	34,580002	41,790001	2020-11-19T14:35:22:834
-20,719999	43,330002	45,570000	2020-11-19T14:35:22:856
28,980000	50,680000	46,340000	2020-11-19T14:35:22:873
56,139999	51,939999	43,049999	2020-11-19T14:35:22:897
63,560001	52,360001	38,290001	2020-11-19T14:35:22:914
56,630001	51,799999	32,480000	2020-11-19T14:35:22:937
43,750000	49,560001	25,410000	2020-11-19T14:35:22:954
38,150002	45,849998	16,870001	2020-11-19T14:35:22:978
41,439999	40,950001	7,700000	2020-11-19T14:35:22:995
50,610001	35,209999	-1,960000	2020-11-19T14:35:23:017
63,910000	28,770000	-11,410000	2020-11-19T14:35:23:034
82,110001	14,630000	-20,090000	2020-11-19T14:35:23:058
108,639999	10,500000	-28,490000	2020-11-19T14:35:23:074
131,880005	7,980000	-33,250000	2020-11-19T14:35:23:098
146,300003	3,150000	-35,349998	2020-11-19T14:35:23:114
143,570007	-4,270000	-33,110001	2020-11-19T14:35:23:139
126,209999	-14,210000	-31,780001	2020-11-19T14:35:23:155
106,820000	-22,469999	-29,820000	2020-11-19T14:35:23:177
94,360001	-33,320000	-28,770000	2020-11-19T14:35:23:194
85,820000	-49,700001	-34,650002	2020-11-19T14:35:23:218
82,040001	-58,170002	-43,680000	2020-11-19T14:35:23:235
89,949997	-59,500000	-51,730000	2020-11-19T14:35:23:257
107,800003	-64,330002	-56,560001	2020-11-19T14:35:23:274
127,610001	-71,050003	-55,650002	2020-11-19T14:35:23:298
139,300003	-79,309998	-49,910000	2020-11-19T14:35:23:314
138,949997	-89,320000	-42,630001	2020-11-19T14:35:23:337
124,879997	-100,379997	-38,080002	2020-11-19T14:35:23:354
99,330002	-108,220001	-40,250000	2020-11-19T14:35:23:378
66,010002	-112,349998	-47,670002	2020-11-19T14:35:23:394
29,120001	-112,489998	-59,920002	2020-11-19T14:35:23:417
-9,520000	-109,970001	-75,250000	2020-11-19T14:35:23:434
-42,980000	-105,910004	-90,580002	2020-11-19T14:35:23:458
-68,389999	-99,820000	-106,959999	2020-11-19T14:35:23:475
-68,250000	-90,370003	-113,260002	2020-11-19T14:35:23:497
-57,049999	-84,000000	-115,989998	2020-11-19T14:35:23:514
-39,619999	-75,320000	-115,570000	2020-11-19T14:35:23:538
-17,360001	-65,099998	-111,930000	2020-11-19T14:35:23:554
8,190000	-57,119999	-106,750000	2020-11-19T14:35:23:577
23,660000	-50,610001	-99,610001	2020-11-19T14:35:23:594
16,450001	-43,400002	-89,320000	2020-11-19T14:35:23:618
-2,800000	-37,380001	-77,910004	2020-11-19T14:35:23:635
-22,820000	-28,420000	-65,029999	2020-11-19T14:35:23:658
-38,220001	-15,050000	-51,029999	2020-11-19T14:35:23:674
-48,860001	-0,840000	-35,980000	2020-11-19T14:35:23:698
-53,760002	10,990000	-19,950001	2020-11-19T14:35:23:716
-49,139999	19,950001	-2,730000	2020-11-19T14:35:23:737
-40,110001	27,719999	16,870001	2020-11-19T14:35:23:755
-36,330002	35,420002	38,990002	2020-11-19T14:35:23:778
-38,639999	44,590000	63,630001	2020-11-19T14:35:23:794
-43,119999	47,040001	90,650002	2020-11-19T14:35:23:818
-58,029999	42,209999	117,110001	2020-11-19T14:35:23:835
-89,739998	39,130001	140,630005	2020-11-19T14:35:23:859
-122,989998	42,560001	162,680008	2020-11-19T14:35:23:877
-139,089996	53,130001	179,130005	2020-11-19T14:35:23:898
-139,860001	61,810001	186,899994	2020-11-19T14:35:23:915
-124,599998	66,500000	185,570007	2020-11-19T14:35:23:939
-91,769997	68,110001	176,399994	2020-11-19T14:35:23:956
-45,220001	68,949997	163,100006	2020-11-19T14:35:23:977
7,210000	69,440002	145,529999	2020-11-19T14:35:23:995
45,990002	68,529999	124,320000	2020-11-19T14:35:24:019
59,290001	65,800003	104,510002	2020-11-19T14:35:24:035
46,549999	60,480000	92,330002	2020-11-19T14:35:24:058
16,799999	54,599998	83,370003	2020-11-19T14:35:24:075
-18,620001	50,959999	76,370003	2020-11-19T14:35:24:099
-58,380001	47,950001	65,590004	2020-11-19T14:35:24:115
-93,800003	42,770000	56,490002	2020-11-19T14:35:24:137
-115,639999	38,500000	51,730000	2020-11-19T14:35:24:155
-129,149994	38,779999	52,500000	2020-11-19T14:35:24:179
-135,869995	40,040001	55,160000	2020-11-19T14:35:24:196
-126,910004	40,670002	55,930000	2020-11-19T14:35:24:218
-106,330002	42,490002	53,060001	2020-11-19T14:35:24:235
-91,139999	41,439999	46,619999	2020-11-19T14:35:24:259
-86,870003	39,270000	36,470001	2020-11-19T14:35:24:275
-83,790001	39,410000	25,340000	2020-11-19T14:35:24:298
-74,690002	42,910000	14,980000	2020-11-19T14:35:24:315
-59,010002	44,380001	3,010000	2020-11-19T14:35:24:339
-40,599998	42,630001	-9,240000	2020-11-19T14:35:24:356
-29,540001	36,540001	-19,110001	2020-11-19T14:35:24:378
-33,040001	29,750000	-25,760000	2020-11-19T14:35:24:395
-41,860001	24,150000	-30,450001	2020-11-19T14:35:24:419
-50,540001	17,990000	-33,320000	2020-11-19T14:35:24:436
-60,270000	11,200000	-36,259998	2020-11-19T14:35:24:458
-68,250000	2,590000	-40,599998	2020-11-19T14:35:24:475
-79,169998	-8,260000	-47,180000	2020-11-19T14:35:24:499
-81,269997	-15,960000	-57,400002	2020-11-19T14:35:24:515
-69,019997	-19,040001	-67,830002	2020-11-19T14:35:24:538
-25,900000	-19,879999	-82,599998	2020-11-19T14:35:24:556
2,310000	-23,030001	-92,120003	2020-11-19T14:35:24:579
28,420000	-26,530001	-98,559998	2020-11-19T14:35:24:595
52,709999	-33,880001	-101,989998	2020-11-19T14:35:24:618
67,269997	-43,470001	-104,019997	2020-11-19T14:35:24:635
79,730003	-46,549999	-104,860001	2020-11-19T14:35:24:660
100,940002	-47,950001	-105,349998	2020-11-19T14:35:24:676
109,760002	-56,070000	-109,760002	2020-11-19T14:35:24:698
101,290001	-62,160000	-116,129997	2020-11-19T14:35:24:716
78,540001	-63,560001	-120,680000	2020-11-19T14:35:24:739
56,910000	-62,930000	-123,059998	2020-11-19T14:35:24:756
41,650002	-62,510002	-122,570000	2020-11-19T14:35:24:778
31,010000	-62,790001	-120,750000	2020-11-19T14:35:24:795
18,410000	-63,630001	-116,900002	2020-11-19T14:35:24:819
7,000000	-61,529999	-111,230003	2020-11-19T14:35:24:836
2,520000	-56,070000	-103,250000	2020-11-19T14:35:24:860
1,190000	-49,000000	-94,639999	2020-11-19T14:35:24:876
-2,590000	-43,259998	-86,519997	2020-11-19T14:35:24:899
-6,370000	-37,450001	-77,699997	2020-11-19T14:35:24:916
-7,630000	-31,500000	-67,550003	2020-11-19T14:35:24:938
-13,090000	-25,760000	-56,840000	2020-11-19T14:35:24:957
-18,270000	-18,830000	-45,709999	2020-11-19T14:35:24:979
-17,710001	-11,200000	-32,200001	2020-11-19T14:35:24:996
-14,000000	-5,600000	-18,129999	2020-11-19T14:35:25:019
-9,240000	-1,330000	-3,990000	2020-11-19T14:35:25:036
-5,740000	1,680000	12,180000	2020-11-19T14:35:25:059
-5,320000	6,440000	29,750000	2020-11-19T14:35:25:076
-7,350000	11,270000	50,330002	2020-11-19T14:35:25:099
-10,080000	12,250000	71,260002	2020-11-19T14:35:25:116
-13,510000	12,110000	92,820000	2020-11-19T14:35:25:139
-19,460001	15,050000	115,360001	2020-11-19T14:35:25:157
-21,770000	17,710001	136,500000	2020-11-19T14:35:25:179
-13,790000	18,969999	150,430008	2020-11-19T14:35:25:197
-1,120000	23,309999	154,910004	2020-11-19T14:35:25:220
7,280000	27,719999	152,250000	2020-11-19T14:35:25:248
16,799999	27,790001	150,570007	2020-11-19T14:35:25:259
30,450001	24,780001	146,160004	2020-11-19T14:35:25:275
26,530001	24,850000	136,009995	2020-11-19T14:35:25:301
7,840000	24,639999	122,779999	2020-11-19T14:35:25:317
-12,810000	21,350000	108,360001	2020-11-19T14:35:25:339
-34,230000	16,170000	93,590004	2020-11-19T14:35:25:356
-56,000000	13,090000	81,760002	2020-11-19T14:35:25:381
-79,660004	11,480000	73,430000	2020-11-19T14:35:25:397
-98,419998	11,690000	64,470001	2020-11-19T14:35:25:419
-105,980003	13,090000	54,950001	2020-11-19T14:35:25:436
-107,940002	11,830000	43,680000	2020-11-19T14:35:25:461
-108,849998	11,060000	34,020000	2020-11-19T14:35:25:476
-111,860001	12,110000	28,210001	2020-11-19T14:35:25:499
-114,730003	14,280000	26,110001	2020-11-19T14:35:25:516
-119,910004	14,210000	26,250000	2020-11-19T14:35:25:540
-123,480003	14,420000	27,790001	2020-11-19T14:35:25:557
-125,440002	16,590000	30,309999	2020-11-19T14:35:25:580
-124,250000	16,870001	33,880001	2020-11-19T14:35:25:596
-120,820000	17,010000	38,709999	2020-11-19T14:35:25:620
-109,340004	21,350000	49,770000	2020-11-19T14:35:25:638
-96,599998	20,580000	56,139999	2020-11-19T14:35:25:660
-86,870003	16,799999	59,220001	2020-11-19T14:35:25:677
-84,139999	11,690000	58,099998	2020-11-19T14:35:25:700
-86,519997	8,330000	52,150002	2020-11-19T14:35:25:716
-90,930000	8,400000	42,490002	2020-11-19T14:35:25:740
-93,519997	6,230000	29,889999	2020-11-19T14:35:25:757
-90,510002	2,380000	14,420000	2020-11-19T14:35:25:780
-83,510002	-1,890000	-0,980000	2020-11-19T14:35:25:797
-76,510002	-6,300000	-15,330000	2020-11-19T14:35:25:820
-67,690002	-13,230000	-31,920000	2020-11-19T14:35:25:837
-51,590000	-19,950001	-50,259998	2020-11-19T14:35:25:861
-32,480000	-24,080000	-70,139999	2020-11-19T14:35:25:877
-11,200000	-27,160000	-90,650002	2020-11-19T14:35:25:900
20,230000	-25,690001	-106,610001	2020-11-19T14:35:25:917
50,400002	-20,299999	-120,540001	2020-11-19T14:35:25:947
68,739998	-23,730000	-129,570007	2020-11-19T14:35:25:956
70,699997	-43,540001	-139,020004	2020-11-19T14:35:25:979
54,110001	-56,349998	-139,860001	2020-11-19T14:35:25:998
17,570000	-64,190002	-135,589996	2020-11-19T14:35:26:021
-24,150000	-70,279999	-136,639999	2020-11-19T14:35:26:037
-57,750000	-73,080002	-138,250000	2020-11-19T14:35:26:060
-81,059998	-73,500000	-134,750000	2020-11-19T14:35:26:078
-88,900002	-75,879997	-132,509995	2020-11-19T14:35:26:101
-74,970001	-74,550003	-125,230003	2020-11-19T14:35:26:118
-57,820000	-68,949997	-110,809998	2020-11-19T14:35:26:139
-42,630001	-63,980000	-98,489998	2020-11-19T14:35:26:157
-25,340000	-59,500000	-85,959999	2020-11-19T14:35:26:181
-10,640000	-57,820000	-73,080002	2020-11-19T14:35:26:197
-5,390000	-58,099998	-59,010002	2020-11-19T14:35:26:220
-16,240000	-59,080002	-45,080002	2020-11-19T14:35:26:237
-37,450001	-57,889999	-29,750000	2020-11-19T14:35:26:261
-52,009998	-56,560001	-12,670000	2020-11-19T14:35:26:277
-54,389999	-56,980000	4,900000	2020-11-19T14:35:26:300
-52,990002	-56,980000	24,290001	2020-11-19T14:35:26:317
-56,910000	-58,450001	44,029999	2020-11-19T14:35:26:342
-63,420002	-61,810001	62,930000	2020-11-19T14:35:26:358
-66,849998	-65,169998	82,110001	2020-11-19T14:35:26:382
-77,070000	-70,070000	101,570000	2020-11-19T14:35:26:397
-96,040001	-75,320000	121,870003	2020-11-19T14:35:26:421
-114,099998	-82,459999	139,509995	2020-11-19T14:35:26:437
-128,520004	-89,529999	155,330002	2020-11-19T14:35:26:461
-140,910004	-93,029999	172,550003	2020-11-19T14:35:26:477
-154,490005	-96,040001	190,190002	2020-11-19T14:35:26:502
-166,949997	-100,169998	205,380005	2020-11-19T14:35:26:517
-177,940002	-102,269997	219,660004	2020-11-19T14:35:26:540
-200,130005	-97,930000	223,300003	2020-11-19T14:35:26:557
-225,259995	-91,840004	213,009995	2020-11-19T14:35:26:581
-244,580002	-86,379997	192,080002	2020-11-19T14:35:26:598
-239,470001	-81,690002	177,520004	2020-11-19T14:35:26:621
-224,910004	-68,809998	158,410004	2020-11-19T14:35:26:637
-201,880005	-55,230000	137,619995	2020-11-19T14:35:26:662
-167,720001	-42,209999	112,489998	2020-11-19T14:35:26:677
-128,380005	-33,880001	85,120003	2020-11-19T14:35:26:701
-62,860001	-23,520000	72,519997	2020-11-19T14:35:26:717
-35,490002	-14,490000	62,020000	2020-11-19T14:35:26:740
-37,450001	-8,680000	50,610001	2020-11-19T14:35:26:758
-61,110001	-5,250000	37,590000	2020-11-19T14:35:26:780
-90,370003	-1,330000	24,710001	2020-11-19T14:35:26:797
-115,570000	2,800000	11,410000	2020-11-19T14:35:26:821
-130,410004	9,100000	0,700000	2020-11-19T14:35:26:839
-125,720001	15,960000	-5,950000	2020-11-19T14:35:26:861
-103,739998	21,280001	-8,190000	2020-11-19T14:35:26:877
-74,269997	24,570000	-10,080000	2020-11-19T14:35:26:901
-48,230000	28,559999	-12,950000	2020-11-19T14:35:26:917
-31,850000	32,270000	-15,470000	2020-11-19T14:35:26:941
-23,240000	34,790001	-17,290001	2020-11-19T14:35:26:959
-23,309999	35,980000	-21,490000	2020-11-19T14:35:26:981
-28,210001	44,590000	-23,660000	2020-11-19T14:35:26:998
-30,870001	47,180000	-19,809999	2020-11-19T14:35:27:021
-27,090000	44,450001	-21,770000	2020-11-19T14:35:27:037
-21,350000	44,170002	-22,120001	2020-11-19T14:35:27:062
-14,280000	46,340000	-18,969999	2020-11-19T14:35:27:078
0,980000	44,099998	-14,980000	2020-11-19T14:35:27:101
20,650000	35,279999	-17,219999	2020-11-19T14:35:27:117
29,120001	25,900000	-20,020000	2020-11-19T14:35:27:141
16,309999	20,299999	-21,559999	2020-11-19T14:35:27:158
-5,180000	14,490000	-24,990000	2020-11-19T14:35:27:181
-8,960000	5,670000	-28,840000	2020-11-19T14:35:27:198
16,870001	4,410000	-34,090000	2020-11-19T14:35:27:222
45,709999	5,740000	-41,020000	2020-11-19T14:35:27:238
64,540001	5,250000	-46,200001	2020-11-19T14:35:27:261
72,800003	2,730000	-52,779999	2020-11-19T14:35:27:277
75,040001	0,280000	-55,369999	2020-11-19T14:35:27:302
64,959999	-2,800000	-55,299999	2020-11-19T14:35:27:319
49,420002	-7,280000	-52,779999	2020-11-19T14:35:27:341
57,540001	-8,470000	-51,869999	2020-11-19T14:35:27:358
77,699997	-8,190000	-52,849998	2020-11-19T14:35:27:382
91,840004	-9,870000	-59,709999	2020-11-19T14:35:27:397
91,209999	-15,960000	-69,720001	2020-11-19T14:35:27:421
74,269997	-22,540001	-80,779999	2020-11-19T14:35:27:438
74,059998	-26,600000	-89,040001	2020-11-19T14:35:27:462
100,590004	-25,900000	-86,239998	2020-11-19T14:35:27:478
118,790001	-35,070000	-90,090004	2020-11-19T14:35:27:501
132,020004	-57,260002	-88,059998	2020-11-19T14:35:27:518
135,380005	-78,889999	-86,239998	2020-11-19T14:35:27:542
152,110001	-93,099998	-82,949997	2020-11-19T14:35:27:560
149,940002	-93,870003	-74,900002	2020-11-19T14:35:27:582
126,419998	-91,910004	-67,269997	2020-11-19T14:35:27:598
93,660004	-100,449997	-70,209999	2020-11-19T14:35:27:622
67,410004	-104,930000	-75,320000	2020-11-19T14:35:27:638
45,430000	-99,190002	-82,250000	2020-11-19T14:35:27:662
47,880001	-88,690002	-73,779999	2020-11-19T14:35:27:678
68,669998	-80,709999	-63,279999	2020-11-19T14:35:27:702
75,879997	-76,510002	-62,720001	2020-11-19T14:35:27:718
62,299999	-73,989998	-60,410000	2020-11-19T14:35:27:741
39,900002	-67,900002	-22,049999	2020-11-19T14:35:27:758
-11,550000	-77,629997	0,350000	2020-11-19T14:35:27:784
-22,469999	-73,290001	-34,439999	2020-11-19T14:35:27:810
-45,920002	-73,849998	-64,400002	2020-11-19T14:35:27:821
-56,420002	-68,879997	-70,910004	2020-11-19T14:35:27:838
-38,500000	-58,240002	-73,010002	2020-11-19T14:35:27:862
-3,150000	-42,490002	-70,559998	2020-11-19T14:35:27:878
38,360001	-30,590000	-70,629997	2020-11-19T14:35:27:902
69,510002	-25,760000	-69,160004	2020-11-19T14:35:27:918
81,340004	-23,940001	-63,560001	2020-11-19T14:35:27:942
83,790001	-26,110001	-56,139999	2020-11-19T14:35:27:959
74,550003	-27,719999	-48,020000	2020-11-19T14:35:27:981
70,000000	-19,809999	-31,010000	2020-11-19T14:35:27:998
65,309998	-7,560000	-16,100000	2020-11-19T14:35:28:022
60,689999	1,610000	-8,330000	2020-11-19T14:35:28:039
72,169998	7,350000	-2,450000	2020-11-19T14:35:28:061
82,809998	13,440001	6,020000	2020-11-19T14:35:28:079
77,980003	17,360001	17,010000	2020-11-19T14:35:28:103
59,010002	19,600000	25,480000	2020-11-19T14:35:28:118
46,900002	20,440001	29,260000	2020-11-19T14:35:28:141
50,889999	22,889999	31,850000	2020-11-19T14:35:28:159
55,860001	26,040001	32,270000	2020-11-19T14:35:28:182
54,110001	27,230000	31,219999	2020-11-19T14:35:28:199
49,980000	25,410000	25,969999	2020-11-19T14:35:28:221
46,130001	22,260000	23,660000	2020-11-19T14:35:28:238
31,850000	21,280001	27,719999	2020-11-19T14:35:28:263
15,190001	21,700001	32,689999	2020-11-19T14:35:28:279
13,300000	19,110001	33,950001	2020-11-19T14:35:28:301
13,720000	11,340000	33,459999	2020-11-19T14:35:28:319
0,280000	4,060000	33,810001	2020-11-19T14:35:28:343
-19,110001	0,840000	34,369999	2020-11-19T14:35:28:359
-22,540001	0,350000	30,450001	2020-11-19T14:35:28:382
-7,980000	0,350000	22,680000	2020-11-19T14:35:28:399
9,170000	1,680000	13,580000	2020-11-19T14:35:28:423
18,480000	3,150000	5,320000	2020-11-19T14:35:28:439
15,680000	3,150000	0,280000	2020-11-19T14:35:28:463
7,210000	2,800000	-2,170000	2020-11-19T14:35:28:479
-5,880000	2,240000	-3,150000	2020-11-19T14:35:28:503
-8,260000	1,680000	-4,550000	2020-11-19T14:35:28:520
2,520000	2,730000	-4,830000	2020-11-19T14:35:28:542
9,170000	3,640000	-4,060000	2020-11-19T14:35:28:559
9,520000	5,180000	-1,190000	2020-11-19T14:35:28:583
5,250000	6,580000	2,940000	2020-11-19T14:35:28:599
-0,560000	7,490000	4,690000	2020-11-19T14:35:28:622
-1,050000	7,560000	5,180000	2020-11-19T14:35:28:639
0,700000	8,820000	4,480000	2020-11-19T14:35:28:663
8,750000	11,200000	2,590000	2020-11-19T14:35:28:679
16,520000	12,600000	0,630000	2020-11-19T14:35:28:702
11,410000	11,270000	-0,070000	2020-11-19T14:35:28:719
-4,830000	8,680000	2,170000	2020-11-19T14:35:28:743
-19,950001	5,390000	3,500000	2020-11-19T14:35:28:760
-24,500000	2,310000	3,360000	2020-11-19T14:35:28:782
-21,980000	0,140000	1,470000	2020-11-19T14:35:28:799
-18,059999	-1,820000	-2,100000	2020-11-19T14:35:28:823
-19,879999	-3,570000	-4,270000	2020-11-19T14:35:28:839
-45,290001	-1,330000	-1,190000	2020-11-19T14:35:28:862
-47,250000	0,140000	-0,070000	2020-11-19T14:35:28:879
-34,439999	0,700000	-1,190000	2020-11-19T14:35:28:902
-24,990000	0,700000	-2,730000	2020-11-19T14:35:28:921
-24,430000	-0,560000	-3,570000	2020-11-19T14:35:28:942
-25,340000	-3,710000	-8,820000	2020-11-19T14:35:28:960
-28,350000	-11,480000	-18,690001	2020-11-19T14:35:28:983
-31,500000	-23,520000	-32,340000	2020-11-19T14:35:29:001
-27,930000	-35,209999	-47,320000	2020-11-19T14:35:29:022
-22,469999	-44,520000	-63,070000	2020-11-19T14:35:29:040
-27,090000	-51,380001	-73,919998	2020-11-19T14:35:29:063
-40,459999	-56,209999	-75,599998	2020-11-19T14:35:29:079
-49,560001	-57,330002	-70,419998	2020-11-19T14:35:29:102
-51,170002	-57,049999	-66,080002	2020-11-19T14:35:29:119
-39,200001	-58,170002	-65,660004	2020-11-19T14:35:29:143
-18,340000	-60,689999	-67,550003	2020-11-19T14:35:29:160
-5,880000	-61,250000	-64,959999	2020-11-19T14:35:29:182
-19,530001	-58,099998	-59,639999	2020-11-19T14:35:29:199
-41,790001	-52,080002	-53,900002	2020-11-19T14:35:29:223
-50,400002	-43,049999	-50,189999	2020-11-19T14:35:29:240
-44,099998	-36,119999	-48,650002	2020-11-19T14:35:29:262
-41,369999	-32,830002	-41,369999	2020-11-19T14:35:29:279
-71,820000	-29,820000	-29,049999	2020-11-19T14:35:29:303
-93,940002	-25,549999	-18,549999	2020-11-19T14:35:29:320
-62,510002	-11,480000	-13,930000	2020-11-19T14:35:29:342
-15,120000	4,410000	-10,220000	2020-11-19T14:35:29:360
-22,889999	25,760000	-2,520000	2020-11-19T14:35:29:383
-52,290001	44,170002	11,760000	2020-11-19T14:35:29:400
-72,519997	52,220001	27,510000	2020-11-19T14:35:29:422
-85,540001	51,029999	41,790001	2020-11-19T14:35:29:439
-80,220001	52,360001	52,990002	2020-11-19T14:35:29:463
-67,760002	60,480000	58,730000	2020-11-19T14:35:29:481
-68,320000	69,580002	66,570000	2020-11-19T14:35:29:502
-73,010002	76,720001	87,290001	2020-11-19T14:35:29:520
-78,120003	86,519997	112,349998	2020-11-19T14:35:29:543
-83,650002	97,300003	132,229996	2020-11-19T14:35:29:560
-76,790001	102,340004	141,889999	2020-11-19T14:35:29:582
-56,070000	107,449997	151,830002	2020-11-19T14:35:29:600
-27,020000	111,510002	156,660004	2020-11-19T14:35:29:623
-0,070000	115,220001	160,300003	2020-11-19T14:35:29:640
0,910000	125,230003	163,520004	2020-11-19T14:35:29:663
-14,350000	148,190002	173,740005	2020-11-19T14:35:29:680
-31,570000	175,490005	185,360001	2020-11-19T14:35:29:704
-53,340000	195,860001	184,940002	2020-11-19T14:35:29:722
-65,870003	187,320007	170,589996	2020-11-19T14:35:29:743
-80,500000	170,240005	163,309998	2020-11-19T14:35:29:769
-123,760002	139,229996	180,529999	2020-11-19T14:35:29:784
-140,279999	88,690002	192,430008	2020-11-19T14:35:29:800
-123,129997	72,169998	169,470001	2020-11-19T14:35:29:823
-101,849998	60,900002	130,410004	2020-11-19T14:35:29:840
-74,199997	30,309999	101,500000	2020-11-19T14:35:29:864
-34,509998	9,450000	69,019997	2020-11-19T14:35:29:881
1,470000	5,460000	35,840000	2020-11-19T14:35:29:903
25,549999	2,660000	6,440000	2020-11-19T14:35:29:920
27,510000	-9,800000	-20,510000	2020-11-19T14:35:29:944
18,690001	-16,799999	-27,719999	2020-11-19T14:35:29:961
11,970000	-27,440001	-33,389999	2020-11-19T14:35:29:983
13,300000	-36,330002	-31,570000	2020-11-19T14:35:30:001
10,360000	-43,889999	-21,629999	2020-11-19T14:35:30:024
-1,260000	-48,650002	-10,360000	2020-11-19T14:35:30:040
-10,430000	-50,119999	0,630000	2020-11-19T14:35:30:064
-12,530000	-50,119999	6,230000	2020-11-19T14:35:30:080
-13,510000	-46,970001	9,800000	2020-11-19T14:35:30:104
-21,210001	-44,450001	14,700000	2020-11-19T14:35:30:121
-36,889999	-45,849998	19,740000	2020-11-19T14:35:30:143
-58,380001	-50,610001	21,139999	2020-11-19T14:35:30:161
-77,699997	-53,689999	19,600000	2020-11-19T14:35:30:184
-85,260002	-52,430000	16,450001	2020-11-19T14:35:30:201
-79,870003	-49,349998	13,650000	2020-11-19T14:35:30:223
-66,430000	-49,630001	9,870000	2020-11-19T14:35:30:241
-46,480000	-52,920002	4,200000	2020-11-19T14:35:30:265
-28,840000	-57,330002	-2,590000	2020-11-19T14:35:30:280
-18,340000	-59,010002	-9,240000	2020-11-19T14:35:30:303
-9,660000	-61,880001	-16,100000	2020-11-19T14:35:30:320
-0,700000	-64,680000	-23,170000	2020-11-19T14:35:30:344
0,770000	-65,029999	-28,070000	2020-11-19T14:35:30:361
-10,430000	-65,379997	-29,190001	2020-11-19T14:35:30:384
-29,469999	-68,459999	-31,430000	2020-11-19T14:35:30:401
-42,420002	-72,309998	-33,040001	2020-11-19T14:35:30:425
-46,970001	-68,669998	-30,799999	2020-11-19T14:35:30:441
-49,279999	-58,939999	-24,920000	2020-11-19T14:35:30:464
-52,779999	-48,160000	-16,100000	2020-11-19T14:35:30:481
-56,349998	-37,869999	-3,990000	2020-11-19T14:35:30:504
-59,360001	-30,380001	8,400000	2020-11-19T14:35:30:521
-61,740002	-19,740000	22,400000	2020-11-19T14:35:30:544
-62,230000	-4,970000	40,389999	2020-11-19T14:35:30:561
-57,889999	5,460000	60,480000	2020-11-19T14:35:30:588
-48,230000	5,600000	80,989998	2020-11-19T14:35:30:601
-39,060001	2,590000	101,150002	2020-11-19T14:35:30:624
-45,220001	3,920000	120,959999	2020-11-19T14:35:30:640
-73,989998	15,330000	139,720001	2020-11-19T14:35:30:665
-111,020004	29,330000	156,449997	2020-11-19T14:35:30:681
-139,369995	36,750000	166,250000	2020-11-19T14:35:30:703
-154,559998	38,920002	165,339996	2020-11-19T14:35:30:721
-158,690002	42,070000	161,070007	2020-11-19T14:35:30:745
-157,009995	44,380001	152,180008	2020-11-19T14:35:30:761
-149,729996	44,029999	141,119995	2020-11-19T14:35:30:784
-150,009995	44,310001	127,610001	2020-11-19T14:35:30:801
-150,220001	43,189999	117,040001	2020-11-19T14:35:30:825
-146,860001	37,660000	113,820000	2020-11-19T14:35:30:841
-134,190002	29,469999	103,669998	2020-11-19T14:35:30:864
-124,180000	20,230000	83,860001	2020-11-19T14:35:30:881
-111,230003	14,420000	64,750000	2020-11-19T14:35:30:905
-94,709999	10,570000	46,689999	2020-11-19T14:35:30:922
-77,279999	10,360000	27,790001	2020-11-19T14:35:30:944
-60,900002	10,710000	9,590000	2020-11-19T14:35:30:961
-47,670002	11,690000	-5,530000	2020-11-19T14:35:30:985
-42,000000	12,950000	-18,549999	2020-11-19T14:35:31:001
-50,259998	15,050000	-33,599998	2020-11-19T14:35:31:024
-70,559998	16,590000	-39,830002	2020-11-19T14:35:31:041
-87,430000	17,780001	-43,820000	2020-11-19T14:35:31:065
-96,949997	14,420000	-47,880001	2020-11-19T14:35:31:082
-93,169998	9,590000	-55,439999	2020-11-19T14:35:31:104
-72,169998	8,120000	-62,299999	2020-11-19T14:35:31:121
-39,410000	10,220000	-68,110001	2020-11-19T14:35:31:145
1,680000	14,280000	-71,540001	2020-11-19T14:35:31:162
49,770000	19,809999	-71,820000	2020-11-19T14:35:31:184
98,699997	18,830000	-71,260002	2020-11-19T14:35:31:201
132,860001	7,350000	-74,690002	2020-11-19T14:35:31:225
126,770004	-7,910000	-80,500000	2020-11-19T14:35:31:241
92,680000	-20,650000	-84,419998	2020-11-19T14:35:31:265
51,450001	-25,900000	-84,840004	2020-11-19T14:35:31:281
26,389999	-25,690001	-87,709999	2020-11-19T14:35:31:305
21,000000	-25,830000	-96,040001	2020-11-19T14:35:31:322
29,120001	-26,040001	-102,340004	2020-11-19T14:35:31:345
42,560001	-25,690001	-105,139999	2020-11-19T14:35:31:361
52,220001	-26,880001	-109,970001	2020-11-19T14:35:31:385
59,220001	-25,690001	-112,000000	2020-11-19T14:35:31:402
63,279999	-25,340000	-110,250000	2020-11-19T14:35:31:424
64,750000	-26,530001	-109,690002	2020-11-19T14:35:31:442
65,379997	-32,410000	-113,470001	2020-11-19T14:35:31:465
58,380001	-37,939999	-112,770004	2020-11-19T14:35:31:481
34,160000	-39,200001	-108,919998	2020-11-19T14:35:31:505
3,360000	-37,590000	-99,750000	2020-11-19T14:35:31:521
-14,980000	-32,410000	-84,980003	2020-11-19T14:35:31:546
-23,870001	-29,820000	-71,190002	2020-11-19T14:35:31:562
-29,469999	-28,210001	-57,189999	2020-11-19T14:35:31:584
-31,360001	-24,639999	-41,090000	2020-11-19T14:35:31:601
-31,010000	-20,580000	-24,290001	2020-11-19T14:35:31:625
-29,330000	-16,309999	-9,660000	2020-11-19T14:35:31:642
-24,290001	-10,780000	3,220000	2020-11-19T14:35:31:665
-18,270000	-3,220000	15,540000	2020-11-19T14:35:31:682
-13,510000	5,110000	25,830000	2020-11-19T14:35:31:705
-8,470000	11,900000	34,650002	2020-11-19T14:35:31:722
-2,310000	15,400000	40,810001	2020-11-19T14:35:31:745
1,330000	15,540000	45,360001	2020-11-19T14:35:31:762
-1,470000	11,550000	49,770000	2020-11-19T14:35:31:785
-3,640000	9,380000	56,070000	2020-11-19T14:35:31:802
-1,050000	9,870000	65,169998	2020-11-19T14:35:31:825
0,140000	12,670000	76,300003	2020-11-19T14:35:31:842
0,070000	16,940001	91,070000	2020-11-19T14:35:31:867
-3,290000	19,460001	106,750000	2020-11-19T14:35:31:882
-8,680000	21,770000	121,029999	2020-11-19T14:35:31:905
-13,440001	24,850000	135,029999	2020-11-19T14:35:31:922
-17,920000	29,469999	150,149994	2020-11-19T14:35:31:946
-17,290001	34,160000	164,360001	2020-11-19T14:35:31:963
-9,030000	38,849998	173,809998	2020-11-19T14:35:31:985
5,390000	42,560001	173,809998	2020-11-19T14:35:32:002
24,500000	44,310001	160,509995	2020-11-19T14:35:32:025
50,610001	46,619999	133,070007	2020-11-19T14:35:32:042
82,250000	51,450001	98,840004	2020-11-19T14:35:32:065
105,000000	49,070000	48,439999	2020-11-19T14:35:32:082
77,209999	25,270000	18,900000	2020-11-19T14:35:32:106
27,299999	15,330000	0,630000	2020-11-19T14:35:32:123
-36,049999	8,610000	-2,660000	2020-11-19T14:35:32:145
-94,989998	-0,630000	3,360000	2020-11-19T14:35:32:163
-140,070007	-6,650000	13,230000	2020-11-19T14:35:32:186
-169,050003	-10,920000	25,410000	2020-11-19T14:35:32:202
-182,839996	-17,570000	34,509998	2020-11-19T14:35:32:225
-177,169998	-21,559999	40,880001	2020-11-19T14:35:32:242
-153,580002	-16,590000	46,900002	2020-11-19T14:35:32:266
-121,309998	-5,320000	52,990002	2020-11-19T14:35:32:283
-89,040001	6,650000	58,310001	2020-11-19T14:35:32:305
-59,500000	16,240000	61,459999	2020-11-19T14:35:32:322
-36,119999	21,210001	61,250000	2020-11-19T14:35:32:346
-19,040001	25,549999	59,430000	2020-11-19T14:35:32:364
-5,880000	28,910000	55,580002	2020-11-19T14:35:32:384
8,540000	31,570000	49,490002	2020-11-19T14:35:32:402
28,000000	34,090000	41,369999	2020-11-19T14:35:32:426
48,930000	33,040001	31,360001	2020-11-19T14:35:32:442
65,029999	28,840000	19,530001	2020-11-19T14:35:32:466
73,290001	23,170000	7,560000	2020-11-19T14:35:32:483
74,970001	18,270000	-3,710000	2020-11-19T14:35:32:506
73,220001	15,820000	-13,720000	2020-11-19T14:35:32:524
73,290001	13,860000	-21,700001	2020-11-19T14:35:32:545
78,750000	9,940000	-28,420000	2020-11-19T14:35:32:563
84,279999	-2,100000	-35,349998	2020-11-19T14:35:32:586
85,470001	-14,140000	-42,420002	2020-11-19T14:35:32:603
85,260002	-23,100000	-50,610001	2020-11-19T14:35:32:625
89,599998	-31,080000	-61,529999	2020-11-19T14:35:32:643
96,250000	-35,000000	-73,360001	2020-11-19T14:35:32:667
107,870003	-32,340000	-80,430000	2020-11-19T14:35:32:682
129,149994	-34,230000	-82,599998	2020-11-19T14:35:32:706
152,460007	-43,189999	-81,199997	2020-11-19T14:35:32:723
163,309998	-54,180000	-77,769997	2020-11-19T14:35:32:746
159,880005	-67,269997	-73,639999	2020-11-19T14:35:32:763
143,430008	-80,849998	-73,360001	2020-11-19T14:35:32:787
116,550003	-88,620003	-78,540001	2020-11-19T14:35:32:803
86,940002	-91,349998	-86,029999	2020-11-19T14:35:32:827
56,490002	-91,840004	-97,230003	2020-11-19T14:35:32:845
31,850000	-90,580002	-107,800003	2020-11-19T14:35:32:866
19,389999	-87,360001	-116,129997	2020-11-19T14:35:32:883
13,230000	-83,720001	-123,059998	2020-11-19T14:35:32:907
10,990000	-77,910004	-126,209999	2020-11-19T14:35:32:923
13,580000	-70,769997	-125,160004	2020-11-19T14:35:32:946
16,100000	-62,860001	-121,379997	2020-11-19T14:35:32:963
15,680000	-54,880001	-116,620003	2020-11-19T14:35:32:987
14,420000	-44,450001	-111,230003	2020-11-19T14:35:33:003
13,300000	-33,880001	-104,720001	2020-11-19T14:35:33:026
8,470000	-24,570000	-97,860001	2020-11-19T14:35:33:042
2,380000	-14,350000	-89,669998	2020-11-19T14:35:33:067
0,280000	-1,960000	-79,379997	2020-11-19T14:35:33:084
1,400000	11,760000	-67,690002	2020-11-19T14:35:33:106
3,850000	26,950001	-53,480000	2020-11-19T14:35:33:124
7,630000	44,099998	-35,139999	2020-11-19T14:35:33:147
16,799999	61,950001	0,210000	2020-11-19T14:35:33:163
23,590000	80,500000	27,370001	2020-11-19T14:35:33:186
27,299999	87,500000	54,880001	2020-11-19T14:35:33:203
28,490000	92,750000	80,989998	2020-11-19T14:35:33:227
26,180000	99,330002	103,110001	2020-11-19T14:35:33:244
22,960001	106,959999	120,610001	2020-11-19T14:35:33:266
21,210001	112,910004	133,139999	2020-11-19T14:35:33:283
22,120001	114,449997	137,830002	2020-11-19T14:35:33:307
26,250000	112,070000	132,300003	2020-11-19T14:35:33:324
34,090000	106,260002	121,239998	2020-11-19T14:35:33:346
43,259998	96,040001	106,260002	2020-11-19T14:35:33:364
44,730000	83,650002	89,040001	2020-11-19T14:35:33:387
34,230000	72,519997	75,040001	2020-11-19T14:35:33:403
5,740000	49,490002	63,560001	2020-11-19T14:35:33:426
-68,879997	30,730000	37,520000	2020-11-19T14:35:33:443
-126,629997	29,680000	26,600000	2020-11-19T14:35:33:467
-108,150002	25,760000	24,010000	2020-11-19T14:35:33:484
-76,650002	25,059999	23,100000	2020-11-19T14:35:33:506
-60,270000	26,740000	19,320000	2020-11-19T14:35:33:523
-52,779999	28,980000	24,780001	2020-11-19T14:35:33:547
-43,750000	32,060001	29,960001	2020-11-19T14:35:33:589
-29,190001	33,459999	35,209999	2020-11-19T14:35:33:590
-9,520000	33,250000	40,110001	2020-11-19T14:35:33:603
4,270000	33,599998	45,009998	2020-11-19T14:35:33:627
6,300000	34,020000	47,389999	2020-11-19T14:35:33:643
5,530000	33,250000	46,410000	2020-11-19T14:35:33:667
8,120000	31,290001	42,980000	2020-11-19T14:35:33:683
8,050000	29,610001	38,150002	2020-11-19T14:35:33:707
6,090000	28,420000	32,340000	2020-11-19T14:35:33:724
7,630000	25,900000	26,250000	2020-11-19T14:35:33:747
12,320000	21,070000	18,969999	2020-11-19T14:35:33:764
18,549999	17,219999	11,410000	2020-11-19T14:35:33:787
25,480000	15,400000	4,760000	2020-11-19T14:35:33:805
31,780001	15,470000	-1,120000	2020-11-19T14:35:33:826
36,889999	12,950000	-6,020000	2020-11-19T14:35:33:845
40,250000	4,970000	-10,640000	2020-11-19T14:35:33:867
41,650002	-1,470000	-14,490000	2020-11-19T14:35:33:884
43,680000	-6,790000	-19,040001	2020-11-19T14:35:33:907
50,470001	-13,510000	-27,650000	2020-11-19T14:35:33:924
58,450001	-20,370001	-40,529999	2020-11-19T14:35:33:947
67,269997	-21,980000	-52,639999	2020-11-19T14:35:33:965
80,290001	-21,910000	-61,529999	2020-11-19T14:35:33:987
98,209999	-28,420000	-69,440002	2020-11-19T14:35:34:004
121,309998	-37,029999	-74,620003	2020-11-19T14:35:34:030
140,419998	-44,730000	-76,230003	2020-11-19T14:35:34:050
142,869995	-53,200001	-77,769997	2020-11-19T14:35:34:067
132,089996	-62,930000	-83,440002	2020-11-19T14:35:34:084
114,379997	-69,580002	-91,419998	2020-11-19T14:35:34:108
92,190002	-71,680000	-99,750000	2020-11-19T14:35:34:124
70,489998	-71,820000	-107,730003	2020-11-19T14:35:34:147
57,119999	-69,720001	-112,349998	2020-11-19T14:35:34:164
51,380001	-66,290001	-112,349998	2020-11-19T14:35:34:188
52,570000	-63,070000	-107,660004	2020-11-19T14:35:34:204
57,540001	-60,340000	-99,400002	2020-11-19T14:35:34:227
60,689999	-56,279999	-81,550003	2020-11-19T14:35:34:244
56,910000	-51,660000	-67,620003	2020-11-19T14:35:34:269
50,680000	-45,849998	-54,740002	2020-11-19T14:35:34:285
45,009998	-40,740002	-44,380001	2020-11-19T14:35:34:307
37,730000	-35,840000	-37,939999	2020-11-19T14:35:34:324
26,670000	-30,380001	-33,389999	2020-11-19T14:35:34:348
14,770000	-23,309999	-28,070000	2020-11-19T14:35:34:364
8,330000	-14,700000	-21,559999	2020-11-19T14:35:34:387
7,770000	-6,300000	-15,330000	2020-11-19T14:35:34:404
10,360000	2,940000	-9,520000	2020-11-19T14:35:34:428
12,670000	13,160000	-4,200000	2020-11-19T14:35:34:445
15,470000	24,990000	3,010000	2020-11-19T14:35:34:468
17,780001	35,700001	11,620000	2020-11-19T14:35:34:484
17,639999	40,180000	17,219999	2020-11-19T14:35:34:509
13,230000	43,959999	22,960001	2020-11-19T14:35:34:525
5,600000	49,770000	29,960001	2020-11-19T14:35:34:548
-0,350000	53,619999	36,259998	2020-11-19T14:35:34:565
-1,050000	54,320000	39,130001	2020-11-19T14:35:34:588
-1,330000	55,230000	39,900002	2020-11-19T14:35:34:604
-4,060000	59,709999	39,410000	2020-11-19T14:35:34:628
-5,390000	64,400002	38,570000	2020-11-19T14:35:34:644
-0,840000	66,779999	37,310001	2020-11-19T14:35:34:669
7,490000	64,680000	36,259998	2020-11-19T14:35:34:685
10,290000	59,010002	35,209999	2020-11-19T14:35:34:708
3,360000	55,020000	34,439999	2020-11-19T14:35:34:724
-10,080000	51,450001	34,650002	2020-11-19T14:35:34:749
-25,620001	46,900002	35,139999	2020-11-19T14:35:34:766
-38,500000	45,009998	35,700001	2020-11-19T14:35:34:787
-47,180000	44,730000	37,029999	2020-11-19T14:35:34:806
-52,080002	44,590000	37,310001	2020-11-19T14:35:34:829
-52,779999	45,920002	37,939999	2020-11-19T14:35:34:845
-52,009998	47,250000	39,060001	2020-11-19T14:35:34:868
-50,540001	48,160000	40,810001	2020-11-19T14:35:34:884
-47,529999	48,650002	44,029999	2020-11-19T14:35:34:909
-49,139999	44,939999	46,689999	2020-11-19T14:35:34:925
-56,349998	42,070000	49,770000	2020-11-19T14:35:34:948
-63,279999	40,810001	54,250000	2020-11-19T14:35:34:965
-65,870003	39,549999	57,540001	2020-11-19T14:35:34:989
-67,620003	39,830002	59,360001	2020-11-19T14:35:35:006
-68,250000	39,689999	60,480000	2020-11-19T14:35:35:028
-65,590004	39,340000	60,200001	2020-11-19T14:35:35:045
-62,720001	38,779999	59,220001	2020-11-19T14:35:35:069
-61,740002	34,720001	55,090000	2020-11-19T14:35:35:085
-61,670002	29,820000	48,230000	2020-11-19T14:35:35:108
-62,790001	25,480000	40,180000	2020-11-19T14:35:35:125
-65,590004	20,370001	30,799999	2020-11-19T14:35:35:149
-67,830002	11,270000	19,530001	2020-11-19T14:35:35:166
-67,129997	0,070000	7,560000	2020-11-19T14:35:35:188
-64,820000	-12,600000	-4,970000	2020-11-19T14:35:35:205
-64,050003	-29,680000	-21,700001	2020-11-19T14:35:35:229
-64,680000	-44,799999	-42,700001	2020-11-19T14:35:35:246
-66,570000	-53,130001	-67,410004	2020-11-19T14:35:35:268
-70,489998	-59,500000	-93,449997	2020-11-19T14:35:35:285
-73,010002	-62,369999	-116,830002	2020-11-19T14:35:35:309
-76,090004	-67,690002	-137,479996	2020-11-19T14:35:35:325
-83,019997	-74,410004	-142,520004	2020-11-19T14:35:35:348
-90,790001	-79,590004	-146,020004	2020-11-19T14:35:35:365
-89,529999	-79,099998	-145,250000	2020-11-19T14:35:35:388
-75,669998	-72,730003	-141,820007	2020-11-19T14:35:35:406
-54,810001	-70,000000	-138,320007	2020-11-19T14:35:35:428
-36,330002	-69,300003	-133,350006	2020-11-19T14:35:35:445
-25,340000	-66,570000	-124,949997	2020-11-19T14:35:35:470
-15,680000	-61,389999	-113,120003	2020-11-19T14:35:35:486
-4,830000	-59,709999	-97,580002	2020-11-19T14:35:35:508
-1,960000	-69,370003	-82,529999	2020-11-19T14:35:35:525
-8,540000	-73,500000	-66,779999	2020-11-19T14:35:35:549
-17,639999	-73,849998	-48,160000	2020-11-19T14:35:35:566
-24,290001	-73,779999	-29,260000	2020-11-19T14:35:35:591
-28,350000	-74,830002	-11,340000	2020-11-19T14:35:35:605
-30,309999	-76,230003	5,670000	2020-11-19T14:35:35:629
-31,570000	-77,980003	21,770000	2020-11-19T14:35:35:646
-31,219999	-79,800003	35,910000	2020-11-19T14:35:35:669
-33,320000	-80,430000	49,560001	2020-11-19T14:35:35:685
-46,340000	-83,860001	64,540001	2020-11-19T14:35:35:709
-73,150002	-94,500000	80,290001	2020-11-19T14:35:35:727
-108,639999	-107,379997	97,440002	2020-11-19T14:35:35:748
-148,820007	-117,180000	115,919998	2020-11-19T14:35:35:766
-187,110001	-125,300003	132,020004	2020-11-19T14:35:35:789
-212,029999	-133,979996	142,660004	2020-11-19T14:35:35:806
-227,149994	-145,600006	149,029999	2020-11-19T14:35:35:829
-238,770004	-150,430008	151,479996	2020-11-19T14:35:35:846
-245,699997	-144,970001	155,399994	2020-11-19T14:35:35:870
-245,910004	-131,110001	162,399994	2020-11-19T14:35:35:886
-248,149994	-115,430000	169,259995	2020-11-19T14:35:35:909
-253,259995	-104,510002	175,419998	2020-11-19T14:35:35:926
-259,140015	-97,860001	180,880005	2020-11-19T14:35:35:950
-261,730011	-90,930000	186,270004	2020-11-19T14:35:35:967
-250,460007	-80,849998	190,330002	2020-11-19T14:35:35:989
-224,139999	-70,489998	191,729996	2020-11-19T14:35:36:006
-189,279999	-60,060001	187,039993	2020-11-19T14:35:36:030
-157,919998	-50,750000	172,970001	2020-11-19T14:35:36:045
-131,110001	-41,930000	150,990005	2020-11-19T14:35:36:069
-105,209999	-32,130001	126,489998	2020-11-19T14:35:36:086
-84,209999	-21,490000	102,620003	2020-11-19T14:35:36:110
-75,110001	-16,030001	80,500000	2020-11-19T14:35:36:126
-80,779999	-11,690000	61,950001	2020-11-19T14:35:36:149
-96,389999	-7,700000	48,230000	2020-11-19T14:35:36:166
-113,400002	-6,020000	40,810001	2020-11-19T14:35:36:190
-131,600006	-5,390000	39,060001	2020-11-19T14:35:36:207
-150,570007	-4,270000	39,480000	2020-11-19T14:35:36:229
-163,660004	-2,310000	43,959999	2020-11-19T14:35:36:246
-166,180008	3,850000	52,220001	2020-11-19T14:35:36:270
-157,289993	10,990000	58,380001	2020-11-19T14:35:36:286
-137,339996	17,430000	59,500000	2020-11-19T14:35:36:309
-118,090004	25,200001	58,099998	2020-11-19T14:35:36:326
-115,639999	30,590000	51,029999	2020-11-19T14:35:36:351
-118,090004	33,250000	40,180000	2020-11-19T14:35:36:367
-119,139999	36,330002	27,510000	2020-11-19T14:35:36:389
-128,380005	39,200001	22,750000	2020-11-19T14:35:36:406
-134,470001	40,180000	22,330000	2020-11-19T14:35:36:430
-136,009995	38,990002	23,940001	2020-11-19T14:35:36:447
-132,789993	37,170002	26,389999	2020-11-19T14:35:36:470
-124,669998	39,900002	30,240000	2020-11-19T14:35:36:487
-111,650002	46,759998	35,910000	2020-11-19T14:35:36:511
-95,970001	51,799999	40,320000	2020-11-19T14:35:36:527
-79,730003	52,360001	41,020000	2020-11-19T14:35:36:550
-66,080002	56,070000	40,250000	2020-11-19T14:35:36:567
-56,980000	57,330002	38,009998	2020-11-19T14:35:36:591
-49,840000	49,490002	31,710001	2020-11-19T14:35:36:607
-48,720001	42,139999	23,660000	2020-11-19T14:35:36:630
-52,920002	46,970001	17,219999	2020-11-19T14:35:36:647
-56,279999	47,670002	21,700001	2020-11-19T14:35:36:671
-50,330002	37,590000	45,430000	2020-11-19T14:35:36:688
-40,250000	32,340000	55,650002	2020-11-19T14:35:36:709
-8,260000	25,200001	63,490002	2020-11-19T14:35:36:728
57,889999	18,200001	70,279999	2020-11-19T14:35:36:751
120,400002	22,120001	57,680000	2020-11-19T14:35:36:767
180,250000	29,049999	44,869999	2020-11-19T14:35:36:790
211,680008	27,230000	26,389999	2020-11-19T14:35:36:807
201,669998	21,700001	10,640000	2020-11-19T14:35:36:830
160,089996	12,040000	2,450000	2020-11-19T14:35:36:848
98,070000	5,110000	-2,660000	2020-11-19T14:35:36:870
29,750000	-2,660000	-1,470000	2020-11-19T14:35:36:887
-16,730000	-15,260000	0,560000	2020-11-19T14:35:36:911
-39,480000	-24,990000	-7,140000	2020-11-19T14:35:36:928
-43,119999	-26,670000	-14,140000	2020-11-19T14:35:36:950
-34,580002	-23,379999	-21,139999	2020-11-19T14:35:36:967
-28,559999	-21,280001	-24,850000	2020-11-19T14:35:36:991
-21,420000	-20,930000	-25,200001	2020-11-19T14:35:37:007
-6,790000	-17,920000	-17,010000	2020-11-19T14:35:37:030
26,460001	-17,360001	-4,130000	2020-11-19T14:35:37:047
73,150002	-22,400000	9,520000	2020-11-19T14:35:37:071
147,979996	-18,410000	19,530001	2020-11-19T14:35:37:088
205,169998	-7,840000	33,040001	2020-11-19T14:35:37:110
189,699997	-0,980000	51,099998	2020-11-19T14:35:37:127
128,589996	-11,270000	55,650002	2020-11-19T14:35:37:151
72,519997	-29,120001	52,570000	2020-11-19T14:35:37:169
44,240002	-36,820000	51,240002	2020-11-19T14:35:37:190
23,730000	-44,380001	42,980000	2020-11-19T14:35:37:207
-12,040000	-58,029999	20,790001	2020-11-19T14:35:37:231
-49,700001	-70,980003	-11,690000	2020-11-19T14:35:37:248
-81,059998	-81,760002	-41,860001	2020-11-19T14:35:37:271
-108,220001	-86,449997	-71,750000	2020-11-19T14:35:37:287
-126,629997	-79,940002	-91,070000	2020-11-19T14:35:37:311
-138,809998	-72,870003	-118,160004	2020-11-19T14:35:37:328
-139,300003	-67,690002	-144,059998	2020-11-19T14:35:37:350
-127,050003	-55,020000	-158,199997	2020-11-19T14:35:37:368
-108,220001	-46,410000	-165,550003	2020-11-19T14:35:37:391
-82,389999	-46,340000	-176,610001	2020-11-19T14:35:37:408
-44,730000	-52,990002	-179,270004	2020-11-19T14:35:37:430
-0,560000	-66,989998	-157,779999	2020-11-19T14:35:37:448
6,510000	-80,989998	-119,279999	2020-11-19T14:35:37:471
-27,020000	-74,550003	-93,940002	2020-11-19T14:35:37:487
-57,260002	-69,580002	-70,070000	2020-11-19T14:35:37:511
-78,050003	-63,980000	-44,590000	2020-11-19T14:35:37:527
-84,349998	-53,200001	-26,389999	2020-11-19T14:35:37:551
-68,599998	-40,040001	-16,520000	2020-11-19T14:35:37:568
-38,360001	-26,320000	-4,550000	2020-11-19T14:35:37:590
-12,250000	-11,900000	10,780000	2020-11-19T14:35:37:607
1,750000	2,450000	27,510000	2020-11-19T14:35:37:632
9,170000	14,980000	46,410000	2020-11-19T14:35:37:648
13,230000	28,070000	66,500000	2020-11-19T14:35:37:671
12,530000	39,619999	85,190002	2020-11-19T14:35:37:687
8,750000	49,070000	100,590004	2020-11-19T14:35:37:712
4,760000	59,639999	116,410004	2020-11-19T14:35:37:727
2,870000	69,580002	128,660004	2020-11-19T14:35:37:751
7,210000	87,989998	140,490005	2020-11-19T14:35:37:769
18,690001	93,590004	149,940002	2020-11-19T14:35:37:793
34,090000	86,309998	148,820007	2020-11-19T14:35:37:808
49,560001	73,639999	137,199997	2020-11-19T14:35:37:831
64,540001	62,860001	120,959999	2020-11-19T14:35:37:849
71,540001	54,389999	100,730003	2020-11-19T14:35:37:872
64,889999	46,830002	79,309998	2020-11-19T14:35:37:889
40,529999	34,790001	58,170002	2020-11-19T14:35:37:911
5,810000	20,719999	40,810001	2020-11-19T14:35:37:928
-18,200001	4,830000	24,219999	2020-11-19T14:35:37:951
-27,440001	-10,150000	6,860000	2020-11-19T14:35:37:969
-14,560000	-20,440001	-11,690000	2020-11-19T14:35:37:991
18,620001	-24,430000	-30,030001	2020-11-19T14:35:38:009
59,080002	-28,420000	-47,389999	2020-11-19T14:35:38:031
96,879997	-37,730000	-62,650002	2020-11-19T14:35:38:053
118,510002	-49,980000	-74,199997	2020-11-19T14:35:38:072
123,129997	-60,619999	-81,269997	2020-11-19T14:35:38:169
110,320000	-70,489998	-87,430000	2020-11-19T14:35:38:170
88,340004	-79,029999	-95,199997	2020-11-19T14:35:38:174
64,959999	-84,070000	-102,830002	2020-11-19T14:35:38:175
41,369999	-86,099998	-108,919998	2020-11-19T14:35:38:179
19,110001	-86,660004	-112,840004	2020-11-19T14:35:38:331
3,920000	-85,400002	-115,639999	2020-11-19T14:35:38:338
-1,050000	-82,529999	-115,570000	2020-11-19T14:35:38:338
2,590000	-79,309998	-112,070000	2020-11-19T14:35:38:342
9,100000	-75,599998	-106,330002	2020-11-19T14:35:38:344
15,050000	-70,910004	-99,610001	2020-11-19T14:35:38:345
19,879999	-65,379997	-93,029999	2020-11-19T14:35:38:345
21,840000	-59,500000	-86,800003	2020-11-19T14:35:38:345
16,030001	-53,200001	-81,970001	2020-11-19T14:35:38:354
5,460000	-48,160000	-78,959999	2020-11-19T14:35:38:369
-6,790000	-46,270000	-76,930000	2020-11-19T14:35:38:389
-20,580000	-44,099998	-75,040001	2020-11-19T14:35:38:406
-30,730000	-36,820000	-71,470001	2020-11-19T14:35:38:430
-32,410000	-27,020000	-66,080002	2020-11-19T14:35:38:447
-30,030001	-19,320000	-59,639999	2020-11-19T14:35:38:472
-23,730000	-10,990000	-51,310001	2020-11-19T14:35:38:489
-14,420000	-3,780000	-36,820000	2020-11-19T14:35:38:512
-8,470000	1,750000	-17,080000	2020-11-19T14:35:38:528
-15,960000	10,430000	23,170000	2020-11-19T14:35:38:551
-26,389999	15,260000	53,340000	2020-11-19T14:35:38:569
-34,090000	20,090000	84,840004	2020-11-19T14:35:38:591
-41,230000	22,680000	111,720001	2020-11-19T14:35:38:609
-47,599998	22,889999	129,289993	2020-11-19T14:35:38:642
-53,060001	25,129999	136,990005	2020-11-19T14:35:38:648
-59,360001	27,440001	138,669998	2020-11-19T14:35:38:673
-66,010002	26,809999	137,759995	2020-11-19T14:35:38:688
-70,769997	23,379999	134,750000	2020-11-19T14:35:38:713
-73,849998	19,320000	133,000000	2020-11-19T14:35:38:728
-80,360001	13,790000	132,300003	2020-11-19T14:35:38:752
-92,190002	7,770000	130,550003	2020-11-19T14:35:38:769
-107,239998	2,870000	127,820000	2020-11-19T14:35:38:791
-124,809998	0,770000	122,709999	2020-11-19T14:35:38:808
-141,539993	3,710000	116,270004	2020-11-19T14:35:38:832
-150,360001	9,870000	108,360001	2020-11-19T14:35:38:850
-144,270004	14,910000	98,070000	2020-11-19T14:35:38:872
-122,430000	20,930000	87,150002	2020-11-19T14:35:38:888
-95,059998	30,240000	78,120003	2020-11-19T14:35:38:912
-70,769997	39,549999	71,820000	2020-11-19T14:35:38:929
-49,139999	48,020000	68,879997	2020-11-19T14:35:38:952
-29,469999	53,689999	69,580002	2020-11-19T14:35:38:969
-22,610001	57,049999	70,910004	2020-11-19T14:35:38:993
-23,379999	60,480000	72,800003	2020-11-19T14:35:39:009
-28,770000	58,799999	73,080002	2020-11-19T14:35:39:032
-38,150002	57,400002	71,750000	2020-11-19T14:35:39:049
-46,970001	56,910000	68,599998	2020-11-19T14:35:39:073
-46,340000	55,369999	62,160000	2020-11-19T14:35:39:090
-37,660000	50,610001	50,540001	2020-11-19T14:35:39:112
-25,760000	46,480000	36,119999	2020-11-19T14:35:39:129
-16,379999	43,540001	20,719999	2020-11-19T14:35:39:153
-4,200000	38,080002	5,460000	2020-11-19T14:35:39:169
10,500000	26,950001	-9,170000	2020-11-19T14:35:39:192
17,639999	12,880000	-22,820000	2020-11-19T14:35:39:209
15,610000	-2,730000	-36,259998	2020-11-19T14:35:39:233
12,880000	-17,850000	-50,540001	2020-11-19T14:35:39:249
16,030001	-29,260000	-64,610001	2020-11-19T14:35:39:272
25,690001	-39,549999	-78,680000	2020-11-19T14:35:39:289
44,520000	-50,400002	-93,379997	2020-11-19T14:35:39:313
67,830002	-62,790001	-106,959999	2020-11-19T14:35:39:331
81,059998	-75,389999	-117,250000	2020-11-19T14:35:39:352
79,309998	-87,080002	-123,900002	2020-11-19T14:35:39:370
67,059998	-97,720001	-129,639999	2020-11-19T14:35:39:393
51,869999	-105,769997	-135,589996	2020-11-19T14:35:39:409
37,730000	-110,739998	-141,050003	2020-11-19T14:35:39:432
23,030001	-113,889999	-144,550003	2020-11-19T14:35:39:449
7,980000	-114,590004	-146,649994	2020-11-19T14:35:39:473
-4,550000	-112,980003	-144,410004	2020-11-19T14:35:39:490
-10,430000	-110,809998	-139,369995	2020-11-19T14:35:39:512
-8,680000	-107,660004	-130,830002	2020-11-19T14:35:39:529
-3,920000	-104,650002	-118,790001	2020-11-19T14:35:39:553
-2,450000	-101,080002	-107,099998	2020-11-19T14:35:39:570
-5,250000	-96,320000	-95,410004	2020-11-19T14:35:39:592
-10,010000	-90,650002	-84,349998	2020-11-19T14:35:39:610
-20,930000	-82,040001	-73,500000	2020-11-19T14:35:39:633
-28,559999	-73,360001	-67,129997	2020-11-19T14:35:39:649
-34,299999	-62,020000	-58,799999	2020-11-19T14:35:39:673
-34,580002	-49,349998	-47,389999	2020-11-19T14:35:39:689
-27,930000	-36,470001	-33,040001	2020-11-19T14:35:39:713
-17,430000	-23,309999	-15,400000	2020-11-19T14:35:39:730
-9,100000	-11,060000	4,340000	2020-11-19T14:35:39:752
-5,250000	2,520000	26,880001	2020-11-19T14:35:39:770
-3,080000	17,150000	53,900002	2020-11-19T14:35:39:793
-3,430000	29,610001	84,840004	2020-11-19T14:35:39:811
-7,000000	36,959999	116,830002	2020-11-19T14:35:39:832
-17,780001	45,080002	149,100006	2020-11-19T14:35:39:850
-34,580002	54,880001	180,460007	2020-11-19T14:35:39:874
-46,549999	59,080002	202,930008	2020-11-19T14:35:39:890
-50,119999	62,369999	213,080002	2020-11-19T14:35:39:913
-49,980000	70,279999	215,320007	2020-11-19T14:35:39:930
-46,270000	76,090004	211,750000	2020-11-19T14:35:39:953
-33,810001	73,220001	200,550003	2020-11-19T14:35:39:970
-16,520000	63,560001	182,979996	2020-11-19T14:35:39:993
-12,390000	52,570000	163,520004	2020-11-19T14:35:40:010
-23,379999	42,139999	142,309998	2020-11-19T14:35:40:033
-43,959999	35,000000	124,459999	2020-11-19T14:35:40:051
-73,010002	29,960001	103,459999	2020-11-19T14:35:40:073
-101,709999	28,770000	84,000000	2020-11-19T14:35:40:091
-124,529999	28,000000	70,489998	2020-11-19T14:35:40:114
-142,100006	27,580000	60,060001	2020-11-19T14:35:40:130
-150,289993	27,580000	53,410000	2020-11-19T14:35:40:153
-143,430008	28,139999	50,189999	2020-11-19T14:35:40:170
-125,930000	27,440001	48,580002	2020-11-19T14:35:40:194
-111,720001	27,650000	50,330002	2020-11-19T14:35:40:211
-104,580002	29,750000	53,830002	2020-11-19T14:35:40:233
-100,029999	32,200001	58,799999	2020-11-19T14:35:40:250
-97,510002	34,509998	62,020000	2020-11-19T14:35:40:274
-99,959999	35,910000	61,529999	2020-11-19T14:35:40:291
-106,750000	35,560001	58,029999	2020-11-19T14:35:40:313
-111,160004	37,240002	53,549999	2020-11-19T14:35:40:330
-103,250000	41,230000	48,020000	2020-11-19T14:35:40:353
-82,180000	44,660000	40,950001	2020-11-19T14:35:40:371
-54,459999	44,450001	31,500000	2020-11-19T14:35:40:393
-25,830000	43,750000	20,370001	2020-11-19T14:35:40:411
-2,730000	42,420002	8,890000	2020-11-19T14:35:40:434
11,760000	37,520000	-2,940000	2020-11-19T14:35:40:451
18,760000	25,340000	-16,730000	2020-11-19T14:35:40:473
19,389999	13,510000	-31,570000	2020-11-19T14:35:40:490
16,870001	1,960000	-46,549999	2020-11-19T14:35:40:514
16,450001	-9,520000	-62,930000	2020-11-19T14:35:40:532
22,049999	-21,280001	-80,849998	2020-11-19T14:35:40:553
35,000000	-31,850000	-98,910004	2020-11-19T14:35:40:574
55,580002	-37,450001	-113,050003	2020-11-19T14:35:40:596
79,099998	-44,660000	-122,220001	2020-11-19T14:35:40:610
99,330002	-54,880001	-127,190002	2020-11-19T14:35:40:635
109,620003	-65,800003	-127,120003	2020-11-19T14:35:40:651
107,660004	-74,199997	-123,410004	2020-11-19T14:35:40:674
96,180000	-81,059998	-116,059998	2020-11-19T14:35:40:691
66,849998	-93,730003	-115,360001	2020-11-19T14:35:40:713
40,180000	-98,419998	-117,669998	2020-11-19T14:35:40:731
16,520000	-99,050003	-120,190002	2020-11-19T14:35:40:754
-0,280000	-96,879997	-121,099998	2020-11-19T14:35:40:773
-9,800000	-92,470001	-117,879997	2020-11-19T14:35:40:793
-9,310000	-86,940002	-112,000000	2020-11-19T14:35:40:811
-0,420000	-82,949997	-105,349998	2020-11-19T14:35:40:834
8,680000	-80,570000	-98,349998	2020-11-19T14:35:40:851
10,850000	-78,470001	-90,510002	2020-11-19T14:35:40:874
6,930000	-75,040001	-82,320000	2020-11-19T14:35:40:891
-0,420000	-70,139999	-73,360001	2020-11-19T14:35:40:914
-11,130000	-65,660004	-63,700001	2020-11-19T14:35:40:931
-24,290001	-60,270000	-53,340000	2020-11-19T14:35:40:954
-36,259998	-52,709999	-40,599998	2020-11-19T14:35:40:971
-44,590000	-44,099998	-24,570000	2020-11-19T14:35:40:994
-50,820000	-35,700001	-5,320000	2020-11-19T14:35:41:012
-57,820000	-28,210001	16,450001	2020-11-19T14:35:41:034
-63,910000	-19,110001	39,970001	2020-11-19T14:35:41:051
-65,870003	-7,560000	63,490002	2020-11-19T14:35:41:075
-62,580002	1,820000	87,779999	2020-11-19T14:35:41:091
-65,519997	10,710000	110,110001	2020-11-19T14:35:41:114
-72,239998	21,070000	127,400002	2020-11-19T14:35:41:131
-70,840004	30,940001	141,539993	2020-11-19T14:35:41:154
-64,610001	44,170002	151,899994	2020-11-19T14:35:41:172
-58,380001	56,209999	161,000000	2020-11-19T14:35:41:194
-50,610001	61,040001	164,779999	2020-11-19T14:35:41:211
-45,290001	56,770000	159,250000	2020-11-19T14:35:41:235
-44,799999	51,170002	154,000000	2020-11-19T14:35:41:252
-54,180000	47,389999	152,250000	2020-11-19T14:35:41:274
-71,610001	40,459999	149,240005	2020-11-19T14:35:41:291
-87,290001	31,710001	142,589996	2020-11-19T14:35:41:315
-101,500000	24,150000	136,360001	2020-11-19T14:35:41:332
-117,599998	16,450001	131,389999	2020-11-19T14:35:41:355
-132,720001	7,630000	124,180000	2020-11-19T14:35:41:371
-141,259995	1,400000	115,360001	2020-11-19T14:35:41:395
-145,389999	-1,470000	107,379997	2020-11-19T14:35:41:412
-149,729996	-2,310000	98,349998	2020-11-19T14:35:41:433
-151,899994	-1,190000	89,320000	2020-11-19T14:35:41:451
-149,380005	1,120000	80,080002	2020-11-19T14:35:41:477
-142,380005	3,500000	71,610001	2020-11-19T14:35:41:492
-133,490005	5,390000	63,279999	2020-11-19T14:35:41:514
-127,680000	6,300000	54,880001	2020-11-19T14:35:41:531
-127,959999	7,630000	46,619999	2020-11-19T14:35:41:555
-129,710007	10,920000	40,320000	2020-11-19T14:35:41:571
-126,279999	15,610000	35,209999	2020-11-19T14:35:41:594
-116,970001	19,740000	30,170000	2020-11-19T14:35:41:611
-105,559998	23,030001	24,290001	2020-11-19T14:35:41:635
-96,879997	26,809999	19,809999	2020-11-19T14:35:41:652
-86,099998	33,180000	17,500000	2020-11-19T14:35:41:675
-67,690002	38,430000	16,240000	2020-11-19T14:35:41:692
-45,849998	42,070000	12,950000	2020-11-19T14:35:41:715
-24,500000	45,150002	7,980000	2020-11-19T14:35:41:733
-4,760000	46,340000	3,010000	2020-11-19T14:35:41:755
17,570000	41,860001	-7,910000	2020-11-19T14:35:41:772
18,549999	30,799999	-16,660000	2020-11-19T14:35:41:796
18,410000	22,400000	-26,950001	2020-11-19T14:35:41:812
29,330000	10,640000	-39,970001	2020-11-19T14:35:41:835
45,290001	-2,590000	-57,260002	2020-11-19T14:35:41:852
59,150002	-14,420000	-76,090004	2020-11-19T14:35:41:876
69,230003	-25,549999	-92,820000	2020-11-19T14:35:41:892
78,540001	-37,590000	-106,050003	2020-11-19T14:35:41:915
90,650002	-49,980000	-114,309998	2020-11-19T14:35:41:932
99,470001	-62,090000	-114,730003	2020-11-19T14:35:41:955
100,449997	-73,849998	-109,830002	2020-11-19T14:35:41:973
88,059998	-86,940002	-106,050003	2020-11-19T14:35:41:995
65,169998	-98,910004	-102,760002	2020-11-19T14:35:42:012
36,330002	-106,120003	-102,550003	2020-11-19T14:35:42:035
7,420000	-108,360001	-103,949997	2020-11-19T14:35:42:051
-15,540000	-106,889999	-104,650002	2020-11-19T14:35:42:075
-29,820000	-102,550003	-104,510002	2020-11-19T14:35:42:092
-35,490002	-97,440002	-101,779999	2020-11-19T14:35:42:116
-32,619999	-91,489998	-95,059998	2020-11-19T14:35:42:132
-25,129999	-84,000000	-84,139999	2020-11-19T14:35:42:155
-16,870001	-76,580002	-70,489998	2020-11-19T14:35:42:172
-10,710000	-69,090004	-56,070000	2020-11-19T14:35:42:196
-12,180000	-62,439999	-42,139999	2020-11-19T14:35:42:213
-19,530001	-55,580002	-30,240000	2020-11-19T14:35:42:235
-26,880001	-47,180000	-19,740000	2020-11-19T14:35:42:252
-31,010000	-37,450001	-10,150000	2020-11-19T14:35:42:276
-32,270000	-26,320000	0,210000	2020-11-19T14:35:42:292
-29,540001	-14,700000	13,230000	2020-11-19T14:35:42:315
-23,870001	-3,710000	29,400000	2020-11-19T14:35:42:332
-21,139999	6,580000	48,790001	2020-11-19T14:35:42:355
-21,770000	17,150000	71,330002	2020-11-19T14:35:42:373
-23,940001	27,510000	97,860001	2020-11-19T14:35:42:395
-27,790001	35,630001	125,860001	2020-11-19T14:35:42:412
-32,480000	44,240002	152,110001	2020-11-19T14:35:42:436
-34,580002	60,830002	181,930008	2020-11-19T14:35:42:453
-33,040001	70,559998	204,050003	2020-11-19T14:35:42:475
-14,210000	73,919998	207,759995	2020-11-19T14:35:42:493
21,139999	75,320000	195,300003	2020-11-19T14:35:42:515
52,639999	75,669998	167,649994	2020-11-19T14:35:42:532
71,260002	74,970001	131,949997	2020-11-19T14:35:42:555
78,680000	73,010002	98,419998	2020-11-19T14:35:42:572
73,010002	70,000000	71,889999	2020-11-19T14:35:42:595
50,750000	66,220001	55,020000	2020-11-19T14:35:42:613
6,510000	58,310001	44,029999	2020-11-19T14:35:42:635
-45,990002	43,189999	36,049999	2020-11-19T14:35:42:652
-91,840004	24,920000	31,570000	2020-11-19T14:35:42:675
-129,570007	15,050000	30,380001	2020-11-19T14:35:42:693
-166,389999	9,730000	30,590000	2020-11-19T14:35:42:715
-195,720001	0,560000	30,590000	2020-11-19T14:35:42:733
-219,029999	-9,940000	31,150000	2020-11-19T14:35:42:755
-232,330002	-12,880000	35,209999	2020-11-19T14:35:42:773
-226,660004	-15,820000	41,439999	2020-11-19T14:35:42:795
-207,759995	-24,219999	45,220001	2020-11-19T14:35:42:813
-194,180008	-29,540001	45,639999	2020-11-19T14:35:42:835
-188,020004	-33,950001	44,240002	2020-11-19T14:35:42:853
-175,000000	-30,100000	43,189999	2020-11-19T14:35:42:876
-156,240005	-28,559999	36,959999	2020-11-19T14:35:42:893
-140,979996	-30,520000	27,020000	2020-11-19T14:35:42:915
-127,190002	-30,309999	16,379999	2020-11-19T14:35:42:934
-109,340004	-25,059999	7,560000	2020-11-19T14:35:42:955
-86,519997	-20,860001	-1,750000	2020-11-19T14:35:42:973
-68,529999	-19,740000	-12,880000	2020-11-19T14:35:42:995
-54,529999	-16,100000	-24,080000	2020-11-19T14:35:43:013
-41,860001	-8,400000	-29,330000	2020-11-19T14:35:43:036
-30,799999	-1,820000	-31,360001	2020-11-19T14:35:43:053
-17,639999	1,260000	-32,759998	2020-11-19T14:35:43:076
0,210000	-8,190000	-35,139999	2020-11-19T14:35:43:093
11,060000	-23,379999	-41,580002	2020-11-19T14:35:43:116
11,620000	-22,889999	-49,840000	2020-11-19T14:35:43:133
11,480000	-15,330000	-59,290001	2020-11-19T14:35:43:166
20,440001	-9,730000	-71,120003	2020-11-19T14:35:43:174
37,660000	-5,810000	-84,699997	2020-11-19T14:35:43:195
53,830002	-6,790000	-93,660004	2020-11-19T14:35:43:213
58,450001	-10,640000	-96,949997	2020-11-19T14:35:43:236
53,130001	-12,460000	-94,360001	2020-11-19T14:35:43:253
47,320000	-13,020000	-89,599998	2020-11-19T14:35:43:276
49,980000	-15,400000	-85,820000	2020-11-19T14:35:43:293
50,259998	-21,070000	-83,230003	2020-11-19T14:35:43:316
35,700001	-26,180000	-80,989998	2020-11-19T14:35:43:335
13,370000	-28,700001	-77,629997	2020-11-19T14:35:43:359
-5,880000	-32,549999	-74,480003	2020-11-19T14:35:43:375
-22,260000	-36,119999	-73,220001	2020-11-19T14:35:43:396
-39,549999	-36,610001	-76,300003	2020-11-19T14:35:43:414
-55,510002	-35,770000	-82,739998	2020-11-19T14:35:43:436
-67,059998	-32,619999	-90,300003	2020-11-19T14:35:43:453
-70,279999	-25,270000	-95,690002	2020-11-19T14:35:43:477
-56,279999	-16,100000	-96,459999	2020-11-19T14:35:43:493
-20,440001	-9,030000	-92,680000	2020-11-19T14:35:43:516
26,320000	5,530000	-86,099998	2020-11-19T14:35:43:533
71,959999	23,170000	-72,309998	2020-11-19T14:35:43:556
114,590004	32,340000	-59,709999	2020-11-19T14:35:43:574
151,410004	30,030001	-45,779999	2020-11-19T14:35:43:596
162,190002	22,610001	-29,960001	2020-11-19T14:35:43:613
142,660004	17,920000	-12,040000	2020-11-19T14:35:43:636
107,029999	19,530001	9,660000	2020-11-19T14:35:43:654
66,290001	24,710001	32,759998	2020-11-19T14:35:43:677
28,700001	31,219999	55,580002	2020-11-19T14:35:43:694
0,420000	34,930000	78,959999	2020-11-19T14:35:43:716
-25,900000	35,420002	101,919998	2020-11-19T14:35:43:733
-56,070000	38,009998	124,599998	2020-11-19T14:35:43:756
-86,870003	44,240002	146,930008	2020-11-19T14:35:43:774
-104,230003	45,430000	164,289993	2020-11-19T14:35:43:796
-110,180000	40,459999	174,160004	2020-11-19T14:35:43:814
-114,099998	36,750000	172,619995	2020-11-19T14:35:43:836
-113,959999	37,240002	162,119995	2020-11-19T14:35:43:854
-102,340004	39,689999	145,669998	2020-11-19T14:35:43:877
-78,820000	38,709999	126,139999	2020-11-19T14:35:43:895
-53,200001	36,820000	101,849998	2020-11-19T14:35:43:916
-26,809999	33,740002	59,920002	2020-11-19T14:35:43:934
-26,389999	30,590000	34,650002	2020-11-19T14:35:43:957
-44,450001	24,290001	13,160000	2020-11-19T14:35:43:974
-74,970001	16,590000	-1,890000	2020-11-19T14:35:43:997
-107,590004	11,830000	-8,610000	2020-11-19T14:35:44:014
-132,789993	11,690000	-10,710000	2020-11-19T14:35:44:037
-147,070007	13,580000	-10,080000	2020-11-19T14:35:44:054
-148,050003	15,190001	-5,180000	2020-11-19T14:35:44:077
-138,880005	16,730000	4,270000	2020-11-19T14:35:44:094
-123,620003	19,320000	17,850000	2020-11-19T14:35:44:117
-108,290001	21,980000	34,369999	2020-11-19T14:35:44:134
-95,199997	23,170000	51,170002	2020-11-19T14:35:44:157
-83,580002	25,410000	67,550003	2020-11-19T14:35:44:174
-74,620003	28,070000	81,340004	2020-11-19T14:35:44:197
-68,599998	29,469999	88,620003	2020-11-19T14:35:44:214
-62,930000	30,030001	91,629997	2020-11-19T14:35:44:237
-55,160000	32,410000	92,120003	2020-11-19T14:35:44:254
-49,000000	34,230000	90,860001	2020-11-19T14:35:44:277
-43,470001	32,340000	86,940002	2020-11-19T14:35:44:295
-36,400002	29,330000	81,129997	2020-11-19T14:35:44:317
-30,100000	23,870001	73,430000	2020-11-19T14:35:44:334
-28,280001	17,150000	60,410000	2020-11-19T14:35:44:357
-25,480000	11,410000	43,259998	2020-11-19T14:35:44:376
-19,809999	6,370000	24,080000	2020-11-19T14:35:44:397
-15,820000	0,980000	4,620000	2020-11-19T14:35:44:416
-16,799999	-8,120000	-13,720000	2020-11-19T14:35:44:437
-22,469999	-18,270000	-30,660000	2020-11-19T14:35:44:454
-27,719999	-29,750000	-46,830002	2020-11-19T14:35:44:477
-26,670000	-42,420002	-62,580002	2020-11-19T14:35:44:494
-21,840000	-53,830002	-78,330002	2020-11-19T14:35:44:517
-16,100000	-61,389999	-94,500000	2020-11-19T14:35:44:535
-5,320000	-64,820000	-108,430000	2020-11-19T14:35:44:556
12,040000	-66,779999	-120,260002	2020-11-19T14:35:44:575
27,090000	-72,379997	-130,830002	2020-11-19T14:35:44:597
30,940001	-79,379997	-140,350006	2020-11-19T14:35:44:615
21,559999	-84,489998	-148,680008	2020-11-19T14:35:44:637
4,970000	-87,220001	-156,520004	2020-11-19T14:35:44:654
-12,880000	-87,080002	-163,589996	2020-11-19T14:35:44:677
-26,320000	-83,930000	-169,399994	2020-11-19T14:35:44:694
-30,940001	-77,910004	-170,729996	2020-11-19T14:35:44:717
-22,820000	-70,699997	-167,160004	2020-11-19T14:35:44:735
-3,570000	-62,580002	-159,250000	2020-11-19T14:35:44:757
17,570000	-58,450001	-148,539993	2020-11-19T14:35:44:775
35,700001	-56,910000	-135,240005	2020-11-19T14:35:44:796
48,160000	-56,490002	-119,209999	2020-11-19T14:35:44:815
50,959999	-57,470001	-102,199997	2020-11-19T14:35:44:837
42,630001	-58,099998	-83,860001	2020-11-19T14:35:44:856
24,360001	-58,939999	-64,820000	2020-11-19T14:35:44:877
2,660000	-59,220001	-46,340000	2020-11-19T14:35:44:895
-14,210000	-61,250000	-29,260000	2020-11-19T14:35:44:917
-25,830000	-63,630001	-12,040000	2020-11-19T14:35:44:935
-37,660000	-65,449997	5,320000	2020-11-19T14:35:44:958
-52,080002	-66,220001	22,469999	2020-11-19T14:35:44:975
-67,760002	-65,940002	40,389999	2020-11-19T14:35:44:998
-86,519997	-61,950001	68,599998	2020-11-19T14:35:45:015
-93,309998	-54,250000	88,900002	2020-11-19T14:35:45:037
-94,220001	-48,230000	109,129997	2020-11-19T14:35:45:055
-89,250000	-40,880001	130,970001	2020-11-19T14:35:45:078
-81,830002	-32,970001	156,800003	2020-11-19T14:35:45:096
-80,010002	-30,309999	187,039993	2020-11-19T14:35:45:117
-87,290001	-27,790001	210,350006	2020-11-19T14:35:45:136
-97,650002	-18,830000	235,479996	2020-11-19T14:35:45:158
-117,739998	-9,590000	256,130005	2020-11-19T14:35:45:175
-152,320007	-6,720000	272,790009	2020-11-19T14:35:45:198
-186,550003	-4,620000	275,309998	2020-11-19T14:35:45:215
-201,600006	-0,700000	269,079987	2020-11-19T14:35:45:238
-197,539993	2,800000	261,170013	2020-11-19T14:35:45:255
-187,039993	-1,190000	248,149994	2020-11-19T14:35:45:278
-174,860001	-10,990000	229,740005	2020-11-19T14:35:45:295
-163,380005	-22,469999	206,639999	2020-11-19T14:35:45:318
-160,300003	-31,639999	178,990005	2020-11-19T14:35:45:336
-170,240005	-37,099998	149,380005	2020-11-19T14:35:45:357
-190,330002	-39,480000	121,029999	2020-11-19T14:35:45:376
-214,619995	-43,959999	93,940002	2020-11-19T14:35:45:398
-235,690002	-49,420002	68,739998	2020-11-19T14:35:45:415
-246,399994	-50,610001	50,680000	2020-11-19T14:35:45:438
-245,210007	-52,990002	38,990002	2020-11-19T14:35:45:455
-233,800003	-59,430000	29,820000	2020-11-19T14:35:45:478
-219,309998	-57,189999	24,290001	2020-11-19T14:35:45:496
-210,839996	-51,099998	22,260000	2020-11-19T14:35:45:518
-205,800003	-40,180000	19,460001	2020-11-19T14:35:45:535
-190,399994	-26,180000	13,440001	2020-11-19T14:35:45:558
-167,649994	-16,100000	6,090000	2020-11-19T14:35:45:576
-147,910004	-7,210000	-0,420000	2020-11-19T14:35:45:599
-138,180008	0,840000	-2,870000	2020-11-19T14:35:45:615
-138,180008	6,230000	-0,840000	2020-11-19T14:35:45:638
-136,220001	12,880000	4,690000	2020-11-19T14:35:45:655
-126,209999	20,790001	11,620000	2020-11-19T14:35:45:678
-111,090004	27,719999	17,990000	2020-11-19T14:35:45:695
-99,050003	32,759998	24,290001	2020-11-19T14:35:45:718
-94,500000	37,170002	31,850000	2020-11-19T14:35:45:736
-94,290001	44,240002	42,980000	2020-11-19T14:35:45:758
-92,190002	52,150002	56,490002	2020-11-19T14:35:45:776
-89,599998	59,639999	70,349998	2020-11-19T14:35:45:798
-78,540001	59,920002	82,949997	2020-11-19T14:35:45:817
-69,580002	51,310001	86,519997	2020-11-19T14:35:45:838
-81,620003	40,040001	86,449997	2020-11-19T14:35:45:856
-100,730003	33,740002	82,529999	2020-11-19T14:35:45:879
-97,510002	31,219999	78,400002	2020-11-19T14:35:45:896
-66,709999	26,250000	68,599998	2020-11-19T14:35:45:918
-25,830000	17,150000	52,290001	2020-11-19T14:35:45:936
16,450001	9,380000	35,700001	2020-11-19T14:35:45:958
48,509998	3,990000	19,389999	2020-11-19T14:35:45:976
65,029999	-0,350000	4,270000	2020-11-19T14:35:45:998
65,940002	-6,230000	-10,220000	2020-11-19T14:35:46:016
63,349998	-11,410000	-21,490000	2020-11-19T14:35:46:039
68,320000	-11,760000	-27,790001	2020-11-19T14:35:46:057
44,099998	-17,010000	-59,430000	2020-11-19T14:35:46:078
12,950000	-29,120001	-75,389999	2020-11-19T14:35:46:096
-13,860000	-27,719999	-83,300003	2020-11-19T14:35:46:119
-34,369999	-24,710001	-83,580002	2020-11-19T14:35:46:136
-28,980000	-22,190001	-86,029999	2020-11-19T14:35:46:159
0,070000	-20,370001	-90,650002	2020-11-19T14:35:46:176
25,690001	-17,500000	-97,370003	2020-11-19T14:35:46:199
42,490002	-12,040000	-103,320000	2020-11-19T14:35:46:216
62,299999	-8,400000	-105,769997	2020-11-19T14:35:46:239
87,919998	-9,660000	-108,639999	2020-11-19T14:35:46:256
107,730003	-10,360000	-112,770004	2020-11-19T14:35:46:279
117,669998	-14,700000	-118,090004	2020-11-19T14:35:46:297
110,320000	-19,670000	-123,340004	2020-11-19T14:35:46:319
89,669998	-22,540001	-126,139999	2020-11-19T14:35:46:336
69,930000	-22,820000	-124,459999	2020-11-19T14:35:46:360
51,939999	-23,100000	-120,400002	2020-11-19T14:35:46:376
33,810001	-20,930000	-113,959999	2020-11-19T14:35:46:398
17,920000	-18,270000	-103,599998	2020-11-19T14:35:46:416
-1,260000	-17,639999	-91,559998	2020-11-19T14:35:46:439
-21,210001	-13,090000	-77,419998	2020-11-19T14:35:46:457
-43,889999	-0,350000	-54,599998	2020-11-19T14:35:46:480
-73,570000	16,590000	-20,440001	2020-11-19T14:35:46:496
-91,769997	36,820000	15,050000	2020-11-19T14:35:46:520
-59,500000	61,180000	41,090000	2020-11-19T14:35:46:537
10,990000	75,180000	47,740002	2020-11-19T14:35:46:559
74,269997	73,919998	37,590000	2020-11-19T14:35:46:577
129,919998	66,570000	13,860000	2020-11-19T14:35:46:599
175,910004	55,790001	-8,470000	2020-11-19T14:35:46:616
196,000000	45,709999	-21,559999	2020-11-19T14:35:46:639
181,860001	36,820000	-24,710001	2020-11-19T14:35:46:656
138,669998	20,790001	-22,889999	2020-11-19T14:35:46:679
90,650002	2,590000	-21,280001	2020-11-19T14:35:46:697
42,770000	-11,270000	-19,809999	2020-11-19T14:35:46:719
-6,790000	-16,730000	-16,590000	2020-11-19T14:35:46:736
-41,090000	-15,400000	-11,830000	2020-11-19T14:35:46:759
-48,509998	-10,290000	-6,020000	2020-11-19T14:35:46:778
-34,439999	-3,010000	-0,140000	2020-11-19T14:35:46:799
-20,790001	4,690000	1,050000	2020-11-19T14:35:46:817
5,390000	11,410000	1,750000	2020-11-19T14:35:46:839
51,029999	18,129999	3,220000	2020-11-19T14:35:46:857
92,330002	24,639999	5,460000	2020-11-19T14:35:46:879
109,059998	29,960001	8,750000	2020-11-19T14:35:46:897
114,379997	36,820000	12,670000	2020-11-19T14:35:46:919
112,770004	42,000000	16,730000	2020-11-19T14:35:46:937
99,750000	45,080002	17,920000	2020-11-19T14:35:46:959
79,379997	47,320000	16,170000	2020-11-19T14:35:46:977
61,810001	51,380001	14,070000	2020-11-19T14:35:46:999
55,510002	54,810001	11,760000	2020-11-19T14:35:47:018
62,230000	52,360001	7,420000	2020-11-19T14:35:47:039
69,930000	53,130001	4,060000	2020-11-19T14:35:47:057
64,680000	58,869999	5,530000	2020-11-19T14:35:47:079
69,230003	60,270000	3,220000	2020-11-19T14:35:47:097
97,160004	60,689999	-0,490000	2020-11-19T14:35:47:119
113,330002	62,369999	-4,550000	2020-11-19T14:35:47:137
82,459999	58,590000	-16,170000	2020-11-19T14:35:47:159
69,580002	57,049999	-21,139999	2020-11-19T14:35:47:178
62,580002	51,590000	-26,040001	2020-11-19T14:35:47:199
41,790001	38,779999	-26,809999	2020-11-19T14:35:47:217
6,790000	26,180000	-25,270000	2020-11-19T14:35:47:239
-16,170000	16,309999	-24,219999	2020-11-19T14:35:47:258
-27,580000	7,490000	-26,880001	2020-11-19T14:35:47:281
-42,070000	7,140000	-33,740002	2020-11-19T14:35:47:299
-45,290001	9,310000	-38,570000	2020-11-19T14:35:47:321
-28,210001	8,680000	-39,130001	2020-11-19T14:35:47:337
-5,040000	10,080000	-39,689999	2020-11-19T14:35:47:361
11,130000	16,450001	-44,590000	2020-11-19T14:35:47:377
25,620001	26,670000	-54,320000	2020-11-19T14:35:47:400
48,160000	34,369999	-64,120003	2020-11-19T14:35:47:417
76,019997	38,570000	-66,639999	2020-11-19T14:35:47:440
94,360001	41,580002	-64,540001	2020-11-19T14:35:47:457
102,059998	43,259998	-58,939999	2020-11-19T14:35:47:481
110,529999	41,369999	-51,590000	2020-11-19T14:35:47:498
118,020004	35,560001	-42,770000	2020-11-19T14:35:47:520
117,180000	30,940001	-32,759998	2020-11-19T14:35:47:537
112,629997	28,210001	-22,820000	2020-11-19T14:35:47:560
111,230003	26,460001	-15,610000	2020-11-19T14:35:47:577
114,029999	25,200001	-11,410000	2020-11-19T14:35:47:600
115,709999	23,940001	-12,040000	2020-11-19T14:35:47:617
112,770004	18,480000	-17,010000	2020-11-19T14:35:47:640
101,430000	13,510000	-24,639999	2020-11-19T14:35:47:657
79,379997	10,990000	-30,660000	2020-11-19T14:35:47:680
52,150002	8,750000	-35,560001	2020-11-19T14:35:47:697
34,160000	5,460000	-40,250000	2020-11-19T14:35:47:720
29,820000	3,220000	-42,000000	2020-11-19T14:35:47:738
28,700001	2,170000	-39,549999	2020-11-19T14:35:47:760
17,219999	1,750000	-33,320000	2020-11-19T14:35:47:778
4,830000	1,680000	-21,980000	2020-11-19T14:35:47:800
2,240000	1,120000	-3,080000	2020-11-19T14:35:47:817
-0,420000	0,280000	16,170000	2020-11-19T14:35:47:840
-17,710001	1,610000	37,099998	2020-11-19T14:35:47:858
-46,900002	6,300000	62,160000	2020-11-19T14:35:47:881
-73,150002	5,040000	81,199997	2020-11-19T14:35:47:898
-89,739998	-10,640000	93,519997	2020-11-19T14:35:47:920
-101,430000	-22,680000	104,019997	2020-11-19T14:35:47:937
-113,190002	-25,270000	109,199997	2020-11-19T14:35:47:960
-124,809998	-29,960001	106,470001	2020-11-19T14:35:47:979
-127,889999	-35,000000	100,590004	2020-11-19T14:35:48:000
-120,050003	-38,779999	92,540001	2020-11-19T14:35:48:018
-107,099998	-40,740002	83,930000	2020-11-19T14:35:48:040
-95,410004	-40,529999	76,720001	2020-11-19T14:35:48:057
-88,760002	-39,200001	72,029999	2020-11-19T14:35:48:081
-86,590004	-39,830002	69,440002	2020-11-19T14:35:48:098
-90,370003	-37,310001	71,680000	2020-11-19T14:35:48:120
-102,690002	-33,320000	80,989998	2020-11-19T14:35:48:138
-125,650002	-31,010000	95,690002	2020-11-19T14:35:48:160
-152,600006	-29,680000	113,190002	2020-11-19T14:35:48:178
-176,750000	-27,090000	131,110001	2020-11-19T14:35:48:200
-192,570007	-20,790001	148,889999	2020-11-19T14:35:48:219
-187,740005	-10,780000	169,050003	2020-11-19T14:35:48:240
-162,259995	-5,530000	175,979996	2020-11-19T14:35:48:258
-129,639999	-1,260000	177,449997	2020-11-19T14:35:48:281
-99,680000	5,880000	174,720001	2020-11-19T14:35:48:297
-73,500000	14,980000	168,770004	2020-11-19T14:35:48:320
-50,400002	24,360001	159,880005	2020-11-19T14:35:48:338
-33,110001	28,559999	145,460007	2020-11-19T14:35:48:360
-28,210001	29,540001	128,589996	2020-11-19T14:35:48:380
-34,160000	29,750000	109,690002	2020-11-19T14:35:48:400
-35,630001	33,810001	90,440002	2020-11-19T14:35:48:417
-23,730000	40,810001	69,090004	2020-11-19T14:35:48:441
-4,830000	43,889999	45,150002	2020-11-19T14:35:48:460
13,790000	32,900002	19,250000	2020-11-19T14:35:48:482
30,309999	18,340000	-8,890000	2020-11-19T14:35:48:498
47,810001	12,810000	-42,139999	2020-11-19T14:35:48:521
73,639999	19,740000	-78,610001	2020-11-19T14:35:48:538
106,050003	21,770000	-107,449997	2020-11-19T14:35:48:561
135,940002	13,510000	-130,550003	2020-11-19T14:35:48:579
156,240005	2,450000	-147,910004	2020-11-19T14:35:48:601
166,669998	-7,630000	-157,360001	2020-11-19T14:35:48:619
174,369995	-18,270000	-162,330002	2020-11-19T14:35:48:641
185,149994	-28,559999	-166,320007	2020-11-19T14:35:48:658
195,580002	-38,570000	-172,270004	2020-11-19T14:35:48:682
196,279999	-50,189999	-177,800003	2020-11-19T14:35:48:700
182,490005	-60,480000	-179,619995	2020-11-19T14:35:48:721
159,529999	-67,410004	-178,149994	2020-11-19T14:35:48:738
134,330002	-71,260002	-173,600006	2020-11-19T14:35:48:761
108,570000	-72,519997	-164,850006	2020-11-19T14:35:48:779
82,599998	-72,169998	-153,369995	2020-11-19T14:35:48:801
58,380001	-70,209999	-141,680008	2020-11-19T14:35:48:818
43,119999	-66,080002	-129,639999	2020-11-19T14:35:48:841
36,540001	-61,740002	-119,070000	2020-11-19T14:35:48:859
34,020000	-56,560001	-109,970001	2020-11-19T14:35:48:882
33,810001	-49,630001	-100,870003	2020-11-19T14:35:48:898
34,860001	-41,439999	-90,720001	2020-11-19T14:35:48:922
37,310001	-33,880001	-79,800003	2020-11-19T14:35:48:940
39,830002	-26,809999	-68,949997	2020-11-19T14:35:48:962
38,290001	-18,270000	-58,380001	2020-11-19T14:35:48:979
31,360001	-7,420000	-48,230000	2020-11-19T14:35:49:002
19,530001	4,970000	-37,099998	2020-11-19T14:35:49:019
2,380000	16,240000	-24,219999	2020-11-19T14:35:49:042
-17,219999	25,480000	-11,410000	2020-11-19T14:35:49:059
-41,160000	35,840000	8,610000	2020-11-19T14:35:49:082
-67,480003	49,770000	24,080000	2020-11-19T14:35:49:099
-70,139999	64,680000	36,959999	2020-11-19T14:35:49:122
-39,410000	78,190002	49,910000	2020-11-19T14:35:49:139
6,580000	85,190002	57,680000	2020-11-19T14:35:49:162
50,049999	84,000000	56,770000	2020-11-19T14:35:49:180
93,590004	83,440002	52,990002	2020-11-19T14:35:49:202
128,169998	88,269997	47,529999	2020-11-19T14:35:49:219
152,110001	84,349998	38,570000	2020-11-19T14:35:49:242
156,729996	70,980003	22,190001	2020-11-19T14:35:49:259
134,889999	66,500000	4,060000	2020-11-19T14:35:49:282
97,650002	64,750000	-11,550000	2020-11-19T14:35:49:299
63,279999	59,990002	-25,830000	2020-11-19T14:35:49:322
56,560001	55,299999	-33,880001	2020-11-19T14:35:49:339
62,790001	50,750000	-40,670002	2020-11-19T14:35:49:362
78,400002	47,670002	-47,880001	2020-11-19T14:35:49:380
83,160004	43,889999	-53,130001	2020-11-19T14:35:49:402
74,129997	40,599998	-56,630001	2020-11-19T14:35:49:420
56,420002	41,720001	-56,420002	2020-11-19T14:35:49:442
37,099998	47,110001	-50,540001	2020-11-19T14:35:49:459
21,139999	50,540001	-42,139999	2020-11-19T14:35:49:482
13,300000	52,990002	-35,279999	2020-11-19T14:35:49:499
13,580000	57,330002	-27,440001	2020-11-19T14:35:49:522
19,180000	62,230000	-22,190001	2020-11-19T14:35:49:539
33,670002	66,430000	-20,510000	2020-11-19T14:35:49:562
54,880001	72,169998	-20,580000	2020-11-19T14:35:49:580
77,419998	78,820000	-22,190001	2020-11-19T14:35:49:602
97,580002	85,889999	-24,920000	2020-11-19T14:35:49:619
115,639999	93,169998	-28,980000	2020-11-19T14:35:49:643
130,199997	97,790001	-30,730000	2020-11-19T14:35:49:660
130,970001	100,660004	-23,590000	2020-11-19T14:35:49:682
125,090004	91,000000	-7,770000	2020-11-19T14:35:49:699
123,970001	61,180000	6,230000	2020-11-19T14:35:49:722
122,500000	39,480000	18,900000	2020-11-19T14:35:49:739
108,500000	32,410000	16,450001	2020-11-19T14:35:49:762
100,239998	28,910000	-1,960000	2020-11-19T14:35:49:780
102,480003	28,490000	-28,490000	2020-11-19T14:35:49:802
87,639999	26,530001	-50,959999	2020-11-19T14:35:49:820
43,680000	14,000000	-73,010002	2020-11-19T14:35:49:842
6,370000	-0,630000	-94,150002	2020-11-19T14:35:49:860
15,540000	-5,250000	-117,809998	2020-11-19T14:35:49:883
98,070000	-2,590000	-127,470001	2020-11-19T14:35:49:900
201,250000	-2,800000	-137,550003	2020-11-19T14:35:49:922
257,250000	-3,220000	-150,430008	2020-11-19T14:35:49:940
248,149994	10,780000	-160,860001	2020-11-19T14:35:49:962
235,690002	39,830002	-154,839996	2020-11-19T14:35:49:980
238,419998	69,510002	-150,500000	2020-11-19T14:35:50:003
268,869995	77,559998	-139,160004	2020-11-19T14:35:50:020
290,570007	61,180000	-130,059998	2020-11-19T14:35:50:043
132,720001	-50,889999	-188,860001	2020-11-19T14:35:50:060
103,459999	-71,050003	-113,820000	2020-11-19T14:35:50:083
25,549999	-55,650002	-115,010002	2020-11-19T14:35:50:100
-63,209999	-9,240000	-128,309998	2020-11-19T14:35:50:123
24,150000	8,050000	-150,289993	2020-11-19T14:35:50:141
99,330002	16,940001	-119,910004	2020-11-19T14:35:50:162
32,759998	14,350000	-113,889999	2020-11-19T14:35:50:181
-3,780000	13,020000	-118,720001	2020-11-19T14:35:50:204
22,260000	4,900000	-120,750000	2020-11-19T14:35:50:220
55,230000	-10,850000	-106,820000	2020-11-19T14:35:50:250
38,430000	-21,139999	-105,699997	2020-11-19T14:35:50:260
45,570000	-26,600000	-98,559998	2020-11-19T14:35:50:283
50,119999	-33,880001	-90,300003	2020-11-19T14:35:50:300
39,689999	-46,130001	-82,110001	2020-11-19T14:35:50:323
31,920000	-59,080002	-71,680000	2020-11-19T14:35:50:340
28,980000	-69,019997	-58,450001	2020-11-19T14:35:50:363
39,130001	-70,349998	-36,189999	2020-11-19T14:35:50:381
69,019997	-65,730003	-13,510000	2020-11-19T14:35:50:403
80,430000	-60,900002	9,520000	2020-11-19T14:35:50:420
73,010002	-56,279999	28,980000	2020-11-19T14:35:50:443
56,910000	-49,770000	46,340000	2020-11-19T14:35:50:460
47,880001	-39,270000	59,570000	2020-11-19T14:35:50:483
49,840000	-28,350000	67,199997	2020-11-19T14:35:50:500
44,799999	-24,710001	69,720001	2020-11-19T14:35:50:523
39,689999	-24,500000	68,389999	2020-11-19T14:35:50:540
40,810001	-21,210001	66,430000	2020-11-19T14:35:50:562
42,070000	-19,740000	64,750000	2020-11-19T14:35:50:582
44,380001	-29,120001	57,750000	2020-11-19T14:35:50:606
14,490000	-37,099998	38,920002	2020-11-19T14:35:50:621
3,640000	-42,420002	14,210000	2020-11-19T14:35:50:643
46,480000	-40,950001	0,280000	2020-11-19T14:35:50:660
75,669998	-34,650002	-7,980000	2020-11-19T14:35:50:684
72,940002	-32,830002	-9,870000	2020-11-19T14:35:50:700
55,299999	-31,010000	-10,150000	2020-11-19T14:35:50:723
18,900000	-29,540001	-7,840000	2020-11-19T14:35:50:740
-16,730000	-30,450001	-4,830000	2020-11-19T14:35:50:763
-34,369999	-34,720001	-0,700000	2020-11-19T14:35:50:781
-35,910000	-38,779999	0,490000	2020-11-19T14:35:50:803
-22,820000	-43,119999	-0,700000	2020-11-19T14:35:50:820
-14,000000	-46,270000	-2,590000	2020-11-19T14:35:50:844
-12,670000	-52,920002	-5,040000	2020-11-19T14:35:50:862
-14,560000	-57,470001	-11,970000	2020-11-19T14:35:50:884
-22,540001	-60,549999	-22,190001	2020-11-19T14:35:50:901
-28,840000	-63,630001	-32,410000	2020-11-19T14:35:50:923
-38,920002	-61,250000	-42,980000	2020-11-19T14:35:50:942
-54,599998	-55,160000	-46,759998	2020-11-19T14:35:50:963
-73,570000	-45,639999	-41,230000	2020-11-19T14:35:50:981
-98,840004	-34,509998	-27,440001	2020-11-19T14:35:51:004
-112,840004	-27,790001	-6,370000	2020-11-19T14:35:51:022
-124,110001	-23,379999	9,520000	2020-11-19T14:35:51:043
-135,240005	-16,730000	21,000000	2020-11-19T14:35:51:061
-129,289993	-9,800000	23,309999	2020-11-19T14:35:51:084
-81,690002	1,050000	26,110001	2020-11-19T14:35:51:102
-13,720000	12,530000	21,139999	2020-11-19T14:35:51:123
48,090000	21,770000	13,440001	2020-11-19T14:35:51:141
80,639999	25,129999	3,010000	2020-11-19T14:35:51:164
98,559998	25,200001	-2,030000	2020-11-19T14:35:51:181
107,660004	27,719999	-0,420000	2020-11-19T14:35:51:204
90,370003	28,280001	0,140000	2020-11-19T14:35:51:221
66,360001	29,469999	0,140000	2020-11-19T14:35:51:245
61,529999	33,599998	-4,340000	2020-11-19T14:35:51:261
74,900002	36,820000	-8,540000	2020-11-19T14:35:51:284
92,820000	37,799999	-10,920000	2020-11-19T14:35:51:301
98,629997	45,220001	-12,950000	2020-11-19T14:35:51:324
84,980003	46,340000	-14,000000	2020-11-19T14:35:51:342
55,790001	41,580002	-13,300000	2020-11-19T14:35:51:365
28,420000	35,070000	-13,090000	2020-11-19T14:35:51:382
6,930000	29,750000	-12,390000	2020-11-19T14:35:51:404
-9,170000	23,590000	-14,070000	2020-11-19T14:35:51:421
-14,560000	17,500000	-16,590000	2020-11-19T14:35:51:444
-0,700000	15,260000	-22,610001	2020-11-19T14:35:51:461
9,170000	16,520000	-29,260000	2020-11-19T14:35:51:484
10,640000	17,290001	-34,509998	2020-11-19T14:35:51:501
4,130000	16,520000	-31,990000	2020-11-19T14:35:51:524
-22,400000	12,110000	-26,670000	2020-11-19T14:35:51:541
-60,130001	3,780000	-22,610001	2020-11-19T14:35:51:564
-86,239998	-2,520000	-15,050000	2020-11-19T14:35:51:583
-83,930000	-12,320000	-5,110000	2020-11-19T14:35:51:604
-68,879997	-19,879999	-1,330000	2020-11-19T14:35:51:621
-56,980000	-20,580000	3,570000	2020-11-19T14:35:51:644
-57,260002	-18,900000	7,700000	2020-11-19T14:35:51:661
-62,930000	-15,260000	14,490000	2020-11-19T14:35:51:684
-74,269997	-9,520000	24,150000	2020-11-19T14:35:51:702
-100,379997	-6,580000	35,910000	2020-11-19T14:35:51:724
-113,120003	-10,290000	46,619999	2020-11-19T14:35:51:742
-105,000000	-15,680000	53,480000	2020-11-19T14:35:51:764
-94,080002	-15,400000	50,820000	2020-11-19T14:35:51:782
-80,080002	-9,170000	43,189999	2020-11-19T14:35:51:805
-46,830002	1,400000	37,799999	2020-11-19T14:35:51:823
-12,320000	15,400000	31,219999	2020-11-19T14:35:51:845
6,440000	20,930000	23,309999	2020-11-19T14:35:51:862
26,530001	23,799999	16,100000	2020-11-19T14:35:51:885
23,170000	29,610001	12,460000	2020-11-19T14:35:51:901
12,390000	34,790001	7,000000	2020-11-19T14:35:51:925
12,600000	43,400002	1,190000	2020-11-19T14:35:51:941
18,760000	48,509998	-0,350000	2020-11-19T14:35:51:964
25,480000	45,990002	1,890000	2020-11-19T14:35:51:982
13,160000	39,480000	4,060000	2020-11-19T14:35:52:005
-11,830000	40,110001	0,070000	2020-11-19T14:35:52:021
-44,029999	46,410000	8,610000	2020-11-19T14:35:52:045
-52,080002	50,820000	25,900000	2020-11-19T14:35:52:063
-33,389999	53,270000	34,930000	2020-11-19T14:35:52:085
-13,930000	51,520000	51,660000	2020-11-19T14:35:52:103
-45,080002	54,110001	63,209999	2020-11-19T14:35:52:125
-68,389999	59,920002	64,959999	2020-11-19T14:35:52:142
-37,799999	64,260002	63,980000	2020-11-19T14:35:52:165
-15,680000	65,800003	67,550003	2020-11-19T14:35:52:183
-45,360001	70,139999	72,660004	2020-11-19T14:35:52:205
-65,309998	77,000000	76,790001	2020-11-19T14:35:52:222
-52,500000	74,900002	69,019997	2020-11-19T14:35:52:244
-47,180000	71,610001	47,670002	2020-11-19T14:35:52:261
-32,410000	78,330002	33,110001	2020-11-19T14:35:52:285
-28,210001	75,389999	42,490002	2020-11-19T14:35:52:302
-52,990002	63,070000	57,260002	2020-11-19T14:35:52:325
-68,739998	50,049999	65,660004	2020-11-19T14:35:52:343
-50,119999	41,090000	70,000000	2020-11-19T14:35:52:365
-46,200001	40,880001	72,940002	2020-11-19T14:35:52:382
-46,970001	40,389999	76,930000	2020-11-19T14:35:52:405
-61,389999	36,889999	82,529999	2020-11-19T14:35:52:422
-64,959999	38,849998	86,169998	2020-11-19T14:35:52:445
-41,160000	43,680000	90,230003	2020-11-19T14:35:52:463
-25,200001	49,279999	89,669998	2020-11-19T14:35:52:485
-17,010000	50,680000	89,110001	2020-11-19T14:35:52:503
-10,990000	51,520000	91,000000	2020-11-19T14:35:52:525
-8,470000	56,420002	97,510002	2020-11-19T14:35:52:543
-5,880000	54,389999	103,529999	2020-11-19T14:35:52:565
-5,740000	51,099998	107,870003	2020-11-19T14:35:52:582
-14,070000	43,750000	109,129997	2020-11-19T14:35:52:605
-17,990000	38,080002	109,199997	2020-11-19T14:35:52:622
-18,900000	36,330002	101,639999	2020-11-19T14:35:52:645
-19,809999	35,840000	89,879997	2020-11-19T14:35:52:662
0,700000	33,599998	78,680000	2020-11-19T14:35:52:685
-17,500000	31,219999	61,880001	2020-11-19T14:35:52:703
-31,430000	21,210001	43,119999	2020-11-19T14:35:52:725
-23,030001	16,590000	32,759998	2020-11-19T14:35:52:742
-19,110001	18,340000	14,000000	2020-11-19T14:35:52:765
-32,689999	9,310000	-13,440001	2020-11-19T14:35:52:784
-15,120000	1,050000	-37,380001	2020-11-19T14:35:52:805
14,350000	-5,180000	-59,360001	2020-11-19T14:35:52:822
34,020000	-13,370000	-75,949997	2020-11-19T14:35:52:845
33,599998	-21,980000	-88,550003	2020-11-19T14:35:52:863
17,080000	-32,480000	-97,370003	2020-11-19T14:35:52:886
8,610000	-38,290001	-96,949997	2020-11-19T14:35:52:902
-1,680000	-41,930000	-86,099998	2020-11-19T14:35:52:925
-14,210000	-48,160000	-75,459999	2020-11-19T14:35:52:943
-15,680000	-52,360001	-64,260002	2020-11-19T14:35:52:965
0,210000	-51,939999	-51,240002	2020-11-19T14:35:52:983
26,180000	-47,950001	-33,320000	2020-11-19T14:35:53:006
47,180000	-44,099998	-13,580000	2020-11-19T14:35:53:023
49,700001	-42,490002	4,340000	2020-11-19T14:35:53:045
35,700001	-38,150002	18,480000	2020-11-19T14:35:53:063
14,280000	-34,299999	36,119999	2020-11-19T14:35:53:086
-12,250000	-32,130001	50,540001	2020-11-19T14:35:53:103
-41,790001	-29,820000	55,720001	2020-11-19T14:35:53:126
-59,639999	-29,540001	53,830002	2020-11-19T14:35:53:143
-63,980000	-28,000000	47,110001	2020-11-19T14:35:53:165
-55,439999	-24,920000	37,660000	2020-11-19T14:35:53:186
-37,730000	-26,180000	32,270000	2020-11-19T14:35:53:206
-20,160000	-26,880001	29,610001	2020-11-19T14:35:53:223
-7,980000	-24,639999	30,590000	2020-11-19T14:35:53:246
-7,140000	-22,469999	33,459999	2020-11-19T14:35:53:263
-16,170000	-21,629999	37,730000	2020-11-19T14:35:53:286
-27,510000	-23,450001	41,090000	2020-11-19T14:35:53:303
-38,849998	-25,830000	42,490002	2020-11-19T14:35:53:326
-50,400002	-27,299999	40,810001	2020-11-19T14:35:53:343
-60,270000	-26,670000	34,509998	2020-11-19T14:35:53:366
-64,330002	-23,590000	25,830000	2020-11-19T14:35:53:384
-66,430000	-19,250000	17,010000	2020-11-19T14:35:53:406
-67,620003	-15,820000	7,910000	2020-11-19T14:35:53:423
-64,470001	-12,600000	0,840000	2020-11-19T14:35:53:446
-52,639999	-8,890000	-0,840000	2020-11-19T14:35:53:463
-38,709999	-5,880000	0,070000	2020-11-19T14:35:53:486
-27,510000	-3,710000	1,190000	2020-11-19T14:35:53:504
-16,940001	-2,100000	3,360000	2020-11-19T14:35:53:526
-7,630000	-0,420000	7,070000	2020-11-19T14:35:53:543
-1,890000	1,540000	12,390000	2020-11-19T14:35:53:566
-1,190000	2,730000	18,620001	2020-11-19T14:35:53:583
-4,970000	3,640000	25,620001	2020-11-19T14:35:53:606
-19,320000	5,880000	38,639999	2020-11-19T14:35:53:623
-33,670002	5,040000	46,689999	2020-11-19T14:35:53:646
-47,670002	6,020000	54,250000	2020-11-19T14:35:53:663
-58,799999	9,170000	62,299999	2020-11-19T14:35:53:686
-67,199997	13,440001	70,279999	2020-11-19T14:35:53:704
-72,660004	17,850000	78,820000	2020-11-19T14:35:53:726
-76,230003	19,879999	87,919998	2020-11-19T14:35:53:744
-77,699997	21,070000	98,349998	2020-11-19T14:35:53:766
-75,949997	23,240000	110,040001	2020-11-19T14:35:53:784
-69,230003	27,230000	121,309998	2020-11-19T14:35:53:806
-59,639999	25,900000	128,240005	2020-11-19T14:35:53:823
-49,770000	19,530001	127,120003	2020-11-19T14:35:53:847
-41,439999	14,490000	117,879997	2020-11-19T14:35:53:864
-32,480000	9,100000	102,129997	2020-11-19T14:35:53:887
-23,450001	4,690000	83,230003	2020-11-19T14:35:53:904
-17,990000	1,540000	64,400002	2020-11-19T14:35:53:926
-22,750000	-5,600000	46,900002	2020-11-19T14:35:53:943
-38,500000	-16,379999	30,799999	2020-11-19T14:35:53:966
-60,200001	-25,340000	17,150000	2020-11-19T14:35:53:985
-84,910004	-32,619999	5,250000	2020-11-19T14:35:54:006
-111,580002	-38,220001	-3,080000	2020-11-19T14:35:54:024
-138,460007	-40,459999	-9,800000	2020-11-19T14:35:54:047
-162,050003	-39,480000	-15,050000	2020-11-19T14:35:54:063
-175,279999	-34,439999	-18,620001	2020-11-19T14:35:54:087
-174,369995	-28,139999	-20,020000	2020-11-19T14:35:54:104
-164,710007	-22,120001	-19,670000	2020-11-19T14:35:54:127
-149,869995	-15,260000	-16,730000	2020-11-19T14:35:54:144
-129,220001	-6,020000	-10,990000	2020-11-19T14:35:54:167
-98,910004	7,070000	-3,080000	2020-11-19T14:35:54:185
-59,570000	20,580000	4,690000	2020-11-19T14:35:54:207
-22,960001	31,639999	11,480000	2020-11-19T14:35:54:225
4,900000	39,970001	16,870001	2020-11-19T14:35:54:246
26,740000	45,990002	21,350000	2020-11-19T14:35:54:264
45,920002	51,310001	24,570000	2020-11-19T14:35:54:287
60,200001	56,070000	27,090000	2020-11-19T14:35:54:304
68,739998	59,010002	29,610001	2020-11-19T14:35:54:327
73,570000	57,680000	32,060001	2020-11-19T14:35:54:344
76,510002	54,110001	33,810001	2020-11-19T14:35:54:367
75,529999	50,189999	35,630001	2020-11-19T14:35:54:385
71,680000	47,599998	37,029999	2020-11-19T14:35:54:406
68,389999	41,439999	37,170002	2020-11-19T14:35:54:424
67,199997	26,950001	31,850000	2020-11-19T14:35:54:447
70,840004	11,900000	22,400000	2020-11-19T14:35:54:465
80,919998	0,980000	10,220000	2020-11-19T14:35:54:497
93,590004	-11,480000	-5,110000	2020-11-19T14:35:54:504
107,870003	-19,950001	-21,910000	2020-11-19T14:35:54:527
125,440002	-23,309999	-35,209999	2020-11-19T14:35:54:544
141,050003	-33,670002	-44,170002	2020-11-19T14:35:54:567
146,720001	-49,560001	-51,450001	2020-11-19T14:35:54:584
139,649994	-65,449997	-57,260002	2020-11-19T14:35:54:607
120,400002	-78,050003	-64,820000	2020-11-19T14:35:54:624
93,800003	-84,910004	-76,510002	2020-11-19T14:35:54:646
64,680000	-90,370003	-91,489998	2020-11-19T14:35:54:664
34,439999	-93,169998	-118,230003	2020-11-19T14:35:54:688
-1,960000	-90,790001	-132,440002	2020-11-19T14:35:54:704
-15,610000	-85,959999	-142,520004	2020-11-19T14:35:54:727
-14,070000	-79,239998	-144,550003	2020-11-19T14:35:54:745
-1,960000	-72,309998	-140,490005	2020-11-19T14:35:54:766
12,740000	-66,010002	-131,949997	2020-11-19T14:35:54:785
26,040001	-58,099998	-122,220001	2020-11-19T14:35:54:807
42,490002	-51,799999	-104,790001	2020-11-19T14:35:54:824
55,930000	-45,080002	-86,800003	2020-11-19T14:35:54:848
55,720001	-39,759998	-69,440002	2020-11-19T14:35:54:865
43,470001	-35,840000	-53,900002	2020-11-19T14:35:54:888
26,460001	-33,389999	-39,689999	2020-11-19T14:35:54:905
6,790000	-28,280001	-26,180000	2020-11-19T14:35:54:928
-13,580000	-19,180000	-12,320000	2020-11-19T14:35:54:946
-27,790001	-7,630000	3,640000	2020-11-19T14:35:54:967
-32,619999	4,620000	19,250000	2020-11-19T14:35:54:985
-30,520000	17,500000	33,110001	2020-11-19T14:35:55:008
-24,360001	32,410000	48,509998	2020-11-19T14:35:55:025
-16,240000	47,529999	67,129997	2020-11-19T14:35:55:048
-6,230000	59,290001	87,290001	2020-11-19T14:35:55:065
6,230000	70,559998	108,570000	2020-11-19T14:35:55:088
18,129999	81,059998	127,680000	2020-11-19T14:35:55:105
24,219999	92,190002	139,789993	2020-11-19T14:35:55:128
29,680000	101,150002	145,669998	2020-11-19T14:35:55:145
38,220001	104,930000	143,289993	2020-11-19T14:35:55:168
49,209999	107,940002	132,649994	2020-11-19T14:35:55:186
64,400002	108,360001	115,849998	2020-11-19T14:35:55:207
83,580002	103,040001	96,250000	2020-11-19T14:35:55:226
100,730003	93,590004	74,269997	2020-11-19T14:35:55:248
110,669998	83,580002	55,299999	2020-11-19T14:35:55:265
112,980003	73,080002	40,389999	2020-11-19T14:35:55:288
109,550003	61,740002	27,719999	2020-11-19T14:35:55:305
90,300003	49,560001	16,450001	2020-11-19T14:35:55:328
44,240002	39,060001	6,230000	2020-11-19T14:35:55:346
-11,760000	29,330000	2,030000	2020-11-19T14:35:55:368
-64,540001	19,250000	0,630000	2020-11-19T14:35:55:385
-111,020004	10,780000	-1,120000	2020-11-19T14:35:55:408
-146,020004	6,650000	-4,130000	2020-11-19T14:35:55:426
-161,419998	4,970000	-8,540000	2020-11-19T14:35:55:448
-151,830002	5,390000	-12,250000	2020-11-19T14:35:55:465
-121,449997	6,440000	-14,910000	2020-11-19T14:35:55:489
-80,500000	5,810000	-17,570000	2020-11-19T14:35:55:505
-38,009998	5,110000	-21,770000	2020-11-19T14:35:55:529
-0,840000	5,950000	-25,340000	2020-11-19T14:35:55:545
27,370001	6,510000	-28,630001	2020-11-19T14:35:55:568
46,830002	8,120000	-30,450001	2020-11-19T14:35:55:586
57,119999	10,430000	-30,590000	2020-11-19T14:35:55:610
59,990002	9,520000	-28,630001	2020-11-19T14:35:55:625
59,709999	8,400000	-24,500000	2020-11-19T14:35:55:649
56,770000	9,310000	-18,690001	2020-11-19T14:35:55:667
51,799999	10,570000	-11,830000	2020-11-19T14:35:55:689
46,830002	7,770000	-5,180000	2020-11-19T14:35:55:705
44,029999	5,880000	1,610000	2020-11-19T14:35:55:728
45,849998	2,800000	5,040000	2020-11-19T14:35:55:746
49,700001	-2,940000	-2,730000	2020-11-19T14:35:55:769
58,170002	-14,700000	-12,390000	2020-11-19T14:35:55:786
71,959999	-19,320000	-25,200001	2020-11-19T14:35:55:809
93,239998	-18,620001	-35,770000	2020-11-19T14:35:55:826
116,059998	-25,270000	-43,680000	2020-11-19T14:35:55:850
131,740005	-38,220001	-50,330002	2020-11-19T14:35:55:866
134,399994	-48,439999	-55,439999	2020-11-19T14:35:55:890
120,470001	-55,090000	-63,070000	2020-11-19T14:35:55:907
94,570000	-57,820000	-74,410004	2020-11-19T14:35:55:930
67,129997	-58,590000	-89,879997	2020-11-19T14:35:55:946
39,200001	-58,869999	-104,790001	2020-11-19T14:35:55:969
10,500000	-56,980000	-115,360001	2020-11-19T14:35:55:986
-12,600000	-53,200001	-121,800003	2020-11-19T14:35:56:010
-23,799999	-47,599998	-122,290001	2020-11-19T14:35:56:026
-28,559999	-35,420002	-114,520004	2020-11-19T14:35:56:049
-29,610001	-27,510000	-103,320000	2020-11-19T14:35:56:066
-20,719999	-20,930000	-89,739998	2020-11-19T14:35:56:090
-0,210000	-14,910000	-72,730003	2020-11-19T14:35:56:106
18,690001	-9,030000	-54,950001	2020-11-19T14:35:56:129
28,000000	-3,710000	-41,090000	2020-11-19T14:35:56:147
34,439999	-3,710000	-31,010000	2020-11-19T14:35:56:170
35,139999	3,710000	-23,030001	2020-11-19T14:35:56:187
27,719999	8,330000	-14,210000	2020-11-19T14:35:56:209
16,170000	14,560000	-3,220000	2020-11-19T14:35:56:226
8,260000	21,490000	9,030000	2020-11-19T14:35:56:250
5,460000	28,490000	22,049999	2020-11-19T14:35:56:266
4,830000	36,400002	36,259998	2020-11-19T14:35:56:289
7,350000	45,080002	52,220001	2020-11-19T14:35:56:306
12,040000	51,939999	67,970001	2020-11-19T14:35:56:330
17,500000	55,230000	81,199997	2020-11-19T14:35:56:346
22,330000	59,290001	93,169998	2020-11-19T14:35:56:370
27,090000	65,660004	107,099998	2020-11-19T14:35:56:387
35,420002	71,889999	117,879997	2020-11-19T14:35:56:411
51,310001	66,220001	117,250000	2020-11-19T14:35:56:427
67,620003	56,349998	107,169998	2020-11-19T14:35:56:449
76,230003	52,220001	92,470001	2020-11-19T14:35:56:466
31,639999	42,139999	74,690002	2020-11-19T14:35:56:491
-15,960000	9,380000	43,820000	2020-11-19T14:35:56:506
-135,520004	-27,299999	9,800000	2020-11-19T14:35:56:529
-198,380005	-37,730000	-11,970000	2020-11-19T14:35:56:547
-173,880005	-44,520000	-20,719999	2020-11-19T14:35:56:572
-118,300003	-43,540001	-38,709999	2020-11-19T14:35:56:586
-89,459999	-49,560001	-60,830002	2020-11-19T14:35:56:609
-103,529999	-56,630001	-69,790001	2020-11-19T14:35:56:627
-130,270004	-63,980000	-69,440002	2020-11-19T14:35:56:650
-147,070007	-64,610001	-63,910000	2020-11-19T14:35:56:666
-150,779999	-67,480003	-53,619999	2020-11-19T14:35:56:690
-147,210007	-75,040001	-43,680000	2020-11-19T14:35:56:705
-145,669998	-83,019997	-33,459999	2020-11-19T14:35:56:731
-152,250000	-89,040001	-29,330000	2020-11-19T14:35:56:746
-163,169998	-101,570000	-26,530001	2020-11-19T14:35:56:770
-199,289993	-106,050003	-32,689999	2020-11-19T14:35:56:788
-231,559998	-102,760002	-38,290001	2020-11-19T14:35:56:811
-243,600006	-97,019997	-50,259998	2020-11-19T14:35:56:827
-207,619995	-82,739998	-67,830002	2020-11-19T14:35:56:850
-168,490005	-72,449997	-75,040001	2020-11-19T14:35:56:868
-132,369995	-61,459999	-73,709999	2020-11-19T14:35:56:891
-99,889999	-50,189999	-66,360001	2020-11-19T14:35:56:907
-71,820000	-42,840000	-56,000000	2020-11-19T14:35:56:929
-44,869999	-37,099998	-45,290001	2020-11-19T14:35:56:947
-24,710001	-32,480000	-34,650002	2020-11-19T14:35:56:971
-23,940001	-27,160000	-28,070000	2020-11-19T14:35:56:987
-37,240002	-22,889999	-20,930000	2020-11-19T14:35:57:009
-49,700001	-17,639999	-10,710000	2020-11-19T14:35:57:027
-60,689999	-17,219999	1,470000	2020-11-19T14:35:57:051
-81,900002	-22,540001	11,200000	2020-11-19T14:35:57:067
-98,349998	-25,830000	13,090000	2020-11-19T14:35:57:090
-94,849998	-18,549999	14,000000	2020-11-19T14:35:57:108
-85,610001	-4,200000	12,180000	2020-11-19T14:35:57:131
-65,800003	8,820000	14,420000	2020-11-19T14:35:57:147
-34,580002	17,990000	23,940001	2020-11-19T14:35:57:170
-3,780000	21,350000	36,750000	2020-11-19T14:35:57:187
20,440001	22,260000	51,939999	2020-11-19T14:35:57:211
33,250000	25,830000	60,900002	2020-11-19T14:35:57:227
42,139999	14,350000	67,760002	2020-11-19T14:35:57:250
24,920000	-9,870000	65,449997	2020-11-19T14:35:57:267
-22,680000	-28,350000	60,200001	2020-11-19T14:35:57:291
-35,560001	-37,310001	59,220001	2020-11-19T14:35:57:307
-22,190001	-40,040001	53,689999	2020-11-19T14:35:57:330
-14,980000	-38,220001	50,540001	2020-11-19T14:35:57:348
-11,270000	-38,779999	38,849998	2020-11-19T14:35:57:371
-24,290001	-42,840000	29,400000	2020-11-19T14:35:57:387
-47,950001	-48,509998	19,670000	2020-11-19T14:35:57:410
-72,660004	-56,349998	14,700000	2020-11-19T14:35:57:427
-50,680000	-54,740002	3,640000	2020-11-19T14:35:57:451
-51,450001	-55,930000	-2,030000	2020-11-19T14:35:57:467
-58,099998	-51,170002	-6,720000	2020-11-19T14:35:57:491
-51,099998	-43,330002	-9,450000	2020-11-19T14:35:57:507
-40,950001	-42,070000	-15,610000	2020-11-19T14:35:57:531
-40,670002	-47,320000	-24,850000	2020-11-19T14:35:57:547
-51,450001	-57,189999	-31,430000	2020-11-19T14:35:57:570
-70,349998	-64,260002	-37,099998	2020-11-19T14:35:57:589
-90,510002	-66,500000	-37,520000	2020-11-19T14:35:57:611
-93,730003	-65,519997	-38,080002	2020-11-19T14:35:57:627
-72,449997	-60,619999	-28,559999	2020-11-19T14:35:57:650
-71,540001	-68,110001	-26,460001	2020-11-19T14:35:57:667
-71,889999	-74,690002	-22,960001	2020-11-19T14:35:57:692
-59,290001	-81,269997	-16,730000	2020-11-19T14:35:57:707
-45,220001	-86,029999	-15,890000	2020-11-19T14:35:57:730
-41,090000	-88,410004	-9,520000	2020-11-19T14:35:57:748
-52,360001	-87,709999	-0,210000	2020-11-19T14:35:57:771
-77,349998	-84,769997	8,190000	2020-11-19T14:35:57:788
-98,489998	-82,879997	22,540001	2020-11-19T14:35:57:811
-106,050003	-82,320000	43,330002	2020-11-19T14:35:57:829
-102,480003	-82,110001	69,510002	2020-11-19T14:35:57:851
-91,980003	-81,269997	98,699997	2020-11-19T14:35:57:868
-77,559998	-78,540001	130,059998	2020-11-19T14:35:57:891
-61,670002	-75,739998	160,509995	2020-11-19T14:35:57:908
-33,880001	-67,550003	201,600006	2020-11-19T14:35:57:932
-19,950001	-62,790001	222,320007	2020-11-19T14:35:57:948
-5,600000	-60,270000	237,020004	2020-11-19T14:35:57:971
4,060000	-60,410000	243,880005	2020-11-19T14:35:57:989
-1,750000	-59,639999	238,699997	2020-11-19T14:35:58:011
-16,590000	-53,689999	225,050003	2020-11-19T14:35:58:027
-34,650002	-45,570000	203,699997	2020-11-19T14:35:58:051
-55,230000	-38,709999	175,699997	2020-11-19T14:35:58:069
-74,340004	-32,060001	143,990005	2020-11-19T14:35:58:092
-90,720001	-26,530001	110,110001	2020-11-19T14:35:58:108
-103,879997	-19,809999	77,629997	2020-11-19T14:35:58:129
-116,900002	-13,440001	47,389999	2020-11-19T14:35:58:148
-129,990005	-10,220000	22,190001	2020-11-19T14:35:58:171
-135,520004	-9,100000	3,710000	2020-11-19T14:35:58:188
-133,419998	-8,820000	-10,150000	2020-11-19T14:35:58:210
-127,820000	-10,080000	-19,040001	2020-11-19T14:35:58:229
-121,800003	-10,360000	-24,500000	2020-11-19T14:35:58:251
-114,730003	-8,470000	-26,320000	2020-11-19T14:35:58:268
-108,360001	-5,320000	-25,969999	2020-11-19T14:35:58:291
-103,180000	-1,680000	-25,270000	2020-11-19T14:35:58:309
-97,720001	2,380000	-23,309999	2020-11-19T14:35:58:330
-90,860001	7,770000	-21,980000	2020-11-19T14:35:58:348
-81,059998	13,650000	-18,900000	2020-11-19T14:35:58:371
-69,160004	19,320000	-16,520000	2020-11-19T14:35:58:389
-56,070000	24,430000	-14,490000	2020-11-19T14:35:58:412
-44,170002	28,490000	-12,670000	2020-11-19T14:35:58:428
-35,070000	31,500000	-11,970000	2020-11-19T14:35:58:451
-25,760000	35,070000	-11,760000	2020-11-19T14:35:58:468
-11,340000	41,369999	-11,200000	2020-11-19T14:35:58:492
11,340000	49,490002	-10,780000	2020-11-19T14:35:58:508
46,060001	58,939999	-11,410000	2020-11-19T14:35:58:531
91,769997	65,519997	-13,510000	2020-11-19T14:35:58:549
139,930008	66,709999	-16,170000	2020-11-19T14:35:58:573
176,119995	57,959999	-18,480000	2020-11-19T14:35:58:589
209,509995	42,560001	-10,990000	2020-11-19T14:35:58:611
193,199997	22,190001	-10,850000	2020-11-19T14:35:58:628
142,029999	1,820000	1,890000	2020-11-19T14:35:58:652
116,410004	-3,920000	8,820000	2020-11-19T14:35:58:668
122,290001	3,220000	7,770000	2020-11-19T14:35:58:691
135,589996	-4,690000	0,210000	2020-11-19T14:35:58:709
119,209999	-20,440001	8,890000	2020-11-19T14:35:58:732
65,519997	-38,430000	15,050000	2020-11-19T14:35:58:748
5,740000	-49,630001	10,780000	2020-11-19T14:35:58:771
-31,570000	-57,610001	-0,770000	2020-11-19T14:35:58:790
-48,439999	-65,239998	-18,340000	2020-11-19T14:35:58:812
-51,939999	-68,110001	-35,980000	2020-11-19T14:35:58:828
-50,119999	-66,779999	-49,000000	2020-11-19T14:35:58:851
-45,849998	-66,360001	-57,610001	2020-11-19T14:35:58:869
-39,759998	-67,340004	-63,490002	2020-11-19T14:35:58:893
-31,780001	-66,919998	-66,220001	2020-11-19T14:35:58:908
-22,820000	-62,860001	-65,239998	2020-11-19T14:35:58:931
-13,790000	-59,360001	-60,619999	2020-11-19T14:35:58:949
-6,020000	-56,279999	-51,799999	2020-11-19T14:35:58:972
-10,780000	-51,939999	-38,920002	2020-11-19T14:35:58:989
-35,000000	-43,750000	-27,790001	2020-11-19T14:35:59:011
-51,939999	-37,380001	-16,520000	2020-11-19T14:35:59:029
-65,169998	-28,350000	-6,230000	2020-11-19T14:35:59:052
-73,989998	-18,340000	3,360000	2020-11-19T14:35:59:068
-77,629997	-9,170000	11,410000	2020-11-19T14:35:59:092
-73,639999	0,630000	19,879999	2020-11-19T14:35:59:109
-58,029999	11,970000	28,700001	2020-11-19T14:35:59:132
-37,380001	22,469999	38,290001	2020-11-19T14:35:59:148
-19,389999	34,790001	48,160000	2020-11-19T14:35:59:171
-7,070000	46,900002	60,830002	2020-11-19T14:35:59:189
-1,050000	55,160000	73,360001	2020-11-19T14:35:59:212
-0,070000	61,740002	86,449997	2020-11-19T14:35:59:229
-2,380000	67,620003	99,610001	2020-11-19T14:35:59:251
-6,300000	71,400002	111,650002	2020-11-19T14:35:59:270
-8,960000	69,370003	119,139999	2020-11-19T14:35:59:293
-9,310000	68,949997	124,320000	2020-11-19T14:35:59:309
-9,310000	67,620003	127,750000	2020-11-19T14:35:59:331
