x	y	z	ts
-1,230231	5,996991	-2,310764	2020-11-19T14:35:16:367
-0,030831	-0,256206	-0,151075	2020-11-19T14:35:16:368
-0,148090	-0,114635	-0,293575	2020-11-19T14:35:16:369
0,105996	0,030609	-0,309501	2020-11-19T14:35:16:370
0,103346	-0,025574	-0,234245	2020-11-19T14:35:16:370
0,060926	0,071556	-0,378546	2020-11-19T14:35:16:371
-0,008466	0,179232	-0,447938	2020-11-19T14:35:16:398
0,026953	0,228643	-0,487224	2020-11-19T14:35:16:406
0,027431	0,232426	-0,489856	2020-11-19T14:35:16:407
-0,021999	0,217395	-0,508735	2020-11-19T14:35:16:407
0,019105	0,178174	-0,532952	2020-11-19T14:35:16:425
0,125524	0,314670	-0,608644	2020-11-19T14:35:16:447
0,134516	0,335494	-0,740461	2020-11-19T14:35:16:465
0,244079	0,247334	-0,675576	2020-11-19T14:35:16:486
-0,060681	0,311567	-0,652210	2020-11-19T14:35:16:506
-0,571857	0,225213	-0,982432	2020-11-19T14:35:16:526
-0,219313	-0,018574	-1,161383	2020-11-19T14:35:16:546
-0,754025	0,332269	-1,490183	2020-11-19T14:35:16:566
-0,336921	0,584398	-1,583493	2020-11-19T14:35:16:585
0,634263	2,363071	-1,726141	2020-11-19T14:35:16:606
-0,183791	0,623481	-1,440557	2020-11-19T14:35:16:625
-0,418465	0,518270	-1,285309	2020-11-19T14:35:16:647
0,231903	0,879411	-1,241830	2020-11-19T14:35:16:666
0,000417	0,515346	-1,292290	2020-11-19T14:35:16:686
-0,087312	0,422389	-1,310573	2020-11-19T14:35:16:705
0,684412	0,981425	-1,388625	2020-11-19T14:35:16:726
-0,099621	1,837401	-1,743828	2020-11-19T14:35:16:747
-0,455714	1,430167	-2,303825	2020-11-19T14:35:16:767
-0,425187	1,173836	-3,076107	2020-11-19T14:35:16:786
-0,319002	0,250901	-3,754873	2020-11-19T14:35:16:806
-0,033173	-0,799407	-4,487906	2020-11-19T14:35:16:826
0,050617	-1,223445	-5,151928	2020-11-19T14:35:16:847
-0,355591	-1,338151	-5,700135	2020-11-19T14:35:16:866
-0,785707	-0,603708	-5,625138	2020-11-19T14:35:16:886
-1,180462	-0,975964	-6,002013	2020-11-19T14:35:16:906
-1,354308	-1,858080	-6,262964	2020-11-19T14:35:16:926
-0,920345	-5,386138	-6,223875	2020-11-19T14:35:16:946
-0,692274	-6,891322	-5,831643	2020-11-19T14:35:16:968
-1,397214	-10,137066	-4,846510	2020-11-19T14:35:16:986
-2,413004	-13,115805	-3,354920	2020-11-19T14:35:17:006
-3,351699	-16,252745	-1,656739	2020-11-19T14:35:17:025
-4,275037	-19,090132	-1,052896	2020-11-19T14:35:17:047
-5,664024	-19,820736	-0,726895	2020-11-19T14:35:17:066
-7,191779	-19,669323	-0,816226	2020-11-19T14:35:17:089
-8,697241	0,083946	-2,402662	2020-11-19T14:35:17:199
-9,972483	-0,630501	-4,052928	2020-11-19T14:35:17:200
-10,968513	-2,200007	-5,159519	2020-11-19T14:35:17:200
-11,428604	-2,729923	-5,750137	2020-11-19T14:35:17:202
-11,899821	-2,702399	-5,626179	2020-11-19T14:35:17:202
-12,522497	-2,448730	-6,417185	2020-11-19T14:35:17:214
-14,220494	-2,176213	-7,148901	2020-11-19T14:35:17:236
-15,292480	-1,422473	-7,263756	2020-11-19T14:35:17:257
-16,385033	-1,851311	-7,369808	2020-11-19T14:35:17:266
-16,649872	-1,114567	-7,323626	2020-11-19T14:35:17:287
-16,182678	-0,584294	-7,405339	2020-11-19T14:35:17:306
-15,620944	-0,213594	-7,484934	2020-11-19T14:35:17:327
-14,585480	-0,008010	-7,563419	2020-11-19T14:35:17:346
-13,191690	0,374734	-7,237741	2020-11-19T14:35:17:368
-11,986447	0,579092	-6,780329	2020-11-19T14:35:17:387
-11,428029	0,578763	-6,477119	2020-11-19T14:35:17:408
-11,590717	0,464919	-6,070949	2020-11-19T14:35:17:426
-11,757685	0,497561	-5,949687	2020-11-19T14:35:17:449
-11,704897	0,754049	-5,891430	2020-11-19T14:35:17:467
-11,645541	1,070940	-6,198059	2020-11-19T14:35:17:488
-11,630470	1,202526	-6,221097	2020-11-19T14:35:17:507
-11,321534	1,437953	-6,163486	2020-11-19T14:35:17:536
-10,888840	2,148816	-6,285758	2020-11-19T14:35:17:547
-10,675209	2,473814	-6,133415	2020-11-19T14:35:17:599
-10,598921	2,691883	-5,939052	2020-11-19T14:35:17:599
-10,281572	3,144973	-5,894998	2020-11-19T14:35:17:609
-9,836584	3,388647	-5,733742	2020-11-19T14:35:17:626
-9,574340	3,740936	-5,660667	2020-11-19T14:35:17:654
-9,338882	4,339641	-5,409163	2020-11-19T14:35:17:776
-9,221057	4,804931	-5,070209	2020-11-19T14:35:17:777
-8,476943	5,313871	-4,221343	2020-11-19T14:35:17:778
-8,196982	5,368906	-4,230915	2020-11-19T14:35:17:779
-7,817680	5,427281	-3,780356	2020-11-19T14:35:17:779
-7,443847	5,769383	-3,374286	2020-11-19T14:35:17:779
-6,623909	6,016640	-2,989637	2020-11-19T14:35:17:786
-6,034420	6,237288	-2,124700	2020-11-19T14:35:17:808
-5,536862	6,420693	-1,444726	2020-11-19T14:35:17:827
-5,119465	6,526887	-0,817953	2020-11-19T14:35:17:849
-5,024059	-11,763751	-0,548243	2020-11-19T14:35:17:867
-3,680618	-10,963609	-0,913128	2020-11-19T14:35:17:890
-2,596286	-10,126244	-1,361206	2020-11-19T14:35:17:907
-2,269770	-9,946285	-1,379842	2020-11-19T14:35:17:929
-2,143520	-9,250580	-1,367204	2020-11-19T14:35:17:949
-1,526660	-8,351786	-1,468629	2020-11-19T14:35:17:969
-0,943592	-7,702265	-1,646648	2020-11-19T14:35:17:987
-0,891154	-7,695166	-1,169818	2020-11-19T14:35:18:009
-1,177855	-7,740035	0,034820	2020-11-19T14:35:18:027
-1,402385	-6,971566	0,459620	2020-11-19T14:35:18:050
-1,077878	-6,970206	0,420321	2020-11-19T14:35:18:068
-0,734344	-6,858113	0,552898	2020-11-19T14:35:18:089
0,279380	-6,734971	0,832486	2020-11-19T14:35:18:107
0,950310	-6,657503	1,215472	2020-11-19T14:35:18:129
1,248340	-6,832315	1,470197	2020-11-19T14:35:18:147
1,341148	-6,662781	1,334501	2020-11-19T14:35:18:169
1,189455	-6,082445	0,933697	2020-11-19T14:35:18:188
0,905996	-5,764248	0,551868	2020-11-19T14:35:18:209
0,632409	-5,571655	0,436757	2020-11-19T14:35:18:227
0,663383	-5,439973	0,200311	2020-11-19T14:35:18:250
0,478637	-5,237659	0,094746	2020-11-19T14:35:18:267
0,423868	-4,802002	-0,224975	2020-11-19T14:35:18:289
0,576698	-4,590632	-0,565082	2020-11-19T14:35:18:307
0,723670	-4,948479	-0,846206	2020-11-19T14:35:18:329
0,767459	-5,250164	-0,919359	2020-11-19T14:35:18:348
0,608500	-5,367925	-0,742647	2020-11-19T14:35:18:369
0,896199	-5,234039	-0,316716	2020-11-19T14:35:18:388
1,197806	-5,250841	0,147326	2020-11-19T14:35:18:411
1,068216	-5,407538	0,741229	2020-11-19T14:35:18:429
1,201844	-5,037041	0,881169	2020-11-19T14:35:18:450
1,209186	-4,847752	0,974396	2020-11-19T14:35:18:468
1,249478	-5,168557	1,436210	2020-11-19T14:35:18:491
1,472557	-5,271569	1,971072	2020-11-19T14:35:18:508
1,799842	-5,222104	1,921990	2020-11-19T14:35:18:531
1,834169	-4,775212	1,687705	2020-11-19T14:35:18:549
1,449029	-4,955866	1,535734	2020-11-19T14:35:18:580
0,646343	-5,234257	1,581699	2020-11-19T14:35:18:588
-0,301000	-5,523952	1,925258	2020-11-19T14:35:18:616
-1,050894	-5,880320	2,117448	2020-11-19T14:35:18:628
-1,848485	-6,099838	2,175534	2020-11-19T14:35:18:651
-2,631475	-6,279681	1,974681	2020-11-19T14:35:18:671
-2,981295	-6,286468	1,814522	2020-11-19T14:35:18:691
-2,724257	-6,281516	1,891590	2020-11-19T14:35:18:709
-2,127814	-5,815998	2,215086	2020-11-19T14:35:18:731
-1,968838	-5,146460	2,465994	2020-11-19T14:35:18:749
-2,017228	-4,841306	2,522610	2020-11-19T14:35:18:771
-1,244402	-4,795919	2,121367	2020-11-19T14:35:18:789
0,032362	-4,454564	1,285435	2020-11-19T14:35:18:810
0,678900	-3,698691	0,821668	2020-11-19T14:35:18:829
0,576666	-3,077930	0,754862	2020-11-19T14:35:18:851
-0,296169	-2,445385	0,796522	2020-11-19T14:35:18:868
-1,246082	-1,360212	0,621971	2020-11-19T14:35:18:891
-2,217568	-0,986932	0,502330	2020-11-19T14:35:18:909
-3,387361	-0,571505	0,518873	2020-11-19T14:35:18:930
-3,713094	-0,054481	0,095545	2020-11-19T14:35:18:948
-3,266295	0,581378	-0,392542	2020-11-19T14:35:18:970
-2,514705	0,888145	-0,670868	2020-11-19T14:35:18:988
-2,109912	1,008593	-0,598798	2020-11-19T14:35:19:011
-1,848553	0,993207	-0,758008	2020-11-19T14:35:19:028
-1,494764	1,325751	-0,616720	2020-11-19T14:35:19:051
-1,210452	1,720970	-0,654370	2020-11-19T14:35:19:069
-0,948407	2,041151	-0,932963	2020-11-19T14:35:19:090
-0,776903	2,384559	-0,975899	2020-11-19T14:35:19:108
-0,293472	2,630862	-1,143180	2020-11-19T14:35:19:130
-0,058102	2,963604	-1,087804	2020-11-19T14:35:19:149
0,275413	3,193101	-0,917067	2020-11-19T14:35:19:170
0,584808	3,368841	-0,789956	2020-11-19T14:35:19:188
0,697429	3,523974	-0,904864	2020-11-19T14:35:19:210
0,833096	3,412172	-0,772577	2020-11-19T14:35:19:228
1,217819	3,359110	-0,309250	2020-11-19T14:35:19:251
1,154274	3,303669	-0,124419	2020-11-19T14:35:19:268
0,585066	3,146694	-0,151614	2020-11-19T14:35:19:290
0,273760	3,030130	-0,320927	2020-11-19T14:35:19:309
-0,050709	2,922146	-0,490881	2020-11-19T14:35:19:330
-0,558057	2,706246	-0,433279	2020-11-19T14:35:19:349
-1,432357	2,425421	-0,325217	2020-11-19T14:35:19:371
-2,305272	2,169545	-0,723376	2020-11-19T14:35:19:389
-2,827456	1,725597	-0,968070	2020-11-19T14:35:19:415
-2,690914	1,284687	-1,329776	2020-11-19T14:35:19:429
-2,338976	0,840593	-1,884916	2020-11-19T14:35:19:451
-2,875894	0,433957	-1,816552	2020-11-19T14:35:19:468
-3,234166	-0,168542	-1,179837	2020-11-19T14:35:19:522
-2,616264	-0,566493	-0,577678	2020-11-19T14:35:19:523
-1,718348	-0,503778	-0,463807	2020-11-19T14:35:19:539
-1,508228	-0,602727	-0,637894	2020-11-19T14:35:19:549
-1,841736	-0,837317	-1,012889	2020-11-19T14:35:19:574
-1,793914	-0,538129	-1,333352	2020-11-19T14:35:19:659
-1,568231	-0,277789	-1,748115	2020-11-19T14:35:19:659
-1,397060	-0,081242	-1,861581	2020-11-19T14:35:19:660
-1,067908	0,082134	-1,873851	2020-11-19T14:35:19:660
-0,801217	0,333309	-1,834741	2020-11-19T14:35:19:696
-0,379560	0,402491	-1,634627	2020-11-19T14:35:19:707
-0,063385	0,562019	-1,482865	2020-11-19T14:35:19:713
0,333136	0,753530	-1,391440	2020-11-19T14:35:19:731
0,684105	0,790530	-1,324347	2020-11-19T14:35:19:749
0,872795	0,464145	-1,245372	2020-11-19T14:35:19:798
0,618570	0,024817	-1,185118	2020-11-19T14:35:19:807
0,341407	-0,302542	-1,218668	2020-11-19T14:35:19:811
0,203242	-0,535495	-1,318944	2020-11-19T14:35:19:828
0,073690	-0,892638	-1,442823	2020-11-19T14:35:19:851
0,482167	-1,114872	-1,580577	2020-11-19T14:35:19:869
0,772505	-1,541731	-1,640922	2020-11-19T14:35:19:893
0,887005	-2,016007	-1,574427	2020-11-19T14:35:19:911
1,054006	-2,592035	-1,318031	2020-11-19T14:35:19:933
0,946718	-2,979293	-0,825999	2020-11-19T14:35:19:951
0,682973	-3,189571	-0,272476	2020-11-19T14:35:19:973
0,453145	-3,085161	-0,698808	2020-11-19T14:35:19:990
0,530974	-3,384683	-1,265969	2020-11-19T14:35:20:013
0,554017	-3,838181	-1,407200	2020-11-19T14:35:20:031
0,353199	-4,233801	-0,997681	2020-11-19T14:35:20:053
0,014217	-4,129057	-0,936087	2020-11-19T14:35:20:070
0,346807	-4,099066	-1,116006	2020-11-19T14:35:20:094
0,944033	-4,103969	-1,185356	2020-11-19T14:35:20:111
0,477935	-4,364478	-0,777269	2020-11-19T14:35:20:133
-0,825298	-4,662980	0,134789	2020-11-19T14:35:20:151
-1,674945	-4,602345	0,768197	2020-11-19T14:35:20:173
-2,002725	-4,390162	0,423450	2020-11-19T14:35:20:191
-2,285488	-4,351441	-0,285568	2020-11-19T14:35:20:214
-1,846777	-4,364852	-0,267969	2020-11-19T14:35:20:231
-0,850666	-3,985953	0,280577	2020-11-19T14:35:20:253
-0,023648	-3,640529	1,138531	2020-11-19T14:35:20:271
0,310773	-2,423646	2,710959	2020-11-19T14:35:20:294
0,542877	-2,634215	3,041168	2020-11-19T14:35:20:311
0,352337	-1,990341	3,731152	2020-11-19T14:35:20:334
-0,316511	-0,820041	4,309412	2020-11-19T14:35:20:352
-0,685534	0,491756	4,462265	2020-11-19T14:35:20:374
-0,838769	1,607062	4,369517	2020-11-19T14:35:20:391
-1,179595	2,473548	4,443535	2020-11-19T14:35:20:414
-1,643669	2,910734	4,654676	2020-11-19T14:35:20:431
-2,918795	3,245924	5,106007	2020-11-19T14:35:20:455
-4,196474	3,449687	4,875648	2020-11-19T14:35:20:471
-5,012599	3,783083	4,388625	2020-11-19T14:35:20:494
-5,625066	4,189223	3,832971	2020-11-19T14:35:20:511
-6,041230	4,125042	3,588844	2020-11-19T14:35:20:534
-6,133290	3,848111	3,601511	2020-11-19T14:35:20:551
-5,841989	3,788732	3,834781	2020-11-19T14:35:20:576
-5,350805	3,970853	4,110550	2020-11-19T14:35:20:598
-4,855422	4,407352	4,296731	2020-11-19T14:35:20:614
-4,512471	4,553555	4,447723	2020-11-19T14:35:20:631
-4,266788	4,770735	4,395266	2020-11-19T14:35:20:655
-3,915685	4,844389	3,940628	2020-11-19T14:35:20:671
-3,607224	4,819619	3,574667	2020-11-19T14:35:20:694
-3,294551	4,858736	3,391450	2020-11-19T14:35:20:711
-3,136189	5,012580	3,161466	2020-11-19T14:35:20:734
-3,026729	5,177268	2,965751	2020-11-19T14:35:20:752
-2,787323	5,259649	2,281218	2020-11-19T14:35:20:775
-3,005070	5,405612	2,123291	2020-11-19T14:35:20:791
-3,271153	5,249784	1,804130	2020-11-19T14:35:20:814
-3,540458	5,018498	1,536796	2020-11-19T14:35:20:833
-3,578302	4,846078	1,129531	2020-11-19T14:35:20:854
-3,365207	4,251918	0,709396	2020-11-19T14:35:20:871
-2,898483	3,849691	0,153863	2020-11-19T14:35:20:894
-2,236011	3,307173	-0,518710	2020-11-19T14:35:20:912
-1,442059	2,645992	-1,087296	2020-11-19T14:35:20:935
-0,590361	2,085342	-1,290141	2020-11-19T14:35:20:952
-0,566273	1,544250	-0,972467	2020-11-19T14:35:20:974
-1,636869	0,923625	-0,067394	2020-11-19T14:35:20:992
-2,723895	0,338409	0,878259	2020-11-19T14:35:21:015
-2,559992	-0,012885	1,455893	2020-11-19T14:35:21:032
-1,229252	-0,601838	1,251739	2020-11-19T14:35:21:055
-0,155023	-1,544625	1,168311	2020-11-19T14:35:21:073
0,424873	-2,451238	1,067244	2020-11-19T14:35:21:094
0,378573	-2,737514	0,805713	2020-11-19T14:35:21:112
0,645332	-2,720417	0,572339	2020-11-19T14:35:21:134
0,903420	-2,601373	0,601987	2020-11-19T14:35:21:152
0,766449	-2,476683	0,971228	2020-11-19T14:35:21:175
0,479575	-2,350391	1,353849	2020-11-19T14:35:21:192
0,310516	-2,106216	1,208285	2020-11-19T14:35:21:215
0,099811	-2,137427	1,242768	2020-11-19T14:35:21:232
-0,420952	-2,574661	1,599772	2020-11-19T14:35:21:255
-0,523517	-3,167197	2,120755	2020-11-19T14:35:21:272
-0,180527	-4,190675	2,553907	2020-11-19T14:35:21:295
0,221382	-4,782975	2,738241	2020-11-19T14:35:21:314
0,558584	-5,050143	3,262455	2020-11-19T14:35:21:336
0,713315	-5,128537	4,627024	2020-11-19T14:35:21:354
0,485843	-3,996334	5,858232	2020-11-19T14:35:21:375
0,107027	-2,374741	5,025201	2020-11-19T14:35:21:392
0,139806	-0,917767	3,943947	2020-11-19T14:35:21:426
-0,318783	-0,282079	3,201802	2020-11-19T14:35:21:432
-0,647277	0,069632	3,143912	2020-11-19T14:35:21:455
-0,972092	0,784482	3,448215	2020-11-19T14:35:21:472
-1,625550	1,621710	4,046740	2020-11-19T14:35:21:495
-2,224035	2,634162	3,564732	2020-11-19T14:35:21:512
-2,484635	2,992198	3,320875	2020-11-19T14:35:21:535
-2,742885	2,843418	3,401993	2020-11-19T14:35:21:553
-2,723088	3,009144	3,120686	2020-11-19T14:35:21:585
-2,642010	3,270370	2,638757	2020-11-19T14:35:21:592
-2,467099	3,515867	2,213652	2020-11-19T14:35:21:615
-2,398251	3,013634	1,881461	2020-11-19T14:35:21:632
-2,018524	3,595026	1,465296	2020-11-19T14:35:21:656
-1,981213	4,033100	1,535094	2020-11-19T14:35:21:672
-1,991496	2,565043	0,911347	2020-11-19T14:35:21:695
-2,837737	1,665773	0,712193	2020-11-19T14:35:21:713
-3,134299	2,389656	0,370569	2020-11-19T14:35:21:735
-3,258572	1,345513	0,097871	2020-11-19T14:35:21:753
-2,675875	0,613025	0,155169	2020-11-19T14:35:21:775
-2,264934	0,273149	0,068485	2020-11-19T14:35:21:793
-2,399550	0,362708	-0,663565	2020-11-19T14:35:21:816
-2,794960	0,146807	-0,703671	2020-11-19T14:35:21:833
-3,008210	-0,233051	-0,496128	2020-11-19T14:35:21:856
-3,033881	0,153658	-0,422155	2020-11-19T14:35:21:873
-2,792544	0,531942	-1,056594	2020-11-19T14:35:21:896
-2,910994	0,557740	-1,560117	2020-11-19T14:35:21:912
-2,946201	0,706783	-1,457523	2020-11-19T14:35:21:936
-2,718651	0,769311	-1,226460	2020-11-19T14:35:21:953
-2,118725	1,038801	-1,262483	2020-11-19T14:35:21:976
-1,352015	1,367612	-1,631517	2020-11-19T14:35:21:993
-0,396173	1,522479	-1,775897	2020-11-19T14:35:22:016
0,197173	1,572578	-1,762301	2020-11-19T14:35:22:033
0,078076	1,561321	-1,494262	2020-11-19T14:35:22:056
-0,224159	1,941728	-1,468948	2020-11-19T14:35:22:073
-0,412220	2,289165	-1,500082	2020-11-19T14:35:22:096
-0,347435	2,574155	-1,658404	2020-11-19T14:35:22:113
-0,063758	2,631030	-1,730479	2020-11-19T14:35:22:136
0,303407	2,721959	-1,593252	2020-11-19T14:35:22:153
0,645339	2,647607	-1,201908	2020-11-19T14:35:22:176
0,701704	2,710046	-0,866020	2020-11-19T14:35:22:193
0,562720	2,862564	-0,685330	2020-11-19T14:35:22:216
0,592057	3,087883	-0,699826	2020-11-19T14:35:22:233
0,559565	3,253772	-0,685628	2020-11-19T14:35:22:256
0,620999	3,128117	-0,637575	2020-11-19T14:35:22:274
0,542971	3,182551	-0,699144	2020-11-19T14:35:22:296
0,185330	3,084473	-0,761807	2020-11-19T14:35:22:313
-0,033431	2,689518	-0,787102	2020-11-19T14:35:22:336
-0,644994	2,222652	-0,450732	2020-11-19T14:35:22:353
-1,027797	2,301676	0,048477	2020-11-19T14:35:22:376
-1,364433	2,306754	0,109426	2020-11-19T14:35:22:393
-2,030620	2,265269	-0,080396	2020-11-19T14:35:22:417
-2,955721	2,151921	0,012334	2020-11-19T14:35:22:433
-3,420011	1,431275	0,446183	2020-11-19T14:35:22:457
-3,800470	1,225493	0,709393	2020-11-19T14:35:22:473
-3,431977	0,636043	1,209987	2020-11-19T14:35:22:497
-2,130302	-0,073577	1,835250	2020-11-19T14:35:22:514
-0,666278	-0,574172	2,329851	2020-11-19T14:35:22:536
0,525257	-0,808481	2,710384	2020-11-19T14:35:22:553
1,110807	-1,019401	2,747182	2020-11-19T14:35:22:577
1,054552	-1,340874	2,480767	2020-11-19T14:35:22:593
0,385769	-1,202394	1,520764	2020-11-19T14:35:22:616
-0,402306	-0,096618	1,769487	2020-11-19T14:35:22:634
-1,252525	1,308787	1,124093	2020-11-19T14:35:22:657
-2,619814	0,075722	0,525836	2020-11-19T14:35:22:673
-2,489919	-2,460950	-0,165811	2020-11-19T14:35:22:696
-0,276990	-1,989346	-0,290444	2020-11-19T14:35:22:713
0,840161	-1,237083	-0,323350	2020-11-19T14:35:22:737
0,940850	-1,822493	-0,034920	2020-11-19T14:35:22:754
1,109180	-2,566865	0,187716	2020-11-19T14:35:22:777
1,106650	-2,844597	0,576220	2020-11-19T14:35:22:793
1,158278	-3,252163	0,977455	2020-11-19T14:35:22:817
1,463984	-3,554656	1,472772	2020-11-19T14:35:22:834
1,448441	-3,708280	1,895482	2020-11-19T14:35:22:858
1,312050	-3,239287	2,524794	2020-11-19T14:35:22:873
1,308973	-2,598543	2,650290	2020-11-19T14:35:22:897
1,325389	-2,169561	2,768960	2020-11-19T14:35:22:914
1,449655	-1,798033	2,876781	2020-11-19T14:35:22:937
1,539021	-1,985313	3,306074	2020-11-19T14:35:22:954
1,426640	-2,330619	3,509053	2020-11-19T14:35:22:977
1,082578	-2,382708	3,428081	2020-11-19T14:35:22:994
0,810866	-2,459656	3,230279	2020-11-19T14:35:23:017
0,479383	-2,421371	2,994564	2020-11-19T14:35:23:033
0,281626	-2,504468	2,598138	2020-11-19T14:35:23:058
0,023989	-2,490883	2,300400	2020-11-19T14:35:23:074
-0,758544	-2,064428	2,100592	2020-11-19T14:35:23:098
-1,866130	-1,486840	2,093591	2020-11-19T14:35:23:114
-2,711183	-0,778819	1,993964	2020-11-19T14:35:23:139
-3,263492	-0,855467	1,799634	2020-11-19T14:35:23:154
-3,830538	-1,238015	1,594515	2020-11-19T14:35:23:177
-3,497851	-1,449558	1,514370	2020-11-19T14:35:23:193
-1,867098	-1,381877	0,722682	2020-11-19T14:35:23:218
-1,332008	-1,250992	-0,275091	2020-11-19T14:35:23:235
-2,224403	-1,380317	-0,844791	2020-11-19T14:35:23:257
-3,389392	-1,545373	-1,005059	2020-11-19T14:35:23:274
-4,470636	-1,342604	-1,310700	2020-11-19T14:35:23:298
-5,342032	-1,133597	-1,889200	2020-11-19T14:35:23:313
-5,684358	-0,898392	-2,636674	2020-11-19T14:35:23:337
-5,037183	-0,464818	-3,324800	2020-11-19T14:35:23:354
-4,029091	-0,015125	-3,842306	2020-11-19T14:35:23:378
-2,902349	0,499265	-4,259743	2020-11-19T14:35:23:394
-2,188109	1,024837	-4,450686	2020-11-19T14:35:23:417
-1,485141	1,196594	-4,291297	2020-11-19T14:35:23:434
-1,249380	1,088865	-4,211004	2020-11-19T14:35:23:458
-1,007648	1,073220	-3,993608	2020-11-19T14:35:23:475
-0,784502	1,032918	-3,957213	2020-11-19T14:35:23:497
-0,397269	1,190000	-3,978584	2020-11-19T14:35:23:514
-0,132086	1,290694	-4,073953	2020-11-19T14:35:23:538
0,016390	1,544507	-3,507030	2020-11-19T14:35:23:554
0,131995	2,298147	-2,824161	2020-11-19T14:35:23:577
0,088640	3,026572	-3,114957	2020-11-19T14:35:23:594
-0,106544	3,911016	-3,528949	2020-11-19T14:35:23:618
0,308647	4,074424	-3,735913	2020-11-19T14:35:23:634
0,722391	4,143887	-3,681472	2020-11-19T14:35:23:657
0,792240	4,160257	-3,227828	2020-11-19T14:35:23:674
0,638268	4,128170	-2,529840	2020-11-19T14:35:23:698
0,287690	3,808968	-2,066967	2020-11-19T14:35:23:716
0,002457	3,862427	-1,658341	2020-11-19T14:35:23:737
-0,670857	3,826258	-1,447745	2020-11-19T14:35:23:755
-1,696969	3,795529	-1,659016	2020-11-19T14:35:23:778
-3,313799	3,534284	-1,377091	2020-11-19T14:35:23:794
-4,683945	3,585063	-0,959647	2020-11-19T14:35:23:818
-4,840148	3,635972	-1,831959	2020-11-19T14:35:23:835
-3,790545	3,195520	-2,203675	2020-11-19T14:35:23:859
-2,819197	1,746010	-2,001873	2020-11-19T14:35:23:877
-2,630611	-0,086455	-1,105733	2020-11-19T14:35:23:897
-2,502553	-1,308708	0,267113	2020-11-19T14:35:23:914
-2,237537	-1,963575	1,441356	2020-11-19T14:35:23:938
-2,130193	-2,372282	1,638140	2020-11-19T14:35:23:955
-2,095128	-2,785979	1,167143	2020-11-19T14:35:23:977
-1,905477	-2,918073	0,399614	2020-11-19T14:35:23:995
-1,562473	-2,951896	0,116061	2020-11-19T14:35:24:018
-1,185035	-2,599966	-0,138914	2020-11-19T14:35:24:035
-0,434757	-2,070148	-0,375508	2020-11-19T14:35:24:058
0,224412	-1,769844	-0,753809	2020-11-19T14:35:24:075
0,293217	-2,361405	-0,606657	2020-11-19T14:35:24:099
0,193939	-3,148270	-0,267460	2020-11-19T14:35:24:115
0,138390	-3,732636	0,135229	2020-11-19T14:35:24:137
0,421293	-3,913198	0,032886	2020-11-19T14:35:24:155
0,204719	-4,124388	-0,193325	2020-11-19T14:35:24:179
-0,069097	-4,714362	-0,063347	2020-11-19T14:35:24:195
-0,166713	-5,385647	0,395388	2020-11-19T14:35:24:218
-0,066515	-4,834137	1,295798	2020-11-19T14:35:24:235
0,252200	-2,469363	1,475180	2020-11-19T14:35:24:259
0,711833	-0,892015	1,518504	2020-11-19T14:35:24:275
0,876493	0,001699	1,911098	2020-11-19T14:35:24:298
0,548930	0,135179	2,680711	2020-11-19T14:35:24:315
-0,069687	0,126768	3,220598	2020-11-19T14:35:24:338
-0,765894	0,421886	3,431123	2020-11-19T14:35:24:355
-1,386271	1,197757	3,295420	2020-11-19T14:35:24:378
-1,813644	1,859627	3,229835	2020-11-19T14:35:24:395
-2,469830	1,711120	2,971765	2020-11-19T14:35:24:419
-3,315658	1,727878	2,994389	2020-11-19T14:35:24:436
-4,288298	1,731998	2,925090	2020-11-19T14:35:24:458
-5,066338	1,984971	2,810196	2020-11-19T14:35:24:475
-5,201823	2,277292	2,354465	2020-11-19T14:35:24:499
-4,452366	1,439056	1,742693	2020-11-19T14:35:24:515
-2,430676	-1,480859	1,329677	2020-11-19T14:35:24:538
-3,002309	-0,240716	0,877545	2020-11-19T14:35:24:556
-4,365069	2,023932	0,671934	2020-11-19T14:35:24:579
-5,308258	3,137034	0,481139	2020-11-19T14:35:24:595
-4,961972	3,445962	0,428992	2020-11-19T14:35:24:618
-3,262431	2,812281	0,215862	2020-11-19T14:35:24:635
-2,700360	1,553197	-0,059996	2020-11-19T14:35:24:660
-3,382533	1,219612	-0,555898	2020-11-19T14:35:24:676
-3,209732	1,978479	-1,118732	2020-11-19T14:35:24:698
-2,852950	2,534549	-1,534208	2020-11-19T14:35:24:715
-2,790593	3,116745	-1,711193	2020-11-19T14:35:24:739
-2,718231	3,280200	-1,648809	2020-11-19T14:35:24:755
-2,781078	3,477912	-1,361281	2020-11-19T14:35:24:778
-2,743612	3,666834	-1,553158	2020-11-19T14:35:24:795
-2,850949	4,340149	-1,871256	2020-11-19T14:35:24:820
-2,252743	4,225294	-2,089003	2020-11-19T14:35:24:836
-2,148332	4,320631	-2,114314	2020-11-19T14:35:24:860
-2,059886	4,752921	-1,600215	2020-11-19T14:35:24:875
-1,690445	5,086499	-1,206804	2020-11-19T14:35:24:899
-1,472945	5,225466	-1,142266	2020-11-19T14:35:24:916
-1,369714	5,406735	-1,250323	2020-11-19T14:35:24:938
-1,205811	5,627456	-1,103533	2020-11-19T14:35:24:956
-1,180128	5,523285	-0,698655	2020-11-19T14:35:24:979
-1,354848	5,405803	-0,422880	2020-11-19T14:35:24:995
-1,758833	5,369486	-0,113682	2020-11-19T14:35:25:019
-1,987963	5,334849	0,090086	2020-11-19T14:35:25:036
-1,670158	5,212907	0,088819	2020-11-19T14:35:25:060
-2,177437	5,208121	0,450135	2020-11-19T14:35:25:076
-3,176741	4,841146	0,729119	2020-11-19T14:35:25:099
-3,680063	4,408460	0,418629	2020-11-19T14:35:25:116
-3,758009	4,213602	0,062727	2020-11-19T14:35:25:139
-3,712572	3,688936	0,218848	2020-11-19T14:35:25:157
-3,085623	2,749059	1,051986	2020-11-19T14:35:25:178
-1,992437	2,101983	1,443871	2020-11-19T14:35:25:196
-1,515768	1,413186	1,541152	2020-11-19T14:35:25:220
-2,212809	0,420366	1,778980	2020-11-19T14:35:25:247
-2,589818	0,208269	1,798069	2020-11-19T14:35:25:259
-2,354587	1,023758	1,224655	2020-11-19T14:35:25:275
-2,235335	1,112966	0,825956	2020-11-19T14:35:25:300
-2,206908	0,473583	0,642846	2020-11-19T14:35:25:317
-1,772582	-0,203589	0,605660	2020-11-19T14:35:25:339
-0,903502	-0,571876	0,571731	2020-11-19T14:35:25:356
-0,159153	-0,667556	0,367715	2020-11-19T14:35:25:380
0,295053	-0,992619	0,046476	2020-11-19T14:35:25:397
0,507607	-1,311998	-0,355560	2020-11-19T14:35:25:419
0,503326	-1,388920	-0,232480	2020-11-19T14:35:25:436
0,680229	-0,935829	-0,232229	2020-11-19T14:35:25:460
0,784029	-0,246750	-0,321676	2020-11-19T14:35:25:476
0,573415	0,313525	-0,383495	2020-11-19T14:35:25:499
-0,039272	1,068187	-0,176944	2020-11-19T14:35:25:516
-0,310133	1,975197	0,269934	2020-11-19T14:35:25:540
-0,201566	2,127284	0,812403	2020-11-19T14:35:25:557
-0,167527	2,050541	0,993767	2020-11-19T14:35:25:580
0,034154	1,780849	1,016454	2020-11-19T14:35:25:596
-0,113070	1,184316	1,161382	2020-11-19T14:35:25:620
-0,645949	0,376975	1,545473	2020-11-19T14:35:25:637
-1,228362	0,068406	2,075198	2020-11-19T14:35:25:660
-1,503027	-0,196099	2,193641	2020-11-19T14:35:25:676
-1,376651	-0,639085	2,201241	2020-11-19T14:35:25:700
-1,071157	-1,080203	2,547205	2020-11-19T14:35:25:716
-1,545937	-1,481776	2,925874	2020-11-19T14:35:25:740
-1,961144	-1,556480	3,124876	2020-11-19T14:35:25:757
-2,374479	-1,487571	3,210630	2020-11-19T14:35:25:780
-2,629521	-1,444152	3,113536	2020-11-19T14:35:25:797
-2,841179	-1,466986	3,130128	2020-11-19T14:35:25:820
-2,287760	-1,353293	3,155543	2020-11-19T14:35:25:837
-1,286946	-0,766060	3,126002	2020-11-19T14:35:25:861
-0,681694	0,104416	2,869459	2020-11-19T14:35:25:877
-0,550750	1,433616	1,895546	2020-11-19T14:35:25:900
-1,155681	2,338156	0,764796	2020-11-19T14:35:25:917
-4,096550	2,575858	0,449515	2020-11-19T14:35:25:947
-6,971698	2,938464	0,271319	2020-11-19T14:35:25:956
-7,228869	4,287236	0,433368	2020-11-19T14:35:25:979
-6,628775	5,634321	0,598228	2020-11-19T14:35:25:998
-5,918218	5,947754	0,850923	2020-11-19T14:35:26:021
-5,158855	5,833081	0,840449	2020-11-19T14:35:26:037
-4,527824	5,838957	0,421687	2020-11-19T14:35:26:060
-4,239374	5,616143	0,255363	2020-11-19T14:35:26:077
-3,832273	5,099295	0,274296	2020-11-19T14:35:26:101
-3,863453	5,446867	-0,270748	2020-11-19T14:35:26:117
-3,798366	5,768665	-0,727332	2020-11-19T14:35:26:139
-3,873043	5,868201	-0,583484	2020-11-19T14:35:26:157
-3,912346	5,913656	0,012706	2020-11-19T14:35:26:180
-3,736537	6,359938	0,428257	2020-11-19T14:35:26:197
-3,628072	6,943251	0,521146	2020-11-19T14:35:26:220
-3,251872	7,403773	0,056783	2020-11-19T14:35:26:237
-2,991317	7,159200	-0,383882	2020-11-19T14:35:26:261
-2,484592	6,677257	-0,038196	2020-11-19T14:35:26:277
-2,099838	6,462547	0,446434	2020-11-19T14:35:26:300
-1,952878	6,550629	0,380199	2020-11-19T14:35:26:317
-2,153570	6,424682	0,150191	2020-11-19T14:35:26:342
-2,556142	5,689099	-0,167336	2020-11-19T14:35:26:358
-2,622677	5,388869	0,028483	2020-11-19T14:35:26:381
-2,825841	5,496874	0,137156	2020-11-19T14:35:26:397
-3,127239	5,036698	0,077475	2020-11-19T14:35:26:421
-3,192253	4,282035	-0,251193	2020-11-19T14:35:26:437
-3,460890	4,000767	-0,703544	2020-11-19T14:35:26:461
-4,356519	3,727071	-1,100283	2020-11-19T14:35:26:477
-5,459009	3,039127	-1,524107	2020-11-19T14:35:26:502
-6,333105	2,859503	-2,019343	2020-11-19T14:35:26:517
-6,813270	2,861104	-2,624353	2020-11-19T14:35:26:540
-7,183653	2,171159	-3,160883	2020-11-19T14:35:26:557
-6,747761	-0,248179	-3,085940	2020-11-19T14:35:26:581
-4,946088	-2,329906	-2,807168	2020-11-19T14:35:26:598
-2,109316	-2,844863	-2,391574	2020-11-19T14:35:26:620
0,126821	-3,138291	-1,865921	2020-11-19T14:35:26:637
0,990446	-4,003279	-1,411260	2020-11-19T14:35:26:661
0,631384	-4,726604	-1,479455	2020-11-19T14:35:26:677
0,611574	-5,160383	-1,879741	2020-11-19T14:35:26:700
0,595811	-4,922297	-1,881784	2020-11-19T14:35:26:717
0,535124	-3,871326	-1,637387	2020-11-19T14:35:26:742
0,628444	-3,057766	-1,567995	2020-11-19T14:35:26:758
0,978663	-2,445446	-1,165562	2020-11-19T14:35:26:780
1,515374	-2,143431	-0,691311	2020-11-19T14:35:26:797
2,091549	-1,980377	-0,069099	2020-11-19T14:35:26:821
2,205934	-2,217378	0,255507	2020-11-19T14:35:26:838
2,103486	-2,573948	0,569623	2020-11-19T14:35:26:861
1,786125	-2,087182	1,273811	2020-11-19T14:35:26:877
1,702776	-1,339245	1,757267	2020-11-19T14:35:26:901
1,711168	-0,666261	1,862656	2020-11-19T14:35:26:917
1,771935	-0,351161	2,026826	2020-11-19T14:35:26:940
1,841158	0,161587	2,022727	2020-11-19T14:35:26:958
2,072711	0,779495	1,536230	2020-11-19T14:35:26:981
1,237018	1,059303	1,272423	2020-11-19T14:35:26:997
0,863615	0,971691	1,570307	2020-11-19T14:35:27:020
1,695759	1,181831	2,019278	2020-11-19T14:35:27:037
2,150099	1,501673	2,316503	2020-11-19T14:35:27:062
1,647967	1,370798	2,937120	2020-11-19T14:35:27:080
1,064119	0,861127	3,360649	2020-11-19T14:35:27:101
0,594322	1,086121	3,128029	2020-11-19T14:35:27:117
-0,601985	2,043893	2,081908	2020-11-19T14:35:27:142
-1,920432	1,955359	1,409525	2020-11-19T14:35:27:158
-3,104319	1,731024	1,301601	2020-11-19T14:35:27:181
-3,283879	1,606717	1,532147	2020-11-19T14:35:27:198
-2,766090	1,591188	1,606118	2020-11-19T14:35:27:222
-2,420168	2,475094	2,142725	2020-11-19T14:35:27:237
-2,544054	3,466164	2,513712	2020-11-19T14:35:27:261
-2,294760	3,866287	2,338881	2020-11-19T14:35:27:277
-2,219154	3,863301	1,840768	2020-11-19T14:35:27:301
-2,045022	4,079884	1,165481	2020-11-19T14:35:27:319
-1,651024	4,012458	0,561050	2020-11-19T14:35:27:341
-1,381564	2,965644	0,640830	2020-11-19T14:35:27:358
-1,367383	2,894238	1,191126	2020-11-19T14:35:27:382
-1,179580	3,087094	1,894992	2020-11-19T14:35:27:397
-0,859707	2,441356	1,809856	2020-11-19T14:35:27:421
-0,625057	1,575348	1,770711	2020-11-19T14:35:27:438
-0,924267	0,245847	1,745429	2020-11-19T14:35:27:462
-1,278118	-0,676131	2,304567	2020-11-19T14:35:27:478
-1,514876	-0,602601	3,302732	2020-11-19T14:35:27:500
-0,886963	-0,920319	3,375454	2020-11-19T14:35:27:517
-0,024212	-2,388371	3,112491	2020-11-19T14:35:27:542
1,118911	-2,973968	2,382735	2020-11-19T14:35:27:560
1,908527	-0,460109	2,585206	2020-11-19T14:35:27:581
0,898243	0,643251	3,905679	2020-11-19T14:35:27:598
-0,972358	0,462077	1,981339	2020-11-19T14:35:27:622
0,241712	-1,029383	0,838995	2020-11-19T14:35:27:638
0,510089	-1,108725	0,031528	2020-11-19T14:35:27:661
0,109844	-0,819654	0,556339	2020-11-19T14:35:27:678
-0,338804	0,540285	1,799746	2020-11-19T14:35:27:702
-0,876085	1,578214	2,166875	2020-11-19T14:35:27:718
-3,768746	3,433751	2,538921	2020-11-19T14:35:27:741
-3,804896	1,718976	3,192309	2020-11-19T14:35:27:758
-2,944123	0,076806	4,582768	2020-11-19T14:35:27:784
-1,615642	1,140188	4,328327	2020-11-19T14:35:27:810
-1,788262	1,104985	2,181410	2020-11-19T14:35:27:821
-1,432700	-0,259987	1,182407	2020-11-19T14:35:27:838
-1,117968	-2,239002	1,330685	2020-11-19T14:35:27:863
-0,802115	-2,904207	1,639359	2020-11-19T14:35:27:878
-0,973888	-1,839267	1,852565	2020-11-19T14:35:27:901
-0,482114	0,202117	1,688748	2020-11-19T14:35:27:918
-0,301432	1,743188	1,879727	2020-11-19T14:35:27:942
0,921278	2,432103	2,415751	2020-11-19T14:35:27:959
2,381562	2,795202	1,597008	2020-11-19T14:35:27:981
2,872270	2,831334	0,682874	2020-11-19T14:35:27:998
2,795274	2,253407	0,728896	2020-11-19T14:35:28:022
2,656766	1,638218	1,227204	2020-11-19T14:35:28:039
3,021623	1,992591	1,672611	2020-11-19T14:35:28:061
2,913573	3,499916	1,949246	2020-11-19T14:35:28:078
2,390617	4,048121	1,636663	2020-11-19T14:35:28:103
1,982783	3,259187	1,241019	2020-11-19T14:35:28:118
1,909312	2,305848	0,836229	2020-11-19T14:35:28:141
2,247129	2,185207	0,858150	2020-11-19T14:35:28:159
2,348943	2,250297	1,544003	2020-11-19T14:35:28:182
1,995765	2,118818	2,061954	2020-11-19T14:35:28:199
1,694236	2,180822	1,591030	2020-11-19T14:35:28:221
1,939642	3,039448	0,278969	2020-11-19T14:35:28:238
2,350314	3,066529	0,143143	2020-11-19T14:35:28:263
1,980328	1,698456	0,852106	2020-11-19T14:35:28:279
1,225121	0,867607	1,357874	2020-11-19T14:35:28:301
1,001395	1,378183	1,119746	2020-11-19T14:35:28:319
1,224395	1,809016	0,674604	2020-11-19T14:35:28:343
1,150881	0,819899	0,441920	2020-11-19T14:35:28:359
0,802736	-0,138239	0,487458	2020-11-19T14:35:28:382
0,849795	-0,344893	0,673335	2020-11-19T14:35:28:398
0,647706	0,200953	0,726403	2020-11-19T14:35:28:423
0,497769	1,164436	0,410942	2020-11-19T14:35:28:439
0,549504	1,737372	0,241409	2020-11-19T14:35:28:463
0,642634	1,908937	0,231706	2020-11-19T14:35:28:478
0,574323	1,503461	0,202439	2020-11-19T14:35:28:503
0,674191	0,891970	-0,116446	2020-11-19T14:35:28:519
0,601684	1,123959	-0,346206	2020-11-19T14:35:28:542
0,739470	1,427028	-0,309035	2020-11-19T14:35:28:559
0,630075	1,715218	-0,132767	2020-11-19T14:35:28:583
0,481009	1,450607	0,087616	2020-11-19T14:35:28:598
0,158638	1,075069	0,316378	2020-11-19T14:35:28:622
0,161351	0,728502	0,240642	2020-11-19T14:35:28:639
0,119692	0,240353	0,200157	2020-11-19T14:35:28:663
-0,062616	0,133708	0,224430	2020-11-19T14:35:28:679
-0,219381	0,698186	0,139756	2020-11-19T14:35:28:702
-0,247356	1,467670	-0,082147	2020-11-19T14:35:28:719
-0,225996	1,330615	-0,039387	2020-11-19T14:35:28:743
-0,288245	0,510324	0,050175	2020-11-19T14:35:28:760
-0,243895	0,040374	0,185539	2020-11-19T14:35:28:782
-0,224239	-0,158956	0,268716	2020-11-19T14:35:28:799
-0,019485	0,545456	-0,085091	2020-11-19T14:35:28:823
0,526783	1,166816	-0,361897	2020-11-19T14:35:28:839
0,464769	0,366102	-0,226243	2020-11-19T14:35:28:862
0,428830	-0,600686	-0,170590	2020-11-19T14:35:28:879
0,524465	-0,377449	-0,394516	2020-11-19T14:35:28:902
0,561099	-0,212486	-0,218196	2020-11-19T14:35:28:921
0,244564	-0,612994	0,295952	2020-11-19T14:35:28:941
-0,184432	-1,040936	0,761724	2020-11-19T14:35:28:959
-0,073213	-1,339989	1,677826	2020-11-19T14:35:28:982
-0,806262	-1,473096	1,196671	2020-11-19T14:35:29:001
-0,666612	-1,037120	0,811744	2020-11-19T14:35:29:021
-0,256787	-0,253652	0,216725	2020-11-19T14:35:29:040
0,490106	0,347889	0,287628	2020-11-19T14:35:29:063
0,918771	0,477863	-0,034266	2020-11-19T14:35:29:079
1,463659	0,362896	-0,108707	2020-11-19T14:35:29:102
1,356122	-0,711447	0,215954	2020-11-19T14:35:29:119
0,936787	-1,582430	0,415252	2020-11-19T14:35:29:142
1,049254	-0,665560	0,114557	2020-11-19T14:35:29:160
1,460179	0,837115	-0,730000	2020-11-19T14:35:29:182
2,264530	1,377303	-1,028170	2020-11-19T14:35:29:199
2,819742	0,552390	-0,808069	2020-11-19T14:35:29:223
2,675262	-0,529152	-0,549330	2020-11-19T14:35:29:240
2,680688	-0,285808	-1,427844	2020-11-19T14:35:29:262
3,783580	1,058057	-3,264054	2020-11-19T14:35:29:279
4,493403	0,900043	-2,460491	2020-11-19T14:35:29:303
4,033964	-2,469429	-0,954288	2020-11-19T14:35:29:319
2,324467	-3,312978	-2,167625	2020-11-19T14:35:29:342
2,662924	-0,246104	-3,802876	2020-11-19T14:35:29:360
3,076633	0,998105	-3,947899	2020-11-19T14:35:29:382
3,440965	-0,849148	-2,239294	2020-11-19T14:35:29:400
2,790504	-3,598478	-1,140880	2020-11-19T14:35:29:422
1,276491	-6,186582	-2,470167	2020-11-19T14:35:29:439
-0,161638	-4,895040	-4,484558	2020-11-19T14:35:29:463
-0,475726	-3,225260	-3,912636	2020-11-19T14:35:29:480
-0,687078	-1,560725	-2,714684	2020-11-19T14:35:29:502
-0,819699	-0,245003	-2,491629	2020-11-19T14:35:29:520
-1,802677	-0,734141	-2,129553	2020-11-19T14:35:29:543
-3,377302	-1,236880	-1,460243	2020-11-19T14:35:29:560
-4,513940	-1,313820	-2,189085	2020-11-19T14:35:29:582
-5,320851	-1,343731	-2,298567	2020-11-19T14:35:29:599
-5,638653	-1,241452	-1,187037	2020-11-19T14:35:29:623
-5,029476	0,287927	-1,447311	2020-11-19T14:35:29:640
-4,792972	1,659161	-2,645178	2020-11-19T14:35:29:663
-6,144668	0,789908	-2,141139	2020-11-19T14:35:29:679
-9,333935	-0,760736	-0,431336	2020-11-19T14:35:29:704
-11,963869	-0,170948	1,076408	2020-11-19T14:35:29:722
-11,804789	-0,233682	1,312672	2020-11-19T14:35:29:742
-11,239591	0,434481	0,246498	2020-11-19T14:35:29:768
-9,814600	-0,110748	0,016028	2020-11-19T14:35:29:784
-4,750477	-2,870583	0,810076	2020-11-19T14:35:29:800
-3,587441	-2,044665	0,211462	2020-11-19T14:35:29:823
-3,943164	-2,081983	0,336673	2020-11-19T14:35:29:840
-1,880839	-1,481525	-0,689105	2020-11-19T14:35:29:864
-1,240670	-1,312212	-0,823181	2020-11-19T14:35:29:880
-1,793004	-0,353622	-1,120577	2020-11-19T14:35:29:903
-2,045235	0,874913	-1,365724	2020-11-19T14:35:29:920
-1,997154	2,015563	-1,725829	2020-11-19T14:35:29:944
-1,612789	2,389720	-1,276426	2020-11-19T14:35:29:961
-1,044497	2,073860	-0,622264	2020-11-19T14:35:29:982
-0,750297	2,102072	-0,663345	2020-11-19T14:35:30:001
-0,173347	2,273165	-1,263062	2020-11-19T14:35:30:024
0,240672	2,417311	-1,765073	2020-11-19T14:35:30:040
0,587040	2,242399	-2,176335	2020-11-19T14:35:30:064
0,691776	2,154802	-2,518673	2020-11-19T14:35:30:080
0,303480	2,226446	-2,677203	2020-11-19T14:35:30:104
-0,389113	2,346452	-2,689454	2020-11-19T14:35:30:121
-0,524552	2,605665	-2,608274	2020-11-19T14:35:30:143
0,095271	2,587238	-2,419723	2020-11-19T14:35:30:161
0,965266	2,460900	-2,140835	2020-11-19T14:35:30:184
1,248282	2,149971	-1,874366	2020-11-19T14:35:30:201
1,000010	1,925301	-1,591809	2020-11-19T14:35:30:223
0,723879	1,786798	-1,424835	2020-11-19T14:35:30:240
0,545035	1,816878	-1,486370	2020-11-19T14:35:30:265
0,788087	2,379704	-1,703728	2020-11-19T14:35:30:280
0,661638	2,727647	-1,616649	2020-11-19T14:35:30:303
0,204586	2,654987	-1,412948	2020-11-19T14:35:30:320
-0,115568	2,800019	-1,521633	2020-11-19T14:35:30:344
-0,635026	3,266224	-1,751734	2020-11-19T14:35:30:361
-1,190983	3,747251	-1,989315	2020-11-19T14:35:30:383
-1,313287	3,636844	-2,294309	2020-11-19T14:35:30:400
-0,785173	3,490672	-2,436850	2020-11-19T14:35:30:424
-0,402514	3,619990	-2,711360	2020-11-19T14:35:30:441
-0,661279	3,793201	-2,684685	2020-11-19T14:35:30:464
-1,095651	3,786510	-2,742339	2020-11-19T14:35:30:481
-1,082887	3,822612	-2,696517	2020-11-19T14:35:30:504
-0,588574	3,813529	-2,744066	2020-11-19T14:35:30:521
-0,034350	3,798674	-2,627997	2020-11-19T14:35:30:544
0,039792	3,758630	-2,076859	2020-11-19T14:35:30:561
-0,063594	3,921419	-0,440400	2020-11-19T14:35:30:588
-0,056054	3,620381	0,243591	2020-11-19T14:35:30:601
0,318563	3,341264	-0,179694	2020-11-19T14:35:30:623
0,634737	3,042713	-1,275803	2020-11-19T14:35:30:640
-0,163231	1,970437	-1,922540	2020-11-19T14:35:30:665
-1,505992	0,676413	-1,388304	2020-11-19T14:35:30:683
-2,623440	-0,407536	-0,502960	2020-11-19T14:35:30:703
-2,606946	-0,629284	0,144015	2020-11-19T14:35:30:721
-1,971914	-0,548388	0,714436	2020-11-19T14:35:30:745
-1,407753	-0,684826	1,829395	2020-11-19T14:35:30:761
-0,797457	-1,048430	2,097348	2020-11-19T14:35:30:784
-0,431048	-1,232350	1,859947	2020-11-19T14:35:30:800
-0,640944	-1,492146	1,690728	2020-11-19T14:35:30:824
-0,710668	-1,250048	1,632455	2020-11-19T14:35:30:841
-0,518376	-2,139270	1,032381	2020-11-19T14:35:30:864
-0,019777	-2,995896	0,780267	2020-11-19T14:35:30:880
0,483190	-3,299281	0,957642	2020-11-19T14:35:30:905
0,801841	-3,112651	1,150190	2020-11-19T14:35:30:922
0,663828	-2,673240	1,506788	2020-11-19T14:35:30:944
0,482435	-1,577932	2,045177	2020-11-19T14:35:30:961
0,441863	-0,803128	2,352046	2020-11-19T14:35:30:985
0,350907	-0,413762	2,579089	2020-11-19T14:35:31:001
-0,065377	0,147718	2,823229	2020-11-19T14:35:31:025
-0,558298	0,114218	3,196510	2020-11-19T14:35:31:041
-1,401217	0,432003	3,329161	2020-11-19T14:35:31:065
-2,010504	0,157974	2,666188	2020-11-19T14:35:31:081
-2,166046	-0,398332	1,912908	2020-11-19T14:35:31:104
-2,341853	-0,521821	1,446813	2020-11-19T14:35:31:121
-2,670087	-0,409420	1,290404	2020-11-19T14:35:31:145
-3,185988	-0,158889	1,273369	2020-11-19T14:35:31:162
-4,131789	0,149172	1,828143	2020-11-19T14:35:31:184
-5,514503	0,605406	2,952440	2020-11-19T14:35:31:201
-6,404685	1,717535	2,044452	2020-11-19T14:35:31:225
-5,888993	2,964158	0,690686	2020-11-19T14:35:31:241
-4,407248	3,267356	-0,011311	2020-11-19T14:35:31:265
-3,206703	2,694342	-0,163229	2020-11-19T14:35:31:281
-2,633988	2,259007	-0,317344	2020-11-19T14:35:31:305
-2,255220	2,154418	-0,542274	2020-11-19T14:35:31:322
-1,750302	1,859404	-0,397754	2020-11-19T14:35:31:345
-1,670246	1,429794	-0,188209	2020-11-19T14:35:31:361
-1,692006	1,475408	-0,706629	2020-11-19T14:35:31:385
-1,650060	1,844071	-1,232511	2020-11-19T14:35:31:402
-1,865816	1,820407	-1,568426	2020-11-19T14:35:31:424
-2,140559	1,915782	-1,372050	2020-11-19T14:35:31:442
-1,754345	2,632694	-1,022607	2020-11-19T14:35:31:465
-1,239063	3,451117	-1,420122	2020-11-19T14:35:31:481
-0,616794	3,242052	-1,464745	2020-11-19T14:35:31:504
-0,286579	2,816781	-1,388443	2020-11-19T14:35:31:521
-0,287756	2,817923	-1,231279	2020-11-19T14:35:31:545
-0,094496	3,027344	-1,233163	2020-11-19T14:35:31:562
0,243249	3,062241	-1,271691	2020-11-19T14:35:31:584
0,542845	3,067184	-1,282239	2020-11-19T14:35:31:601
0,779759	2,969761	-1,274311	2020-11-19T14:35:31:625
1,059602	2,878437	-1,095837	2020-11-19T14:35:31:642
1,216393	2,840889	-0,955327	2020-11-19T14:35:31:665
1,200600	2,920232	-0,696323	2020-11-19T14:35:31:681
1,044695	2,687164	-0,277885	2020-11-19T14:35:31:705
0,543974	2,324194	0,292159	2020-11-19T14:35:31:721
-0,119184	1,696866	0,702420	2020-11-19T14:35:31:744
-0,680946	1,523042	0,660077	2020-11-19T14:35:31:762
-0,940976	1,620603	0,237301	2020-11-19T14:35:31:785
-0,982635	1,369606	0,086729	2020-11-19T14:35:31:802
-1,023057	1,319753	-0,143088	2020-11-19T14:35:31:825
-1,477940	1,248590	-0,075228	2020-11-19T14:35:31:842
-1,991152	1,209274	0,078091	2020-11-19T14:35:31:866
-1,987945	0,846575	0,437445	2020-11-19T14:35:31:884
-2,351654	1,023644	0,463766	2020-11-19T14:35:31:905
-2,562777	0,936606	0,243230	2020-11-19T14:35:31:922
-2,526659	0,676051	0,243019	2020-11-19T14:35:31:946
-2,363926	-0,087180	0,459352	2020-11-19T14:35:31:963
-1,790635	-0,814075	0,802469	2020-11-19T14:35:31:985
-0,833661	-1,277966	1,281891	2020-11-19T14:35:32:002
0,406748	-1,821144	1,936515	2020-11-19T14:35:32:025
1,356141	-2,354048	2,210737	2020-11-19T14:35:32:042
-0,383176	-1,701032	1,676283	2020-11-19T14:35:32:065
-1,223413	-0,361332	0,502253	2020-11-19T14:35:32:082
-0,924741	0,819755	-0,500987	2020-11-19T14:35:32:106
-0,870333	1,062479	-0,984058	2020-11-19T14:35:32:123
-1,060579	0,893495	-0,722850	2020-11-19T14:35:32:145
-0,630325	0,255379	-0,047569	2020-11-19T14:35:32:162
-0,004457	-0,478460	0,558779	2020-11-19T14:35:32:186
0,606983	-1,328851	0,988107	2020-11-19T14:35:32:202
1,305225	-1,922362	1,358870	2020-11-19T14:35:32:225
2,072744	-1,779019	0,642301	2020-11-19T14:35:32:242
2,338767	-1,322730	-0,104974	2020-11-19T14:35:32:266
1,934439	-1,077339	-0,085217	2020-11-19T14:35:32:282
1,395743	-0,820317	0,761821	2020-11-19T14:35:32:305
0,928767	-0,493452	1,703228	2020-11-19T14:35:32:322
0,866985	-0,201663	1,890465	2020-11-19T14:35:32:346
0,688829	-0,307551	1,731149	2020-11-19T14:35:32:364
0,701498	-0,939432	1,751709	2020-11-19T14:35:32:386
0,478967	-1,183500	2,062776	2020-11-19T14:35:32:402
0,057564	-1,446690	2,341801	2020-11-19T14:35:32:426
-0,148988	-1,573030	2,623158	2020-11-19T14:35:32:442
-0,248263	-1,791484	2,703703	2020-11-19T14:35:32:466
-0,188532	-1,901952	2,415978	2020-11-19T14:35:32:482
-0,357837	-1,746522	1,985662	2020-11-19T14:35:32:506
-1,211611	-1,867579	1,703361	2020-11-19T14:35:32:523
-2,568830	-2,231972	1,801030	2020-11-19T14:35:32:545
-3,924625	-2,409220	2,013288	2020-11-19T14:35:32:563
-3,904154	-2,302098	1,917584	2020-11-19T14:35:32:586
-3,053895	-2,065728	1,812531	2020-11-19T14:35:32:603
-1,935461	-1,994731	1,555539	2020-11-19T14:35:32:625
-0,822542	-1,862210	0,850566	2020-11-19T14:35:32:642
-0,418471	-1,529047	0,170751	2020-11-19T14:35:32:666
-1,608275	-1,534974	-0,002952	2020-11-19T14:35:32:682
-3,100075	-1,635260	-0,000871	2020-11-19T14:35:32:705
-4,031785	-1,332797	-0,449934	2020-11-19T14:35:32:723
-4,850080	-0,733336	-0,937179	2020-11-19T14:35:32:746
-4,635786	-0,190728	-1,690213	2020-11-19T14:35:32:763
-3,634322	0,360396	-2,354166	2020-11-19T14:35:32:787
-2,566730	0,882337	-2,848388	2020-11-19T14:35:32:802
-1,870162	1,159021	-3,176105	2020-11-19T14:35:32:827
-1,637285	1,208454	-3,168732	2020-11-19T14:35:32:845
-1,436279	1,031474	-3,324394	2020-11-19T14:35:32:866
-1,414397	1,039211	-3,583398	2020-11-19T14:35:32:883
-1,370494	1,280474	-3,935536	2020-11-19T14:35:32:906
-1,309773	1,414969	-3,977543	2020-11-19T14:35:32:923
-1,193936	1,690443	-4,042277	2020-11-19T14:35:32:946
-0,863440	2,007384	-3,783266	2020-11-19T14:35:32:963
-0,390511	2,355757	-3,564123	2020-11-19T14:35:32:986
-0,275746	2,670563	-3,316004	2020-11-19T14:35:33:003
-0,169919	3,144032	-3,154538	2020-11-19T14:35:33:026
0,186576	3,615864	-3,100147	2020-11-19T14:35:33:042
0,476133	3,723901	-3,168748	2020-11-19T14:35:33:067
0,612067	3,920515	-3,019322	2020-11-19T14:35:33:084
0,842116	3,921288	-2,820623	2020-11-19T14:35:33:106
0,703187	4,224229	-2,422741	2020-11-19T14:35:33:124
0,102930	4,039297	-1,903490	2020-11-19T14:35:33:147
-0,716531	4,126033	-0,932922	2020-11-19T14:35:33:163
-1,225578	3,911629	-0,145903	2020-11-19T14:35:33:186
-1,376112	3,637034	0,154661	2020-11-19T14:35:33:203
-1,176898	3,315693	0,047096	2020-11-19T14:35:33:227
-1,104413	2,563531	0,044577	2020-11-19T14:35:33:243
-1,279439	1,728764	0,440674	2020-11-19T14:35:33:266
-1,696349	1,130694	1,223018	2020-11-19T14:35:33:283
-1,935363	0,643188	2,120276	2020-11-19T14:35:33:307
-2,149793	0,130966	2,732746	2020-11-19T14:35:33:324
-2,533098	-0,348155	3,041945	2020-11-19T14:35:33:346
-2,383402	-0,510184	2,906474	2020-11-19T14:35:33:364
-2,162443	-0,536142	2,431654	2020-11-19T14:35:33:387
-1,900832	-0,998111	1,721207	2020-11-19T14:35:33:403
-2,782932	5,234081	0,615106	2020-11-19T14:35:33:426
-1,343902	2,364982	1,152976	2020-11-19T14:35:33:443
-0,632966	0,876397	1,056971	2020-11-19T14:35:33:467
-0,611633	0,889510	0,483446	2020-11-19T14:35:33:484
-0,216146	0,607680	0,208804	2020-11-19T14:35:33:506
0,071827	0,413866	0,052356	2020-11-19T14:35:33:523
0,254858	0,479483	0,130122	2020-11-19T14:35:33:547
0,187891	0,474436	0,396438	2020-11-19T14:35:33:589
0,093119	0,344018	0,674633	2020-11-19T14:35:33:590
0,239757	0,172558	0,852983	2020-11-19T14:35:33:603
0,266240	0,443865	0,991976	2020-11-19T14:35:33:627
0,210151	0,357980	1,144963	2020-11-19T14:35:33:643
0,359524	0,045452	1,334228	2020-11-19T14:35:33:666
0,515673	-0,010697	1,422366	2020-11-19T14:35:33:683
0,548126	0,002285	1,551003	2020-11-19T14:35:33:707
0,604584	-2,343420	2,368230	2020-11-19T14:35:33:724
0,133471	-2,396580	2,340304	2020-11-19T14:35:33:746
0,036692	-2,432574	2,210943	2020-11-19T14:35:33:764
-0,134893	-2,599272	2,105252	2020-11-19T14:35:33:787
-0,571886	-2,671871	2,057244	2020-11-19T14:35:33:804
-1,791032	-2,756781	1,979495	2020-11-19T14:35:33:826
-2,592061	-2,877683	2,088852	2020-11-19T14:35:33:845
-2,552770	-2,630482	2,008378	2020-11-19T14:35:33:869
-2,052669	-2,783622	1,977271	2020-11-19T14:35:33:884
-1,491051	-3,130824	1,980178	2020-11-19T14:35:33:907
-0,818295	-3,315795	1,635307	2020-11-19T14:35:33:924
-0,120531	-3,178486	0,937685	2020-11-19T14:35:33:947
-0,522710	-2,941721	0,381053	2020-11-19T14:35:33:965
-1,759283	-3,000143	0,190012	2020-11-19T14:35:33:987
-2,591352	-3,259779	0,089297	2020-11-19T14:35:34:004
-2,968694	-2,922914	-0,378998	2020-11-19T14:35:34:029
-3,213593	-2,135718	-1,014066	2020-11-19T14:35:34:049
-3,157462	-1,484505	-1,322749	2020-11-19T14:35:34:067
-2,615073	-0,846385	-1,714514	2020-11-19T14:35:34:084
-1,846336	-0,146811	-2,203475	2020-11-19T14:35:34:108
-1,248263	0,379766	-2,487902	2020-11-19T14:35:34:124
-0,666765	0,482566	-2,629882	2020-11-19T14:35:34:147
-0,259331	0,510186	-2,881819	2020-11-19T14:35:34:164
-0,278463	0,745693	-2,983890	2020-11-19T14:35:34:188
-0,238045	0,916841	-3,046278	2020-11-19T14:35:34:204
-0,232789	1,244336	-3,168121	2020-11-19T14:35:34:227
-0,227065	1,478744	-3,522831	2020-11-19T14:35:34:244
-0,187536	1,690379	-3,524516	2020-11-19T14:35:34:268
0,063377	1,856875	-3,158817	2020-11-19T14:35:34:285
0,339511	2,121625	-3,044550	2020-11-19T14:35:34:307
0,586245	2,320395	-3,069426	2020-11-19T14:35:34:324
0,565212	2,435587	-3,280046	2020-11-19T14:35:34:348
0,417742	2,335945	-3,125686	2020-11-19T14:35:34:364
0,095362	2,104354	-2,919500	2020-11-19T14:35:34:387
-0,256435	2,088318	-2,421811	2020-11-19T14:35:34:404
-0,791645	2,097592	-2,161353	2020-11-19T14:35:34:428
-1,095215	2,062371	-2,026846	2020-11-19T14:35:34:444
-1,940844	2,033147	-1,606165	2020-11-19T14:35:34:467
-2,743082	1,911769	-0,963929	2020-11-19T14:35:34:484
-2,757117	2,089106	-0,703316	2020-11-19T14:35:34:508
-2,294715	2,416627	-0,266806	2020-11-19T14:35:34:525
-2,027581	2,315522	0,265755	2020-11-19T14:35:34:548
-1,217017	2,053557	0,737236	2020-11-19T14:35:34:565
-0,171639	2,042811	1,202977	2020-11-19T14:35:34:588
0,796443	1,926553	0,967731	2020-11-19T14:35:34:604
0,863514	1,712427	0,671248	2020-11-19T14:35:34:628
0,397082	1,315221	0,355491	2020-11-19T14:35:34:644
-0,340330	1,033033	0,334320	2020-11-19T14:35:34:669
-0,655022	0,965758	0,505459	2020-11-19T14:35:34:685
-0,584299	1,107472	0,700037	2020-11-19T14:35:34:708
-0,735223	0,943234	0,673999	2020-11-19T14:35:34:724
-0,713629	0,699489	0,801922	2020-11-19T14:35:34:748
-0,337655	0,342228	0,850694	2020-11-19T14:35:34:766
0,097432	-0,057390	0,744608	2020-11-19T14:35:34:787
0,191182	-0,430047	0,715752	2020-11-19T14:35:34:806
0,486777	-0,786004	0,761661	2020-11-19T14:35:34:828
0,693347	-1,022729	0,927453	2020-11-19T14:35:34:845
1,024595	-1,020813	1,211656	2020-11-19T14:35:34:868
1,014937	-1,207292	1,517869	2020-11-19T14:35:34:884
0,776575	-1,251632	1,647318	2020-11-19T14:35:34:909
0,940676	-1,166268	1,432535	2020-11-19T14:35:34:925
0,965651	-1,341855	1,328871	2020-11-19T14:35:34:948
0,984078	-1,690735	1,494387	2020-11-19T14:35:34:965
0,973991	-1,753965	1,659870	2020-11-19T14:35:34:989
0,797066	-1,996657	1,884007	2020-11-19T14:35:35:006
0,601607	-2,235680	2,100126	2020-11-19T14:35:35:028
0,275254	-2,469738	2,288764	2020-11-19T14:35:35:045
-0,332724	-2,614802	2,504875	2020-11-19T14:35:35:069
-0,903723	-1,393337	2,159998	2020-11-19T14:35:35:085
-1,270078	-1,638192	2,245296	2020-11-19T14:35:35:108
-2,143427	-1,765204	2,176723	2020-11-19T14:35:35:125
-3,242292	-1,817872	2,214780	2020-11-19T14:35:35:149
-3,891530	-1,934327	2,257832	2020-11-19T14:35:35:166
-4,081176	-2,004547	2,474275	2020-11-19T14:35:35:188
-3,869388	-2,166189	2,604192	2020-11-19T14:35:35:205
-2,357568	-3,256658	2,110109	2020-11-19T14:35:35:229
-0,667977	-2,627436	1,423334	2020-11-19T14:35:35:246
0,241047	-1,595017	0,662073	2020-11-19T14:35:35:268
0,127728	-0,871438	0,069437	2020-11-19T14:35:35:285
-0,681740	-0,607486	0,155657	2020-11-19T14:35:35:309
-1,473487	-0,358704	0,197236	2020-11-19T14:35:35:325
-1,816469	0,233971	-0,119819	2020-11-19T14:35:35:348
-1,651340	0,705619	-0,411932	2020-11-19T14:35:35:365
-1,855851	1,950878	-0,580965	2020-11-19T14:35:35:390
-2,188454	1,847987	-0,463716	2020-11-19T14:35:35:405
-2,345345	2,631522	-0,517105	2020-11-19T14:35:35:428
-2,248688	3,448837	-0,668012	2020-11-19T14:35:35:445
-2,210862	3,845980	-0,862763	2020-11-19T14:35:35:469
-3,010298	4,021284	-0,824888	2020-11-19T14:35:35:486
-3,791687	4,409248	-0,901318	2020-11-19T14:35:35:508
-3,324825	4,996840	-1,348847	2020-11-19T14:35:35:525
-2,742307	5,199114	-1,589736	2020-11-19T14:35:35:549
-2,657449	5,102440	-1,660130	2020-11-19T14:35:35:565
-2,739661	5,102586	-1,455848	2020-11-19T14:35:35:591
-2,772139	5,037539	-1,206973	2020-11-19T14:35:35:605
-2,670300	5,131798	-1,011973	2020-11-19T14:35:35:629
-2,395553	5,013585	-1,062904	2020-11-19T14:35:35:646
-2,148263	4,769103	-1,371887	2020-11-19T14:35:35:669
-2,471143	4,997037	-1,831625	2020-11-19T14:35:35:685
-3,144400	5,277353	-2,309687	2020-11-19T14:35:35:709
-3,099772	5,595797	-2,594786	2020-11-19T14:35:35:726
-2,660334	5,931425	-2,765043	2020-11-19T14:35:35:748
-2,582359	5,476827	-2,721000	2020-11-19T14:35:35:766
-3,143115	4,300779	-2,466831	2020-11-19T14:35:35:789
-3,510969	3,176705	-2,225228	2020-11-19T14:35:35:805
-2,919261	2,504968	-2,675510	2020-11-19T14:35:35:829
-2,246397	1,690409	-3,457047	2020-11-19T14:35:35:846
-1,573689	0,608206	-3,616548	2020-11-19T14:35:35:869
-1,280012	-0,507096	-3,174336	2020-11-19T14:35:35:886
-1,777790	-1,608322	-2,572604	2020-11-19T14:35:35:909
-2,197582	-2,707081	-2,154307	2020-11-19T14:35:35:925
-2,559545	-3,648293	-2,631610	2020-11-19T14:35:35:950
-2,613790	-4,697512	-3,532537	2020-11-19T14:35:35:967
-2,865153	-5,959917	-4,395872	2020-11-19T14:35:35:989
-2,728575	-7,342244	-5,212198	2020-11-19T14:35:36:006
-2,269046	-8,928461	-5,799638	2020-11-19T14:35:36:029
-1,758050	-10,008782	-6,327440	2020-11-19T14:35:36:045
-1,952856	-10,587674	-7,163034	2020-11-19T14:35:36:070
-1,306794	-9,537226	-7,084072	2020-11-19T14:35:36:086
-1,425709	-8,904677	-7,072225	2020-11-19T14:35:36:110
-1,598010	-8,497096	-7,223621	2020-11-19T14:35:36:126
-1,985628	-8,177516	-7,295312	2020-11-19T14:35:36:149
-2,379006	-7,939454	-6,877134	2020-11-19T14:35:36:166
-2,816464	-7,904720	-6,857533	2020-11-19T14:35:36:190
-3,088350	-7,813794	-6,862679	2020-11-19T14:35:36:207
-3,014409	-7,997970	-7,118435	2020-11-19T14:35:36:229
-2,829353	-8,353548	-7,366053	2020-11-19T14:35:36:246
-2,686887	-8,769023	-7,155022	2020-11-19T14:35:36:270
-1,957386	-9,083014	-6,379462	2020-11-19T14:35:36:286
-1,441895	-8,850456	-5,891992	2020-11-19T14:35:36:309
-1,270340	-7,917653	-5,675448	2020-11-19T14:35:36:326
-1,094651	-7,196257	-5,293605	2020-11-19T14:35:36:351
-0,924358	-6,896163	-4,774734	2020-11-19T14:35:36:367
-0,856450	-6,372474	-4,265996	2020-11-19T14:35:36:389
-1,155395	-6,172209	-4,008592	2020-11-19T14:35:36:406
-1,446023	-5,972982	-3,739766	2020-11-19T14:35:36:430
-1,109249	-5,754362	-3,358265	2020-11-19T14:35:36:447
-0,449980	-5,868287	-2,818742	2020-11-19T14:35:36:470
-0,243820	-5,789816	-2,358658	2020-11-19T14:35:36:486
-0,491067	-5,665930	-2,342000	2020-11-19T14:35:36:511
-0,678615	-5,477943	-1,902348	2020-11-19T14:35:36:526
-0,722070	-5,409044	-1,683766	2020-11-19T14:35:36:549
-1,687130	-5,419032	-2,321085	2020-11-19T14:35:36:567
-2,648360	-5,518787	-3,038615	2020-11-19T14:35:36:591
-1,971408	-5,277049	-3,149007	2020-11-19T14:35:36:607
-1,054885	-4,789824	-3,276400	2020-11-19T14:35:36:629
-2,078369	-4,836690	-3,293886	2020-11-19T14:35:36:646
-3,155623	-2,414025	-3,209206	2020-11-19T14:35:36:671
-2,535454	-1,604339	-2,383216	2020-11-19T14:35:36:688
-2,457536	-3,952757	-2,459684	2020-11-19T14:35:36:709
-2,017374	-5,232128	-2,316191	2020-11-19T14:35:36:728
0,297259	-4,378891	-0,283931	2020-11-19T14:35:36:750
0,906256	-3,962222	-0,376531	2020-11-19T14:35:36:767
1,018167	-2,492712	-0,410408	2020-11-19T14:35:36:790
1,298319	-1,037556	-0,834195	2020-11-19T14:35:36:807
0,976147	0,246953	-1,321842	2020-11-19T14:35:36:830
0,645455	0,980804	-2,077425	2020-11-19T14:35:36:848
-0,098185	0,387711	-2,390084	2020-11-19T14:35:36:870
-1,099011	-1,054363	-2,335669	2020-11-19T14:35:36:887
-0,975995	-2,512857	-2,312108	2020-11-19T14:35:36:911
-0,305064	-2,962891	-2,396044	2020-11-19T14:35:36:928
0,483319	-2,292551	-1,958114	2020-11-19T14:35:36:949
0,690586	-1,673038	-1,259827	2020-11-19T14:35:36:967
1,243002	-1,293496	-0,184866	2020-11-19T14:35:36:991
1,484537	-1,753363	0,143909	2020-11-19T14:35:37:007
1,065400	-1,981602	-0,445363	2020-11-19T14:35:37:030
0,794211	-1,718914	-0,053703	2020-11-19T14:35:37:047
1,694421	-1,746641	-0,038342	2020-11-19T14:35:37:071
2,173226	-1,981792	-0,066692	2020-11-19T14:35:37:087
0,993561	-0,745788	-1,258253	2020-11-19T14:35:37:110
-0,633790	0,916328	-0,948755	2020-11-19T14:35:37:127
-0,858160	0,044275	-0,142901	2020-11-19T14:35:37:151
-0,134785	-1,169910	-0,122662	2020-11-19T14:35:37:168
-0,815043	-1,642448	-0,752035	2020-11-19T14:35:37:190
-2,301884	-2,702330	-1,401900	2020-11-19T14:35:37:207
-3,499777	-2,757586	-1,854707	2020-11-19T14:35:37:231
-4,518415	-2,846820	-2,463410	2020-11-19T14:35:37:248
-4,190050	-1,807621	-2,549095	2020-11-19T14:35:37:271
-2,927926	-0,095690	-2,334496	2020-11-19T14:35:37:287
-1,709771	1,549442	-1,719936	2020-11-19T14:35:37:311
-0,422647	1,928968	-0,660835	2020-11-19T14:35:37:328
0,309236	1,612711	-0,100989	2020-11-19T14:35:37:350
-0,539907	2,244943	0,273230	2020-11-19T14:35:37:367
-2,032944	2,555828	0,962202	2020-11-19T14:35:37:391
-3,595949	2,587640	1,800393	2020-11-19T14:35:37:408
-4,331059	5,704211	3,314246	2020-11-19T14:35:37:430
-3,180495	8,474236	4,230732	2020-11-19T14:35:37:447
-2,740913	8,391973	4,588885	2020-11-19T14:35:37:471
-3,137999	6,577689	4,829394	2020-11-19T14:35:37:487
-2,936969	5,486207	5,467086	2020-11-19T14:35:37:510
-2,231437	5,042431	6,299787	2020-11-19T14:35:37:527
-1,703260	4,308544	7,301865	2020-11-19T14:35:37:551
-1,668693	3,923875	7,687816	2020-11-19T14:35:37:568
-1,681448	4,358771	7,662715	2020-11-19T14:35:37:590
-1,731960	4,409483	7,682530	2020-11-19T14:35:37:607
-1,782323	4,028129	7,552438	2020-11-19T14:35:37:631
-1,475552	3,527259	7,269864	2020-11-19T14:35:37:648
-1,138755	3,588014	6,746692	2020-11-19T14:35:37:671
-0,837002	3,358381	6,059949	2020-11-19T14:35:37:687
-0,575762	3,162781	5,245546	2020-11-19T14:35:37:711
-0,054048	2,718102	4,606137	2020-11-19T14:35:37:727
0,057325	1,775135	4,248964	2020-11-19T14:35:37:750
-1,565319	0,614447	4,612691	2020-11-19T14:35:37:769
-2,924433	-0,747098	4,826452	2020-11-19T14:35:37:792
-3,087382	-2,344866	4,775900	2020-11-19T14:35:37:808
-2,492733	-3,003911	3,942671	2020-11-19T14:35:37:830
-2,220571	-3,515307	3,021889	2020-11-19T14:35:37:849
-2,868651	-4,119127	2,036567	2020-11-19T14:35:37:872
-3,682163	-4,261930	1,738039	2020-11-19T14:35:37:889
-3,885607	-4,398700	2,229717	2020-11-19T14:35:37:911
-3,450850	-5,010382	3,251845	2020-11-19T14:35:37:928
-2,545880	-5,714509	3,507818	2020-11-19T14:35:37:951
-1,189371	-6,083929	3,231164	2020-11-19T14:35:37:968
-0,368859	-6,102711	2,912094	2020-11-19T14:35:37:991
-0,394463	-5,837795	2,801949	2020-11-19T14:35:38:009
-1,090333	-4,949290	2,733188	2020-11-19T14:35:38:031
-1,792623	-3,593431	2,417827	2020-11-19T14:35:38:053
-2,215313	-1,495405	1,969941	2020-11-19T14:35:38:072
-2,686108	0,375084	1,640695	2020-11-19T14:35:38:169
-2,944914	1,808593	1,484904	2020-11-19T14:35:38:169
-2,714974	3,040528	1,290795	2020-11-19T14:35:38:174
-2,768616	4,016745	1,204692	2020-11-19T14:35:38:175
-2,889441	4,461864	0,965703	2020-11-19T14:35:38:178
-2,955225	4,454621	0,628347	2020-11-19T14:35:38:331
-2,800045	4,298134	0,290004	2020-11-19T14:35:38:338
-2,845035	4,273667	-0,027889	2020-11-19T14:35:38:338
-2,759972	4,281062	-0,382769	2020-11-19T14:35:38:342
-2,668741	4,411357	-0,646170	2020-11-19T14:35:38:344
-2,450607	4,536463	-0,774511	2020-11-19T14:35:38:344
-2,208332	4,753665	-0,813719	2020-11-19T14:35:38:345
-1,995598	5,136997	-0,817607	2020-11-19T14:35:38:345
-1,995655	5,504414	-0,575495	2020-11-19T14:35:38:354
-2,174716	5,685877	-0,424849	2020-11-19T14:35:38:369
-1,930648	5,824660	-0,262137	2020-11-19T14:35:38:389
-1,759666	5,828023	-0,542850	2020-11-19T14:35:38:406
-2,062442	5,714620	-0,458001	2020-11-19T14:35:38:430
-2,616294	5,763471	-0,260397	2020-11-19T14:35:38:447
-2,688557	5,855224	0,251532	2020-11-19T14:35:38:472
-2,696720	5,886345	0,788451	2020-11-19T14:35:38:489
-3,179457	6,152365	0,908650	2020-11-19T14:35:38:512
-3,346814	6,164798	0,491633	2020-11-19T14:35:38:528
-3,260681	5,691753	0,575689	2020-11-19T14:35:38:551
-3,030938	4,961748	0,721855	2020-11-19T14:35:38:569
-2,496707	3,890584	0,624915	2020-11-19T14:35:38:592
-2,216747	3,919298	0,507666	2020-11-19T14:35:38:609
-1,337893	3,439355	0,522280	2020-11-19T14:35:38:642
-1,015811	2,585658	0,603933	2020-11-19T14:35:38:648
-1,229627	1,942054	0,711471	2020-11-19T14:35:38:673
-1,480786	1,503683	0,739923	2020-11-19T14:35:38:688
-1,575862	1,161809	0,527966	2020-11-19T14:35:38:712
-1,722807	0,817012	0,172706	2020-11-19T14:35:38:728
-1,825372	0,279924	-0,214189	2020-11-19T14:35:38:751
-1,602727	-0,184920	-0,581710	2020-11-19T14:35:38:769
-1,065965	-0,333151	-1,012141	2020-11-19T14:35:38:791
-0,688352	-0,497193	-1,622765	2020-11-19T14:35:38:808
-0,621799	-0,464168	-2,077628	2020-11-19T14:35:38:832
-0,679120	-0,299698	-1,790193	2020-11-19T14:35:38:850
-0,324399	-0,092967	-1,040991	2020-11-19T14:35:38:872
0,287115	-0,050332	-0,349354	2020-11-19T14:35:38:888
0,390843	-0,056871	-0,081863	2020-11-19T14:35:38:912
0,091978	-0,274048	-0,290428	2020-11-19T14:35:38:928
-0,459970	-0,708136	-0,261469	2020-11-19T14:35:38:952
-0,825760	-0,815813	0,041009	2020-11-19T14:35:38:969
-0,809240	-1,330306	0,455532	2020-11-19T14:35:38:992
-0,863729	-2,224258	1,115116	2020-11-19T14:35:39:009
-0,348953	-3,216462	1,572624	2020-11-19T14:35:39:032
0,174131	-4,330729	1,940913	2020-11-19T14:35:39:048
0,248488	-5,174838	2,544914	2020-11-19T14:35:39:073
0,067904	-5,897035	2,996968	2020-11-19T14:35:39:090
-0,166307	-6,920734	3,335408	2020-11-19T14:35:39:112
-0,023129	-5,174361	3,483452	2020-11-19T14:35:39:129
-0,814438	-4,908533	3,835240	2020-11-19T14:35:39:153
-1,868097	-4,720886	4,359804	2020-11-19T14:35:39:169
-2,426336	-4,023744	4,489958	2020-11-19T14:35:39:192
-2,467001	-3,178008	4,368438	2020-11-19T14:35:39:209
-2,043663	-2,136705	4,334199	2020-11-19T14:35:39:233
-2,154751	0,356017	4,197947	2020-11-19T14:35:39:249
-1,428229	-2,984973	4,101150	2020-11-19T14:35:39:272
-2,103798	-2,560040	3,869571	2020-11-19T14:35:39:289
-2,823348	-2,224406	3,534030	2020-11-19T14:35:39:313
-3,519381	-1,177541	3,018668	2020-11-19T14:35:39:330
-3,951061	-0,257772	2,294094	2020-11-19T14:35:39:352
-4,442591	0,576100	1,577152	2020-11-19T14:35:39:370
-4,406082	0,953104	0,881534	2020-11-19T14:35:39:393
-3,987926	1,450297	0,574022	2020-11-19T14:35:39:409
-3,410357	1,880677	0,293643	2020-11-19T14:35:39:432
-2,703433	2,264729	0,023879	2020-11-19T14:35:39:449
-2,272820	2,732694	-0,265604	2020-11-19T14:35:39:473
-2,232707	2,784644	-0,837413	2020-11-19T14:35:39:490
-2,169932	3,047280	-1,247155	2020-11-19T14:35:39:512
-2,161697	3,063301	-1,567780	2020-11-19T14:35:39:529
-1,965383	3,346122	-2,000681	2020-11-19T14:35:39:553
-1,555355	3,922301	-2,497211	2020-11-19T14:35:39:572
-0,995434	4,125691	-2,310571	2020-11-19T14:35:39:592
-0,596130	4,462207	-2,253515	2020-11-19T14:35:39:610
-0,056848	4,686843	-2,466764	2020-11-19T14:35:39:633
0,434172	4,809928	-2,718545	2020-11-19T14:35:39:649
0,575514	4,878809	-2,565631	2020-11-19T14:35:39:673
0,533605	4,993078	-2,207648	2020-11-19T14:35:39:689
0,213621	4,871739	-2,005619	2020-11-19T14:35:39:713
-0,165199	4,956791	-1,940947	2020-11-19T14:35:39:730
-0,543416	4,879431	-1,943417	2020-11-19T14:35:39:752
-1,098415	4,946374	-1,688957	2020-11-19T14:35:39:770
-2,089435	4,837421	-1,290611	2020-11-19T14:35:39:793
-3,151926	4,478591	-0,884412	2020-11-19T14:35:39:811
-3,455820	4,252751	-0,843015	2020-11-19T14:35:39:832
-3,690646	3,957869	-0,896937	2020-11-19T14:35:39:850
-3,941516	3,103065	-0,628063	2020-11-19T14:35:39:873
-2,997816	2,005823	-0,093948	2020-11-19T14:35:39:890
-2,259044	1,393743	0,489004	2020-11-19T14:35:39:913
-2,396195	0,596108	1,263453	2020-11-19T14:35:39:930
-3,488884	-0,253049	2,112756	2020-11-19T14:35:39:953
-4,153562	-1,105178	2,324812	2020-11-19T14:35:39:970
-3,950500	-1,297754	1,709291	2020-11-19T14:35:39:992
-3,196505	-1,653895	0,636982	2020-11-19T14:35:40:009
-2,537828	-1,985048	-0,151164	2020-11-19T14:35:40:033
-1,597246	-2,000871	-0,701667	2020-11-19T14:35:40:050
-0,596191	-1,971038	-0,557643	2020-11-19T14:35:40:073
0,085314	-2,013931	-0,142226	2020-11-19T14:35:40:091
0,619790	-2,380209	0,175549	2020-11-19T14:35:40:114
1,072695	-2,678555	0,304704	2020-11-19T14:35:40:130
1,338565	-2,844014	0,433484	2020-11-19T14:35:40:153
1,510032	-2,862644	0,693874	2020-11-19T14:35:40:170
1,375740	-2,463495	0,580676	2020-11-19T14:35:40:193
1,143185	-1,805198	0,354421	2020-11-19T14:35:40:210
1,020312	-1,521937	0,458794	2020-11-19T14:35:40:233
0,652737	-1,189339	1,119630	2020-11-19T14:35:40:250
0,354603	-0,627849	1,821417	2020-11-19T14:35:40:274
0,201468	-0,337268	2,185290	2020-11-19T14:35:40:291
0,350056	-0,287507	2,122886	2020-11-19T14:35:40:313
0,430816	-0,445505	2,412693	2020-11-19T14:35:40:330
0,108165	-0,813784	3,024517	2020-11-19T14:35:40:353
-0,451956	-1,048288	3,653992	2020-11-19T14:35:40:370
-0,885945	-0,920367	3,960392	2020-11-19T14:35:40:393
-1,468081	-0,705717	4,026325	2020-11-19T14:35:40:410
-2,522140	-0,558599	4,111650	2020-11-19T14:35:40:434
-3,224614	-0,847187	4,397037	2020-11-19T14:35:40:451
-2,539475	-1,994560	4,519821	2020-11-19T14:35:40:474
-2,053732	-1,575816	4,560499	2020-11-19T14:35:40:490
-1,492160	-1,653512	4,484342	2020-11-19T14:35:40:514
-1,022350	-1,649898	4,298672	2020-11-19T14:35:40:532
-0,643210	-1,606268	3,784817	2020-11-19T14:35:40:553
-0,621128	-1,581980	3,104568	2020-11-19T14:35:40:574
-1,715519	-1,177142	2,541012	2020-11-19T14:35:40:596
-2,869402	-0,717643	2,089923	2020-11-19T14:35:40:610
-3,767394	-0,012973	1,450998	2020-11-19T14:35:40:635
-3,986736	0,806672	0,668966	2020-11-19T14:35:40:650
-4,312046	1,232531	0,612457	2020-11-19T14:35:40:674
-4,208728	1,517021	0,451944	2020-11-19T14:35:40:691
-3,523862	1,958812	0,099400	2020-11-19T14:35:40:713
-2,744407	2,425041	-0,345543	2020-11-19T14:35:40:730
-2,324327	2,557905	-0,873482	2020-11-19T14:35:40:754
-1,968764	2,665903	-1,569229	2020-11-19T14:35:40:772
-1,514958	2,662421	-1,815942	2020-11-19T14:35:40:793
-1,181694	2,562331	-1,718685	2020-11-19T14:35:40:811
-0,858327	2,826573	-1,672621	2020-11-19T14:35:40:834
-0,479350	3,146699	-1,974508	2020-11-19T14:35:40:851
-0,011010	3,547458	-2,181817	2020-11-19T14:35:40:874
0,224712	3,894851	-2,368122	2020-11-19T14:35:40:891
0,343107	4,227701	-2,453645	2020-11-19T14:35:40:914
0,558688	4,483946	-2,421450	2020-11-19T14:35:40:931
0,685834	4,613180	-2,587523	2020-11-19T14:35:40:954
0,659678	4,513761	-2,561299	2020-11-19T14:35:40:971
0,497038	4,692395	-2,399730	2020-11-19T14:35:40:994
0,172579	4,655393	-2,194814	2020-11-19T14:35:41:012
0,026627	4,417522	-2,141695	2020-11-19T14:35:41:033
-0,446589	3,855331	-2,043327	2020-11-19T14:35:41:050
-1,300240	2,810556	-1,559023	2020-11-19T14:35:41:075
-1,897582	2,422750	-1,129946	2020-11-19T14:35:41:091
-2,106643	2,213978	-1,087114	2020-11-19T14:35:41:114
-2,004017	1,351196	-1,080035	2020-11-19T14:35:41:131
-1,558650	0,619363	-0,949706	2020-11-19T14:35:41:154
-1,607634	0,615716	-0,539432	2020-11-19T14:35:41:172
-2,318352	0,689042	0,294550	2020-11-19T14:35:41:194
-3,129164	0,260481	0,535548	2020-11-19T14:35:41:211
-3,228065	-0,247161	0,223131	2020-11-19T14:35:41:234
-3,117094	-0,262480	-0,126902	2020-11-19T14:35:41:252
-3,371433	-0,417586	-0,237886	2020-11-19T14:35:41:274
-3,235896	-0,873373	-0,173963	2020-11-19T14:35:41:291
-2,661670	-1,065719	-0,258292	2020-11-19T14:35:41:315
-1,993493	-1,265404	-0,243274	2020-11-19T14:35:41:332
-1,293404	-1,502832	-0,203802	2020-11-19T14:35:41:355
-0,486895	-1,855664	-0,338902	2020-11-19T14:35:41:371
0,278701	-1,788137	-0,608920	2020-11-19T14:35:41:395
0,606592	-1,625895	-0,737432	2020-11-19T14:35:41:412
0,636430	-1,081512	-0,753403	2020-11-19T14:35:41:435
0,416290	-1,229867	-0,789295	2020-11-19T14:35:41:451
0,107664	-1,026121	-0,660950	2020-11-19T14:35:41:477
-0,168950	-0,737806	-0,136232	2020-11-19T14:35:41:493
-0,216806	-0,764127	0,225084	2020-11-19T14:35:41:514
-0,147574	-0,555472	0,302144	2020-11-19T14:35:41:531
0,093894	-0,520147	0,042904	2020-11-19T14:35:41:555
0,117505	-0,694806	0,174958	2020-11-19T14:35:41:571
0,334847	-1,079286	0,618975	2020-11-19T14:35:41:594
0,671594	-1,281299	1,310732	2020-11-19T14:35:41:611
1,049069	-1,000944	1,489481	2020-11-19T14:35:41:635
1,014158	-0,744892	1,561347	2020-11-19T14:35:41:652
0,655716	-0,931068	1,974112	2020-11-19T14:35:41:675
0,173654	-0,970186	2,678001	2020-11-19T14:35:41:692
-0,451077	-0,665269	3,172854	2020-11-19T14:35:41:715
-2,036833	-0,697461	3,643774	2020-11-19T14:35:41:733
-2,955710	-0,619691	4,058887	2020-11-19T14:35:41:754
-3,267138	-0,049776	4,295444	2020-11-19T14:35:41:772
-3,614328	0,597612	4,611951	2020-11-19T14:35:41:796
-3,903069	0,689536	4,899261	2020-11-19T14:35:41:812
-3,739022	1,005365	4,752908	2020-11-19T14:35:41:835
-3,086040	1,554743	4,175821	2020-11-19T14:35:41:852
-2,714118	1,839477	3,547042	2020-11-19T14:35:41:876
-2,864702	1,594104	2,666199	2020-11-19T14:35:41:892
-3,018703	1,361879	2,216750	2020-11-19T14:35:41:914
-3,247557	1,312812	2,087699	2020-11-19T14:35:41:932
-3,736657	1,561924	1,794639	2020-11-19T14:35:41:955
-4,057157	1,971152	1,262969	2020-11-19T14:35:41:973
-3,845625	2,158964	0,764445	2020-11-19T14:35:41:994
-2,915300	2,559222	0,152462	2020-11-19T14:35:42:012
-1,865493	2,915020	-0,360396	2020-11-19T14:35:42:035
-1,166687	3,075234	-0,843756	2020-11-19T14:35:42:051
-0,896847	3,169622	-1,377999	2020-11-19T14:35:42:076
-0,626457	2,848984	-1,624460	2020-11-19T14:35:42:092
-0,598305	2,918536	-1,985093	2020-11-19T14:35:42:116
-0,567136	3,174246	-2,304949	2020-11-19T14:35:42:132
-0,682370	3,381364	-2,588756	2020-11-19T14:35:42:155
-0,694498	3,525811	-2,622920	2020-11-19T14:35:42:172
-0,558482	3,910777	-2,514430	2020-11-19T14:35:42:196
-0,313147	4,159910	-2,357013	2020-11-19T14:35:42:213
0,076946	4,384981	-2,344565	2020-11-19T14:35:42:234
0,401065	4,416600	-2,262601	2020-11-19T14:35:42:252
0,726474	4,404622	-2,290718	2020-11-19T14:35:42:276
0,752853	4,298278	-2,146100	2020-11-19T14:35:42:292
0,312273	4,338827	-1,909339	2020-11-19T14:35:42:315
-0,214200	4,313432	-1,722300	2020-11-19T14:35:42:332
-0,891136	4,272322	-1,558954	2020-11-19T14:35:42:355
-1,951835	4,131089	-1,331245	2020-11-19T14:35:42:373
-2,981333	3,909266	-1,043078	2020-11-19T14:35:42:395
-3,542125	3,207175	-0,863618	2020-11-19T14:35:42:412
-4,164462	2,768124	-0,957344	2020-11-19T14:35:42:436
-5,374177	2,378857	-0,710043	2020-11-19T14:35:42:453
-5,484303	0,805054	0,464555	2020-11-19T14:35:42:475
-3,857524	-0,832706	2,391408	2020-11-19T14:35:42:492
-1,824045	-1,591761	3,793180	2020-11-19T14:35:42:515
-0,136828	-1,705911	3,809238	2020-11-19T14:35:42:532
0,736338	-1,165960	2,893851	2020-11-19T14:35:42:555
0,934399	-0,563806	1,435660	2020-11-19T14:35:42:572
0,682737	-0,256639	0,292110	2020-11-19T14:35:42:595
-0,088731	-0,151599	-0,333358	2020-11-19T14:35:42:613
-1,032641	-0,440920	-0,175708	2020-11-19T14:35:42:635
-1,078505	-1,019657	0,227510	2020-11-19T14:35:42:652
0,052240	-1,320056	0,637980	2020-11-19T14:35:42:676
0,896907	-1,580874	0,879654	2020-11-19T14:35:42:693
0,919716	-2,135897	1,587267	2020-11-19T14:35:42:715
0,637153	-2,411724	1,771334	2020-11-19T14:35:42:733
1,027519	-2,415262	0,883373	2020-11-19T14:35:42:755
0,924302	-2,526590	1,564618	2020-11-19T14:35:42:773
0,771060	-2,603428	2,232713	2020-11-19T14:35:42:795
0,989788	-1,623662	1,946290	2020-11-19T14:35:42:812
1,146320	-0,657711	1,181773	2020-11-19T14:35:42:835
1,345102	-0,578515	0,839832	2020-11-19T14:35:42:853
0,964183	-0,418959	1,937644	2020-11-19T14:35:42:876
0,646773	0,007615	2,605029	2020-11-19T14:35:42:892
0,606715	0,478150	2,173119	2020-11-19T14:35:42:915
0,654286	0,543096	1,508713	2020-11-19T14:35:42:933
0,170175	0,391805	2,069203	2020-11-19T14:35:42:955
-0,684229	0,800658	2,356840	2020-11-19T14:35:42:973
-1,078259	1,266620	2,139945	2020-11-19T14:35:42:995
-1,674714	1,380240	1,844891	2020-11-19T14:35:43:013
-2,766163	1,489810	1,956754	2020-11-19T14:35:43:036
-4,261552	1,565007	2,213181	2020-11-19T14:35:43:052
-5,928725	1,407768	3,244481	2020-11-19T14:35:43:076
-5,835699	1,443567	3,631338	2020-11-19T14:35:43:093
-3,342258	2,048146	2,636768	2020-11-19T14:35:43:116
-2,050585	2,349926	2,087301	2020-11-19T14:35:43:133
-1,759542	1,957050	2,353172	2020-11-19T14:35:43:155
-1,583862	1,619645	2,853130	2020-11-19T14:35:43:174
-1,763028	1,877621	3,043425	2020-11-19T14:35:43:195
-1,728623	2,367040	2,478917	2020-11-19T14:35:43:213
-1,304957	2,711785	1,375300	2020-11-19T14:35:43:236
-0,949500	2,434591	0,615940	2020-11-19T14:35:43:253
-0,980496	2,079654	0,480189	2020-11-19T14:35:43:276
-0,994958	1,973992	0,629823	2020-11-19T14:35:43:293
-1,255925	2,471697	0,383056	2020-11-19T14:35:43:316
-1,876166	2,671308	-0,548499	2020-11-19T14:35:43:335
-2,689952	2,553306	-0,911860	2020-11-19T14:35:43:356
-2,996264	2,387523	-0,924570	2020-11-19T14:35:43:374
-2,615906	2,460334	-0,925052	2020-11-19T14:35:43:396
-2,101202	2,723636	-0,854633	2020-11-19T14:35:43:414
-1,319674	3,035120	-0,743778	2020-11-19T14:35:43:436
-0,367915	3,122228	-0,632674	2020-11-19T14:35:43:453
0,180407	3,085172	-0,101664	2020-11-19T14:35:43:476
0,601363	2,869180	0,993499	2020-11-19T14:35:43:493
1,483746	2,607825	1,709199	2020-11-19T14:35:43:516
1,461174	2,506778	1,347846	2020-11-19T14:35:43:533
0,740074	2,592524	1,138964	2020-11-19T14:35:43:556
0,317175	2,797042	2,464995	2020-11-19T14:35:43:573
0,432169	3,570620	2,400694	2020-11-19T14:35:43:596
0,995609	4,729041	1,674661	2020-11-19T14:35:43:613
1,575792	5,261806	0,475936	2020-11-19T14:35:43:636
1,761467	4,904683	-0,728859	2020-11-19T14:35:43:654
1,607274	4,695465	-1,551878	2020-11-19T14:35:43:676
0,984831	4,033059	-1,772602	2020-11-19T14:35:43:693
-0,007068	3,331557	-1,610882	2020-11-19T14:35:43:716
-0,918621	2,981362	-1,989220	2020-11-19T14:35:43:733
-1,812760	2,361243	-2,780912	2020-11-19T14:35:43:756
-2,755491	1,385002	-2,172652	2020-11-19T14:35:43:774
-2,555145	0,115252	-0,430490	2020-11-19T14:35:43:796
-1,147362	-0,904363	1,395461	2020-11-19T14:35:43:814
-0,034207	-1,291269	2,207241	2020-11-19T14:35:43:836
-0,010416	-1,569248	1,984002	2020-11-19T14:35:43:854
-1,432471	-2,193546	1,300787	2020-11-19T14:35:43:877
-1,839750	-2,361374	1,166529	2020-11-19T14:35:43:895
-1,667528	-2,388461	1,026876	2020-11-19T14:35:43:916
-1,542733	-1,698955	0,796536	2020-11-19T14:35:43:934
-1,593333	-1,011551	0,439234	2020-11-19T14:35:43:956
-1,210490	-0,646840	0,282686	2020-11-19T14:35:43:974
-0,608433	-0,717003	0,130709	2020-11-19T14:35:43:996
-0,143863	-0,821639	-0,009936	2020-11-19T14:35:44:013
0,022691	-1,036445	-0,059017	2020-11-19T14:35:44:036
0,137424	-1,256726	0,003382	2020-11-19T14:35:44:054
0,311943	-1,598055	0,221535	2020-11-19T14:35:44:077
0,575106	-1,711947	0,333365	2020-11-19T14:35:44:094
0,607911	-1,531185	0,380820	2020-11-19T14:35:44:117
0,624971	-1,110598	0,554548	2020-11-19T14:35:44:135
0,770933	-0,959850	0,793830	2020-11-19T14:35:44:157
0,891315	-0,716483	0,946678	2020-11-19T14:35:44:174
0,942538	-0,818172	1,203202	2020-11-19T14:35:44:197
1,179750	-1,026909	1,483311	2020-11-19T14:35:44:214
1,428469	-1,302669	1,825852	2020-11-19T14:35:44:237
1,124857	-1,352012	2,213870	2020-11-19T14:35:44:254
0,526448	-1,501530	2,485626	2020-11-19T14:35:44:277
0,103441	-1,869703	2,816287	2020-11-19T14:35:44:294
-0,151785	-2,342798	2,999355	2020-11-19T14:35:44:317
-0,175536	-2,713720	3,093820	2020-11-19T14:35:44:334
0,000222	-2,963366	3,112957	2020-11-19T14:35:44:357
0,057464	-3,056120	3,153192	2020-11-19T14:35:44:376
-0,353289	-2,748095	3,232357	2020-11-19T14:35:44:397
-1,019280	-2,527459	3,306995	2020-11-19T14:35:44:416
-1,714675	-2,407342	3,193866	2020-11-19T14:35:44:437
-2,303558	-2,210564	2,913350	2020-11-19T14:35:44:454
-2,323919	-2,181693	2,950436	2020-11-19T14:35:44:477
-1,984097	-1,875228	3,027554	2020-11-19T14:35:44:494
-1,518123	-1,359703	2,756701	2020-11-19T14:35:44:517
-2,096471	-1,056772	1,993645	2020-11-19T14:35:44:535
-3,668367	-0,395055	0,947146	2020-11-19T14:35:44:557
-5,159096	-0,301734	0,470975	2020-11-19T14:35:44:574
-6,183114	0,473609	0,037961	2020-11-19T14:35:44:597
-6,431007	1,490201	-0,247624	2020-11-19T14:35:44:615
-6,021808	2,197404	-0,494806	2020-11-19T14:35:44:637
-5,263903	2,635363	-0,616517	2020-11-19T14:35:44:654
-4,216171	2,959569	-0,661752	2020-11-19T14:35:44:677
-3,452320	3,126306	-0,709759	2020-11-19T14:35:44:694
-2,977918	3,260919	-1,159406	2020-11-19T14:35:44:717
-2,823570	3,392868	-1,466261	2020-11-19T14:35:44:734
-2,992990	3,502052	-1,695124	2020-11-19T14:35:44:757
-2,922881	3,774734	-1,957501	2020-11-19T14:35:44:775
-2,869060	4,297940	-2,118646	2020-11-19T14:35:44:798
-2,330675	4,580294	-2,104289	2020-11-19T14:35:44:814
-1,815237	5,092916	-2,243278	2020-11-19T14:35:44:837
-1,420680	5,502048	-2,430201	2020-11-19T14:35:44:856
-1,208168	5,778681	-2,507254	2020-11-19T14:35:44:877
-1,243602	5,589137	-2,559595	2020-11-19T14:35:44:895
-1,196358	5,575862	-2,678530	2020-11-19T14:35:44:917
-1,141158	5,444870	-2,746891	2020-11-19T14:35:44:935
-0,952048	5,596052	-2,920189	2020-11-19T14:35:44:957
-0,908939	5,665802	-2,929895	2020-11-19T14:35:44:975
-0,496527	5,488222	-2,675415	2020-11-19T14:35:44:998
-0,054061	5,381431	-2,215652	2020-11-19T14:35:45:015
-0,175274	4,938715	-1,776271	2020-11-19T14:35:45:037
-0,489119	4,636992	-1,657300	2020-11-19T14:35:45:054
-1,153029	4,407798	-1,559811	2020-11-19T14:35:45:078
-2,743882	4,236742	-1,258597	2020-11-19T14:35:45:096
-4,020349	3,777170	-0,935191	2020-11-19T14:35:45:117
-4,991802	3,361684	-2,033345	2020-11-19T14:35:45:136
-6,288513	2,908068	-2,900827	2020-11-19T14:35:45:157
-7,531451	2,500956	-3,271393	2020-11-19T14:35:45:175
-7,532823	1,605856	-3,041880	2020-11-19T14:35:45:198
-6,880165	0,729184	-2,470711	2020-11-19T14:35:45:214
-6,802257	-0,152239	-1,884638	2020-11-19T14:35:45:238
-7,103633	-1,088495	-1,525736	2020-11-19T14:35:45:255
-6,938880	-2,210642	-1,032770	2020-11-19T14:35:45:278
-5,826639	-3,302438	-0,886473	2020-11-19T14:35:45:295
-4,243275	-3,967621	-1,231641	2020-11-19T14:35:45:318
-2,777655	-4,050550	-2,073728	2020-11-19T14:35:45:336
-1,903876	-5,208114	-3,012708	2020-11-19T14:35:45:358
-1,456418	-5,026260	-3,019886	2020-11-19T14:35:45:376
-1,234961	-6,022221	-3,029736	2020-11-19T14:35:45:397
-1,222974	-7,195672	-3,457266	2020-11-19T14:35:45:415
-1,710829	-8,295940	-3,745754	2020-11-19T14:35:45:438
-1,692174	-8,947876	-3,654584	2020-11-19T14:35:45:455
-0,923723	-9,140084	-4,743301	2020-11-19T14:35:45:478
-0,279321	-8,736202	-5,904833	2020-11-19T14:35:45:496
0,251592	-8,710848	-6,394794	2020-11-19T14:35:45:518
0,304457	-8,990086	-6,038800	2020-11-19T14:35:45:535
-0,080833	-8,715430	-5,242843	2020-11-19T14:35:45:558
0,087300	-7,987823	-4,469356	2020-11-19T14:35:45:576
0,363093	-7,040856	-3,934153	2020-11-19T14:35:45:599
0,629171	-6,132327	-3,482553	2020-11-19T14:35:45:615
0,988277	-5,878289	-3,449278	2020-11-19T14:35:45:638
1,342563	-5,802227	-3,040361	2020-11-19T14:35:45:655
1,374504	-5,827468	-2,270490	2020-11-19T14:35:45:678
1,112718	-5,749092	-1,652460	2020-11-19T14:35:45:695
1,008999	-5,265900	-1,277165	2020-11-19T14:35:45:718
0,821046	-4,666944	-0,939353	2020-11-19T14:35:45:736
0,223621	-4,451493	-0,764694	2020-11-19T14:35:45:758
-0,654291	-4,885341	-0,641934	2020-11-19T14:35:45:776
-1,719687	-5,432340	0,320219	2020-11-19T14:35:45:798
-2,519368	-6,151094	1,816670	2020-11-19T14:35:45:816
-2,398953	-6,476992	2,051127	2020-11-19T14:35:45:838
-1,765226	-6,621760	1,448702	2020-11-19T14:35:45:856
-1,505199	-7,783310	0,689905	2020-11-19T14:35:45:879
-2,033988	-9,362266	0,395496	2020-11-19T14:35:45:896
-2,507243	-10,604503	0,238462	2020-11-19T14:35:45:918
-2,246454	-10,891836	-0,245669	2020-11-19T14:35:45:936
-1,898203	-10,589485	-0,638319	2020-11-19T14:35:45:958
-1,898391	-10,055754	-1,043899	2020-11-19T14:35:45:976
-1,983212	-9,204971	-0,906007	2020-11-19T14:35:45:998
-1,608101	-8,225906	-0,814240	2020-11-19T14:35:46:015
-1,077381	-6,663836	-1,419102	2020-11-19T14:35:46:039
-0,536954	-6,069438	-0,923005	2020-11-19T14:35:46:057
0,207424	-6,059435	-0,518919	2020-11-19T14:35:46:078
0,791128	-5,867530	-0,627030	2020-11-19T14:35:46:096
0,796602	-4,781635	-0,157028	2020-11-19T14:35:46:119
0,572244	-3,974127	0,619731	2020-11-19T14:35:46:136
0,408946	-3,691975	1,313423	2020-11-19T14:35:46:159
0,234305	-2,572747	1,595271	2020-11-19T14:35:46:176
-0,332304	-1,032892	1,565498	2020-11-19T14:35:46:198
-1,352449	-0,013556	1,675359	2020-11-19T14:35:46:216
-1,893234	0,837337	2,306041	2020-11-19T14:35:46:239
-2,062886	1,573606	2,709146	2020-11-19T14:35:46:256
-2,738070	2,848105	2,684195	2020-11-19T14:35:46:279
-3,344314	3,774750	2,164401	2020-11-19T14:35:46:297
-3,507151	5,159330	1,692619	2020-11-19T14:35:46:318
-3,387930	5,929213	1,446731	2020-11-19T14:35:46:336
-3,139565	5,837625	1,344765	2020-11-19T14:35:46:359
-2,675066	5,765559	1,045352	2020-11-19T14:35:46:376
-2,590473	5,636152	0,969234	2020-11-19T14:35:46:399
-2,372726	5,442333	0,954877	2020-11-19T14:35:46:416
-1,718259	5,010812	0,864572	2020-11-19T14:35:46:439
-1,361959	4,548657	0,468885	2020-11-19T14:35:46:456
-2,374801	4,402756	-0,486111	2020-11-19T14:35:46:480
-3,207893	3,855083	-1,144140	2020-11-19T14:35:46:496
-3,526614	2,003505	-0,174588	2020-11-19T14:35:46:520
-3,808131	-0,167240	2,721810	2020-11-19T14:35:46:537
-3,542803	-0,640800	4,686677	2020-11-19T14:35:46:558
-3,215754	-0,127810	4,853211	2020-11-19T14:35:46:577
-3,131730	0,851676	3,073357	2020-11-19T14:35:46:598
-3,097671	1,385170	1,321364	2020-11-19T14:35:46:616
-2,424637	0,783902	0,280389	2020-11-19T14:35:46:639
-2,174177	0,291782	0,410487	2020-11-19T14:35:46:656
-1,857144	0,600754	0,687297	2020-11-19T14:35:46:679
-1,161411	1,155864	0,562443	2020-11-19T14:35:46:697
-0,081513	1,621249	0,061642	2020-11-19T14:35:46:719
0,516196	1,310981	-0,278527	2020-11-19T14:35:46:736
1,142776	0,371551	0,100682	2020-11-19T14:35:46:759
1,539848	-0,019544	0,727789	2020-11-19T14:35:46:778
1,607110	-0,079499	0,962499	2020-11-19T14:35:46:799
1,231273	-0,223315	0,976382	2020-11-19T14:35:46:816
1,275135	-0,569293	1,050252	2020-11-19T14:35:46:839
1,406013	-0,205154	0,913351	2020-11-19T14:35:46:857
1,696938	0,550033	0,575738	2020-11-19T14:35:46:879
2,040331	0,784919	0,602819	2020-11-19T14:35:46:897
2,234970	0,746836	0,849964	2020-11-19T14:35:46:919
2,245460	1,108349	0,848350	2020-11-19T14:35:46:937
2,363332	1,426199	0,808341	2020-11-19T14:35:46:959
2,582311	1,226316	0,949750	2020-11-19T14:35:46:977
2,304130	0,694935	1,218379	2020-11-19T14:35:46:999
1,914772	-0,193272	2,054128	2020-11-19T14:35:47:017
1,958996	-0,076992	1,591103	2020-11-19T14:35:47:039
1,671103	0,524266	0,299555	2020-11-19T14:35:47:057
1,122597	-0,338900	1,477863	2020-11-19T14:35:47:079
0,934533	-2,055551	2,266667	2020-11-19T14:35:47:097
1,049110	-1,619972	3,185986	2020-11-19T14:35:47:119
0,578954	-0,943973	3,117100	2020-11-19T14:35:47:137
0,323245	-1,715253	3,187596	2020-11-19T14:35:47:159
-0,449009	-2,530782	3,838807	2020-11-19T14:35:47:177
-1,032225	-2,409374	4,266983	2020-11-19T14:35:47:199
-1,089844	-2,453205	3,968786	2020-11-19T14:35:47:217
-0,891610	-3,208602	3,398353	2020-11-19T14:35:47:239
-0,241147	-3,935961	3,041161	2020-11-19T14:35:47:258
0,525221	-4,105044	2,311228	2020-11-19T14:35:47:280
-0,171204	-4,195086	1,206833	2020-11-19T14:35:47:299
-1,356637	-4,397501	0,488651	2020-11-19T14:35:47:320
-1,289651	-4,528781	-0,115942	2020-11-19T14:35:47:337
-0,455984	-4,087466	-0,424640	2020-11-19T14:35:47:360
0,437517	-3,392461	-0,561085	2020-11-19T14:35:47:377
0,891527	-2,804995	-0,240455	2020-11-19T14:35:47:400
1,357239	-2,043904	-0,128883	2020-11-19T14:35:47:417
1,976862	-1,502142	-0,418609	2020-11-19T14:35:47:440
2,311192	-1,100800	-0,965029	2020-11-19T14:35:47:457
2,395268	-1,094220	-0,972029	2020-11-19T14:35:47:480
2,300585	-0,903025	-0,595610	2020-11-19T14:35:47:498
1,993941	-0,504660	-1,048641	2020-11-19T14:35:47:520
1,533265	-0,205585	-1,504321	2020-11-19T14:35:47:537
-5,768813	3,528963	-3,332093	2020-11-19T14:35:47:560
-6,068802	3,835510	-3,016356	2020-11-19T14:35:47:577
-6,309689	4,190152	-2,402764	2020-11-19T14:35:47:600
-6,837855	4,565609	-1,601099	2020-11-19T14:35:47:617
-6,832443	5,059664	-1,714205	2020-11-19T14:35:47:640
0,664342	1,984723	-0,059420	2020-11-19T14:35:47:657
0,702953	2,475167	0,001201	2020-11-19T14:35:47:680
0,670392	2,554180	0,411325	2020-11-19T14:35:47:697
1,034295	2,562487	0,919663	2020-11-19T14:35:47:720
1,342633	2,699546	1,016854	2020-11-19T14:35:47:738
1,312035	3,265007	0,691342	2020-11-19T14:35:47:760
0,826637	3,349587	0,426379	2020-11-19T14:35:47:777
-0,076909	3,597504	0,359585	2020-11-19T14:35:47:800
-0,688463	4,126028	0,449790	2020-11-19T14:35:47:817
-1,728212	4,396144	0,438418	2020-11-19T14:35:47:840
-3,525904	4,512653	-0,356449	2020-11-19T14:35:47:858
-6,148146	3,844397	-0,988915	2020-11-19T14:35:47:880
-7,838948	2,723265	-1,006629	2020-11-19T14:35:47:898
-6,589930	2,140912	-0,660382	2020-11-19T14:35:47:920
-4,161012	1,960745	-0,251954	2020-11-19T14:35:47:937
-2,765324	1,568779	-0,136156	2020-11-19T14:35:47:960
-1,676425	1,169367	-0,194852	2020-11-19T14:35:47:979
-0,733885	0,728782	-0,304913	2020-11-19T14:35:47:999
-0,110431	0,231414	-0,640172	2020-11-19T14:35:48:017
0,189016	0,029505	-1,164743	2020-11-19T14:35:48:040
0,042052	-0,216672	-1,798925	2020-11-19T14:35:48:057
-0,438224	-0,090509	-2,055570	2020-11-19T14:35:48:081
-0,602524	-0,077276	-2,237512	2020-11-19T14:35:48:097
-0,849486	0,240489	-2,232189	2020-11-19T14:35:48:120
-1,311366	0,395994	-2,369770	2020-11-19T14:35:48:138
-1,484080	0,120815	-2,390103	2020-11-19T14:35:48:160
-0,728186	-0,551619	-2,586489	2020-11-19T14:35:48:178
-0,534726	-0,763615	-2,397355	2020-11-19T14:35:48:201
-0,558655	-1,287643	-2,375819	2020-11-19T14:35:48:219
-0,748894	-1,441294	-1,796164	2020-11-19T14:35:48:240
-0,726769	-1,308491	-1,179248	2020-11-19T14:35:48:258
-0,559612	-1,033675	-0,960732	2020-11-19T14:35:48:281
-0,347619	-0,887521	-0,716318	2020-11-19T14:35:48:297
-0,298612	-1,269754	-0,096639	2020-11-19T14:35:48:320
-0,303571	-1,805233	1,140937	2020-11-19T14:35:48:338
-0,225873	-2,246378	1,634614	2020-11-19T14:35:48:360
0,146312	-2,577137	1,816860	2020-11-19T14:35:48:379
0,209235	-3,422549	1,744808	2020-11-19T14:35:48:400
-1,230639	-4,511078	1,658177	2020-11-19T14:35:48:417
-4,403033	-5,690393	1,740586	2020-11-19T14:35:48:441
-7,263185	-6,365869	2,501933	2020-11-19T14:35:48:459
-6,246009	-6,293990	3,378447	2020-11-19T14:35:48:481
-2,200261	-4,977670	4,324080	2020-11-19T14:35:48:498
0,765285	-3,699147	4,086394	2020-11-19T14:35:48:521
0,476549	-3,247587	3,609096	2020-11-19T14:35:48:538
-0,863446	-3,362482	3,255846	2020-11-19T14:35:48:561
-1,452170	-3,410174	2,625278	2020-11-19T14:35:48:578
-1,926831	-3,182735	1,912588	2020-11-19T14:35:48:601
-2,674586	-2,943997	1,374964	2020-11-19T14:35:48:619
-3,447114	-2,522218	1,133491	2020-11-19T14:35:48:641
-4,158902	-1,957287	1,075826	2020-11-19T14:35:48:658
-4,585539	-0,957865	0,688474	2020-11-19T14:35:48:681
-4,488722	0,480064	0,174113	2020-11-19T14:35:48:699
-3,850693	1,348973	-0,381353	2020-11-19T14:35:48:721
-2,965918	1,581174	-1,017600	2020-11-19T14:35:48:738
-2,314075	1,667125	-1,609542	2020-11-19T14:35:48:761
-1,936775	1,917362	-2,172774	2020-11-19T14:35:48:779
-1,459662	2,201506	-2,721106	2020-11-19T14:35:48:801
-1,130060	2,304268	-3,004895	2020-11-19T14:35:48:818
-0,715226	2,232130	-3,125810	2020-11-19T14:35:48:841
-0,167835	2,352788	-3,309129	2020-11-19T14:35:48:859
0,165211	2,721180	-3,404096	2020-11-19T14:35:48:882
0,304898	2,896857	-3,552257	2020-11-19T14:35:48:898
0,195604	2,975538	-3,505805	2020-11-19T14:35:48:921
-0,036087	3,079311	-3,489781	2020-11-19T14:35:48:939
-0,039073	3,299799	-3,550547	2020-11-19T14:35:48:961
-0,083961	3,480844	-3,681442	2020-11-19T14:35:48:979
-0,513431	3,643371	-3,684443	2020-11-19T14:35:49:002
-1,355180	3,692448	-3,513511	2020-11-19T14:35:49:018
-2,038969	3,339934	-2,993748	2020-11-19T14:35:49:042
-2,135965	3,528882	-2,284644	2020-11-19T14:35:49:058
-1,260719	3,589598	-1,831730	2020-11-19T14:35:49:082
0,022476	2,794924	-0,540727	2020-11-19T14:35:49:099
0,570499	1,249248	1,149409	2020-11-19T14:35:49:122
0,249527	0,305314	2,656497	2020-11-19T14:35:49:139
-0,811008	-0,333333	3,492527	2020-11-19T14:35:49:162
-1,699106	-0,952031	3,147597	2020-11-19T14:35:49:180
-2,582087	-1,220865	2,044554	2020-11-19T14:35:49:201
-3,662269	-1,585436	2,049180	2020-11-19T14:35:49:219
-3,293765	-1,524901	3,711603	2020-11-19T14:35:49:242
-1,111957	-0,256092	3,667697	2020-11-19T14:35:49:259
1,165895	0,877555	3,805574	2020-11-19T14:35:49:282
1,816914	0,330166	4,002218	2020-11-19T14:35:49:299
2,368061	0,139693	3,671068	2020-11-19T14:35:49:322
2,696038	-0,062690	2,995194	2020-11-19T14:35:49:339
2,843192	-0,494426	2,092646	2020-11-19T14:35:49:362
2,812723	-0,536364	1,436670	2020-11-19T14:35:49:379
2,727684	0,127723	0,901588	2020-11-19T14:35:49:402
2,528100	0,714802	0,247820	2020-11-19T14:35:49:420
2,264929	0,784208	-0,447990	2020-11-19T14:35:49:442
1,957126	0,545587	-0,648276	2020-11-19T14:35:49:459
2,155949	0,191945	-0,512188	2020-11-19T14:35:49:482
2,676551	-0,053362	-0,394084	2020-11-19T14:35:49:499
3,056672	-0,402101	-0,695952	2020-11-19T14:35:49:522
3,459538	-0,586478	-0,739228	2020-11-19T14:35:49:539
-1,859419	3,608129	-3,693895	2020-11-19T14:35:49:562
-1,724675	3,666755	-4,172221	2020-11-19T14:35:49:580
-1,970939	3,743466	-4,577267	2020-11-19T14:35:49:602
-2,346366	3,792695	-5,017363	2020-11-19T14:35:49:619
-3,232010	3,991925	-5,238231	2020-11-19T14:35:49:642
-5,294862	4,101469	-5,893041	2020-11-19T14:35:49:660
-8,483328	4,157431	-6,468595	2020-11-19T14:35:49:682
-10,758535	3,459440	-5,729818	2020-11-19T14:35:49:699
-10,040240	2,592823	-6,068961	2020-11-19T14:35:49:722
-8,231790	2,545003	-7,331396	2020-11-19T14:35:49:739
-7,214822	2,618919	-8,046889	2020-11-19T14:35:49:762
-6,545527	2,391892	-7,146462	2020-11-19T14:35:49:780
-6,405410	2,962027	-5,550859	2020-11-19T14:35:49:802
-7,061798	3,738731	-4,054585	2020-11-19T14:35:49:820
-7,462193	3,024191	-3,125062	2020-11-19T14:35:49:842
-6,659822	1,343986	-3,039383	2020-11-19T14:35:49:860
-6,571799	-0,331696	-2,259656	2020-11-19T14:35:49:883
-7,967470	0,055009	-2,448333	2020-11-19T14:35:49:900
-8,912709	1,851713	-3,982675	2020-11-19T14:35:49:922
-8,575142	4,426455	-5,413602	2020-11-19T14:35:49:939
-8,311907	6,535371	-6,999948	2020-11-19T14:35:49:962
-8,518221	6,256307	-7,745660	2020-11-19T14:35:49:980
-9,699770	4,030423	-6,239957	2020-11-19T14:35:50:002
-10,173138	3,760615	-3,826744	2020-11-19T14:35:50:020
-12,932799	-3,035282	13,095226	2020-11-19T14:35:50:042
-20,071512	5,284537	7,586035	2020-11-19T14:35:50:060
-10,144874	4,121351	-9,309323	2020-11-19T14:35:50:083
-7,737244	0,353088	1,051654	2020-11-19T14:35:50:100
-10,738207	-4,033131	-1,101880	2020-11-19T14:35:50:123
-11,476177	-3,929399	-0,427399	2020-11-19T14:35:50:141
-10,649775	0,194849	-2,894622	2020-11-19T14:35:50:162
-10,011740	-1,061051	-3,284766	2020-11-19T14:35:50:181
-9,199177	-3,860144	1,286110	2020-11-19T14:35:50:203
-8,864584	-2,370249	1,637255	2020-11-19T14:35:50:220
-8,051180	-1,687156	0,407586	2020-11-19T14:35:50:250
1,836676	-2,993358	1,686164	2020-11-19T14:35:50:260
1,292676	-2,200462	1,322088	2020-11-19T14:35:50:283
1,269435	-0,632194	1,587324	2020-11-19T14:35:50:300
1,677041	-0,552561	1,706540	2020-11-19T14:35:50:323
2,181235	-0,320905	1,319736	2020-11-19T14:35:50:340
3,673279	0,083757	1,381849	2020-11-19T14:35:50:363
4,265286	0,349712	1,882788	2020-11-19T14:35:50:381
4,536172	0,752585	2,272971	2020-11-19T14:35:50:402
4,304671	1,039400	2,272987	2020-11-19T14:35:50:420
4,076899	1,054701	1,752193	2020-11-19T14:35:50:443
3,517438	0,899318	1,483873	2020-11-19T14:35:50:460
2,728599	0,464210	1,085259	2020-11-19T14:35:50:483
1,896582	-0,149657	0,849925	2020-11-19T14:35:50:500
1,305200	-0,440216	0,393235	2020-11-19T14:35:50:523
1,242738	-1,105674	-0,368504	2020-11-19T14:35:50:540
0,471575	-2,174192	-0,274407	2020-11-19T14:35:50:563
-0,806192	-2,339297	1,728386	2020-11-19T14:35:50:581
-0,476251	-1,202565	1,046396	2020-11-19T14:35:50:606
-0,199006	-0,710015	-0,405070	2020-11-19T14:35:50:621
-0,195159	-1,356794	-1,039685	2020-11-19T14:35:50:643
0,027483	0,077795	-0,807117	2020-11-19T14:35:50:660
0,311217	1,779149	-0,516706	2020-11-19T14:35:50:684
1,098936	2,324538	-0,192313	2020-11-19T14:35:50:700
1,804586	2,951344	0,650179	2020-11-19T14:35:50:723
2,019034	3,145902	1,452219	2020-11-19T14:35:50:740
1,833231	2,805540	2,108845	2020-11-19T14:35:50:763
1,904302	2,030482	2,020209	2020-11-19T14:35:50:781
1,973036	1,216243	1,826948	2020-11-19T14:35:50:803
2,061696	0,503502	1,259525	2020-11-19T14:35:50:820
1,807516	0,316292	0,477874	2020-11-19T14:35:50:844
2,047475	0,160981	-0,503363	2020-11-19T14:35:50:862
2,546071	0,012959	-1,239614	2020-11-19T14:35:50:884
3,129333	0,119722	-1,640068	2020-11-19T14:35:50:900
4,319609	0,427322	-2,355045	2020-11-19T14:35:50:923
5,364534	0,742990	-2,767600	2020-11-19T14:35:50:942
6,253440	1,434918	-2,574779	2020-11-19T14:35:50:963
6,737726	1,450446	-2,329057	2020-11-19T14:35:50:981
7,269608	1,131368	-1,011211	2020-11-19T14:35:51:004
8,271731	0,350593	0,058476	2020-11-19T14:35:51:021
9,020227	-1,374465	0,270778	2020-11-19T14:35:51:043
7,961071	-4,068384	0,530234	2020-11-19T14:35:51:060
6,251127	-5,900150	-0,227117	2020-11-19T14:35:51:084
5,304831	-6,638936	-0,855564	2020-11-19T14:35:51:102
5,045516	-6,459814	-0,471285	2020-11-19T14:35:51:123
4,211124	-5,281150	-0,197939	2020-11-19T14:35:51:141
3,308584	-4,273449	-0,883183	2020-11-19T14:35:51:164
2,918188	-3,322684	-1,717896	2020-11-19T14:35:51:181
2,215734	-1,846621	-2,704832	2020-11-19T14:35:51:204
1,587818	-0,949248	-3,012464	2020-11-19T14:35:51:221
1,332834	-1,090975	-2,573299	2020-11-19T14:35:51:245
1,124922	-1,042546	-1,948862	2020-11-19T14:35:51:261
0,548725	-0,362280	-1,732109	2020-11-19T14:35:51:284
0,276318	0,121719	-1,590390	2020-11-19T14:35:51:301
0,080815	1,364181	-0,472028	2020-11-19T14:35:51:324
0,032404	2,278171	0,323006	2020-11-19T14:35:51:342
0,380313	2,481710	1,022565	2020-11-19T14:35:51:364
0,473271	2,347475	1,023211	2020-11-19T14:35:51:381
0,154497	2,187854	0,951633	2020-11-19T14:35:51:404
-0,601450	1,665612	-0,007087	2020-11-19T14:35:51:421
-0,902685	1,293911	-0,638881	2020-11-19T14:35:51:444
-0,745867	1,674775	-0,708165	2020-11-19T14:35:51:461
-0,424555	2,465710	-0,301816	2020-11-19T14:35:51:484
-0,615834	3,220912	-0,152529	2020-11-19T14:35:51:501
-1,112954	3,940903	-0,081893	2020-11-19T14:35:51:524
-1,270995	3,791316	-0,071408	2020-11-19T14:35:51:541
-0,790010	2,762634	0,306659	2020-11-19T14:35:51:564
-0,725033	1,080626	1,844755	2020-11-19T14:35:51:582
-0,307595	0,146741	3,543975	2020-11-19T14:35:51:604
0,563520	0,729383	3,343248	2020-11-19T14:35:51:621
0,734054	1,512680	2,227486	2020-11-19T14:35:51:644
0,662166	1,936078	1,310003	2020-11-19T14:35:51:661
0,521440	2,001102	0,596443	2020-11-19T14:35:51:685
0,444869	1,874283	0,271019	2020-11-19T14:35:51:702
0,169875	0,581580	1,209738	2020-11-19T14:35:51:724
0,144330	-1,137899	1,316901	2020-11-19T14:35:51:742
0,440757	-2,124556	-0,023650	2020-11-19T14:35:51:764
0,865995	-2,201193	-1,782640	2020-11-19T14:35:51:781
1,675852	-1,864536	-2,602316	2020-11-19T14:35:51:805
2,593390	-1,899686	-2,368155	2020-11-19T14:35:51:822
3,020786	-1,848908	-0,583545	2020-11-19T14:35:51:845
3,255967	-1,945186	0,810082	2020-11-19T14:35:51:862
2,134704	-1,250305	-0,546928	2020-11-19T14:35:51:885
1,059224	-0,638387	-1,387686	2020-11-19T14:35:51:901
0,870925	-0,917441	-1,952554	2020-11-19T14:35:51:924
0,399435	-0,999884	-1,539059	2020-11-19T14:35:51:941
-0,177520	-1,162767	0,236968	2020-11-19T14:35:51:964
-0,246362	-0,165459	0,818395	2020-11-19T14:35:51:982
-0,118507	-0,205565	-0,391146	2020-11-19T14:35:52:004
-0,287617	0,825641	-1,904839	2020-11-19T14:35:52:021
-0,860840	1,970425	-0,030794	2020-11-19T14:35:52:045
-1,389014	-0,245620	2,131894	2020-11-19T14:35:52:063
-1,360252	-0,943502	2,309357	2020-11-19T14:35:52:085
0,321733	1,462642	0,471575	2020-11-19T14:35:52:103
0,588995	1,081318	-0,276752	2020-11-19T14:35:52:125
0,033055	-0,627796	2,019701	2020-11-19T14:35:52:141
-0,859741	0,059032	2,462182	2020-11-19T14:35:52:164
-0,230297	2,748392	0,047285	2020-11-19T14:35:52:183
0,751047	1,924625	-0,271009	2020-11-19T14:35:52:204
0,808730	-1,544059	1,718004	2020-11-19T14:35:52:222
1,573013	-5,006695	2,002524	2020-11-19T14:35:52:245
-0,003857	-4,676485	-0,148624	2020-11-19T14:35:52:261
-2,996507	0,151509	-0,730794	2020-11-19T14:35:52:285
-4,538621	2,731819	-1,057361	2020-11-19T14:35:52:304
-6,079599	1,233912	-0,803721	2020-11-19T14:35:52:325
-6,299476	-1,381488	-1,909989	2020-11-19T14:35:52:343
-5,452974	-1,301029	-4,113493	2020-11-19T14:35:52:365
-4,960580	-0,998265	-2,965097	2020-11-19T14:35:52:382
-4,490062	1,680264	-2,466949	2020-11-19T14:35:52:405
-3,643112	0,635293	-2,826728	2020-11-19T14:35:52:421
-3,825366	-0,675210	-2,269790	2020-11-19T14:35:52:445
-3,103601	-1,080146	-1,983514	2020-11-19T14:35:52:462
-3,744781	-0,681979	-1,505651	2020-11-19T14:35:52:485
-3,225778	0,630094	-2,280924	2020-11-19T14:35:52:503
-2,691688	1,219273	-2,188188	2020-11-19T14:35:52:525
-2,566197	1,641027	-1,623907	2020-11-19T14:35:52:543
-2,146842	1,573734	-1,066023	2020-11-19T14:35:52:565
-2,680015	0,835096	-1,303081	2020-11-19T14:35:52:582
-3,179320	-0,004220	-2,363573	2020-11-19T14:35:52:605
-3,507548	-0,727788	-2,746054	2020-11-19T14:35:52:622
-3,711161	-1,707105	-2,860743	2020-11-19T14:35:52:645
-3,676717	-2,027033	-1,313602	2020-11-19T14:35:52:662
-3,362820	0,146556	-0,989216	2020-11-19T14:35:52:685
-3,264035	0,383713	-0,461585	2020-11-19T14:35:52:702
-2,899946	1,281600	0,200298	2020-11-19T14:35:52:725
-1,993464	2,525728	-0,635128	2020-11-19T14:35:52:742
-1,534978	3,091525	-0,746696	2020-11-19T14:35:52:765
-0,319447	2,644607	0,398694	2020-11-19T14:35:52:783
0,402038	3,091578	1,414199	2020-11-19T14:35:52:805
0,517426	3,499221	1,255522	2020-11-19T14:35:52:822
0,260870	4,085827	0,319200	2020-11-19T14:35:52:845
0,118557	4,112873	-0,519938	2020-11-19T14:35:52:863
0,043359	3,568583	-1,001765	2020-11-19T14:35:52:886
-0,147227	3,890716	-1,545083	2020-11-19T14:35:52:902
-0,250547	4,000246	-1,865428	2020-11-19T14:35:52:925
0,319422	3,815960	-1,979713	2020-11-19T14:35:52:943
1,166762	3,469899	-1,855876	2020-11-19T14:35:52:965
1,701820	3,378900	-1,561919	2020-11-19T14:35:52:983
1,868912	3,544390	-1,199472	2020-11-19T14:35:53:005
1,384705	3,715094	-0,775185	2020-11-19T14:35:53:023
0,817394	3,629262	-0,769665	2020-11-19T14:35:53:045
0,186912	3,526599	-1,027478	2020-11-19T14:35:53:062
-0,169285	3,200278	-1,219256	2020-11-19T14:35:53:085
0,052250	2,360598	-1,463752	2020-11-19T14:35:53:102
0,600262	1,499453	-0,670073	2020-11-19T14:35:53:126
1,040809	0,515132	0,049529	2020-11-19T14:35:53:142
1,218500	-0,469266	0,425406	2020-11-19T14:35:53:165
0,810088	-0,755790	0,041770	2020-11-19T14:35:53:185
0,680115	-1,155764	-0,658603	2020-11-19T14:35:53:205
0,686786	-1,418924	-1,149016	2020-11-19T14:35:53:223
0,319651	-1,512272	-1,510614	2020-11-19T14:35:53:246
-0,683229	-1,380019	-1,959667	2020-11-19T14:35:53:263
-1,748497	-1,774371	-1,873684	2020-11-19T14:35:53:285
-2,293041	-2,201519	-1,609074	2020-11-19T14:35:53:303
-2,485143	-2,179905	-1,429330	2020-11-19T14:35:53:326
-2,181520	-1,827389	-1,390096	2020-11-19T14:35:53:342
-1,479647	-1,547956	-1,250741	2020-11-19T14:35:53:366
-0,869556	-0,969106	-0,823207	2020-11-19T14:35:53:384
-0,433824	-0,270314	-0,558645	2020-11-19T14:35:53:405
-0,077648	0,222586	-0,394422	2020-11-19T14:35:53:423
0,342708	0,460176	-0,511139	2020-11-19T14:35:53:445
0,545825	0,716144	-0,708150	2020-11-19T14:35:53:463
0,801889	1,042251	-0,848991	2020-11-19T14:35:53:486
0,885214	1,243168	-1,000675	2020-11-19T14:35:53:504
1,020761	1,559475	-1,181659	2020-11-19T14:35:53:526
1,064257	1,856614	-1,272788	2020-11-19T14:35:53:543
0,910289	2,312457	-1,208809	2020-11-19T14:35:53:566
0,382806	2,853610	-1,057590	2020-11-19T14:35:53:583
-0,254631	2,920543	-1,054570	2020-11-19T14:35:53:606
-0,729568	3,056682	-1,158883	2020-11-19T14:35:53:623
-0,841267	2,843856	-1,163856	2020-11-19T14:35:53:646
-0,911526	2,644919	-1,205832	2020-11-19T14:35:53:663
-1,382917	2,392065	-1,230441	2020-11-19T14:35:53:686
-2,203721	2,192190	-1,150109	2020-11-19T14:35:53:704
-3,212474	1,985351	-1,062999	2020-11-19T14:35:53:726
-3,707440	1,769747	-0,720324	2020-11-19T14:35:53:744
-3,778862	1,445060	-0,261677	2020-11-19T14:35:53:766
-3,873498	1,068791	0,124119	2020-11-19T14:35:53:783
-3,910707	0,486910	0,708635	2020-11-19T14:35:53:806
-3,091000	0,063654	1,066801	2020-11-19T14:35:53:823
-1,434916	-0,067502	1,060208	2020-11-19T14:35:53:846
-0,017595	-0,354180	1,238863	2020-11-19T14:35:53:863
1,081772	-0,543431	1,185833	2020-11-19T14:35:53:886
1,400581	-0,161179	0,911123	2020-11-19T14:35:53:904
0,843379	0,186821	0,113269	2020-11-19T14:35:53:926
0,187896	0,334980	-0,612037	2020-11-19T14:35:53:943
0,034839	0,600348	-1,257864	2020-11-19T14:35:53:966
-0,333316	0,480382	-1,513754	2020-11-19T14:35:53:985
-0,644270	0,570108	-1,556793	2020-11-19T14:35:54:006
-0,622015	0,526712	-1,518577	2020-11-19T14:35:54:023
-0,354315	0,588081	-1,482325	2020-11-19T14:35:54:046
0,206905	0,495960	-1,391966	2020-11-19T14:35:54:063
0,467375	0,389064	-0,593913	2020-11-19T14:35:54:087
0,320311	0,604224	-0,115051	2020-11-19T14:35:54:103
0,357455	1,050871	-0,029747	2020-11-19T14:35:54:127
0,427878	1,532941	-0,000078	2020-11-19T14:35:54:144
0,582257	1,710066	-0,140025	2020-11-19T14:35:54:167
0,558739	1,756614	0,301211	2020-11-19T14:35:54:185
0,392698	1,974949	0,983915	2020-11-19T14:35:54:206
0,514536	2,440596	1,587360	2020-11-19T14:35:54:225
0,508151	2,540848	1,883669	2020-11-19T14:35:54:246
0,649361	2,513591	2,045683	2020-11-19T14:35:54:263
0,868007	2,328352	2,222851	2020-11-19T14:35:54:287
0,830307	2,368506	2,463733	2020-11-19T14:35:54:304
0,419705	2,135932	2,529112	2020-11-19T14:35:54:327
0,187539	1,580771	2,409476	2020-11-19T14:35:54:344
-0,194386	0,968859	2,259167	2020-11-19T14:35:54:367
-1,177615	0,436374	1,845238	2020-11-19T14:35:54:384
-2,609310	-0,443472	1,523400	2020-11-19T14:35:54:407
-3,958861	-0,778467	1,628685	2020-11-19T14:35:54:424
-3,904973	-1,342447	2,031175	2020-11-19T14:35:54:447
-2,934905	-1,697531	2,431373	2020-11-19T14:35:54:465
-2,023890	-1,966040	2,819510	2020-11-19T14:35:54:497
-1,106462	-2,151572	2,558192	2020-11-19T14:35:54:504
-1,368620	-2,219629	1,455205	2020-11-19T14:35:54:527
-3,310224	-2,301336	0,622872	2020-11-19T14:35:54:544
-5,158043	-2,187806	0,037637	2020-11-19T14:35:54:567
-5,864854	-1,761753	-0,524776	2020-11-19T14:35:54:584
-5,455613	-1,137080	-1,217594	2020-11-19T14:35:54:607
-4,322714	-0,614767	-1,727849	2020-11-19T14:35:54:624
-3,243735	0,305320	-1,903309	2020-11-19T14:35:54:647
-1,030375	0,920276	-1,742990	2020-11-19T14:35:54:664
-0,048779	1,134126	-1,692925	2020-11-19T14:35:54:687
0,226750	1,466069	-2,326490	2020-11-19T14:35:54:706
0,552176	1,123896	-2,582522	2020-11-19T14:35:54:727
0,345524	1,169801	-2,992660	2020-11-19T14:35:54:744
-0,207160	1,801165	-3,484821	2020-11-19T14:35:54:768
-0,156911	1,657596	-3,582927	2020-11-19T14:35:54:785
-0,499466	1,743025	-3,796329	2020-11-19T14:35:54:807
-0,767064	1,929443	-3,734565	2020-11-19T14:35:54:824
-0,866586	2,547225	-3,545924	2020-11-19T14:35:54:847
-0,868510	3,003128	-3,135172	2020-11-19T14:35:54:865
-0,730542	3,396019	-2,925070	2020-11-19T14:35:54:888
-0,290704	3,707108	-3,147711	2020-11-19T14:35:54:904
0,115232	3,741331	-3,407728	2020-11-19T14:35:54:928
0,384071	3,685573	-3,444132	2020-11-19T14:35:54:945
0,346361	3,442555	-3,085216	2020-11-19T14:35:54:967
0,202233	3,210604	-2,589114	2020-11-19T14:35:54:985
-0,180027	3,000280	-2,106927	2020-11-19T14:35:55:007
-1,105027	3,010886	-1,805114	2020-11-19T14:35:55:025
-1,900357	2,662752	-1,179210	2020-11-19T14:35:55:048
-2,068133	2,335371	-0,567588	2020-11-19T14:35:55:065
-2,023224	2,031683	0,240120	2020-11-19T14:35:55:088
-1,787682	1,478984	0,664394	2020-11-19T14:35:55:105
-1,771411	1,056226	1,045975	2020-11-19T14:35:55:128
-1,448705	0,309679	1,643577	2020-11-19T14:35:55:145
-0,742662	-0,292845	2,413210	2020-11-19T14:35:55:168
-0,156109	-0,775747	3,249996	2020-11-19T14:35:55:186
0,072514	-1,167148	3,821526	2020-11-19T14:35:55:207
0,369968	-1,458398	3,789069	2020-11-19T14:35:55:225
0,804011	-1,567624	3,222248	2020-11-19T14:35:55:248
0,863862	-1,233077	2,320670	2020-11-19T14:35:55:265
0,482249	-1,071169	1,770805	2020-11-19T14:35:55:288
0,020678	-0,860863	1,555568	2020-11-19T14:35:55:305
-0,168978	-0,395507	1,619675	2020-11-19T14:35:55:328
-0,532291	-0,202679	1,556428	2020-11-19T14:35:55:345
-0,824136	-0,308990	1,571367	2020-11-19T14:35:55:368
-0,276207	-0,732850	1,953798	2020-11-19T14:35:55:385
0,527882	-1,353661	2,365928	2020-11-19T14:35:55:408
1,152905	-2,171416	2,732258	2020-11-19T14:35:55:426
1,316628	-2,970270	2,659863	2020-11-19T14:35:55:448
1,231113	-3,180464	2,428277	2020-11-19T14:35:55:465
1,221873	-3,220947	2,560940	2020-11-19T14:35:55:488
1,310356	-3,168545	2,657732	2020-11-19T14:35:55:505
1,457252	-2,827063	2,471273	2020-11-19T14:35:55:528
1,382030	-2,038135	2,267096	2020-11-19T14:35:55:545
1,166943	-1,435106	1,996210	2020-11-19T14:35:55:568
0,863167	-0,995941	1,796973	2020-11-19T14:35:55:586
0,172509	-0,633703	1,634319	2020-11-19T14:35:55:610
-0,320517	-0,386956	1,262802	2020-11-19T14:35:55:625
-1,006485	-0,254620	0,868951	2020-11-19T14:35:55:649
-2,010283	-0,322227	0,441104	2020-11-19T14:35:55:667
-3,151320	-0,533901	0,229907	2020-11-19T14:35:55:690
-3,438459	-0,562615	0,194015	2020-11-19T14:35:55:705
-3,240348	-1,152306	0,683913	2020-11-19T14:35:55:728
-2,451811	-1,527833	0,575760	2020-11-19T14:35:55:745
-1,798593	-1,739182	0,482728	2020-11-19T14:35:55:770
-0,810357	-1,882752	-0,103514	2020-11-19T14:35:55:786
-0,996580	-2,013355	-1,096267	2020-11-19T14:35:55:808
-2,605925	-2,002897	-1,914841	2020-11-19T14:35:55:826
-3,773720	-1,916141	-2,500695	2020-11-19T14:35:55:849
-3,935757	-1,567562	-3,126619	2020-11-19T14:35:55:866
-3,304042	-0,984499	-3,774303	2020-11-19T14:35:55:889
-2,371956	-0,305007	-4,088930	2020-11-19T14:35:55:907
-1,486992	0,338626	-4,047936	2020-11-19T14:35:55:930
-0,640938	0,984202	-3,646426	2020-11-19T14:35:55:946
0,323009	1,514688	-3,117215	2020-11-19T14:35:55:969
0,818320	1,445874	-2,861202	2020-11-19T14:35:55:986
0,913374	1,177221	-3,056756	2020-11-19T14:35:56:010
0,742711	1,084886	-3,864475	2020-11-19T14:35:56:026
0,460322	1,196480	-4,187359	2020-11-19T14:35:56:049
0,347559	1,041554	-4,291073	2020-11-19T14:35:56:066
0,380631	0,966458	-4,052481	2020-11-19T14:35:56:090
0,651016	1,254020	-3,721171	2020-11-19T14:35:56:106
0,726716	1,532826	-3,491175	2020-11-19T14:35:56:129
0,794252	1,795675	-2,893486	2020-11-19T14:35:56:147
0,940069	2,198947	-2,526876	2020-11-19T14:35:56:169
0,982883	2,497601	-2,132853	2020-11-19T14:35:56:186
0,621301	2,488970	-2,123833	2020-11-19T14:35:56:209
0,175391	2,315030	-2,129971	2020-11-19T14:35:56:226
-0,176669	2,265133	-1,917560	2020-11-19T14:35:56:250
-0,513073	2,151525	-1,485346	2020-11-19T14:35:56:266
-0,877834	2,070825	-0,855789	2020-11-19T14:35:56:289
-1,728416	1,710382	-0,174401	2020-11-19T14:35:56:306
-2,471397	1,463192	0,345481	2020-11-19T14:35:56:330
-2,776994	1,180155	0,656954	2020-11-19T14:35:56:346
-2,583935	0,924445	0,835577	2020-11-19T14:35:56:370
-2,759346	0,835019	0,890676	2020-11-19T14:35:56:387
-2,876359	0,198416	1,660295	2020-11-19T14:35:56:411
-1,537723	-0,654246	2,570906	2020-11-19T14:35:56:426
0,289274	-1,004589	2,910228	2020-11-19T14:35:56:449
1,074072	-0,156291	1,856128	2020-11-19T14:35:56:466
-0,218152	4,112131	5,415698	2020-11-19T14:35:56:491
-0,361324	-2,220554	5,631741	2020-11-19T14:35:56:506
-0,098934	-2,378092	4,360821	2020-11-19T14:35:56:529
-0,290348	-1,957678	3,375989	2020-11-19T14:35:56:546
-0,409879	-1,388458	2,115246	2020-11-19T14:35:56:572
-0,601882	-0,319078	1,856050	2020-11-19T14:35:56:586
-0,423058	0,358614	1,300417	2020-11-19T14:35:56:609
-0,192924	1,126165	1,057175	2020-11-19T14:35:56:627
0,017399	0,842030	-0,054255	2020-11-19T14:35:56:650
0,172486	0,245474	-0,476227	2020-11-19T14:35:56:666
0,326606	-0,290421	0,084390	2020-11-19T14:35:56:690
0,754264	-0,245786	1,121450	2020-11-19T14:35:56:705
1,109840	-0,266049	1,653186	2020-11-19T14:35:56:730
1,006618	0,222259	2,649995	2020-11-19T14:35:56:746
1,172146	0,084190	1,545736	2020-11-19T14:35:56:769
1,324925	-1,001544	0,541177	2020-11-19T14:35:56:788
1,211673	-1,863464	0,805853	2020-11-19T14:35:56:810
1,203876	-1,835381	0,753745	2020-11-19T14:35:56:827
1,043470	-1,013956	0,635017	2020-11-19T14:35:56:850
0,239684	0,170855	0,014838	2020-11-19T14:35:56:870
0,208578	0,493886	-0,932719	2020-11-19T14:35:56:890
-0,380373	0,731784	-1,124301	2020-11-19T14:35:56:907
-0,837486	0,898808	-1,264947	2020-11-19T14:35:56:929
-1,348058	1,228520	-1,415279	2020-11-19T14:35:56:947
-1,751614	1,578184	-1,808774	2020-11-19T14:35:56:970
-2,243322	1,973350	-1,848916	2020-11-19T14:35:56:987
-2,610188	2,254293	-1,505848	2020-11-19T14:35:57:009
-3,762616	2,039443	-1,020510	2020-11-19T14:35:57:027
-4,945467	2,123369	-0,833255	2020-11-19T14:35:57:051
-4,432416	2,454547	-0,721412	2020-11-19T14:35:57:067
-2,302120	2,510428	-0,407279	2020-11-19T14:35:57:090
-1,068601	2,714736	-0,842357	2020-11-19T14:35:57:108
-1,711913	3,164218	-0,715580	2020-11-19T14:35:57:130
-3,087369	3,259233	-0,349825	2020-11-19T14:35:57:147
-4,565087	3,070833	0,110835	2020-11-19T14:35:57:170
-5,315768	3,185003	0,333429	2020-11-19T14:35:57:187
-5,536013	3,446789	0,327021	2020-11-19T14:35:57:211
-4,842215	3,585968	-0,533387	2020-11-19T14:35:57:226
-3,849018	3,397956	2,164826	2020-11-19T14:35:57:250
-3,047676	4,760036	5,409022	2020-11-19T14:35:57:267
-2,037284	3,832613	4,833911	2020-11-19T14:35:57:291
-1,622087	2,663531	2,853638	2020-11-19T14:35:57:306
-1,649009	1,914955	1,782873	2020-11-19T14:35:57:330
-1,629198	0,584711	2,360486	2020-11-19T14:35:57:347
-1,568840	0,986343	2,144725	2020-11-19T14:35:57:371
-1,764127	1,699206	1,847236	2020-11-19T14:35:57:387
-2,510421	2,000214	1,659016	2020-11-19T14:35:57:410
-2,323035	0,826071	0,002778	2020-11-19T14:35:57:427
-2,821975	0,588409	-0,398875	2020-11-19T14:35:57:451
-2,208067	1,203334	-1,309760	2020-11-19T14:35:57:466
-2,013960	1,474139	-1,991057	2020-11-19T14:35:57:490
-2,462277	1,187174	-1,214899	2020-11-19T14:35:57:507
-2,865488	1,128450	-0,792776	2020-11-19T14:35:57:531
-3,221684	1,587197	-0,668895	2020-11-19T14:35:57:547
-3,366522	2,278057	-1,011906	2020-11-19T14:35:57:570
-3,363090	3,053631	-0,974462	2020-11-19T14:35:57:588
-3,555419	2,928329	-0,467657	2020-11-19T14:35:57:610
-3,998592	3,038297	-0,118834	2020-11-19T14:35:57:627
-4,533837	3,593600	-0,743230	2020-11-19T14:35:57:650
-4,333631	3,923997	-0,664000	2020-11-19T14:35:57:667
-4,089539	4,439128	-0,650381	2020-11-19T14:35:57:692
-3,743080	4,846563	-0,582470	2020-11-19T14:35:57:707
-3,342114	5,397612	-1,088710	2020-11-19T14:35:57:730
-2,947294	6,017868	-1,232400	2020-11-19T14:35:57:748
-2,801332	6,216660	-1,127262	2020-11-19T14:35:57:771
-3,175213	6,161242	-0,802004	2020-11-19T14:35:57:788
-3,547281	5,849495	-0,511984	2020-11-19T14:35:57:811
-3,611870	5,502177	-0,208892	2020-11-19T14:35:57:828
-3,307878	5,040726	0,045336	2020-11-19T14:35:57:851
-3,033464	4,406712	0,296711	2020-11-19T14:35:57:867
-2,871940	3,824261	0,715280	2020-11-19T14:35:57:891
-3,175230	3,365535	0,706161	2020-11-19T14:35:57:908
-3,968640	2,840549	0,614774	2020-11-19T14:35:57:932
-4,591188	1,767456	0,566875	2020-11-19T14:35:57:948
-4,777424	0,840584	0,592027	2020-11-19T14:35:57:970
-4,473812	0,515012	0,366455	2020-11-19T14:35:57:989
-3,899680	0,391869	-0,491996	2020-11-19T14:35:58:011
-3,304036	-0,028112	-0,948547	2020-11-19T14:35:58:027
-2,612011	-0,990478	-0,902673	2020-11-19T14:35:58:051
-1,757043	-1,460993	-0,713271	2020-11-19T14:35:58:068
-0,840589	-1,980739	-0,827157	2020-11-19T14:35:58:091
0,033760	-2,057725	-0,855574	2020-11-19T14:35:58:108
0,336128	-1,779836	-0,852352	2020-11-19T14:35:58:131
0,149489	-1,731980	-0,837995	2020-11-19T14:35:58:147
-0,247269	-1,816816	-0,877403	2020-11-19T14:35:58:171
-0,609686	-1,825961	-0,700008	2020-11-19T14:35:58:188
-0,691597	-1,698185	-0,615343	2020-11-19T14:35:58:210
-0,369364	-1,428287	-0,633967	2020-11-19T14:35:58:229
0,251798	-1,110100	-0,502092	2020-11-19T14:35:58:251
0,837407	-0,562439	0,030255	2020-11-19T14:35:58:268
1,100901	-0,183383	0,481663	2020-11-19T14:35:58:291
1,185165	0,390684	0,842433	2020-11-19T14:35:58:309
1,134003	0,785275	1,052407	2020-11-19T14:35:58:332
1,055039	0,778097	1,236654	2020-11-19T14:35:58:348
0,805888	0,928535	1,385417	2020-11-19T14:35:58:371
0,403337	1,188762	1,764246	2020-11-19T14:35:58:389
-0,098558	1,501975	2,062051	2020-11-19T14:35:58:412
-0,577830	1,857514	2,426616	2020-11-19T14:35:58:427
-0,805259	2,046950	2,575066	2020-11-19T14:35:58:450
-0,786885	2,026523	2,586749	2020-11-19T14:35:58:468
-0,871130	1,955564	2,579252	2020-11-19T14:35:58:492
-1,101349	1,751362	2,852360	2020-11-19T14:35:58:508
-1,630127	1,610496	3,335628	2020-11-19T14:35:58:531
-2,253922	1,501372	3,744443	2020-11-19T14:35:58:549
-3,128553	1,969291	4,468892	2020-11-19T14:35:58:572
-4,040866	3,409782	4,920650	2020-11-19T14:35:58:589
-2,922535	2,921203	3,256629	2020-11-19T14:35:58:611
-2,341801	4,697435	4,915626	2020-11-19T14:35:58:628
-0,525876	4,734167	5,407282	2020-11-19T14:35:58:652
-0,798663	2,566566	3,703812	2020-11-19T14:35:58:668
-2,955323	1,022410	2,531317	2020-11-19T14:35:58:691
-4,634318	0,292262	1,837916	2020-11-19T14:35:58:708
-4,244975	0,963996	1,008171	2020-11-19T14:35:58:732
-2,990589	0,948586	0,265918	2020-11-19T14:35:58:748
-2,124454	0,737521	-0,085926	2020-11-19T14:35:58:771
-1,521810	0,470007	-0,263812	2020-11-19T14:35:58:789
-0,505631	0,506379	-0,171269	2020-11-19T14:35:58:812
0,094381	0,510642	-0,199684	2020-11-19T14:35:58:828
0,178744	0,615906	-0,369271	2020-11-19T14:35:58:851
0,314996	0,722492	-0,603604	2020-11-19T14:35:58:868
0,492495	0,901095	-0,867896	2020-11-19T14:35:58:893
0,392667	1,157413	-1,191471	2020-11-19T14:35:58:908
0,154665	1,614757	-1,326376	2020-11-19T14:35:58:931
-0,276829	1,999848	-1,829204	2020-11-19T14:35:58:949
-0,148350	2,595506	-1,971872	2020-11-19T14:35:58:972
-0,045243	2,645916	-2,060860	2020-11-19T14:35:58:989
0,138198	2,657756	-2,277990	2020-11-19T14:35:59:011
0,292527	2,726708	-2,435859	2020-11-19T14:35:59:029
0,500847	2,760167	-2,293496	2020-11-19T14:35:59:052
0,624944	2,825840	-2,188670	2020-11-19T14:35:59:068
0,924038	2,841113	-2,004173	2020-11-19T14:35:59:092
1,169450	2,649474	-1,541860	2020-11-19T14:35:59:108
1,290089	2,514277	-1,162454	2020-11-19T14:35:59:132
1,373124	2,631075	-0,911682	2020-11-19T14:35:59:148
1,036089	2,599632	-0,733781	2020-11-19T14:35:59:172
-0,078966	2,625953	-0,611747	2020-11-19T14:35:59:189
-0,965016	2,525935	-0,486529	2020-11-19T14:35:59:212
-1,520044	2,305756	-0,382739	2020-11-19T14:35:59:228
-2,290838	1,696591	0,078519	2020-11-19T14:35:59:251
-2,763525	1,276494	0,896813	2020-11-19T14:35:59:269
-2,985714	0,785775	1,788535	2020-11-19T14:35:59:293
-3,856075	0,159327	2,194981	2020-11-19T14:35:59:309
-4,606530	-0,366518	2,408235	2020-11-19T14:35:59:331
-4,347342	-0,660581	3,183917	2020-11-19T14:35:59:349
-3,574165	-1,016430	4,277153	2020-11-19T14:35:59:372
-1,834835	-1,041162	5,125228	2020-11-19T14:35:59:389
0,466702	-1,131766	5,636529	2020-11-19T14:35:59:411
1,392495	-0,972039	5,961415	2020-11-19T14:35:59:429
0,850667	-0,846953	5,616322	2020-11-19T14:35:59:452
0,279297	-0,692063	4,434073	2020-11-19T14:35:59:469
0,006832	-0,744166	2,998706	2020-11-19T14:35:59:492
-0,229604	-1,042553	1,751353	2020-11-19T14:35:59:510
-0,136964	-1,046257	0,884380	2020-11-19T14:35:59:532
0,147312	-0,609643	0,304825	2020-11-19T14:35:59:549
0,533866	-0,200072	-0,040141	2020-11-19T14:35:59:572
1,113669	0,125585	-0,102046	2020-11-19T14:35:59:589
1,572194	0,135853	0,130474	2020-11-19T14:35:59:612
1,776884	0,177816	0,178081	2020-11-19T14:35:59:629
1,876581	-0,081187	0,222203	2020-11-19T14:35:59:651
1,833043	-0,032682	0,162849	2020-11-19T14:35:59:669
1,813563	0,334788	0,349913	2020-11-19T14:35:59:693
1,659163	0,809744	0,202921	2020-11-19T14:35:59:709
1,488649	1,223335	0,129801	2020-11-19T14:35:59:732
1,257573	1,568178	0,082052	2020-11-19T14:35:59:750
0,944004	1,848431	0,025859	2020-11-19T14:35:59:773
0,830786	2,495586	-0,081620	2020-11-19T14:35:59:791
0,779537	2,882551	-0,140868	2020-11-19T14:35:59:812
0,790960	3,011965	-0,164331	2020-11-19T14:35:59:829
0,805387	2,818778	0,150921	2020-11-19T14:35:59:853
0,751816	2,625247	0,511178	2020-11-19T14:35:59:869
0,465480	2,265446	1,034286	2020-11-19T14:35:59:892
0,142563	1,773239	1,274100	2020-11-19T14:35:59:910
-0,057839	1,348590	1,399485	2020-11-19T14:35:59:933
-0,435910	0,861625	1,556796	2020-11-19T14:35:59:949
-1,050533	0,525930	1,425277	2020-11-19T14:35:59:972
-2,001621	0,044548	1,467916	2020-11-19T14:35:59:992
-2,706374	-0,460417	1,614915	2020-11-19T14:36:00:013
-3,203213	-0,884699	2,313289	2020-11-19T14:36:00:029
-3,591856	-1,394817	2,523866	2020-11-19T14:36:00:052
-4,016904	-1,839189	2,963407	2020-11-19T14:36:00:069
-2,663711	-2,248859	3,417666	2020-11-19T14:36:00:094
0,128284	-2,423872	3,090887	2020-11-19T14:36:00:109
1,762936	-2,388221	2,433238	2020-11-19T14:36:00:132
1,231136	-2,213266	1,758181	2020-11-19T14:36:00:150
-0,684455	-1,682904	1,327673	2020-11-19T14:36:00:173
-1,995321	-1,141717	0,804898	2020-11-19T14:36:00:190
-2,476892	-0,580146	0,386819	2020-11-19T14:36:00:212
-2,157686	-0,213857	0,054072	2020-11-19T14:36:00:231
-1,432137	-0,061580	-0,216254	2020-11-19T14:36:00:253
-1,323958	-0,164887	-0,272013	2020-11-19T14:36:00:270
-1,004635	-0,033010	-0,435466	2020-11-19T14:36:00:293
-0,729747	0,385193	-0,739749	2020-11-19T14:36:00:309
-0,653418	0,635556	-1,085067	2020-11-19T14:36:00:333
-0,624975	0,621692	-1,545263	2020-11-19T14:36:00:349
-0,521868	0,654124	-1,853740	2020-11-19T14:36:00:372
-0,493584	0,832902	-2,061747	2020-11-19T14:36:00:390
-0,222626	1,039588	-2,231954	2020-11-19T14:36:00:413
-0,097165	1,316507	-2,459347	2020-11-19T14:36:00:430
0,019660	1,634600	-2,481959	2020-11-19T14:36:00:453
0,130257	2,046146	-2,464693	2020-11-19T14:36:00:471
0,352711	2,397408	-2,447176	2020-11-19T14:36:00:494
0,736442	2,646454	-2,312031	2020-11-19T14:36:00:510
0,864090	2,780628	-2,246991	2020-11-19T14:36:00:533
0,949395	2,812897	-2,219699	2020-11-19T14:36:00:550
0,850306	2,798563	-2,204480	2020-11-19T14:36:00:574
0,419070	2,802445	-2,070144	2020-11-19T14:36:00:594
0,035887	2,790072	-1,953846	2020-11-19T14:36:00:613
-0,479677	2,721020	-1,737043	2020-11-19T14:36:00:630
-0,919815	2,613912	-1,316250	2020-11-19T14:36:00:653
-1,332779	2,379863	-1,068451	2020-11-19T14:36:00:670
-1,815055	2,069748	-1,082779	2020-11-19T14:36:00:693
-2,109515	1,681294	-0,741020	2020-11-19T14:36:00:711
-2,278345	1,470388	-0,573143	2020-11-19T14:36:00:733
-3,158922	1,178578	-0,461035	2020-11-19T14:36:00:751
-3,893391	0,483575	0,241963	2020-11-19T14:36:00:773
-2,858284	-0,077063	0,899109	2020-11-19T14:36:00:790
-0,735252	-0,785075	1,475814	2020-11-19T14:36:00:815
0,276911	-0,897537	1,528456	2020-11-19T14:36:00:830
1,023800	-1,124685	1,518984	2020-11-19T14:36:00:853
0,839325	-0,944675	1,379965	2020-11-19T14:36:00:871
-0,074306	-0,857603	1,105941	2020-11-19T14:36:00:894
-0,856998	-0,943442	0,766087	2020-11-19T14:36:00:910
-1,068257	-1,227496	0,403991	2020-11-19T14:36:00:933
-1,097625	-1,504591	0,386281	2020-11-19T14:36:00:951
-0,801441	-1,570393	0,545905	2020-11-19T14:36:00:974
0,010595	-1,615346	0,603572	2020-11-19T14:36:00:991
0,682945	-1,665984	0,422572	2020-11-19T14:36:01:013
1,208810	-1,890118	0,371796	2020-11-19T14:36:01:030
1,345075	-2,097476	0,484344	2020-11-19T14:36:01:054
1,488885	-2,340652	0,862809	2020-11-19T14:36:01:070
1,765646	-2,330195	0,765554	2020-11-19T14:36:01:094
1,567067	-2,052167	0,530468	2020-11-19T14:36:01:111
1,177535	-1,894701	0,672240	2020-11-19T14:36:01:134
0,851782	-1,496706	0,838111	2020-11-19T14:36:01:150
0,883133	-1,141943	1,021301	2020-11-19T14:36:01:173
1,071320	-1,128767	1,254441	2020-11-19T14:36:01:192
1,369147	-1,048588	1,438341	2020-11-19T14:36:01:214
1,368022	-1,268768	1,681022	2020-11-19T14:36:01:230
1,012131	-1,455514	2,103790	2020-11-19T14:36:01:253
0,444379	-1,609710	2,620261	2020-11-19T14:36:01:271
-0,006430	-1,591475	3,024469	2020-11-19T14:36:01:295
-0,431410	-1,516814	3,225336	2020-11-19T14:36:01:311
-1,028137	-1,610271	3,240073	2020-11-19T14:36:01:333
-1,818352	-1,759311	3,413620	2020-11-19T14:36:01:351
-2,119168	-1,749732	3,697265	2020-11-19T14:36:01:376
-1,769409	-1,592369	3,826993	2020-11-19T14:36:01:391
-1,711200	-1,575030	3,748779	2020-11-19T14:36:01:414
-2,723001	-1,869484	3,771881	2020-11-19T14:36:01:432
-3,430734	-2,164718	4,215787	2020-11-19T14:36:01:454
-1,800438	-2,051230	4,113245	2020-11-19T14:36:01:470
0,423779	-1,522940	3,122997	2020-11-19T14:36:01:494
1,005811	-1,033072	1,792343	2020-11-19T14:36:01:511
0,170838	-0,695171	0,758686	2020-11-19T14:36:01:535
-1,191491	-0,209933	0,360948	2020-11-19T14:36:01:551
-2,614951	0,241450	0,021859	2020-11-19T14:36:01:573
-4,104356	0,512773	-0,383005	2020-11-19T14:36:01:592
-4,751939	0,553714	-0,857108	2020-11-19T14:36:01:614
-4,639696	0,394503	-1,308242	2020-11-19T14:36:01:630
-3,827183	0,222222	-1,782067	2020-11-19T14:36:01:654
-2,919289	0,345564	-2,097391	2020-11-19T14:36:01:672
-2,012631	0,663390	-2,389975	2020-11-19T14:36:01:695
-1,549944	1,015010	-2,784012	2020-11-19T14:36:01:711
-1,512283	1,095123	-3,098146	2020-11-19T14:36:01:734
-1,435584	1,052814	-3,209223	2020-11-19T14:36:01:751
-1,346803	1,007802	-3,149141	2020-11-19T14:36:01:775
-1,070676	1,119913	-3,248782	2020-11-19T14:36:01:791
-0,977311	1,205745	-3,144678	2020-11-19T14:36:01:814
-0,898482	1,513994	-2,824202	2020-11-19T14:36:01:831
-0,830832	2,133538	-2,365641	2020-11-19T14:36:01:855
