v1	v2	v3	v4	ts
0,000000	0,000000	0,000000	0,000000	2020-11-19T14:35:16:406
0,000000	0,000000	0,000000	0,000000	2020-11-19T14:35:16:407
0,000000	0,000000	0,000000	0,000000	2020-11-19T14:35:16:447
0,000000	0,000000	0,000000	0,000000	2020-11-19T14:35:16:486
0,000000	0,000000	0,000000	0,000000	2020-11-19T14:35:16:526
0,000000	0,000000	0,000000	0,000000	2020-11-19T14:35:16:566
0,000000	0,000000	0,000000	0,000000	2020-11-19T14:35:16:607
0,000000	0,000000	0,000000	0,000000	2020-11-19T14:35:16:647
0,000000	0,000000	0,000000	0,000000	2020-11-19T14:35:16:686
0,000000	0,000000	0,000000	0,000000	2020-11-19T14:35:16:726
0,000000	0,000000	0,000000	0,000000	2020-11-19T14:35:16:767
0,000000	0,000000	0,000000	0,000000	2020-11-19T14:35:16:807
0,000000	0,000000	0,000000	0,000000	2020-11-19T14:35:16:847
0,000000	0,000000	0,000000	0,000000	2020-11-19T14:35:16:887
0,000000	0,000000	0,000000	0,000000	2020-11-19T14:35:16:927
0,000000	0,000000	0,000000	0,000000	2020-11-19T14:35:16:968
0,000000	0,000000	0,000000	0,000000	2020-11-19T14:35:17:007
0,000000	0,000000	0,000000	0,000000	2020-11-19T14:35:17:047
0,000000	0,000000	0,000000	0,000000	2020-11-19T14:35:17:089
0,000000	0,000000	0,000000	0,000000	2020-11-19T14:35:17:200
0,000000	0,000000	0,000000	0,000000	2020-11-19T14:35:17:200
0,000000	0,000000	0,000000	0,000000	2020-11-19T14:35:17:214
0,000000	0,000000	0,000000	0,000000	2020-11-19T14:35:17:257
0,000000	0,000000	0,000000	0,000000	2020-11-19T14:35:17:287
0,000000	0,000000	0,000000	0,000000	2020-11-19T14:35:17:327
0,000000	0,000000	0,000000	0,000000	2020-11-19T14:35:17:368
0,000000	0,000000	0,000000	0,000000	2020-11-19T14:35:17:408
0,000000	0,000000	0,000000	0,000000	2020-11-19T14:35:17:449
0,000000	0,000000	0,000000	0,000000	2020-11-19T14:35:17:488
0,000000	0,000000	0,000000	0,000000	2020-11-19T14:35:17:538
0,000000	0,000000	0,000000	0,000000	2020-11-19T14:35:17:599
0,000000	0,000000	0,000000	0,000000	2020-11-19T14:35:17:609
0,000000	0,000000	0,000000	0,000000	2020-11-19T14:35:17:656
0,000000	0,000000	0,000000	0,000000	2020-11-19T14:35:17:777
0,000000	0,000000	0,000000	0,000000	2020-11-19T14:35:17:777
0,000000	0,000000	0,000000	0,000000	2020-11-19T14:35:17:778
0,000000	0,000000	0,000000	0,000000	2020-11-19T14:35:17:808
0,000000	0,000000	0,000000	0,000000	2020-11-19T14:35:17:849
0,000000	0,000000	0,000000	0,000000	2020-11-19T14:35:17:890
0,000000	0,000000	0,000000	0,000000	2020-11-19T14:35:17:929
0,000000	0,000000	0,000000	0,000000	2020-11-19T14:35:17:969
0,000000	0,000000	0,000000	0,000000	2020-11-19T14:35:18:009
0,000000	0,000000	0,000000	0,000000	2020-11-19T14:35:18:050
0,000000	0,000000	0,000000	0,000000	2020-11-19T14:35:18:089
0,000000	0,000000	0,000000	0,000000	2020-11-19T14:35:18:129
0,000000	0,000000	0,000000	0,000000	2020-11-19T14:35:18:169
0,000000	0,000000	0,000000	0,000000	2020-11-19T14:35:18:209
0,000000	0,000000	0,000000	0,000000	2020-11-19T14:35:18:250
0,000000	0,000000	0,000000	0,000000	2020-11-19T14:35:18:289
0,000000	0,000000	0,000000	0,000000	2020-11-19T14:35:18:329
0,000000	0,000000	0,000000	0,000000	2020-11-19T14:35:18:370
0,000000	0,000000	0,000000	0,000000	2020-11-19T14:35:18:411
0,000000	0,000000	0,000000	0,000000	2020-11-19T14:35:18:451
0,000000	0,000000	0,000000	0,000000	2020-11-19T14:35:18:491
0,000000	0,000000	0,000000	0,000000	2020-11-19T14:35:18:530
0,000000	0,000000	0,000000	0,000000	2020-11-19T14:35:18:580
0,000000	0,000000	0,000000	0,000000	2020-11-19T14:35:18:617
0,000000	0,000000	0,000000	0,000000	2020-11-19T14:35:18:652
0,000000	0,000000	0,000000	0,000000	2020-11-19T14:35:18:691
0,000000	0,000000	0,000000	0,000000	2020-11-19T14:35:18:731
0,000000	0,000000	0,000000	0,000000	2020-11-19T14:35:18:771
0,000000	0,000000	0,000000	0,000000	2020-11-19T14:35:18:810
0,000000	0,000000	0,000000	0,000000	2020-11-19T14:35:18:851
0,000000	0,000000	0,000000	0,000000	2020-11-19T14:35:18:891
0,000000	0,000000	0,000000	0,000000	2020-11-19T14:35:18:930
0,000000	0,000000	0,000000	0,000000	2020-11-19T14:35:18:970
0,000000	0,000000	0,000000	0,000000	2020-11-19T14:35:19:011
0,000000	0,000000	0,000000	0,000000	2020-11-19T14:35:19:051
0,000000	0,000000	0,000000	0,000000	2020-11-19T14:35:19:091
0,000000	0,000000	0,000000	0,000000	2020-11-19T14:35:19:130
0,000000	0,000000	0,000000	0,000000	2020-11-19T14:35:19:170
0,000000	0,000000	0,000000	0,000000	2020-11-19T14:35:19:211
0,000000	0,000000	0,000000	0,000000	2020-11-19T14:35:19:251
0,000000	0,000000	0,000000	0,000000	2020-11-19T14:35:19:290
0,000000	0,000000	0,000000	0,000000	2020-11-19T14:35:19:331
0,000000	0,000000	0,000000	0,000000	2020-11-19T14:35:19:371
0,000000	0,000000	0,000000	0,000000	2020-11-19T14:35:19:416
0,000000	0,000000	0,000000	0,000000	2020-11-19T14:35:19:452
0,000000	0,000000	0,000000	0,000000	2020-11-19T14:35:19:522
0,000000	0,000000	0,000000	0,000000	2020-11-19T14:35:19:539
0,000000	0,000000	0,000000	0,000000	2020-11-19T14:35:19:574
0,000000	0,000000	0,000000	0,000000	2020-11-19T14:35:19:659
0,000000	0,000000	0,000000	0,000000	2020-11-19T14:35:19:660
0,000000	0,000000	0,000000	0,000000	2020-11-19T14:35:19:706
0,000000	0,000000	0,000000	0,000000	2020-11-19T14:35:19:732
0,000000	0,000000	0,000000	0,000000	2020-11-19T14:35:19:799
0,000000	0,000000	0,000000	0,000000	2020-11-19T14:35:19:812
0,000000	0,000000	0,000000	0,000000	2020-11-19T14:35:19:852
0,000000	0,000000	0,000000	0,000000	2020-11-19T14:35:19:893
0,000000	0,000000	0,000000	0,000000	2020-11-19T14:35:19:932
0,000000	0,000000	0,000000	0,000000	2020-11-19T14:35:19:973
0,000000	0,000000	0,000000	0,000000	2020-11-19T14:35:20:013
0,000000	0,000000	0,000000	0,000000	2020-11-19T14:35:20:054
0,000000	0,000000	0,000000	0,000000	2020-11-19T14:35:20:094
0,000000	0,000000	0,000000	0,000000	2020-11-19T14:35:20:133
0,000000	0,000000	0,000000	0,000000	2020-11-19T14:35:20:174
0,000000	0,000000	0,000000	0,000000	2020-11-19T14:35:20:214
0,000000	0,000000	0,000000	0,000000	2020-11-19T14:35:20:254
0,000000	0,000000	0,000000	0,000000	2020-11-19T14:35:20:293
0,000000	0,000000	0,000000	0,000000	2020-11-19T14:35:20:334
0,000000	0,000000	0,000000	0,000000	2020-11-19T14:35:20:374
0,000000	0,000000	0,000000	0,000000	2020-11-19T14:35:20:414
0,000000	0,000000	0,000000	0,000000	2020-11-19T14:35:20:455
0,000000	0,000000	0,000000	0,000000	2020-11-19T14:35:20:494
0,000000	0,000000	0,000000	0,000000	2020-11-19T14:35:20:534
0,000000	0,000000	0,000000	0,000000	2020-11-19T14:35:20:576
0,000000	0,000000	0,000000	0,000000	2020-11-19T14:35:20:615
0,000000	0,000000	0,000000	0,000000	2020-11-19T14:35:20:655
0,000000	0,000000	0,000000	0,000000	2020-11-19T14:35:20:695
0,000000	0,000000	0,000000	0,000000	2020-11-19T14:35:20:734
0,000000	0,000000	0,000000	0,000000	2020-11-19T14:35:20:774
0,000000	0,000000	0,000000	0,000000	2020-11-19T14:35:20:815
0,000000	0,000000	0,000000	0,000000	2020-11-19T14:35:20:855
0,000000	0,000000	0,000000	0,000000	2020-11-19T14:35:20:895
0,000000	0,000000	0,000000	0,000000	2020-11-19T14:35:20:935
0,000000	0,000000	0,000000	0,000000	2020-11-19T14:35:20:975
0,000000	0,000000	0,000000	0,000000	2020-11-19T14:35:21:015
0,000000	0,000000	0,000000	0,000000	2020-11-19T14:35:21:055
0,000000	0,000000	0,000000	0,000000	2020-11-19T14:35:21:095
0,000000	0,000000	0,000000	0,000000	2020-11-19T14:35:21:135
0,000000	0,000000	0,000000	0,000000	2020-11-19T14:35:21:175
0,000000	0,000000	0,000000	0,000000	2020-11-19T14:35:21:215
0,000000	0,000000	0,000000	0,000000	2020-11-19T14:35:21:255
0,000000	0,000000	0,000000	0,000000	2020-11-19T14:35:21:295
0,000000	0,000000	0,000000	0,000000	2020-11-19T14:35:21:336
0,000000	0,000000	0,000000	0,000000	2020-11-19T14:35:21:375
0,000000	0,000000	0,000000	0,000000	2020-11-19T14:35:21:426
0,000000	0,000000	0,000000	0,000000	2020-11-19T14:35:21:455
0,000000	0,000000	0,000000	0,000000	2020-11-19T14:35:21:495
0,000000	0,000000	0,000000	0,000000	2020-11-19T14:35:21:535
0,000000	0,000000	0,000000	0,000000	2020-11-19T14:35:21:586
0,000000	0,000000	0,000000	0,000000	2020-11-19T14:35:21:615
0,000000	0,000000	0,000000	0,000000	2020-11-19T14:35:21:656
0,000000	0,000000	0,000000	0,000000	2020-11-19T14:35:21:695
0,000000	0,000000	0,000000	0,000000	2020-11-19T14:35:21:736
0,000000	0,000000	0,000000	0,000000	2020-11-19T14:35:21:776
0,000000	0,000000	0,000000	0,000000	2020-11-19T14:35:21:816
0,000000	0,000000	0,000000	0,000000	2020-11-19T14:35:21:857
0,000000	0,000000	0,000000	0,000000	2020-11-19T14:35:21:896
0,000000	0,000000	0,000000	0,000000	2020-11-19T14:35:21:936
0,000000	0,000000	0,000000	0,000000	2020-11-19T14:35:21:976
0,000000	0,000000	0,000000	0,000000	2020-11-19T14:35:22:016
0,000000	0,000000	0,000000	0,000000	2020-11-19T14:35:22:056
0,000000	0,000000	0,000000	0,000000	2020-11-19T14:35:22:096
0,000000	0,000000	0,000000	0,000000	2020-11-19T14:35:22:137
0,000000	0,000000	0,000000	0,000000	2020-11-19T14:35:22:176
0,000000	0,000000	0,000000	0,000000	2020-11-19T14:35:22:216
0,000000	0,000000	0,000000	0,000000	2020-11-19T14:35:22:257
0,000000	0,000000	0,000000	0,000000	2020-11-19T14:35:22:296
0,000000	0,000000	0,000000	0,000000	2020-11-19T14:35:22:336
0,000000	0,000000	0,000000	0,000000	2020-11-19T14:35:22:376
0,000000	0,000000	0,000000	0,000000	2020-11-19T14:35:22:417
0,000000	0,000000	0,000000	0,000000	2020-11-19T14:35:22:456
0,000000	0,000000	0,000000	0,000000	2020-11-19T14:35:22:497
0,000000	0,000000	0,000000	0,000000	2020-11-19T14:35:22:536
0,000000	0,000000	0,000000	0,000000	2020-11-19T14:35:22:577
0,000000	0,000000	0,000000	0,000000	2020-11-19T14:35:22:617
0,000000	0,000000	0,000000	0,000000	2020-11-19T14:35:22:658
0,000000	0,000000	0,000000	0,000000	2020-11-19T14:35:22:697
0,000000	0,000000	0,000000	0,000000	2020-11-19T14:35:22:737
0,000000	0,000000	0,000000	0,000000	2020-11-19T14:35:22:778
0,000000	0,000000	0,000000	0,000000	2020-11-19T14:35:22:817
0,000000	0,000000	0,000000	0,000000	2020-11-19T14:35:22:857
0,000000	0,000000	0,000000	0,000000	2020-11-19T14:35:22:897
0,000000	0,000000	0,000000	0,000000	2020-11-19T14:35:22:937
0,000000	0,000000	0,000000	0,000000	2020-11-19T14:35:22:978
0,000000	0,000000	0,000000	0,000000	2020-11-19T14:35:23:017
0,000000	0,000000	0,000000	0,000000	2020-11-19T14:35:23:058
0,000000	0,000000	0,000000	0,000000	2020-11-19T14:35:23:099
0,000000	0,000000	0,000000	0,000000	2020-11-19T14:35:23:139
0,000000	0,000000	0,000000	0,000000	2020-11-19T14:35:23:177
0,000000	0,000000	0,000000	0,000000	2020-11-19T14:35:23:218
0,000000	0,000000	0,000000	0,000000	2020-11-19T14:35:23:257
0,000000	0,000000	0,000000	0,000000	2020-11-19T14:35:23:298
0,000000	0,000000	0,000000	0,000000	2020-11-19T14:35:23:337
0,000000	0,000000	0,000000	0,000000	2020-11-19T14:35:23:378
0,000000	0,000000	0,000000	0,000000	2020-11-19T14:35:23:417
0,000000	0,000000	0,000000	0,000000	2020-11-19T14:35:23:459
0,000000	0,000000	0,000000	0,000000	2020-11-19T14:35:23:497
0,000000	0,000000	0,000000	0,000000	2020-11-19T14:35:23:538
0,000000	0,000000	0,000000	0,000000	2020-11-19T14:35:23:577
0,000000	0,000000	0,000000	0,000000	2020-11-19T14:35:23:618
0,000000	0,000000	0,000000	0,000000	2020-11-19T14:35:23:658
0,000000	0,000000	0,000000	0,000000	2020-11-19T14:35:23:698
0,000000	0,000000	0,000000	0,000000	2020-11-19T14:35:23:738
0,000000	0,000000	0,000000	0,000000	2020-11-19T14:35:23:779
0,000000	0,000000	0,000000	0,000000	2020-11-19T14:35:23:818
0,000000	0,000000	0,000000	0,000000	2020-11-19T14:35:23:859
0,000000	0,000000	0,000000	0,000000	2020-11-19T14:35:23:898
0,000000	0,000000	0,000000	0,000000	2020-11-19T14:35:23:939
0,000000	0,000000	0,000000	0,000000	2020-11-19T14:35:23:978
0,000000	0,000000	0,000000	0,000000	2020-11-19T14:35:24:019
0,000000	0,000000	0,000000	0,000000	2020-11-19T14:35:24:059
0,000000	0,000000	0,000000	0,000000	2020-11-19T14:35:24:099
0,000000	0,000000	0,000000	0,000000	2020-11-19T14:35:24:138
0,000000	0,000000	0,000000	0,000000	2020-11-19T14:35:24:179
0,000000	0,000000	0,000000	0,000000	2020-11-19T14:35:24:218
0,000000	0,000000	0,000000	0,000000	2020-11-19T14:35:24:259
0,000000	0,000000	0,000000	0,000000	2020-11-19T14:35:24:298
0,000000	0,000000	0,000000	0,000000	2020-11-19T14:35:24:339
0,000000	0,000000	0,000000	0,000000	2020-11-19T14:35:24:378
0,000000	0,000000	0,000000	0,000000	2020-11-19T14:35:24:419
0,000000	0,000000	0,000000	0,000000	2020-11-19T14:35:24:458
0,000000	0,000000	0,000000	0,000000	2020-11-19T14:35:24:500
0,000000	0,000000	0,000000	0,000000	2020-11-19T14:35:24:539
0,000000	0,000000	0,000000	0,000000	2020-11-19T14:35:24:579
0,000000	0,000000	0,000000	0,000000	2020-11-19T14:35:24:619
0,000000	0,000000	0,000000	0,000000	2020-11-19T14:35:24:660
0,000000	0,000000	0,000000	0,000000	2020-11-19T14:35:24:699
0,000000	0,000000	0,000000	0,000000	2020-11-19T14:35:24:739
0,000000	0,000000	0,000000	0,000000	2020-11-19T14:35:24:779
0,000000	0,000000	0,000000	0,000000	2020-11-19T14:35:24:819
0,000000	0,000000	0,000000	0,000000	2020-11-19T14:35:24:860
0,000000	0,000000	0,000000	0,000000	2020-11-19T14:35:24:900
0,000000	0,000000	0,000000	0,000000	2020-11-19T14:35:24:939
0,000000	0,000000	0,000000	0,000000	2020-11-19T14:35:24:980
0,000000	0,000000	0,000000	0,000000	2020-11-19T14:35:25:019
0,000000	0,000000	0,000000	0,000000	2020-11-19T14:35:25:060
0,000000	0,000000	0,000000	0,000000	2020-11-19T14:35:25:099
0,000000	0,000000	0,000000	0,000000	2020-11-19T14:35:25:140
0,000000	0,000000	0,000000	0,000000	2020-11-19T14:35:25:179
0,000000	0,000000	0,000000	0,000000	2020-11-19T14:35:25:220
0,000000	0,000000	0,000000	0,000000	2020-11-19T14:35:25:260
0,000000	0,000000	0,000000	0,000000	2020-11-19T14:35:25:301
0,000000	0,000000	0,000000	0,000000	2020-11-19T14:35:25:339
0,000000	0,000000	0,000000	0,000000	2020-11-19T14:35:25:381
0,000000	0,000000	0,000000	0,000000	2020-11-19T14:35:25:419
0,000000	0,000000	0,000000	0,000000	2020-11-19T14:35:25:461
0,000000	0,000000	0,000000	0,000000	2020-11-19T14:35:25:500
0,000000	0,000000	0,000000	0,000000	2020-11-19T14:35:25:540
0,000000	0,000000	0,000000	0,000000	2020-11-19T14:35:25:580
0,000000	0,000000	0,000000	0,000000	2020-11-19T14:35:25:620
0,000000	0,000000	0,000000	0,000000	2020-11-19T14:35:25:660
0,000000	0,000000	0,000000	0,000000	2020-11-19T14:35:25:700
0,000000	0,000000	0,000000	0,000000	2020-11-19T14:35:25:740
0,000000	0,000000	0,000000	0,000000	2020-11-19T14:35:25:781
0,000000	0,000000	0,000000	0,000000	2020-11-19T14:35:25:820
0,000000	0,000000	0,000000	0,000000	2020-11-19T14:35:25:861
0,000000	0,000000	0,000000	0,000000	2020-11-19T14:35:25:900
0,000000	0,000000	0,000000	0,000000	2020-11-19T14:35:25:947
0,000000	0,000000	0,000000	0,000000	2020-11-19T14:35:25:980
0,000000	0,000000	0,000000	0,000000	2020-11-19T14:35:26:021
0,000000	0,000000	0,000000	0,000000	2020-11-19T14:35:26:060
0,000000	0,000000	0,000000	0,000000	2020-11-19T14:35:26:101
0,000000	0,000000	0,000000	0,000000	2020-11-19T14:35:26:140
0,000000	0,000000	0,000000	0,000000	2020-11-19T14:35:26:181
0,000000	0,000000	0,000000	0,000000	2020-11-19T14:35:26:220
0,000000	0,000000	0,000000	0,000000	2020-11-19T14:35:26:261
0,000000	0,000000	0,000000	0,000000	2020-11-19T14:35:26:300
0,000000	0,000000	0,000000	0,000000	2020-11-19T14:35:26:342
0,000000	0,000000	0,000000	0,000000	2020-11-19T14:35:26:382
0,000000	0,000000	0,000000	0,000000	2020-11-19T14:35:26:421
0,000000	0,000000	0,000000	0,000000	2020-11-19T14:35:26:461
0,000000	0,000000	0,000000	0,000000	2020-11-19T14:35:26:502
0,000000	0,000000	0,000000	0,000000	2020-11-19T14:35:26:540
0,000000	0,000000	0,000000	0,000000	2020-11-19T14:35:26:581
0,000000	0,000000	0,000000	0,000000	2020-11-19T14:35:26:621
0,000000	0,000000	0,000000	0,000000	2020-11-19T14:35:26:662
0,000000	0,000000	0,000000	0,000000	2020-11-19T14:35:26:701
0,000000	0,000000	0,000000	0,000000	2020-11-19T14:35:26:741
0,000000	0,000000	0,000000	0,000000	2020-11-19T14:35:26:780
0,000000	0,000000	0,000000	0,000000	2020-11-19T14:35:26:821
0,000000	0,000000	0,000000	0,000000	2020-11-19T14:35:26:861
0,000000	0,000000	0,000000	0,000000	2020-11-19T14:35:26:901
0,000000	0,000000	0,000000	0,000000	2020-11-19T14:35:26:941
0,000000	0,000000	0,000000	0,000000	2020-11-19T14:35:26:981
0,000000	0,000000	0,000000	0,000000	2020-11-19T14:35:27:021
0,000000	0,000000	0,000000	0,000000	2020-11-19T14:35:27:062
0,000000	0,000000	0,000000	0,000000	2020-11-19T14:35:27:101
0,000000	0,000000	0,000000	0,000000	2020-11-19T14:35:27:141
0,000000	0,000000	0,000000	0,000000	2020-11-19T14:35:27:181
0,000000	0,000000	0,000000	0,000000	2020-11-19T14:35:27:222
0,000000	0,000000	0,000000	0,000000	2020-11-19T14:35:27:261
0,000000	0,000000	0,000000	0,000000	2020-11-19T14:35:27:302
0,000000	0,000000	0,000000	0,000000	2020-11-19T14:35:27:341
0,000000	0,000000	0,000000	0,000000	2020-11-19T14:35:27:382
0,000000	0,000000	0,000000	0,000000	2020-11-19T14:35:27:421
0,000000	0,000000	0,000000	0,000000	2020-11-19T14:35:27:462
0,000000	0,000000	0,000000	0,000000	2020-11-19T14:35:27:501
0,000000	0,000000	0,000000	0,000000	2020-11-19T14:35:27:542
0,000000	0,000000	0,000000	0,000000	2020-11-19T14:35:27:582
0,000000	0,000000	0,000000	0,000000	2020-11-19T14:35:27:623
0,000000	0,000000	0,000000	0,000000	2020-11-19T14:35:27:662
0,000000	0,000000	0,000000	0,000000	2020-11-19T14:35:27:702
0,000000	0,000000	0,000000	0,000000	2020-11-19T14:35:27:741
0,000000	0,000000	0,000000	0,000000	2020-11-19T14:35:27:784
0,000000	0,000000	0,000000	0,000000	2020-11-19T14:35:27:822
0,000000	0,000000	0,000000	0,000000	2020-11-19T14:35:27:862
0,000000	0,000000	0,000000	0,000000	2020-11-19T14:35:27:902
0,000000	0,000000	0,000000	0,000000	2020-11-19T14:35:27:942
0,000000	0,000000	0,000000	0,000000	2020-11-19T14:35:27:982
0,000000	0,000000	0,000000	0,000000	2020-11-19T14:35:28:023
0,000000	0,000000	0,000000	0,000000	2020-11-19T14:35:28:061
0,000000	0,000000	0,000000	0,000000	2020-11-19T14:35:28:103
0,000000	0,000000	0,000000	0,000000	2020-11-19T14:35:28:142
0,000000	0,000000	0,000000	0,000000	2020-11-19T14:35:28:182
0,000000	0,000000	0,000000	0,000000	2020-11-19T14:35:28:221
0,000000	0,000000	0,000000	0,000000	2020-11-19T14:35:28:264
0,000000	0,000000	0,000000	0,000000	2020-11-19T14:35:28:301
0,000000	0,000000	0,000000	0,000000	2020-11-19T14:35:28:344
0,000000	0,000000	0,000000	0,000000	2020-11-19T14:35:28:383
0,000000	0,000000	0,000000	0,000000	2020-11-19T14:35:28:424
0,000000	0,000000	0,000000	0,000000	2020-11-19T14:35:28:463
0,000000	0,000000	0,000000	0,000000	2020-11-19T14:35:28:503
0,000000	0,000000	0,000000	0,000000	2020-11-19T14:35:28:542
0,000000	0,000000	0,000000	0,000000	2020-11-19T14:35:28:583
0,000000	0,000000	0,000000	0,000000	2020-11-19T14:35:28:623
0,000000	0,000000	0,000000	0,000000	2020-11-19T14:35:28:663
0,000000	0,000000	0,000000	0,000000	2020-11-19T14:35:28:702
0,000000	0,000000	0,000000	0,000000	2020-11-19T14:35:28:743
0,000000	0,000000	0,000000	0,000000	2020-11-19T14:35:28:782
0,000000	0,000000	0,000000	0,000000	2020-11-19T14:35:28:823
0,000000	0,000000	0,000000	0,000000	2020-11-19T14:35:28:862
0,000000	0,000000	0,000000	0,000000	2020-11-19T14:35:28:903
0,000000	0,000000	0,000000	0,000000	2020-11-19T14:35:28:942
0,000000	0,000000	0,000000	0,000000	2020-11-19T14:35:28:983
0,000000	0,000000	0,000000	0,000000	2020-11-19T14:35:29:022
0,000000	0,000000	0,000000	0,000000	2020-11-19T14:35:29:063
0,000000	0,000000	0,000000	0,000000	2020-11-19T14:35:29:102
0,000000	0,000000	0,000000	0,000000	2020-11-19T14:35:29:143
0,000000	0,000000	0,000000	0,000000	2020-11-19T14:35:29:182
0,000000	0,000000	0,000000	0,000000	2020-11-19T14:35:29:223
0,000000	0,000000	0,000000	0,000000	2020-11-19T14:35:29:263
0,000000	0,000000	0,000000	0,000000	2020-11-19T14:35:29:303
0,000000	0,000000	0,000000	0,000000	2020-11-19T14:35:29:342
0,000000	0,000000	0,000000	0,000000	2020-11-19T14:35:29:383
0,000000	0,000000	0,000000	0,000000	2020-11-19T14:35:29:422
0,000000	0,000000	0,000000	0,000000	2020-11-19T14:35:29:464
0,000000	0,000000	0,000000	0,000000	2020-11-19T14:35:29:503
0,000000	0,000000	0,000000	0,000000	2020-11-19T14:35:29:543
0,000000	0,000000	0,000000	0,000000	2020-11-19T14:35:29:583
0,000000	0,000000	0,000000	0,000000	2020-11-19T14:35:29:623
0,000000	0,000000	0,000000	0,000000	2020-11-19T14:35:29:663
0,000000	0,000000	0,000000	0,000000	2020-11-19T14:35:29:704
0,000000	0,000000	0,000000	0,000000	2020-11-19T14:35:29:743
0,000000	0,000000	0,000000	0,000000	2020-11-19T14:35:29:784
0,000000	0,000000	0,000000	0,000000	2020-11-19T14:35:29:824
0,000000	0,000000	0,000000	0,000000	2020-11-19T14:35:29:864
0,000000	0,000000	0,000000	0,000000	2020-11-19T14:35:29:903
0,000000	0,000000	0,000000	0,000000	2020-11-19T14:35:29:944
0,000000	0,000000	0,000000	0,000000	2020-11-19T14:35:29:983
0,000000	0,000000	0,000000	0,000000	2020-11-19T14:35:30:024
0,000000	0,000000	0,000000	0,000000	2020-11-19T14:35:30:064
0,000000	0,000000	0,000000	0,000000	2020-11-19T14:35:30:105
0,000000	0,000000	0,000000	0,000000	2020-11-19T14:35:30:143
0,000000	0,000000	0,000000	0,000000	2020-11-19T14:35:30:184
0,000000	0,000000	0,000000	0,000000	2020-11-19T14:35:30:223
0,000000	0,000000	0,000000	0,000000	2020-11-19T14:35:30:265
0,000000	0,000000	0,000000	0,000000	2020-11-19T14:35:30:304
0,000000	0,000000	0,000000	0,000000	2020-11-19T14:35:30:344
0,000000	0,000000	0,000000	0,000000	2020-11-19T14:35:30:384
0,000000	0,000000	0,000000	0,000000	2020-11-19T14:35:30:425
0,000000	0,000000	0,000000	0,000000	2020-11-19T14:35:30:464
0,000000	0,000000	0,000000	0,000000	2020-11-19T14:35:30:505
0,000000	0,000000	0,000000	0,000000	2020-11-19T14:35:30:544
0,000000	0,000000	0,000000	0,000000	2020-11-19T14:35:30:590
0,000000	0,000000	0,000000	0,000000	2020-11-19T14:35:30:624
0,000000	0,000000	0,000000	0,000000	2020-11-19T14:35:30:665
0,000000	0,000000	0,000000	0,000000	2020-11-19T14:35:30:704
0,000000	0,000000	0,000000	0,000000	2020-11-19T14:35:30:745
0,000000	0,000000	0,000000	0,000000	2020-11-19T14:35:30:784
0,000000	0,000000	0,000000	0,000000	2020-11-19T14:35:30:825
0,000000	0,000000	0,000000	0,000000	2020-11-19T14:35:30:865
0,000000	0,000000	0,000000	0,000000	2020-11-19T14:35:30:905
0,000000	0,000000	0,000000	0,000000	2020-11-19T14:35:30:944
0,000000	0,000000	0,000000	0,000000	2020-11-19T14:35:30:985
0,000000	0,000000	0,000000	0,000000	2020-11-19T14:35:31:024
0,000000	0,000000	0,000000	0,000000	2020-11-19T14:35:31:065
0,000000	0,000000	0,000000	0,000000	2020-11-19T14:35:31:104
0,000000	0,000000	0,000000	0,000000	2020-11-19T14:35:31:145
0,000000	0,000000	0,000000	0,000000	2020-11-19T14:35:31:185
0,000000	0,000000	0,000000	0,000000	2020-11-19T14:35:31:225
0,000000	0,000000	0,000000	0,000000	2020-11-19T14:35:31:265
0,000000	0,000000	0,000000	0,000000	2020-11-19T14:35:31:305
0,000000	0,000000	0,000000	0,000000	2020-11-19T14:35:31:345
0,000000	0,000000	0,000000	0,000000	2020-11-19T14:35:31:385
0,000000	0,000000	0,000000	0,000000	2020-11-19T14:35:31:424
0,000000	0,000000	0,000000	0,000000	2020-11-19T14:35:31:466
0,000000	0,000000	0,000000	0,000000	2020-11-19T14:35:31:505
0,000000	0,000000	0,000000	0,000000	2020-11-19T14:35:31:544
0,000000	0,000000	0,000000	0,000000	2020-11-19T14:35:31:585
0,000000	0,000000	0,000000	0,000000	2020-11-19T14:35:31:626
0,000000	0,000000	0,000000	0,000000	2020-11-19T14:35:31:665
0,000000	0,000000	0,000000	0,000000	2020-11-19T14:35:31:706
0,000000	0,000000	0,000000	0,000000	2020-11-19T14:35:31:745
0,000000	0,000000	0,000000	0,000000	2020-11-19T14:35:31:786
0,000000	0,000000	0,000000	0,000000	2020-11-19T14:35:31:825
0,000000	0,000000	0,000000	0,000000	2020-11-19T14:35:31:867
0,000000	0,000000	0,000000	0,000000	2020-11-19T14:35:31:905
0,000000	0,000000	0,000000	0,000000	2020-11-19T14:35:31:946
0,000000	0,000000	0,000000	0,000000	2020-11-19T14:35:31:985
0,000000	0,000000	0,000000	0,000000	2020-11-19T14:35:32:026
0,000000	0,000000	0,000000	0,000000	2020-11-19T14:35:32:065
0,000000	0,000000	0,000000	0,000000	2020-11-19T14:35:32:106
0,000000	0,000000	0,000000	0,000000	2020-11-19T14:35:32:145
0,000000	0,000000	0,000000	0,000000	2020-11-19T14:35:32:186
0,000000	0,000000	0,000000	0,000000	2020-11-19T14:35:32:226
0,000000	0,000000	0,000000	0,000000	2020-11-19T14:35:32:266
0,000000	0,000000	0,000000	0,000000	2020-11-19T14:35:32:305
0,000000	0,000000	0,000000	0,000000	2020-11-19T14:35:32:346
0,000000	0,000000	0,000000	0,000000	2020-11-19T14:35:32:385
0,000000	0,000000	0,000000	0,000000	2020-11-19T14:35:32:426
0,000000	0,000000	0,000000	0,000000	2020-11-19T14:35:32:466
0,000000	0,000000	0,000000	0,000000	2020-11-19T14:35:32:506
0,000000	0,000000	0,000000	0,000000	2020-11-19T14:35:32:545
0,000000	0,000000	0,000000	0,000000	2020-11-19T14:35:32:587
0,000000	0,000000	0,000000	0,000000	2020-11-19T14:35:32:626
0,000000	0,000000	0,000000	0,000000	2020-11-19T14:35:32:667
0,000000	0,000000	0,000000	0,000000	2020-11-19T14:35:32:706
0,000000	0,000000	0,000000	0,000000	2020-11-19T14:35:32:747
0,000000	0,000000	0,000000	0,000000	2020-11-19T14:35:32:787
0,000000	0,000000	0,000000	0,000000	2020-11-19T14:35:32:827
0,000000	0,000000	0,000000	0,000000	2020-11-19T14:35:32:866
0,000000	0,000000	0,000000	0,000000	2020-11-19T14:35:32:907
0,000000	0,000000	0,000000	0,000000	2020-11-19T14:35:32:946
0,000000	0,000000	0,000000	0,000000	2020-11-19T14:35:32:987
0,000000	0,000000	0,000000	0,000000	2020-11-19T14:35:33:026
0,000000	0,000000	0,000000	0,000000	2020-11-19T14:35:33:067
0,000000	0,000000	0,000000	0,000000	2020-11-19T14:35:33:106
0,000000	0,000000	0,000000	0,000000	2020-11-19T14:35:33:147
0,000000	0,000000	0,000000	0,000000	2020-11-19T14:35:33:186
0,000000	0,000000	0,000000	0,000000	2020-11-19T14:35:33:227
0,000000	0,000000	0,000000	0,000000	2020-11-19T14:35:33:266
0,000000	0,000000	0,000000	0,000000	2020-11-19T14:35:33:308
0,000000	0,000000	0,000000	0,000000	2020-11-19T14:35:33:346
0,000000	0,000000	0,000000	0,000000	2020-11-19T14:35:33:387
0,000000	0,000000	0,000000	0,000000	2020-11-19T14:35:33:427
0,000000	0,000000	0,000000	0,000000	2020-11-19T14:35:33:467
0,000000	0,000000	0,000000	0,000000	2020-11-19T14:35:33:507
0,000000	0,000000	0,000000	0,000000	2020-11-19T14:35:33:547
0,000000	0,000000	0,000000	0,000000	2020-11-19T14:35:33:590
0,000000	0,000000	0,000000	0,000000	2020-11-19T14:35:33:627
0,000000	0,000000	0,000000	0,000000	2020-11-19T14:35:33:667
0,000000	0,000000	0,000000	0,000000	2020-11-19T14:35:33:707
0,000000	0,000000	0,000000	0,000000	2020-11-19T14:35:33:747
0,000000	0,000000	0,000000	0,000000	2020-11-19T14:35:33:788
0,000000	0,000000	0,000000	0,000000	2020-11-19T14:35:33:827
0,000000	0,000000	0,000000	0,000000	2020-11-19T14:35:33:868
0,000000	0,000000	0,000000	0,000000	2020-11-19T14:35:33:907
0,000000	0,000000	0,000000	0,000000	2020-11-19T14:35:33:947
0,000000	0,000000	0,000000	0,000000	2020-11-19T14:35:33:987
0,000000	0,000000	0,000000	0,000000	2020-11-19T14:35:34:030
0,000000	0,000000	0,000000	0,000000	2020-11-19T14:35:34:067
0,000000	0,000000	0,000000	0,000000	2020-11-19T14:35:34:108
0,000000	0,000000	0,000000	0,000000	2020-11-19T14:35:34:147
0,000000	0,000000	0,000000	0,000000	2020-11-19T14:35:34:188
0,000000	0,000000	0,000000	0,000000	2020-11-19T14:35:34:227
0,000000	0,000000	0,000000	0,000000	2020-11-19T14:35:34:269
0,000000	0,000000	0,000000	0,000000	2020-11-19T14:35:34:307
0,000000	0,000000	0,000000	0,000000	2020-11-19T14:35:34:348
0,000000	0,000000	0,000000	0,000000	2020-11-19T14:35:34:387
0,000000	0,000000	0,000000	0,000000	2020-11-19T14:35:34:428
0,000000	0,000000	0,000000	0,000000	2020-11-19T14:35:34:468
0,000000	0,000000	0,000000	0,000000	2020-11-19T14:35:34:509
0,000000	0,000000	0,000000	0,000000	2020-11-19T14:35:34:548
0,000000	0,000000	0,000000	0,000000	2020-11-19T14:35:34:588
0,000000	0,000000	0,000000	0,000000	2020-11-19T14:35:34:628
0,000000	0,000000	0,000000	0,000000	2020-11-19T14:35:34:669
0,000000	0,000000	0,000000	0,000000	2020-11-19T14:35:34:708
0,000000	0,000000	0,000000	0,000000	2020-11-19T14:35:34:749
0,000000	0,000000	0,000000	0,000000	2020-11-19T14:35:34:788
0,000000	0,000000	0,000000	0,000000	2020-11-19T14:35:34:829
0,000000	0,000000	0,000000	0,000000	2020-11-19T14:35:34:869
0,000000	0,000000	0,000000	0,000000	2020-11-19T14:35:34:909
0,000000	0,000000	0,000000	0,000000	2020-11-19T14:35:34:948
0,000000	0,000000	0,000000	0,000000	2020-11-19T14:35:34:989
0,000000	0,000000	0,000000	0,000000	2020-11-19T14:35:35:028
0,000000	0,000000	0,000000	0,000000	2020-11-19T14:35:35:069
0,000000	0,000000	0,000000	0,000000	2020-11-19T14:35:35:108
0,000000	0,000000	0,000000	0,000000	2020-11-19T14:35:35:149
0,000000	0,000000	0,000000	0,000000	2020-11-19T14:35:35:188
0,000000	0,000000	0,000000	0,000000	2020-11-19T14:35:35:229
0,000000	0,000000	0,000000	0,000000	2020-11-19T14:35:35:269
0,000000	0,000000	0,000000	0,000000	2020-11-19T14:35:35:309
0,000000	0,000000	0,000000	0,000000	2020-11-19T14:35:35:349
0,000000	0,000000	0,000000	0,000000	2020-11-19T14:35:35:389
0,000000	0,000000	0,000000	0,000000	2020-11-19T14:35:35:428
0,000000	0,000000	0,000000	0,000000	2020-11-19T14:35:35:470
0,000000	0,000000	0,000000	0,000000	2020-11-19T14:35:35:508
0,000000	0,000000	0,000000	0,000000	2020-11-19T14:35:35:549
0,000000	0,000000	0,000000	0,000000	2020-11-19T14:35:35:591
0,000000	0,000000	0,000000	0,000000	2020-11-19T14:35:35:629
0,000000	0,000000	0,000000	0,000000	2020-11-19T14:35:35:669
0,000000	0,000000	0,000000	0,000000	2020-11-19T14:35:35:710
0,000000	0,000000	0,000000	0,000000	2020-11-19T14:35:35:748
0,000000	0,000000	0,000000	0,000000	2020-11-19T14:35:35:790
0,000000	0,000000	0,000000	0,000000	2020-11-19T14:35:35:829
0,000000	0,000000	0,000000	0,000000	2020-11-19T14:35:35:870
0,000000	0,000000	0,000000	0,000000	2020-11-19T14:35:35:909
0,000000	0,000000	0,000000	0,000000	2020-11-19T14:35:35:950
0,000000	0,000000	0,000000	0,000000	2020-11-19T14:35:35:989
0,000000	0,000000	0,000000	0,000000	2020-11-19T14:35:36:030
0,000000	0,000000	0,000000	0,000000	2020-11-19T14:35:36:069
0,000000	0,000000	0,000000	0,000000	2020-11-19T14:35:36:110
0,000000	0,000000	0,000000	0,000000	2020-11-19T14:35:36:149
0,000000	0,000000	0,000000	0,000000	2020-11-19T14:35:36:190
0,000000	0,000000	0,000000	0,000000	2020-11-19T14:35:36:229
0,000000	0,000000	0,000000	0,000000	2020-11-19T14:35:36:271
0,000000	0,000000	0,000000	0,000000	2020-11-19T14:35:36:310
0,000000	0,000000	0,000000	0,000000	2020-11-19T14:35:36:351
0,000000	0,000000	0,000000	0,000000	2020-11-19T14:35:36:389
0,000000	0,000000	0,000000	0,000000	2020-11-19T14:35:36:431
0,000000	0,000000	0,000000	0,000000	2020-11-19T14:35:36:470
0,000000	0,000000	0,000000	0,000000	2020-11-19T14:35:36:511
0,000000	0,000000	0,000000	0,000000	2020-11-19T14:35:36:550
0,000000	0,000000	0,000000	0,000000	2020-11-19T14:35:36:591
0,000000	0,000000	0,000000	0,000000	2020-11-19T14:35:36:630
0,000000	0,000000	0,000000	0,000000	2020-11-19T14:35:36:671
0,000000	0,000000	0,000000	0,000000	2020-11-19T14:35:36:710
0,000000	0,000000	0,000000	0,000000	2020-11-19T14:35:36:751
0,000000	0,000000	0,000000	0,000000	2020-11-19T14:35:36:790
0,000000	0,000000	0,000000	0,000000	2020-11-19T14:35:36:831
0,000000	0,000000	0,000000	0,000000	2020-11-19T14:35:36:870
0,000000	0,000000	0,000000	0,000000	2020-11-19T14:35:36:911
0,000000	0,000000	0,000000	0,000000	2020-11-19T14:35:36:950
0,000000	0,000000	0,000000	0,000000	2020-11-19T14:35:36:991
0,000000	0,000000	0,000000	0,000000	2020-11-19T14:35:37:030
0,000000	0,000000	0,000000	0,000000	2020-11-19T14:35:37:071
0,000000	0,000000	0,000000	0,000000	2020-11-19T14:35:37:110
0,000000	0,000000	0,000000	0,000000	2020-11-19T14:35:37:151
0,000000	0,000000	0,000000	0,000000	2020-11-19T14:35:37:190
0,000000	0,000000	0,000000	0,000000	2020-11-19T14:35:37:231
0,000000	0,000000	0,000000	0,000000	2020-11-19T14:35:37:271
0,000000	0,000000	0,000000	0,000000	2020-11-19T14:35:37:311
0,000000	0,000000	0,000000	0,000000	2020-11-19T14:35:37:350
0,000000	0,000000	0,000000	0,000000	2020-11-19T14:35:37:391
0,000000	0,000000	0,000000	0,000000	2020-11-19T14:35:37:430
0,000000	0,000000	0,000000	0,000000	2020-11-19T14:35:37:472
0,000000	0,000000	0,000000	0,000000	2020-11-19T14:35:37:511
0,000000	0,000000	0,000000	0,000000	2020-11-19T14:35:37:551
0,000000	0,000000	0,000000	0,000000	2020-11-19T14:35:37:591
0,000000	0,000000	0,000000	0,000000	2020-11-19T14:35:37:632
0,000000	0,000000	0,000000	0,000000	2020-11-19T14:35:37:671
0,000000	0,000000	0,000000	0,000000	2020-11-19T14:35:37:712
0,000000	0,000000	0,000000	0,000000	2020-11-19T14:35:37:751
0,000000	0,000000	0,000000	0,000000	2020-11-19T14:35:37:793
0,000000	0,000000	0,000000	0,000000	2020-11-19T14:35:37:831
0,000000	0,000000	0,000000	0,000000	2020-11-19T14:35:37:872
0,000000	0,000000	0,000000	0,000000	2020-11-19T14:35:37:911
0,000000	0,000000	0,000000	0,000000	2020-11-19T14:35:37:952
0,000000	0,000000	0,000000	0,000000	2020-11-19T14:35:37:991
0,000000	0,000000	0,000000	0,000000	2020-11-19T14:35:38:031
0,000000	0,000000	0,000000	0,000000	2020-11-19T14:35:38:072
0,000000	0,000000	0,000000	0,000000	2020-11-19T14:35:38:171
0,000000	0,000000	0,000000	0,000000	2020-11-19T14:35:38:175
0,000000	0,000000	0,000000	0,000000	2020-11-19T14:35:38:337
0,000000	0,000000	0,000000	0,000000	2020-11-19T14:35:38:338
0,000000	0,000000	0,000000	0,000000	2020-11-19T14:35:38:339
0,000000	0,000000	0,000000	0,000000	2020-11-19T14:35:38:342
0,000000	0,000000	0,000000	0,000000	2020-11-19T14:35:38:355
0,000000	0,000000	0,000000	0,000000	2020-11-19T14:35:38:389
0,000000	0,000000	0,000000	0,000000	2020-11-19T14:35:38:430
0,000000	0,000000	0,000000	0,000000	2020-11-19T14:35:38:472
0,000000	0,000000	0,000000	0,000000	2020-11-19T14:35:38:512
0,000000	0,000000	0,000000	0,000000	2020-11-19T14:35:38:551
0,000000	0,000000	0,000000	0,000000	2020-11-19T14:35:38:591
0,000000	0,000000	0,000000	0,000000	2020-11-19T14:35:38:642
0,000000	0,000000	0,000000	0,000000	2020-11-19T14:35:38:673
0,000000	0,000000	0,000000	0,000000	2020-11-19T14:35:38:711
0,000000	0,000000	0,000000	0,000000	2020-11-19T14:35:38:752
0,000000	0,000000	0,000000	0,000000	2020-11-19T14:35:38:792
0,000000	0,000000	0,000000	0,000000	2020-11-19T14:35:38:833
0,000000	0,000000	0,000000	0,000000	2020-11-19T14:35:38:872
0,000000	0,000000	0,000000	0,000000	2020-11-19T14:35:38:913
0,000000	0,000000	0,000000	0,000000	2020-11-19T14:35:38:952
0,000000	0,000000	0,000000	0,000000	2020-11-19T14:35:38:993
0,000000	0,000000	0,000000	0,000000	2020-11-19T14:35:39:032
0,000000	0,000000	0,000000	0,000000	2020-11-19T14:35:39:073
0,000000	0,000000	0,000000	0,000000	2020-11-19T14:35:39:112
0,000000	0,000000	0,000000	0,000000	2020-11-19T14:35:39:153
0,000000	0,000000	0,000000	0,000000	2020-11-19T14:35:39:192
0,000000	0,000000	0,000000	0,000000	2020-11-19T14:35:39:233
0,000000	0,000000	0,000000	0,000000	2020-11-19T14:35:39:273
0,000000	0,000000	0,000000	0,000000	2020-11-19T14:35:39:313
0,000000	0,000000	0,000000	0,000000	2020-11-19T14:35:39:353
0,000000	0,000000	0,000000	0,000000	2020-11-19T14:35:39:393
0,000000	0,000000	0,000000	0,000000	2020-11-19T14:35:39:432
0,000000	0,000000	0,000000	0,000000	2020-11-19T14:35:39:473
0,000000	0,000000	0,000000	0,000000	2020-11-19T14:35:39:512
0,000000	0,000000	0,000000	0,000000	2020-11-19T14:35:39:553
0,000000	0,000000	0,000000	0,000000	2020-11-19T14:35:39:592
0,000000	0,000000	0,000000	0,000000	2020-11-19T14:35:39:633
0,000000	0,000000	0,000000	0,000000	2020-11-19T14:35:39:673
0,000000	0,000000	0,000000	0,000000	2020-11-19T14:35:39:713
0,000000	0,000000	0,000000	0,000000	2020-11-19T14:35:39:752
0,000000	0,000000	0,000000	0,000000	2020-11-19T14:35:39:793
0,000000	0,000000	0,000000	0,000000	2020-11-19T14:35:39:833
0,000000	0,000000	0,000000	0,000000	2020-11-19T14:35:39:874
0,000000	0,000000	0,000000	0,000000	2020-11-19T14:35:39:914
0,000000	0,000000	0,000000	0,000000	2020-11-19T14:35:39:953
0,000000	0,000000	0,000000	0,000000	2020-11-19T14:35:39:993
0,000000	0,000000	0,000000	0,000000	2020-11-19T14:35:40:034
0,000000	0,000000	0,000000	0,000000	2020-11-19T14:35:40:073
0,000000	0,000000	0,000000	0,000000	2020-11-19T14:35:40:114
0,000000	0,000000	0,000000	0,000000	2020-11-19T14:35:40:153
0,000000	0,000000	0,000000	0,000000	2020-11-19T14:35:40:194
0,000000	0,000000	0,000000	0,000000	2020-11-19T14:35:40:233
0,000000	0,000000	0,000000	0,000000	2020-11-19T14:35:40:274
0,000000	0,000000	0,000000	0,000000	2020-11-19T14:35:40:313
0,000000	0,000000	0,000000	0,000000	2020-11-19T14:35:40:354
0,000000	0,000000	0,000000	0,000000	2020-11-19T14:35:40:393
0,000000	0,000000	0,000000	0,000000	2020-11-19T14:35:40:434
0,000000	0,000000	0,000000	0,000000	2020-11-19T14:35:40:473
0,000000	0,000000	0,000000	0,000000	2020-11-19T14:35:40:514
0,000000	0,000000	0,000000	0,000000	2020-11-19T14:35:40:553
0,000000	0,000000	0,000000	0,000000	2020-11-19T14:35:40:596
0,000000	0,000000	0,000000	0,000000	2020-11-19T14:35:40:635
0,000000	0,000000	0,000000	0,000000	2020-11-19T14:35:40:675
0,000000	0,000000	0,000000	0,000000	2020-11-19T14:35:40:713
0,000000	0,000000	0,000000	0,000000	2020-11-19T14:35:40:755
0,000000	0,000000	0,000000	0,000000	2020-11-19T14:35:40:793
0,000000	0,000000	0,000000	0,000000	2020-11-19T14:35:40:835
0,000000	0,000000	0,000000	0,000000	2020-11-19T14:35:40:874
0,000000	0,000000	0,000000	0,000000	2020-11-19T14:35:40:915
0,000000	0,000000	0,000000	0,000000	2020-11-19T14:35:40:953
0,000000	0,000000	0,000000	0,000000	2020-11-19T14:35:40:995
0,000000	0,000000	0,000000	0,000000	2020-11-19T14:35:41:034
0,000000	0,000000	0,000000	0,000000	2020-11-19T14:35:41:075
0,000000	0,000000	0,000000	0,000000	2020-11-19T14:35:41:114
0,000000	0,000000	0,000000	0,000000	2020-11-19T14:35:41:154
0,000000	0,000000	0,000000	0,000000	2020-11-19T14:35:41:194
0,000000	0,000000	0,000000	0,000000	2020-11-19T14:35:41:235
0,000000	0,000000	0,000000	0,000000	2020-11-19T14:35:41:274
0,000000	0,000000	0,000000	0,000000	2020-11-19T14:35:41:315
0,000000	0,000000	0,000000	0,000000	2020-11-19T14:35:41:355
0,000000	0,000000	0,000000	0,000000	2020-11-19T14:35:41:395
0,000000	0,000000	0,000000	0,000000	2020-11-19T14:35:41:434
0,000000	0,000000	0,000000	0,000000	2020-11-19T14:35:41:477
0,000000	0,000000	0,000000	0,000000	2020-11-19T14:35:41:514
0,000000	0,000000	0,000000	0,000000	2020-11-19T14:35:41:555
0,000000	0,000000	0,000000	0,000000	2020-11-19T14:35:41:594
0,000000	0,000000	0,000000	0,000000	2020-11-19T14:35:41:635
0,000000	0,000000	0,000000	0,000000	2020-11-19T14:35:41:675
0,000000	0,000000	0,000000	0,000000	2020-11-19T14:35:41:716
0,000000	0,000000	0,000000	0,000000	2020-11-19T14:35:41:755
0,000000	0,000000	0,000000	0,000000	2020-11-19T14:35:41:796
0,000000	0,000000	0,000000	0,000000	2020-11-19T14:35:41:835
0,000000	0,000000	0,000000	0,000000	2020-11-19T14:35:41:876
0,000000	0,000000	0,000000	0,000000	2020-11-19T14:35:41:915
0,000000	0,000000	0,000000	0,000000	2020-11-19T14:35:41:956
0,000000	0,000000	0,000000	0,000000	2020-11-19T14:35:41:995
0,000000	0,000000	0,000000	0,000000	2020-11-19T14:35:42:036
0,000000	0,000000	0,000000	0,000000	2020-11-19T14:35:42:075
0,000000	0,000000	0,000000	0,000000	2020-11-19T14:35:42:116
0,000000	0,000000	0,000000	0,000000	2020-11-19T14:35:42:155
0,000000	0,000000	0,000000	0,000000	2020-11-19T14:35:42:196
0,000000	0,000000	0,000000	0,000000	2020-11-19T14:35:42:235
0,000000	0,000000	0,000000	0,000000	2020-11-19T14:35:42:276
0,000000	0,000000	0,000000	0,000000	2020-11-19T14:35:42:315
0,000000	0,000000	0,000000	0,000000	2020-11-19T14:35:42:356
0,000000	0,000000	0,000000	0,000000	2020-11-19T14:35:42:395
89,000000	0,000000	0,000000	0,000000	2020-11-19T14:35:42:436
89,000000	0,000000	0,000000	0,000000	2020-11-19T14:35:42:475
89,000000	0,000000	0,000000	0,000000	2020-11-19T14:35:42:515
89,000000	0,000000	0,000000	0,000000	2020-11-19T14:35:42:555
89,000000	0,000000	0,000000	0,000000	2020-11-19T14:35:42:595
89,000000	0,000000	0,000000	0,000000	2020-11-19T14:35:42:635
89,000000	0,000000	0,000000	0,000000	2020-11-19T14:35:42:675
89,000000	0,000000	0,000000	0,000000	2020-11-19T14:35:42:715
89,000000	0,000000	0,000000	0,000000	2020-11-19T14:35:42:755
89,000000	0,000000	0,000000	0,000000	2020-11-19T14:35:42:795
90,000000	0,000000	0,000000	0,000000	2020-11-19T14:35:42:836
89,000000	0,000000	0,000000	0,000000	2020-11-19T14:35:42:876
89,000000	0,000000	0,000000	0,000000	2020-11-19T14:35:42:916
90,000000	0,000000	0,000000	0,000000	2020-11-19T14:35:42:955
90,000000	0,000000	0,000000	0,000000	2020-11-19T14:35:42:996
90,000000	0,000000	0,000000	0,000000	2020-11-19T14:35:43:036
90,000000	0,000000	0,000000	0,000000	2020-11-19T14:35:43:077
90,000000	0,000000	0,000000	0,000000	2020-11-19T14:35:43:116
90,000000	0,000000	0,000000	0,000000	2020-11-19T14:35:43:166
90,000000	0,000000	0,000000	0,000000	2020-11-19T14:35:43:196
90,000000	0,000000	0,000000	0,000000	2020-11-19T14:35:43:236
90,000000	0,000000	0,000000	0,000000	2020-11-19T14:35:43:277
90,000000	0,000000	0,000000	0,000000	2020-11-19T14:35:43:316
90,000000	0,000000	0,000000	0,000000	2020-11-19T14:35:43:355
90,000000	0,000000	0,000000	0,000000	2020-11-19T14:35:43:396
90,000000	0,000000	0,000000	0,000000	2020-11-19T14:35:43:436
90,000000	0,000000	0,000000	0,000000	2020-11-19T14:35:43:477
90,000000	0,000000	0,000000	0,000000	2020-11-19T14:35:43:516
90,000000	0,000000	0,000000	0,000000	2020-11-19T14:35:43:556
90,000000	0,000000	0,000000	0,000000	2020-11-19T14:35:43:596
90,000000	0,000000	0,000000	0,000000	2020-11-19T14:35:43:637
90,000000	0,000000	0,000000	0,000000	2020-11-19T14:35:43:677
90,000000	0,000000	0,000000	0,000000	2020-11-19T14:35:43:716
90,000000	0,000000	0,000000	0,000000	2020-11-19T14:35:43:757
90,000000	0,000000	0,000000	0,000000	2020-11-19T14:35:43:796
90,000000	0,000000	0,000000	0,000000	2020-11-19T14:35:43:836
90,000000	0,000000	0,000000	0,000000	2020-11-19T14:35:43:877
90,000000	0,000000	0,000000	0,000000	2020-11-19T14:35:43:916
90,000000	0,000000	0,000000	0,000000	2020-11-19T14:35:43:957
90,000000	0,000000	0,000000	0,000000	2020-11-19T14:35:43:997
90,000000	0,000000	0,000000	0,000000	2020-11-19T14:35:44:037
90,000000	0,000000	0,000000	0,000000	2020-11-19T14:35:44:077
90,000000	0,000000	0,000000	0,000000	2020-11-19T14:35:44:117
90,000000	0,000000	0,000000	0,000000	2020-11-19T14:35:44:157
90,000000	0,000000	0,000000	0,000000	2020-11-19T14:35:44:197
90,000000	0,000000	0,000000	0,000000	2020-11-19T14:35:44:237
90,000000	0,000000	0,000000	0,000000	2020-11-19T14:35:44:277
90,000000	0,000000	0,000000	0,000000	2020-11-19T14:35:44:317
90,000000	0,000000	0,000000	0,000000	2020-11-19T14:35:44:357
90,000000	0,000000	0,000000	0,000000	2020-11-19T14:35:44:397
90,000000	0,000000	0,000000	0,000000	2020-11-19T14:35:44:437
90,000000	0,000000	0,000000	0,000000	2020-11-19T14:35:44:477
90,000000	0,000000	0,000000	0,000000	2020-11-19T14:35:44:517
90,000000	0,000000	0,000000	0,000000	2020-11-19T14:35:44:557
89,000000	0,000000	0,000000	0,000000	2020-11-19T14:35:44:597
90,000000	0,000000	0,000000	0,000000	2020-11-19T14:35:44:637
90,000000	0,000000	0,000000	0,000000	2020-11-19T14:35:44:678
90,000000	0,000000	0,000000	0,000000	2020-11-19T14:35:44:717
90,000000	0,000000	0,000000	0,000000	2020-11-19T14:35:44:757
90,000000	0,000000	0,000000	0,000000	2020-11-19T14:35:44:797
90,000000	0,000000	0,000000	0,000000	2020-11-19T14:35:44:838
90,000000	0,000000	0,000000	0,000000	2020-11-19T14:35:44:878
89,000000	0,000000	0,000000	0,000000	2020-11-19T14:35:44:918
89,000000	0,000000	0,000000	0,000000	2020-11-19T14:35:44:958
89,000000	0,000000	0,000000	0,000000	2020-11-19T14:35:44:998
89,000000	0,000000	0,000000	0,000000	2020-11-19T14:35:45:038
89,000000	0,000000	0,000000	0,000000	2020-11-19T14:35:45:078
89,000000	0,000000	0,000000	0,000000	2020-11-19T14:35:45:118
89,000000	0,000000	0,000000	0,000000	2020-11-19T14:35:45:158
89,000000	0,000000	0,000000	0,000000	2020-11-19T14:35:45:198
89,000000	0,000000	0,000000	0,000000	2020-11-19T14:35:45:238
89,000000	0,000000	0,000000	0,000000	2020-11-19T14:35:45:278
89,000000	0,000000	0,000000	0,000000	2020-11-19T14:35:45:318
89,000000	0,000000	0,000000	0,000000	2020-11-19T14:35:45:357
89,000000	0,000000	0,000000	0,000000	2020-11-19T14:35:45:398
89,000000	0,000000	0,000000	0,000000	2020-11-19T14:35:45:438
89,000000	0,000000	0,000000	0,000000	2020-11-19T14:35:45:478
89,000000	0,000000	0,000000	0,000000	2020-11-19T14:35:45:518
89,000000	0,000000	0,000000	0,000000	2020-11-19T14:35:45:558
89,000000	0,000000	0,000000	0,000000	2020-11-19T14:35:45:599
89,000000	0,000000	0,000000	0,000000	2020-11-19T14:35:45:638
89,000000	0,000000	0,000000	0,000000	2020-11-19T14:35:45:679
89,000000	0,000000	0,000000	0,000000	2020-11-19T14:35:45:718
89,000000	0,000000	0,000000	0,000000	2020-11-19T14:35:45:758
89,000000	0,000000	0,000000	0,000000	2020-11-19T14:35:45:798
89,000000	0,000000	0,000000	0,000000	2020-11-19T14:35:45:838
89,000000	0,000000	0,000000	0,000000	2020-11-19T14:35:45:879
89,000000	0,000000	0,000000	0,000000	2020-11-19T14:35:45:919
89,000000	0,000000	0,000000	0,000000	2020-11-19T14:35:45:959
89,000000	0,000000	0,000000	0,000000	2020-11-19T14:35:45:998
89,000000	0,000000	0,000000	0,000000	2020-11-19T14:35:46:039
89,000000	0,000000	0,000000	0,000000	2020-11-19T14:35:46:079
89,000000	0,000000	0,000000	0,000000	2020-11-19T14:35:46:119
89,000000	0,000000	0,000000	0,000000	2020-11-19T14:35:46:159
89,000000	0,000000	0,000000	0,000000	2020-11-19T14:35:46:199
89,000000	0,000000	0,000000	0,000000	2020-11-19T14:35:46:239
89,000000	0,000000	0,000000	0,000000	2020-11-19T14:35:46:279
89,000000	0,000000	0,000000	0,000000	2020-11-19T14:35:46:319
89,000000	0,000000	0,000000	0,000000	2020-11-19T14:35:46:360
89,000000	0,000000	0,000000	0,000000	2020-11-19T14:35:46:398
89,000000	0,000000	0,000000	0,000000	2020-11-19T14:35:46:439
88,000000	0,000000	0,000000	0,000000	2020-11-19T14:35:46:480
89,000000	0,000000	0,000000	0,000000	2020-11-19T14:35:46:520
89,000000	0,000000	0,000000	0,000000	2020-11-19T14:35:46:559
89,000000	0,000000	0,000000	0,000000	2020-11-19T14:35:46:599
89,000000	0,000000	0,000000	0,000000	2020-11-19T14:35:46:639
89,000000	0,000000	0,000000	0,000000	2020-11-19T14:35:46:680
89,000000	0,000000	0,000000	0,000000	2020-11-19T14:35:46:719
89,000000	0,000000	0,000000	0,000000	2020-11-19T14:35:46:759
89,000000	0,000000	0,000000	0,000000	2020-11-19T14:35:46:799
89,000000	0,000000	0,000000	0,000000	2020-11-19T14:35:46:839
89,000000	0,000000	0,000000	0,000000	2020-11-19T14:35:46:880
89,000000	0,000000	0,000000	0,000000	2020-11-19T14:35:46:919
89,000000	0,000000	0,000000	0,000000	2020-11-19T14:35:46:959
89,000000	0,000000	0,000000	0,000000	2020-11-19T14:35:47:000
89,000000	0,000000	0,000000	0,000000	2020-11-19T14:35:47:039
89,000000	0,000000	0,000000	0,000000	2020-11-19T14:35:47:079
89,000000	0,000000	0,000000	0,000000	2020-11-19T14:35:47:119
89,000000	0,000000	0,000000	0,000000	2020-11-19T14:35:47:159
89,000000	0,000000	0,000000	0,000000	2020-11-19T14:35:47:199
89,000000	0,000000	0,000000	0,000000	2020-11-19T14:35:47:240
89,000000	0,000000	0,000000	0,000000	2020-11-19T14:35:47:281
89,000000	0,000000	0,000000	0,000000	2020-11-19T14:35:47:321
89,000000	0,000000	0,000000	0,000000	2020-11-19T14:35:47:361
89,000000	0,000000	0,000000	0,000000	2020-11-19T14:35:47:401
89,000000	0,000000	0,000000	0,000000	2020-11-19T14:35:47:440
89,000000	0,000000	0,000000	0,000000	2020-11-19T14:35:47:481
89,000000	0,000000	0,000000	0,000000	2020-11-19T14:35:47:520
89,000000	0,000000	0,000000	0,000000	2020-11-19T14:35:47:560
89,000000	0,000000	0,000000	0,000000	2020-11-19T14:35:47:600
89,000000	0,000000	0,000000	0,000000	2020-11-19T14:35:47:640
89,000000	0,000000	0,000000	0,000000	2020-11-19T14:35:47:680
89,000000	0,000000	0,000000	0,000000	2020-11-19T14:35:47:720
89,000000	0,000000	0,000000	0,000000	2020-11-19T14:35:47:760
89,000000	0,000000	0,000000	0,000000	2020-11-19T14:35:47:800
89,000000	0,000000	0,000000	0,000000	2020-11-19T14:35:47:840
88,000000	0,000000	0,000000	0,000000	2020-11-19T14:35:47:881
89,000000	0,000000	0,000000	0,000000	2020-11-19T14:35:47:920
89,000000	0,000000	0,000000	0,000000	2020-11-19T14:35:47:960
89,000000	0,000000	0,000000	0,000000	2020-11-19T14:35:48:000
89,000000	0,000000	0,000000	0,000000	2020-11-19T14:35:48:040
89,000000	0,000000	0,000000	0,000000	2020-11-19T14:35:48:081
89,000000	0,000000	0,000000	0,000000	2020-11-19T14:35:48:121
88,000000	0,000000	0,000000	0,000000	2020-11-19T14:35:48:160
88,000000	0,000000	0,000000	0,000000	2020-11-19T14:35:48:200
88,000000	0,000000	742,000000	0,000000	2020-11-19T14:35:48:240
89,000000	0,000000	742,000000	0,000000	2020-11-19T14:35:48:281
89,000000	0,000000	742,000000	0,000000	2020-11-19T14:35:48:320
89,000000	0,000000	742,000000	0,000000	2020-11-19T14:35:48:360
88,000000	0,000000	742,000000	0,000000	2020-11-19T14:35:48:400
89,000000	0,000000	742,000000	0,000000	2020-11-19T14:35:48:441
88,000000	0,000000	742,000000	0,000000	2020-11-19T14:35:48:482
88,000000	0,000000	742,000000	0,000000	2020-11-19T14:35:48:521
88,000000	0,000000	742,000000	0,000000	2020-11-19T14:35:48:561
89,000000	0,000000	742,000000	0,000000	2020-11-19T14:35:48:601
89,000000	0,000000	742,000000	0,000000	2020-11-19T14:35:48:641
89,000000	0,000000	742,000000	0,000000	2020-11-19T14:35:48:682
89,000000	0,000000	742,000000	0,000000	2020-11-19T14:35:48:721
89,000000	0,000000	742,000000	0,000000	2020-11-19T14:35:48:761
89,000000	0,000000	742,000000	0,000000	2020-11-19T14:35:48:801
89,000000	0,000000	742,000000	0,000000	2020-11-19T14:35:48:842
89,000000	0,000000	742,000000	0,000000	2020-11-19T14:35:48:882
89,000000	0,000000	742,000000	0,000000	2020-11-19T14:35:48:922
89,000000	0,000000	742,000000	0,000000	2020-11-19T14:35:48:962
89,000000	0,000000	742,000000	0,000000	2020-11-19T14:35:49:002
89,000000	0,000000	579,000000	0,000000	2020-11-19T14:35:49:042
89,000000	0,000000	579,000000	0,000000	2020-11-19T14:35:49:082
89,000000	0,000000	579,000000	0,000000	2020-11-19T14:35:49:123
89,000000	0,000000	579,000000	0,000000	2020-11-19T14:35:49:162
89,000000	0,000000	579,000000	0,000000	2020-11-19T14:35:49:202
89,000000	0,000000	579,000000	0,000000	2020-11-19T14:35:49:242
89,000000	0,000000	579,000000	0,000000	2020-11-19T14:35:49:283
89,000000	0,000000	579,000000	0,000000	2020-11-19T14:35:49:322
89,000000	0,000000	579,000000	0,000000	2020-11-19T14:35:49:362
89,000000	0,000000	579,000000	0,000000	2020-11-19T14:35:49:402
89,000000	0,000000	579,000000	0,000000	2020-11-19T14:35:49:442
89,000000	0,000000	579,000000	0,000000	2020-11-19T14:35:49:483
89,000000	0,000000	579,000000	0,000000	2020-11-19T14:35:49:522
89,000000	0,000000	579,000000	0,000000	2020-11-19T14:35:49:562
89,000000	0,000000	579,000000	0,000000	2020-11-19T14:35:49:602
89,000000	0,000000	786,000000	0,000000	2020-11-19T14:35:49:643
89,000000	0,000000	786,000000	0,000000	2020-11-19T14:35:49:683
89,000000	0,000000	786,000000	0,000000	2020-11-19T14:35:49:723
89,000000	0,000000	786,000000	0,000000	2020-11-19T14:35:49:762
89,000000	0,000000	786,000000	0,000000	2020-11-19T14:35:49:803
89,000000	0,000000	786,000000	0,000000	2020-11-19T14:35:49:842
89,000000	0,000000	786,000000	0,000000	2020-11-19T14:35:49:883
89,000000	0,000000	786,000000	0,000000	2020-11-19T14:35:49:923
89,000000	0,000000	786,000000	0,000000	2020-11-19T14:35:49:963
89,000000	0,000000	786,000000	0,000000	2020-11-19T14:35:50:003
89,000000	0,000000	786,000000	0,000000	2020-11-19T14:35:50:043
89,000000	0,000000	786,000000	0,000000	2020-11-19T14:35:50:083
89,000000	0,000000	786,000000	0,000000	2020-11-19T14:35:50:123
89,000000	0,000000	786,000000	0,000000	2020-11-19T14:35:50:163
89,000000	0,000000	786,000000	0,000000	2020-11-19T14:35:50:204
89,000000	0,000000	786,000000	0,000000	2020-11-19T14:35:50:251
89,000000	0,000000	786,000000	0,000000	2020-11-19T14:35:50:283
89,000000	0,000000	786,000000	0,000000	2020-11-19T14:35:50:323
89,000000	0,000000	786,000000	0,000000	2020-11-19T14:35:50:363
89,000000	0,000000	786,000000	0,000000	2020-11-19T14:35:50:403
89,000000	0,000000	786,000000	0,000000	2020-11-19T14:35:50:443
89,000000	0,000000	786,000000	0,000000	2020-11-19T14:35:50:483
89,000000	0,000000	786,000000	0,000000	2020-11-19T14:35:50:523
89,000000	0,000000	786,000000	0,000000	2020-11-19T14:35:50:563
88,000000	0,000000	786,000000	0,000000	2020-11-19T14:35:50:610
88,000000	0,000000	615,000000	0,000000	2020-11-19T14:35:50:643
88,000000	0,000000	615,000000	0,000000	2020-11-19T14:35:50:684
89,000000	0,000000	615,000000	0,000000	2020-11-19T14:35:50:723
89,000000	0,000000	615,000000	0,000000	2020-11-19T14:35:50:763
88,000000	0,000000	615,000000	0,000000	2020-11-19T14:35:50:804
89,000000	0,000000	615,000000	0,000000	2020-11-19T14:35:50:844
89,000000	0,000000	615,000000	0,000000	2020-11-19T14:35:50:884
89,000000	0,000000	615,000000	0,000000	2020-11-19T14:35:50:924
89,000000	0,000000	615,000000	0,000000	2020-11-19T14:35:50:964
88,000000	0,000000	615,000000	0,000000	2020-11-19T14:35:51:004
88,000000	0,000000	615,000000	0,000000	2020-11-19T14:35:51:044
88,000000	0,000000	615,000000	0,000000	2020-11-19T14:35:51:084
88,000000	0,000000	615,000000	0,000000	2020-11-19T14:35:51:124
88,000000	0,000000	615,000000	0,000000	2020-11-19T14:35:51:164
89,000000	0,000000	615,000000	0,000000	2020-11-19T14:35:51:204
89,000000	0,000000	615,000000	0,000000	2020-11-19T14:35:51:245
89,000000	0,000000	615,000000	0,000000	2020-11-19T14:35:51:284
89,000000	0,000000	615,000000	0,000000	2020-11-19T14:35:51:324
89,000000	0,000000	615,000000	0,000000	2020-11-19T14:35:51:365
89,000000	0,000000	615,000000	0,000000	2020-11-19T14:35:51:404
89,000000	0,000000	615,000000	0,000000	2020-11-19T14:35:51:445
89,000000	0,000000	615,000000	0,000000	2020-11-19T14:35:51:485
89,000000	0,000000	615,000000	0,000000	2020-11-19T14:35:51:524
89,000000	0,000000	615,000000	0,000000	2020-11-19T14:35:51:564
89,000000	0,000000	615,000000	0,000000	2020-11-19T14:35:51:604
89,000000	0,000000	615,000000	0,000000	2020-11-19T14:35:51:644
89,000000	0,000000	615,000000	0,000000	2020-11-19T14:35:51:684
89,000000	0,000000	615,000000	0,000000	2020-11-19T14:35:51:725
89,000000	0,000000	615,000000	0,000000	2020-11-19T14:35:51:764
89,000000	0,000000	615,000000	0,000000	2020-11-19T14:35:51:804
89,000000	0,000000	615,000000	0,000000	2020-11-19T14:35:51:845
89,000000	0,000000	615,000000	0,000000	2020-11-19T14:35:51:885
89,000000	0,000000	615,000000	0,000000	2020-11-19T14:35:51:925
89,000000	0,000000	615,000000	0,000000	2020-11-19T14:35:51:964
89,000000	0,000000	615,000000	0,000000	2020-11-19T14:35:52:005
89,000000	0,000000	615,000000	0,000000	2020-11-19T14:35:52:045
89,000000	0,000000	615,000000	0,000000	2020-11-19T14:35:52:085
90,000000	0,000000	615,000000	0,000000	2020-11-19T14:35:52:125
90,000000	0,000000	615,000000	0,000000	2020-11-19T14:35:52:165
90,000000	0,000000	615,000000	0,000000	2020-11-19T14:35:52:205
90,000000	0,000000	615,000000	0,000000	2020-11-19T14:35:52:245
90,000000	0,000000	615,000000	0,000000	2020-11-19T14:35:52:285
90,000000	0,000000	615,000000	0,000000	2020-11-19T14:35:52:325
90,000000	0,000000	615,000000	0,000000	2020-11-19T14:35:52:366
90,000000	0,000000	615,000000	0,000000	2020-11-19T14:35:52:405
90,000000	0,000000	615,000000	0,000000	2020-11-19T14:35:52:445
90,000000	0,000000	615,000000	0,000000	2020-11-19T14:35:52:485
90,000000	0,000000	615,000000	0,000000	2020-11-19T14:35:52:525
90,000000	0,000000	615,000000	0,000000	2020-11-19T14:35:52:565
90,000000	0,000000	615,000000	0,000000	2020-11-19T14:35:52:605
90,000000	0,000000	615,000000	0,000000	2020-11-19T14:35:52:645
90,000000	0,000000	615,000000	0,000000	2020-11-19T14:35:52:686
90,000000	0,000000	615,000000	0,000000	2020-11-19T14:35:52:725
90,000000	0,000000	615,000000	0,000000	2020-11-19T14:35:52:766
90,000000	0,000000	615,000000	0,000000	2020-11-19T14:35:52:805
90,000000	0,000000	615,000000	0,000000	2020-11-19T14:35:52:845
90,000000	0,000000	615,000000	0,000000	2020-11-19T14:35:52:886
90,000000	0,000000	615,000000	0,000000	2020-11-19T14:35:52:925
91,000000	0,000000	615,000000	0,000000	2020-11-19T14:35:52:965
91,000000	0,000000	615,000000	0,000000	2020-11-19T14:35:53:006
91,000000	0,000000	615,000000	0,000000	2020-11-19T14:35:53:045
91,000000	0,000000	615,000000	0,000000	2020-11-19T14:35:53:086
91,000000	0,000000	615,000000	0,000000	2020-11-19T14:35:53:126
91,000000	0,000000	615,000000	0,000000	2020-11-19T14:35:53:166
91,000000	0,000000	615,000000	0,000000	2020-11-19T14:35:53:206
90,000000	0,000000	615,000000	0,000000	2020-11-19T14:35:53:246
90,000000	0,000000	615,000000	0,000000	2020-11-19T14:35:53:286
90,000000	0,000000	615,000000	0,000000	2020-11-19T14:35:53:326
91,000000	0,000000	615,000000	0,000000	2020-11-19T14:35:53:366
91,000000	0,000000	615,000000	0,000000	2020-11-19T14:35:53:406
91,000000	0,000000	615,000000	0,000000	2020-11-19T14:35:53:446
91,000000	0,000000	615,000000	0,000000	2020-11-19T14:35:53:487
91,000000	0,000000	615,000000	0,000000	2020-11-19T14:35:53:526
91,000000	0,000000	615,000000	0,000000	2020-11-19T14:35:53:566
92,000000	0,000000	615,000000	0,000000	2020-11-19T14:35:53:606
91,000000	0,000000	615,000000	0,000000	2020-11-19T14:35:53:646
91,000000	0,000000	615,000000	0,000000	2020-11-19T14:35:53:687
91,000000	0,000000	615,000000	0,000000	2020-11-19T14:35:53:727
91,000000	0,000000	615,000000	0,000000	2020-11-19T14:35:53:766
91,000000	0,000000	615,000000	0,000000	2020-11-19T14:35:53:806
91,000000	0,000000	615,000000	0,000000	2020-11-19T14:35:53:847
91,000000	0,000000	615,000000	0,000000	2020-11-19T14:35:53:887
91,000000	0,000000	615,000000	0,000000	2020-11-19T14:35:53:926
91,000000	0,000000	615,000000	0,000000	2020-11-19T14:35:53:967
91,000000	0,000000	615,000000	0,000000	2020-11-19T14:35:54:006
91,000000	0,000000	615,000000	0,000000	2020-11-19T14:35:54:047
91,000000	0,000000	615,000000	0,000000	2020-11-19T14:35:54:087
91,000000	0,000000	615,000000	0,000000	2020-11-19T14:35:54:127
91,000000	0,000000	615,000000	0,000000	2020-11-19T14:35:54:166
91,000000	0,000000	615,000000	0,000000	2020-11-19T14:35:54:207
91,000000	0,000000	615,000000	0,000000	2020-11-19T14:35:54:247
91,000000	0,000000	615,000000	0,000000	2020-11-19T14:35:54:287
91,000000	0,000000	615,000000	0,000000	2020-11-19T14:35:54:327
91,000000	0,000000	615,000000	0,000000	2020-11-19T14:35:54:367
91,000000	0,000000	615,000000	0,000000	2020-11-19T14:35:54:406
91,000000	0,000000	615,000000	0,000000	2020-11-19T14:35:54:447
91,000000	0,000000	615,000000	0,000000	2020-11-19T14:35:54:497
91,000000	0,000000	615,000000	0,000000	2020-11-19T14:35:54:527
91,000000	0,000000	615,000000	0,000000	2020-11-19T14:35:54:567
91,000000	0,000000	615,000000	0,000000	2020-11-19T14:35:54:607
92,000000	0,000000	615,000000	0,000000	2020-11-19T14:35:54:647
91,000000	0,000000	615,000000	0,000000	2020-11-19T14:35:54:688
91,000000	0,000000	615,000000	0,000000	2020-11-19T14:35:54:727
92,000000	0,000000	615,000000	0,000000	2020-11-19T14:35:54:767
91,000000	0,000000	615,000000	0,000000	2020-11-19T14:35:54:807
91,000000	0,000000	615,000000	0,000000	2020-11-19T14:35:54:848
92,000000	0,000000	615,000000	0,000000	2020-11-19T14:35:54:888
92,000000	0,000000	615,000000	0,000000	2020-11-19T14:35:54:928
92,000000	0,000000	615,000000	0,000000	2020-11-19T14:35:54:967
92,000000	0,000000	615,000000	0,000000	2020-11-19T14:35:55:008
92,000000	0,000000	615,000000	0,000000	2020-11-19T14:35:55:048
92,000000	0,000000	615,000000	0,000000	2020-11-19T14:35:55:088
92,000000	0,000000	615,000000	0,000000	2020-11-19T14:35:55:128
91,000000	0,000000	615,000000	0,000000	2020-11-19T14:35:55:168
92,000000	0,000000	615,000000	0,000000	2020-11-19T14:35:55:208
92,000000	0,000000	682,000000	0,000000	2020-11-19T14:35:55:248
92,000000	0,000000	682,000000	0,000000	2020-11-19T14:35:55:289
92,000000	0,000000	682,000000	0,000000	2020-11-19T14:35:55:328
92,000000	0,000000	682,000000	0,000000	2020-11-19T14:35:55:368
92,000000	0,000000	682,000000	0,000000	2020-11-19T14:35:55:408
92,000000	0,000000	682,000000	0,000000	2020-11-19T14:35:55:448
91,000000	0,000000	682,000000	0,000000	2020-11-19T14:35:55:489
91,000000	0,000000	682,000000	0,000000	2020-11-19T14:35:55:529
91,000000	0,000000	682,000000	0,000000	2020-11-19T14:35:55:569
-10,000000	0,000000	682,000000	0,000000	2020-11-19T14:35:55:610
-10,000000	0,000000	682,000000	0,000000	2020-11-19T14:35:55:649
-10,000000	0,000000	682,000000	0,000000	2020-11-19T14:35:55:689
-10,000000	0,000000	682,000000	0,000000	2020-11-19T14:35:55:729
-10,000000	0,000000	682,000000	0,000000	2020-11-19T14:35:55:769
-10,000000	0,000000	682,000000	0,000000	2020-11-19T14:35:55:809
-10,000000	0,000000	682,000000	0,000000	2020-11-19T14:35:55:850
92,000000	0,000000	682,000000	0,000000	2020-11-19T14:35:55:888
92,000000	0,000000	682,000000	0,000000	2020-11-19T14:35:55:930
92,000000	0,000000	682,000000	0,000000	2020-11-19T14:35:55:969
92,000000	0,000000	682,000000	0,000000	2020-11-19T14:35:56:010
92,000000	0,000000	682,000000	0,000000	2020-11-19T14:35:56:049
92,000000	0,000000	682,000000	0,000000	2020-11-19T14:35:56:090
92,000000	0,000000	682,000000	0,000000	2020-11-19T14:35:56:130
92,000000	0,000000	682,000000	0,000000	2020-11-19T14:35:56:170
92,000000	0,000000	682,000000	0,000000	2020-11-19T14:35:56:209
92,000000	0,000000	682,000000	0,000000	2020-11-19T14:35:56:250
92,000000	0,000000	682,000000	0,000000	2020-11-19T14:35:56:290
92,000000	0,000000	682,000000	0,000000	2020-11-19T14:35:56:330
92,000000	0,000000	682,000000	0,000000	2020-11-19T14:35:56:370
92,000000	0,000000	682,000000	0,000000	2020-11-19T14:35:56:411
92,000000	0,000000	682,000000	0,000000	2020-11-19T14:35:56:450
-10,000000	0,000000	682,000000	0,000000	2020-11-19T14:35:56:491
-10,000000	0,000000	682,000000	0,000000	2020-11-19T14:35:56:529
-10,000000	0,000000	682,000000	0,000000	2020-11-19T14:35:56:570
-10,000000	0,000000	682,000000	0,000000	2020-11-19T14:35:56:610
-10,000000	0,000000	682,000000	0,000000	2020-11-19T14:35:56:651
-10,000000	0,000000	682,000000	0,000000	2020-11-19T14:35:56:690
-10,000000	0,000000	682,000000	0,000000	2020-11-19T14:35:56:731
-10,000000	0,000000	682,000000	0,000000	2020-11-19T14:35:56:770
-10,000000	0,000000	682,000000	0,000000	2020-11-19T14:35:56:811
-10,000000	0,000000	682,000000	0,000000	2020-11-19T14:35:56:850
-10,000000	0,000000	682,000000	0,000000	2020-11-19T14:35:56:891
-10,000000	0,000000	682,000000	0,000000	2020-11-19T14:35:56:930
-10,000000	0,000000	682,000000	0,000000	2020-11-19T14:35:56:971
-10,000000	0,000000	682,000000	0,000000	2020-11-19T14:35:57:010
92,000000	0,000000	533,000000	0,000000	2020-11-19T14:35:57:051
-10,000000	0,000000	533,000000	0,000000	2020-11-19T14:35:57:090
-10,000000	0,000000	533,000000	0,000000	2020-11-19T14:35:57:131
-10,000000	0,000000	533,000000	0,000000	2020-11-19T14:35:57:170
-10,000000	0,000000	533,000000	0,000000	2020-11-19T14:35:57:211
-10,000000	0,000000	533,000000	0,000000	2020-11-19T14:35:57:250
-10,000000	0,000000	533,000000	0,000000	2020-11-19T14:35:57:291
-10,000000	0,000000	533,000000	0,000000	2020-11-19T14:35:57:330
-10,000000	0,000000	533,000000	0,000000	2020-11-19T14:35:57:371
-10,000000	0,000000	533,000000	0,000000	2020-11-19T14:35:57:410
-10,000000	0,000000	533,000000	0,000000	2020-11-19T14:35:57:451
-10,000000	0,000000	533,000000	0,000000	2020-11-19T14:35:57:491
-10,000000	0,000000	533,000000	0,000000	2020-11-19T14:35:57:531
-10,000000	0,000000	533,000000	0,000000	2020-11-19T14:35:57:571
-10,000000	0,000000	533,000000	0,000000	2020-11-19T14:35:57:611
-10,000000	0,000000	533,000000	0,000000	2020-11-19T14:35:57:651
-10,000000	0,000000	533,000000	0,000000	2020-11-19T14:35:57:692
-10,000000	0,000000	533,000000	0,000000	2020-11-19T14:35:57:731
-10,000000	0,000000	533,000000	0,000000	2020-11-19T14:35:57:771
-10,000000	0,000000	533,000000	0,000000	2020-11-19T14:35:57:811
-10,000000	0,000000	533,000000	0,000000	2020-11-19T14:35:57:852
-10,000000	0,000000	533,000000	0,000000	2020-11-19T14:35:57:891
-10,000000	0,000000	533,000000	0,000000	2020-11-19T14:35:57:932
-10,000000	0,000000	533,000000	0,000000	2020-11-19T14:35:57:971
-10,000000	0,000000	533,000000	0,000000	2020-11-19T14:35:58:012
-10,000000	0,000000	533,000000	0,000000	2020-11-19T14:35:58:051
-10,000000	0,000000	533,000000	0,000000	2020-11-19T14:35:58:092
-10,000000	0,000000	533,000000	0,000000	2020-11-19T14:35:58:130
-10,000000	0,000000	533,000000	0,000000	2020-11-19T14:35:58:172
-10,000000	0,000000	533,000000	0,000000	2020-11-19T14:35:58:210
-10,000000	0,000000	533,000000	0,000000	2020-11-19T14:35:58:252
-10,000000	0,000000	533,000000	0,000000	2020-11-19T14:35:58:291
-10,000000	0,000000	533,000000	0,000000	2020-11-19T14:35:58:331
-10,000000	0,000000	533,000000	0,000000	2020-11-19T14:35:58:370
-10,000000	0,000000	533,000000	0,000000	2020-11-19T14:35:58:412
-10,000000	0,000000	533,000000	0,000000	2020-11-19T14:35:58:451
-10,000000	0,000000	533,000000	0,000000	2020-11-19T14:35:58:492
-10,000000	0,000000	533,000000	0,000000	2020-11-19T14:35:58:531
-10,000000	0,000000	533,000000	0,000000	2020-11-19T14:35:58:573
-10,000000	0,000000	533,000000	0,000000	2020-11-19T14:35:58:611
93,000000	0,000000	533,000000	0,000000	2020-11-19T14:35:58:652
93,000000	0,000000	533,000000	0,000000	2020-11-19T14:35:58:691
93,000000	0,000000	533,000000	0,000000	2020-11-19T14:35:58:732
-10,000000	0,000000	533,000000	0,000000	2020-11-19T14:35:58:771
-10,000000	0,000000	533,000000	0,000000	2020-11-19T14:35:58:812
-10,000000	0,000000	533,000000	0,000000	2020-11-19T14:35:58:851
-10,000000	0,000000	533,000000	0,000000	2020-11-19T14:35:58:893
-10,000000	0,000000	533,000000	0,000000	2020-11-19T14:35:58:931
-10,000000	0,000000	533,000000	0,000000	2020-11-19T14:35:58:972
-10,000000	0,000000	533,000000	0,000000	2020-11-19T14:35:59:011
-10,000000	0,000000	533,000000	0,000000	2020-11-19T14:35:59:053
-10,000000	0,000000	533,000000	0,000000	2020-11-19T14:35:59:092
-10,000000	0,000000	533,000000	0,000000	2020-11-19T14:35:59:133
-10,000000	0,000000	533,000000	0,000000	2020-11-19T14:35:59:171
-10,000000	0,000000	533,000000	0,000000	2020-11-19T14:35:59:213
-10,000000	0,000000	533,000000	0,000000	2020-11-19T14:35:59:252
-10,000000	0,000000	533,000000	0,000000	2020-11-19T14:35:59:293
-10,000000	0,000000	533,000000	0,000000	2020-11-19T14:35:59:332
-10,000000	0,000000	533,000000	0,000000	2020-11-19T14:35:59:373
93,000000	0,000000	533,000000	0,000000	2020-11-19T14:35:59:412
93,000000	0,000000	533,000000	0,000000	2020-11-19T14:35:59:453
93,000000	0,000000	533,000000	0,000000	2020-11-19T14:35:59:492
-10,000000	0,000000	533,000000	0,000000	2020-11-19T14:35:59:533
-10,000000	0,000000	533,000000	0,000000	2020-11-19T14:35:59:573
93,000000	0,000000	533,000000	0,000000	2020-11-19T14:35:59:613
93,000000	0,000000	533,000000	0,000000	2020-11-19T14:35:59:652
93,000000	0,000000	533,000000	0,000000	2020-11-19T14:35:59:693
93,000000	0,000000	533,000000	0,000000	2020-11-19T14:35:59:732
93,000000	0,000000	533,000000	0,000000	2020-11-19T14:35:59:773
93,000000	0,000000	533,000000	0,000000	2020-11-19T14:35:59:812
93,000000	0,000000	533,000000	0,000000	2020-11-19T14:35:59:853
-10,000000	0,000000	533,000000	0,000000	2020-11-19T14:35:59:893
92,000000	0,000000	533,000000	0,000000	2020-11-19T14:35:59:933
93,000000	0,000000	533,000000	0,000000	2020-11-19T14:35:59:973
93,000000	0,000000	533,000000	0,000000	2020-11-19T14:36:00:013
93,000000	0,000000	533,000000	0,000000	2020-11-19T14:36:00:052
93,000000	0,000000	533,000000	0,000000	2020-11-19T14:36:00:094
93,000000	0,000000	533,000000	0,000000	2020-11-19T14:36:00:133
93,000000	0,000000	533,000000	0,000000	2020-11-19T14:36:00:174
93,000000	0,000000	533,000000	0,000000	2020-11-19T14:36:00:213
93,000000	0,000000	533,000000	0,000000	2020-11-19T14:36:00:253
93,000000	0,000000	533,000000	0,000000	2020-11-19T14:36:00:293
93,000000	0,000000	533,000000	0,000000	2020-11-19T14:36:00:333
93,000000	0,000000	533,000000	0,000000	2020-11-19T14:36:00:373
93,000000	0,000000	533,000000	0,000000	2020-11-19T14:36:00:414
93,000000	0,000000	533,000000	0,000000	2020-11-19T14:36:00:453
93,000000	0,000000	533,000000	0,000000	2020-11-19T14:36:00:494
93,000000	0,000000	533,000000	0,000000	2020-11-19T14:36:00:533
93,000000	0,000000	533,000000	0,000000	2020-11-19T14:36:00:575
93,000000	0,000000	533,000000	0,000000	2020-11-19T14:36:00:614
93,000000	0,000000	533,000000	0,000000	2020-11-19T14:36:00:654
93,000000	0,000000	533,000000	0,000000	2020-11-19T14:36:00:694
93,000000	0,000000	533,000000	0,000000	2020-11-19T14:36:00:734
93,000000	0,000000	533,000000	0,000000	2020-11-19T14:36:00:773
93,000000	0,000000	533,000000	0,000000	2020-11-19T14:36:00:814
94,000000	0,000000	533,000000	0,000000	2020-11-19T14:36:00:853
94,000000	0,000000	533,000000	0,000000	2020-11-19T14:36:00:895
93,000000	0,000000	533,000000	0,000000	2020-11-19T14:36:00:932
93,000000	0,000000	533,000000	0,000000	2020-11-19T14:36:00:974
94,000000	0,000000	533,000000	0,000000	2020-11-19T14:36:01:013
94,000000	0,000000	533,000000	0,000000	2020-11-19T14:36:01:055
94,000000	0,000000	533,000000	0,000000	2020-11-19T14:36:01:094
94,000000	0,000000	533,000000	0,000000	2020-11-19T14:36:01:134
94,000000	0,000000	533,000000	0,000000	2020-11-19T14:36:01:173
94,000000	0,000000	533,000000	0,000000	2020-11-19T14:36:01:214
94,000000	0,000000	533,000000	0,000000	2020-11-19T14:36:01:254
94,000000	0,000000	533,000000	0,000000	2020-11-19T14:36:01:295
94,000000	0,000000	533,000000	0,000000	2020-11-19T14:36:01:334
94,000000	0,000000	533,000000	0,000000	2020-11-19T14:36:01:376
94,000000	0,000000	533,000000	0,000000	2020-11-19T14:36:01:414
94,000000	0,000000	533,000000	0,000000	2020-11-19T14:36:01:455
94,000000	0,000000	533,000000	0,000000	2020-11-19T14:36:01:494
94,000000	0,000000	533,000000	0,000000	2020-11-19T14:36:01:535
94,000000	0,000000	533,000000	0,000000	2020-11-19T14:36:01:573
94,000000	0,000000	533,000000	0,000000	2020-11-19T14:36:01:615
94,000000	0,000000	533,000000	0,000000	2020-11-19T14:36:01:654
94,000000	0,000000	533,000000	0,000000	2020-11-19T14:36:01:695
94,000000	0,000000	533,000000	0,000000	2020-11-19T14:36:01:734
94,000000	0,000000	533,000000	0,000000	2020-11-19T14:36:01:775
94,000000	0,000000	533,000000	0,000000	2020-11-19T14:36:01:815
94,000000	0,000000	533,000000	0,000000	2020-11-19T14:36:01:855
94,000000	0,000000	533,000000	0,000000	2020-11-19T14:36:01:894
94,000000	0,000000	533,000000	0,000000	2020-11-19T14:36:01:935
94,000000	0,000000	533,000000	0,000000	2020-11-19T14:36:01:975
94,000000	0,000000	533,000000	0,000000	2020-11-19T14:36:02:015
94,000000	0,000000	533,000000	0,000000	2020-11-19T14:36:02:054
94,000000	0,000000	533,000000	0,000000	2020-11-19T14:36:02:096
94,000000	0,000000	533,000000	0,000000	2020-11-19T14:36:02:135
94,000000	0,000000	533,000000	0,000000	2020-11-19T14:36:02:176
94,000000	0,000000	533,000000	0,000000	2020-11-19T14:36:02:214
94,000000	0,000000	533,000000	0,000000	2020-11-19T14:36:02:255
94,000000	0,000000	533,000000	0,000000	2020-11-19T14:36:02:295
94,000000	0,000000	533,000000	0,000000	2020-11-19T14:36:02:335
94,000000	0,000000	533,000000	0,000000	2020-11-19T14:36:02:375
94,000000	0,000000	533,000000	0,000000	2020-11-19T14:36:02:416
94,000000	0,000000	533,000000	0,000000	2020-11-19T14:36:02:454
94,000000	0,000000	533,000000	0,000000	2020-11-19T14:36:02:496
94,000000	0,000000	533,000000	0,000000	2020-11-19T14:36:02:535
94,000000	0,000000	533,000000	0,000000	2020-11-19T14:36:02:576
94,000000	0,000000	533,000000	0,000000	2020-11-19T14:36:02:615
94,000000	0,000000	533,000000	0,000000	2020-11-19T14:36:02:656
94,000000	0,000000	533,000000	0,000000	2020-11-19T14:36:02:695
94,000000	0,000000	533,000000	0,000000	2020-11-19T14:36:02:736
94,000000	0,000000	533,000000	0,000000	2020-11-19T14:36:02:776
94,000000	0,000000	533,000000	0,000000	2020-11-19T14:36:02:816
95,000000	0,000000	533,000000	0,000000	2020-11-19T14:36:02:855
95,000000	0,000000	533,000000	0,000000	2020-11-19T14:36:02:896
95,000000	0,000000	533,000000	0,000000	2020-11-19T14:36:02:935
95,000000	0,000000	533,000000	0,000000	2020-11-19T14:36:02:976
95,000000	0,000000	533,000000	0,000000	2020-11-19T14:36:03:015
95,000000	0,000000	533,000000	0,000000	2020-11-19T14:36:03:056
95,000000	0,000000	533,000000	0,000000	2020-11-19T14:36:03:096
95,000000	0,000000	533,000000	0,000000	2020-11-19T14:36:03:136
95,000000	0,000000	533,000000	0,000000	2020-11-19T14:36:03:175
95,000000	0,000000	533,000000	0,000000	2020-11-19T14:36:03:216
95,000000	0,000000	533,000000	0,000000	2020-11-19T14:36:03:255
95,000000	0,000000	533,000000	0,000000	2020-11-19T14:36:03:297
95,000000	0,000000	533,000000	0,000000	2020-11-19T14:36:03:336
95,000000	0,000000	533,000000	0,000000	2020-11-19T14:36:03:376
95,000000	0,000000	533,000000	0,000000	2020-11-19T14:36:03:415
95,000000	0,000000	533,000000	0,000000	2020-11-19T14:36:03:457
95,000000	0,000000	533,000000	0,000000	2020-11-19T14:36:03:496
95,000000	0,000000	533,000000	0,000000	2020-11-19T14:36:03:537
95,000000	0,000000	533,000000	0,000000	2020-11-19T14:36:03:576
95,000000	0,000000	533,000000	0,000000	2020-11-19T14:36:03:617
95,000000	0,000000	533,000000	0,000000	2020-11-19T14:36:03:656
95,000000	0,000000	533,000000	0,000000	2020-11-19T14:36:03:697
96,000000	0,000000	533,000000	0,000000	2020-11-19T14:36:03:736
96,000000	0,000000	533,000000	0,000000	2020-11-19T14:36:03:777
95,000000	0,000000	533,000000	0,000000	2020-11-19T14:36:03:816
95,000000	0,000000	533,000000	0,000000	2020-11-19T14:36:03:857
-10,000000	0,000000	533,000000	0,000000	2020-11-19T14:36:03:897
-10,000000	0,000000	533,000000	0,000000	2020-11-19T14:36:03:937
-10,000000	0,000000	533,000000	0,000000	2020-11-19T14:36:03:976
-10,000000	0,000000	533,000000	0,000000	2020-11-19T14:36:04:017
-10,000000	0,000000	533,000000	0,000000	2020-11-19T14:36:04:058
-10,000000	0,000000	533,000000	0,000000	2020-11-19T14:36:04:099
-10,000000	0,000000	533,000000	0,000000	2020-11-19T14:36:04:137
-10,000000	0,000000	533,000000	0,000000	2020-11-19T14:36:04:177
-10,000000	0,000000	533,000000	0,000000	2020-11-19T14:36:04:217
-10,000000	0,000000	533,000000	0,000000	2020-11-19T14:36:04:258
-10,000000	0,000000	533,000000	0,000000	2020-11-19T14:36:04:297
-10,000000	0,000000	533,000000	0,000000	2020-11-19T14:36:04:337
-10,000000	0,000000	533,000000	0,000000	2020-11-19T14:36:04:377
-10,000000	0,000000	533,000000	0,000000	2020-11-19T14:36:04:418
-10,000000	0,000000	533,000000	0,000000	2020-11-19T14:36:04:457
96,000000	0,000000	533,000000	0,000000	2020-11-19T14:36:04:498
96,000000	0,000000	533,000000	0,000000	2020-11-19T14:36:04:537
96,000000	0,000000	533,000000	0,000000	2020-11-19T14:36:04:578
96,000000	0,000000	533,000000	0,000000	2020-11-19T14:36:04:617
96,000000	0,000000	533,000000	0,000000	2020-11-19T14:36:04:658
96,000000	0,000000	533,000000	0,000000	2020-11-19T14:36:04:697
96,000000	0,000000	533,000000	0,000000	2020-11-19T14:36:04:738
96,000000	0,000000	533,000000	0,000000	2020-11-19T14:36:04:777
96,000000	0,000000	533,000000	0,000000	2020-11-19T14:36:04:818
96,000000	0,000000	593,000000	0,000000	2020-11-19T14:36:04:857
96,000000	0,000000	593,000000	0,000000	2020-11-19T14:36:04:899
96,000000	0,000000	593,000000	0,000000	2020-11-19T14:36:04:937
96,000000	0,000000	593,000000	0,000000	2020-11-19T14:36:04:978
96,000000	0,000000	593,000000	0,000000	2020-11-19T14:36:05:017
96,000000	0,000000	593,000000	0,000000	2020-11-19T14:36:05:058
96,000000	0,000000	593,000000	0,000000	2020-11-19T14:36:05:098
96,000000	0,000000	593,000000	0,000000	2020-11-19T14:36:05:139
96,000000	0,000000	593,000000	0,000000	2020-11-19T14:36:05:177
96,000000	0,000000	593,000000	0,000000	2020-11-19T14:36:05:218
96,000000	0,000000	593,000000	0,000000	2020-11-19T14:36:05:258
96,000000	0,000000	593,000000	0,000000	2020-11-19T14:36:05:299
96,000000	0,000000	593,000000	0,000000	2020-11-19T14:36:05:338
96,000000	0,000000	593,000000	0,000000	2020-11-19T14:36:05:379
96,000000	0,000000	593,000000	0,000000	2020-11-19T14:36:05:418
96,000000	0,000000	593,000000	0,000000	2020-11-19T14:36:05:459
96,000000	0,000000	593,000000	0,000000	2020-11-19T14:36:05:498
96,000000	0,000000	593,000000	0,000000	2020-11-19T14:36:05:539
96,000000	0,000000	593,000000	0,000000	2020-11-19T14:36:05:578
96,000000	0,000000	593,000000	0,000000	2020-11-19T14:36:05:620
96,000000	0,000000	593,000000	0,000000	2020-11-19T14:36:05:658
97,000000	0,000000	593,000000	0,000000	2020-11-19T14:36:05:699
97,000000	0,000000	593,000000	0,000000	2020-11-19T14:36:05:738
97,000000	0,000000	593,000000	0,000000	2020-11-19T14:36:05:779
97,000000	0,000000	593,000000	0,000000	2020-11-19T14:36:05:818
97,000000	0,000000	593,000000	0,000000	2020-11-19T14:36:05:859
97,000000	0,000000	593,000000	0,000000	2020-11-19T14:36:05:898
97,000000	0,000000	593,000000	0,000000	2020-11-19T14:36:05:939
97,000000	0,000000	593,000000	0,000000	2020-11-19T14:36:05:978
97,000000	0,000000	593,000000	0,000000	2020-11-19T14:36:06:019
97,000000	0,000000	593,000000	0,000000	2020-11-19T14:36:06:058
97,000000	0,000000	593,000000	0,000000	2020-11-19T14:36:06:099
97,000000	0,000000	593,000000	0,000000	2020-11-19T14:36:06:138
97,000000	0,000000	593,000000	0,000000	2020-11-19T14:36:06:178
97,000000	0,000000	593,000000	0,000000	2020-11-19T14:36:06:218
97,000000	0,000000	593,000000	0,000000	2020-11-19T14:36:06:258
97,000000	0,000000	593,000000	0,000000	2020-11-19T14:36:06:299
97,000000	0,000000	593,000000	0,000000	2020-11-19T14:36:06:341
97,000000	0,000000	593,000000	0,000000	2020-11-19T14:36:06:380
97,000000	0,000000	593,000000	0,000000	2020-11-19T14:36:06:421
97,000000	0,000000	593,000000	0,000000	2020-11-19T14:36:06:459
97,000000	0,000000	593,000000	0,000000	2020-11-19T14:36:06:500
97,000000	0,000000	593,000000	0,000000	2020-11-19T14:36:06:539
97,000000	0,000000	593,000000	0,000000	2020-11-19T14:36:06:580
97,000000	0,000000	593,000000	0,000000	2020-11-19T14:36:06:619
96,000000	0,000000	593,000000	0,000000	2020-11-19T14:36:06:660
97,000000	0,000000	593,000000	0,000000	2020-11-19T14:36:06:699
97,000000	0,000000	593,000000	0,000000	2020-11-19T14:36:06:740
97,000000	0,000000	593,000000	0,000000	2020-11-19T14:36:06:779
97,000000	0,000000	593,000000	0,000000	2020-11-19T14:36:06:820
97,000000	0,000000	593,000000	0,000000	2020-11-19T14:36:06:859
97,000000	0,000000	593,000000	0,000000	2020-11-19T14:36:06:901
97,000000	0,000000	593,000000	0,000000	2020-11-19T14:36:06:939
96,000000	0,000000	593,000000	0,000000	2020-11-19T14:36:06:980
96,000000	0,000000	593,000000	0,000000	2020-11-19T14:36:07:019
96,000000	0,000000	593,000000	0,000000	2020-11-19T14:36:07:061
96,000000	0,000000	593,000000	0,000000	2020-11-19T14:36:07:100
96,000000	0,000000	593,000000	0,000000	2020-11-19T14:36:07:140
96,000000	0,000000	593,000000	0,000000	2020-11-19T14:36:07:179
96,000000	0,000000	593,000000	0,000000	2020-11-19T14:36:07:220
96,000000	0,000000	593,000000	0,000000	2020-11-19T14:36:07:259
96,000000	0,000000	593,000000	0,000000	2020-11-19T14:36:07:301
96,000000	0,000000	593,000000	0,000000	2020-11-19T14:36:07:339
96,000000	0,000000	593,000000	0,000000	2020-11-19T14:36:07:380
96,000000	0,000000	593,000000	0,000000	2020-11-19T14:36:07:419
96,000000	0,000000	593,000000	0,000000	2020-11-19T14:36:07:461
96,000000	0,000000	593,000000	0,000000	2020-11-19T14:36:07:500
96,000000	0,000000	593,000000	0,000000	2020-11-19T14:36:07:541
96,000000	0,000000	593,000000	0,000000	2020-11-19T14:36:07:580
96,000000	0,000000	593,000000	0,000000	2020-11-19T14:36:07:621
96,000000	0,000000	593,000000	0,000000	2020-11-19T14:36:07:660
96,000000	0,000000	593,000000	0,000000	2020-11-19T14:36:07:702
96,000000	0,000000	593,000000	0,000000	2020-11-19T14:36:08:212
96,000000	0,000000	593,000000	0,000000	2020-11-19T14:36:08:242
96,000000	0,000000	593,000000	0,000000	2020-11-19T14:36:08:242
96,000000	0,000000	593,000000	0,000000	2020-11-19T14:36:08:243
96,000000	0,000000	593,000000	0,000000	2020-11-19T14:36:08:244
96,000000	0,000000	593,000000	0,000000	2020-11-19T14:36:08:244
96,000000	0,000000	593,000000	0,000000	2020-11-19T14:36:08:245
96,000000	0,000000	593,000000	0,000000	2020-11-19T14:36:08:245
96,000000	0,000000	593,000000	0,000000	2020-11-19T14:36:08:246
96,000000	0,000000	593,000000	0,000000	2020-11-19T14:36:08:246
96,000000	0,000000	593,000000	0,000000	2020-11-19T14:36:08:247
96,000000	0,000000	593,000000	0,000000	2020-11-19T14:36:08:257
96,000000	0,000000	593,000000	0,000000	2020-11-19T14:36:08:258
96,000000	0,000000	593,000000	0,000000	2020-11-19T14:36:08:335
96,000000	0,000000	593,000000	0,000000	2020-11-19T14:36:08:336
96,000000	0,000000	593,000000	0,000000	2020-11-19T14:36:08:415
96,000000	0,000000	593,000000	0,000000	2020-11-19T14:36:08:416
96,000000	0,000000	593,000000	0,000000	2020-11-19T14:36:08:429
96,000000	0,000000	593,000000	0,000000	2020-11-19T14:36:08:465
96,000000	0,000000	593,000000	0,000000	2020-11-19T14:36:08:501
96,000000	0,000000	593,000000	0,000000	2020-11-19T14:36:08:570
96,000000	0,000000	593,000000	0,000000	2020-11-19T14:36:08:579
96,000000	0,000000	593,000000	0,000000	2020-11-19T14:36:08:626
96,000000	0,000000	593,000000	0,000000	2020-11-19T14:36:08:662
96,000000	0,000000	593,000000	0,000000	2020-11-19T14:36:08:699
-10,000000	0,000000	593,000000	0,000000	2020-11-19T14:36:08:741
-10,000000	0,000000	593,000000	0,000000	2020-11-19T14:36:08:782
-10,000000	0,000000	593,000000	0,000000	2020-11-19T14:36:08:825
-10,000000	0,000000	593,000000	0,000000	2020-11-19T14:36:08:867
-10,000000	0,000000	593,000000	0,000000	2020-11-19T14:36:08:921
96,000000	0,000000	593,000000	0,000000	2020-11-19T14:36:08:950
96,000000	0,000000	593,000000	0,000000	2020-11-19T14:36:08:984
-10,000000	0,000000	593,000000	0,000000	2020-11-19T14:36:09:021
-10,000000	0,000000	593,000000	0,000000	2020-11-19T14:36:09:061
-10,000000	0,000000	593,000000	0,000000	2020-11-19T14:36:09:106
-10,000000	0,000000	593,000000	0,000000	2020-11-19T14:36:09:141
96,000000	0,000000	593,000000	0,000000	2020-11-19T14:36:09:180
96,000000	0,000000	593,000000	0,000000	2020-11-19T14:36:09:223
96,000000	0,000000	593,000000	0,000000	2020-11-19T14:36:09:262
96,000000	0,000000	593,000000	0,000000	2020-11-19T14:36:09:304
96,000000	0,000000	593,000000	0,000000	2020-11-19T14:36:09:342
96,000000	0,000000	593,000000	0,000000	2020-11-19T14:36:09:382
96,000000	0,000000	593,000000	0,000000	2020-11-19T14:36:09:422
96,000000	0,000000	593,000000	0,000000	2020-11-19T14:36:09:463
96,000000	0,000000	593,000000	0,000000	2020-11-19T14:36:09:502
95,000000	0,000000	593,000000	0,000000	2020-11-19T14:36:09:543
95,000000	0,000000	593,000000	0,000000	2020-11-19T14:36:09:582
95,000000	0,000000	593,000000	0,000000	2020-11-19T14:36:09:623
95,000000	0,000000	593,000000	0,000000	2020-11-19T14:36:09:663
95,000000	0,000000	593,000000	0,000000	2020-11-19T14:36:09:704
95,000000	0,000000	593,000000	0,000000	2020-11-19T14:36:09:742
95,000000	0,000000	593,000000	0,000000	2020-11-19T14:36:09:783
95,000000	0,000000	593,000000	0,000000	2020-11-19T14:36:09:822
95,000000	0,000000	593,000000	0,000000	2020-11-19T14:36:09:863
96,000000	0,000000	593,000000	0,000000	2020-11-19T14:36:09:903
96,000000	0,000000	593,000000	0,000000	2020-11-19T14:36:09:943
96,000000	0,000000	593,000000	0,000000	2020-11-19T14:36:09:982
96,000000	0,000000	593,000000	0,000000	2020-11-19T14:36:10:023
96,000000	0,000000	593,000000	0,000000	2020-11-19T14:36:10:063
96,000000	0,000000	593,000000	0,000000	2020-11-19T14:36:10:104
96,000000	0,000000	593,000000	0,000000	2020-11-19T14:36:10:143
96,000000	0,000000	593,000000	0,000000	2020-11-19T14:36:10:184
96,000000	0,000000	593,000000	0,000000	2020-11-19T14:36:10:222
96,000000	0,000000	593,000000	0,000000	2020-11-19T14:36:10:263
96,000000	0,000000	593,000000	0,000000	2020-11-19T14:36:10:303
96,000000	0,000000	593,000000	0,000000	2020-11-19T14:36:10:343
96,000000	0,000000	593,000000	0,000000	2020-11-19T14:36:10:384
96,000000	0,000000	593,000000	0,000000	2020-11-19T14:36:10:451
96,000000	0,000000	593,000000	0,000000	2020-11-19T14:36:10:472
96,000000	0,000000	593,000000	0,000000	2020-11-19T14:36:10:506
96,000000	0,000000	593,000000	0,000000	2020-11-19T14:36:10:543
96,000000	0,000000	593,000000	0,000000	2020-11-19T14:36:10:586
96,000000	0,000000	593,000000	0,000000	2020-11-19T14:36:10:623
96,000000	0,000000	593,000000	0,000000	2020-11-19T14:36:10:664
96,000000	0,000000	593,000000	0,000000	2020-11-19T14:36:10:703
96,000000	0,000000	593,000000	0,000000	2020-11-19T14:36:10:744
96,000000	0,000000	593,000000	0,000000	2020-11-19T14:36:10:783
96,000000	0,000000	593,000000	0,000000	2020-11-19T14:36:10:824
96,000000	0,000000	593,000000	0,000000	2020-11-19T14:36:10:863
96,000000	0,000000	593,000000	0,000000	2020-11-19T14:36:10:905
96,000000	0,000000	593,000000	0,000000	2020-11-19T14:36:10:943
96,000000	0,000000	593,000000	0,000000	2020-11-19T14:36:10:985
96,000000	0,000000	593,000000	0,000000	2020-11-19T14:36:11:023
96,000000	0,000000	593,000000	0,000000	2020-11-19T14:36:11:064
95,000000	0,000000	593,000000	0,000000	2020-11-19T14:36:11:104
96,000000	0,000000	593,000000	0,000000	2020-11-19T14:36:11:145
96,000000	0,000000	593,000000	0,000000	2020-11-19T14:36:11:183
96,000000	0,000000	593,000000	0,000000	2020-11-19T14:36:11:225
96,000000	0,000000	593,000000	0,000000	2020-11-19T14:36:11:263
96,000000	0,000000	593,000000	0,000000	2020-11-19T14:36:11:305
96,000000	0,000000	593,000000	0,000000	2020-11-19T14:36:11:344
95,000000	0,000000	593,000000	0,000000	2020-11-19T14:36:11:386
95,000000	0,000000	593,000000	0,000000	2020-11-19T14:36:11:423
95,000000	0,000000	593,000000	0,000000	2020-11-19T14:36:11:495
96,000000	0,000000	593,000000	0,000000	2020-11-19T14:36:11:505
95,000000	0,000000	593,000000	0,000000	2020-11-19T14:36:11:546
95,000000	0,000000	593,000000	0,000000	2020-11-19T14:36:11:585
95,000000	0,000000	593,000000	0,000000	2020-11-19T14:36:11:625
95,000000	0,000000	593,000000	0,000000	2020-11-19T14:36:11:664
95,000000	0,000000	593,000000	0,000000	2020-11-19T14:36:11:706
95,000000	0,000000	593,000000	0,000000	2020-11-19T14:36:11:744
95,000000	0,000000	593,000000	0,000000	2020-11-19T14:36:11:785
95,000000	0,000000	593,000000	0,000000	2020-11-19T14:36:11:824
95,000000	0,000000	593,000000	0,000000	2020-11-19T14:36:11:865
95,000000	0,000000	593,000000	0,000000	2020-11-19T14:36:11:905
95,000000	0,000000	593,000000	0,000000	2020-11-19T14:36:11:946
95,000000	0,000000	593,000000	0,000000	2020-11-19T14:36:11:985
95,000000	0,000000	593,000000	0,000000	2020-11-19T14:36:12:025
95,000000	0,000000	593,000000	0,000000	2020-11-19T14:36:12:065
95,000000	0,000000	593,000000	0,000000	2020-11-19T14:36:12:106
95,000000	0,000000	593,000000	0,000000	2020-11-19T14:36:12:145
95,000000	0,000000	593,000000	0,000000	2020-11-19T14:36:12:186
95,000000	0,000000	593,000000	0,000000	2020-11-19T14:36:12:225
95,000000	0,000000	593,000000	0,000000	2020-11-19T14:36:12:265
95,000000	0,000000	593,000000	0,000000	2020-11-19T14:36:12:305
95,000000	0,000000	593,000000	0,000000	2020-11-19T14:36:12:345
95,000000	0,000000	593,000000	0,000000	2020-11-19T14:36:12:385
95,000000	0,000000	593,000000	0,000000	2020-11-19T14:36:12:427
95,000000	0,000000	593,000000	0,000000	2020-11-19T14:36:12:465
95,000000	0,000000	593,000000	0,000000	2020-11-19T14:36:12:506
95,000000	0,000000	593,000000	0,000000	2020-11-19T14:36:12:545
95,000000	0,000000	593,000000	0,000000	2020-11-19T14:36:12:586
95,000000	0,000000	593,000000	0,000000	2020-11-19T14:36:12:626
95,000000	0,000000	593,000000	0,000000	2020-11-19T14:36:12:667
95,000000	0,000000	593,000000	0,000000	2020-11-19T14:36:12:706
95,000000	0,000000	593,000000	0,000000	2020-11-19T14:36:12:746
95,000000	0,000000	593,000000	0,000000	2020-11-19T14:36:12:785
95,000000	0,000000	593,000000	0,000000	2020-11-19T14:36:12:827
95,000000	0,000000	593,000000	0,000000	2020-11-19T14:36:12:865
95,000000	0,000000	593,000000	0,000000	2020-11-19T14:36:12:907
95,000000	0,000000	593,000000	0,000000	2020-11-19T14:36:12:945
95,000000	0,000000	593,000000	0,000000	2020-11-19T14:36:12:986
95,000000	0,000000	593,000000	0,000000	2020-11-19T14:36:13:025
95,000000	0,000000	593,000000	0,000000	2020-11-19T14:36:13:067
95,000000	0,000000	593,000000	0,000000	2020-11-19T14:36:13:106
95,000000	0,000000	593,000000	0,000000	2020-11-19T14:36:13:147
95,000000	0,000000	593,000000	0,000000	2020-11-19T14:36:13:186
95,000000	0,000000	593,000000	0,000000	2020-11-19T14:36:13:227
95,000000	0,000000	593,000000	0,000000	2020-11-19T14:36:13:266
95,000000	0,000000	593,000000	0,000000	2020-11-19T14:36:13:307
95,000000	0,000000	593,000000	0,000000	2020-11-19T14:36:13:346
95,000000	0,000000	593,000000	0,000000	2020-11-19T14:36:13:387
95,000000	0,000000	593,000000	0,000000	2020-11-19T14:36:13:426
95,000000	0,000000	593,000000	0,000000	2020-11-19T14:36:13:467
95,000000	0,000000	593,000000	0,000000	2020-11-19T14:36:13:506
95,000000	0,000000	593,000000	0,000000	2020-11-19T14:36:13:547
96,000000	0,000000	593,000000	0,000000	2020-11-19T14:36:13:587
96,000000	0,000000	593,000000	0,000000	2020-11-19T14:36:13:627
96,000000	0,000000	593,000000	0,000000	2020-11-19T14:36:13:666
96,000000	0,000000	593,000000	0,000000	2020-11-19T14:36:13:707
96,000000	0,000000	593,000000	0,000000	2020-11-19T14:36:13:746
96,000000	0,000000	593,000000	0,000000	2020-11-19T14:36:13:787
96,000000	0,000000	593,000000	0,000000	2020-11-19T14:36:13:826
96,000000	0,000000	593,000000	0,000000	2020-11-19T14:36:13:867
96,000000	0,000000	593,000000	0,000000	2020-11-19T14:36:13:905
96,000000	0,000000	593,000000	0,000000	2020-11-19T14:36:13:947
96,000000	0,000000	593,000000	0,000000	2020-11-19T14:36:13:986
96,000000	0,000000	593,000000	0,000000	2020-11-19T14:36:14:028
96,000000	0,000000	593,000000	0,000000	2020-11-19T14:36:14:066
96,000000	0,000000	593,000000	0,000000	2020-11-19T14:36:14:108
96,000000	0,000000	593,000000	0,000000	2020-11-19T14:36:14:147
96,000000	0,000000	593,000000	0,000000	2020-11-19T14:36:14:187
96,000000	0,000000	593,000000	0,000000	2020-11-19T14:36:14:226
96,000000	0,000000	593,000000	0,000000	2020-11-19T14:36:14:268
96,000000	0,000000	593,000000	0,000000	2020-11-19T14:36:14:307
96,000000	0,000000	593,000000	0,000000	2020-11-19T14:36:14:348
96,000000	0,000000	593,000000	0,000000	2020-11-19T14:36:14:387
96,000000	0,000000	593,000000	0,000000	2020-11-19T14:36:14:428
96,000000	0,000000	593,000000	0,000000	2020-11-19T14:36:14:467
96,000000	0,000000	593,000000	0,000000	2020-11-19T14:36:14:508
96,000000	0,000000	593,000000	0,000000	2020-11-19T14:36:14:547
96,000000	0,000000	593,000000	0,000000	2020-11-19T14:36:14:588
96,000000	0,000000	593,000000	0,000000	2020-11-19T14:36:14:627
96,000000	0,000000	593,000000	0,000000	2020-11-19T14:36:14:668
96,000000	0,000000	593,000000	0,000000	2020-11-19T14:36:14:707
96,000000	0,000000	593,000000	0,000000	2020-11-19T14:36:14:748
96,000000	0,000000	593,000000	0,000000	2020-11-19T14:36:14:787
96,000000	0,000000	593,000000	0,000000	2020-11-19T14:36:14:828
96,000000	0,000000	593,000000	0,000000	2020-11-19T14:36:14:867
96,000000	0,000000	593,000000	0,000000	2020-11-19T14:36:14:909
96,000000	0,000000	593,000000	0,000000	2020-11-19T14:36:14:947
96,000000	0,000000	593,000000	0,000000	2020-11-19T14:36:14:988
96,000000	0,000000	593,000000	0,000000	2020-11-19T14:36:15:027
96,000000	0,000000	593,000000	0,000000	2020-11-19T14:36:15:069
96,000000	0,000000	593,000000	0,000000	2020-11-19T14:36:15:108
96,000000	0,000000	593,000000	0,000000	2020-11-19T14:36:15:148
96,000000	0,000000	593,000000	0,000000	2020-11-19T14:36:15:187
96,000000	0,000000	593,000000	0,000000	2020-11-19T14:36:15:228
96,000000	0,000000	593,000000	0,000000	2020-11-19T14:36:15:267
96,000000	0,000000	593,000000	0,000000	2020-11-19T14:36:15:309
96,000000	0,000000	593,000000	0,000000	2020-11-19T14:36:15:347
96,000000	0,000000	593,000000	0,000000	2020-11-19T14:36:15:388
96,000000	0,000000	593,000000	0,000000	2020-11-19T14:36:15:427
96,000000	0,000000	593,000000	0,000000	2020-11-19T14:36:15:469
96,000000	0,000000	593,000000	0,000000	2020-11-19T14:36:15:508
96,000000	0,000000	593,000000	0,000000	2020-11-19T14:36:15:549
96,000000	0,000000	593,000000	0,000000	2020-11-19T14:36:15:588
96,000000	0,000000	593,000000	0,000000	2020-11-19T14:36:15:629
96,000000	0,000000	593,000000	0,000000	2020-11-19T14:36:15:668
96,000000	0,000000	593,000000	0,000000	2020-11-19T14:36:15:710
96,000000	0,000000	593,000000	0,000000	2020-11-19T14:36:15:748
96,000000	0,000000	593,000000	0,000000	2020-11-19T14:36:15:789
96,000000	0,000000	593,000000	0,000000	2020-11-19T14:36:15:828
96,000000	0,000000	593,000000	0,000000	2020-11-19T14:36:15:869
96,000000	0,000000	593,000000	0,000000	2020-11-19T14:36:15:908
96,000000	0,000000	593,000000	0,000000	2020-11-19T14:36:15:949
96,000000	0,000000	593,000000	0,000000	2020-11-19T14:36:15:988
96,000000	0,000000	593,000000	0,000000	2020-11-19T14:36:16:029
96,000000	0,000000	593,000000	0,000000	2020-11-19T14:36:16:069
96,000000	0,000000	593,000000	0,000000	2020-11-19T14:36:16:109
96,000000	0,000000	593,000000	0,000000	2020-11-19T14:36:16:149
96,000000	0,000000	593,000000	0,000000	2020-11-19T14:36:16:189
96,000000	0,000000	593,000000	0,000000	2020-11-19T14:36:16:228
96,000000	0,000000	593,000000	0,000000	2020-11-19T14:36:16:270
96,000000	0,000000	593,000000	0,000000	2020-11-19T14:36:16:309
96,000000	0,000000	593,000000	0,000000	2020-11-19T14:36:16:349
96,000000	0,000000	593,000000	0,000000	2020-11-19T14:36:16:389
96,000000	0,000000	593,000000	0,000000	2020-11-19T14:36:16:430
96,000000	0,000000	593,000000	0,000000	2020-11-19T14:36:16:469
96,000000	0,000000	593,000000	0,000000	2020-11-19T14:36:16:511
96,000000	0,000000	593,000000	0,000000	2020-11-19T14:36:16:552
96,000000	0,000000	593,000000	0,000000	2020-11-19T14:36:16:590
96,000000	0,000000	593,000000	0,000000	2020-11-19T14:36:16:628
96,000000	0,000000	593,000000	0,000000	2020-11-19T14:36:16:670
96,000000	0,000000	593,000000	0,000000	2020-11-19T14:36:16:709
96,000000	0,000000	593,000000	0,000000	2020-11-19T14:36:16:750
96,000000	0,000000	593,000000	0,000000	2020-11-19T14:36:16:789
96,000000	0,000000	593,000000	0,000000	2020-11-19T14:36:16:830
96,000000	0,000000	593,000000	0,000000	2020-11-19T14:36:16:869
96,000000	0,000000	593,000000	0,000000	2020-11-19T14:36:16:910
96,000000	0,000000	593,000000	0,000000	2020-11-19T14:36:16:949
96,000000	0,000000	593,000000	0,000000	2020-11-19T14:36:16:990
96,000000	0,000000	593,000000	0,000000	2020-11-19T14:36:17:029
96,000000	0,000000	593,000000	0,000000	2020-11-19T14:36:17:070
96,000000	0,000000	593,000000	0,000000	2020-11-19T14:36:17:109
96,000000	0,000000	593,000000	0,000000	2020-11-19T14:36:17:151
96,000000	0,000000	593,000000	0,000000	2020-11-19T14:36:17:189
96,000000	0,000000	593,000000	0,000000	2020-11-19T14:36:17:231
96,000000	0,000000	593,000000	0,000000	2020-11-19T14:36:17:269
96,000000	0,000000	593,000000	0,000000	2020-11-19T14:36:17:310
96,000000	0,000000	593,000000	0,000000	2020-11-19T14:36:17:349
96,000000	0,000000	593,000000	0,000000	2020-11-19T14:36:17:391
96,000000	0,000000	593,000000	0,000000	2020-11-19T14:36:17:430
96,000000	0,000000	593,000000	0,000000	2020-11-19T14:36:17:471
96,000000	0,000000	593,000000	0,000000	2020-11-19T14:36:17:510
96,000000	0,000000	593,000000	0,000000	2020-11-19T14:36:17:550
96,000000	0,000000	593,000000	0,000000	2020-11-19T14:36:17:590
96,000000	0,000000	593,000000	0,000000	2020-11-19T14:36:17:631
96,000000	0,000000	593,000000	0,000000	2020-11-19T14:36:17:670
96,000000	0,000000	593,000000	0,000000	2020-11-19T14:36:17:711
96,000000	0,000000	593,000000	0,000000	2020-11-19T14:36:17:750
96,000000	0,000000	593,000000	0,000000	2020-11-19T14:36:17:790
96,000000	0,000000	593,000000	0,000000	2020-11-19T14:36:17:830
96,000000	0,000000	593,000000	0,000000	2020-11-19T14:36:17:871
96,000000	0,000000	593,000000	0,000000	2020-11-19T14:36:17:911
96,000000	0,000000	593,000000	0,000000	2020-11-19T14:36:17:951
96,000000	0,000000	593,000000	0,000000	2020-11-19T14:36:17:990
96,000000	0,000000	593,000000	0,000000	2020-11-19T14:36:18:031
96,000000	0,000000	593,000000	0,000000	2020-11-19T14:36:18:070
96,000000	0,000000	593,000000	0,000000	2020-11-19T14:36:18:112
96,000000	0,000000	593,000000	0,000000	2020-11-19T14:36:18:151
96,000000	0,000000	593,000000	0,000000	2020-11-19T14:36:18:191
96,000000	0,000000	593,000000	0,000000	2020-11-19T14:36:18:231
96,000000	0,000000	593,000000	0,000000	2020-11-19T14:36:18:271
96,000000	0,000000	593,000000	0,000000	2020-11-19T14:36:18:311
96,000000	0,000000	593,000000	0,000000	2020-11-19T14:36:18:351
96,000000	0,000000	593,000000	0,000000	2020-11-19T14:36:18:391
96,000000	0,000000	593,000000	0,000000	2020-11-19T14:36:18:432
96,000000	0,000000	570,000000	0,000000	2020-11-19T14:36:18:471
96,000000	0,000000	570,000000	0,000000	2020-11-19T14:36:18:512
96,000000	0,000000	570,000000	0,000000	2020-11-19T14:36:18:551
96,000000	0,000000	570,000000	0,000000	2020-11-19T14:36:18:591
96,000000	0,000000	570,000000	0,000000	2020-11-19T14:36:18:631
96,000000	0,000000	570,000000	0,000000	2020-11-19T14:36:18:672
96,000000	0,000000	570,000000	0,000000	2020-11-19T14:36:18:711
96,000000	0,000000	570,000000	0,000000	2020-11-19T14:36:18:752
96,000000	0,000000	570,000000	0,000000	2020-11-19T14:36:18:791
96,000000	0,000000	570,000000	0,000000	2020-11-19T14:36:18:832
96,000000	0,000000	570,000000	0,000000	2020-11-19T14:36:18:871
96,000000	0,000000	570,000000	0,000000	2020-11-19T14:36:18:913
96,000000	0,000000	570,000000	0,000000	2020-11-19T14:36:18:951
96,000000	0,000000	570,000000	0,000000	2020-11-19T14:36:18:992
97,000000	0,000000	570,000000	0,000000	2020-11-19T14:36:19:031
97,000000	0,000000	570,000000	0,000000	2020-11-19T14:36:19:072
96,000000	0,000000	570,000000	0,000000	2020-11-19T14:36:19:112
96,000000	0,000000	570,000000	0,000000	2020-11-19T14:36:19:152
96,000000	0,000000	570,000000	0,000000	2020-11-19T14:36:19:191
97,000000	0,000000	570,000000	0,000000	2020-11-19T14:36:19:232
96,000000	0,000000	570,000000	0,000000	2020-11-19T14:36:19:271
96,000000	0,000000	570,000000	0,000000	2020-11-19T14:36:19:313
97,000000	0,000000	570,000000	0,000000	2020-11-19T14:36:19:352
97,000000	0,000000	570,000000	0,000000	2020-11-19T14:36:19:393
97,000000	0,000000	570,000000	0,000000	2020-11-19T14:36:19:432
96,000000	0,000000	570,000000	0,000000	2020-11-19T14:36:19:473
96,000000	0,000000	570,000000	0,000000	2020-11-19T14:36:19:512
97,000000	0,000000	570,000000	0,000000	2020-11-19T14:36:19:553
96,000000	0,000000	570,000000	0,000000	2020-11-19T14:36:19:604
96,000000	0,000000	570,000000	0,000000	2020-11-19T14:36:19:643
96,000000	0,000000	570,000000	0,000000	2020-11-19T14:36:19:672
96,000000	0,000000	570,000000	0,000000	2020-11-19T14:36:19:712
96,000000	0,000000	570,000000	0,000000	2020-11-19T14:36:19:752
96,000000	0,000000	570,000000	0,000000	2020-11-19T14:36:19:793
96,000000	0,000000	570,000000	0,000000	2020-11-19T14:36:19:832
96,000000	0,000000	570,000000	0,000000	2020-11-19T14:36:19:873
97,000000	0,000000	570,000000	0,000000	2020-11-19T14:36:19:913
97,000000	0,000000	570,000000	0,000000	2020-11-19T14:36:19:953
97,000000	0,000000	570,000000	0,000000	2020-11-19T14:36:19:992
97,000000	0,000000	570,000000	0,000000	2020-11-19T14:36:20:033
97,000000	0,000000	570,000000	0,000000	2020-11-19T14:36:20:072
97,000000	0,000000	570,000000	0,000000	2020-11-19T14:36:20:114
97,000000	0,000000	570,000000	0,000000	2020-11-19T14:36:20:153
97,000000	0,000000	570,000000	0,000000	2020-11-19T14:36:20:193
97,000000	0,000000	570,000000	0,000000	2020-11-19T14:36:20:232
97,000000	0,000000	570,000000	0,000000	2020-11-19T14:36:20:274
97,000000	0,000000	570,000000	0,000000	2020-11-19T14:36:20:313
97,000000	0,000000	570,000000	0,000000	2020-11-19T14:36:20:354
97,000000	0,000000	570,000000	0,000000	2020-11-19T14:36:20:393
97,000000	0,000000	570,000000	0,000000	2020-11-19T14:36:20:433
97,000000	0,000000	570,000000	0,000000	2020-11-19T14:36:20:473
97,000000	0,000000	570,000000	0,000000	2020-11-19T14:36:20:515
97,000000	0,000000	570,000000	0,000000	2020-11-19T14:36:20:553
97,000000	0,000000	570,000000	0,000000	2020-11-19T14:36:20:595
97,000000	0,000000	570,000000	0,000000	2020-11-19T14:36:20:633
97,000000	0,000000	570,000000	0,000000	2020-11-19T14:36:20:674
97,000000	0,000000	570,000000	0,000000	2020-11-19T14:36:20:714
97,000000	0,000000	570,000000	0,000000	2020-11-19T14:36:20:754
97,000000	0,000000	570,000000	0,000000	2020-11-19T14:36:20:793
97,000000	0,000000	570,000000	0,000000	2020-11-19T14:36:20:834
97,000000	0,000000	570,000000	0,000000	2020-11-19T14:36:20:873
97,000000	0,000000	570,000000	0,000000	2020-11-19T14:36:20:914
97,000000	0,000000	570,000000	0,000000	2020-11-19T14:36:20:953
97,000000	0,000000	570,000000	0,000000	2020-11-19T14:36:20:994
97,000000	0,000000	570,000000	0,000000	2020-11-19T14:36:21:033
97,000000	0,000000	638,000000	0,000000	2020-11-19T14:36:21:075
97,000000	0,000000	638,000000	0,000000	2020-11-19T14:36:21:114
97,000000	0,000000	638,000000	0,000000	2020-11-19T14:36:21:154
97,000000	0,000000	638,000000	0,000000	2020-11-19T14:36:21:193
97,000000	0,000000	638,000000	0,000000	2020-11-19T14:36:21:235
97,000000	0,000000	638,000000	0,000000	2020-11-19T14:36:21:273
97,000000	0,000000	638,000000	0,000000	2020-11-19T14:36:21:315
97,000000	0,000000	638,000000	0,000000	2020-11-19T14:36:21:354
97,000000	0,000000	638,000000	0,000000	2020-11-19T14:36:21:395
97,000000	0,000000	638,000000	0,000000	2020-11-19T14:36:21:433
97,000000	0,000000	638,000000	0,000000	2020-11-19T14:36:21:475
97,000000	0,000000	638,000000	0,000000	2020-11-19T14:36:21:514
97,000000	0,000000	638,000000	0,000000	2020-11-19T14:36:21:556
97,000000	0,000000	638,000000	0,000000	2020-11-19T14:36:21:593
97,000000	0,000000	638,000000	0,000000	2020-11-19T14:36:21:635
97,000000	0,000000	638,000000	0,000000	2020-11-19T14:36:21:674
97,000000	0,000000	638,000000	0,000000	2020-11-19T14:36:21:715
97,000000	0,000000	638,000000	0,000000	2020-11-19T14:36:21:753
97,000000	0,000000	638,000000	0,000000	2020-11-19T14:36:21:795
97,000000	0,000000	638,000000	0,000000	2020-11-19T14:36:21:834
97,000000	0,000000	638,000000	0,000000	2020-11-19T14:36:21:875
97,000000	0,000000	638,000000	0,000000	2020-11-19T14:36:21:913
97,000000	0,000000	638,000000	0,000000	2020-11-19T14:36:21:954
97,000000	0,000000	638,000000	0,000000	2020-11-19T14:36:21:994
97,000000	0,000000	638,000000	0,000000	2020-11-19T14:36:22:036
97,000000	0,000000	663,000000	0,000000	2020-11-19T14:36:22:074
97,000000	0,000000	663,000000	0,000000	2020-11-19T14:36:22:116
97,000000	0,000000	663,000000	0,000000	2020-11-19T14:36:22:154
97,000000	0,000000	663,000000	0,000000	2020-11-19T14:36:22:195
97,000000	0,000000	663,000000	0,000000	2020-11-19T14:36:22:236
97,000000	0,000000	663,000000	0,000000	2020-11-19T14:36:22:276
97,000000	0,000000	663,000000	0,000000	2020-11-19T14:36:22:315
97,000000	0,000000	663,000000	0,000000	2020-11-19T14:36:22:355
97,000000	0,000000	663,000000	0,000000	2020-11-19T14:36:22:394
97,000000	0,000000	663,000000	0,000000	2020-11-19T14:36:22:436
97,000000	0,000000	663,000000	0,000000	2020-11-19T14:36:22:475
97,000000	0,000000	663,000000	0,000000	2020-11-19T14:36:22:517
97,000000	0,000000	663,000000	0,000000	2020-11-19T14:36:22:555
97,000000	0,000000	663,000000	0,000000	2020-11-19T14:36:22:596
97,000000	0,000000	663,000000	0,000000	2020-11-19T14:36:22:635
97,000000	0,000000	663,000000	0,000000	2020-11-19T14:36:22:676
97,000000	0,000000	663,000000	0,000000	2020-11-19T14:36:22:715
97,000000	0,000000	663,000000	0,000000	2020-11-19T14:36:22:756
97,000000	0,000000	663,000000	0,000000	2020-11-19T14:36:22:795
97,000000	0,000000	663,000000	0,000000	2020-11-19T14:36:22:836
97,000000	0,000000	663,000000	0,000000	2020-11-19T14:36:22:875
97,000000	0,000000	663,000000	0,000000	2020-11-19T14:36:22:917
97,000000	0,000000	663,000000	0,000000	2020-11-19T14:36:22:955
97,000000	0,000000	663,000000	0,000000	2020-11-19T14:36:22:996
97,000000	0,000000	663,000000	0,000000	2020-11-19T14:36:23:035
97,000000	0,000000	663,000000	0,000000	2020-11-19T14:36:23:076
97,000000	0,000000	663,000000	0,000000	2020-11-19T14:36:23:116
97,000000	0,000000	663,000000	0,000000	2020-11-19T14:36:23:157
97,000000	0,000000	663,000000	0,000000	2020-11-19T14:36:23:195
97,000000	0,000000	663,000000	0,000000	2020-11-19T14:36:23:237
97,000000	0,000000	663,000000	0,000000	2020-11-19T14:36:23:275
97,000000	0,000000	663,000000	0,000000	2020-11-19T14:36:23:317
97,000000	0,000000	663,000000	0,000000	2020-11-19T14:36:23:355
96,000000	0,000000	663,000000	0,000000	2020-11-19T14:36:23:397
96,000000	0,000000	663,000000	0,000000	2020-11-19T14:36:23:435
96,000000	0,000000	663,000000	0,000000	2020-11-19T14:36:23:477
97,000000	0,000000	663,000000	0,000000	2020-11-19T14:36:23:516
97,000000	0,000000	663,000000	0,000000	2020-11-19T14:36:23:557
97,000000	0,000000	663,000000	0,000000	2020-11-19T14:36:23:596
97,000000	0,000000	663,000000	0,000000	2020-11-19T14:36:23:637
97,000000	0,000000	663,000000	0,000000	2020-11-19T14:36:23:676
96,000000	0,000000	663,000000	0,000000	2020-11-19T14:36:23:717
96,000000	0,000000	663,000000	0,000000	2020-11-19T14:36:23:756
96,000000	0,000000	663,000000	0,000000	2020-11-19T14:36:23:796
96,000000	0,000000	663,000000	0,000000	2020-11-19T14:36:23:836
96,000000	0,000000	663,000000	0,000000	2020-11-19T14:36:23:877
96,000000	0,000000	663,000000	0,000000	2020-11-19T14:36:23:916
96,000000	0,000000	663,000000	0,000000	2020-11-19T14:36:23:958
96,000000	0,000000	663,000000	0,000000	2020-11-19T14:36:23:996
96,000000	0,000000	663,000000	0,000000	2020-11-19T14:36:24:037
96,000000	0,000000	663,000000	0,000000	2020-11-19T14:36:24:075
96,000000	0,000000	663,000000	0,000000	2020-11-19T14:36:24:117
96,000000	0,000000	663,000000	0,000000	2020-11-19T14:36:24:157
96,000000	0,000000	663,000000	0,000000	2020-11-19T14:36:24:197
96,000000	0,000000	663,000000	0,000000	2020-11-19T14:36:24:236
96,000000	0,000000	663,000000	0,000000	2020-11-19T14:36:24:277
96,000000	0,000000	663,000000	0,000000	2020-11-19T14:36:24:316
96,000000	0,000000	663,000000	0,000000	2020-11-19T14:36:24:357
96,000000	0,000000	663,000000	0,000000	2020-11-19T14:36:24:396
96,000000	0,000000	663,000000	0,000000	2020-11-19T14:36:24:438
96,000000	0,000000	620,000000	0,000000	2020-11-19T14:36:24:477
96,000000	0,000000	620,000000	0,000000	2020-11-19T14:36:24:518
96,000000	0,000000	620,000000	0,000000	2020-11-19T14:36:24:557
96,000000	0,000000	620,000000	0,000000	2020-11-19T14:36:24:598
96,000000	0,000000	620,000000	0,000000	2020-11-19T14:36:24:636
97,000000	0,000000	620,000000	0,000000	2020-11-19T14:36:24:678
96,000000	0,000000	620,000000	0,000000	2020-11-19T14:36:24:717
96,000000	0,000000	620,000000	0,000000	2020-11-19T14:36:24:757
97,000000	0,000000	620,000000	0,000000	2020-11-19T14:36:24:797
96,000000	0,000000	620,000000	0,000000	2020-11-19T14:36:24:838
97,000000	0,000000	620,000000	0,000000	2020-11-19T14:36:24:877
97,000000	0,000000	620,000000	0,000000	2020-11-19T14:36:24:917
97,000000	0,000000	620,000000	0,000000	2020-11-19T14:36:24:957
97,000000	0,000000	620,000000	0,000000	2020-11-19T14:36:24:998
97,000000	0,000000	620,000000	0,000000	2020-11-19T14:36:25:037
97,000000	0,000000	620,000000	0,000000	2020-11-19T14:36:25:078
97,000000	0,000000	620,000000	0,000000	2020-11-19T14:36:25:117
97,000000	0,000000	620,000000	0,000000	2020-11-19T14:36:25:158
97,000000	0,000000	620,000000	0,000000	2020-11-19T14:36:25:196
97,000000	0,000000	620,000000	0,000000	2020-11-19T14:36:25:237
97,000000	0,000000	620,000000	0,000000	2020-11-19T14:36:25:277
97,000000	0,000000	620,000000	0,000000	2020-11-19T14:36:25:319
97,000000	0,000000	620,000000	0,000000	2020-11-19T14:36:25:358
97,000000	0,000000	620,000000	0,000000	2020-11-19T14:36:25:399
97,000000	0,000000	620,000000	0,000000	2020-11-19T14:36:25:438
97,000000	0,000000	620,000000	0,000000	2020-11-19T14:36:25:479
97,000000	0,000000	620,000000	0,000000	2020-11-19T14:36:25:518
97,000000	0,000000	620,000000	0,000000	2020-11-19T14:36:25:559
97,000000	0,000000	620,000000	0,000000	2020-11-19T14:36:25:598
97,000000	0,000000	620,000000	0,000000	2020-11-19T14:36:25:639
97,000000	0,000000	620,000000	0,000000	2020-11-19T14:36:25:679
97,000000	0,000000	620,000000	0,000000	2020-11-19T14:36:25:719
97,000000	0,000000	620,000000	0,000000	2020-11-19T14:36:25:756
97,000000	0,000000	620,000000	0,000000	2020-11-19T14:36:25:798
97,000000	0,000000	620,000000	0,000000	2020-11-19T14:36:25:838
97,000000	0,000000	620,000000	0,000000	2020-11-19T14:36:25:878
97,000000	0,000000	620,000000	0,000000	2020-11-19T14:36:25:918
97,000000	0,000000	620,000000	0,000000	2020-11-19T14:36:25:959
97,000000	0,000000	620,000000	0,000000	2020-11-19T14:36:25:998
97,000000	0,000000	620,000000	0,000000	2020-11-19T14:36:26:039
97,000000	0,000000	620,000000	0,000000	2020-11-19T14:36:26:078
97,000000	0,000000	620,000000	0,000000	2020-11-19T14:36:26:120
97,000000	0,000000	620,000000	0,000000	2020-11-19T14:36:26:158
97,000000	0,000000	620,000000	0,000000	2020-11-19T14:36:26:199
97,000000	0,000000	620,000000	0,000000	2020-11-19T14:36:26:238
97,000000	0,000000	620,000000	0,000000	2020-11-19T14:36:26:279
97,000000	0,000000	620,000000	0,000000	2020-11-19T14:36:26:319
97,000000	0,000000	620,000000	0,000000	2020-11-19T14:36:26:359
97,000000	0,000000	620,000000	0,000000	2020-11-19T14:36:26:399
97,000000	0,000000	620,000000	0,000000	2020-11-19T14:36:26:439
97,000000	0,000000	620,000000	0,000000	2020-11-19T14:36:26:478
97,000000	0,000000	620,000000	0,000000	2020-11-19T14:36:26:521
97,000000	0,000000	620,000000	0,000000	2020-11-19T14:36:26:559
97,000000	0,000000	620,000000	0,000000	2020-11-19T14:36:26:599
97,000000	0,000000	620,000000	0,000000	2020-11-19T14:36:26:639
97,000000	0,000000	620,000000	0,000000	2020-11-19T14:36:26:680
97,000000	0,000000	620,000000	0,000000	2020-11-19T14:36:26:719
97,000000	0,000000	620,000000	0,000000	2020-11-19T14:36:26:760
97,000000	0,000000	620,000000	0,000000	2020-11-19T14:36:26:799
96,000000	0,000000	620,000000	0,000000	2020-11-19T14:36:26:840
96,000000	0,000000	620,000000	0,000000	2020-11-19T14:36:26:879
96,000000	0,000000	620,000000	0,000000	2020-11-19T14:36:26:920
96,000000	0,000000	620,000000	0,000000	2020-11-19T14:36:26:959
96,000000	0,000000	620,000000	0,000000	2020-11-19T14:36:27:001
96,000000	0,000000	620,000000	0,000000	2020-11-19T14:36:27:039
96,000000	0,000000	620,000000	0,000000	2020-11-19T14:36:27:081
96,000000	0,000000	620,000000	0,000000	2020-11-19T14:36:27:120
96,000000	0,000000	620,000000	0,000000	2020-11-19T14:36:27:160
96,000000	0,000000	620,000000	0,000000	2020-11-19T14:36:27:199
96,000000	0,000000	620,000000	0,000000	2020-11-19T14:36:27:241
96,000000	0,000000	620,000000	0,000000	2020-11-19T14:36:27:279
96,000000	0,000000	620,000000	0,000000	2020-11-19T14:36:27:321
96,000000	0,000000	620,000000	0,000000	2020-11-19T14:36:27:359
96,000000	0,000000	620,000000	0,000000	2020-11-19T14:36:27:400
97,000000	0,000000	620,000000	0,000000	2020-11-19T14:36:27:439
97,000000	0,000000	620,000000	0,000000	2020-11-19T14:36:27:481
96,000000	0,000000	620,000000	0,000000	2020-11-19T14:36:27:520
96,000000	0,000000	620,000000	0,000000	2020-11-19T14:36:27:561
96,000000	0,000000	620,000000	0,000000	2020-11-19T14:36:27:600
96,000000	0,000000	620,000000	0,000000	2020-11-19T14:36:27:641
96,000000	0,000000	620,000000	0,000000	2020-11-19T14:36:27:680
96,000000	0,000000	620,000000	0,000000	2020-11-19T14:36:27:721
97,000000	0,000000	620,000000	0,000000	2020-11-19T14:36:27:760
97,000000	0,000000	620,000000	0,000000	2020-11-19T14:36:27:801
97,000000	0,000000	620,000000	0,000000	2020-11-19T14:36:27:840
96,000000	0,000000	620,000000	0,000000	2020-11-19T14:36:27:881
96,000000	0,000000	620,000000	0,000000	2020-11-19T14:36:27:921
97,000000	0,000000	620,000000	0,000000	2020-11-19T14:36:27:961
97,000000	0,000000	620,000000	0,000000	2020-11-19T14:36:28:000
96,000000	0,000000	620,000000	0,000000	2020-11-19T14:36:28:042
96,000000	0,000000	620,000000	0,000000	2020-11-19T14:36:28:080
96,000000	0,000000	620,000000	0,000000	2020-11-19T14:36:28:122
96,000000	0,000000	620,000000	0,000000	2020-11-19T14:36:28:161
96,000000	0,000000	620,000000	0,000000	2020-11-19T14:36:28:201
96,000000	0,000000	620,000000	0,000000	2020-11-19T14:36:28:240
96,000000	0,000000	620,000000	0,000000	2020-11-19T14:36:28:282
96,000000	0,000000	620,000000	0,000000	2020-11-19T14:36:28:321
96,000000	0,000000	620,000000	0,000000	2020-11-19T14:36:28:361
96,000000	0,000000	620,000000	0,000000	2020-11-19T14:36:28:400
96,000000	0,000000	620,000000	0,000000	2020-11-19T14:36:28:442
96,000000	0,000000	620,000000	0,000000	2020-11-19T14:36:28:480
96,000000	0,000000	620,000000	0,000000	2020-11-19T14:36:28:523
96,000000	0,000000	620,000000	0,000000	2020-11-19T14:36:28:561
96,000000	0,000000	620,000000	0,000000	2020-11-19T14:36:28:602
96,000000	0,000000	620,000000	0,000000	2020-11-19T14:36:28:641
96,000000	0,000000	620,000000	0,000000	2020-11-19T14:36:28:682
96,000000	0,000000	620,000000	0,000000	2020-11-19T14:36:28:721
96,000000	0,000000	620,000000	0,000000	2020-11-19T14:36:28:762
96,000000	0,000000	620,000000	0,000000	2020-11-19T14:36:28:801
96,000000	0,000000	620,000000	0,000000	2020-11-19T14:36:28:842
96,000000	0,000000	620,000000	0,000000	2020-11-19T14:36:28:881
96,000000	0,000000	620,000000	0,000000	2020-11-19T14:36:28:922
96,000000	0,000000	620,000000	0,000000	2020-11-19T14:36:28:961
96,000000	0,000000	620,000000	0,000000	2020-11-19T14:36:29:003
96,000000	0,000000	620,000000	0,000000	2020-11-19T14:36:29:041
96,000000	0,000000	620,000000	0,000000	2020-11-19T14:36:29:083
95,000000	0,000000	620,000000	0,000000	2020-11-19T14:36:29:122
96,000000	0,000000	620,000000	0,000000	2020-11-19T14:36:29:163
96,000000	0,000000	620,000000	0,000000	2020-11-19T14:36:29:201
96,000000	0,000000	620,000000	0,000000	2020-11-19T14:36:29:242
96,000000	0,000000	620,000000	0,000000	2020-11-19T14:36:29:282
96,000000	0,000000	620,000000	0,000000	2020-11-19T14:36:29:323
96,000000	0,000000	620,000000	0,000000	2020-11-19T14:36:29:362
96,000000	0,000000	620,000000	0,000000	2020-11-19T14:36:29:403
96,000000	0,000000	620,000000	0,000000	2020-11-19T14:36:29:442
95,000000	0,000000	620,000000	0,000000	2020-11-19T14:36:29:483
95,000000	0,000000	620,000000	0,000000	2020-11-19T14:36:29:522
95,000000	0,000000	620,000000	0,000000	2020-11-19T14:36:29:563
95,000000	0,000000	620,000000	0,000000	2020-11-19T14:36:29:602
96,000000	0,000000	620,000000	0,000000	2020-11-19T14:36:29:643
96,000000	0,000000	620,000000	0,000000	2020-11-19T14:36:29:682
96,000000	0,000000	620,000000	0,000000	2020-11-19T14:36:29:723
96,000000	0,000000	620,000000	0,000000	2020-11-19T14:36:29:762
96,000000	0,000000	620,000000	0,000000	2020-11-19T14:36:29:803
96,000000	0,000000	620,000000	0,000000	2020-11-19T14:36:29:842
96,000000	0,000000	620,000000	0,000000	2020-11-19T14:36:29:883
96,000000	0,000000	620,000000	0,000000	2020-11-19T14:36:29:923
96,000000	0,000000	620,000000	0,000000	2020-11-19T14:36:29:964
96,000000	0,000000	620,000000	0,000000	2020-11-19T14:36:30:003
96,000000	0,000000	620,000000	0,000000	2020-11-19T14:36:30:043
96,000000	0,000000	620,000000	0,000000	2020-11-19T14:36:30:082
96,000000	0,000000	620,000000	0,000000	2020-11-19T14:36:30:124
96,000000	0,000000	620,000000	0,000000	2020-11-19T14:36:30:163
96,000000	0,000000	620,000000	0,000000	2020-11-19T14:36:30:204
96,000000	0,000000	620,000000	0,000000	2020-11-19T14:36:30:243
96,000000	0,000000	620,000000	0,000000	2020-11-19T14:36:30:284
96,000000	0,000000	620,000000	0,000000	2020-11-19T14:36:30:323
96,000000	0,000000	620,000000	0,000000	2020-11-19T14:36:30:364
96,000000	0,000000	620,000000	0,000000	2020-11-19T14:36:30:403
96,000000	0,000000	620,000000	0,000000	2020-11-19T14:36:30:444
96,000000	0,000000	620,000000	0,000000	2020-11-19T14:36:30:483
96,000000	0,000000	620,000000	0,000000	2020-11-19T14:36:30:524
96,000000	0,000000	620,000000	0,000000	2020-11-19T14:36:30:563
96,000000	0,000000	620,000000	0,000000	2020-11-19T14:36:30:605
96,000000	0,000000	620,000000	0,000000	2020-11-19T14:36:30:662
96,000000	0,000000	620,000000	0,000000	2020-11-19T14:36:30:687
96,000000	0,000000	620,000000	0,000000	2020-11-19T14:36:30:724
96,000000	0,000000	620,000000	0,000000	2020-11-19T14:36:30:788
96,000000	0,000000	620,000000	0,000000	2020-11-19T14:36:30:805
96,000000	0,000000	620,000000	0,000000	2020-11-19T14:36:30:907
96,000000	0,000000	620,000000	0,000000	2020-11-19T14:36:30:908
96,000000	0,000000	620,000000	0,000000	2020-11-19T14:36:30:957
96,000000	0,000000	620,000000	0,000000	2020-11-19T14:36:30:961
96,000000	0,000000	620,000000	0,000000	2020-11-19T14:36:31:002
96,000000	0,000000	620,000000	0,000000	2020-11-19T14:36:31:041
96,000000	0,000000	620,000000	0,000000	2020-11-19T14:36:31:082
96,000000	0,000000	620,000000	0,000000	2020-11-19T14:36:31:122
96,000000	0,000000	620,000000	0,000000	2020-11-19T14:36:31:162
96,000000	0,000000	620,000000	0,000000	2020-11-19T14:36:31:205
96,000000	0,000000	620,000000	0,000000	2020-11-19T14:36:31:241
96,000000	0,000000	620,000000	0,000000	2020-11-19T14:36:31:281
96,000000	0,000000	620,000000	0,000000	2020-11-19T14:36:31:323
96,000000	0,000000	620,000000	0,000000	2020-11-19T14:36:31:361
96,000000	0,000000	620,000000	0,000000	2020-11-19T14:36:31:406
96,000000	0,000000	620,000000	0,000000	2020-11-19T14:36:31:441
96,000000	0,000000	620,000000	0,000000	2020-11-19T14:36:31:489
96,000000	0,000000	620,000000	0,000000	2020-11-19T14:36:31:531
96,000000	0,000000	620,000000	0,000000	2020-11-19T14:36:31:561
96,000000	0,000000	620,000000	0,000000	2020-11-19T14:36:31:628
96,000000	0,000000	620,000000	0,000000	2020-11-19T14:36:31:673
96,000000	0,000000	620,000000	0,000000	2020-11-19T14:36:31:681
96,000000	0,000000	620,000000	0,000000	2020-11-19T14:36:31:722
96,000000	0,000000	620,000000	0,000000	2020-11-19T14:36:31:766
95,000000	0,000000	620,000000	0,000000	2020-11-19T14:36:31:802
96,000000	0,000000	620,000000	0,000000	2020-11-19T14:36:31:842
96,000000	0,000000	620,000000	0,000000	2020-11-19T14:36:31:883
96,000000	0,000000	620,000000	0,000000	2020-11-19T14:36:31:922
96,000000	0,000000	620,000000	0,000000	2020-11-19T14:36:31:963
96,000000	0,000000	620,000000	0,000000	2020-11-19T14:36:32:002
96,000000	0,000000	620,000000	0,000000	2020-11-19T14:36:32:043
96,000000	0,000000	620,000000	0,000000	2020-11-19T14:36:32:082
95,000000	0,000000	620,000000	0,000000	2020-11-19T14:36:32:123
95,000000	0,000000	620,000000	0,000000	2020-11-19T14:36:32:162
95,000000	0,000000	620,000000	0,000000	2020-11-19T14:36:32:203
95,000000	0,000000	620,000000	0,000000	2020-11-19T14:36:32:242
95,000000	0,000000	620,000000	0,000000	2020-11-19T14:36:32:283
95,000000	0,000000	620,000000	0,000000	2020-11-19T14:36:32:322
95,000000	0,000000	620,000000	0,000000	2020-11-19T14:36:32:363
95,000000	0,000000	620,000000	0,000000	2020-11-19T14:36:32:405
95,000000	0,000000	620,000000	0,000000	2020-11-19T14:36:32:445
95,000000	0,000000	724,000000	0,000000	2020-11-19T14:36:32:485
95,000000	0,000000	724,000000	0,000000	2020-11-19T14:36:32:526
95,000000	0,000000	724,000000	0,000000	2020-11-19T14:36:32:565
95,000000	0,000000	724,000000	0,000000	2020-11-19T14:36:32:606
95,000000	0,000000	724,000000	0,000000	2020-11-19T14:36:32:645
95,000000	0,000000	724,000000	0,000000	2020-11-19T14:36:32:685
95,000000	0,000000	724,000000	0,000000	2020-11-19T14:36:32:725
95,000000	0,000000	724,000000	0,000000	2020-11-19T14:36:32:765
96,000000	0,000000	724,000000	0,000000	2020-11-19T14:36:32:805
96,000000	0,000000	724,000000	0,000000	2020-11-19T14:36:32:846
96,000000	0,000000	724,000000	0,000000	2020-11-19T14:36:32:885
96,000000	0,000000	724,000000	0,000000	2020-11-19T14:36:32:926
96,000000	0,000000	724,000000	0,000000	2020-11-19T14:36:32:964
96,000000	0,000000	724,000000	0,000000	2020-11-19T14:36:33:005
96,000000	0,000000	724,000000	0,000000	2020-11-19T14:36:33:045
96,000000	0,000000	724,000000	0,000000	2020-11-19T14:36:33:085
96,000000	0,000000	724,000000	0,000000	2020-11-19T14:36:33:125
96,000000	0,000000	724,000000	0,000000	2020-11-19T14:36:33:166
96,000000	0,000000	724,000000	0,000000	2020-11-19T14:36:33:204
96,000000	0,000000	724,000000	0,000000	2020-11-19T14:36:33:247
95,000000	0,000000	724,000000	0,000000	2020-11-19T14:36:33:285
95,000000	0,000000	724,000000	0,000000	2020-11-19T14:36:33:327
95,000000	0,000000	724,000000	0,000000	2020-11-19T14:36:33:364
96,000000	0,000000	724,000000	0,000000	2020-11-19T14:36:33:405
96,000000	0,000000	724,000000	0,000000	2020-11-19T14:36:33:446
96,000000	0,000000	724,000000	0,000000	2020-11-19T14:36:33:486
96,000000	0,000000	724,000000	0,000000	2020-11-19T14:36:33:526
96,000000	0,000000	724,000000	0,000000	2020-11-19T14:36:33:566
95,000000	0,000000	724,000000	0,000000	2020-11-19T14:36:33:605
95,000000	0,000000	724,000000	0,000000	2020-11-19T14:36:33:646
95,000000	0,000000	724,000000	0,000000	2020-11-19T14:36:33:686
96,000000	0,000000	724,000000	0,000000	2020-11-19T14:36:33:727
96,000000	0,000000	724,000000	0,000000	2020-11-19T14:36:33:765
95,000000	0,000000	724,000000	0,000000	2020-11-19T14:36:33:807
95,000000	0,000000	724,000000	0,000000	2020-11-19T14:36:33:846
95,000000	0,000000	724,000000	0,000000	2020-11-19T14:36:33:887
95,000000	0,000000	724,000000	0,000000	2020-11-19T14:36:33:926
