light_level	ts
196,000000	2020-11-19T14:35:16:369
188,000000	2020-11-19T14:35:16:506
720,000000	2020-11-19T14:35:16:747
976,000000	2020-11-19T14:35:16:987
428,000000	2020-11-19T14:35:17:236
112,000000	2020-11-19T14:35:17:467
88,000000	2020-11-19T14:35:17:776
164,000000	2020-11-19T14:35:17:949
160,000000	2020-11-19T14:35:18:189
148,000000	2020-11-19T14:35:18:430
128,000000	2020-11-19T14:35:18:671
92,000000	2020-11-19T14:35:18:910
96,000000	2020-11-19T14:35:19:150
112,000000	2020-11-19T14:35:19:389
88,000000	2020-11-19T14:35:19:659
80,000000	2020-11-19T14:35:19:869
280,000000	2020-11-19T14:35:20:112
268,000000	2020-11-19T14:35:20:352
224,000000	2020-11-19T14:35:20:599
228,000000	2020-11-19T14:35:20:833
280,000000	2020-11-19T14:35:21:073
204,000000	2020-11-19T14:35:21:315
204,000000	2020-11-19T14:35:21:554
208,000000	2020-11-19T14:35:21:794
224,000000	2020-11-19T14:35:22:034
372,000000	2020-11-19T14:35:22:274
432,000000	2020-11-19T14:35:22:515
260,000000	2020-11-19T14:35:22:755
180,000000	2020-11-19T14:35:22:995
128,000000	2020-11-19T14:35:23:235
216,000000	2020-11-19T14:35:23:475
492,000000	2020-11-19T14:35:23:716
524,000000	2020-11-19T14:35:23:956
188,000000	2020-11-19T14:35:24:196
96,000000	2020-11-19T14:35:24:436
196,000000	2020-11-19T14:35:24:676
156,000000	2020-11-19T14:35:24:917
196,000000	2020-11-19T14:35:25:157
164,000000	2020-11-19T14:35:25:397
136,000000	2020-11-19T14:35:25:638
112,000000	2020-11-19T14:35:25:877
128,000000	2020-11-19T14:35:26:118
240,000000	2020-11-19T14:35:26:359
308,000000	2020-11-19T14:35:26:598
376,000000	2020-11-19T14:35:26:839
348,000000	2020-11-19T14:35:27:079
244,000000	2020-11-19T14:35:27:319
244,000000	2020-11-19T14:35:27:560
676,000000	2020-11-19T14:35:27:810
908,000000	2020-11-19T14:35:28:039
1108,000000	2020-11-19T14:35:28:279
1112,000000	2020-11-19T14:35:28:520
1108,000000	2020-11-19T14:35:28:760
1092,000000	2020-11-19T14:35:29:001
1100,000000	2020-11-19T14:35:29:241
988,000000	2020-11-19T14:35:29:481
748,000000	2020-11-19T14:35:29:722
296,000000	2020-11-19T14:35:29:962
264,000000	2020-11-19T14:35:30:201
380,000000	2020-11-19T14:35:30:442
528,000000	2020-11-19T14:35:30:681
308,000000	2020-11-19T14:35:30:922
248,000000	2020-11-19T14:35:31:163
228,000000	2020-11-19T14:35:31:403
308,000000	2020-11-19T14:35:31:643
332,000000	2020-11-19T14:35:31:882
280,000000	2020-11-19T14:35:32:123
216,000000	2020-11-19T14:35:32:364
184,000000	2020-11-19T14:35:32:604
184,000000	2020-11-19T14:35:32:845
328,000000	2020-11-19T14:35:33:084
384,000000	2020-11-19T14:35:33:324
224,000000	2020-11-19T14:35:33:589
168,000000	2020-11-19T14:35:33:805
124,000000	2020-11-19T14:35:34:050
188,000000	2020-11-19T14:35:34:285
252,000000	2020-11-19T14:35:34:526
208,000000	2020-11-19T14:35:34:766
144,000000	2020-11-19T14:35:35:006
88,000000	2020-11-19T14:35:35:246
80,000000	2020-11-19T14:35:35:486
84,000000	2020-11-19T14:35:35:727
216,000000	2020-11-19T14:35:35:968
388,000000	2020-11-19T14:35:36:207
308,000000	2020-11-19T14:35:36:447
96,000000	2020-11-19T14:35:36:688
40,000000	2020-11-19T14:35:36:928
68,000000	2020-11-19T14:35:37:169
164,000000	2020-11-19T14:35:37:408
244,000000	2020-11-19T14:35:37:649
220,000000	2020-11-19T14:35:37:890
136,000000	2020-11-19T14:35:38:171
260,000000	2020-11-19T14:35:38:369
444,000000	2020-11-19T14:35:38:609
392,000000	2020-11-19T14:35:38:851
200,000000	2020-11-19T14:35:39:090
168,000000	2020-11-19T14:35:39:331
176,000000	2020-11-19T14:35:39:570
336,000000	2020-11-19T14:35:39:812
304,000000	2020-11-19T14:35:40:051
164,000000	2020-11-19T14:35:40:291
160,000000	2020-11-19T14:35:40:533
112,000000	2020-11-19T14:35:40:773
252,000000	2020-11-19T14:35:41:013
316,000000	2020-11-19T14:35:41:252
208,000000	2020-11-19T14:35:41:492
268,000000	2020-11-19T14:35:41:733
240,000000	2020-11-19T14:35:41:973
240,000000	2020-11-19T14:35:42:213
448,000000	2020-11-19T14:35:42:453
272,000000	2020-11-19T14:35:42:694
224,000000	2020-11-19T14:35:42:934
316,000000	2020-11-19T14:35:43:175
368,000000	2020-11-19T14:35:43:415
444,000000	2020-11-19T14:35:43:654
428,000000	2020-11-19T14:35:43:895
312,000000	2020-11-19T14:35:44:134
248,000000	2020-11-19T14:35:44:376
212,000000	2020-11-19T14:35:44:615
360,000000	2020-11-19T14:35:44:856
588,000000	2020-11-19T14:35:45:096
552,000000	2020-11-19T14:35:45:337
220,000000	2020-11-19T14:35:45:577
100,000000	2020-11-19T14:35:45:817
80,000000	2020-11-19T14:35:46:057
80,000000	2020-11-19T14:35:46:297
76,000000	2020-11-19T14:35:46:537
60,000000	2020-11-19T14:35:46:778
100,000000	2020-11-19T14:35:47:018
172,000000	2020-11-19T14:35:47:258
164,000000	2020-11-19T14:35:47:498
312,000000	2020-11-19T14:35:47:739
456,000000	2020-11-19T14:35:47:979
336,000000	2020-11-19T14:35:48:219
180,000000	2020-11-19T14:35:48:460
124,000000	2020-11-19T14:35:48:700
340,000000	2020-11-19T14:35:48:940
464,000000	2020-11-19T14:35:49:181
396,000000	2020-11-19T14:35:49:420
364,000000	2020-11-19T14:35:49:660
276,000000	2020-11-19T14:35:49:901
324,000000	2020-11-19T14:35:50:141
672,000000	2020-11-19T14:35:50:382
980,000000	2020-11-19T14:35:50:622
1072,000000	2020-11-19T14:35:50:862
976,000000	2020-11-19T14:35:51:102
760,000000	2020-11-19T14:35:51:343
1028,000000	2020-11-19T14:35:51:583
1028,000000	2020-11-19T14:35:51:823
804,000000	2020-11-19T14:35:52:063
728,000000	2020-11-19T14:35:52:302
472,000000	2020-11-19T14:35:52:544
320,000000	2020-11-19T14:35:52:784
280,000000	2020-11-19T14:35:53:024
400,000000	2020-11-19T14:35:53:264
420,000000	2020-11-19T14:35:53:504
360,000000	2020-11-19T14:35:53:744
248,000000	2020-11-19T14:35:53:985
252,000000	2020-11-19T14:35:54:225
220,000000	2020-11-19T14:35:54:465
164,000000	2020-11-19T14:35:54:704
276,000000	2020-11-19T14:35:54:946
396,000000	2020-11-19T14:35:55:187
196,000000	2020-11-19T14:35:55:427
164,000000	2020-11-19T14:35:55:667
140,000000	2020-11-19T14:35:55:907
136,000000	2020-11-19T14:35:56:148
220,000000	2020-11-19T14:35:56:388
176,000000	2020-11-19T14:35:56:627
156,000000	2020-11-19T14:35:56:869
192,000000	2020-11-19T14:35:57:108
168,000000	2020-11-19T14:35:57:348
184,000000	2020-11-19T14:35:57:589
232,000000	2020-11-19T14:35:57:829
304,000000	2020-11-19T14:35:58:069
404,000000	2020-11-19T14:35:58:309
316,000000	2020-11-19T14:35:58:550
292,000000	2020-11-19T14:35:58:790
436,000000	2020-11-19T14:35:59:030
512,000000	2020-11-19T14:35:59:270
324,000000	2020-11-19T14:35:59:510
284,000000	2020-11-19T14:35:59:751
320,000000	2020-11-19T14:35:59:992
212,000000	2020-11-19T14:36:00:231
344,000000	2020-11-19T14:36:00:471
464,000000	2020-11-19T14:36:00:711
364,000000	2020-11-19T14:36:00:952
264,000000	2020-11-19T14:36:01:192
212,000000	2020-11-19T14:36:01:432
156,000000	2020-11-19T14:36:01:672
364,000000	2020-11-19T14:36:01:912
492,000000	2020-11-19T14:36:02:153
256,000000	2020-11-19T14:36:02:394
140,000000	2020-11-19T14:36:02:633
128,000000	2020-11-19T14:36:02:874
92,000000	2020-11-19T14:36:03:114
280,000000	2020-11-19T14:36:03:354
280,000000	2020-11-19T14:36:03:595
208,000000	2020-11-19T14:36:03:834
356,000000	2020-11-19T14:36:04:075
324,000000	2020-11-19T14:36:04:315
520,000000	2020-11-19T14:36:04:555
572,000000	2020-11-19T14:36:04:796
420,000000	2020-11-19T14:36:05:036
300,000000	2020-11-19T14:36:05:276
200,000000	2020-11-19T14:36:05:516
176,000000	2020-11-19T14:36:05:757
284,000000	2020-11-19T14:36:05:997
456,000000	2020-11-19T14:36:06:237
564,000000	2020-11-19T14:36:06:476
324,000000	2020-11-19T14:36:06:717
312,000000	2020-11-19T14:36:06:957
312,000000	2020-11-19T14:36:07:198
324,000000	2020-11-19T14:36:07:439
556,000000	2020-11-19T14:36:07:678
932,000000	2020-11-19T14:36:08:242
516,000000	2020-11-19T14:36:08:243
316,000000	2020-11-19T14:36:08:415
156,000000	2020-11-19T14:36:08:642
232,000000	2020-11-19T14:36:08:880
396,000000	2020-11-19T14:36:09:119
392,000000	2020-11-19T14:36:09:360
228,000000	2020-11-19T14:36:09:600
132,000000	2020-11-19T14:36:09:840
92,000000	2020-11-19T14:36:10:081
180,000000	2020-11-19T14:36:10:321
316,000000	2020-11-19T14:36:10:565
372,000000	2020-11-19T14:36:10:801
280,000000	2020-11-19T14:36:11:041
136,000000	2020-11-19T14:36:11:281
156,000000	2020-11-19T14:36:11:524
252,000000	2020-11-19T14:36:11:762
304,000000	2020-11-19T14:36:12:003
276,000000	2020-11-19T14:36:12:243
212,000000	2020-11-19T14:36:12:483
208,000000	2020-11-19T14:36:12:723
92,000000	2020-11-19T14:36:12:963
128,000000	2020-11-19T14:36:13:204
200,000000	2020-11-19T14:36:13:444
212,000000	2020-11-19T14:36:13:684
384,000000	2020-11-19T14:36:13:924
340,000000	2020-11-19T14:36:14:164
200,000000	2020-11-19T14:36:14:405
188,000000	2020-11-19T14:36:14:645
416,000000	2020-11-19T14:36:14:885
576,000000	2020-11-19T14:36:15:126
448,000000	2020-11-19T14:36:15:366
280,000000	2020-11-19T14:36:15:606
200,000000	2020-11-19T14:36:15:847
212,000000	2020-11-19T14:36:16:087
544,000000	2020-11-19T14:36:16:326
652,000000	2020-11-19T14:36:16:566
340,000000	2020-11-19T14:36:16:807
228,000000	2020-11-19T14:36:17:047
192,000000	2020-11-19T14:36:17:287
184,000000	2020-11-19T14:36:17:528
428,000000	2020-11-19T14:36:17:768
344,000000	2020-11-19T14:36:18:009
160,000000	2020-11-19T14:36:18:249
180,000000	2020-11-19T14:36:18:491
124,000000	2020-11-19T14:36:18:729
152,000000	2020-11-19T14:36:18:970
276,000000	2020-11-19T14:36:19:210
196,000000	2020-11-19T14:36:19:452
204,000000	2020-11-19T14:36:19:694
280,000000	2020-11-19T14:36:19:931
224,000000	2020-11-19T14:36:20:171
360,000000	2020-11-19T14:36:20:412
612,000000	2020-11-19T14:36:20:651
544,000000	2020-11-19T14:36:20:891
444,000000	2020-11-19T14:36:21:132
408,000000	2020-11-19T14:36:21:371
268,000000	2020-11-19T14:36:21:612
220,000000	2020-11-19T14:36:21:852
360,000000	2020-11-19T14:36:22:092
448,000000	2020-11-19T14:36:22:333
372,000000	2020-11-19T14:36:22:573
296,000000	2020-11-19T14:36:22:814
264,000000	2020-11-19T14:36:23:053
252,000000	2020-11-19T14:36:23:293
344,000000	2020-11-19T14:36:23:533
444,000000	2020-11-19T14:36:23:774
340,000000	2020-11-19T14:36:24:015
164,000000	2020-11-19T14:36:24:255
164,000000	2020-11-19T14:36:24:495
208,000000	2020-11-19T14:36:24:735
300,000000	2020-11-19T14:36:24:975
312,000000	2020-11-19T14:36:25:215
200,000000	2020-11-19T14:36:25:455
152,000000	2020-11-19T14:36:25:696
96,000000	2020-11-19T14:36:25:936
180,000000	2020-11-19T14:36:26:176
300,000000	2020-11-19T14:36:26:416
244,000000	2020-11-19T14:36:26:657
196,000000	2020-11-19T14:36:26:897
164,000000	2020-11-19T14:36:27:138
160,000000	2020-11-19T14:36:27:377
376,000000	2020-11-19T14:36:27:618
396,000000	2020-11-19T14:36:27:858
320,000000	2020-11-19T14:36:28:098
252,000000	2020-11-19T14:36:28:339
188,000000	2020-11-19T14:36:28:579
268,000000	2020-11-19T14:36:28:819
380,000000	2020-11-19T14:36:29:059
724,000000	2020-11-19T14:36:29:300
636,000000	2020-11-19T14:36:29:540
704,000000	2020-11-19T14:36:29:780
644,000000	2020-11-19T14:36:30:021
596,000000	2020-11-19T14:36:30:261
724,000000	2020-11-19T14:36:30:501
988,000000	2020-11-19T14:36:30:740
780,000000	2020-11-19T14:36:30:979
612,000000	2020-11-19T14:36:31:220
488,000000	2020-11-19T14:36:31:458
444,000000	2020-11-19T14:36:31:703
544,000000	2020-11-19T14:36:31:939
576,000000	2020-11-19T14:36:32:180
464,000000	2020-11-19T14:36:32:423
340,000000	2020-11-19T14:36:32:663
300,000000	2020-11-19T14:36:32:902
340,000000	2020-11-19T14:36:33:143
316,000000	2020-11-19T14:36:33:382
348,000000	2020-11-19T14:36:33:623
356,000000	2020-11-19T14:36:33:864
376,000000	2020-11-19T14:36:34:103
288,000000	2020-11-19T14:36:34:344
296,000000	2020-11-19T14:36:34:587
412,000000	2020-11-19T14:36:34:825
448,000000	2020-11-19T14:36:35:064
312,000000	2020-11-19T14:36:35:305
288,000000	2020-11-19T14:36:35:545
252,000000	2020-11-19T14:36:35:785
196,000000	2020-11-19T14:36:36:026
268,000000	2020-11-19T14:36:36:266
312,000000	2020-11-19T14:36:36:507
176,000000	2020-11-19T14:36:36:747
128,000000	2020-11-19T14:36:36:987
96,000000	2020-11-19T14:36:37:227
172,000000	2020-11-19T14:36:37:467
340,000000	2020-11-19T14:36:37:707
296,000000	2020-11-19T14:36:37:948
260,000000	2020-11-19T14:36:38:189
312,000000	2020-11-19T14:36:38:429
232,000000	2020-11-19T14:36:38:669
304,000000	2020-11-19T14:36:38:910
436,000000	2020-11-19T14:36:39:149
356,000000	2020-11-19T14:36:39:389
240,000000	2020-11-19T14:36:39:629
236,000000	2020-11-19T14:36:39:869
196,000000	2020-11-19T14:36:40:109
180,000000	2020-11-19T14:36:40:350
196,000000	2020-11-19T14:36:40:595
204,000000	2020-11-19T14:36:40:832
192,000000	2020-11-19T14:36:41:071
160,000000	2020-11-19T14:36:41:311
100,000000	2020-11-19T14:36:41:552
108,000000	2020-11-19T14:36:41:791
108,000000	2020-11-19T14:36:42:032
112,000000	2020-11-19T14:36:42:272
112,000000	2020-11-19T14:36:42:512
120,000000	2020-11-19T14:36:42:752
120,000000	2020-11-19T14:36:42:992
112,000000	2020-11-19T14:36:43:233
100,000000	2020-11-19T14:36:43:472
92,000000	2020-11-19T14:36:43:714
104,000000	2020-11-19T14:36:43:953
104,000000	2020-11-19T14:36:44:194
96,000000	2020-11-19T14:36:44:433
92,000000	2020-11-19T14:36:44:675
64,000000	2020-11-19T14:36:44:915
48,000000	2020-11-19T14:36:45:155
48,000000	2020-11-19T14:36:45:395
68,000000	2020-11-19T14:36:45:635
92,000000	2020-11-19T14:36:45:876
232,000000	2020-11-19T14:36:46:116
316,000000	2020-11-19T14:36:46:356
280,000000	2020-11-19T14:36:46:596
236,000000	2020-11-19T14:36:46:837
244,000000	2020-11-19T14:36:47:076
280,000000	2020-11-19T14:36:47:317
412,000000	2020-11-19T14:36:47:558
416,000000	2020-11-19T14:36:47:798
288,000000	2020-11-19T14:36:48:038
212,000000	2020-11-19T14:36:48:278
172,000000	2020-11-19T14:36:48:518
228,000000	2020-11-19T14:36:48:759
348,000000	2020-11-19T14:36:48:999
332,000000	2020-11-19T14:36:49:239
220,000000	2020-11-19T14:36:49:479
180,000000	2020-11-19T14:36:49:720
172,000000	2020-11-19T14:36:49:959
156,000000	2020-11-19T14:36:50:200
156,000000	2020-11-19T14:36:50:442
116,000000	2020-11-19T14:36:50:680
140,000000	2020-11-19T14:36:50:921
144,000000	2020-11-19T14:36:51:161
152,000000	2020-11-19T14:36:51:401
228,000000	2020-11-19T14:36:51:642
388,000000	2020-11-19T14:36:51:882
340,000000	2020-11-19T14:36:52:122
216,000000	2020-11-19T14:36:52:362
180,000000	2020-11-19T14:36:52:602
276,000000	2020-11-19T14:36:52:843
312,000000	2020-11-19T14:36:53:083
276,000000	2020-11-19T14:36:53:323
232,000000	2020-11-19T14:36:53:564
188,000000	2020-11-19T14:36:53:804
188,000000	2020-11-19T14:36:54:045
344,000000	2020-11-19T14:36:54:284
452,000000	2020-11-19T14:36:54:524
384,000000	2020-11-19T14:36:54:764
328,000000	2020-11-19T14:36:55:006
232,000000	2020-11-19T14:36:55:245
184,000000	2020-11-19T14:36:55:485
172,000000	2020-11-19T14:36:55:726
252,000000	2020-11-19T14:36:55:965
324,000000	2020-11-19T14:36:56:206
220,000000	2020-11-19T14:36:56:446
164,000000	2020-11-19T14:36:56:686
100,000000	2020-11-19T14:36:56:927
116,000000	2020-11-19T14:36:57:167
264,000000	2020-11-19T14:36:57:407
264,000000	2020-11-19T14:36:57:648
140,000000	2020-11-19T14:36:57:887
236,000000	2020-11-19T14:36:58:127
272,000000	2020-11-19T14:36:58:368
352,000000	2020-11-19T14:36:58:608
524,000000	2020-11-19T14:36:58:848
480,000000	2020-11-19T14:36:59:088
336,000000	2020-11-19T14:36:59:329
308,000000	2020-11-19T14:36:59:569
148,000000	2020-11-19T14:36:59:809
204,000000	2020-11-19T14:37:00:050
424,000000	2020-11-19T14:37:00:290
236,000000	2020-11-19T14:37:00:530
228,000000	2020-11-19T14:37:00:771
224,000000	2020-11-19T14:37:01:011
244,000000	2020-11-19T14:37:01:251
360,000000	2020-11-19T14:37:01:491
412,000000	2020-11-19T14:37:01:731
320,000000	2020-11-19T14:37:01:971
156,000000	2020-11-19T14:37:02:211
84,000000	2020-11-19T14:37:02:452
80,000000	2020-11-19T14:37:02:692
96,000000	2020-11-19T14:37:02:932
96,000000	2020-11-19T14:37:03:172
80,000000	2020-11-19T14:37:03:412
60,000000	2020-11-19T14:37:03:653
64,000000	2020-11-19T14:37:03:893
60,000000	2020-11-19T14:37:04:157
92,000000	2020-11-19T14:37:04:374
116,000000	2020-11-19T14:37:04:614
108,000000	2020-11-19T14:37:04:854
80,000000	2020-11-19T14:37:05:096
120,000000	2020-11-19T14:37:05:335
280,000000	2020-11-19T14:37:05:576
352,000000	2020-11-19T14:37:05:815
328,000000	2020-11-19T14:37:06:055
236,000000	2020-11-19T14:37:06:296
200,000000	2020-11-19T14:37:06:536
388,000000	2020-11-19T14:37:06:775
480,000000	2020-11-19T14:37:07:017
372,000000	2020-11-19T14:37:07:256
184,000000	2020-11-19T14:37:07:496
148,000000	2020-11-19T14:37:07:737
196,000000	2020-11-19T14:37:07:977
336,000000	2020-11-19T14:37:08:217
240,000000	2020-11-19T14:37:08:458
164,000000	2020-11-19T14:37:08:698
136,000000	2020-11-19T14:37:08:939
140,000000	2020-11-19T14:37:09:179
176,000000	2020-11-19T14:37:09:418
260,000000	2020-11-19T14:37:09:659
316,000000	2020-11-19T14:37:09:899
508,000000	2020-11-19T14:37:10:139
364,000000	2020-11-19T14:37:10:380
200,000000	2020-11-19T14:37:10:620
196,000000	2020-11-19T14:37:10:860
324,000000	2020-11-19T14:37:11:100
660,000000	2020-11-19T14:37:11:340
696,000000	2020-11-19T14:37:11:581
336,000000	2020-11-19T14:37:11:821
140,000000	2020-11-19T14:37:12:062
148,000000	2020-11-19T14:37:12:302
220,000000	2020-11-19T14:37:12:542
284,000000	2020-11-19T14:37:12:783
440,000000	2020-11-19T14:37:13:023
224,000000	2020-11-19T14:37:13:262
328,000000	2020-11-19T14:37:13:501
304,000000	2020-11-19T14:37:13:743
456,000000	2020-11-19T14:37:13:983
336,000000	2020-11-19T14:37:14:223
192,000000	2020-11-19T14:37:14:464
312,000000	2020-11-19T14:37:14:704
244,000000	2020-11-19T14:37:14:944
148,000000	2020-11-19T14:37:15:184
172,000000	2020-11-19T14:37:15:425
164,000000	2020-11-19T14:37:15:665
352,000000	2020-11-19T14:37:15:904
396,000000	2020-11-19T14:37:16:145
180,000000	2020-11-19T14:37:16:386
140,000000	2020-11-19T14:37:16:626
200,000000	2020-11-19T14:37:16:866
332,000000	2020-11-19T14:37:17:105
448,000000	2020-11-19T14:37:17:347
704,000000	2020-11-19T14:37:17:587
868,000000	2020-11-19T14:37:17:827
624,000000	2020-11-19T14:37:18:067
284,000000	2020-11-19T14:37:18:308
208,000000	2020-11-19T14:37:18:548
212,000000	2020-11-19T14:37:18:788
332,000000	2020-11-19T14:37:19:028
612,000000	2020-11-19T14:37:19:268
616,000000	2020-11-19T14:37:19:509
604,000000	2020-11-19T14:37:19:748
496,000000	2020-11-19T14:37:19:989
376,000000	2020-11-19T14:37:20:229
264,000000	2020-11-19T14:37:20:470
332,000000	2020-11-19T14:37:20:710
548,000000	2020-11-19T14:37:20:950
356,000000	2020-11-19T14:37:21:190
156,000000	2020-11-19T14:37:21:431
120,000000	2020-11-19T14:37:21:671
164,000000	2020-11-19T14:37:21:911
364,000000	2020-11-19T14:37:22:151
424,000000	2020-11-19T14:37:22:392
360,000000	2020-11-19T14:37:22:632
180,000000	2020-11-19T14:37:22:883
156,000000	2020-11-19T14:37:23:112
164,000000	2020-11-19T14:37:23:352
220,000000	2020-11-19T14:37:23:592
224,000000	2020-11-19T14:37:23:832
204,000000	2020-11-19T14:37:24:073
204,000000	2020-11-19T14:37:24:314
168,000000	2020-11-19T14:37:24:553
156,000000	2020-11-19T14:37:24:794
220,000000	2020-11-19T14:37:25:033
240,000000	2020-11-19T14:37:25:274
196,000000	2020-11-19T14:37:25:514
160,000000	2020-11-19T14:37:25:755
200,000000	2020-11-19T14:37:25:995
220,000000	2020-11-19T14:37:26:235
320,000000	2020-11-19T14:37:26:475
248,000000	2020-11-19T14:37:26:716
268,000000	2020-11-19T14:37:26:956
284,000000	2020-11-19T14:37:27:196
256,000000	2020-11-19T14:37:27:436
344,000000	2020-11-19T14:37:27:676
356,000000	2020-11-19T14:37:27:916
384,000000	2020-11-19T14:37:28:157
388,000000	2020-11-19T14:37:28:397
332,000000	2020-11-19T14:37:28:637
212,000000	2020-11-19T14:37:28:877
176,000000	2020-11-19T14:37:29:117
188,000000	2020-11-19T14:37:29:358
172,000000	2020-11-19T14:37:29:598
156,000000	2020-11-19T14:37:29:839
160,000000	2020-11-19T14:37:30:078
232,000000	2020-11-19T14:37:30:319
224,000000	2020-11-19T14:37:30:559
228,000000	2020-11-19T14:37:30:799
264,000000	2020-11-19T14:37:31:039
124,000000	2020-11-19T14:37:31:280
196,000000	2020-11-19T14:37:31:520
176,000000	2020-11-19T14:37:31:760
188,000000	2020-11-19T14:37:32:001
120,000000	2020-11-19T14:37:32:240
68,000000	2020-11-19T14:37:32:481
64,000000	2020-11-19T14:37:32:721
88,000000	2020-11-19T14:37:32:960
144,000000	2020-11-19T14:37:33:202
156,000000	2020-11-19T14:37:33:442
108,000000	2020-11-19T14:37:33:684
88,000000	2020-11-19T14:37:33:922
108,000000	2020-11-19T14:37:34:162
264,000000	2020-11-19T14:37:34:403
332,000000	2020-11-19T14:37:34:643
288,000000	2020-11-19T14:37:34:883
228,000000	2020-11-19T14:37:35:123
224,000000	2020-11-19T14:37:35:363
268,000000	2020-11-19T14:37:35:604
396,000000	2020-11-19T14:37:35:848
336,000000	2020-11-19T14:37:36:085
176,000000	2020-11-19T14:37:36:325
132,000000	2020-11-19T14:37:36:565
164,000000	2020-11-19T14:37:36:805
280,000000	2020-11-19T14:37:37:046
308,000000	2020-11-19T14:37:37:287
228,000000	2020-11-19T14:37:37:526
212,000000	2020-11-19T14:37:37:766
148,000000	2020-11-19T14:37:38:006
196,000000	2020-11-19T14:37:38:247
284,000000	2020-11-19T14:37:38:487
224,000000	2020-11-19T14:37:38:727
156,000000	2020-11-19T14:37:38:967
116,000000	2020-11-19T14:37:39:207
136,000000	2020-11-19T14:37:39:448
224,000000	2020-11-19T14:37:39:689
252,000000	2020-11-19T14:37:39:928
216,000000	2020-11-19T14:37:40:169
320,000000	2020-11-19T14:37:40:408
320,000000	2020-11-19T14:37:40:649
176,000000	2020-11-19T14:37:40:890
268,000000	2020-11-19T14:37:41:129
740,000000	2020-11-19T14:37:41:370
996,000000	2020-11-19T14:37:42:033
420,000000	2020-11-19T14:37:42:106
500,000000	2020-11-19T14:37:42:174
988,000000	2020-11-19T14:37:42:334
360,000000	2020-11-19T14:37:42:597
204,000000	2020-11-19T14:37:42:809
200,000000	2020-11-19T14:37:43:051
200,000000	2020-11-19T14:37:43:293
132,000000	2020-11-19T14:37:43:533
236,000000	2020-11-19T14:37:43:772
280,000000	2020-11-19T14:37:44:012
148,000000	2020-11-19T14:37:44:258
108,000000	2020-11-19T14:37:44:492
116,000000	2020-11-19T14:37:44:733
140,000000	2020-11-19T14:37:44:973
388,000000	2020-11-19T14:37:45:224
280,000000	2020-11-19T14:37:45:454
268,000000	2020-11-19T14:37:45:694
676,000000	2020-11-19T14:37:45:934
732,000000	2020-11-19T14:37:46:174
400,000000	2020-11-19T14:37:46:415
360,000000	2020-11-19T14:37:46:655
376,000000	2020-11-19T14:37:46:895
320,000000	2020-11-19T14:37:47:135
380,000000	2020-11-19T14:37:47:376
444,000000	2020-11-19T14:37:47:615
240,000000	2020-11-19T14:37:47:855
232,000000	2020-11-19T14:37:48:097
116,000000	2020-11-19T14:37:48:336
172,000000	2020-11-19T14:37:48:576
204,000000	2020-11-19T14:37:48:817
148,000000	2020-11-19T14:37:49:057
184,000000	2020-11-19T14:37:49:297
96,000000	2020-11-19T14:37:49:537
72,000000	2020-11-19T14:37:49:778
100,000000	2020-11-19T14:37:50:019
80,000000	2020-11-19T14:37:50:259
80,000000	2020-11-19T14:37:50:499
64,000000	2020-11-19T14:37:50:739
148,000000	2020-11-19T14:37:50:980
216,000000	2020-11-19T14:37:51:220
156,000000	2020-11-19T14:37:51:460
60,000000	2020-11-19T14:37:51:700
68,000000	2020-11-19T14:37:51:940
184,000000	2020-11-19T14:37:52:180
372,000000	2020-11-19T14:37:52:421
516,000000	2020-11-19T14:37:52:661
304,000000	2020-11-19T14:37:52:902
184,000000	2020-11-19T14:37:53:141
196,000000	2020-11-19T14:37:53:382
388,000000	2020-11-19T14:37:53:621
664,000000	2020-11-19T14:37:53:862
696,000000	2020-11-19T14:37:54:103
308,000000	2020-11-19T14:37:54:343
172,000000	2020-11-19T14:37:54:583
124,000000	2020-11-19T14:37:54:823
256,000000	2020-11-19T14:37:55:064
440,000000	2020-11-19T14:37:55:303
408,000000	2020-11-19T14:37:55:544
212,000000	2020-11-19T14:37:55:783
152,000000	2020-11-19T14:37:56:025
128,000000	2020-11-19T14:37:56:264
152,000000	2020-11-19T14:37:56:505
348,000000	2020-11-19T14:37:56:745
296,000000	2020-11-19T14:37:56:985
164,000000	2020-11-19T14:37:57:225
120,000000	2020-11-19T14:37:57:465
92,000000	2020-11-19T14:37:57:707
192,000000	2020-11-19T14:37:57:946
296,000000	2020-11-19T14:37:58:186
240,000000	2020-11-19T14:37:58:427
212,000000	2020-11-19T14:37:58:667
204,000000	2020-11-19T14:37:58:908
228,000000	2020-11-19T14:37:59:147
244,000000	2020-11-19T14:37:59:388
268,000000	2020-11-19T14:37:59:629
204,000000	2020-11-19T14:37:59:868
160,000000	2020-11-19T14:38:00:109
196,000000	2020-11-19T14:38:00:348
280,000000	2020-11-19T14:38:00:595
156,000000	2020-11-19T14:38:00:829
80,000000	2020-11-19T14:38:01:069
80,000000	2020-11-19T14:38:01:310
172,000000	2020-11-19T14:38:01:550
304,000000	2020-11-19T14:38:01:789
332,000000	2020-11-19T14:38:02:029
168,000000	2020-11-19T14:38:02:270
124,000000	2020-11-19T14:38:02:511
136,000000	2020-11-19T14:38:02:751
320,000000	2020-11-19T14:38:02:991
368,000000	2020-11-19T14:38:03:231
284,000000	2020-11-19T14:38:03:472
188,000000	2020-11-19T14:38:03:712
168,000000	2020-11-19T14:38:03:952
132,000000	2020-11-19T14:38:04:192
176,000000	2020-11-19T14:38:04:432
276,000000	2020-11-19T14:38:04:673
176,000000	2020-11-19T14:38:04:913
136,000000	2020-11-19T14:38:05:153
108,000000	2020-11-19T14:38:05:393
144,000000	2020-11-19T14:38:05:633
296,000000	2020-11-19T14:38:05:874
348,000000	2020-11-19T14:38:06:114
304,000000	2020-11-19T14:38:06:354
272,000000	2020-11-19T14:38:06:595
228,000000	2020-11-19T14:38:06:835
252,000000	2020-11-19T14:38:07:075
400,000000	2020-11-19T14:38:07:315
432,000000	2020-11-19T14:38:07:556
284,000000	2020-11-19T14:38:07:797
192,000000	2020-11-19T14:38:08:035
80,000000	2020-11-19T14:38:08:276
208,000000	2020-11-19T14:38:08:516
280,000000	2020-11-19T14:38:08:756
192,000000	2020-11-19T14:38:08:997
140,000000	2020-11-19T14:38:09:237
124,000000	2020-11-19T14:38:09:477
140,000000	2020-11-19T14:38:09:717
224,000000	2020-11-19T14:38:09:960
396,000000	2020-11-19T14:38:10:197
688,000000	2020-11-19T14:38:10:438
740,000000	2020-11-19T14:38:10:678
700,000000	2020-11-19T14:38:10:919
676,000000	2020-11-19T14:38:11:159
748,000000	2020-11-19T14:38:11:401
560,000000	2020-11-19T14:38:11:639
276,000000	2020-11-19T14:38:11:879
188,000000	2020-11-19T14:38:12:120
228,000000	2020-11-19T14:38:12:360
188,000000	2020-11-19T14:38:12:600
180,000000	2020-11-19T14:38:12:840
164,000000	2020-11-19T14:38:13:081
76,000000	2020-11-19T14:38:13:321
56,000000	2020-11-19T14:38:13:561
52,000000	2020-11-19T14:38:13:802
120,000000	2020-11-19T14:38:14:041
236,000000	2020-11-19T14:38:14:282
292,000000	2020-11-19T14:38:14:523
176,000000	2020-11-19T14:38:14:762
152,000000	2020-11-19T14:38:15:003
180,000000	2020-11-19T14:38:15:243
292,000000	2020-11-19T14:38:15:483
452,000000	2020-11-19T14:38:15:723
488,000000	2020-11-19T14:38:15:964
228,000000	2020-11-19T14:38:16:203
164,000000	2020-11-19T14:38:16:445
168,000000	2020-11-19T14:38:16:684
292,000000	2020-11-19T14:38:16:924
384,000000	2020-11-19T14:38:17:164
264,000000	2020-11-19T14:38:17:405
152,000000	2020-11-19T14:38:17:645
132,000000	2020-11-19T14:38:17:885
164,000000	2020-11-19T14:38:18:127
156,000000	2020-11-19T14:38:18:368
140,000000	2020-11-19T14:38:18:606
160,000000	2020-11-19T14:38:18:846
156,000000	2020-11-19T14:38:19:087
120,000000	2020-11-19T14:38:19:327
204,000000	2020-11-19T14:38:19:567
256,000000	2020-11-19T14:38:19:807
212,000000	2020-11-19T14:38:20:047
164,000000	2020-11-19T14:38:20:288
108,000000	2020-11-19T14:38:20:528
68,000000	2020-11-19T14:38:20:768
204,000000	2020-11-19T14:38:21:009
184,000000	2020-11-19T14:38:21:249
140,000000	2020-11-19T14:38:21:489
208,000000	2020-11-19T14:38:21:729
360,000000	2020-11-19T14:38:21:970
220,000000	2020-11-19T14:38:22:210
152,000000	2020-11-19T14:38:22:449
276,000000	2020-11-19T14:38:22:690
304,000000	2020-11-19T14:38:22:931
284,000000	2020-11-19T14:38:23:171
292,000000	2020-11-19T14:38:23:411
200,000000	2020-11-19T14:38:23:651
152,000000	2020-11-19T14:38:23:891
264,000000	2020-11-19T14:38:24:132
368,000000	2020-11-19T14:38:24:371
332,000000	2020-11-19T14:38:24:611
256,000000	2020-11-19T14:38:24:852
180,000000	2020-11-19T14:38:25:092
132,000000	2020-11-19T14:38:25:333
208,000000	2020-11-19T14:38:25:572
300,000000	2020-11-19T14:38:25:814
164,000000	2020-11-19T14:38:26:053
176,000000	2020-11-19T14:38:26:294
140,000000	2020-11-19T14:38:26:534
144,000000	2020-11-19T14:38:26:773
256,000000	2020-11-19T14:38:27:014
292,000000	2020-11-19T14:38:27:254
224,000000	2020-11-19T14:38:27:495
352,000000	2020-11-19T14:38:27:735
228,000000	2020-11-19T14:38:27:975
300,000000	2020-11-19T14:38:28:215
580,000000	2020-11-19T14:38:28:456
544,000000	2020-11-19T14:38:28:695
356,000000	2020-11-19T14:38:28:936
288,000000	2020-11-19T14:38:29:176
196,000000	2020-11-19T14:38:29:417
128,000000	2020-11-19T14:38:29:657
228,000000	2020-11-19T14:38:29:897
204,000000	2020-11-19T14:38:30:137
116,000000	2020-11-19T14:38:30:377
160,000000	2020-11-19T14:38:30:617
68,000000	2020-11-19T14:38:30:858
76,000000	2020-11-19T14:38:31:098
260,000000	2020-11-19T14:38:31:339
344,000000	2020-11-19T14:38:31:579
176,000000	2020-11-19T14:38:31:818
200,000000	2020-11-19T14:38:32:059
320,000000	2020-11-19T14:38:32:299
452,000000	2020-11-19T14:38:32:540
404,000000	2020-11-19T14:38:32:780
232,000000	2020-11-19T14:38:33:021
96,000000	2020-11-19T14:38:33:269
84,000000	2020-11-19T14:38:33:501
116,000000	2020-11-19T14:38:33:743
188,000000	2020-11-19T14:38:33:982
472,000000	2020-11-19T14:38:34:221
184,000000	2020-11-19T14:38:34:461
60,000000	2020-11-19T14:38:34:702
52,000000	2020-11-19T14:38:34:942
128,000000	2020-11-19T14:38:35:182
256,000000	2020-11-19T14:38:35:423
316,000000	2020-11-19T14:38:35:663
188,000000	2020-11-19T14:38:35:903
132,000000	2020-11-19T14:38:36:144
168,000000	2020-11-19T14:38:36:383
296,000000	2020-11-19T14:38:36:623
440,000000	2020-11-19T14:38:36:864
528,000000	2020-11-19T14:38:37:104
280,000000	2020-11-19T14:38:37:345
184,000000	2020-11-19T14:38:37:584
160,000000	2020-11-19T14:38:37:826
228,000000	2020-11-19T14:38:38:065
536,000000	2020-11-19T14:38:38:305
1156,000000	2020-11-19T14:38:39:085
620,000000	2020-11-19T14:38:39:087
616,000000	2020-11-19T14:38:39:098
640,000000	2020-11-19T14:38:39:264
624,000000	2020-11-19T14:38:39:523
664,000000	2020-11-19T14:38:39:750
704,000000	2020-11-19T14:38:39:990
752,000000	2020-11-19T14:38:40:229
880,000000	2020-11-19T14:38:40:467
1016,000000	2020-11-19T14:38:40:707
860,000000	2020-11-19T14:38:40:949
876,000000	2020-11-19T14:38:41:187
828,000000	2020-11-19T14:38:41:431
840,000000	2020-11-19T14:38:41:674
932,000000	2020-11-19T14:38:41:909
952,000000	2020-11-19T14:38:42:158
964,000000	2020-11-19T14:38:42:393
1012,000000	2020-11-19T14:38:42:631
1032,000000	2020-11-19T14:38:42:872
952,000000	2020-11-19T14:38:43:296
696,000000	2020-11-19T14:38:43:351
676,000000	2020-11-19T14:38:43:589
536,000000	2020-11-19T14:38:43:972
524,000000	2020-11-19T14:38:44:182
480,000000	2020-11-19T14:38:44:310
460,000000	2020-11-19T14:38:44:871
436,000000	2020-11-19T14:38:44:877
432,000000	2020-11-19T14:38:45:098
420,000000	2020-11-19T14:38:45:274
416,000000	2020-11-19T14:38:45:556
432,000000	2020-11-19T14:38:45:751
260,000000	2020-11-19T14:38:45:992
240,000000	2020-11-19T14:38:46:515
196,000000	2020-11-19T14:38:46:520
160,000000	2020-11-19T14:38:46:714
144,000000	2020-11-19T14:38:46:957
276,000000	2020-11-19T14:38:47:194
292,000000	2020-11-19T14:38:47:435
196,000000	2020-11-19T14:38:47:674
