light_intensity	ts
2097152,000000	2020-11-19T14:35:16:406
2097152,000000	2020-11-19T14:35:16:407
2527891,000000	2020-11-19T14:35:16:447
2528399,000000	2020-11-19T14:35:16:486
2528796,000000	2020-11-19T14:35:16:526
2528827,000000	2020-11-19T14:35:16:566
2528404,000000	2020-11-19T14:35:16:607
2527704,000000	2020-11-19T14:35:16:647
2527191,000000	2020-11-19T14:35:16:686
2527300,000000	2020-11-19T14:35:16:727
2527435,000000	2020-11-19T14:35:16:767
2125398,000000	2020-11-19T14:35:16:807
2125483,000000	2020-11-19T14:35:16:847
2125097,000000	2020-11-19T14:35:16:887
2124569,000000	2020-11-19T14:35:16:927
2123973,000000	2020-11-19T14:35:16:968
2085480,000000	2020-11-19T14:35:17:007
2083656,000000	2020-11-19T14:35:17:047
2081551,000000	2020-11-19T14:35:17:089
2079153,000000	2020-11-19T14:35:17:200
2076254,000000	2020-11-19T14:35:17:200
2036668,000000	2020-11-19T14:35:17:214
2030322,000000	2020-11-19T14:35:17:258
2021301,000000	2020-11-19T14:35:17:287
2007636,000000	2020-11-19T14:35:17:327
1992899,000000	2020-11-19T14:35:17:368
2063911,000000	2020-11-19T14:35:17:408
2053269,000000	2020-11-19T14:35:17:449
2043693,000000	2020-11-19T14:35:17:488
2034916,000000	2020-11-19T14:35:17:527
2026079,000000	2020-11-19T14:35:17:580
2015643,000000	2020-11-19T14:35:17:609
2005681,000000	2020-11-19T14:35:17:656
1996226,000000	2020-11-19T14:35:17:777
1986632,000000	2020-11-19T14:35:17:778
1978096,000000	2020-11-19T14:35:17:778
1969863,000000	2020-11-19T14:35:17:808
1963182,000000	2020-11-19T14:35:17:850
1957243,000000	2020-11-19T14:35:17:890
1951414,000000	2020-11-19T14:35:17:929
1946603,000000	2020-11-19T14:35:17:969
1938034,000000	2020-11-19T14:35:18:009
1925795,000000	2020-11-19T14:35:18:050
1911539,000000	2020-11-19T14:35:18:090
1901646,000000	2020-11-19T14:35:18:129
1894714,000000	2020-11-19T14:35:18:169
1890653,000000	2020-11-19T14:35:18:209
1887952,000000	2020-11-19T14:35:18:250
1883979,000000	2020-11-19T14:35:18:290
1879330,000000	2020-11-19T14:35:18:329
1873800,000000	2020-11-19T14:35:18:370
1868485,000000	2020-11-19T14:35:18:411
1863668,000000	2020-11-19T14:35:18:451
1859700,000000	2020-11-19T14:35:18:491
1857073,000000	2020-11-19T14:35:18:530
1855680,000000	2020-11-19T14:35:18:580
1854567,000000	2020-11-19T14:35:18:617
1852211,000000	2020-11-19T14:35:18:652
1845654,000000	2020-11-19T14:35:18:691
1833531,000000	2020-11-19T14:35:18:731
1820399,000000	2020-11-19T14:35:18:771
1809724,000000	2020-11-19T14:35:18:810
1802419,000000	2020-11-19T14:35:18:851
1797977,000000	2020-11-19T14:35:18:891
1794582,000000	2020-11-19T14:35:18:930
1791115,000000	2020-11-19T14:35:18:970
1787527,000000	2020-11-19T14:35:19:011
1783207,000000	2020-11-19T14:35:19:051
1779767,000000	2020-11-19T14:35:19:091
1777877,000000	2020-11-19T14:35:19:130
1776848,000000	2020-11-19T14:35:19:171
1777513,000000	2020-11-19T14:35:19:211
1779437,000000	2020-11-19T14:35:19:251
1781781,000000	2020-11-19T14:35:19:291
1783985,000000	2020-11-19T14:35:19:331
1783945,000000	2020-11-19T14:35:19:371
1777306,000000	2020-11-19T14:35:19:416
1768385,000000	2020-11-19T14:35:19:452
1760826,000000	2020-11-19T14:35:19:522
1756384,000000	2020-11-19T14:35:19:539
1754493,000000	2020-11-19T14:35:19:574
1754709,000000	2020-11-19T14:35:19:659
1756019,000000	2020-11-19T14:35:19:660
1756594,000000	2020-11-19T14:35:19:706
1756702,000000	2020-11-19T14:35:19:732
1757203,000000	2020-11-19T14:35:19:799
1758061,000000	2020-11-19T14:35:19:811
1758809,000000	2020-11-19T14:35:19:852
1759660,000000	2020-11-19T14:35:19:893
1760628,000000	2020-11-19T14:35:19:933
1761919,000000	2020-11-19T14:35:19:974
1763289,000000	2020-11-19T14:35:20:014
1762477,000000	2020-11-19T14:35:20:054
1756309,000000	2020-11-19T14:35:20:094
1749794,000000	2020-11-19T14:35:20:133
1744957,000000	2020-11-19T14:35:20:174
1742654,000000	2020-11-19T14:35:20:214
1741317,000000	2020-11-19T14:35:20:254
1742089,000000	2020-11-19T14:35:20:294
1743454,000000	2020-11-19T14:35:20:334
1745079,000000	2020-11-19T14:35:20:374
1746623,000000	2020-11-19T14:35:20:414
1748188,000000	2020-11-19T14:35:20:455
1750186,000000	2020-11-19T14:35:20:494
1751695,000000	2020-11-19T14:35:20:535
1752229,000000	2020-11-19T14:35:20:576
1753771,000000	2020-11-19T14:35:20:615
1755604,000000	2020-11-19T14:35:20:655
1758751,000000	2020-11-19T14:35:20:695
1762142,000000	2020-11-19T14:35:20:734
1761073,000000	2020-11-19T14:35:20:774
1757595,000000	2020-11-19T14:35:20:815
1754122,000000	2020-11-19T14:35:20:855
1753175,000000	2020-11-19T14:35:20:895
1753578,000000	2020-11-19T14:35:20:935
1755619,000000	2020-11-19T14:35:20:975
1757594,000000	2020-11-19T14:35:21:015
1759938,000000	2020-11-19T14:35:21:055
1762322,000000	2020-11-19T14:35:21:095
1764969,000000	2020-11-19T14:35:21:135
1768605,000000	2020-11-19T14:35:21:175
1772732,000000	2020-11-19T14:35:21:215
1777515,000000	2020-11-19T14:35:21:256
1782199,000000	2020-11-19T14:35:21:295
1787417,000000	2020-11-19T14:35:21:336
1792517,000000	2020-11-19T14:35:21:375
1797678,000000	2020-11-19T14:35:21:427
1803747,000000	2020-11-19T14:35:21:456
1805197,000000	2020-11-19T14:35:21:496
1803179,000000	2020-11-19T14:35:21:536
1800964,000000	2020-11-19T14:35:21:586
1799916,000000	2020-11-19T14:35:21:615
1800759,000000	2020-11-19T14:35:21:656
1802395,000000	2020-11-19T14:35:21:695
1806197,000000	2020-11-19T14:35:21:736
1809834,000000	2020-11-19T14:35:21:776
1812244,000000	2020-11-19T14:35:21:816
1814240,000000	2020-11-19T14:35:21:857
1816310,000000	2020-11-19T14:35:21:896
1819144,000000	2020-11-19T14:35:21:936
1822594,000000	2020-11-19T14:35:21:976
1826622,000000	2020-11-19T14:35:22:016
1832040,000000	2020-11-19T14:35:22:057
1837998,000000	2020-11-19T14:35:22:097
1843530,000000	2020-11-19T14:35:22:137
1846809,000000	2020-11-19T14:35:22:177
1846255,000000	2020-11-19T14:35:22:217
1845016,000000	2020-11-19T14:35:22:257
1845913,000000	2020-11-19T14:35:22:297
1848727,000000	2020-11-19T14:35:22:337
1851981,000000	2020-11-19T14:35:22:377
1855632,000000	2020-11-19T14:35:22:417
1858376,000000	2020-11-19T14:35:22:456
1860116,000000	2020-11-19T14:35:22:497
1861452,000000	2020-11-19T14:35:22:536
1864180,000000	2020-11-19T14:35:22:577
1869928,000000	2020-11-19T14:35:22:617
1877063,000000	2020-11-19T14:35:22:658
1883895,000000	2020-11-19T14:35:22:697
1887138,000000	2020-11-19T14:35:22:738
1891427,000000	2020-11-19T14:35:22:778
1896231,000000	2020-11-19T14:35:22:817
1901332,000000	2020-11-19T14:35:22:857
1904340,000000	2020-11-19T14:35:22:898
1904198,000000	2020-11-19T14:35:22:937
1904307,000000	2020-11-19T14:35:22:978
1906709,000000	2020-11-19T14:35:23:017
1910437,000000	2020-11-19T14:35:23:058
1915403,000000	2020-11-19T14:35:23:099
1919424,000000	2020-11-19T14:35:23:139
1922489,000000	2020-11-19T14:35:23:177
1924032,000000	2020-11-19T14:35:23:218
1925816,000000	2020-11-19T14:35:23:258
1927284,000000	2020-11-19T14:35:23:298
1928611,000000	2020-11-19T14:35:23:338
1930865,000000	2020-11-19T14:35:23:378
1932854,000000	2020-11-19T14:35:23:417
1936213,000000	2020-11-19T14:35:23:459
1940743,000000	2020-11-19T14:35:23:497
1944907,000000	2020-11-19T14:35:23:538
1948754,000000	2020-11-19T14:35:23:578
1949613,000000	2020-11-19T14:35:23:618
1948166,000000	2020-11-19T14:35:23:658
1947657,000000	2020-11-19T14:35:23:699
1948994,000000	2020-11-19T14:35:23:738
1950681,000000	2020-11-19T14:35:23:779
1952983,000000	2020-11-19T14:35:23:818
1954895,000000	2020-11-19T14:35:23:859
1956960,000000	2020-11-19T14:35:23:898
1958638,000000	2020-11-19T14:35:23:939
1961312,000000	2020-11-19T14:35:23:978
1964139,000000	2020-11-19T14:35:24:019
1966470,000000	2020-11-19T14:35:24:059
1969734,000000	2020-11-19T14:35:24:099
1971975,000000	2020-11-19T14:35:24:138
1974451,000000	2020-11-19T14:35:24:179
1975671,000000	2020-11-19T14:35:24:218
1976610,000000	2020-11-19T14:35:24:259
1976983,000000	2020-11-19T14:35:24:299
1976545,000000	2020-11-19T14:35:24:339
1974498,000000	2020-11-19T14:35:24:379
1972946,000000	2020-11-19T14:35:24:420
1972194,000000	2020-11-19T14:35:24:459
1971212,000000	2020-11-19T14:35:24:500
1969618,000000	2020-11-19T14:35:24:539
1967706,000000	2020-11-19T14:35:24:579
1965030,000000	2020-11-19T14:35:24:619
1961780,000000	2020-11-19T14:35:24:660
1959964,000000	2020-11-19T14:35:24:699
1959917,000000	2020-11-19T14:35:24:739
1960556,000000	2020-11-19T14:35:24:779
1962516,000000	2020-11-19T14:35:24:819
1964527,000000	2020-11-19T14:35:24:860
1967078,000000	2020-11-19T14:35:24:900
1968762,000000	2020-11-19T14:35:24:939
1971595,000000	2020-11-19T14:35:24:980
1973998,000000	2020-11-19T14:35:25:019
1975636,000000	2020-11-19T14:35:25:060
1974318,000000	2020-11-19T14:35:25:099
1972056,000000	2020-11-19T14:35:25:140
1971054,000000	2020-11-19T14:35:25:179
1970936,000000	2020-11-19T14:35:25:220
1972016,000000	2020-11-19T14:35:25:260
1973789,000000	2020-11-19T14:35:25:301
1977343,000000	2020-11-19T14:35:25:339
1980835,000000	2020-11-19T14:35:25:381
1983156,000000	2020-11-19T14:35:25:420
1984748,000000	2020-11-19T14:35:25:461
1985485,000000	2020-11-19T14:35:25:500
1986473,000000	2020-11-19T14:35:25:541
1988135,000000	2020-11-19T14:35:25:580
1990478,000000	2020-11-19T14:35:25:621
1992724,000000	2020-11-19T14:35:25:660
1994834,000000	2020-11-19T14:35:25:701
1996165,000000	2020-11-19T14:35:25:740
1996836,000000	2020-11-19T14:35:25:781
1994760,000000	2020-11-19T14:35:25:820
1992567,000000	2020-11-19T14:35:25:862
1991348,000000	2020-11-19T14:35:25:900
1991865,000000	2020-11-19T14:35:25:947
1992141,000000	2020-11-19T14:35:25:980
1991964,000000	2020-11-19T14:35:26:021
1991236,000000	2020-11-19T14:35:26:061
1991535,000000	2020-11-19T14:35:26:102
1991775,000000	2020-11-19T14:35:26:140
1992587,000000	2020-11-19T14:35:26:181
1993678,000000	2020-11-19T14:35:26:221
1994908,000000	2020-11-19T14:35:26:262
1996926,000000	2020-11-19T14:35:26:301
1998929,000000	2020-11-19T14:35:26:343
2001146,000000	2020-11-19T14:35:26:382
2003087,000000	2020-11-19T14:35:26:422
2004903,000000	2020-11-19T14:35:26:461
2003166,000000	2020-11-19T14:35:26:503
1999145,000000	2020-11-19T14:35:26:540
1994651,000000	2020-11-19T14:35:26:581
1991018,000000	2020-11-19T14:35:26:621
1988407,000000	2020-11-19T14:35:26:662
1986923,000000	2020-11-19T14:35:26:701
1987176,000000	2020-11-19T14:35:26:741
1987489,000000	2020-11-19T14:35:26:781
1987598,000000	2020-11-19T14:35:26:822
1987833,000000	2020-11-19T14:35:26:861
1988263,000000	2020-11-19T14:35:26:902
1989401,000000	2020-11-19T14:35:26:941
1991651,000000	2020-11-19T14:35:26:982
1993877,000000	2020-11-19T14:35:27:021
1995454,000000	2020-11-19T14:35:27:062
1997588,000000	2020-11-19T14:35:27:101
2000644,000000	2020-11-19T14:35:27:141
2003549,000000	2020-11-19T14:35:27:181
2002808,000000	2020-11-19T14:35:27:222
2000219,000000	2020-11-19T14:35:27:262
2001601,000000	2020-11-19T14:35:27:302
2009260,000000	2020-11-19T14:35:27:341
2018375,000000	2020-11-19T14:35:27:382
2026274,000000	2020-11-19T14:35:27:421
2033432,000000	2020-11-19T14:35:27:462
2039670,000000	2020-11-19T14:35:27:501
2046020,000000	2020-11-19T14:35:27:542
2051944,000000	2020-11-19T14:35:27:582
2059614,000000	2020-11-19T14:35:27:623
2067670,000000	2020-11-19T14:35:27:662
2077052,000000	2020-11-19T14:35:27:702
2085037,000000	2020-11-19T14:35:27:741
2092259,000000	2020-11-19T14:35:27:785
2099076,000000	2020-11-19T14:35:27:822
2107370,000000	2020-11-19T14:35:27:862
2113310,000000	2020-11-19T14:35:27:902
2118224,000000	2020-11-19T14:35:27:942
2122949,000000	2020-11-19T14:35:27:982
2128513,000000	2020-11-19T14:35:28:023
2134284,000000	2020-11-19T14:35:28:062
2139592,000000	2020-11-19T14:35:28:103
2144917,000000	2020-11-19T14:35:28:142
2150824,000000	2020-11-19T14:35:28:182
2156156,000000	2020-11-19T14:35:28:222
2167443,000000	2020-11-19T14:35:28:263
2167443,000000	2020-11-19T14:35:28:301
2178372,000000	2020-11-19T14:35:28:344
2183614,000000	2020-11-19T14:35:28:383
2189857,000000	2020-11-19T14:35:28:424
2195685,000000	2020-11-19T14:35:28:464
2201565,000000	2020-11-19T14:35:28:504
2206299,000000	2020-11-19T14:35:28:542
2210188,000000	2020-11-19T14:35:28:583
2212068,000000	2020-11-19T14:35:28:623
2214308,000000	2020-11-19T14:35:28:663
2218088,000000	2020-11-19T14:35:28:702
2221937,000000	2020-11-19T14:35:28:744
2226065,000000	2020-11-19T14:35:28:782
2230732,000000	2020-11-19T14:35:28:823
2234192,000000	2020-11-19T14:35:28:862
2237647,000000	2020-11-19T14:35:28:903
2241302,000000	2020-11-19T14:35:28:942
2245162,000000	2020-11-19T14:35:28:983
2249895,000000	2020-11-19T14:35:29:022
2255754,000000	2020-11-19T14:35:29:064
2261638,000000	2020-11-19T14:35:29:102
2265545,000000	2020-11-19T14:35:29:143
2270078,000000	2020-11-19T14:35:29:182
2273921,000000	2020-11-19T14:35:29:223
2277942,000000	2020-11-19T14:35:29:263
2280423,000000	2020-11-19T14:35:29:303
2282128,000000	2020-11-19T14:35:29:343
2285259,000000	2020-11-19T14:35:29:383
2287330,000000	2020-11-19T14:35:29:422
2289527,000000	2020-11-19T14:35:29:464
2293949,000000	2020-11-19T14:35:29:503
2297938,000000	2020-11-19T14:35:29:543
2303526,000000	2020-11-19T14:35:29:583
2310738,000000	2020-11-19T14:35:29:623
2316945,000000	2020-11-19T14:35:29:663
2317686,000000	2020-11-19T14:35:29:704
2317772,000000	2020-11-19T14:35:29:743
2319500,000000	2020-11-19T14:35:29:784
2321318,000000	2020-11-19T14:35:29:824
2321303,000000	2020-11-19T14:35:29:865
2321381,000000	2020-11-19T14:35:29:903
2320577,000000	2020-11-19T14:35:29:944
2319476,000000	2020-11-19T14:35:29:983
2316110,000000	2020-11-19T14:35:30:024
2311503,000000	2020-11-19T14:35:30:064
2307364,000000	2020-11-19T14:35:30:105
2303885,000000	2020-11-19T14:35:30:144
2301817,000000	2020-11-19T14:35:30:185
2300191,000000	2020-11-19T14:35:30:223
2299591,000000	2020-11-19T14:35:30:265
2298485,000000	2020-11-19T14:35:30:304
2297461,000000	2020-11-19T14:35:30:344
2296220,000000	2020-11-19T14:35:30:384
2295490,000000	2020-11-19T14:35:30:425
2295604,000000	2020-11-19T14:35:30:464
2295371,000000	2020-11-19T14:35:30:505
2294992,000000	2020-11-19T14:35:30:544
2294876,000000	2020-11-19T14:35:30:590
2295845,000000	2020-11-19T14:35:30:624
2296066,000000	2020-11-19T14:35:30:665
2293656,000000	2020-11-19T14:35:30:704
2289857,000000	2020-11-19T14:35:30:745
2286115,000000	2020-11-19T14:35:30:784
2283742,000000	2020-11-19T14:35:30:825
2281150,000000	2020-11-19T14:35:30:865
2279740,000000	2020-11-19T14:35:30:905
2279007,000000	2020-11-19T14:35:30:944
2277790,000000	2020-11-19T14:35:30:986
2276258,000000	2020-11-19T14:35:31:024
2275316,000000	2020-11-19T14:35:31:066
2273381,000000	2020-11-19T14:35:31:104
2271069,000000	2020-11-19T14:35:31:145
2268889,000000	2020-11-19T14:35:31:185
2266508,000000	2020-11-19T14:35:31:225
2265419,000000	2020-11-19T14:35:31:265
2264358,000000	2020-11-19T14:35:31:305
2263770,000000	2020-11-19T14:35:31:345
2261617,000000	2020-11-19T14:35:31:386
2257022,000000	2020-11-19T14:35:31:425
2251393,000000	2020-11-19T14:35:31:466
2247487,000000	2020-11-19T14:35:31:505
2244720,000000	2020-11-19T14:35:31:545
2243254,000000	2020-11-19T14:35:31:585
2242722,000000	2020-11-19T14:35:31:626
2242544,000000	2020-11-19T14:35:31:665
2241658,000000	2020-11-19T14:35:31:706
2240581,000000	2020-11-19T14:35:31:745
2239848,000000	2020-11-19T14:35:31:786
2238758,000000	2020-11-19T14:35:31:825
2238093,000000	2020-11-19T14:35:31:867
2236884,000000	2020-11-19T14:35:31:905
2236976,000000	2020-11-19T14:35:31:947
2236625,000000	2020-11-19T14:35:31:985
2236630,000000	2020-11-19T14:35:32:026
2236586,000000	2020-11-19T14:35:32:066
2233742,000000	2020-11-19T14:35:32:107
2229578,000000	2020-11-19T14:35:32:145
2225260,000000	2020-11-19T14:35:32:186
2222963,000000	2020-11-19T14:35:32:226
2222290,000000	2020-11-19T14:35:32:267
2221844,000000	2020-11-19T14:35:32:305
2222076,000000	2020-11-19T14:35:32:346
2222249,000000	2020-11-19T14:35:32:385
2222659,000000	2020-11-19T14:35:32:427
2222615,000000	2020-11-19T14:35:32:466
2222626,000000	2020-11-19T14:35:32:507
2221780,000000	2020-11-19T14:35:32:546
2220980,000000	2020-11-19T14:35:32:587
2220083,000000	2020-11-19T14:35:32:626
2220257,000000	2020-11-19T14:35:32:667
2220269,000000	2020-11-19T14:35:32:706
2219557,000000	2020-11-19T14:35:32:747
2216599,000000	2020-11-19T14:35:32:788
2212180,000000	2020-11-19T14:35:32:827
2207979,000000	2020-11-19T14:35:32:866
2205280,000000	2020-11-19T14:35:32:907
2204211,000000	2020-11-19T14:35:32:947
2204367,000000	2020-11-19T14:35:32:987
2204926,000000	2020-11-19T14:35:33:026
2206686,000000	2020-11-19T14:35:33:067
2207917,000000	2020-11-19T14:35:33:106
2209315,000000	2020-11-19T14:35:33:147
2209747,000000	2020-11-19T14:35:33:187
2210158,000000	2020-11-19T14:35:33:227
2211702,000000	2020-11-19T14:35:33:266
2213168,000000	2020-11-19T14:35:33:308
2214361,000000	2020-11-19T14:35:33:347
2216709,000000	2020-11-19T14:35:33:387
2218942,000000	2020-11-19T14:35:33:427
2220068,000000	2020-11-19T14:35:33:468
2217932,000000	2020-11-19T14:35:33:507
2215808,000000	2020-11-19T14:35:33:548
2214725,000000	2020-11-19T14:35:33:591
2214149,000000	2020-11-19T14:35:33:627
2214250,000000	2020-11-19T14:35:33:667
2215470,000000	2020-11-19T14:35:33:707
2216875,000000	2020-11-19T14:35:33:747
2218372,000000	2020-11-19T14:35:33:788
2218672,000000	2020-11-19T14:35:33:827
2218625,000000	2020-11-19T14:35:33:868
2218480,000000	2020-11-19T14:35:33:907
2218960,000000	2020-11-19T14:35:33:948
2219409,000000	2020-11-19T14:35:33:987
2219337,000000	2020-11-19T14:35:34:030
2219263,000000	2020-11-19T14:35:34:068
2216921,000000	2020-11-19T14:35:34:109
2214680,000000	2020-11-19T14:35:34:148
2212230,000000	2020-11-19T14:35:34:188
2211754,000000	2020-11-19T14:35:34:227
2211384,000000	2020-11-19T14:35:34:269
2211990,000000	2020-11-19T14:35:34:307
2213360,000000	2020-11-19T14:35:34:348
2214595,000000	2020-11-19T14:35:34:388
2216313,000000	2020-11-19T14:35:34:429
2217087,000000	2020-11-19T14:35:34:468
2217425,000000	2020-11-19T14:35:34:509
2219051,000000	2020-11-19T14:35:34:548
2220736,000000	2020-11-19T14:35:34:589
2223461,000000	2020-11-19T14:35:34:628
2225804,000000	2020-11-19T14:35:34:669
2228238,000000	2020-11-19T14:35:34:708
2229024,000000	2020-11-19T14:35:34:749
2228191,000000	2020-11-19T14:35:34:788
2227224,000000	2020-11-19T14:35:34:829
2226378,000000	2020-11-19T14:35:34:869
2226566,000000	2020-11-19T14:35:34:909
2228523,000000	2020-11-19T14:35:34:948
2230680,000000	2020-11-19T14:35:34:989
2233550,000000	2020-11-19T14:35:35:028
2235438,000000	2020-11-19T14:35:35:070
2237088,000000	2020-11-19T14:35:35:109
2238744,000000	2020-11-19T14:35:35:149
2239310,000000	2020-11-19T14:35:35:188
2240820,000000	2020-11-19T14:35:35:229
2242342,000000	2020-11-19T14:35:35:269
2243815,000000	2020-11-19T14:35:35:309
2245023,000000	2020-11-19T14:35:35:349
2245003,000000	2020-11-19T14:35:35:389
2244259,000000	2020-11-19T14:35:35:429
2243773,000000	2020-11-19T14:35:35:470
2243873,000000	2020-11-19T14:35:35:509
2244713,000000	2020-11-19T14:35:35:550
2245615,000000	2020-11-19T14:35:35:591
2247780,000000	2020-11-19T14:35:35:629
2249512,000000	2020-11-19T14:35:35:669
2251346,000000	2020-11-19T14:35:35:710
2252770,000000	2020-11-19T14:35:35:749
2253928,000000	2020-11-19T14:35:35:790
2255287,000000	2020-11-19T14:35:35:829
2257054,000000	2020-11-19T14:35:35:870
2259271,000000	2020-11-19T14:35:35:910
2260944,000000	2020-11-19T14:35:35:950
2262265,000000	2020-11-19T14:35:35:989
2261487,000000	2020-11-19T14:35:36:030
2260006,000000	2020-11-19T14:35:36:069
2259346,000000	2020-11-19T14:35:36:110
2259133,000000	2020-11-19T14:35:36:149
2260189,000000	2020-11-19T14:35:36:190
2261356,000000	2020-11-19T14:35:36:230
2263111,000000	2020-11-19T14:35:36:271
2264205,000000	2020-11-19T14:35:36:310
2265440,000000	2020-11-19T14:35:36:351
2266533,000000	2020-11-19T14:35:36:390
2267672,000000	2020-11-19T14:35:36:431
2269278,000000	2020-11-19T14:35:36:470
2270401,000000	2020-11-19T14:35:36:511
2271478,000000	2020-11-19T14:35:36:550
2272337,000000	2020-11-19T14:35:36:591
2271668,000000	2020-11-19T14:35:36:630
2269742,000000	2020-11-19T14:35:36:671
2266841,000000	2020-11-19T14:35:36:710
2265285,000000	2020-11-19T14:35:36:751
2265310,000000	2020-11-19T14:35:36:790
2265358,000000	2020-11-19T14:35:36:831
2267160,000000	2020-11-19T14:35:36:871
2268189,000000	2020-11-19T14:35:36:911
2268873,000000	2020-11-19T14:35:36:950
2268325,000000	2020-11-19T14:35:36:991
2268472,000000	2020-11-19T14:35:37:031
2268645,000000	2020-11-19T14:35:37:072
2269896,000000	2020-11-19T14:35:37:110
2272828,000000	2020-11-19T14:35:37:151
2274931,000000	2020-11-19T14:35:37:190
2276492,000000	2020-11-19T14:35:37:231
2275601,000000	2020-11-19T14:35:37:271
2274789,000000	2020-11-19T14:35:37:311
2273983,000000	2020-11-19T14:35:37:351
2273125,000000	2020-11-19T14:35:37:392
2273302,000000	2020-11-19T14:35:37:431
2275280,000000	2020-11-19T14:35:37:472
2277531,000000	2020-11-19T14:35:37:511
2280090,000000	2020-11-19T14:35:37:552
2282487,000000	2020-11-19T14:35:37:591
2284514,000000	2020-11-19T14:35:37:632
2286526,000000	2020-11-19T14:35:37:671
2289510,000000	2020-11-19T14:35:37:712
2292548,000000	2020-11-19T14:35:37:751
2294483,000000	2020-11-19T14:35:37:793
2297004,000000	2020-11-19T14:35:37:831
2297694,000000	2020-11-19T14:35:37:872
2298046,000000	2020-11-19T14:35:37:911
2298436,000000	2020-11-19T14:35:37:952
2298962,000000	2020-11-19T14:35:37:991
2298539,000000	2020-11-19T14:35:38:032
2299016,000000	2020-11-19T14:35:38:073
2299802,000000	2020-11-19T14:35:38:172
2300877,000000	2020-11-19T14:35:38:175
2301851,000000	2020-11-19T14:35:38:337
2302635,000000	2020-11-19T14:35:38:338
2302316,000000	2020-11-19T14:35:38:339
2303119,000000	2020-11-19T14:35:38:343
2303426,000000	2020-11-19T14:35:38:355
2303946,000000	2020-11-19T14:35:38:389
2305260,000000	2020-11-19T14:35:38:430
2304057,000000	2020-11-19T14:35:38:472
2302176,000000	2020-11-19T14:35:38:512
2301438,000000	2020-11-19T14:35:38:552
2300913,000000	2020-11-19T14:35:38:592
2301445,000000	2020-11-19T14:35:38:643
2302223,000000	2020-11-19T14:35:38:674
2303986,000000	2020-11-19T14:35:38:710
2305569,000000	2020-11-19T14:35:38:752
2306219,000000	2020-11-19T14:35:38:792
2306580,000000	2020-11-19T14:35:38:833
2306378,000000	2020-11-19T14:35:38:872
2305683,000000	2020-11-19T14:35:38:913
2305295,000000	2020-11-19T14:35:38:953
2304848,000000	2020-11-19T14:35:38:993
2304420,000000	2020-11-19T14:35:39:032
2302263,000000	2020-11-19T14:35:39:073
2299910,000000	2020-11-19T14:35:39:112
2297648,000000	2020-11-19T14:35:39:153
2295933,000000	2020-11-19T14:35:39:192
2295997,000000	2020-11-19T14:35:39:233
2296249,000000	2020-11-19T14:35:39:273
2296342,000000	2020-11-19T14:35:39:313
2296088,000000	2020-11-19T14:35:39:353
2295494,000000	2020-11-19T14:35:39:393
2295813,000000	2020-11-19T14:35:39:433
2295658,000000	2020-11-19T14:35:39:473
2295536,000000	2020-11-19T14:35:39:512
2295841,000000	2020-11-19T14:35:39:554
2295782,000000	2020-11-19T14:35:39:592
2295889,000000	2020-11-19T14:35:39:633
2294119,000000	2020-11-19T14:35:39:673
2291081,000000	2020-11-19T14:35:39:713
2287826,000000	2020-11-19T14:35:39:752
2285925,000000	2020-11-19T14:35:39:794
2285126,000000	2020-11-19T14:35:39:833
2285045,000000	2020-11-19T14:35:39:874
2286102,000000	2020-11-19T14:35:39:914
2286056,000000	2020-11-19T14:35:39:954
2286710,000000	2020-11-19T14:35:39:993
2287559,000000	2020-11-19T14:35:40:034
2287941,000000	2020-11-19T14:35:40:073
2288191,000000	2020-11-19T14:35:40:114
2288354,000000	2020-11-19T14:35:40:153
2287913,000000	2020-11-19T14:35:40:194
2288579,000000	2020-11-19T14:35:40:233
2286625,000000	2020-11-19T14:35:40:274
2283701,000000	2020-11-19T14:35:40:313
2281250,000000	2020-11-19T14:35:40:354
2279526,000000	2020-11-19T14:35:40:394
2279044,000000	2020-11-19T14:35:40:434
2279334,000000	2020-11-19T14:35:40:473
2280119,000000	2020-11-19T14:35:40:515
2280871,000000	2020-11-19T14:35:40:554
2280656,000000	2020-11-19T14:35:40:596
2279668,000000	2020-11-19T14:35:40:635
2279771,000000	2020-11-19T14:35:40:675
2279629,000000	2020-11-19T14:35:40:714
2280014,000000	2020-11-19T14:35:40:755
2280148,000000	2020-11-19T14:35:40:794
2280116,000000	2020-11-19T14:35:40:835
2278822,000000	2020-11-19T14:35:40:874
2275105,000000	2020-11-19T14:35:40:915
2271737,000000	2020-11-19T14:35:40:953
2269085,000000	2020-11-19T14:35:40:995
2268236,000000	2020-11-19T14:35:41:034
2267954,000000	2020-11-19T14:35:41:075
2267948,000000	2020-11-19T14:35:41:114
2268369,000000	2020-11-19T14:35:41:155
2268035,000000	2020-11-19T14:35:41:194
2267989,000000	2020-11-19T14:35:41:235
2268448,000000	2020-11-19T14:35:41:274
2267877,000000	2020-11-19T14:35:41:315
2267403,000000	2020-11-19T14:35:41:355
2266479,000000	2020-11-19T14:35:41:395
2266146,000000	2020-11-19T14:35:41:434
2265337,000000	2020-11-19T14:35:41:478
2262756,000000	2020-11-19T14:35:41:514
2257878,000000	2020-11-19T14:35:41:555
2253257,000000	2020-11-19T14:35:41:595
2249437,000000	2020-11-19T14:35:41:635
2247403,000000	2020-11-19T14:35:41:675
2246531,000000	2020-11-19T14:35:41:716
2246284,000000	2020-11-19T14:35:41:755
2245445,000000	2020-11-19T14:35:41:796
2245576,000000	2020-11-19T14:35:41:835
2244320,000000	2020-11-19T14:35:41:876
2242570,000000	2020-11-19T14:35:41:915
2240751,000000	2020-11-19T14:35:41:956
2240016,000000	2020-11-19T14:35:41:995
2239234,000000	2020-11-19T14:35:42:036
2238964,000000	2020-11-19T14:35:42:076
2238833,000000	2020-11-19T14:35:42:116
2236277,000000	2020-11-19T14:35:42:155
2231968,000000	2020-11-19T14:35:42:196
2228047,000000	2020-11-19T14:35:42:235
2224442,000000	2020-11-19T14:35:42:276
2222683,000000	2020-11-19T14:35:42:316
2221500,000000	2020-11-19T14:35:42:356
2220763,000000	2020-11-19T14:35:42:395
2220132,000000	2020-11-19T14:35:42:436
2220189,000000	2020-11-19T14:35:42:475
2220011,000000	2020-11-19T14:35:42:515
2219235,000000	2020-11-19T14:35:42:556
2219535,000000	2020-11-19T14:35:42:595
2221446,000000	2020-11-19T14:35:42:635
2221848,000000	2020-11-19T14:35:42:676
2222606,000000	2020-11-19T14:35:42:715
2222691,000000	2020-11-19T14:35:42:756
2222827,000000	2020-11-19T14:35:42:796
2223432,000000	2020-11-19T14:35:42:836
2223010,000000	2020-11-19T14:35:42:876
2221120,000000	2020-11-19T14:35:42:916
2217877,000000	2020-11-19T14:35:42:955
2215211,000000	2020-11-19T14:35:42:995
2213203,000000	2020-11-19T14:35:43:036
2211834,000000	2020-11-19T14:35:43:077
2210963,000000	2020-11-19T14:35:43:116
2210463,000000	2020-11-19T14:35:43:167
2209582,000000	2020-11-19T14:35:43:196
2208838,000000	2020-11-19T14:35:43:236
2208175,000000	2020-11-19T14:35:43:277
2207619,000000	2020-11-19T14:35:43:316
2207218,000000	2020-11-19T14:35:43:355
2207473,000000	2020-11-19T14:35:43:396
2207421,000000	2020-11-19T14:35:43:436
2207797,000000	2020-11-19T14:35:43:477
2208394,000000	2020-11-19T14:35:43:517
2209466,000000	2020-11-19T14:35:43:557
2211417,000000	2020-11-19T14:35:43:596
2212050,000000	2020-11-19T14:35:43:637
2211749,000000	2020-11-19T14:35:43:677
2211385,000000	2020-11-19T14:35:43:717
2211548,000000	2020-11-19T14:35:43:757
2210782,000000	2020-11-19T14:35:43:797
2210975,000000	2020-11-19T14:35:43:837
2211144,000000	2020-11-19T14:35:43:877
2211602,000000	2020-11-19T14:35:43:917
2212717,000000	2020-11-19T14:35:43:957
2213452,000000	2020-11-19T14:35:43:997
2214623,000000	2020-11-19T14:35:44:037
2214774,000000	2020-11-19T14:35:44:077
2214974,000000	2020-11-19T14:35:44:117
2214543,000000	2020-11-19T14:35:44:157
2214414,000000	2020-11-19T14:35:44:197
2214417,000000	2020-11-19T14:35:44:237
2214966,000000	2020-11-19T14:35:44:277
2214724,000000	2020-11-19T14:35:44:317
2213660,000000	2020-11-19T14:35:44:357
2211860,000000	2020-11-19T14:35:44:397
2211596,000000	2020-11-19T14:35:44:438
2211730,000000	2020-11-19T14:35:44:478
2211779,000000	2020-11-19T14:35:44:517
2212155,000000	2020-11-19T14:35:44:557
2212504,000000	2020-11-19T14:35:44:597
2212390,000000	2020-11-19T14:35:44:637
2213598,000000	2020-11-19T14:35:44:678
2214018,000000	2020-11-19T14:35:44:717
2214454,000000	2020-11-19T14:35:44:758
2213904,000000	2020-11-19T14:35:44:797
2214002,000000	2020-11-19T14:35:44:838
2214222,000000	2020-11-19T14:35:44:878
2214839,000000	2020-11-19T14:35:44:918
2215630,000000	2020-11-19T14:35:44:958
2216163,000000	2020-11-19T14:35:44:998
2214998,000000	2020-11-19T14:35:45:038
2213950,000000	2020-11-19T14:35:45:079
2213813,000000	2020-11-19T14:35:45:118
2214879,000000	2020-11-19T14:35:45:158
2218401,000000	2020-11-19T14:35:45:198
2221350,000000	2020-11-19T14:35:45:238
2223020,000000	2020-11-19T14:35:45:278
2224709,000000	2020-11-19T14:35:45:318
2224365,000000	2020-11-19T14:35:45:357
2224559,000000	2020-11-19T14:35:45:398
2224904,000000	2020-11-19T14:35:45:438
2224355,000000	2020-11-19T14:35:45:479
2224227,000000	2020-11-19T14:35:45:518
2224165,000000	2020-11-19T14:35:45:558
2223665,000000	2020-11-19T14:35:45:599
2223988,000000	2020-11-19T14:35:45:639
2223560,000000	2020-11-19T14:35:45:679
2221449,000000	2020-11-19T14:35:45:719
2219986,000000	2020-11-19T14:35:45:758
2219242,000000	2020-11-19T14:35:45:799
2219226,000000	2020-11-19T14:35:45:839
2219565,000000	2020-11-19T14:35:45:879
2219814,000000	2020-11-19T14:35:45:919
2219771,000000	2020-11-19T14:35:45:959
2218784,000000	2020-11-19T14:35:45:999
2217530,000000	2020-11-19T14:35:46:039
2215787,000000	2020-11-19T14:35:46:079
2214940,000000	2020-11-19T14:35:46:119
2214554,000000	2020-11-19T14:35:46:159
2213796,000000	2020-11-19T14:35:46:199
2213609,000000	2020-11-19T14:35:46:239
2212672,000000	2020-11-19T14:35:46:279
2210824,000000	2020-11-19T14:35:46:319
2208729,000000	2020-11-19T14:35:46:360
2208417,000000	2020-11-19T14:35:46:399
2208272,000000	2020-11-19T14:35:46:439
2209035,000000	2020-11-19T14:35:46:480
2209835,000000	2020-11-19T14:35:46:521
2208714,000000	2020-11-19T14:35:46:559
2207606,000000	2020-11-19T14:35:46:599
2206462,000000	2020-11-19T14:35:46:640
2206182,000000	2020-11-19T14:35:46:680
2206019,000000	2020-11-19T14:35:46:719
2205982,000000	2020-11-19T14:35:46:760
2206044,000000	2020-11-19T14:35:46:799
2205106,000000	2020-11-19T14:35:46:840
2204977,000000	2020-11-19T14:35:46:880
2202988,000000	2020-11-19T14:35:46:920
2200595,000000	2020-11-19T14:35:46:959
2199655,000000	2020-11-19T14:35:47:000
2199453,000000	2020-11-19T14:35:47:039
2199861,000000	2020-11-19T14:35:47:080
2200417,000000	2020-11-19T14:35:47:120
2202279,000000	2020-11-19T14:35:47:159
2205100,000000	2020-11-19T14:35:47:199
2208453,000000	2020-11-19T14:35:47:240
2214079,000000	2020-11-19T14:35:47:281
2215252,000000	2020-11-19T14:35:47:321
2214780,000000	2020-11-19T14:35:47:361
2213391,000000	2020-11-19T14:35:47:401
2212661,000000	2020-11-19T14:35:47:441
2211377,000000	2020-11-19T14:35:47:481
2209248,000000	2020-11-19T14:35:47:520
2207643,000000	2020-11-19T14:35:47:561
2206769,000000	2020-11-19T14:35:47:601
2207818,000000	2020-11-19T14:35:47:640
2210074,000000	2020-11-19T14:35:47:680
2212907,000000	2020-11-19T14:35:47:720
2215605,000000	2020-11-19T14:35:47:761
2218507,000000	2020-11-19T14:35:47:800
2221022,000000	2020-11-19T14:35:47:840
2223662,000000	2020-11-19T14:35:47:881
2225703,000000	2020-11-19T14:35:47:920
2226466,000000	2020-11-19T14:35:47:961
2227174,000000	2020-11-19T14:35:48:000
2228019,000000	2020-11-19T14:35:48:040
2226720,000000	2020-11-19T14:35:48:081
2224016,000000	2020-11-19T14:35:48:121
2221217,000000	2020-11-19T14:35:48:160
2218273,000000	2020-11-19T14:35:48:200
2216155,000000	2020-11-19T14:35:48:241
2213929,000000	2020-11-19T14:35:48:281
2212532,000000	2020-11-19T14:35:48:320
2211165,000000	2020-11-19T14:35:48:361
2209757,000000	2020-11-19T14:35:48:400
2209501,000000	2020-11-19T14:35:48:441
2208906,000000	2020-11-19T14:35:48:482
2208045,000000	2020-11-19T14:35:48:521
2207801,000000	2020-11-19T14:35:48:561
2207565,000000	2020-11-19T14:35:48:602
2207308,000000	2020-11-19T14:35:48:642
2206799,000000	2020-11-19T14:35:48:682
2205152,000000	2020-11-19T14:35:48:721
2202878,000000	2020-11-19T14:35:48:762
2200951,000000	2020-11-19T14:35:48:802
2198882,000000	2020-11-19T14:35:48:842
2196754,000000	2020-11-19T14:35:48:882
2196094,000000	2020-11-19T14:35:48:922
2195099,000000	2020-11-19T14:35:48:962
2193820,000000	2020-11-19T14:35:49:002
2192805,000000	2020-11-19T14:35:49:042
2192426,000000	2020-11-19T14:35:49:083
2192504,000000	2020-11-19T14:35:49:123
2193827,000000	2020-11-19T14:35:49:162
2196422,000000	2020-11-19T14:35:49:202
2200327,000000	2020-11-19T14:35:49:242
2202610,000000	2020-11-19T14:35:49:283
2202584,000000	2020-11-19T14:35:49:322
2201583,000000	2020-11-19T14:35:49:362
2200210,000000	2020-11-19T14:35:49:403
2199056,000000	2020-11-19T14:35:49:442
2198294,000000	2020-11-19T14:35:49:483
2196727,000000	2020-11-19T14:35:49:523
2195626,000000	2020-11-19T14:35:49:563
2194398,000000	2020-11-19T14:35:49:602
2193584,000000	2020-11-19T14:35:49:643
2191720,000000	2020-11-19T14:35:49:683
2191196,000000	2020-11-19T14:35:49:723
2190307,000000	2020-11-19T14:35:49:763
2189035,000000	2020-11-19T14:35:49:803
2190359,000000	2020-11-19T14:35:49:843
2194492,000000	2020-11-19T14:35:49:883
2197782,000000	2020-11-19T14:35:49:923
2198866,000000	2020-11-19T14:35:49:963
2200718,000000	2020-11-19T14:35:50:003
2203177,000000	2020-11-19T14:35:50:043
2219776,000000	2020-11-19T14:35:50:083
2222258,000000	2020-11-19T14:35:50:124
2231612,000000	2020-11-19T14:35:50:163
2237969,000000	2020-11-19T14:35:50:204
2245058,000000	2020-11-19T14:35:50:251
2253499,000000	2020-11-19T14:35:50:283
2262108,000000	2020-11-19T14:35:50:323
2269783,000000	2020-11-19T14:35:50:363
2276181,000000	2020-11-19T14:35:50:403
2282114,000000	2020-11-19T14:35:50:443
2285208,000000	2020-11-19T14:35:50:484
2283048,000000	2020-11-19T14:35:50:523
2277048,000000	2020-11-19T14:35:50:563
2271733,000000	2020-11-19T14:35:50:611
2271080,000000	2020-11-19T14:35:50:643
2274363,000000	2020-11-19T14:35:50:684
2278202,000000	2020-11-19T14:35:50:723
2282559,000000	2020-11-19T14:35:50:764
2287086,000000	2020-11-19T14:35:50:804
2290086,000000	2020-11-19T14:35:50:844
2292228,000000	2020-11-19T14:35:50:884
2295173,000000	2020-11-19T14:35:50:924
2297728,000000	2020-11-19T14:35:50:964
2300496,000000	2020-11-19T14:35:51:004
2304043,000000	2020-11-19T14:35:51:044
2308149,000000	2020-11-19T14:35:51:085
2307962,000000	2020-11-19T14:35:51:124
2306405,000000	2020-11-19T14:35:51:164
2305852,000000	2020-11-19T14:35:51:204
2307500,000000	2020-11-19T14:35:51:245
2309202,000000	2020-11-19T14:35:51:285
2311591,000000	2020-11-19T14:35:51:324
2314715,000000	2020-11-19T14:35:51:365
2318542,000000	2020-11-19T14:35:51:405
2322544,000000	2020-11-19T14:35:51:445
2325021,000000	2020-11-19T14:35:51:485
2328240,000000	2020-11-19T14:35:51:524
2333098,000000	2020-11-19T14:35:51:564
2337319,000000	2020-11-19T14:35:51:604
2342455,000000	2020-11-19T14:35:51:645
2347299,000000	2020-11-19T14:35:51:685
2351411,000000	2020-11-19T14:35:51:725
2352272,000000	2020-11-19T14:35:51:765
2352003,000000	2020-11-19T14:35:51:804
2351419,000000	2020-11-19T14:35:51:845
2353983,000000	2020-11-19T14:35:51:885
2358315,000000	2020-11-19T14:35:51:925
2360562,000000	2020-11-19T14:35:51:965
2363201,000000	2020-11-19T14:35:52:005
2365912,000000	2020-11-19T14:35:52:045
2369289,000000	2020-11-19T14:35:52:085
2372781,000000	2020-11-19T14:35:52:125
2375698,000000	2020-11-19T14:35:52:165
2379349,000000	2020-11-19T14:35:52:205
2382011,000000	2020-11-19T14:35:52:245
2387962,000000	2020-11-19T14:35:52:286
2393314,000000	2020-11-19T14:35:52:325
2396540,000000	2020-11-19T14:35:52:366
2399390,000000	2020-11-19T14:35:52:405
2402499,000000	2020-11-19T14:35:52:445
2404505,000000	2020-11-19T14:35:52:486
2406750,000000	2020-11-19T14:35:52:525
2409441,000000	2020-11-19T14:35:52:565
2413049,000000	2020-11-19T14:35:52:605
2417375,000000	2020-11-19T14:35:52:645
2421309,000000	2020-11-19T14:35:52:686
2421775,000000	2020-11-19T14:35:52:725
2421630,000000	2020-11-19T14:35:52:766
2421268,000000	2020-11-19T14:35:52:805
2420835,000000	2020-11-19T14:35:52:846
2420862,000000	2020-11-19T14:35:52:886
2421724,000000	2020-11-19T14:35:52:926
2422254,000000	2020-11-19T14:35:52:965
2421649,000000	2020-11-19T14:35:53:006
2419251,000000	2020-11-19T14:35:53:046
2417197,000000	2020-11-19T14:35:53:086
2415675,000000	2020-11-19T14:35:53:126
2414811,000000	2020-11-19T14:35:53:166
2414128,000000	2020-11-19T14:35:53:206
2413323,000000	2020-11-19T14:35:53:246
2412984,000000	2020-11-19T14:35:53:286
2411460,000000	2020-11-19T14:35:53:326
2410446,000000	2020-11-19T14:35:53:366
2409582,000000	2020-11-19T14:35:53:406
2408471,000000	2020-11-19T14:35:53:446
2407960,000000	2020-11-19T14:35:53:487
2407184,000000	2020-11-19T14:35:53:526
2407442,000000	2020-11-19T14:35:53:566
2406065,000000	2020-11-19T14:35:53:607
2402802,000000	2020-11-19T14:35:53:647
2398064,000000	2020-11-19T14:35:53:687
2394552,000000	2020-11-19T14:35:53:727
2391032,000000	2020-11-19T14:35:53:766
2388362,000000	2020-11-19T14:35:53:807
2387277,000000	2020-11-19T14:35:53:847
2386872,000000	2020-11-19T14:35:53:887
2385969,000000	2020-11-19T14:35:53:927
2385532,000000	2020-11-19T14:35:53:967
2384831,000000	2020-11-19T14:35:54:007
2383991,000000	2020-11-19T14:35:54:047
2383101,000000	2020-11-19T14:35:54:087
2382998,000000	2020-11-19T14:35:54:127
2382444,000000	2020-11-19T14:35:54:166
2381524,000000	2020-11-19T14:35:54:207
2377828,000000	2020-11-19T14:35:54:247
2372909,000000	2020-11-19T14:35:54:288
2367891,000000	2020-11-19T14:35:54:327
2364380,000000	2020-11-19T14:35:54:367
2361514,000000	2020-11-19T14:35:54:407
2358077,000000	2020-11-19T14:35:54:447
2356499,000000	2020-11-19T14:35:54:498
2355142,000000	2020-11-19T14:35:54:527
2352923,000000	2020-11-19T14:35:54:567
2350097,000000	2020-11-19T14:35:54:607
2347352,000000	2020-11-19T14:35:54:647
2345540,000000	2020-11-19T14:35:54:688
2344452,000000	2020-11-19T14:35:54:728
2343323,000000	2020-11-19T14:35:54:767
2343386,000000	2020-11-19T14:35:54:808
2342661,000000	2020-11-19T14:35:54:848
2338769,000000	2020-11-19T14:35:54:888
2333384,000000	2020-11-19T14:35:54:928
2328113,000000	2020-11-19T14:35:54:968
2324181,000000	2020-11-19T14:35:55:008
2321926,000000	2020-11-19T14:35:55:048
2320742,000000	2020-11-19T14:35:55:089
2319911,000000	2020-11-19T14:35:55:128
2319731,000000	2020-11-19T14:35:55:168
2319857,000000	2020-11-19T14:35:55:208
2320292,000000	2020-11-19T14:35:55:248
2321351,000000	2020-11-19T14:35:55:289
2322173,000000	2020-11-19T14:35:55:328
2322993,000000	2020-11-19T14:35:55:368
2323882,000000	2020-11-19T14:35:55:409
2325574,000000	2020-11-19T14:35:55:448
2324753,000000	2020-11-19T14:35:55:489
2321184,000000	2020-11-19T14:35:55:529
2317020,000000	2020-11-19T14:35:55:568
2313880,000000	2020-11-19T14:35:55:611
2311787,000000	2020-11-19T14:35:55:649
2309842,000000	2020-11-19T14:35:55:690
2308088,000000	2020-11-19T14:35:55:729
2307588,000000	2020-11-19T14:35:55:770
2307162,000000	2020-11-19T14:35:55:809
2305330,000000	2020-11-19T14:35:55:850
2303525,000000	2020-11-19T14:35:55:889
2301752,000000	2020-11-19T14:35:55:930
2300853,000000	2020-11-19T14:35:55:969
2300973,000000	2020-11-19T14:35:56:010
2301695,000000	2020-11-19T14:35:56:049
2302055,000000	2020-11-19T14:35:56:091
2299960,000000	2020-11-19T14:35:56:130
2295873,000000	2020-11-19T14:35:56:170
2291940,000000	2020-11-19T14:35:56:209
2289752,000000	2020-11-19T14:35:56:251
2289044,000000	2020-11-19T14:35:56:290
2288388,000000	2020-11-19T14:35:56:330
2288656,000000	2020-11-19T14:35:56:371
2289554,000000	2020-11-19T14:35:56:412
2289982,000000	2020-11-19T14:35:56:450
2291251,000000	2020-11-19T14:35:56:491
2292901,000000	2020-11-19T14:35:56:530
2294978,000000	2020-11-19T14:35:56:570
2295201,000000	2020-11-19T14:35:56:610
2295514,000000	2020-11-19T14:35:56:651
2296904,000000	2020-11-19T14:35:56:690
2298508,000000	2020-11-19T14:35:56:731
2298626,000000	2020-11-19T14:35:56:770
2297999,000000	2020-11-19T14:35:56:811
2297573,000000	2020-11-19T14:35:56:850
2297237,000000	2020-11-19T14:35:56:891
2298061,000000	2020-11-19T14:35:56:930
2299568,000000	2020-11-19T14:35:56:971
2303454,000000	2020-11-19T14:35:57:010
2306800,000000	2020-11-19T14:35:57:051
2308599,000000	2020-11-19T14:35:57:091
2311037,000000	2020-11-19T14:35:57:131
2311373,000000	2020-11-19T14:35:57:170
2308661,000000	2020-11-19T14:35:57:211
2305740,000000	2020-11-19T14:35:57:250
2303055,000000	2020-11-19T14:35:57:292
2301634,000000	2020-11-19T14:35:57:330
2300185,000000	2020-11-19T14:35:57:371
2296910,000000	2020-11-19T14:35:57:410
2292589,000000	2020-11-19T14:35:57:451
2289577,000000	2020-11-19T14:35:57:491
2287097,000000	2020-11-19T14:35:57:531
2286882,000000	2020-11-19T14:35:57:571
2286379,000000	2020-11-19T14:35:57:611
2287374,000000	2020-11-19T14:35:57:651
2289501,000000	2020-11-19T14:35:57:692
2291372,000000	2020-11-19T14:35:57:731
2291820,000000	2020-11-19T14:35:57:772
2291615,000000	2020-11-19T14:35:57:811
2292515,000000	2020-11-19T14:35:57:852
2293163,000000	2020-11-19T14:35:57:892
2293881,000000	2020-11-19T14:35:57:932
2294564,000000	2020-11-19T14:35:57:971
2293714,000000	2020-11-19T14:35:58:012
2292705,000000	2020-11-19T14:35:58:051
2291925,000000	2020-11-19T14:35:58:092
2293155,000000	2020-11-19T14:35:58:130
2293616,000000	2020-11-19T14:35:58:172
2294839,000000	2020-11-19T14:35:58:211
2296064,000000	2020-11-19T14:35:58:252
2297372,000000	2020-11-19T14:35:58:291
2298576,000000	2020-11-19T14:35:58:331
2299722,000000	2020-11-19T14:35:58:370
2301219,000000	2020-11-19T14:35:58:412
2302489,000000	2020-11-19T14:35:58:451
2303922,000000	2020-11-19T14:35:58:492
2305695,000000	2020-11-19T14:35:58:531
2307067,000000	2020-11-19T14:35:58:573
2307397,000000	2020-11-19T14:35:58:611
2307470,000000	2020-11-19T14:35:58:653
2308321,000000	2020-11-19T14:35:58:692
2308412,000000	2020-11-19T14:35:58:732
2309963,000000	2020-11-19T14:35:58:772
2311364,000000	2020-11-19T14:35:58:812
2314329,000000	2020-11-19T14:35:58:851
2316897,000000	2020-11-19T14:35:58:893
2319171,000000	2020-11-19T14:35:58:931
2321054,000000	2020-11-19T14:35:58:973
2323015,000000	2020-11-19T14:35:59:012
2324662,000000	2020-11-19T14:35:59:053
2326217,000000	2020-11-19T14:35:59:092
2328177,000000	2020-11-19T14:35:59:133
2328895,000000	2020-11-19T14:35:59:171
2328671,000000	2020-11-19T14:35:59:213
2327777,000000	2020-11-19T14:35:59:252
2327346,000000	2020-11-19T14:35:59:293
2328100,000000	2020-11-19T14:35:59:332
2329173,000000	2020-11-19T14:35:59:373
2331281,000000	2020-11-19T14:35:59:412
2334566,000000	2020-11-19T14:35:59:453
2337728,000000	2020-11-19T14:35:59:492
2340261,000000	2020-11-19T14:35:59:533
2342144,000000	2020-11-19T14:35:59:573
2343939,000000	2020-11-19T14:35:59:613
2345334,000000	2020-11-19T14:35:59:652
2346864,000000	2020-11-19T14:35:59:693
2347598,000000	2020-11-19T14:35:59:733
2346434,000000	2020-11-19T14:35:59:773
2344441,000000	2020-11-19T14:35:59:812
2343303,000000	2020-11-19T14:35:59:854
2343809,000000	2020-11-19T14:35:59:893
2344150,000000	2020-11-19T14:35:59:933
2345241,000000	2020-11-19T14:35:59:973
2346027,000000	2020-11-19T14:36:00:013
2346314,000000	2020-11-19T14:36:00:053
2346912,000000	2020-11-19T14:36:00:094
2347404,000000	2020-11-19T14:36:00:133
2348970,000000	2020-11-19T14:36:00:174
2349104,000000	2020-11-19T14:36:00:213
2349497,000000	2020-11-19T14:36:00:254
2349650,000000	2020-11-19T14:36:00:293
2348629,000000	2020-11-19T14:36:00:334
2346208,000000	2020-11-19T14:36:00:373
2343689,000000	2020-11-19T14:36:00:414
2342198,000000	2020-11-19T14:36:00:453
2341808,000000	2020-11-19T14:36:00:494
2341517,000000	2020-11-19T14:36:00:533
2342505,000000	2020-11-19T14:36:00:575
2343121,000000	2020-11-19T14:36:00:614
2343014,000000	2020-11-19T14:36:00:654
2343062,000000	2020-11-19T14:36:00:694
2342913,000000	2020-11-19T14:36:00:734
2342354,000000	2020-11-19T14:36:00:773
2342289,000000	2020-11-19T14:36:00:814
2343442,000000	2020-11-19T14:36:00:853
2344083,000000	2020-11-19T14:36:00:895
2343442,000000	2020-11-19T14:36:00:933
2340900,000000	2020-11-19T14:36:00:974
2338151,000000	2020-11-19T14:36:01:014
2336759,000000	2020-11-19T14:36:01:055
2335822,000000	2020-11-19T14:36:01:094
2336213,000000	2020-11-19T14:36:01:135
2335820,000000	2020-11-19T14:36:01:174
2335558,000000	2020-11-19T14:36:01:215
2335741,000000	2020-11-19T14:36:01:254
2335563,000000	2020-11-19T14:36:01:295
2335549,000000	2020-11-19T14:36:01:334
2335666,000000	2020-11-19T14:36:01:376
2335950,000000	2020-11-19T14:36:01:414
2336534,000000	2020-11-19T14:36:01:455
2335724,000000	2020-11-19T14:36:01:495
2333794,000000	2020-11-19T14:36:01:535
2330629,000000	2020-11-19T14:36:01:574
2326363,000000	2020-11-19T14:36:01:615
2324302,000000	2020-11-19T14:36:01:655
2322836,000000	2020-11-19T14:36:01:695
2322382,000000	2020-11-19T14:36:01:734
2321509,000000	2020-11-19T14:36:01:775
2321520,000000	2020-11-19T14:36:01:815
2320415,000000	2020-11-19T14:36:01:855
2319358,000000	2020-11-19T14:36:01:894
2319484,000000	2020-11-19T14:36:01:935
2320127,000000	2020-11-19T14:36:01:975
2320963,000000	2020-11-19T14:36:02:015
2321075,000000	2020-11-19T14:36:02:055
2318964,000000	2020-11-19T14:36:02:096
2314604,000000	2020-11-19T14:36:02:135
2309727,000000	2020-11-19T14:36:02:176
2306732,000000	2020-11-19T14:36:02:215
2304423,000000	2020-11-19T14:36:02:256
2303022,000000	2020-11-19T14:36:02:296
2302837,000000	2020-11-19T14:36:02:336
2302121,000000	2020-11-19T14:36:02:375
2301323,000000	2020-11-19T14:36:02:416
2299251,000000	2020-11-19T14:36:02:455
2296508,000000	2020-11-19T14:36:02:496
2293801,000000	2020-11-19T14:36:02:535
2291758,000000	2020-11-19T14:36:02:576
2290670,000000	2020-11-19T14:36:02:615
2289931,000000	2020-11-19T14:36:02:656
2285884,000000	2020-11-19T14:36:02:696
2280282,000000	2020-11-19T14:36:02:736
2275044,000000	2020-11-19T14:36:02:776
2271985,000000	2020-11-19T14:36:02:816
2270687,000000	2020-11-19T14:36:02:856
2270099,000000	2020-11-19T14:36:02:897
2269057,000000	2020-11-19T14:36:02:935
2267653,000000	2020-11-19T14:36:02:976
2266844,000000	2020-11-19T14:36:03:015
2265698,000000	2020-11-19T14:36:03:057
2264647,000000	2020-11-19T14:36:03:096
2263397,000000	2020-11-19T14:36:03:137
2261889,000000	2020-11-19T14:36:03:176
2260587,000000	2020-11-19T14:36:03:217
2258509,000000	2020-11-19T14:36:03:256
2253648,000000	2020-11-19T14:36:03:297
2247997,000000	2020-11-19T14:36:03:336
2243269,000000	2020-11-19T14:36:03:377
2240848,000000	2020-11-19T14:36:03:416
2238872,000000	2020-11-19T14:36:03:457
2237966,000000	2020-11-19T14:36:03:496
2237609,000000	2020-11-19T14:36:03:537
2237144,000000	2020-11-19T14:36:03:576
2235719,000000	2020-11-19T14:36:03:617
2234292,000000	2020-11-19T14:36:03:656
2232891,000000	2020-11-19T14:36:03:697
2231632,000000	2020-11-19T14:36:03:736
2230712,000000	2020-11-19T14:36:03:777
2229588,000000	2020-11-19T14:36:03:817
2226263,000000	2020-11-19T14:36:03:857
2220044,000000	2020-11-19T14:36:03:897
2212659,000000	2020-11-19T14:36:03:938
2206754,000000	2020-11-19T14:36:03:976
2202743,000000	2020-11-19T14:36:04:017
2199765,000000	2020-11-19T14:36:04:059
2197587,000000	2020-11-19T14:36:04:099
2196605,000000	2020-11-19T14:36:04:137
2195284,000000	2020-11-19T14:36:04:178
2194826,000000	2020-11-19T14:36:04:217
2193927,000000	2020-11-19T14:36:04:258
2191679,000000	2020-11-19T14:36:04:297
2189780,000000	2020-11-19T14:36:04:337
2188947,000000	2020-11-19T14:36:04:377
2188263,000000	2020-11-19T14:36:04:418
2185848,000000	2020-11-19T14:36:04:457
2179084,000000	2020-11-19T14:36:04:499
2170960,000000	2020-11-19T14:36:04:537
2164278,000000	2020-11-19T14:36:04:578
2159759,000000	2020-11-19T14:36:04:617
2156971,000000	2020-11-19T14:36:04:659
2154683,000000	2020-11-19T14:36:04:697
2152884,000000	2020-11-19T14:36:04:738
2150610,000000	2020-11-19T14:36:04:777
2148015,000000	2020-11-19T14:36:04:818
2145843,000000	2020-11-19T14:36:04:857
2143837,000000	2020-11-19T14:36:04:899
2141889,000000	2020-11-19T14:36:04:937
2138573,000000	2020-11-19T14:36:04:979
2134997,000000	2020-11-19T14:36:05:017
2130612,000000	2020-11-19T14:36:05:058
2126091,000000	2020-11-19T14:36:05:098
2119383,000000	2020-11-19T14:36:05:139
2112284,000000	2020-11-19T14:36:05:178
2107239,000000	2020-11-19T14:36:05:219
2103797,000000	2020-11-19T14:36:05:258
2101968,000000	2020-11-19T14:36:05:299
2102222,000000	2020-11-19T14:36:05:338
2102514,000000	2020-11-19T14:36:05:379
2103333,000000	2020-11-19T14:36:05:418
2103118,000000	2020-11-19T14:36:05:459
2103154,000000	2020-11-19T14:36:05:499
2103144,000000	2020-11-19T14:36:05:539
2102788,000000	2020-11-19T14:36:05:578
2103430,000000	2020-11-19T14:36:05:620
2103012,000000	2020-11-19T14:36:05:658
2102377,000000	2020-11-19T14:36:05:700
2102917,000000	2020-11-19T14:36:05:738
2099764,000000	2020-11-19T14:36:05:779
2094033,000000	2020-11-19T14:36:05:818
2086959,000000	2020-11-19T14:36:05:860
2081487,000000	2020-11-19T14:36:05:898
2078040,000000	2020-11-19T14:36:05:939
2075702,000000	2020-11-19T14:36:05:978
2074000,000000	2020-11-19T14:36:06:019
2071781,000000	2020-11-19T14:36:06:058
2068949,000000	2020-11-19T14:36:06:099
2066981,000000	2020-11-19T14:36:06:138
2065490,000000	2020-11-19T14:36:06:179
2064874,000000	2020-11-19T14:36:06:218
2066252,000000	2020-11-19T14:36:06:259
2075234,000000	2020-11-19T14:36:06:299
2077497,000000	2020-11-19T14:36:06:341
2075935,000000	2020-11-19T14:36:06:380
2072152,000000	2020-11-19T14:36:06:421
2068856,000000	2020-11-19T14:36:06:459
2066160,000000	2020-11-19T14:36:06:500
2065448,000000	2020-11-19T14:36:06:539
2066059,000000	2020-11-19T14:36:06:580
2067011,000000	2020-11-19T14:36:06:619
2067166,000000	2020-11-19T14:36:06:660
2066742,000000	2020-11-19T14:36:06:699
2065375,000000	2020-11-19T14:36:06:740
2064463,000000	2020-11-19T14:36:06:779
2063887,000000	2020-11-19T14:36:06:820
2064482,000000	2020-11-19T14:36:06:859
2065664,000000	2020-11-19T14:36:06:901
2066945,000000	2020-11-19T14:36:06:939
2067513,000000	2020-11-19T14:36:06:980
2064310,000000	2020-11-19T14:36:07:019
2060306,000000	2020-11-19T14:36:07:061
2057173,000000	2020-11-19T14:36:07:100
2056240,000000	2020-11-19T14:36:07:140
2055923,000000	2020-11-19T14:36:07:179
2056096,000000	2020-11-19T14:36:07:220
2056531,000000	2020-11-19T14:36:07:259
2059494,000000	2020-11-19T14:36:07:301
2062405,000000	2020-11-19T14:36:07:339
2062608,000000	2020-11-19T14:36:07:380
2065056,000000	2020-11-19T14:36:07:419
2069526,000000	2020-11-19T14:36:07:461
2075169,000000	2020-11-19T14:36:07:500
2082976,000000	2020-11-19T14:36:07:541
2087203,000000	2020-11-19T14:36:07:580
2088682,000000	2020-11-19T14:36:07:621
2088701,000000	2020-11-19T14:36:07:660
2088375,000000	2020-11-19T14:36:07:702
2091169,000000	2020-11-19T14:36:08:213
2093939,000000	2020-11-19T14:36:08:242
2095238,000000	2020-11-19T14:36:08:242
2096294,000000	2020-11-19T14:36:08:243
2096252,000000	2020-11-19T14:36:08:244
2109357,000000	2020-11-19T14:36:08:244
2123614,000000	2020-11-19T14:36:08:245
2130498,000000	2020-11-19T14:36:08:245
2137509,000000	2020-11-19T14:36:08:246
2144511,000000	2020-11-19T14:36:08:246
2149671,000000	2020-11-19T14:36:08:247
2154582,000000	2020-11-19T14:36:08:258
2159510,000000	2020-11-19T14:36:08:259
2161823,000000	2020-11-19T14:36:08:335
2162760,000000	2020-11-19T14:36:08:337
2161410,000000	2020-11-19T14:36:08:415
2159048,000000	2020-11-19T14:36:08:416
2158494,000000	2020-11-19T14:36:08:429
2158518,000000	2020-11-19T14:36:08:465
2158636,000000	2020-11-19T14:36:08:500
2157941,000000	2020-11-19T14:36:08:570
2157220,000000	2020-11-19T14:36:08:580
2157642,000000	2020-11-19T14:36:08:626
2156496,000000	2020-11-19T14:36:08:663
2154751,000000	2020-11-19T14:36:08:699
2152714,000000	2020-11-19T14:36:08:741
2151377,000000	2020-11-19T14:36:08:782
2150392,000000	2020-11-19T14:36:08:825
2150103,000000	2020-11-19T14:36:08:867
2149731,000000	2020-11-19T14:36:08:948
2145588,000000	2020-11-19T14:36:08:950
2138700,000000	2020-11-19T14:36:08:984
2132715,000000	2020-11-19T14:36:09:021
2128318,000000	2020-11-19T14:36:09:061
2126331,000000	2020-11-19T14:36:09:107
2125486,000000	2020-11-19T14:36:09:144
2124818,000000	2020-11-19T14:36:09:180
2124850,000000	2020-11-19T14:36:09:223
2124955,000000	2020-11-19T14:36:09:262
2125265,000000	2020-11-19T14:36:09:304
2125436,000000	2020-11-19T14:36:09:342
2126660,000000	2020-11-19T14:36:09:383
2128157,000000	2020-11-19T14:36:09:422
2129462,000000	2020-11-19T14:36:09:463
2130020,000000	2020-11-19T14:36:09:502
2130998,000000	2020-11-19T14:36:09:543
2131266,000000	2020-11-19T14:36:09:582
2127906,000000	2020-11-19T14:36:09:623
2123085,000000	2020-11-19T14:36:09:663
2118290,000000	2020-11-19T14:36:09:704
2115020,000000	2020-11-19T14:36:09:742
2113456,000000	2020-11-19T14:36:09:783
2112656,000000	2020-11-19T14:36:09:823
2112495,000000	2020-11-19T14:36:09:864
2111807,000000	2020-11-19T14:36:09:903
2110715,000000	2020-11-19T14:36:09:944
2108504,000000	2020-11-19T14:36:09:982
2106481,000000	2020-11-19T14:36:10:024
2104281,000000	2020-11-19T14:36:10:063
2103179,000000	2020-11-19T14:36:10:104
2101678,000000	2020-11-19T14:36:10:143
2100383,000000	2020-11-19T14:36:10:184
2098804,000000	2020-11-19T14:36:10:222
2093194,000000	2020-11-19T14:36:10:264
2086573,000000	2020-11-19T14:36:10:303
2080759,000000	2020-11-19T14:36:10:343
2077041,000000	2020-11-19T14:36:10:384
2074423,000000	2020-11-19T14:36:10:451
2073349,000000	2020-11-19T14:36:10:473
2073216,000000	2020-11-19T14:36:10:506
2073179,000000	2020-11-19T14:36:10:544
2071849,000000	2020-11-19T14:36:10:583
2070609,000000	2020-11-19T14:36:10:624
2069850,000000	2020-11-19T14:36:10:664
2069153,000000	2020-11-19T14:36:10:704
2070088,000000	2020-11-19T14:36:10:745
2070615,000000	2020-11-19T14:36:10:783
2071332,000000	2020-11-19T14:36:10:824
2069385,000000	2020-11-19T14:36:10:864
2064535,000000	2020-11-19T14:36:10:905
2058658,000000	2020-11-19T14:36:10:944
2054966,000000	2020-11-19T14:36:10:985
2052323,000000	2020-11-19T14:36:11:024
2051001,000000	2020-11-19T14:36:11:065
2049847,000000	2020-11-19T14:36:11:104
2050227,000000	2020-11-19T14:36:11:145
2050048,000000	2020-11-19T14:36:11:184
2049589,000000	2020-11-19T14:36:11:225
2049334,000000	2020-11-19T14:36:11:264
2049466,000000	2020-11-19T14:36:11:305
2048401,000000	2020-11-19T14:36:11:344
2047919,000000	2020-11-19T14:36:11:386
2047511,000000	2020-11-19T14:36:11:424
2046468,000000	2020-11-19T14:36:11:496
2040738,000000	2020-11-19T14:36:11:505
2033604,000000	2020-11-19T14:36:11:546
2027095,000000	2020-11-19T14:36:11:585
2022960,000000	2020-11-19T14:36:11:625
2020365,000000	2020-11-19T14:36:11:664
2019454,000000	2020-11-19T14:36:11:706
2018468,000000	2020-11-19T14:36:11:745
2017468,000000	2020-11-19T14:36:11:785
2016126,000000	2020-11-19T14:36:11:824
2014527,000000	2020-11-19T14:36:11:865
2014247,000000	2020-11-19T14:36:11:905
2015513,000000	2020-11-19T14:36:11:946
2017075,000000	2020-11-19T14:36:11:985
2019835,000000	2020-11-19T14:36:12:025
2020499,000000	2020-11-19T14:36:12:065
2017785,000000	2020-11-19T14:36:12:107
2013834,000000	2020-11-19T14:36:12:145
2011268,000000	2020-11-19T14:36:12:186
2010052,000000	2020-11-19T14:36:12:225
2010562,000000	2020-11-19T14:36:12:265
2012026,000000	2020-11-19T14:36:12:305
2013067,000000	2020-11-19T14:36:12:346
2013057,000000	2020-11-19T14:36:12:385
2012926,000000	2020-11-19T14:36:12:427
2012328,000000	2020-11-19T14:36:12:465
2011184,000000	2020-11-19T14:36:12:506
2010482,000000	2020-11-19T14:36:12:545
2010113,000000	2020-11-19T14:36:12:586
2010176,000000	2020-11-19T14:36:12:626
2006067,000000	2020-11-19T14:36:12:667
1997845,000000	2020-11-19T14:36:12:706
1989191,000000	2020-11-19T14:36:12:746
1983724,000000	2020-11-19T14:36:12:785
1982219,000000	2020-11-19T14:36:12:827
1981571,000000	2020-11-19T14:36:12:865
1982422,000000	2020-11-19T14:36:12:907
1984169,000000	2020-11-19T14:36:12:946
1984715,000000	2020-11-19T14:36:12:987
1983207,000000	2020-11-19T14:36:13:025
1978557,000000	2020-11-19T14:36:13:067
1974027,000000	2020-11-19T14:36:13:106
1970446,000000	2020-11-19T14:36:13:147
1966581,000000	2020-11-19T14:36:13:186
1962756,000000	2020-11-19T14:36:13:227
1953866,000000	2020-11-19T14:36:13:266
1941999,000000	2020-11-19T14:36:13:308
1930710,000000	2020-11-19T14:36:13:346
1923257,000000	2020-11-19T14:36:13:387
1917798,000000	2020-11-19T14:36:13:426
1914518,000000	2020-11-19T14:36:13:467
1912145,000000	2020-11-19T14:36:13:507
1910138,000000	2020-11-19T14:36:13:547
1907729,000000	2020-11-19T14:36:13:587
1905429,000000	2020-11-19T14:36:13:627
1903416,000000	2020-11-19T14:36:13:667
1902319,000000	2020-11-19T14:36:13:708
1902355,000000	2020-11-19T14:36:13:746
1904147,000000	2020-11-19T14:36:13:787
1908052,000000	2020-11-19T14:36:13:826
1908354,000000	2020-11-19T14:36:13:868
1907045,000000	2020-11-19T14:36:13:906
1907395,000000	2020-11-19T14:36:13:947
1908968,000000	2020-11-19T14:36:13:986
1909464,000000	2020-11-19T14:36:14:028
1911054,000000	2020-11-19T14:36:14:067
1912636,000000	2020-11-19T14:36:14:108
1911533,000000	2020-11-19T14:36:14:147
1911303,000000	2020-11-19T14:36:14:187
1911737,000000	2020-11-19T14:36:14:226
1911999,000000	2020-11-19T14:36:14:268
1913115,000000	2020-11-19T14:36:14:308
1914808,000000	2020-11-19T14:36:14:348
1916352,000000	2020-11-19T14:36:14:387
1918722,000000	2020-11-19T14:36:14:428
1918224,000000	2020-11-19T14:36:14:467
1912675,000000	2020-11-19T14:36:14:509
1904937,000000	2020-11-19T14:36:14:547
1899883,000000	2020-11-19T14:36:14:588
1897074,000000	2020-11-19T14:36:14:627
1895812,000000	2020-11-19T14:36:14:668
1895418,000000	2020-11-19T14:36:14:707
1895155,000000	2020-11-19T14:36:14:748
1893823,000000	2020-11-19T14:36:14:787
1892042,000000	2020-11-19T14:36:14:828
1890446,000000	2020-11-19T14:36:14:867
1888775,000000	2020-11-19T14:36:14:909
1888470,000000	2020-11-19T14:36:14:947
1888151,000000	2020-11-19T14:36:14:989
1889124,000000	2020-11-19T14:36:15:027
1890484,000000	2020-11-19T14:36:15:069
1887883,000000	2020-11-19T14:36:15:108
1884039,000000	2020-11-19T14:36:15:148
1882216,000000	2020-11-19T14:36:15:187
1883554,000000	2020-11-19T14:36:15:228
1886157,000000	2020-11-19T14:36:15:268
1890800,000000	2020-11-19T14:36:15:309
1896071,000000	2020-11-19T14:36:15:348
1900109,000000	2020-11-19T14:36:15:389
1901605,000000	2020-11-19T14:36:15:428
1901396,000000	2020-11-19T14:36:15:469
1900363,000000	2020-11-19T14:36:15:508
1900315,000000	2020-11-19T14:36:15:549
1900397,000000	2020-11-19T14:36:15:588
1900954,000000	2020-11-19T14:36:15:629
1902557,000000	2020-11-19T14:36:15:668
1903589,000000	2020-11-19T14:36:15:710
1901002,000000	2020-11-19T14:36:15:748
1897514,000000	2020-11-19T14:36:15:790
1895306,000000	2020-11-19T14:36:15:828
1895025,000000	2020-11-19T14:36:15:869
1895743,000000	2020-11-19T14:36:15:909
1896333,000000	2020-11-19T14:36:15:949
1897317,000000	2020-11-19T14:36:15:988
1898180,000000	2020-11-19T14:36:16:030
1898406,000000	2020-11-19T14:36:16:069
1898415,000000	2020-11-19T14:36:16:110
1899288,000000	2020-11-19T14:36:16:149
1901076,000000	2020-11-19T14:36:16:189
1902096,000000	2020-11-19T14:36:16:229
1902459,000000	2020-11-19T14:36:16:270
1902399,000000	2020-11-19T14:36:16:309
1898778,000000	2020-11-19T14:36:16:349
1893779,000000	2020-11-19T14:36:16:389
1890423,000000	2020-11-19T14:36:16:430
1889797,000000	2020-11-19T14:36:16:469
1891605,000000	2020-11-19T14:36:16:511
1894368,000000	2020-11-19T14:36:16:552
1898615,000000	2020-11-19T14:36:16:590
1902552,000000	2020-11-19T14:36:16:629
1905085,000000	2020-11-19T14:36:16:670
1909214,000000	2020-11-19T14:36:16:709
1914171,000000	2020-11-19T14:36:16:750
1918014,000000	2020-11-19T14:36:16:789
1920325,000000	2020-11-19T14:36:16:830
1922658,000000	2020-11-19T14:36:16:869
1924013,000000	2020-11-19T14:36:16:910
1922643,000000	2020-11-19T14:36:16:949
1918549,000000	2020-11-19T14:36:16:991
1915489,000000	2020-11-19T14:36:17:029
1916022,000000	2020-11-19T14:36:17:070
1918449,000000	2020-11-19T14:36:17:110
1921501,000000	2020-11-19T14:36:17:151
1925688,000000	2020-11-19T14:36:17:189
1929867,000000	2020-11-19T14:36:17:231
1934427,000000	2020-11-19T14:36:17:270
1937092,000000	2020-11-19T14:36:17:311
1938713,000000	2020-11-19T14:36:17:350
1940457,000000	2020-11-19T14:36:17:391
1942003,000000	2020-11-19T14:36:17:430
1943756,000000	2020-11-19T14:36:17:471
1944910,000000	2020-11-19T14:36:17:510
1943374,000000	2020-11-19T14:36:17:551
1939546,000000	2020-11-19T14:36:17:590
1935884,000000	2020-11-19T14:36:17:631
1933856,000000	2020-11-19T14:36:17:670
1933479,000000	2020-11-19T14:36:17:711
1933727,000000	2020-11-19T14:36:17:750
1935365,000000	2020-11-19T14:36:17:791
1936897,000000	2020-11-19T14:36:17:830
1939640,000000	2020-11-19T14:36:17:871
1941940,000000	2020-11-19T14:36:17:911
1945427,000000	2020-11-19T14:36:17:951
1948676,000000	2020-11-19T14:36:17:990
1952384,000000	2020-11-19T14:36:18:031
1957051,000000	2020-11-19T14:36:18:071
1960698,000000	2020-11-19T14:36:18:112
1963003,000000	2020-11-19T14:36:18:151
1962603,000000	2020-11-19T14:36:18:192
1959125,000000	2020-11-19T14:36:18:231
1954513,000000	2020-11-19T14:36:18:271
1951970,000000	2020-11-19T14:36:18:311
1950938,000000	2020-11-19T14:36:18:352
1951012,000000	2020-11-19T14:36:18:391
1952818,000000	2020-11-19T14:36:18:432
1955847,000000	2020-11-19T14:36:18:471
1959069,000000	2020-11-19T14:36:18:512
1962073,000000	2020-11-19T14:36:18:551
1965201,000000	2020-11-19T14:36:18:591
1968495,000000	2020-11-19T14:36:18:631
1971134,000000	2020-11-19T14:36:18:672
1972310,000000	2020-11-19T14:36:18:712
1973464,000000	2020-11-19T14:36:18:752
1973934,000000	2020-11-19T14:36:18:791
1971137,000000	2020-11-19T14:36:18:832
1967016,000000	2020-11-19T14:36:18:871
1963283,000000	2020-11-19T14:36:18:913
1961797,000000	2020-11-19T14:36:18:951
1961008,000000	2020-11-19T14:36:18:992
1960571,000000	2020-11-19T14:36:19:031
1961148,000000	2020-11-19T14:36:19:072
1961244,000000	2020-11-19T14:36:19:112
1961024,000000	2020-11-19T14:36:19:153
1961606,000000	2020-11-19T14:36:19:192
1962017,000000	2020-11-19T14:36:19:233
1963573,000000	2020-11-19T14:36:19:272
1965102,000000	2020-11-19T14:36:19:314
1968001,000000	2020-11-19T14:36:19:352
1969595,000000	2020-11-19T14:36:19:393
1969200,000000	2020-11-19T14:36:19:432
1966978,000000	2020-11-19T14:36:19:473
1963941,000000	2020-11-19T14:36:19:512
1961172,000000	2020-11-19T14:36:19:553
1959743,000000	2020-11-19T14:36:19:604
1959202,000000	2020-11-19T14:36:19:643
1958565,000000	2020-11-19T14:36:19:672
1958113,000000	2020-11-19T14:36:19:713
1957575,000000	2020-11-19T14:36:19:752
1957385,000000	2020-11-19T14:36:19:793
1957815,000000	2020-11-19T14:36:19:832
1959529,000000	2020-11-19T14:36:19:873
1961842,000000	2020-11-19T14:36:19:913
1965055,000000	2020-11-19T14:36:19:953
1969564,000000	2020-11-19T14:36:19:992
1974102,000000	2020-11-19T14:36:20:034
1975767,000000	2020-11-19T14:36:20:072
1973832,000000	2020-11-19T14:36:20:114
1970308,000000	2020-11-19T14:36:20:153
1969018,000000	2020-11-19T14:36:20:193
1968865,000000	2020-11-19T14:36:20:233
1968039,000000	2020-11-19T14:36:20:274
1968328,000000	2020-11-19T14:36:20:313
1968582,000000	2020-11-19T14:36:20:354
1967946,000000	2020-11-19T14:36:20:393
1967195,000000	2020-11-19T14:36:20:434
1966054,000000	2020-11-19T14:36:20:473
1965658,000000	2020-11-19T14:36:20:516
1965833,000000	2020-11-19T14:36:20:553
1966704,000000	2020-11-19T14:36:20:597
1967415,000000	2020-11-19T14:36:20:634
1968194,000000	2020-11-19T14:36:20:674
1966707,000000	2020-11-19T14:36:20:714
1965263,000000	2020-11-19T14:36:20:754
1963947,000000	2020-11-19T14:36:20:793
1962323,000000	2020-11-19T14:36:20:834
1961763,000000	2020-11-19T14:36:20:873
1960756,000000	2020-11-19T14:36:20:915
1958916,000000	2020-11-19T14:36:20:953
1957259,000000	2020-11-19T14:36:20:994
1955571,000000	2020-11-19T14:36:21:033
1953617,000000	2020-11-19T14:36:21:075
1951660,000000	2020-11-19T14:36:21:114
1949989,000000	2020-11-19T14:36:21:155
1949149,000000	2020-11-19T14:36:21:193
1949117,000000	2020-11-19T14:36:21:235
1949325,000000	2020-11-19T14:36:21:274
1949038,000000	2020-11-19T14:36:21:316
1947544,000000	2020-11-19T14:36:21:354
1947301,000000	2020-11-19T14:36:21:395
1947743,000000	2020-11-19T14:36:21:434
1949604,000000	2020-11-19T14:36:21:475
1951985,000000	2020-11-19T14:36:21:514
1955906,000000	2020-11-19T14:36:21:557
1960138,000000	2020-11-19T14:36:21:594
1961536,000000	2020-11-19T14:36:21:635
1964619,000000	2020-11-19T14:36:21:674
1967800,000000	2020-11-19T14:36:21:715
1968998,000000	2020-11-19T14:36:21:754
1968595,000000	2020-11-19T14:36:21:795
1967856,000000	2020-11-19T14:36:21:834
1967549,000000	2020-11-19T14:36:21:875
1965813,000000	2020-11-19T14:36:21:914
1961772,000000	2020-11-19T14:36:21:955
1956518,000000	2020-11-19T14:36:21:994
1952047,000000	2020-11-19T14:36:22:036
1949105,000000	2020-11-19T14:36:22:074
1947779,000000	2020-11-19T14:36:22:116
1947122,000000	2020-11-19T14:36:22:155
1947431,000000	2020-11-19T14:36:22:196
1948015,000000	2020-11-19T14:36:22:236
1950490,000000	2020-11-19T14:36:22:276
1953974,000000	2020-11-19T14:36:22:315
1957559,000000	2020-11-19T14:36:22:356
1959646,000000	2020-11-19T14:36:22:394
1962672,000000	2020-11-19T14:36:22:436
1963738,000000	2020-11-19T14:36:22:475
1965222,000000	2020-11-19T14:36:22:517
1965860,000000	2020-11-19T14:36:22:555
1962585,000000	2020-11-19T14:36:22:596
1958432,000000	2020-11-19T14:36:22:635
1954098,000000	2020-11-19T14:36:22:676
1951146,000000	2020-11-19T14:36:22:715
1948376,000000	2020-11-19T14:36:22:756
1947014,000000	2020-11-19T14:36:22:795
1946101,000000	2020-11-19T14:36:22:836
1945479,000000	2020-11-19T14:36:22:875
1945578,000000	2020-11-19T14:36:22:917
1946450,000000	2020-11-19T14:36:22:955
1948060,000000	2020-11-19T14:36:22:996
1949892,000000	2020-11-19T14:36:23:035
1950988,000000	2020-11-19T14:36:23:076
1951581,000000	2020-11-19T14:36:23:116
1949920,000000	2020-11-19T14:36:23:157
1945660,000000	2020-11-19T14:36:23:195
1941838,000000	2020-11-19T14:36:23:237
1939286,000000	2020-11-19T14:36:23:276
1937801,000000	2020-11-19T14:36:23:317
1935719,000000	2020-11-19T14:36:23:355
1933676,000000	2020-11-19T14:36:23:397
1931428,000000	2020-11-19T14:36:23:436
1929672,000000	2020-11-19T14:36:23:477
1926958,000000	2020-11-19T14:36:23:516
1924819,000000	2020-11-19T14:36:23:557
1923517,000000	2020-11-19T14:36:23:596
1922571,000000	2020-11-19T14:36:23:637
1922672,000000	2020-11-19T14:36:23:676
1923284,000000	2020-11-19T14:36:23:717
1923392,000000	2020-11-19T14:36:23:756
1923083,000000	2020-11-19T14:36:23:797
1922259,000000	2020-11-19T14:36:23:836
1921748,000000	2020-11-19T14:36:23:877
1922799,000000	2020-11-19T14:36:23:916
1924331,000000	2020-11-19T14:36:23:958
1925465,000000	2020-11-19T14:36:23:996
1925762,000000	2020-11-19T14:36:24:037
1925265,000000	2020-11-19T14:36:24:076
1924883,000000	2020-11-19T14:36:24:118
1925153,000000	2020-11-19T14:36:24:157
1925153,000000	2020-11-19T14:36:24:197
1925447,000000	2020-11-19T14:36:24:237
1926484,000000	2020-11-19T14:36:24:277
1927549,000000	2020-11-19T14:36:24:316
1927966,000000	2020-11-19T14:36:24:357
1926420,000000	2020-11-19T14:36:24:397
1923614,000000	2020-11-19T14:36:24:438
1920400,000000	2020-11-19T14:36:24:477
1918340,000000	2020-11-19T14:36:24:518
1914528,000000	2020-11-19T14:36:24:557
1912942,000000	2020-11-19T14:36:24:598
1912337,000000	2020-11-19T14:36:24:637
1911891,000000	2020-11-19T14:36:24:678
1910507,000000	2020-11-19T14:36:24:717
1909552,000000	2020-11-19T14:36:24:758
1907769,000000	2020-11-19T14:36:24:797
1905695,000000	2020-11-19T14:36:24:838
1903751,000000	2020-11-19T14:36:24:877
1901557,000000	2020-11-19T14:36:24:918
1901010,000000	2020-11-19T14:36:24:957
1900179,000000	2020-11-19T14:36:24:998
1898542,000000	2020-11-19T14:36:25:037
1896477,000000	2020-11-19T14:36:25:078
1895865,000000	2020-11-19T14:36:25:117
1896651,000000	2020-11-19T14:36:25:158
1897017,000000	2020-11-19T14:36:25:196
1896385,000000	2020-11-19T14:36:25:238
1898381,000000	2020-11-19T14:36:25:277
1900342,000000	2020-11-19T14:36:25:319
1900194,000000	2020-11-19T14:36:25:358
1899770,000000	2020-11-19T14:36:25:399
1899446,000000	2020-11-19T14:36:25:438
1899706,000000	2020-11-19T14:36:25:479
1900472,000000	2020-11-19T14:36:25:518
1902858,000000	2020-11-19T14:36:25:559
1906919,000000	2020-11-19T14:36:25:598
1907988,000000	2020-11-19T14:36:25:640
1904746,000000	2020-11-19T14:36:25:679
1900367,000000	2020-11-19T14:36:25:719
1896814,000000	2020-11-19T14:36:25:757
1893802,000000	2020-11-19T14:36:25:799
1890119,000000	2020-11-19T14:36:25:838
1887316,000000	2020-11-19T14:36:25:879
1884671,000000	2020-11-19T14:36:25:918
1881886,000000	2020-11-19T14:36:25:959
1879083,000000	2020-11-19T14:36:25:998
1877233,000000	2020-11-19T14:36:26:039
1877887,000000	2020-11-19T14:36:26:078
1879170,000000	2020-11-19T14:36:26:120
1880156,000000	2020-11-19T14:36:26:159
1880674,000000	2020-11-19T14:36:26:199
1880628,000000	2020-11-19T14:36:26:238
1880451,000000	2020-11-19T14:36:26:279
1877929,000000	2020-11-19T14:36:26:319
1874842,000000	2020-11-19T14:36:26:359
1872801,000000	2020-11-19T14:36:26:399
1872780,000000	2020-11-19T14:36:26:439
1875717,000000	2020-11-19T14:36:26:478
1879854,000000	2020-11-19T14:36:26:521
1882185,000000	2020-11-19T14:36:26:560
1886280,000000	2020-11-19T14:36:26:600
1890199,000000	2020-11-19T14:36:26:639
1891696,000000	2020-11-19T14:36:26:680
1892242,000000	2020-11-19T14:36:26:720
1892370,000000	2020-11-19T14:36:26:760
1892351,000000	2020-11-19T14:36:26:799
1891829,000000	2020-11-19T14:36:26:840
1890347,000000	2020-11-19T14:36:26:879
1887808,000000	2020-11-19T14:36:26:921
1885997,000000	2020-11-19T14:36:26:959
1882695,000000	2020-11-19T14:36:27:001
1878685,000000	2020-11-19T14:36:27:039
1874475,000000	2020-11-19T14:36:27:081
1870936,000000	2020-11-19T14:36:27:120
1867999,000000	2020-11-19T14:36:27:160
1865468,000000	2020-11-19T14:36:27:199
1862973,000000	2020-11-19T14:36:27:241
1860793,000000	2020-11-19T14:36:27:280
1859146,000000	2020-11-19T14:36:27:321
1857795,000000	2020-11-19T14:36:27:359
1857216,000000	2020-11-19T14:36:27:401
1856408,000000	2020-11-19T14:36:27:440
1855637,000000	2020-11-19T14:36:27:481
1854379,000000	2020-11-19T14:36:27:520
1853445,000000	2020-11-19T14:36:27:561
1852706,000000	2020-11-19T14:36:27:600
1851589,000000	2020-11-19T14:36:27:641
1849919,000000	2020-11-19T14:36:27:680
1846223,000000	2020-11-19T14:36:27:722
1842855,000000	2020-11-19T14:36:27:760
1840303,000000	2020-11-19T14:36:27:801
1838402,000000	2020-11-19T14:36:27:840
1836366,000000	2020-11-19T14:36:27:881
1833774,000000	2020-11-19T14:36:27:921
1834117,000000	2020-11-19T14:36:27:962
1835089,000000	2020-11-19T14:36:28:000
1837152,000000	2020-11-19T14:36:28:042
1838811,000000	2020-11-19T14:36:28:081
1838711,000000	2020-11-19T14:36:28:122
1837621,000000	2020-11-19T14:36:28:161
1836152,000000	2020-11-19T14:36:28:202
1834818,000000	2020-11-19T14:36:28:241
1833321,000000	2020-11-19T14:36:28:282
1830409,000000	2020-11-19T14:36:28:321
1825257,000000	2020-11-19T14:36:28:362
1820747,000000	2020-11-19T14:36:28:401
1817965,000000	2020-11-19T14:36:28:442
1815381,000000	2020-11-19T14:36:28:480
1813389,000000	2020-11-19T14:36:28:523
1811835,000000	2020-11-19T14:36:28:561
1811119,000000	2020-11-19T14:36:28:602
1810565,000000	2020-11-19T14:36:28:642
1813241,000000	2020-11-19T14:36:28:682
1811834,000000	2020-11-19T14:36:28:721
1813805,000000	2020-11-19T14:36:28:763
1816585,000000	2020-11-19T14:36:28:801
1819434,000000	2020-11-19T14:36:28:842
1823206,000000	2020-11-19T14:36:28:882
1827117,000000	2020-11-19T14:36:28:923
1833238,000000	2020-11-19T14:36:28:961
1847518,000000	2020-11-19T14:36:29:003
1863758,000000	2020-11-19T14:36:29:042
1882392,000000	2020-11-19T14:36:29:083
1901974,000000	2020-11-19T14:36:29:122
1921226,000000	2020-11-19T14:36:29:163
1937824,000000	2020-11-19T14:36:29:202
1952360,000000	2020-11-19T14:36:29:243
1965214,000000	2020-11-19T14:36:29:282
1976528,000000	2020-11-19T14:36:29:324
1987325,000000	2020-11-19T14:36:29:362
1998178,000000	2020-11-19T14:36:29:403
2008944,000000	2020-11-19T14:36:29:442
2018548,000000	2020-11-19T14:36:29:483
2028539,000000	2020-11-19T14:36:29:522
2037153,000000	2020-11-19T14:36:29:563
2044860,000000	2020-11-19T14:36:29:602
2052757,000000	2020-11-19T14:36:29:643
2060106,000000	2020-11-19T14:36:29:682
2065823,000000	2020-11-19T14:36:29:724
2071261,000000	2020-11-19T14:36:29:762
2076474,000000	2020-11-19T14:36:29:803
2081558,000000	2020-11-19T14:36:29:842
2086134,000000	2020-11-19T14:36:29:884
2090785,000000	2020-11-19T14:36:29:923
2095103,000000	2020-11-19T14:36:29:964
2100549,000000	2020-11-19T14:36:30:003
2105657,000000	2020-11-19T14:36:30:043
2110873,000000	2020-11-19T14:36:30:083
2115570,000000	2020-11-19T14:36:30:124
2118405,000000	2020-11-19T14:36:30:163
2121460,000000	2020-11-19T14:36:30:204
2124861,000000	2020-11-19T14:36:30:243
2129695,000000	2020-11-19T14:36:30:284
2135191,000000	2020-11-19T14:36:30:323
2140071,000000	2020-11-19T14:36:30:364
2144745,000000	2020-11-19T14:36:30:403
2148960,000000	2020-11-19T14:36:30:444
2154356,000000	2020-11-19T14:36:30:483
2159435,000000	2020-11-19T14:36:30:524
2162617,000000	2020-11-19T14:36:30:563
2165494,000000	2020-11-19T14:36:30:605
2166997,000000	2020-11-19T14:36:30:662
2169262,000000	2020-11-19T14:36:30:688
2170826,000000	2020-11-19T14:36:30:724
2173456,000000	2020-11-19T14:36:30:788
2176622,000000	2020-11-19T14:36:30:805
2182909,000000	2020-11-19T14:36:30:907
2190350,000000	2020-11-19T14:36:30:908
2198650,000000	2020-11-19T14:36:30:957
2208196,000000	2020-11-19T14:36:30:961
2218673,000000	2020-11-19T14:36:31:002
2232687,000000	2020-11-19T14:36:31:041
2245549,000000	2020-11-19T14:36:31:082
2259633,000000	2020-11-19T14:36:31:122
2274505,000000	2020-11-19T14:36:31:162
2288493,000000	2020-11-19T14:36:31:205
2301207,000000	2020-11-19T14:36:31:241
2311086,000000	2020-11-19T14:36:31:281
2316793,000000	2020-11-19T14:36:31:323
2321541,000000	2020-11-19T14:36:31:361
2324410,000000	2020-11-19T14:36:31:407
2326452,000000	2020-11-19T14:36:31:441
2329501,000000	2020-11-19T14:36:31:489
2333710,000000	2020-11-19T14:36:31:532
2336627,000000	2020-11-19T14:36:31:561
2338925,000000	2020-11-19T14:36:31:628
2341897,000000	2020-11-19T14:36:31:673
2344079,000000	2020-11-19T14:36:31:681
2347109,000000	2020-11-19T14:36:31:722
2349775,000000	2020-11-19T14:36:31:766
2353294,000000	2020-11-19T14:36:31:801
2356771,000000	2020-11-19T14:36:31:842
2357910,000000	2020-11-19T14:36:31:883
2358817,000000	2020-11-19T14:36:31:923
2359933,000000	2020-11-19T14:36:31:963
2360695,000000	2020-11-19T14:36:32:002
2363094,000000	2020-11-19T14:36:32:043
2365242,000000	2020-11-19T14:36:32:082
2367805,000000	2020-11-19T14:36:32:124
2369954,000000	2020-11-19T14:36:32:163
2371653,000000	2020-11-19T14:36:32:203
2373790,000000	2020-11-19T14:36:32:242
2376002,000000	2020-11-19T14:36:32:283
2379112,000000	2020-11-19T14:36:32:323
2381995,000000	2020-11-19T14:36:32:363
2384285,000000	2020-11-19T14:36:32:405
2386740,000000	2020-11-19T14:36:32:445
2388165,000000	2020-11-19T14:36:32:485
2389131,000000	2020-11-19T14:36:32:526
2389998,000000	2020-11-19T14:36:32:565
2390991,000000	2020-11-19T14:36:32:606
2392825,000000	2020-11-19T14:36:32:645
2393333,000000	2020-11-19T14:36:32:686
2392798,000000	2020-11-19T14:36:32:725
2393546,000000	2020-11-19T14:36:32:766
2394021,000000	2020-11-19T14:36:32:805
2394811,000000	2020-11-19T14:36:32:846
2394667,000000	2020-11-19T14:36:32:885
2395278,000000	2020-11-19T14:36:32:926
2396268,000000	2020-11-19T14:36:32:965
2397152,000000	2020-11-19T14:36:33:005
2397383,000000	2020-11-19T14:36:33:045
2398489,000000	2020-11-19T14:36:33:085
2398726,000000	2020-11-19T14:36:33:125
2397910,000000	2020-11-19T14:36:33:166
2397131,000000	2020-11-19T14:36:33:204
2397823,000000	2020-11-19T14:36:33:248
2398608,000000	2020-11-19T14:36:33:285
2400306,000000	2020-11-19T14:36:33:327
2402708,000000	2020-11-19T14:36:33:365
2405923,000000	2020-11-19T14:36:33:405
2408192,000000	2020-11-19T14:36:33:446
2410203,000000	2020-11-19T14:36:33:486
2410934,000000	2020-11-19T14:36:33:526
2412262,000000	2020-11-19T14:36:33:567
2412755,000000	2020-11-19T14:36:33:605
2412892,000000	2020-11-19T14:36:33:646
2413601,000000	2020-11-19T14:36:33:686
2414394,000000	2020-11-19T14:36:33:727
2415242,000000	2020-11-19T14:36:33:766
2414711,000000	2020-11-19T14:36:33:807
2413549,000000	2020-11-19T14:36:33:846
2412444,000000	2020-11-19T14:36:33:887
2411416,000000	2020-11-19T14:36:33:927
2411441,000000	2020-11-19T14:36:33:967
2411902,000000	2020-11-19T14:36:34:006
2412992,000000	2020-11-19T14:36:34:063
2413840,000000	2020-11-19T14:36:34:086
2414946,000000	2020-11-19T14:36:34:127
2415885,000000	2020-11-19T14:36:34:167
2416855,000000	2020-11-19T14:36:34:207
2417022,000000	2020-11-19T14:36:34:246
2417680,000000	2020-11-19T14:36:34:287
2418463,000000	2020-11-19T14:36:34:326
2419525,000000	2020-11-19T14:36:34:367
2419939,000000	2020-11-19T14:36:34:406
2420527,000000	2020-11-19T14:36:34:447
2420085,000000	2020-11-19T14:36:34:487
2418489,000000	2020-11-19T14:36:34:528
2416281,000000	2020-11-19T14:36:34:567
2414707,000000	2020-11-19T14:36:34:608
2414477,000000	2020-11-19T14:36:34:646
2413917,000000	2020-11-19T14:36:34:688
2413779,000000	2020-11-19T14:36:34:727
2413624,000000	2020-11-19T14:36:34:768
2414195,000000	2020-11-19T14:36:34:807
2414815,000000	2020-11-19T14:36:34:848
2415331,000000	2020-11-19T14:36:34:886
2416587,000000	2020-11-19T14:36:34:928
2418219,000000	2020-11-19T14:36:34:967
2420332,000000	2020-11-19T14:36:35:008
2421648,000000	2020-11-19T14:36:35:047
2422469,000000	2020-11-19T14:36:35:088
2423488,000000	2020-11-19T14:36:35:127
2422289,000000	2020-11-19T14:36:35:168
2421023,000000	2020-11-19T14:36:35:207
2420646,000000	2020-11-19T14:36:35:248
2419869,000000	2020-11-19T14:36:35:287
2419381,000000	2020-11-19T14:36:35:328
2418369,000000	2020-11-19T14:36:35:367
2418349,000000	2020-11-19T14:36:35:408
2418028,000000	2020-11-19T14:36:35:447
2417873,000000	2020-11-19T14:36:35:489
2417938,000000	2020-11-19T14:36:35:528
2417837,000000	2020-11-19T14:36:35:569
2418155,000000	2020-11-19T14:36:35:607
2418650,000000	2020-11-19T14:36:35:649
2419569,000000	2020-11-19T14:36:35:688
2420211,000000	2020-11-19T14:36:35:729
2420273,000000	2020-11-19T14:36:35:768
2418613,000000	2020-11-19T14:36:35:809
2416145,000000	2020-11-19T14:36:35:847
2413431,000000	2020-11-19T14:36:35:889
2411748,000000	2020-11-19T14:36:35:928
2411500,000000	2020-11-19T14:36:35:969
2411609,000000	2020-11-19T14:36:36:008
2411015,000000	2020-11-19T14:36:36:049
2410866,000000	2020-11-19T14:36:36:088
2410127,000000	2020-11-19T14:36:36:129
2410082,000000	2020-11-19T14:36:36:168
2409409,000000	2020-11-19T14:36:36:209
2408552,000000	2020-11-19T14:36:36:248
2408104,000000	2020-11-19T14:36:36:289
2407835,000000	2020-11-19T14:36:36:329
2408018,000000	2020-11-19T14:36:36:369
2406957,000000	2020-11-19T14:36:36:409
2404917,000000	2020-11-19T14:36:36:449
2402259,000000	2020-11-19T14:36:36:489
2399883,000000	2020-11-19T14:36:36:530
2398170,000000	2020-11-19T14:36:36:569
2396745,000000	2020-11-19T14:36:36:610
2396175,000000	2020-11-19T14:36:36:649
2396481,000000	2020-11-19T14:36:36:690
2396166,000000	2020-11-19T14:36:36:729
2395842,000000	2020-11-19T14:36:36:770
2395038,000000	2020-11-19T14:36:36:808
2393656,000000	2020-11-19T14:36:36:850
2393139,000000	2020-11-19T14:36:36:889
2392398,000000	2020-11-19T14:36:36:932
2392270,000000	2020-11-19T14:36:36:969
2392124,000000	2020-11-19T14:36:37:010
2392269,000000	2020-11-19T14:36:37:049
2390605,000000	2020-11-19T14:36:37:090
2387661,000000	2020-11-19T14:36:37:130
2384274,000000	2020-11-19T14:36:37:170
2383272,000000	2020-11-19T14:36:37:209
2380542,000000	2020-11-19T14:36:37:250
2377547,000000	2020-11-19T14:36:37:289
2376288,000000	2020-11-19T14:36:37:331
2374696,000000	2020-11-19T14:36:37:369
2372391,000000	2020-11-19T14:36:37:411
2370172,000000	2020-11-19T14:36:37:449
2368253,000000	2020-11-19T14:36:37:490
2366559,000000	2020-11-19T14:36:37:530
2364924,000000	2020-11-19T14:36:37:571
2363716,000000	2020-11-19T14:36:37:609
2362448,000000	2020-11-19T14:36:37:651
2360041,000000	2020-11-19T14:36:37:690
2356456,000000	2020-11-19T14:36:37:731
2353517,000000	2020-11-19T14:36:37:770
2350940,000000	2020-11-19T14:36:37:811
2350026,000000	2020-11-19T14:36:37:850
2348796,000000	2020-11-19T14:36:37:891
2347623,000000	2020-11-19T14:36:37:930
2346809,000000	2020-11-19T14:36:37:971
2345524,000000	2020-11-19T14:36:38:010
2343520,000000	2020-11-19T14:36:38:051
2341047,000000	2020-11-19T14:36:38:090
2337800,000000	2020-11-19T14:36:38:132
2334775,000000	2020-11-19T14:36:38:170
2332682,000000	2020-11-19T14:36:38:211
2330987,000000	2020-11-19T14:36:38:250
2327366,000000	2020-11-19T14:36:38:291
2321587,000000	2020-11-19T14:36:38:330
2316782,000000	2020-11-19T14:36:38:371
2313652,000000	2020-11-19T14:36:38:410
2312125,000000	2020-11-19T14:36:38:451
2310864,000000	2020-11-19T14:36:38:490
2310300,000000	2020-11-19T14:36:38:532
2309746,000000	2020-11-19T14:36:38:571
2307513,000000	2020-11-19T14:36:38:613
2305296,000000	2020-11-19T14:36:38:651
2302232,000000	2020-11-19T14:36:38:692
2299624,000000	2020-11-19T14:36:38:731
2296958,000000	2020-11-19T14:36:38:772
2294276,000000	2020-11-19T14:36:38:811
2292017,000000	2020-11-19T14:36:38:852
2288005,000000	2020-11-19T14:36:38:891
2280309,000000	2020-11-19T14:36:38:932
2272190,000000	2020-11-19T14:36:38:971
2264719,000000	2020-11-19T14:36:39:012
2259800,000000	2020-11-19T14:36:39:051
2255343,000000	2020-11-19T14:36:39:092
2251896,000000	2020-11-19T14:36:39:131
2248857,000000	2020-11-19T14:36:39:172
2245632,000000	2020-11-19T14:36:39:211
2242146,000000	2020-11-19T14:36:39:252
2237364,000000	2020-11-19T14:36:39:291
2232158,000000	2020-11-19T14:36:39:333
2227040,000000	2020-11-19T14:36:39:371
2222200,000000	2020-11-19T14:36:39:412
2218313,000000	2020-11-19T14:36:39:451
2215289,000000	2020-11-19T14:36:39:495
2210035,000000	2020-11-19T14:36:39:531
2203978,000000	2020-11-19T14:36:39:572
2197158,000000	2020-11-19T14:36:39:611
2191836,000000	2020-11-19T14:36:39:652
2187185,000000	2020-11-19T14:36:39:691
2183538,000000	2020-11-19T14:36:39:733
2180471,000000	2020-11-19T14:36:39:772
2177415,000000	2020-11-19T14:36:39:813
2173761,000000	2020-11-19T14:36:39:852
2170065,000000	2020-11-19T14:36:39:893
2167490,000000	2020-11-19T14:36:39:942
2164707,000000	2020-11-19T14:36:39:973
2162118,000000	2020-11-19T14:36:40:012
2158930,000000	2020-11-19T14:36:40:053
2156345,000000	2020-11-19T14:36:40:092
2151668,000000	2020-11-19T14:36:40:133
2144729,000000	2020-11-19T14:36:40:172
2137079,000000	2020-11-19T14:36:40:213
2131546,000000	2020-11-19T14:36:40:252
2127587,000000	2020-11-19T14:36:40:293
2125028,000000	2020-11-19T14:36:40:333
2122491,000000	2020-11-19T14:36:40:373
2119505,000000	2020-11-19T14:36:40:412
2114997,000000	2020-11-19T14:36:40:453
2111082,000000	2020-11-19T14:36:40:492
2107317,000000	2020-11-19T14:36:40:534
2102239,000000	2020-11-19T14:36:40:575
2098613,000000	2020-11-19T14:36:40:613
2095323,000000	2020-11-19T14:36:40:653
2092800,000000	2020-11-19T14:36:40:693
2090853,000000	2020-11-19T14:36:40:733
2088254,000000	2020-11-19T14:36:40:773
2083566,000000	2020-11-19T14:36:40:813
2078893,000000	2020-11-19T14:36:40:853
2075173,000000	2020-11-19T14:36:40:893
2072590,000000	2020-11-19T14:36:40:935
2071521,000000	2020-11-19T14:36:40:973
2069968,000000	2020-11-19T14:36:41:014
2068103,000000	2020-11-19T14:36:41:053
2063616,000000	2020-11-19T14:36:41:094
2057253,000000	2020-11-19T14:36:41:133
2051031,000000	2020-11-19T14:36:41:174
2049377,000000	2020-11-19T14:36:41:213
2052403,000000	2020-11-19T14:36:41:254
2067628,000000	2020-11-19T14:36:41:293
2077897,000000	2020-11-19T14:36:41:334
2085760,000000	2020-11-19T14:36:41:373
2089321,000000	2020-11-19T14:36:41:415
2090156,000000	2020-11-19T14:36:41:458
2092154,000000	2020-11-19T14:36:41:494
2093022,000000	2020-11-19T14:36:41:534
2091885,000000	2020-11-19T14:36:41:574
2087711,000000	2020-11-19T14:36:41:613
2083717,000000	2020-11-19T14:36:41:654
2081127,000000	2020-11-19T14:36:41:693
2079850,000000	2020-11-19T14:36:41:735
2077519,000000	2020-11-19T14:36:41:774
2074957,000000	2020-11-19T14:36:41:814
2072415,000000	2020-11-19T14:36:41:854
2071884,000000	2020-11-19T14:36:41:895
2073605,000000	2020-11-19T14:36:41:936
2076548,000000	2020-11-19T14:36:41:975
2079660,000000	2020-11-19T14:36:42:014
2083672,000000	2020-11-19T14:36:42:055
2083783,000000	2020-11-19T14:36:42:094
2084207,000000	2020-11-19T14:36:42:135
2088520,000000	2020-11-19T14:36:42:174
2094565,000000	2020-11-19T14:36:42:215
2099479,000000	2020-11-19T14:36:42:254
2105369,000000	2020-11-19T14:36:42:295
2112472,000000	2020-11-19T14:36:42:334
2118722,000000	2020-11-19T14:36:42:375
2124825,000000	2020-11-19T14:36:42:414
2130452,000000	2020-11-19T14:36:42:455
2137523,000000	2020-11-19T14:36:42:495
2145058,000000	2020-11-19T14:36:42:535
2154018,000000	2020-11-19T14:36:42:574
2161971,000000	2020-11-19T14:36:42:615
2167985,000000	2020-11-19T14:36:42:655
2171485,000000	2020-11-19T14:36:42:696
2173929,000000	2020-11-19T14:36:42:736
2174601,000000	2020-11-19T14:36:42:775
2173813,000000	2020-11-19T14:36:42:815
2174183,000000	2020-11-19T14:36:42:856
2175137,000000	2020-11-19T14:36:42:895
2177703,000000	2020-11-19T14:36:42:936
2179430,000000	2020-11-19T14:36:42:975
2181389,000000	2020-11-19T14:36:43:015
2182730,000000	2020-11-19T14:36:43:055
2183577,000000	2020-11-19T14:36:43:096
2185496,000000	2020-11-19T14:36:43:136
2187248,000000	2020-11-19T14:36:43:177
2188776,000000	2020-11-19T14:36:43:215
2190944,000000	2020-11-19T14:36:43:256
2191674,000000	2020-11-19T14:36:43:295
2191903,000000	2020-11-19T14:36:43:337
2190686,000000	2020-11-19T14:36:43:375
2187731,000000	2020-11-19T14:36:43:417
2186062,000000	2020-11-19T14:36:43:455
2184977,000000	2020-11-19T14:36:43:496
2182991,000000	2020-11-19T14:36:43:535
2181262,000000	2020-11-19T14:36:43:576
2179869,000000	2020-11-19T14:36:43:615
2177796,000000	2020-11-19T14:36:43:657
2175583,000000	2020-11-19T14:36:43:696
2172618,000000	2020-11-19T14:36:43:736
2169295,000000	2020-11-19T14:36:43:778
2166357,000000	2020-11-19T14:36:43:816
2164952,000000	2020-11-19T14:36:43:855
2164497,000000	2020-11-19T14:36:43:897
2166477,000000	2020-11-19T14:36:43:936
2167993,000000	2020-11-19T14:36:43:977
2166113,000000	2020-11-19T14:36:44:016
2163437,000000	2020-11-19T14:36:44:057
2160107,000000	2020-11-19T14:36:44:096
2156417,000000	2020-11-19T14:36:44:137
2153804,000000	2020-11-19T14:36:44:176
2152945,000000	2020-11-19T14:36:44:216
2153264,000000	2020-11-19T14:36:44:256
2152803,000000	2020-11-19T14:36:44:296
2148541,000000	2020-11-19T14:36:44:337
2148541,000000	2020-11-19T14:36:44:376
2146004,000000	2020-11-19T14:36:44:417
2145828,000000	2020-11-19T14:36:44:458
2146744,000000	2020-11-19T14:36:44:497
2147038,000000	2020-11-19T14:36:44:538
2147754,000000	2020-11-19T14:36:44:576
2148968,000000	2020-11-19T14:36:44:618
2149002,000000	2020-11-19T14:36:44:657
2146282,000000	2020-11-19T14:36:44:697
2142683,000000	2020-11-19T14:36:44:737
2139792,000000	2020-11-19T14:36:44:777
2137105,000000	2020-11-19T14:36:44:816
2136044,000000	2020-11-19T14:36:44:857
2135672,000000	2020-11-19T14:36:44:896
2134128,000000	2020-11-19T14:36:44:937
2131969,000000	2020-11-19T14:36:44:976
2130522,000000	2020-11-19T14:36:45:017
2129723,000000	2020-11-19T14:36:45:056
2129418,000000	2020-11-19T14:36:45:098
2129944,000000	2020-11-19T14:36:45:137
2130180,000000	2020-11-19T14:36:45:178
2130545,000000	2020-11-19T14:36:45:217
2130876,000000	2020-11-19T14:36:45:258
2130220,000000	2020-11-19T14:36:45:297
2129002,000000	2020-11-19T14:36:45:338
2125335,000000	2020-11-19T14:36:45:377
2119091,000000	2020-11-19T14:36:45:418
2114325,000000	2020-11-19T14:36:45:457
2111184,000000	2020-11-19T14:36:45:498
2110338,000000	2020-11-19T14:36:45:538
2109415,000000	2020-11-19T14:36:45:579
2106854,000000	2020-11-19T14:36:45:617
2102614,000000	2020-11-19T14:36:45:659
2097615,000000	2020-11-19T14:36:45:697
2093716,000000	2020-11-19T14:36:45:739
2091639,000000	2020-11-19T14:36:45:778
2089668,000000	2020-11-19T14:36:45:819
2088159,000000	2020-11-19T14:36:45:858
2087498,000000	2020-11-19T14:36:45:899
2087503,000000	2020-11-19T14:36:45:938
2088192,000000	2020-11-19T14:36:45:979
2088592,000000	2020-11-19T14:36:46:018
2088494,000000	2020-11-19T14:36:46:059
2084664,000000	2020-11-19T14:36:46:098
2080619,000000	2020-11-19T14:36:46:139
2077487,000000	2020-11-19T14:36:46:179
2075934,000000	2020-11-19T14:36:46:219
2075408,000000	2020-11-19T14:36:46:258
2075409,000000	2020-11-19T14:36:46:300
2075948,000000	2020-11-19T14:36:46:339
2075367,000000	2020-11-19T14:36:46:379
2075338,000000	2020-11-19T14:36:46:419
2075696,000000	2020-11-19T14:36:46:460
2076064,000000	2020-11-19T14:36:46:498
2076855,000000	2020-11-19T14:36:46:540
2077585,000000	2020-11-19T14:36:46:579
2077652,000000	2020-11-19T14:36:46:619
2078510,000000	2020-11-19T14:36:46:659
2079196,000000	2020-11-19T14:36:46:700
2078412,000000	2020-11-19T14:36:46:739
2074110,000000	2020-11-19T14:36:46:780
2071056,000000	2020-11-19T14:36:46:819
2068659,000000	2020-11-19T14:36:46:859
2066743,000000	2020-11-19T14:36:46:899
2065941,000000	2020-11-19T14:36:46:942
2065765,000000	2020-11-19T14:36:46:979
2064451,000000	2020-11-19T14:36:47:021
2062112,000000	2020-11-19T14:36:47:059
2058768,000000	2020-11-19T14:36:47:100
2055560,000000	2020-11-19T14:36:47:139
2053158,000000	2020-11-19T14:36:47:180
2051183,000000	2020-11-19T14:36:47:219
2049285,000000	2020-11-19T14:36:47:260
2047181,000000	2020-11-19T14:36:47:300
2045794,000000	2020-11-19T14:36:47:340
2043598,000000	2020-11-19T14:36:47:379
2037854,000000	2020-11-19T14:36:47:420
2029566,000000	2020-11-19T14:36:47:459
2022125,000000	2020-11-19T14:36:47:501
2016734,000000	2020-11-19T14:36:47:540
2013006,000000	2020-11-19T14:36:47:580
2011377,000000	2020-11-19T14:36:47:619
2011119,000000	2020-11-19T14:36:47:661
2011996,000000	2020-11-19T14:36:47:700
2013702,000000	2020-11-19T14:36:47:741
2017712,000000	2020-11-19T14:36:47:780
2021455,000000	2020-11-19T14:36:47:820
2025218,000000	2020-11-19T14:36:47:860
2027466,000000	2020-11-19T14:36:47:901
2028962,000000	2020-11-19T14:36:47:940
2028132,000000	2020-11-19T14:36:47:981
2025990,000000	2020-11-19T14:36:48:020
2022362,000000	2020-11-19T14:36:48:061
2015546,000000	2020-11-19T14:36:48:100
2007884,000000	2020-11-19T14:36:48:141
2001932,000000	2020-11-19T14:36:48:180
1997761,000000	2020-11-19T14:36:48:223
1995393,000000	2020-11-19T14:36:48:260
1993626,000000	2020-11-19T14:36:48:301
1992217,000000	2020-11-19T14:36:48:340
1989342,000000	2020-11-19T14:36:48:381
1984676,000000	2020-11-19T14:36:48:421
1980151,000000	2020-11-19T14:36:48:461
1975863,000000	2020-11-19T14:36:48:501
1972783,000000	2020-11-19T14:36:48:542
1969490,000000	2020-11-19T14:36:48:581
1966847,000000	2020-11-19T14:36:48:622
1964228,000000	2020-11-19T14:36:48:661
1961500,000000	2020-11-19T14:36:48:702
1954309,000000	2020-11-19T14:36:48:741
1945484,000000	2020-11-19T14:36:48:782
1937478,000000	2020-11-19T14:36:48:821
1930632,000000	2020-11-19T14:36:48:862
1926709,000000	2020-11-19T14:36:48:901
1923198,000000	2020-11-19T14:36:48:943
1920979,000000	2020-11-19T14:36:48:981
1918040,000000	2020-11-19T14:36:49:022
1914444,000000	2020-11-19T14:36:49:061
1911231,000000	2020-11-19T14:36:49:102
1909536,000000	2020-11-19T14:36:49:142
1909514,000000	2020-11-19T14:36:49:182
1911821,000000	2020-11-19T14:36:49:221
1914720,000000	2020-11-19T14:36:49:262
1917337,000000	2020-11-19T14:36:49:301
1917507,000000	2020-11-19T14:36:49:343
1912279,000000	2020-11-19T14:36:49:381
1905701,000000	2020-11-19T14:36:49:423
1900216,000000	2020-11-19T14:36:49:462
1896469,000000	2020-11-19T14:36:49:502
1895101,000000	2020-11-19T14:36:49:542
1894181,000000	2020-11-19T14:36:49:583
1894036,000000	2020-11-19T14:36:49:621
1892609,000000	2020-11-19T14:36:49:663
1891009,000000	2020-11-19T14:36:49:702
1888896,000000	2020-11-19T14:36:49:743
1886704,000000	2020-11-19T14:36:49:782
1883930,000000	2020-11-19T14:36:49:823
1881107,000000	2020-11-19T14:36:49:862
1877563,000000	2020-11-19T14:36:49:903
1873169,000000	2020-11-19T14:36:49:943
1866224,000000	2020-11-19T14:36:49:982
1857273,000000	2020-11-19T14:36:50:022
1848887,000000	2020-11-19T14:36:50:063
1843194,000000	2020-11-19T14:36:50:102
1840246,000000	2020-11-19T14:36:50:144
1838697,000000	2020-11-19T14:36:50:182
1838447,000000	2020-11-19T14:36:50:223
1836700,000000	2020-11-19T14:36:50:262
1833143,000000	2020-11-19T14:36:50:303
1830420,000000	2020-11-19T14:36:50:342
1828258,000000	2020-11-19T14:36:50:383
1828024,000000	2020-11-19T14:36:50:422
1828281,000000	2020-11-19T14:36:50:463
1826431,000000	2020-11-19T14:36:50:502
1821039,000000	2020-11-19T14:36:50:544
1815075,000000	2020-11-19T14:36:50:598
1810107,000000	2020-11-19T14:36:50:623
1806148,000000	2020-11-19T14:36:50:663
1804280,000000	2020-11-19T14:36:50:703
1803265,000000	2020-11-19T14:36:50:743
1802521,000000	2020-11-19T14:36:50:783
1803188,000000	2020-11-19T14:36:50:822
1804352,000000	2020-11-19T14:36:50:864
1805401,000000	2020-11-19T14:36:50:903
1805614,000000	2020-11-19T14:36:50:944
1804587,000000	2020-11-19T14:36:50:983
1803725,000000	2020-11-19T14:36:51:024
1802637,000000	2020-11-19T14:36:51:063
1801978,000000	2020-11-19T14:36:51:104
1799751,000000	2020-11-19T14:36:51:143
1795458,000000	2020-11-19T14:36:51:183
1792983,000000	2020-11-19T14:36:51:223
1792030,000000	2020-11-19T14:36:51:264
1791320,000000	2020-11-19T14:36:51:303
1792088,000000	2020-11-19T14:36:51:345
1793362,000000	2020-11-19T14:36:51:383
1795519,000000	2020-11-19T14:36:51:425
1797617,000000	2020-11-19T14:36:51:463
1799142,000000	2020-11-19T14:36:51:504
1799802,000000	2020-11-19T14:36:51:543
1799766,000000	2020-11-19T14:36:51:584
1799697,000000	2020-11-19T14:36:51:623
1800372,000000	2020-11-19T14:36:51:664
1801502,000000	2020-11-19T14:36:51:703
1801291,000000	2020-11-19T14:36:51:745
1799668,000000	2020-11-19T14:36:51:783
1798977,000000	2020-11-19T14:36:51:825
1803308,000000	2020-11-19T14:36:51:864
1811157,000000	2020-11-19T14:36:51:904
1816714,000000	2020-11-19T14:36:51:945
1819271,000000	2020-11-19T14:36:51:985
1819444,000000	2020-11-19T14:36:52:023
1819378,000000	2020-11-19T14:36:52:065
1819227,000000	2020-11-19T14:36:52:104
1819109,000000	2020-11-19T14:36:52:145
1819039,000000	2020-11-19T14:36:52:184
1819271,000000	2020-11-19T14:36:52:225
1819199,000000	2020-11-19T14:36:52:264
1818351,000000	2020-11-19T14:36:52:305
1815909,000000	2020-11-19T14:36:52:345
1813371,000000	2020-11-19T14:36:52:385
1811192,000000	2020-11-19T14:36:52:424
1810186,000000	2020-11-19T14:36:52:465
1810011,000000	2020-11-19T14:36:52:504
1809557,000000	2020-11-19T14:36:52:546
1809275,000000	2020-11-19T14:36:52:584
1809307,000000	2020-11-19T14:36:52:625
1809001,000000	2020-11-19T14:36:52:665
1808710,000000	2020-11-19T14:36:52:705
1808783,000000	2020-11-19T14:36:52:744
1808978,000000	2020-11-19T14:36:52:785
1808820,000000	2020-11-19T14:36:52:825
1807918,000000	2020-11-19T14:36:52:865
1805388,000000	2020-11-19T14:36:52:904
1803288,000000	2020-11-19T14:36:52:946
1801532,000000	2020-11-19T14:36:52:985
1801016,000000	2020-11-19T14:36:53:025
1801019,000000	2020-11-19T14:36:53:065
1801191,000000	2020-11-19T14:36:53:105
1801295,000000	2020-11-19T14:36:53:146
1801516,000000	2020-11-19T14:36:53:186
1802422,000000	2020-11-19T14:36:53:225
1803076,000000	2020-11-19T14:36:53:266
1803862,000000	2020-11-19T14:36:53:305
1804582,000000	2020-11-19T14:36:53:346
1804159,000000	2020-11-19T14:36:53:385
1803645,000000	2020-11-19T14:36:53:426
1801158,000000	2020-11-19T14:36:53:465
1798861,000000	2020-11-19T14:36:53:506
1797533,000000	2020-11-19T14:36:53:546
1796360,000000	2020-11-19T14:36:53:586
1795360,000000	2020-11-19T14:36:53:625
1795121,000000	2020-11-19T14:36:53:666
1794510,000000	2020-11-19T14:36:53:705
1794423,000000	2020-11-19T14:36:53:747
1794581,000000	2020-11-19T14:36:53:785
1794568,000000	2020-11-19T14:36:53:826
1794457,000000	2020-11-19T14:36:53:865
1794682,000000	2020-11-19T14:36:53:907
1795050,000000	2020-11-19T14:36:53:946
1795394,000000	2020-11-19T14:36:53:987
1794606,000000	2020-11-19T14:36:54:026
1792094,000000	2020-11-19T14:36:54:066
1790062,000000	2020-11-19T14:36:54:106
1788540,000000	2020-11-19T14:36:54:147
1787278,000000	2020-11-19T14:36:54:186
1786473,000000	2020-11-19T14:36:54:227
1785919,000000	2020-11-19T14:36:54:265
1785128,000000	2020-11-19T14:36:54:306
1783900,000000	2020-11-19T14:36:54:346
1783162,000000	2020-11-19T14:36:54:387
1782441,000000	2020-11-19T14:36:54:426
1782583,000000	2020-11-19T14:36:54:467
1782523,000000	2020-11-19T14:36:54:506
1783389,000000	2020-11-19T14:36:54:548
1783422,000000	2020-11-19T14:36:54:586
1782770,000000	2020-11-19T14:36:54:627
1782306,000000	2020-11-19T14:36:54:666
1781674,000000	2020-11-19T14:36:54:708
1781191,000000	2020-11-19T14:36:54:747
1781507,000000	2020-11-19T14:36:54:787
1780609,000000	2020-11-19T14:36:54:826
1779975,000000	2020-11-19T14:36:54:867
1779001,000000	2020-11-19T14:36:54:906
1778613,000000	2020-11-19T14:36:54:948
1777123,000000	2020-11-19T14:36:54:987
1775949,000000	2020-11-19T14:36:55:027
1774664,000000	2020-11-19T14:36:55:066
1773690,000000	2020-11-19T14:36:55:107
1772728,000000	2020-11-19T14:36:55:147
1772152,000000	2020-11-19T14:36:55:188
1770891,000000	2020-11-19T14:36:55:227
1769019,000000	2020-11-19T14:36:55:268
1767770,000000	2020-11-19T14:36:55:307
1767527,000000	2020-11-19T14:36:55:349
1767367,000000	2020-11-19T14:36:55:387
1767370,000000	2020-11-19T14:36:55:428
1766751,000000	2020-11-19T14:36:55:467
1765876,000000	2020-11-19T14:36:55:507
1765170,000000	2020-11-19T14:36:55:547
1764072,000000	2020-11-19T14:36:55:588
1762343,000000	2020-11-19T14:36:55:627
1761440,000000	2020-11-19T14:36:55:669
1760485,000000	2020-11-19T14:36:55:707
1760097,000000	2020-11-19T14:36:55:748
1760049,000000	2020-11-19T14:36:55:787
1758850,000000	2020-11-19T14:36:55:829
1757049,000000	2020-11-19T14:36:55:867
1755028,000000	2020-11-19T14:36:55:909
1753593,000000	2020-11-19T14:36:55:948
1752665,000000	2020-11-19T14:36:55:988
1751598,000000	2020-11-19T14:36:56:027
1750797,000000	2020-11-19T14:36:56:069
1750470,000000	2020-11-19T14:36:56:107
1750202,000000	2020-11-19T14:36:56:149
1750185,000000	2020-11-19T14:36:56:188
1749691,000000	2020-11-19T14:36:56:229
1748993,000000	2020-11-19T14:36:56:268
1748810,000000	2020-11-19T14:36:56:309
1749500,000000	2020-11-19T14:36:56:348
1750094,000000	2020-11-19T14:36:56:389
1749604,000000	2020-11-19T14:36:56:429
1747796,000000	2020-11-19T14:36:56:468
1746224,000000	2020-11-19T14:36:56:508
1745395,000000	2020-11-19T14:36:56:550
1743123,000000	2020-11-19T14:36:56:588
1741118,000000	2020-11-19T14:36:56:629
1739468,000000	2020-11-19T14:36:56:668
1737837,000000	2020-11-19T14:36:56:709
1736341,000000	2020-11-19T14:36:56:748
1736209,000000	2020-11-19T14:36:56:789
1736891,000000	2020-11-19T14:36:56:828
1737139,000000	2020-11-19T14:36:56:869
1736245,000000	2020-11-19T14:36:56:908
1733195,000000	2020-11-19T14:36:56:951
1730413,000000	2020-11-19T14:36:56:988
1727397,000000	2020-11-19T14:36:57:029
1724938,000000	2020-11-19T14:36:57:068
1724665,000000	2020-11-19T14:36:57:110
1726191,000000	2020-11-19T14:36:57:149
1728056,000000	2020-11-19T14:36:57:189
1729627,000000	2020-11-19T14:36:57:228
1730635,000000	2020-11-19T14:36:57:270
1732321,000000	2020-11-19T14:36:57:309
1733446,000000	2020-11-19T14:36:57:350
1735014,000000	2020-11-19T14:36:57:389
1735047,000000	2020-11-19T14:36:57:430
1736470,000000	2020-11-19T14:36:57:469
1739354,000000	2020-11-19T14:36:57:510
1740225,000000	2020-11-19T14:36:57:549
1737500,000000	2020-11-19T14:36:57:590
1734966,000000	2020-11-19T14:36:57:630
1735020,000000	2020-11-19T14:36:57:670
1739264,000000	2020-11-19T14:36:57:709
1745137,000000	2020-11-19T14:36:57:751
1750979,000000	2020-11-19T14:36:57:789
1755338,000000	2020-11-19T14:36:57:830
1757550,000000	2020-11-19T14:36:57:869
1759373,000000	2020-11-19T14:36:57:910
1760151,000000	2020-11-19T14:36:57:950
1762361,000000	2020-11-19T14:36:57:990
1764845,000000	2020-11-19T14:36:58:029
1767080,000000	2020-11-19T14:36:58:071
1767908,000000	2020-11-19T14:36:58:110
1768488,000000	2020-11-19T14:36:58:151
1769367,000000	2020-11-19T14:36:58:190
1770723,000000	2020-11-19T14:36:58:231
1771349,000000	2020-11-19T14:36:58:269
1771948,000000	2020-11-19T14:36:58:311
1773184,000000	2020-11-19T14:36:58:350
1774810,000000	2020-11-19T14:36:58:391
1775686,000000	2020-11-19T14:36:58:430
1775695,000000	2020-11-19T14:36:58:471
1774298,000000	2020-11-19T14:36:58:510
1773227,000000	2020-11-19T14:36:58:551
1772357,000000	2020-11-19T14:36:58:591
1771275,000000	2020-11-19T14:36:58:631
1770021,000000	2020-11-19T14:36:58:670
1769182,000000	2020-11-19T14:36:58:711
1767372,000000	2020-11-19T14:36:58:751
1766802,000000	2020-11-19T14:36:58:791
1766317,000000	2020-11-19T14:36:58:830
1765901,000000	2020-11-19T14:36:58:871
1765030,000000	2020-11-19T14:36:58:910
1763614,000000	2020-11-19T14:36:58:952
1761420,000000	2020-11-19T14:36:58:990
1760125,000000	2020-11-19T14:36:59:031
1758408,000000	2020-11-19T14:36:59:070
1758150,000000	2020-11-19T14:36:59:111
1758468,000000	2020-11-19T14:36:59:151
1758390,000000	2020-11-19T14:36:59:191
1759469,000000	2020-11-19T14:36:59:230
1762248,000000	2020-11-19T14:36:59:272
1764722,000000	2020-11-19T14:36:59:311
1764919,000000	2020-11-19T14:36:59:352
1764228,000000	2020-11-19T14:36:59:391
1763249,000000	2020-11-19T14:36:59:432
1762560,000000	2020-11-19T14:36:59:471
1762718,000000	2020-11-19T14:36:59:512
1762035,000000	2020-11-19T14:36:59:552
1759631,000000	2020-11-19T14:36:59:591
1757047,000000	2020-11-19T14:36:59:631
1754875,000000	2020-11-19T14:36:59:672
1752871,000000	2020-11-19T14:36:59:711
1750476,000000	2020-11-19T14:36:59:752
1748305,000000	2020-11-19T14:36:59:791
1745985,000000	2020-11-19T14:36:59:832
1742998,000000	2020-11-19T14:36:59:871
1739812,000000	2020-11-19T14:36:59:912
1737074,000000	2020-11-19T14:36:59:951
1735430,000000	2020-11-19T14:36:59:992
1733666,000000	2020-11-19T14:37:00:031
1733029,000000	2020-11-19T14:37:00:072
1732190,000000	2020-11-19T14:37:00:111
1731125,000000	2020-11-19T14:37:00:153
1729821,000000	2020-11-19T14:37:00:192
1728484,000000	2020-11-19T14:37:00:233
1726359,000000	2020-11-19T14:37:00:272
1724871,000000	2020-11-19T14:37:00:312
1723682,000000	2020-11-19T14:37:00:352
1723314,000000	2020-11-19T14:37:00:392
1723401,000000	2020-11-19T14:37:00:431
1722848,000000	2020-11-19T14:37:00:473
1721479,000000	2020-11-19T14:37:00:512
1720197,000000	2020-11-19T14:37:00:553
1719564,000000	2020-11-19T14:37:00:598
1720629,000000	2020-11-19T14:37:00:633
1720691,000000	2020-11-19T14:37:00:673
1719267,000000	2020-11-19T14:37:00:713
1716759,000000	2020-11-19T14:37:00:753
1714589,000000	2020-11-19T14:37:00:793
1712941,000000	2020-11-19T14:37:00:832
1712413,000000	2020-11-19T14:37:00:873
1711869,000000	2020-11-19T14:37:00:912
1711033,000000	2020-11-19T14:37:00:954
1708418,000000	2020-11-19T14:37:00:992
1707369,000000	2020-11-19T14:37:01:033
1704854,000000	2020-11-19T14:37:01:072
1703068,000000	2020-11-19T14:37:01:114
1701773,000000	2020-11-19T14:37:01:153
1700776,000000	2020-11-19T14:37:01:193
1700004,000000	2020-11-19T14:37:01:232
1699010,000000	2020-11-19T14:37:01:273
1697293,000000	2020-11-19T14:37:01:313
1695530,000000	2020-11-19T14:37:01:354
1694073,000000	2020-11-19T14:37:01:392
1692924,000000	2020-11-19T14:37:01:435
1692645,000000	2020-11-19T14:37:01:473
1692229,000000	2020-11-19T14:37:01:514
1692362,000000	2020-11-19T14:37:01:552
1691338,000000	2020-11-19T14:37:01:593
1689094,000000	2020-11-19T14:37:01:633
1686226,000000	2020-11-19T14:37:01:675
1685001,000000	2020-11-19T14:37:01:713
1683821,000000	2020-11-19T14:37:01:754
1682577,000000	2020-11-19T14:37:01:793
1682798,000000	2020-11-19T14:37:01:834
1681949,000000	2020-11-19T14:37:01:873
1679265,000000	2020-11-19T14:37:01:915
1677614,000000	2020-11-19T14:37:01:955
1676333,000000	2020-11-19T14:37:01:994
1676272,000000	2020-11-19T14:37:02:033
1676133,000000	2020-11-19T14:37:02:075
1675542,000000	2020-11-19T14:37:02:113
1674300,000000	2020-11-19T14:37:02:155
1672751,000000	2020-11-19T14:37:02:194
1670987,000000	2020-11-19T14:37:02:234
1669597,000000	2020-11-19T14:37:02:273
1668805,000000	2020-11-19T14:37:02:315
1667997,000000	2020-11-19T14:37:02:354
1667116,000000	2020-11-19T14:37:02:395
1665781,000000	2020-11-19T14:37:02:434
1664114,000000	2020-11-19T14:37:02:475
1662462,000000	2020-11-19T14:37:02:514
1660560,000000	2020-11-19T14:37:02:555
1659195,000000	2020-11-19T14:37:02:595
1657832,000000	2020-11-19T14:37:02:635
1655970,000000	2020-11-19T14:37:02:674
1654822,000000	2020-11-19T14:37:02:715
1653367,000000	2020-11-19T14:37:02:755
1651484,000000	2020-11-19T14:37:02:795
1649786,000000	2020-11-19T14:37:02:834
1648395,000000	2020-11-19T14:37:02:875
1646992,000000	2020-11-19T14:37:02:914
1645794,000000	2020-11-19T14:37:02:954
1644956,000000	2020-11-19T14:37:02:994
1643715,000000	2020-11-19T14:37:03:035
1642245,000000	2020-11-19T14:37:03:074
1640726,000000	2020-11-19T14:37:03:116
1638673,000000	2020-11-19T14:37:03:155
1637518,000000	2020-11-19T14:37:03:195
1638314,000000	2020-11-19T14:37:03:235
1640352,000000	2020-11-19T14:37:03:275
1640746,000000	2020-11-19T14:37:03:314
1640095,000000	2020-11-19T14:37:03:356
1638483,000000	2020-11-19T14:37:03:395
1637554,000000	2020-11-19T14:37:03:435
1636757,000000	2020-11-19T14:37:03:475
1636009,000000	2020-11-19T14:37:03:516
1636473,000000	2020-11-19T14:37:03:555
1638445,000000	2020-11-19T14:37:03:595
1640891,000000	2020-11-19T14:37:03:635
1642450,000000	2020-11-19T14:37:03:675
1643476,000000	2020-11-19T14:37:03:714
1645674,000000	2020-11-19T14:37:03:757
1645674,000000	2020-11-19T14:37:03:794
1646812,000000	2020-11-19T14:37:03:837
1646597,000000	2020-11-19T14:37:03:876
1645294,000000	2020-11-19T14:37:03:917
1642024,000000	2020-11-19T14:37:03:956
1640108,000000	2020-11-19T14:37:03:997
1638934,000000	2020-11-19T14:37:04:035
1637982,000000	2020-11-19T14:37:04:150
1636635,000000	2020-11-19T14:37:04:157
1634680,000000	2020-11-19T14:37:04:159
1632356,000000	2020-11-19T14:37:04:195
1630115,000000	2020-11-19T14:37:04:236
1627432,000000	2020-11-19T14:37:04:275
1625897,000000	2020-11-19T14:37:04:316
1623979,000000	2020-11-19T14:37:04:355
1621918,000000	2020-11-19T14:37:04:396
1619390,000000	2020-11-19T14:37:04:436
1616877,000000	2020-11-19T14:37:04:476
1614901,000000	2020-11-19T14:37:04:515
1614372,000000	2020-11-19T14:37:04:557
1617278,000000	2020-11-19T14:37:04:595
1621505,000000	2020-11-19T14:37:04:637
1626495,000000	2020-11-19T14:37:04:675
1631026,000000	2020-11-19T14:37:04:716
1633699,000000	2020-11-19T14:37:04:756
1633274,000000	2020-11-19T14:37:04:797
1632622,000000	2020-11-19T14:37:04:835
1632250,000000	2020-11-19T14:37:04:877
1632098,000000	2020-11-19T14:37:04:916
1631859,000000	2020-11-19T14:37:04:957
1630960,000000	2020-11-19T14:37:04:996
1629115,000000	2020-11-19T14:37:05:037
1625883,000000	2020-11-19T14:37:05:076
1622959,000000	2020-11-19T14:37:05:117
1620413,000000	2020-11-19T14:37:05:157
1617680,000000	2020-11-19T14:37:05:198
1615924,000000	2020-11-19T14:37:05:237
1614253,000000	2020-11-19T14:37:05:278
1612093,000000	2020-11-19T14:37:05:317
1609862,000000	2020-11-19T14:37:05:357
1606767,000000	2020-11-19T14:37:05:397
1604223,000000	2020-11-19T14:37:05:438
1602475,000000	2020-11-19T14:37:05:477
1600978,000000	2020-11-19T14:37:05:518
1600129,000000	2020-11-19T14:37:05:558
1600138,000000	2020-11-19T14:37:05:598
1597915,000000	2020-11-19T14:37:05:637
1595043,000000	2020-11-19T14:37:05:679
1593549,000000	2020-11-19T14:37:05:717
1592818,000000	2020-11-19T14:37:05:759
1591976,000000	2020-11-19T14:37:05:797
1591844,000000	2020-11-19T14:37:05:838
1591499,000000	2020-11-19T14:37:05:877
1592183,000000	2020-11-19T14:37:05:919
1592352,000000	2020-11-19T14:37:05:957
1591927,000000	2020-11-19T14:37:05:998
1592140,000000	2020-11-19T14:37:06:037
1593050,000000	2020-11-19T14:37:06:078
1596759,000000	2020-11-19T14:37:06:118
1601378,000000	2020-11-19T14:37:06:159
1605602,000000	2020-11-19T14:37:06:198
1606924,000000	2020-11-19T14:37:06:239
1604565,000000	2020-11-19T14:37:06:277
1601507,000000	2020-11-19T14:37:06:319
1598101,000000	2020-11-19T14:37:06:358
1596414,000000	2020-11-19T14:37:06:398
1594022,000000	2020-11-19T14:37:06:439
1591270,000000	2020-11-19T14:37:06:479
1587861,000000	2020-11-19T14:37:06:518
1584796,000000	2020-11-19T14:37:06:559
1582790,000000	2020-11-19T14:37:06:597
1581358,000000	2020-11-19T14:37:06:639
1581151,000000	2020-11-19T14:37:06:678
1580927,000000	2020-11-19T14:37:06:719
1580047,000000	2020-11-19T14:37:06:758
1579894,000000	2020-11-19T14:37:06:799
1579965,000000	2020-11-19T14:37:06:838
1580522,000000	2020-11-19T14:37:06:879
1580426,000000	2020-11-19T14:37:06:918
1579034,000000	2020-11-19T14:37:06:960
1577926,000000	2020-11-19T14:37:06:998
1576643,000000	2020-11-19T14:37:07:039
1576370,000000	2020-11-19T14:37:07:078
1578454,000000	2020-11-19T14:37:07:119
1581452,000000	2020-11-19T14:37:07:159
1584886,000000	2020-11-19T14:37:07:199
1587332,000000	2020-11-19T14:37:07:239
1589442,000000	2020-11-19T14:37:07:279
1591844,000000	2020-11-19T14:37:07:319
1594535,000000	2020-11-19T14:37:07:360
1597306,000000	2020-11-19T14:37:07:398
1598038,000000	2020-11-19T14:37:07:440
1599212,000000	2020-11-19T14:37:07:479
1601738,000000	2020-11-19T14:37:07:520
1603378,000000	2020-11-19T14:37:07:559
1601860,000000	2020-11-19T14:37:07:600
1598514,000000	2020-11-19T14:37:07:639
1594853,000000	2020-11-19T14:37:07:680
1592593,000000	2020-11-19T14:37:07:719
1591345,000000	2020-11-19T14:37:07:760
1591101,000000	2020-11-19T14:37:07:799
1591016,000000	2020-11-19T14:37:07:840
1591179,000000	2020-11-19T14:37:07:879
1589749,000000	2020-11-19T14:37:07:920
1589143,000000	2020-11-19T14:37:07:959
1588861,000000	2020-11-19T14:37:08:000
1587675,000000	2020-11-19T14:37:08:039
1585515,000000	2020-11-19T14:37:08:080
1583859,000000	2020-11-19T14:37:08:119
1583397,000000	2020-11-19T14:37:08:161
1583839,000000	2020-11-19T14:37:08:200
1583775,000000	2020-11-19T14:37:08:240
1582594,000000	2020-11-19T14:37:08:279
1583039,000000	2020-11-19T14:37:08:321
1585612,000000	2020-11-19T14:37:08:360
1589157,000000	2020-11-19T14:37:08:401
1596247,000000	2020-11-19T14:37:08:440
1606617,000000	2020-11-19T14:37:08:480
1615616,000000	2020-11-19T14:37:08:520
1621409,000000	2020-11-19T14:37:08:561
1629538,000000	2020-11-19T14:37:08:601
1631750,000000	2020-11-19T14:37:08:641
1633381,000000	2020-11-19T14:37:08:680
1634902,000000	2020-11-19T14:37:08:721
1634972,000000	2020-11-19T14:37:08:760
1634204,000000	2020-11-19T14:37:08:801
1634915,000000	2020-11-19T14:37:08:840
1637108,000000	2020-11-19T14:37:08:881
1637743,000000	2020-11-19T14:37:08:920
1636033,000000	2020-11-19T14:37:08:961
1633163,000000	2020-11-19T14:37:09:000
1630884,000000	2020-11-19T14:37:09:041
1629000,000000	2020-11-19T14:37:09:080
1628010,000000	2020-11-19T14:37:09:123
1627751,000000	2020-11-19T14:37:09:161
1626626,000000	2020-11-19T14:37:09:201
1625085,000000	2020-11-19T14:37:09:240
1623656,000000	2020-11-19T14:37:09:281
1622050,000000	2020-11-19T14:37:09:320
1620983,000000	2020-11-19T14:37:09:362
1620124,000000	2020-11-19T14:37:09:401
1619981,000000	2020-11-19T14:37:09:441
1620401,000000	2020-11-19T14:37:09:480
1621872,000000	2020-11-19T14:37:09:522
1622018,000000	2020-11-19T14:37:09:561
1620179,000000	2020-11-19T14:37:09:601
1619794,000000	2020-11-19T14:37:09:641
1619794,000000	2020-11-19T14:37:09:682
1618875,000000	2020-11-19T14:37:09:721
1617834,000000	2020-11-19T14:37:09:763
1619606,000000	2020-11-19T14:37:09:801
1625166,000000	2020-11-19T14:37:09:842
1628689,000000	2020-11-19T14:37:09:881
1629986,000000	2020-11-19T14:37:09:922
1634165,000000	2020-11-19T14:37:09:961
1639264,000000	2020-11-19T14:37:10:002
1644177,000000	2020-11-19T14:37:10:041
1647793,000000	2020-11-19T14:37:10:083
1650164,000000	2020-11-19T14:37:10:121
1652103,000000	2020-11-19T14:37:10:163
1654546,000000	2020-11-19T14:37:10:202
1655642,000000	2020-11-19T14:37:10:242
1656992,000000	2020-11-19T14:37:10:281
1658526,000000	2020-11-19T14:37:10:323
1661279,000000	2020-11-19T14:37:10:362
1664301,000000	2020-11-19T14:37:10:402
1664624,000000	2020-11-19T14:37:10:442
1665362,000000	2020-11-19T14:37:10:483
1667028,000000	2020-11-19T14:37:10:522
1670691,000000	2020-11-19T14:37:10:563
1674709,000000	2020-11-19T14:37:10:603
1676280,000000	2020-11-19T14:37:10:642
1675107,000000	2020-11-19T14:37:10:683
1674037,000000	2020-11-19T14:37:10:723
1674540,000000	2020-11-19T14:37:10:762
1673253,000000	2020-11-19T14:37:10:803
1673317,000000	2020-11-19T14:37:10:842
1673646,000000	2020-11-19T14:37:10:883
1674386,000000	2020-11-19T14:37:10:922
1678140,000000	2020-11-19T14:37:10:963
1686346,000000	2020-11-19T14:37:11:002
1697065,000000	2020-11-19T14:37:11:043
1701605,000000	2020-11-19T14:37:11:083
1704180,000000	2020-11-19T14:37:11:123
1708531,000000	2020-11-19T14:37:11:163
1716320,000000	2020-11-19T14:37:11:204
1725988,000000	2020-11-19T14:37:11:242
1737515,000000	2020-11-19T14:37:11:284
1748301,000000	2020-11-19T14:37:11:323
1758932,000000	2020-11-19T14:37:11:364
1768353,000000	2020-11-19T14:37:11:403
1776968,000000	2020-11-19T14:37:11:445
1785414,000000	2020-11-19T14:37:11:483
1792127,000000	2020-11-19T14:37:11:524
1798100,000000	2020-11-19T14:37:11:563
1802298,000000	2020-11-19T14:37:11:604
1806191,000000	2020-11-19T14:37:11:643
1810633,000000	2020-11-19T14:37:11:683
1814942,000000	2020-11-19T14:37:11:723
1819502,000000	2020-11-19T14:37:11:765
1823490,000000	2020-11-19T14:37:11:803
1826146,000000	2020-11-19T14:37:11:844
1826659,000000	2020-11-19T14:37:11:883
1826414,000000	2020-11-19T14:37:11:924
1827337,000000	2020-11-19T14:37:11:963
1829600,000000	2020-11-19T14:37:12:005
1831079,000000	2020-11-19T14:37:12:043
1833496,000000	2020-11-19T14:37:12:085
1834937,000000	2020-11-19T14:37:12:124
1834585,000000	2020-11-19T14:37:12:171
1833181,000000	2020-11-19T14:37:12:203
1830182,000000	2020-11-19T14:37:12:245
1829384,000000	2020-11-19T14:37:12:284
1828829,000000	2020-11-19T14:37:12:325
1828764,000000	2020-11-19T14:37:12:364
1828145,000000	2020-11-19T14:37:12:405
1828616,000000	2020-11-19T14:37:12:443
1827649,000000	2020-11-19T14:37:12:485
1826109,000000	2020-11-19T14:37:12:524
1825750,000000	2020-11-19T14:37:12:564
1826293,000000	2020-11-19T14:37:12:604
1828282,000000	2020-11-19T14:37:12:645
1832680,000000	2020-11-19T14:37:12:684
1836611,000000	2020-11-19T14:37:12:725
1839050,000000	2020-11-19T14:37:12:764
1841510,000000	2020-11-19T14:37:12:805
1843397,000000	2020-11-19T14:37:12:844
1850542,000000	2020-11-19T14:37:12:885
1859708,000000	2020-11-19T14:37:12:924
1868009,000000	2020-11-19T14:37:12:965
1878853,000000	2020-11-19T14:37:13:004
1889620,000000	2020-11-19T14:37:13:045
1902447,000000	2020-11-19T14:37:13:084
1914815,000000	2020-11-19T14:37:13:126
1921221,000000	2020-11-19T14:37:13:165
1923779,000000	2020-11-19T14:37:13:206
1925408,000000	2020-11-19T14:37:13:244
1925734,000000	2020-11-19T14:37:13:285
1924188,000000	2020-11-19T14:37:13:324
1921867,000000	2020-11-19T14:37:13:366
1919783,000000	2020-11-19T14:37:13:404
1918411,000000	2020-11-19T14:37:13:446
1917422,000000	2020-11-19T14:37:13:484
1916087,000000	2020-11-19T14:37:13:526
1913712,000000	2020-11-19T14:37:13:565
1912754,000000	2020-11-19T14:37:13:606
1912601,000000	2020-11-19T14:37:13:644
1912320,000000	2020-11-19T14:37:13:686
1912421,000000	2020-11-19T14:37:13:725
1912284,000000	2020-11-19T14:37:13:766
1912747,000000	2020-11-19T14:37:13:805
1912796,000000	2020-11-19T14:37:13:846
1913100,000000	2020-11-19T14:37:13:885
1913935,000000	2020-11-19T14:37:13:926
1915496,000000	2020-11-19T14:37:13:965
1916482,000000	2020-11-19T14:37:14:006
1917911,000000	2020-11-19T14:37:14:045
1921583,000000	2020-11-19T14:37:14:086
1929005,000000	2020-11-19T14:37:14:127
1950677,000000	2020-11-19T14:37:14:167
1954086,000000	2020-11-19T14:37:14:206
1965599,000000	2020-11-19T14:37:14:246
1970279,000000	2020-11-19T14:37:14:285
1969618,000000	2020-11-19T14:37:14:327
1969943,000000	2020-11-19T14:37:14:365
1972193,000000	2020-11-19T14:37:14:407
1974132,000000	2020-11-19T14:37:14:446
1974200,000000	2020-11-19T14:37:14:486
1972917,000000	2020-11-19T14:37:14:525
1971664,000000	2020-11-19T14:37:14:567
1971601,000000	2020-11-19T14:37:14:605
1971743,000000	2020-11-19T14:37:14:647
1970840,000000	2020-11-19T14:37:14:686
1967783,000000	2020-11-19T14:37:14:727
1966694,000000	2020-11-19T14:37:14:766
1965912,000000	2020-11-19T14:37:14:807
1964611,000000	2020-11-19T14:37:14:845
1965566,000000	2020-11-19T14:37:14:887
1962845,000000	2020-11-19T14:37:14:926
1959934,000000	2020-11-19T14:37:14:967
1957312,000000	2020-11-19T14:37:15:006
1955178,000000	2020-11-19T14:37:15:047
1952750,000000	2020-11-19T14:37:15:086
1950487,000000	2020-11-19T14:37:15:127
1948649,000000	2020-11-19T14:37:15:167
1947459,000000	2020-11-19T14:37:15:207
1946128,000000	2020-11-19T14:37:15:246
1944194,000000	2020-11-19T14:37:15:287
1942265,000000	2020-11-19T14:37:15:326
1939840,000000	2020-11-19T14:37:15:368
1937179,000000	2020-11-19T14:37:15:407
1934937,000000	2020-11-19T14:37:15:447
1931072,000000	2020-11-19T14:37:15:487
1928915,000000	2020-11-19T14:37:15:527
1926307,000000	2020-11-19T14:37:15:567
1923818,000000	2020-11-19T14:37:15:607
1921017,000000	2020-11-19T14:37:15:647
1918187,000000	2020-11-19T14:37:15:688
1915714,000000	2020-11-19T14:37:15:726
1913928,000000	2020-11-19T14:37:15:768
1911549,000000	2020-11-19T14:37:15:806
1910206,000000	2020-11-19T14:37:15:848
1909369,000000	2020-11-19T14:37:15:886
1907507,000000	2020-11-19T14:37:15:927
1906620,000000	2020-11-19T14:37:15:967
1906435,000000	2020-11-19T14:37:16:008
1906071,000000	2020-11-19T14:37:16:047
1904194,000000	2020-11-19T14:37:16:088
1902846,000000	2020-11-19T14:37:16:127
1901852,000000	2020-11-19T14:37:16:168
1899938,000000	2020-11-19T14:37:16:207
1896883,000000	2020-11-19T14:37:16:248
1893974,000000	2020-11-19T14:37:16:287
1893129,000000	2020-11-19T14:37:16:328
1894293,000000	2020-11-19T14:37:16:367
1895040,000000	2020-11-19T14:37:16:408
1897049,000000	2020-11-19T14:37:16:448
1899410,000000	2020-11-19T14:37:16:488
1901637,000000	2020-11-19T14:37:16:528
1904671,000000	2020-11-19T14:37:16:569
1908432,000000	2020-11-19T14:37:16:607
1911396,000000	2020-11-19T14:37:16:648
1923131,000000	2020-11-19T14:37:16:688
1947229,000000	2020-11-19T14:37:16:728
1966005,000000	2020-11-19T14:37:16:768
1967112,000000	2020-11-19T14:37:16:809
1968013,000000	2020-11-19T14:37:16:848
1972967,000000	2020-11-19T14:37:16:889
1973050,000000	2020-11-19T14:37:16:928
1970071,000000	2020-11-19T14:37:16:969
1966572,000000	2020-11-19T14:37:17:008
1962864,000000	2020-11-19T14:37:17:049
1959775,000000	2020-11-19T14:37:17:088
1956459,000000	2020-11-19T14:37:17:129
1954007,000000	2020-11-19T14:37:17:168
1952909,000000	2020-11-19T14:37:17:209
1951517,000000	2020-11-19T14:37:17:248
1948979,000000	2020-11-19T14:37:17:290
1946247,000000	2020-11-19T14:37:17:328
1943442,000000	2020-11-19T14:37:17:369
1942099,000000	2020-11-19T14:37:17:409
1942276,000000	2020-11-19T14:37:17:449
1942353,000000	2020-11-19T14:37:17:488
1945080,000000	2020-11-19T14:37:17:529
1948719,000000	2020-11-19T14:37:17:569
1950640,000000	2020-11-19T14:37:17:610
1953680,000000	2020-11-19T14:37:17:648
1962335,000000	2020-11-19T14:37:17:689
1972592,000000	2020-11-19T14:37:17:729
1981519,000000	2020-11-19T14:37:17:770
1986488,000000	2020-11-19T14:37:17:809
1987065,000000	2020-11-19T14:37:17:849
1987640,000000	2020-11-19T14:37:17:889
1987966,000000	2020-11-19T14:37:17:930
1987834,000000	2020-11-19T14:37:17:969
1987762,000000	2020-11-19T14:37:18:010
1988632,000000	2020-11-19T14:37:18:049
1988915,000000	2020-11-19T14:37:18:089
1988990,000000	2020-11-19T14:37:18:129
1988697,000000	2020-11-19T14:37:18:171
1987597,000000	2020-11-19T14:37:18:209
1985497,000000	2020-11-19T14:37:18:250
1982466,000000	2020-11-19T14:37:18:289
1979981,000000	2020-11-19T14:37:18:329
1975514,000000	2020-11-19T14:37:18:370
1970040,000000	2020-11-19T14:37:18:410
1964918,000000	2020-11-19T14:37:18:449
1961034,000000	2020-11-19T14:37:18:490
1958293,000000	2020-11-19T14:37:18:529
1956112,000000	2020-11-19T14:37:18:571
1954448,000000	2020-11-19T14:37:18:609
1953864,000000	2020-11-19T14:37:18:650
1952719,000000	2020-11-19T14:37:18:689
1951798,000000	2020-11-19T14:37:18:731
1949438,000000	2020-11-19T14:37:18:770
1947872,000000	2020-11-19T14:37:18:810
1946641,000000	2020-11-19T14:37:18:850
1943636,000000	2020-11-19T14:37:18:891
1935738,000000	2020-11-19T14:37:18:930
1927454,000000	2020-11-19T14:37:18:971
1919518,000000	2020-11-19T14:37:19:010
1912991,000000	2020-11-19T14:37:19:051
1907801,000000	2020-11-19T14:37:19:090
1904072,000000	2020-11-19T14:37:19:132
1901232,000000	2020-11-19T14:37:19:170
1899196,000000	2020-11-19T14:37:19:211
1897079,000000	2020-11-19T14:37:19:250
1895052,000000	2020-11-19T14:37:19:291
1892926,000000	2020-11-19T14:37:19:330
1890537,000000	2020-11-19T14:37:19:371
1888044,000000	2020-11-19T14:37:19:410
1882332,000000	2020-11-19T14:37:19:451
1874659,000000	2020-11-19T14:37:19:490
