x	y	z	ts
-1,495514	6,070591	7,448857	2020-11-19T14:35:16:366
-1,359123	5,876772	7,467999	2020-11-19T14:35:16:367
-1,359123	5,852845	7,527820	2020-11-19T14:35:16:367
-1,442872	5,816952	7,491928	2020-11-19T14:35:16:367
-1,423729	5,706882	7,508677	2020-11-19T14:35:16:367
-1,488336	5,730811	7,465607	2020-11-19T14:35:16:369
-1,239482	5,850451	7,467999	2020-11-19T14:35:16:370
-1,239482	5,773881	7,558927	2020-11-19T14:35:16:370
-1,282553	5,804988	7,463214	2020-11-19T14:35:16:371
-1,351945	5,912664	7,393822	2020-11-19T14:35:16:397
-1,335195	5,893522	7,401000	2020-11-19T14:35:16:406
-1,335195	5,893522	7,401000	2020-11-19T14:35:16:406
-1,385444	5,871986	7,386643	2020-11-19T14:35:16:407
-1,344766	5,828916	7,365108	2020-11-19T14:35:16:425
-1,237089	5,919843	7,322037	2020-11-19T14:35:16:446
-1,220340	5,891129	7,226324	2020-11-19T14:35:16:465
-1,103091	5,749953	7,329216	2020-11-19T14:35:16:486
-1,395016	5,735595	7,408179	2020-11-19T14:35:16:505
-1,909473	5,565705	7,133004	2020-11-19T14:35:16:525
-1,581656	5,235496	7,006185	2020-11-19T14:35:16:546
-2,112862	5,472386	6,750153	2020-11-19T14:35:16:566
-1,713261	5,642276	6,704689	2020-11-19T14:35:16:585
-0,732204	7,357929	6,601797	2020-11-19T14:35:16:606
-1,485943	5,584848	6,917650	2020-11-19T14:35:16:625
-1,710868	5,367101	7,140182	2020-11-19T14:35:16:646
-1,060020	5,627919	7,240681	2020-11-19T14:35:16:665
-1,253839	5,182854	7,240681	2020-11-19T14:35:16:686
-1,308874	4,993821	7,278966	2020-11-19T14:35:16:705
-0,504886	5,467600	7,250252	2020-11-19T14:35:16:726
-1,213161	6,262017	6,936793	2020-11-19T14:35:16:746
-1,540978	5,790630	6,412765	2020-11-19T14:35:16:766
-1,471586	5,383851	5,718846	2020-11-19T14:35:16:785
-1,311267	4,254438	5,142176	2020-11-19T14:35:16:806
-0,949951	2,897708	4,548756	2020-11-19T14:35:16:826
-0,770489	2,069792	4,048656	2020-11-19T14:35:16:847
-1,079163	1,469193	3,668197	2020-11-19T14:35:16:865
-1,452443	1,720440	3,878766	2020-11-19T14:35:16:886
-1,816152	0,844666	3,613162	2020-11-19T14:35:16:905
-1,974079	-0,602991	3,443272	2020-11-19T14:35:16:926
-3,122634	-2,086541	2,744568	2020-11-19T14:35:16:946
-3,591627	-2,766103	2,579463	2020-11-19T14:35:16:967
-4,838287	-4,948357	2,730211	2020-11-19T14:35:16:986
-6,142376	-6,833901	3,187240	2020-11-19T14:35:17:006
-7,386643	-8,973085	3,529413	2020-11-19T14:35:17:025
-7,929814	-10,832308	2,770889	2020-11-19T14:35:17:047
-8,446664	-10,695917	1,545763	2020-11-19T14:35:17:066
-8,786445	-10,021141	-0,081356	2020-11-19T14:35:17:088
-9,413363	-9,650253	-1,452443	2020-11-19T14:35:17:199
-10,222138	-10,119246	-1,588834	2020-11-19T14:35:17:200
-10,710274	-11,248660	-1,387837	2020-11-19T14:35:17:200
-10,664811	-11,191232	-0,851845	2020-11-19T14:35:17:201
-10,669596	-10,530812	0,150748	2020-11-19T14:35:17:202
-10,887343	-9,702895	-0,023928	2020-11-19T14:35:17:214
-11,820543	-8,542377	-0,086142	2020-11-19T14:35:17:232
-12,892529	-7,788638	-0,200997	2020-11-19T14:35:17:254
-13,725230	-8,011170	-0,217747	2020-11-19T14:35:17:266
-13,763516	-7,149754	-0,153141	2020-11-19T14:35:17:286
-13,141381	-6,568298	-0,256032	2020-11-19T14:35:17:305
-12,490535	-6,202196	-0,378066	2020-11-19T14:35:17:326
-11,411370	-6,041877	-0,514457	2020-11-19T14:35:17:346
-10,021141	-5,733203	-0,251246	2020-11-19T14:35:17:367
-8,872586	-5,623133	0,148355	2020-11-19T14:35:17:387
-8,506484	-5,860023	0,318245	2020-11-19T14:35:17:408
-8,870193	-6,214160	0,574277	2020-11-19T14:35:17:426
-9,162118	-6,305088	0,619741	2020-11-19T14:35:17:448
-9,281759	-6,180661	0,605384	2020-11-19T14:35:17:467
-9,427721	-5,986843	0,239282	2020-11-19T14:35:17:488
-9,650253	-5,982057	0,153141	2020-11-19T14:35:17:507
-9,609575	-5,869594	0,148355	2020-11-19T14:35:17:535
-9,494720	-5,278566	-0,035892	2020-11-19T14:35:17:547
-9,640682	-5,072784	0,043071	2020-11-19T14:35:17:598
-9,946963	-4,974678	0,141177	2020-11-19T14:35:17:599
-10,047462	-4,646862	0,055035	2020-11-19T14:35:17:608
-10,064213	-4,534399	0,040678	2020-11-19T14:35:17:626
-10,301102	-4,314260	-0,114855	2020-11-19T14:35:17:653
-10,583455	-3,850052	-0,160319	2020-11-19T14:35:17:776
-10,947165	-3,522235	-0,186640	2020-11-19T14:35:17:777
-11,062018	-3,323631	-0,363709	2020-11-19T14:35:17:778
-10,782058	-3,268596	-0,373280	2020-11-19T14:35:17:778
-10,679168	-3,321238	-0,397209	2020-11-19T14:35:17:779
-10,595419	-3,079563	-0,557528	2020-11-19T14:35:17:779
-9,999605	-2,909672	-0,732204	2020-11-19T14:35:17:786
-9,533006	-2,799603	-0,619741	2020-11-19T14:35:17:808
-9,107083	-2,677568	-0,641276	2020-11-19T14:35:17:827
-8,712267	-2,596212	-0,641276	2020-11-19T14:35:17:849
-8,707481	-2,675175	-0,524028	2020-11-19T14:35:17:867
-8,542377	-2,457429	-0,490529	2020-11-19T14:35:17:889
-8,446664	-2,289931	-0,629312	2020-11-19T14:35:17:907
-8,717053	-2,612962	-0,471386	2020-11-19T14:35:17:929
-9,284152	-2,617748	-0,277567	2020-11-19T14:35:17:948
-9,229117	-2,402394	-0,265603	2020-11-19T14:35:17:968
-9,075976	-2,371287	-0,375673	2020-11-19T14:35:17:987
-9,360723	-2,928815	0,141177	2020-11-19T14:35:18:009
-9,915856	-3,483950	1,339981	2020-11-19T14:35:18:027
-10,334601	-3,122634	1,713261	2020-11-19T14:35:18:050
-10,073784	-3,247060	1,596013	2020-11-19T14:35:18:067
-9,822537	-3,340380	1,648655	2020-11-19T14:35:18:089
-8,867801	-3,347559	1,844866	2020-11-19T14:35:18:107
-8,238488	-3,361916	2,151148	2020-11-19T14:35:18:128
-7,972885	-3,610770	2,342573	2020-11-19T14:35:18:147
-7,915457	-3,531806	2,160719	2020-11-19T14:35:18:169
-8,106883	-3,062813	1,727618	2020-11-19T14:35:18:188
-8,432307	-2,868994	1,316052	2020-11-19T14:35:18:209
-8,750552	-2,818745	1,179662	2020-11-19T14:35:18:227
-8,764909	-2,845066	0,937986	2020-11-19T14:35:18:249
-8,997013	-2,825923	0,847059	2020-11-19T14:35:18:267
-9,092726	-2,565106	0,550349	2020-11-19T14:35:18:289
-8,977871	-2,533999	0,241675	2020-11-19T14:35:18:307
-8,870193	-3,103491	0,004786	2020-11-19T14:35:18:329
-8,870193	-3,675375	-0,021535	2020-11-19T14:35:18:347
-9,071191	-4,098906	0,186640	2020-11-19T14:35:18:369
-8,817552	-4,264010	0,617348	2020-11-19T14:35:18:388
-8,539984	-4,543970	1,067199	2020-11-19T14:35:18:410
-8,685946	-4,924429	1,631905	2020-11-19T14:35:18:429
-8,561519	-4,675575	1,727618	2020-11-19T14:35:18:450
-8,559127	-4,465007	1,751546	2020-11-19T14:35:18:467
-8,518449	-4,642076	2,129612	2020-11-19T14:35:18:490
-8,286345	-4,512863	2,569891	2020-11-19T14:35:18:507
-7,941778	-4,218546	2,435893	2020-11-19T14:35:18:530
-7,889136	-3,574877	2,120041	2020-11-19T14:35:18:549
-8,260024	-3,622734	1,892723	2020-11-19T14:35:18:579
-9,056834	-3,845266	1,880759	2020-11-19T14:35:18:587
-10,004392	-4,127619	2,179861	2020-11-19T14:35:18:616
-10,743774	-4,405186	2,323431	2020-11-19T14:35:18:627
-11,538191	-4,601398	2,361716	2020-11-19T14:35:18:651
-12,325430	-4,809574	2,165504	2020-11-19T14:35:18:671
-12,686745	-4,898108	2,031506	2020-11-19T14:35:18:690
-12,447463	-5,032106	2,153540	2020-11-19T14:35:18:709
-11,875579	-4,795217	2,545963	2020-11-19T14:35:18:730
-11,739187	-4,409972	2,876173	2020-11-19T14:35:18:748
-11,803794	-4,465007	3,024528	2020-11-19T14:35:18:771
-11,033305	-4,800002	2,711068	2020-11-19T14:35:18:788
-9,738789	-4,924429	1,974079	2020-11-19T14:35:18:810
-9,052048	-4,632504	1,600798	2020-11-19T14:35:18:829
-9,080762	-4,539185	1,631905	2020-11-19T14:35:18:850
-9,872787	-4,326223	1,756332	2020-11-19T14:35:18:868
-10,664811	-3,847659	1,749153	2020-11-19T14:35:18:891
-11,636297	-3,474378	1,629512	2020-11-19T14:35:18:909
-12,741781	-3,256632	1,725225	2020-11-19T14:35:18:929
-12,993028	-2,945565	1,397408	2020-11-19T14:35:18:948
-12,452249	-2,548356	1,019342	2020-11-19T14:35:18:970
-11,586047	-2,510071	0,856631	2020-11-19T14:35:18:988
-11,042876	-2,689533	1,043271	2020-11-19T14:35:19:010
-10,633704	-3,000600	0,985843	2020-11-19T14:35:19:028
-10,116854	-2,974278	1,210768	2020-11-19T14:35:19:050
-9,690931	-2,825923	1,237089	2020-11-19T14:35:19:068
-9,296116	-2,720639	1,019342	2020-11-19T14:35:19:090
-8,999406	-2,572284	1,021735	2020-11-19T14:35:19:108
-8,403593	-2,490928	0,897308	2020-11-19T14:35:19:130
-8,027920	-2,354537	1,002593	2020-11-19T14:35:19:149
-7,570890	-2,287539	1,220340	2020-11-19T14:35:19:170
-7,154540	-2,244468	1,392623	2020-11-19T14:35:19:188
-6,948757	-2,199004	1,320838	2020-11-19T14:35:19:210
-6,735795	-2,400001	1,485943	2020-11-19T14:35:19:228
-6,293124	-2,517249	1,976472	2020-11-19T14:35:19:251
-6,319445	-2,603391	2,203789	2020-11-19T14:35:19:268
-6,886543	-2,744568	2,222932	2020-11-19T14:35:19:290
-7,238289	-2,790031	2,100898	2020-11-19T14:35:19:309
-7,633104	-2,787638	1,974079	2020-11-19T14:35:19:330
-8,236095	-2,859423	2,065006	2020-11-19T14:35:19:348
-9,269794	-2,900101	2,201397	2020-11-19T14:35:19:371
-10,317852	-2,880959	1,818545	2020-11-19T14:35:19:389
-10,990234	-3,084348	1,562513	2020-11-19T14:35:19:415
-11,006985	-3,273381	1,167697	2020-11-19T14:35:19:429
-10,791630	-3,486342	0,564706	2020-11-19T14:35:19:451
-11,461621	-3,665804	0,559920	2020-11-19T14:35:19:468
-11,944970	-4,046263	1,112662	2020-11-19T14:35:19:522
-11,459228	-4,187439	1,627119	2020-11-19T14:35:19:522
-10,679168	-3,866802	1,672583	2020-11-19T14:35:19:539
-10,581062	-3,692125	1,438086	2020-11-19T14:35:19:549
-11,016556	-3,658626	0,995414	2020-11-19T14:35:19:574
-11,050055	-3,136991	0,600598	2020-11-19T14:35:19:658
-10,887343	-2,699104	0,112463	2020-11-19T14:35:19:659
-10,758131	-2,395216	-0,076570	2020-11-19T14:35:19:659
-10,444671	-2,220540	-0,157926	2020-11-19T14:35:19:660
-10,150353	-2,151148	-0,224925	2020-11-19T14:35:19:693
-9,652647	-2,411965	-0,131605	2020-11-19T14:35:19:707
-9,200402	-2,725425	-0,112463	2020-11-19T14:35:19:713
-8,650054	-2,988636	-0,179462	2020-11-19T14:35:19:731
-8,195417	-3,242275	-0,294317	2020-11-19T14:35:19:749
-8,051848	-3,498307	-0,339781	2020-11-19T14:35:19:798
-8,427521	-3,670590	-0,358923	2020-11-19T14:35:19:799
-8,807980	-3,754339	-0,480957	2020-11-19T14:35:19:810
-9,054441	-3,699304	-0,643669	2020-11-19T14:35:19:828
-9,286544	-3,747160	-0,803988	2020-11-19T14:35:19:851
-8,977871	-3,622734	-0,957129	2020-11-19T14:35:19:869
-8,772088	-3,704089	-1,012164	2020-11-19T14:35:19:892
-8,729016	-3,828516	-0,928415	2020-11-19T14:35:19:910
-8,616554	-4,074977	-0,646062	2020-11-19T14:35:19:933
-8,760124	-4,189832	-0,131605	2020-11-19T14:35:19:950
-9,047262	-4,180261	0,442672	2020-11-19T14:35:19:972
-9,291330	-3,905087	0,038285	2020-11-19T14:35:19:989
-9,226725	-3,981657	-0,490529	2020-11-19T14:35:20:012
-9,212367	-4,187439	-0,591027	2020-11-19T14:35:20:030
-9,415757	-4,345366	-0,145962	2020-11-19T14:35:20:053
-9,753145	-4,055835	-0,062213	2020-11-19T14:35:20:070
-9,415757	-3,845266	-0,222532	2020-11-19T14:35:20:093
-8,815158	-3,725625	-0,299103	2020-11-19T14:35:20:111
-9,284152	-3,945765	0,057428	2020-11-19T14:35:20:132
-10,595419	-4,268795	0,882952	2020-11-19T14:35:20:150
-11,437693	-4,086941	1,538585	2020-11-19T14:35:20:173
-11,765509	-3,854837	1,179662	2020-11-19T14:35:20:190
-12,055040	-3,878766	0,423530	2020-11-19T14:35:20:213
-11,626726	-4,012764	0,363709	2020-11-19T14:35:20:230
-10,643275	-3,833302	0,782453	2020-11-19T14:35:20:253
-9,824929	-3,845266	1,390230	2020-11-19T14:35:20:270
-9,298509	-4,163511	1,813759	2020-11-19T14:35:20:294
-9,066404	-4,374080	2,143969	2020-11-19T14:35:20:310
-9,028119	-4,460221	2,289931	2020-11-19T14:35:20:333
-9,332008	-4,115655	2,301895	2020-11-19T14:35:20:351
-9,265009	-3,574877	2,007578	2020-11-19T14:35:20:373
-8,968300	-3,127419	1,600798	2020-11-19T14:35:20:390
-8,829515	-2,878566	1,442872	2020-11-19T14:35:20:413
-8,827123	-2,974278	1,502693	2020-11-19T14:35:20:430
-9,652647	-3,103491	1,864009	2020-11-19T14:35:20:454
-10,542776	-3,278167	1,615155	2020-11-19T14:35:20:470
-10,997414	-3,211168	1,007378	2020-11-19T14:35:20:493
-11,313265	-3,005385	0,361316	2020-11-19T14:35:20:510
-11,499906	-3,206382	0,035892	2020-11-19T14:35:20:533
-11,432907	-3,562913	-0,026321	2020-11-19T14:35:20:550
-11,023734	-3,672983	0,141177	2020-11-19T14:35:20:575
-10,451849	-3,529413	0,382852	2020-11-19T14:35:20:598
-9,903893	-3,129812	0,571885	2020-11-19T14:35:20:614
-9,602397	-3,034099	0,885344	2020-11-19T14:35:20:630
-9,394222	-2,871387	1,007378	2020-11-19T14:35:20:654
-9,080762	-2,854637	0,744168	2020-11-19T14:35:20:670
-8,803195	-2,933600	0,564706	2020-11-19T14:35:20:693
-8,525627	-2,943172	0,574277	2020-11-19T14:35:20:711
-8,422735	-2,828316	0,564706	2020-11-19T14:35:20:733
-8,398808	-2,682354	0,612563	2020-11-19T14:35:20:751
-8,456236	-2,541178	0,497707	2020-11-19T14:35:20:775
-8,673983	-2,395216	0,339781	2020-11-19T14:35:20:790
-9,111869	-2,471786	0,244068	2020-11-19T14:35:20:813
-9,609575	-2,569891	0,212961	2020-11-19T14:35:20:832
-9,908678	-2,562713	0,031107	2020-11-19T14:35:20:854
-9,980463	-2,931208	-0,191426	2020-11-19T14:35:20:871
-9,801002	-3,077170	-0,583849	2020-11-19T14:35:20:894
-9,434900	-3,323631	-1,134198	2020-11-19T14:35:20:912
-8,941978	-3,649055	-1,629512	2020-11-19T14:35:20:934
-8,382057	-3,847659	-1,799403	2020-11-19T14:35:20:951
-8,642875	-3,996014	-1,466800	2020-11-19T14:35:20:974
-9,975677	-4,216154	-0,533599	2020-11-19T14:35:20:991
-11,365908	-4,283153	0,521635	2020-11-19T14:35:21:014
-11,471190	-4,101298	1,241875	2020-11-19T14:35:21:031
-10,380065	-4,127619	1,208375	2020-11-19T14:35:21:054
-9,509077	-4,486543	1,299303	2020-11-19T14:35:21:072
-9,035298	-5,024928	1,294517	2020-11-19T14:35:21:094
-9,162118	-4,986642	1,100698	2020-11-19T14:35:21:111
-8,965906	-4,637290	0,918844	2020-11-19T14:35:21:133
-8,764909	-4,199404	0,976272	2020-11-19T14:35:21:151
-8,944371	-3,790231	1,351945	2020-11-19T14:35:21:174
-9,257831	-3,452843	1,725225	2020-11-19T14:35:21:191
-9,442079	-3,072384	1,560120	2020-11-19T14:35:21:214
-9,664611	-2,983850	1,574477	2020-11-19T14:35:21:231
-10,193424	-3,330809	1,911865	2020-11-19T14:35:21:254
-10,315458	-3,589234	2,452643	2020-11-19T14:35:21:271
-9,978070	-4,436293	2,897708	2020-11-19T14:35:21:294
-9,576077	-5,041678	3,074777	2020-11-19T14:35:21:312
-9,233903	-5,479564	3,567699	2020-11-19T14:35:21:335
-9,061620	-5,879165	4,867002	2020-11-19T14:35:21:353
-9,241080	-5,235496	6,005985	2020-11-19T14:35:21:374
-9,528220	-4,199404	5,079963	2020-11-19T14:35:21:391
-9,351151	-3,385844	3,917051	2020-11-19T14:35:21:414
-9,492328	-3,747160	3,103491	2020-11-19T14:35:21:431
-9,425328	-4,299902	2,991028	2020-11-19T14:35:21:454
-9,305687	-4,381258	3,256632	2020-11-19T14:35:21:472
-9,609575	-4,067799	3,811767	2020-11-19T14:35:21:494
-9,851252	-3,524628	3,309274	2020-11-19T14:35:21:511
-9,767502	-3,570091	3,062813	2020-11-19T14:35:21:534
-9,719646	-4,043870	3,156133	2020-11-19T14:35:21:553
-9,427721	-4,144369	2,907279	2020-11-19T14:35:21:574
-9,133404	-4,079762	2,550749	2020-11-19T14:35:21:591
-8,841480	-3,936193	2,280360	2020-11-19T14:35:21:614
-8,762517	-4,443472	2,122434	2020-11-19T14:35:21:631
-8,477771	-3,771089	1,899901	2020-11-19T14:35:21:655
-8,726624	-3,053242	2,208575	2020-11-19T14:35:21:671
-9,193225	-4,024727	1,849652	2020-11-19T14:35:21:694
-10,368099	-4,517649	1,820938	2020-11-19T14:35:21:712
-10,908878	-3,460021	1,598405	2020-11-19T14:35:21:735
-11,263017	-4,158726	1,440479	2020-11-19T14:35:21:752
-10,853845	-4,603791	1,596013	2020-11-19T14:35:21:775
-10,526026	-4,785645	1,596013	2020-11-19T14:35:21:793
-10,691131	-4,618148	0,952343	2020-11-19T14:35:21:815
-11,100305	-4,785645	0,988236	2020-11-19T14:35:21:832
-11,303694	-5,154140	1,275374	2020-11-19T14:35:21:855
-11,303694	-4,776074	1,442872	2020-11-19T14:35:21:872
-11,028521	-4,412365	0,916451	2020-11-19T14:35:21:895
-11,097912	-4,424329	0,519243	2020-11-19T14:35:21:912
-11,069198	-4,340580	0,713061	2020-11-19T14:35:21:935
-10,770095	-4,354938	1,028914	2020-11-19T14:35:21:953
-10,085747	-4,177868	1,079163	2020-11-19T14:35:21:975
-9,229117	-3,950550	0,784846	2020-11-19T14:35:21:992
-8,195417	-3,900301	0,660419	2020-11-19T14:35:22:015
-7,506285	-3,984050	0,677169	2020-11-19T14:35:22:033
-7,491928	-4,163511	0,973879	2020-11-19T14:35:22:055
-7,671390	-3,931407	1,024128	2020-11-19T14:35:22:072
-7,764710	-3,692125	1,016950	2020-11-19T14:35:22:095
-7,628319	-3,483950	0,882952	2020-11-19T14:35:22:112
-7,290931	-3,483950	0,827917	2020-11-19T14:35:22:136
-6,888937	-3,431308	0,971486	2020-11-19T14:35:22:153
-6,532406	-3,522235	1,363909	2020-11-19T14:35:22:175
-6,479764	-3,452843	1,706082	2020-11-19T14:35:22:193
-6,647261	-3,261417	1,899901	2020-11-19T14:35:22:215
-6,668797	-2,969493	1,899901	2020-11-19T14:35:22:232
-6,769295	-2,715853	1,926222	2020-11-19T14:35:22:256
-6,786045	-2,742175	1,978864	2020-11-19T14:35:22:273
-6,943972	-2,589034	1,909473	2020-11-19T14:35:22:295
-7,391429	-2,579463	1,823331	2020-11-19T14:35:22:313
-7,712067	-2,857030	1,751546	2020-11-19T14:35:22:335
-8,427521	-3,208775	2,019542	2020-11-19T14:35:22:353
-8,956335	-2,952743	2,435893	2020-11-19T14:35:22:376
-9,446864	-2,737389	2,433501	2020-11-19T14:35:22:392
-10,286745	-2,524428	2,170290	2020-11-19T14:35:22:416
-11,370694	-2,404787	2,155933	2020-11-19T14:35:22:432
-12,198609	-2,536392	2,280360	2020-11-19T14:35:22:457
-12,579069	-2,742175	2,543570	2020-11-19T14:35:22:472
-12,354142	-3,067599	2,897708	2020-11-19T14:35:22:496
-11,210374	-3,455236	3,347559	2020-11-19T14:35:22:513
-9,884750	-3,634698	3,680161	2020-11-19T14:35:22:535
-8,805587	-3,570091	3,926622	2020-11-19T14:35:22:553
-8,293523	-3,541377	3,917051	2020-11-19T14:35:22:576
-8,401200	-3,670590	3,634698	2020-11-19T14:35:22:592
-9,109475	-3,369094	2,667997	2020-11-19T14:35:22:616
-9,937392	-2,100898	2,880959	2020-11-19T14:35:22:633
-10,827522	-0,507278	2,215754	2020-11-19T14:35:22:657
-12,236896	-1,548156	1,548156	2020-11-19T14:35:22:673
-12,143576	-3,931407	0,736989	2020-11-19T14:35:22:696
-9,951750	-3,381058	0,504886	2020-11-19T14:35:22:713
-8,843873	-2,600998	0,404387	2020-11-19T14:35:22:736
-8,752945	-3,151347	0,624527	2020-11-19T14:35:22:754
-8,587841	-3,902694	0,782453	2020-11-19T14:35:22:776
-8,585447	-4,237689	1,117448	2020-11-19T14:35:22:792
-8,525627	-4,718646	1,469193	2020-11-19T14:35:22:816
-8,212167	-5,084748	1,921437	2020-11-19T14:35:22:833
-8,226524	-5,259424	2,294717	2020-11-19T14:35:22:857
-8,362915	-4,790431	2,924029	2020-11-19T14:35:22:873
-8,374879	-4,094120	3,046063	2020-11-19T14:35:22:896
-8,370094	-3,586841	3,168097	2020-11-19T14:35:22:913
-8,255238	-3,146562	3,285345	2020-11-19T14:35:22:936
-8,171489	-3,287738	3,730411	2020-11-19T14:35:22:953
-8,281559	-3,637090	3,972085	2020-11-19T14:35:22:977
-8,616554	-3,735196	3,945765	2020-11-19T14:35:22:994
-8,874979	-3,878766	3,814159	2020-11-19T14:35:23:016
-9,188439	-3,926622	3,656233	2020-11-19T14:35:23:033
-9,363115	-4,110869	3,352344	2020-11-19T14:35:23:057
-9,588040	-4,225725	3,177669	2020-11-19T14:35:23:073
-10,346564	-3,881158	3,069991	2020-11-19T14:35:23:097
-11,428121	-3,378666	3,170490	2020-11-19T14:35:23:113
-12,244074	-2,737389	3,201597	2020-11-19T14:35:23:138
-12,765708	-2,866602	3,153740	2020-11-19T14:35:23:154
-13,294522	-3,309274	3,115455	2020-11-19T14:35:23:176
-12,921242	-3,582055	3,194418	2020-11-19T14:35:23:193
-11,239087	-3,586841	2,586641	2020-11-19T14:35:23:217
-10,636096	-3,553342	1,799403	2020-11-19T14:35:23:234
-11,447264	-3,799802	1,447658	2020-11-19T14:35:23:256
-12,521641	-4,086941	1,507478	2020-11-19T14:35:23:273
-13,500306	-3,998406	1,442872	2020-11-19T14:35:23:297
-14,258829	-3,881158	1,129412	2020-11-19T14:35:23:313
-14,481362	-3,711268	0,660419	2020-11-19T14:35:23:336
-13,713267	-3,321238	0,244068	2020-11-19T14:35:23:353
-12,579069	-2,909672	-0,009571	2020-11-19T14:35:23:377
-11,330014	-2,445465	-0,200997	2020-11-19T14:35:23:393
-10,490135	-2,002793	-0,198604	2020-11-19T14:35:23:416
-9,734003	-1,962115	-0,031107	2020-11-19T14:35:23:433
-9,432507	-2,256432	0,033500	2020-11-19T14:35:23:457
-9,107083	-2,514857	0,212961	2020-11-19T14:35:23:474
-8,776874	-2,840281	0,200997	2020-11-19T14:35:23:496
-8,269595	-2,983850	0,117248	2020-11-19T14:35:23:513
-7,824530	-3,180061	0,050249	2020-11-19T14:35:23:537
-7,501499	-3,199204	0,634098	2020-11-19T14:35:23:553
-7,214360	-2,679961	1,349552	2020-11-19T14:35:23:576
-7,109076	-2,110470	1,124627	2020-11-19T14:35:23:593
-7,180861	-1,342373	0,775275	2020-11-19T14:35:23:617
-6,680761	-1,263410	0,602991	2020-11-19T14:35:23:634
-6,202196	-1,284946	0,648455	2020-11-19T14:35:23:657
-6,092126	-1,354338	1,057628	2020-11-19T14:35:23:673
-6,233303	-1,447658	1,696511	2020-11-19T14:35:23:697
-6,599405	-1,797010	2,093720	2020-11-19T14:35:23:715
-6,927221	-1,753939	2,416751	2020-11-19T14:35:23:737
-7,676175	-1,756332	2,543570	2020-11-19T14:35:23:754
-8,819944	-1,701297	2,242075	2020-11-19T14:35:23:777
-10,650455	-1,761117	2,404787	2020-11-19T14:35:23:794
-12,220145	-1,526621	2,679961	2020-11-19T14:35:23:817
-12,605389	-1,234696	1,653440	2020-11-19T14:35:23:834
-11,808580	-1,395016	1,083949	2020-11-19T14:35:23:858
-11,083554	-2,569891	1,038485	2020-11-19T14:35:23:876
-11,126624	-4,139583	1,643869	2020-11-19T14:35:23:897
-11,207980	-5,094319	2,727818	2020-11-19T14:35:23:914
-11,136196	-5,455636	3,629912	2020-11-19T14:35:23:938
-11,198411	-5,553742	3,591627	2020-11-19T14:35:23:955
-11,320443	-5,620740	2,907279	2020-11-19T14:35:23:977
-11,270195	-5,381458	1,950150	2020-11-19T14:35:23:994
-11,057234	-4,993821	1,476372	2020-11-19T14:35:24:018
-10,784451	-4,223332	1,038485	2020-11-19T14:35:24:034
-10,112068	-3,306881	0,619741	2020-11-19T14:35:24:057
-9,501899	-2,718246	0,064606	2020-11-19T14:35:24:074
-9,466006	-3,074777	0,040678	2020-11-19T14:35:24:098
-9,585647	-3,680161	0,229711	2020-11-19T14:35:24:114
-9,652647	-4,141976	0,507278	2020-11-19T14:35:24:137
-9,375079	-4,261617	0,315853	2020-11-19T14:35:24:154
-9,595219	-4,426722	0,007178	2020-11-19T14:35:24:178
-9,872787	-4,926822	0,050249	2020-11-19T14:35:24:195
-9,973285	-5,352744	0,416351	2020-11-19T14:35:24:217
-9,870394	-5,065606	1,268196	2020-11-19T14:35:24:234
-9,377472	-4,323831	1,447658	2020-11-19T14:35:24:258
-8,544770	-4,130012	1,485943	2020-11-19T14:35:24:274
-7,951349	-4,268795	1,861616	2020-11-19T14:35:24:297
-8,011170	-4,649254	2,615355	2020-11-19T14:35:24:314
-8,513663	-4,859823	3,160919	2020-11-19T14:35:24:338
-9,212367	-4,560720	3,397808	2020-11-19T14:35:24:355
-9,678967	-4,036692	3,249453	2020-11-19T14:35:24:377
-10,042676	-3,474378	3,187240	2020-11-19T14:35:24:394
-10,650455	-3,696911	2,940779	2020-11-19T14:35:24:418
-11,394621	-3,830909	2,969493	2020-11-19T14:35:24:435
-12,246466	-3,998406	2,904887	2020-11-19T14:35:24:457
-12,878171	-3,943372	2,790031	2020-11-19T14:35:24:474
-12,866207	-3,840480	2,333002	2020-11-19T14:35:24:499
-12,014362	-4,804788	1,710868	2020-11-19T14:35:24:514
-11,602797	-4,950750	1,280160	2020-11-19T14:35:24:537
-11,581261	-4,991428	0,825524	2020-11-19T14:35:24:555
-11,799009	-4,371687	0,617348	2020-11-19T14:35:24:578
-12,043077	-3,991228	0,459422	2020-11-19T14:35:24:594
-11,813366	-3,570091	0,490529	2020-11-19T14:35:24:617
-10,951948	-3,270989	0,404387	2020-11-19T14:35:24:634
-10,839487	-3,907479	0,265603	2020-11-19T14:35:24:659
-11,669796	-4,003192	-0,093320	2020-11-19T14:35:24:675
-11,562119	-3,125026	-0,516850	2020-11-19T14:35:24:697
-11,176874	-2,596212	-0,787239	2020-11-19T14:35:24:715
-11,006985	-2,163112	-0,825524	2020-11-19T14:35:24:738
-10,770095	-2,227718	-0,648455	2020-11-19T14:35:24:755
-10,633704	-2,292324	-0,260818	2020-11-19T14:35:24:777
-10,399208	-2,344966	-0,361316	2020-11-19T14:35:24:794
-10,049855	-2,208575	-0,662812	2020-11-19T14:35:24:820
-9,451650	-2,323431	-0,880559	2020-11-19T14:35:24:835
-9,102298	-2,495714	-0,952343	2020-11-19T14:35:24:859
-8,743374	-2,340181	-0,509671	2020-11-19T14:35:24:875
-8,166703	-2,203789	-0,167498	2020-11-19T14:35:24:899
-7,767102	-2,222932	-0,105284	2020-11-19T14:35:24:916
-7,501499	-2,177469	-0,224925	2020-11-19T14:35:24:937
-7,190433	-2,076970	-0,105284	2020-11-19T14:35:24:956
-7,037291	-2,282753	0,265603	2020-11-19T14:35:24:978
-7,135397	-2,459821	0,519243	2020-11-19T14:35:24:995
-7,515855	-2,514857	0,815953	2020-11-19T14:35:25:018
-7,791030	-2,514857	1,026521	2020-11-19T14:35:25:035
-7,762317	-2,407180	1,083949	2020-11-19T14:35:25:060
-8,269595	-2,411965	1,445265	2020-11-19T14:35:25:075
-9,456435	-2,620141	1,761117	2020-11-19T14:35:25:098
-10,339387	-2,703890	1,531406	2020-11-19T14:35:25:115
-10,667203	-2,653640	1,191626	2020-11-19T14:35:25:138
-10,868200	-2,921637	1,344766	2020-11-19T14:35:25:156
-10,502099	-3,570091	2,163112	2020-11-19T14:35:25:178
-9,674182	-3,893122	2,548356	2020-11-19T14:35:25:196
-9,537791	-4,110869	2,682354	2020-11-19T14:35:25:219
-10,549955	-4,608576	2,950350	2020-11-19T14:35:25:247
-11,188839	-4,362115	2,955136	2020-11-19T14:35:25:259
-11,200804	-3,053242	2,361716	2020-11-19T14:35:25:275
-11,308479	-2,438286	1,938186	2020-11-19T14:35:25:300
-11,464014	-2,581856	1,710868	2020-11-19T14:35:25:316
-11,162518	-2,847459	1,610370	2020-11-19T14:35:25:338
-10,377672	-2,921637	1,514657	2020-11-19T14:35:25:355
-9,686146	-2,816352	1,256232	2020-11-19T14:35:25:380
-9,257831	-3,041277	0,892523	2020-11-19T14:35:25:396
-9,047262	-3,371487	0,440279	2020-11-19T14:35:25:418
-9,025726	-3,586841	0,500100	2020-11-19T14:35:25:436
-8,793623	-3,378666	0,437887	2020-11-19T14:35:25:460
-8,587841	-3,069991	0,284746	2020-11-19T14:35:25:475
-8,616554	-3,067599	0,148355	2020-11-19T14:35:25:499
-8,889337	-3,134598	0,251246	2020-11-19T14:35:25:515
-8,709875	-3,077170	0,567099	2020-11-19T14:35:25:539
-8,362915	-3,306881	0,993021	2020-11-19T14:35:25:556
-8,355737	-3,345166	1,093520	2020-11-19T14:35:25:579
-8,293523	-3,397808	1,057628	2020-11-19T14:35:25:595
-8,621340	-3,692125	1,153341	2020-11-19T14:35:25:619
-9,312866	-4,211368	1,500300	2020-11-19T14:35:25:637
-10,021141	-4,273581	2,007578	2020-11-19T14:35:25:659
-10,511670	-4,070191	2,115255	2020-11-19T14:35:25:676
-10,545169	-4,118048	2,127219	2020-11-19T14:35:25:699
-10,353743	-4,242475	2,483750	2020-11-19T14:35:25:716
-10,894521	-4,443472	2,873780	2020-11-19T14:35:25:739
-11,349157	-4,390830	3,079563	2020-11-19T14:35:25:756
-11,772687	-4,287938	3,165704	2020-11-19T14:35:25:780
-12,000006	-4,335794	3,060420	2020-11-19T14:35:25:796
-12,141183	-4,577469	3,058028	2020-11-19T14:35:25:819
-11,473583	-4,785645	3,055635	2020-11-19T14:35:25:836
-10,279566	-4,675575	2,988636	2020-11-19T14:35:25:860
-9,389436	-4,402793	2,694318	2020-11-19T14:35:25:876
-8,757731	-3,931407	1,715654	2020-11-19T14:35:25:899
-8,863015	-3,723232	0,600598	2020-11-19T14:35:25:916
-11,358729	-4,012764	0,303888	2020-11-19T14:35:25:946
-13,854443	-4,046263	0,162712	2020-11-19T14:35:25:956
-13,782660	-3,007778	0,401994	2020-11-19T14:35:25:979
-12,990634	-1,828116	0,693919	2020-11-19T14:35:25:997
-12,241680	-1,543371	1,110270	2020-11-19T14:35:26:020
-11,485549	-1,648655	1,249053	2020-11-19T14:35:26:037
-10,746166	-1,727618	0,921237	2020-11-19T14:35:26:059
-10,219746	-2,139183	0,765703	2020-11-19T14:35:26:077
-9,600004	-2,816352	0,770489	2020-11-19T14:35:26:100
-9,372685	-2,653640	0,177069	2020-11-19T14:35:26:117
-9,042477	-2,510071	-0,363709	2020-11-19T14:35:26:139
-8,867801	-2,567499	-0,334995	2020-11-19T14:35:26:156
-8,724231	-2,629712	0,177069	2020-11-19T14:35:26:180
-8,494520	-2,213361	0,602991	2020-11-19T14:35:26:196
-8,362915	-1,641476	0,753739	2020-11-19T14:35:26:219
-8,035098	-1,150948	0,385244	2020-11-19T14:35:26:236
-7,817351	-1,368695	0,009571	2020-11-19T14:35:26:260
-7,288538	-1,864009	0,334995	2020-11-19T14:35:26:277
-6,908078	-2,076970	0,803988	2020-11-19T14:35:26:299
-6,819544	-1,954936	0,756132	2020-11-19T14:35:26:316
-7,123433	-2,019542	0,557528	2020-11-19T14:35:26:341
-7,649854	-2,679961	0,260818	2020-11-19T14:35:26:357
-7,846066	-2,900101	0,452243	2020-11-19T14:35:26:381
-8,214561	-2,684747	0,576670	2020-11-19T14:35:26:396
-8,726624	-3,000600	0,545564	2020-11-19T14:35:26:420
-9,052048	-3,565305	0,251246	2020-11-19T14:35:26:436
-9,573684	-3,651447	-0,205783	2020-11-19T14:35:26:460
-10,741381	-3,701697	-0,634098	2020-11-19T14:35:26:476
-12,157932	-4,108476	-1,069592	2020-11-19T14:35:26:501
-13,399807	-3,924229	-1,557728	2020-11-19T14:35:26:517
-14,313866	-3,436093	-2,117648	2020-11-19T14:35:26:539
-15,153747	-3,510271	-2,553142	2020-11-19T14:35:26:556
-15,220744	-5,123034	-2,301895	2020-11-19T14:35:26:580
-13,840086	-6,329016	-1,770689	2020-11-19T14:35:26:597
-11,325230	-5,905487	-1,024128	2020-11-19T14:35:26:620
-9,279366	-5,261817	-0,081356	2020-11-19T14:35:26:636
-8,480164	-5,508278	0,641276	2020-11-19T14:35:26:661
-8,853443	-5,812167	0,763310	2020-11-19T14:35:26:676
-8,877372	-6,025128	0,440279	2020-11-19T14:35:26:700
-8,908479	-5,771489	0,380459	2020-11-19T14:35:26:716
-9,006584	-5,094319	0,267996	2020-11-19T14:35:26:741
-8,913264	-4,280759	0,337388	2020-11-19T14:35:26:757
-8,568698	-3,847659	0,581456	2020-11-19T14:35:26:780
-8,030313	-3,747160	0,882952	2020-11-19T14:35:26:796
-7,441679	-3,821337	1,308874	2020-11-19T14:35:26:820
-7,334002	-4,086941	1,545763	2020-11-19T14:35:26:837
-7,439285	-4,512863	1,730011	2020-11-19T14:35:26:860
-7,697710	-4,433900	2,122434	2020-11-19T14:35:26:877
-7,688138	-4,108476	2,316252	2020-11-19T14:35:26:900
-7,551748	-3,871587	2,170290	2020-11-19T14:35:26:916
-7,417750	-3,771089	2,182254	2020-11-19T14:35:26:940
-7,259824	-3,491128	2,036292	2020-11-19T14:35:26:958
-6,929615	-3,108276	1,418944	2020-11-19T14:35:26:980
-7,668997	-3,038885	1,031307	2020-11-19T14:35:26:997
-7,958528	-3,294917	1,201197	2020-11-19T14:35:27:020
-7,054041	-3,220739	1,540978	2020-11-19T14:35:27:037
-6,503692	-3,074777	1,734797	2020-11-19T14:35:27:061
-6,771688	-3,601198	2,189433	2020-11-19T14:35:27:079
-7,355537	-4,110869	2,612962	2020-11-19T14:35:27:100
-7,724032	-4,048656	2,347359	2020-11-19T14:35:27:117
-8,475377	-3,756732	1,351945	2020-11-19T14:35:27:142
-9,793823	-3,845266	0,679562	2020-11-19T14:35:27:157
-10,846665	-4,244867	0,583849	2020-11-19T14:35:27:180
-10,928021	-4,491328	0,789631	2020-11-19T14:35:27:197
-10,284351	-4,658825	0,842274	2020-11-19T14:35:27:221
-9,774680	-3,967300	1,383051	2020-11-19T14:35:27:237
-9,650253	-3,259024	1,847259	2020-11-19T14:35:27:260
-9,154939	-3,122634	1,825724	2020-11-19T14:35:27:277
-8,843873	-3,359523	1,502693	2020-11-19T14:35:27:301
-8,484949	-3,314059	1,000200	2020-11-19T14:35:27:318
-7,984849	-3,474378	0,543171	2020-11-19T14:35:27:340
-7,645068	-4,579862	0,705883	2020-11-19T14:35:27:357
-7,601997	-4,673182	1,375873	2020-11-19T14:35:27:381
-7,566105	-4,345366	2,270789	2020-11-19T14:35:27:397
-7,635497	-4,618148	2,459821	2020-11-19T14:35:27:420
-7,757531	-5,094319	2,672783	2020-11-19T14:35:27:437
-8,243275	-6,185446	2,859423	2020-11-19T14:35:27:461
-8,662018	-6,996613	3,608376	2020-11-19T14:35:27:477
-8,946764	-6,824330	4,795217	2020-11-19T14:35:27:500
-8,336594	-7,061220	5,096712	2020-11-19T14:35:27:517
-7,422535	-8,506484	5,113462	2020-11-19T14:35:27:541
-6,144768	-9,145369	4,689932	2020-11-19T14:35:27:559
-5,175675	-6,699903	5,240282	2020-11-19T14:35:27:581
-5,974878	-5,647062	6,965507	2020-11-19T14:35:27:597
-7,659425	-5,812167	5,458029	2020-11-19T14:35:27:622
-6,271588	-7,324430	4,596612	2020-11-19T14:35:27:637
-5,761917	-7,501499	4,027121	2020-11-19T14:35:27:661
-5,907879	-7,345965	4,723432	2020-11-19T14:35:27:677
-6,142376	-6,068198	6,137590	2020-11-19T14:35:27:701
-6,520442	-5,005785	6,745367	2020-11-19T14:35:27:717
-9,288938	-3,060420	7,389036	2020-11-19T14:35:27:740
-9,236296	-4,685147	8,257630	2020-11-19T14:35:27:757
-8,317451	-6,233303	9,824929	2020-11-19T14:35:27:781
-6,912865	-5,134997	9,688539	2020-11-19T14:35:27:809
-6,958328	-5,182854	7,649854	2020-11-19T14:35:27:821
-6,446264	-6,635297	6,695118	2020-11-19T14:35:27:837
-5,747560	-8,918050	6,819544	2020-11-19T14:35:27:863
-5,431707	-9,583255	7,128219	2020-11-19T14:35:27:877
-5,462814	-8,602197	7,355537	2020-11-19T14:35:27:901
-4,838287	-6,589834	7,262216	2020-11-19T14:35:27:917
-4,543970	-5,012963	7,582855	2020-11-19T14:35:27:941
-3,242275	-4,199404	8,319844	2020-11-19T14:35:27:958
-1,665405	-3,677768	7,752745	2020-11-19T14:35:27:981
-1,043271	-3,550949	7,015756	2020-11-19T14:35:27:997
-0,997807	-4,034299	7,228717	2020-11-19T14:35:28:021
-1,045663	-4,555934	7,867601	2020-11-19T14:35:28:038
-0,555135	-4,103691	8,470592	2020-11-19T14:35:28:060
-0,533599	-2,474179	8,920443	2020-11-19T14:35:28:078
-0,954736	-1,720440	8,827123	2020-11-19T14:35:28:102
-1,330409	-2,242075	8,652447	2020-11-19T14:35:28:117
-1,390230	-2,959922	8,422735	2020-11-19T14:35:28:141
-1,031307	-2,914458	8,566305	2020-11-19T14:35:28:158
-0,887737	-2,682354	9,377472	2020-11-19T14:35:28:181
-1,196411	-2,646462	10,016356	2020-11-19T14:35:28:198
-1,466800	-2,392823	9,669396	2020-11-19T14:35:28:220
-1,203590	-1,354338	8,463413	2020-11-19T14:35:28:237
-0,803988	-1,155733	8,413164	2020-11-19T14:35:28:262
-1,174876	-2,380858	9,193225	2020-11-19T14:35:28:278
-1,899901	-3,117848	9,755538	2020-11-19T14:35:28:300
-2,115255	-2,524428	9,559326	2020-11-19T14:35:28:318
-1,885544	-1,966900	9,174082	2020-11-19T14:35:28:342
-1,942972	-2,830709	9,001799	2020-11-19T14:35:28:358
-2,273181	-3,759124	9,066404	2020-11-19T14:35:28:382
-2,215754	-3,984050	9,248260	2020-11-19T14:35:28:398
-2,392823	-3,443272	9,308081	2020-11-19T14:35:28:423
-2,514857	-2,435893	9,020942	2020-11-19T14:35:28:438
-2,445465	-1,768296	8,896514	2020-11-19T14:35:28:462
-2,337788	-1,476372	8,939585	2020-11-19T14:35:28:478
-2,392823	-1,773082	8,956335	2020-11-19T14:35:28:502
-2,282753	-2,321038	8,664411	2020-11-19T14:35:28:519
-2,337788	-2,072184	8,446664	2020-11-19T14:35:28:541
-2,184647	-1,720440	8,506484	2020-11-19T14:35:28:558
-2,273181	-1,354338	8,717053	2020-11-19T14:35:28:582
-2,411965	-1,517050	8,975478	2020-11-19T14:35:28:598
-2,732604	-1,811367	9,231510	2020-11-19T14:35:28:621
-2,742175	-2,103291	9,169296	2020-11-19T14:35:28:638
-2,794817	-2,557927	9,135797	2020-11-19T14:35:28:662
-2,988636	-2,653640	9,159724	2020-11-19T14:35:28:678
-3,160919	-2,069792	9,075976	2020-11-19T14:35:28:701
-3,208775	-1,241875	8,865408	2020-11-19T14:35:28:718
-3,215954	-1,289732	8,925228	2020-11-19T14:35:28:742
-3,314059	-2,055435	9,018548	2020-11-19T14:35:28:759
-3,311667	-2,538785	9,135797	2020-11-19T14:35:28:781
-3,326023	-2,778067	9,195618	2020-11-19T14:35:28:798
-3,146562	-2,117648	8,819944	2020-11-19T14:35:28:822
-2,615355	-1,505085	8,535198	2020-11-19T14:35:28:838
-2,675175	-2,289931	8,676375	2020-11-19T14:35:28:861
-2,732604	-3,328416	8,702696	2020-11-19T14:35:28:878
-2,660819	-3,225525	8,432307	2020-11-19T14:35:28:901
-2,634498	-3,148954	8,575876	2020-11-19T14:35:28:920
-2,947958	-3,615555	9,068797	2020-11-19T14:35:28:941
-3,376273	-4,110869	9,511470	2020-11-19T14:35:28:959
-3,268596	-4,479364	10,401600	2020-11-19T14:35:28:982
-3,976871	-4,682754	9,903893	2020-11-19T14:35:29:000
-3,797409	-4,331009	9,501899	2020-11-19T14:35:29:021
-3,314059	-3,617948	8,906086	2020-11-19T14:35:29:040
-2,459821	-3,072384	8,992228	2020-11-19T14:35:29:062
-1,875973	-2,983850	8,705089	2020-11-19T14:35:29:078
-1,160519	-3,158526	8,659625	2020-11-19T14:35:29:101
-1,074377	-4,309474	9,008978	2020-11-19T14:35:29:118
-1,299303	-5,283352	9,217153	2020-11-19T14:35:29:142
-1,009771	-4,453043	8,922836	2020-11-19T14:35:29:159
-0,387637	-2,964707	8,118847	2020-11-19T14:35:29:181
0,605384	-2,373680	7,879565	2020-11-19T14:35:29:198
1,378266	-3,151347	8,157133	2020-11-19T14:35:29:222
1,495514	-4,204189	8,465806	2020-11-19T14:35:29:240
1,732404	-3,950550	7,618747	2020-11-19T14:35:29:261
3,000600	-2,584249	5,807381	2020-11-19T14:35:29:278
3,909872	-2,627320	6,671190	2020-11-19T14:35:29:302
3,637090	-5,874380	8,233703	2020-11-19T14:35:29:319
2,151148	-6,530013	7,094719	2020-11-19T14:35:29:341
2,622534	-3,323631	5,508278	2020-11-19T14:35:29:359
3,134598	-1,840081	5,438886	2020-11-19T14:35:29:382
3,562913	-3,462414	7,211967	2020-11-19T14:35:29:399
2,909672	-6,238089	8,303094	2020-11-19T14:35:29:421
1,392623	-8,906086	6,951149	2020-11-19T14:35:29:438
-0,157926	-8,262416	4,725825	2020-11-19T14:35:29:463
-0,643669	-7,453642	4,934000	2020-11-19T14:35:29:480
-1,062413	-6,587440	5,697310	2020-11-19T14:35:29:501
-1,409373	-5,838487	5,541777	2020-11-19T14:35:29:519
-2,639283	-6,742974	5,575277	2020-11-19T14:35:29:542
-4,558327	-7,616355	5,893522	2020-11-19T14:35:29:559
-6,130411	-7,975278	4,823930	2020-11-19T14:35:29:581
-7,329216	-8,164310	4,455436	2020-11-19T14:35:29:599
-8,073383	-8,145168	5,338387	2020-11-19T14:35:29:622
-7,886744	-6,601797	4,919643	2020-11-19T14:35:29:639
-8,094919	-5,134997	3,608376	2020-11-19T14:35:29:662
-10,001998	-5,876772	3,929015	2020-11-19T14:35:29:679
-13,686946	-7,295716	5,443672	2020-11-19T14:35:29:703
-16,869400	-6,541977	6,690332	2020-11-19T14:35:29:721
-17,257038	-6,417551	6,623333	2020-11-19T14:35:29:742
-17,202002	-5,548956	5,228317	2020-11-19T14:35:29:764
-16,247265	-5,881558	4,651647	2020-11-19T14:35:29:783
-11,609976	-8,429914	5,077570	2020-11-19T14:35:29:799
-10,758131	-7,436893	4,170690	2020-11-19T14:35:29:823
-11,368300	-7,314859	4,031906	2020-11-19T14:35:29:840
-9,494720	-6,589834	2,790031	2020-11-19T14:35:29:863
-8,975478	-6,338587	2,505285	2020-11-19T14:35:29:880
-9,600004	-5,319244	2,129612	2020-11-19T14:35:29:902
-9,911072	-4,024727	1,842474	2020-11-19T14:35:29:919
-9,911072	-2,816352	1,466800	2020-11-19T14:35:29:943
-9,578469	-2,373680	1,890330	2020-11-19T14:35:29:961
-9,052048	-2,612962	2,553142	2020-11-19T14:35:29:982
-8,764909	-2,541178	2,557927	2020-11-19T14:35:30:000
-8,185846	-2,330609	2,019542	2020-11-19T14:35:30:023
-7,740781	-2,194218	1,581656	2020-11-19T14:35:30:039
-7,367501	-2,380858	1,217947	2020-11-19T14:35:30:063
-7,238289	-2,490928	0,902094	2020-11-19T14:35:30:080
-7,606783	-2,445465	0,753739	2020-11-19T14:35:30:104
-8,288737	-2,344966	0,739382	2020-11-19T14:35:30:120
-8,422735	-2,098505	0,806381	2020-11-19T14:35:30:142
-7,802995	-2,132005	0,973879	2020-11-19T14:35:30:160
-6,917650	-2,301895	1,227518	2020-11-19T14:35:30:183
-6,599405	-2,689533	1,466800	2020-11-19T14:35:30:200
-6,798009	-3,014957	1,718047	2020-11-19T14:35:30:222
-7,022934	-3,251846	1,856830	2020-11-19T14:35:30:240
-7,152147	-3,306881	1,780260	2020-11-19T14:35:30:264
-6,860222	-2,813959	1,567299	2020-11-19T14:35:30:280
-6,943972	-2,512464	1,679761	2020-11-19T14:35:30:302
-7,360322	-2,615355	1,928615	2020-11-19T14:35:30:320
-7,635497	-2,495714	1,880759	2020-11-19T14:35:30:343
-8,106883	-2,050649	1,722832	2020-11-19T14:35:30:360
-8,618947	-1,581656	1,560120	2020-11-19T14:35:30:383
-8,757731	-1,634298	1,306481	2020-11-19T14:35:30:400
-8,228917	-1,770689	1,179662	2020-11-19T14:35:30:424
-7,774280	-1,727618	0,926022	2020-11-19T14:35:30:441
-7,965706	-1,646262	0,952343	2020-11-19T14:35:30:463
-8,350951	-1,727618	0,880559	2020-11-19T14:35:30:480
-8,310273	-1,751546	0,890130	2020-11-19T14:35:30:504
-7,810174	-1,801795	0,789631	2020-11-19T14:35:30:520
-7,267002	-1,844866	0,837488	2020-11-19T14:35:30:543
-7,226324	-1,890330	1,308874	2020-11-19T14:35:30:560
-7,398607	-1,682154	2,871387	2020-11-19T14:35:30:587
-7,496714	-1,859223	3,527020	2020-11-19T14:35:30:600
-7,250252	-1,964507	3,096312	2020-11-19T14:35:30:623
-7,077969	-2,053042	1,998007	2020-11-19T14:35:30:640
-8,032705	-2,904887	1,313660	2020-11-19T14:35:30:664
-9,714860	-3,830909	1,521835	2020-11-19T14:35:30:683
-10,832308	-4,914857	2,407180	2020-11-19T14:35:30:703
-10,937593	-5,008178	2,900101	2020-11-19T14:35:30:720
-10,425529	-4,795217	3,297310	2020-11-19T14:35:30:744
-9,975677	-4,797609	4,247260	2020-11-19T14:35:30:760
-9,468399	-5,024928	4,371687	2020-11-19T14:35:30:783
-9,190832	-5,082355	4,007978	2020-11-19T14:35:30:800
-9,477970	-5,233103	3,711268	2020-11-19T14:35:30:824
-9,621540	-4,881358	3,524628	2020-11-19T14:35:30:841
-9,511470	-5,620740	2,813959	2020-11-19T14:35:30:864
-9,087940	-6,326623	2,467000	2020-11-19T14:35:30:880
-8,640482	-6,515656	2,565106	2020-11-19T14:35:30:904
-8,358130	-6,257231	2,691926	2020-11-19T14:35:30:921
-8,444271	-5,998806	2,974278	2020-11-19T14:35:30:943
-8,542377	-5,149354	3,448057	2020-11-19T14:35:30:960
-8,475377	-4,649254	3,716053	2020-11-19T14:35:30:984
-8,444271	-4,536791	3,926622	2020-11-19T14:35:31:000
-8,583055	-4,522435	4,168297	2020-11-19T14:35:31:024
-9,075976	-4,555934	4,541577	2020-11-19T14:35:31:040
-9,827322	-4,414758	4,625326	2020-11-19T14:35:31:064
-10,320245	-4,905287	3,883551	2020-11-19T14:35:31:081
-10,346564	-5,690133	3,029313	2020-11-19T14:35:31:103
-10,370493	-6,063413	2,447858	2020-11-19T14:35:31:120
-10,530812	-6,204589	2,182254	2020-11-19T14:35:31:144
-10,870593	-6,197411	2,081756	2020-11-19T14:35:31:161
-11,650653	-6,099305	2,598605	2020-11-19T14:35:31:184
-12,918849	-5,773881	3,759124	2020-11-19T14:35:31:201
-13,799409	-4,654040	2,988636	2020-11-19T14:35:31:224
-13,395020	-3,242275	1,835295	2020-11-19T14:35:31:240
-12,059827	-2,718246	1,323231	2020-11-19T14:35:31:264
-10,947165	-3,141776	1,318445	2020-11-19T14:35:31:280
-10,372886	-3,555735	1,253839	2020-11-19T14:35:31:304
-9,934999	-3,723232	1,083949	2020-11-19T14:35:31:321
-9,375079	-4,079762	1,263410	2020-11-19T14:35:31:344
-9,236296	-4,570292	1,521835	2020-11-19T14:35:31:361
-9,205189	-4,570292	1,074377	2020-11-19T14:35:31:384
-9,104690	-4,256832	0,605384	2020-11-19T14:35:31:401
-9,265009	-4,335794	0,308674	2020-11-19T14:35:31:423
-9,485149	-4,297509	0,531207	2020-11-19T14:35:31:441
-9,054441	-3,620341	0,921237	2020-11-19T14:35:31:465
-8,501699	-2,821138	0,600598	2020-11-19T14:35:31:481
-7,836494	-3,060420	0,614955	2020-11-19T14:35:31:504
-7,379465	-3,608376	0,751346	2020-11-19T14:35:31:520
-7,226324	-3,766303	0,930808	2020-11-19T14:35:31:545
-6,884151	-3,711268	0,926022	2020-11-19T14:35:31:561
-6,407979	-3,818945	0,868595	2020-11-19T14:35:31:584
-5,986843	-3,938586	0,827917	2020-11-19T14:35:31:600
-5,647062	-4,141976	0,796810	2020-11-19T14:35:31:625
-5,288138	-4,316652	0,930808	2020-11-19T14:35:31:641
-5,077570	-4,412365	1,031307	2020-11-19T14:35:31:664
-5,070391	-4,362115	1,256232	2020-11-19T14:35:31:681
-5,245068	-4,584648	1,653440	2020-11-19T14:35:31:705
-5,800202	-4,902894	2,213361	2020-11-19T14:35:31:721
-6,551548	-5,450850	2,627320	2020-11-19T14:35:31:744
-7,247860	-5,491528	2,620141	2020-11-19T14:35:31:761
-7,661818	-5,237889	2,227718	2020-11-19T14:35:31:785
-7,855636	-5,333601	2,086541	2020-11-19T14:35:31:801
-8,044669	-5,228317	1,854438	2020-11-19T14:35:31:824
-8,657232	-5,130211	1,909473	2020-11-19T14:35:31:841
-9,353544	-4,962714	2,045863	2020-11-19T14:35:31:866
-9,784252	-4,785645	2,352145	2020-11-19T14:35:31:883
-10,147961	-4,608576	2,378466	2020-11-19T14:35:31:904
-10,540384	-4,448257	2,122434	2020-11-19T14:35:31:921
-10,717452	-4,400401	2,062613	2020-11-19T14:35:31:945
-10,774881	-4,819145	2,201397	2020-11-19T14:35:31:962
-10,423136	-5,163712	2,455036	2020-11-19T14:35:31:984
-9,676575	-5,218746	2,845066	2020-11-19T14:35:32:001
-8,635696	-5,316852	3,414558	2020-11-19T14:35:32:025
-7,836494	-5,450850	3,651447	2020-11-19T14:35:32:041
-9,683753	-4,465007	3,101098	2020-11-19T14:35:32:064
-10,648061	-2,715853	1,844866	2020-11-19T14:35:32:081
-10,437491	-1,205983	0,753739	2020-11-19T14:35:32:105
-10,435099	-0,748954	0,200997	2020-11-19T14:35:32:122
-10,650455	-0,830309	0,387637	2020-11-19T14:35:32:144
-10,231709	-1,440479	1,004985	2020-11-19T14:35:32:162
-9,600004	-2,220540	1,588834	2020-11-19T14:35:32:185
-8,963513	-3,201597	2,021935	2020-11-19T14:35:32:201
-8,214561	-4,027121	2,414358	2020-11-19T14:35:32:225
-7,355537	-4,242475	1,741975	2020-11-19T14:35:32:241
-6,975078	-4,187439	0,997807	2020-11-19T14:35:32:265
-7,238289	-4,376472	0,985843	2020-11-19T14:35:32:282
-7,647461	-4,474578	1,780260	2020-11-19T14:35:32:304
-8,035098	-4,345366	2,694318	2020-11-19T14:35:32:321
-8,102098	-4,039084	2,890530	2020-11-19T14:35:32:345
-8,338986	-3,998406	2,754139	2020-11-19T14:35:32:363
-8,496914	-4,173083	2,801995	2020-11-19T14:35:32:385
-8,719445	-4,417150	3,113062	2020-11-19T14:35:32:401
-9,207582	-4,479364	3,404987	2020-11-19T14:35:32:425
-9,499505	-4,338188	3,668197	2020-11-19T14:35:32:441
-9,676575	-4,283153	3,737589	2020-11-19T14:35:32:465
-9,676575	-4,156333	3,448057	2020-11-19T14:35:32:482
-9,882358	-3,838088	3,024528	2020-11-19T14:35:32:505
-10,758131	-3,850052	2,754139	2020-11-19T14:35:32:523
-12,126825	-4,151547	2,864209	2020-11-19T14:35:32:544
-13,485948	-4,302295	3,093920	2020-11-19T14:35:32:562
-13,462020	-4,194618	3,029313	2020-11-19T14:35:32:585
-12,595818	-4,000800	2,986243	2020-11-19T14:35:32:603
-11,447264	-4,015156	2,825923	2020-11-19T14:35:32:624
-10,289137	-4,007978	2,246860	2020-11-19T14:35:32:642
-9,824929	-3,833302	1,713261	2020-11-19T14:35:32:666
-10,935200	-4,041477	1,698904	2020-11-19T14:35:32:682
-12,351749	-4,304688	1,856830	2020-11-19T14:35:32:705
-13,201202	-4,151547	1,586441	2020-11-19T14:35:32:722
-13,931013	-3,680161	1,304088	2020-11-19T14:35:32:745
-13,619946	-3,247060	0,782453	2020-11-19T14:35:32:762
-12,509676	-2,799603	0,368495	2020-11-19T14:35:32:785
-11,325230	-2,383251	0,117248	2020-11-19T14:35:32:802
-10,497313	-2,232504	0,023928	2020-11-19T14:35:32:826
-10,162319	-2,325824	0,148355	2020-11-19T14:35:32:844
-9,846465	-2,679961	0,090927	2020-11-19T14:35:32:865
-9,695717	-2,890530	-0,098106	2020-11-19T14:35:32:882
-9,521042	-2,883351	-0,413958	2020-11-19T14:35:32:906
-9,324830	-3,002992	-0,454636	2020-11-19T14:35:32:922
-9,073583	-2,979064	-0,538385	2020-11-19T14:35:32:945
-8,614161	-2,902494	-0,320638	2020-11-19T14:35:32:962
-8,020741	-2,770889	-0,148355	2020-11-19T14:35:32:986
-7,750352	-2,658426	0,133998	2020-11-19T14:35:33:002
-7,503892	-2,364109	0,315853	2020-11-19T14:35:33:025
-7,032506	-2,038685	0,375673	2020-11-19T14:35:33:041
-6,649654	-2,055435	0,294317	2020-11-19T14:35:33:066
-6,439085	-1,974079	0,401994	2020-11-19T14:35:33:083
-6,166305	-2,055435	0,545564	2020-11-19T14:35:33:105
-6,293124	-1,804188	0,875773	2020-11-19T14:35:33:123
-6,927221	-1,986043	1,328017	2020-11-19T14:35:33:146
-7,826923	-1,842474	2,227718	2020-11-19T14:35:33:162
-8,494520	-1,897508	2,950350	2020-11-19T14:35:33:185
-8,898908	-1,873580	3,189633	2020-11-19T14:35:33:202
-8,973085	-1,849652	2,998207	2020-11-19T14:35:33:226
-9,188439	-2,215754	2,868994	2020-11-19T14:35:33:243
-9,647861	-2,648855	3,081956	2020-11-19T14:35:33:265
-10,334601	-2,833102	3,639483	2020-11-19T14:35:33:282
-10,813165	-2,921637	4,275974	2020-11-19T14:35:33:306
-11,246266	-3,014957	4,610970	2020-11-19T14:35:33:323
-11,808580	-3,096312	4,649254	2020-11-19T14:35:33:345
-11,801401	-2,888137	4,254438	2020-11-19T14:35:33:363
-11,686546	-2,589034	3,548556	2020-11-19T14:35:33:386
-11,499906	-2,782853	2,639283	2020-11-19T14:35:33:402
-11,105090	0,607777	2,962314	2020-11-19T14:35:33:426
-9,913465	-1,861616	3,359523	2020-11-19T14:35:33:442
-9,365508	-3,091527	3,098706	2020-11-19T14:35:33:466
-9,425328	-2,993421	2,330609	2020-11-19T14:35:33:483
-9,090333	-3,211168	1,892723	2020-11-19T14:35:33:505
-8,834301	-3,381058	1,617548	2020-11-19T14:35:33:523
-8,652447	-3,347559	1,607977	2020-11-19T14:35:33:546
-8,729016	-3,361916	1,789831	2020-11-19T14:35:33:588
-8,843873	-3,471986	1,993221	2020-11-19T14:35:33:590
-8,726624	-3,594020	2,112862	2020-11-19T14:35:33:602
-8,736196	-3,249453	2,210968	2020-11-19T14:35:33:626
-8,851050	-3,201597	2,325824	2020-11-19T14:35:33:642
-8,764909	-3,361916	2,476572	2020-11-19T14:35:33:666
-8,664411	-3,275774	2,533999	2020-11-19T14:35:33:682
-8,678767	-3,134598	2,644069	2020-11-19T14:35:33:706
-9,138189	-3,393023	2,751746	2020-11-19T14:35:33:723
-9,607183	-3,455236	2,751746	2020-11-19T14:35:33:746
-9,700503	-3,510271	2,653640	2020-11-19T14:35:33:763
-9,865608	-3,716053	2,591427	2020-11-19T14:35:33:787
-10,301102	-3,797409	2,553142	2020-11-19T14:35:33:804
-11,516656	-3,905087	2,493321	2020-11-19T14:35:33:825
-12,313466	-4,053442	2,620141	2020-11-19T14:35:33:844
-12,256038	-3,909872	2,624927	2020-11-19T14:35:33:868
-11,755937	-4,063013	2,593820	2020-11-19T14:35:33:883
-11,181661	-4,474578	2,656033	2020-11-19T14:35:33:906
-10,487741	-4,759324	2,402394	2020-11-19T14:35:33:923
-9,760324	-4,749753	1,818545	2020-11-19T14:35:33:946
-10,121639	-4,673182	1,397408	2020-11-19T14:35:33:964
-11,308479	-4,907679	1,349552	2020-11-19T14:35:33:986
-12,086146	-5,338387	1,392623	2020-11-19T14:35:34:003
-12,394822	-5,187639	1,100698	2020-11-19T14:35:34:029
-12,557532	-4,587041	0,674776	2020-11-19T14:35:34:049
-12,411572	-4,103691	0,593420	2020-11-19T14:35:34:066
-11,765509	-3,627519	0,454636	2020-11-19T14:35:34:083
-10,882557	-3,086741	0,220140	2020-11-19T14:35:34:107
-10,155140	-2,730211	0,189033	2020-11-19T14:35:34:123
-9,466006	-2,797210	0,196211	2020-11-19T14:35:34:146
-8,941978	-2,962314	0,071785	2020-11-19T14:35:34:164
-8,841480	-2,933600	0,066999	2020-11-19T14:35:34:187
-8,688338	-2,957529	0,076570	2020-11-19T14:35:34:203
-8,575876	-2,811567	0,011964	2020-11-19T14:35:34:226
-8,480164	-2,727818	-0,303888	2020-11-19T14:35:34:243
-8,382057	-2,629712	-0,306281	2020-11-19T14:35:34:268
-8,047063	-2,562713	0,136391	2020-11-19T14:35:34:284
-7,707282	-2,366502	0,313460	2020-11-19T14:35:34:306
-7,412964	-2,215754	0,337388	2020-11-19T14:35:34:324
-7,401000	-2,136791	0,155533	2020-11-19T14:35:34:347
-7,530212	-2,270789	0,306281	2020-11-19T14:35:34:364
-7,846066	-2,531606	0,488136	2020-11-19T14:35:34:386
-8,204988	-2,565106	0,945165	2020-11-19T14:35:34:403
-8,760124	-2,550749	1,165305	2020-11-19T14:35:34:427
-9,138189	-2,526821	1,201197	2020-11-19T14:35:34:444
-10,073784	-2,474179	1,509871	2020-11-19T14:35:34:467
-10,983055	-2,476572	2,038685	2020-11-19T14:35:34:483
-11,083554	-2,189433	2,218147	2020-11-19T14:35:34:508
-10,717452	-1,730011	2,567499	2020-11-19T14:35:34:524
-10,549955	-1,682154	3,014957	2020-11-19T14:35:34:547
-9,844072	-1,782653	3,388237	2020-11-19T14:35:34:564
-8,913264	-1,586441	3,768696	2020-11-19T14:35:34:587
-8,042276	-1,505085	3,471986	2020-11-19T14:35:34:604
-8,063812	-1,531406	3,110669	2020-11-19T14:35:34:627
-8,618947	-1,770689	2,670390	2020-11-19T14:35:34:644
-9,446864	-1,878366	2,517249	2020-11-19T14:35:34:668
-9,851252	-1,768296	2,536392	2020-11-19T14:35:34:684
-9,858429	-1,454836	2,596212	2020-11-19T14:35:34:707
-10,076177	-1,450050	2,459821	2020-11-19T14:35:34:724
-10,114462	-1,536192	2,474179	2020-11-19T14:35:34:748
-9,791430	-1,749153	2,407180	2020-11-19T14:35:34:765
-9,401401	-2,024328	2,184647	2020-11-19T14:35:34:786
-9,346365	-2,292324	2,033899	2020-11-19T14:35:34:805
-9,085547	-2,553142	1,952543	2020-11-19T14:35:34:828
-8,908479	-2,706282	1,995614	2020-11-19T14:35:34:844
-8,602197	-2,627320	2,167897	2020-11-19T14:35:34:868
-8,633304	-2,737389	2,378466	2020-11-19T14:35:34:884
-8,889337	-2,711068	2,428715	2020-11-19T14:35:34:908
-8,743374	-2,543570	2,134398	2020-11-19T14:35:34:924
-8,736196	-2,629712	1,950150	2020-11-19T14:35:34:947
-8,733803	-2,890530	2,036292	2020-11-19T14:35:34:964
-8,757731	-2,868994	2,129612	2020-11-19T14:35:34:988
-8,946764	-3,026921	2,292324	2020-11-19T14:35:35:005
-9,152546	-3,184847	2,455036	2020-11-19T14:35:35:027
-9,487542	-3,342773	2,598605	2020-11-19T14:35:35:045
-10,102496	-3,419343	2,778067	2020-11-19T14:35:35:068
-10,461421	-3,495914	2,792424	2020-11-19T14:35:35:084
-10,868200	-3,577270	2,780460	2020-11-19T14:35:35:107
-11,772687	-3,565305	2,632105	2020-11-19T14:35:35:124
-12,892529	-3,517449	2,608176	2020-11-19T14:35:35:148
-13,555340	-3,565305	2,605784	2020-11-19T14:35:35:165
-13,753943	-3,586841	2,797210	2020-11-19T14:35:35:187
-13,550553	-3,696911	2,924029	2020-11-19T14:35:35:204
-12,150753	-3,756732	2,227718	2020-11-19T14:35:35:228
-10,447062	-3,326023	1,651048	2020-11-19T14:35:35:245
-9,509077	-2,579463	1,031307	2020-11-19T14:35:35:268
-9,566505	-2,251646	0,605384	2020-11-19T14:35:35:284
-10,293922	-2,426322	0,839881	2020-11-19T14:35:35:308
-10,961520	-2,691926	1,036092	2020-11-19T14:35:35:324
-11,126624	-2,682354	0,873380	2020-11-19T14:35:35:348
-10,722239	-2,845066	0,720240	2020-11-19T14:35:35:364
-10,234102	-2,974278	0,729811	2020-11-19T14:35:35:389
-10,566705	-3,077170	0,847059	2020-11-19T14:35:35:405
-10,401600	-2,794817	0,832702	2020-11-19T14:35:35:427
-9,973285	-2,431108	0,720240	2020-11-19T14:35:35:445
-9,705289	-2,316252	0,562313	2020-11-19T14:35:35:469
-10,303494	-2,371287	0,629312	2020-11-19T14:35:35:485
-10,947165	-2,129612	0,586242	2020-11-19T14:35:35:507
-10,327423	-1,694118	0,189033	2020-11-19T14:35:35:525
-9,659825	-1,574477	-0,028714	2020-11-19T14:35:35:548
-9,470792	-1,777867	-0,107677	2020-11-19T14:35:35:565
-9,451650	-1,883151	0,066999	2020-11-19T14:35:35:590
-9,430114	-2,002793	0,301496	2020-11-19T14:35:35:605
-9,324830	-1,909473	0,507278	2020-11-19T14:35:35:628
-9,099905	-1,971686	0,495314	2020-11-19T14:35:35:645
-8,918050	-2,143969	0,224925	2020-11-19T14:35:35:668
-9,291330	-1,864009	-0,224925	2020-11-19T14:35:35:685
-9,994821	-1,562513	-0,741775	2020-11-19T14:35:35:709
-9,934999	-1,284946	-1,143769	2020-11-19T14:35:35:726
-9,444471	-1,036092	-1,500300	2020-11-19T14:35:35:748
-9,329616	-1,567299	-1,708475	2020-11-19T14:35:35:765
-9,949356	-2,718246	-1,706082	2020-11-19T14:35:35:789
-10,478169	-3,701697	-1,663012	2020-11-19T14:35:35:805
-10,135997	-4,118048	-2,201397	2020-11-19T14:35:35:828
-9,765109	-4,591826	-3,041277	2020-11-19T14:35:35:845
-9,425328	-5,254639	-3,230310	2020-11-19T14:35:35:869
-9,485149	-5,862415	-2,766103	2020-11-19T14:35:35:885
-10,336994	-6,367301	-2,060220	2020-11-19T14:35:35:908
-11,100305	-6,754939	-1,428515	2020-11-19T14:35:35:925
-11,763116	-6,857830	-1,552942	2020-11-19T14:35:35:949
-12,028719	-6,915257	-1,916651	2020-11-19T14:35:35:967
-12,315859	-7,058826	-2,019542	2020-11-19T14:35:35:988
-11,954542	-7,307681	-1,887937	2020-11-19T14:35:36:005
-10,987842	-7,846066	-1,442872	2020-11-19T14:35:36:029
-9,786645	-8,068598	-1,040878	2020-11-19T14:35:36:045
-8,609376	-7,518249	-0,648455	2020-11-19T14:35:36:070
-7,963314	-6,467800	-0,569492	2020-11-19T14:35:36:085
-8,118847	-5,759524	-0,631705	2020-11-19T14:35:36:109
-8,475377	-5,340781	-0,985843	2020-11-19T14:35:36:125
-9,116654	-5,075177	-1,320838	2020-11-19T14:35:36:148
-9,760324	-4,929214	-1,165305	2020-11-19T14:35:36:165
-10,100104	-4,816752	-1,062413	2020-11-19T14:35:36:189
-10,250853	-4,666004	-0,949951	2020-11-19T14:35:36:206
-9,994821	-4,788038	-1,024128	2020-11-19T14:35:36:228
-9,542577	-5,082355	-1,009771	2020-11-19T14:35:36:245
-9,042477	-5,441278	-0,468993	2020-11-19T14:35:36:269
-8,427521	-5,867201	0,251246	2020-11-19T14:35:36:285
-8,090133	-5,757132	0,619741	2020-11-19T14:35:36:309
-8,197811	-4,962714	0,605384	2020-11-19T14:35:36:325
-8,336594	-4,359723	0,679562	2020-11-19T14:35:36:350
-8,477771	-4,185047	0,861416	2020-11-19T14:35:36:366
-8,743374	-3,835695	0,981057	2020-11-19T14:35:36:388
-9,367901	-3,842873	0,818345	2020-11-19T14:35:36:405
-9,942179	-3,857230	0,677169	2020-11-19T14:35:36:429
-9,839286	-3,838088	0,677169	2020-11-19T14:35:36:446
-9,379865	-4,144369	0,849452	2020-11-19T14:35:36:469
-9,372685	-4,290331	0,894916	2020-11-19T14:35:36:486
-9,784252	-4,371687	0,509671	2020-11-19T14:35:36:510
-10,097712	-4,340580	0,579063	2020-11-19T14:35:36:526
-10,104890	-4,161119	0,880559	2020-11-19T14:35:36:549
-11,040483	-4,065405	0,296710	2020-11-19T14:35:36:566
-11,973685	-4,046263	-0,385244	2020-11-19T14:35:36:590
-11,272588	-3,687340	-0,478565	2020-11-19T14:35:36:606
-10,356135	-3,127419	-0,650848	2020-11-19T14:35:36:629
-11,399406	-3,148954	-0,756132	2020-11-19T14:35:36:646
-12,504892	-0,722632	-0,780060	2020-11-19T14:35:36:670
-11,820543	0,220140	0,191426	2020-11-19T14:35:36:687
-11,509477	-1,856830	0,677169	2020-11-19T14:35:36:709
-10,954341	-2,895315	0,976272	2020-11-19T14:35:36:727
-9,403792	-3,498307	0,849452	2020-11-19T14:35:36:750
-8,815158	-3,074777	0,559920	2020-11-19T14:35:36:766
-8,724231	-1,627119	0,301496	2020-11-19T14:35:36:789
-8,458629	-0,191426	-0,327817	2020-11-19T14:35:36:806
-8,786445	1,093520	-0,940379	2020-11-19T14:35:36:830
-9,121440	1,811367	-1,780260	2020-11-19T14:35:36:847
-9,868000	1,205983	-2,163112	2020-11-19T14:35:36:869
-10,872985	-0,272782	-2,165504	2020-11-19T14:35:36:886
-10,753345	-1,768296	-2,172683	2020-11-19T14:35:36:910
-10,085747	-2,261217	-2,268396	2020-11-19T14:35:36:927
-9,305687	-1,708475	-1,890330	2020-11-19T14:35:36:949
-9,104690	-1,201197	-1,241875	2020-11-19T14:35:36:966
-8,556733	-0,926022	-0,208176	2020-11-19T14:35:36:990
-8,317451	-1,452443	0,114855	2020-11-19T14:35:37:006
-8,738588	-1,756332	-0,483350	2020-11-19T14:35:37:029
-9,011370	-1,598405	-0,133998	2020-11-19T14:35:37:046
-8,111670	-1,686940	-0,124427	2020-11-19T14:35:37:070
-7,633104	-1,919044	-0,114855	2020-11-19T14:35:37:087
-8,812766	-0,667598	-1,272982	2020-11-19T14:35:37:109
-10,439885	1,016950	-0,976272	2020-11-19T14:35:37:126
-10,662418	0,260818	-0,145962	2020-11-19T14:35:37:150
-9,934999	-0,820738	-0,057428	2020-11-19T14:35:37:168
-10,609775	-1,179662	-0,612563	2020-11-19T14:35:37:189
-11,983256	-1,222732	-0,899701	2020-11-19T14:35:37:206
-13,179667	-1,287339	-1,299303	2020-11-19T14:35:37:230
-14,225330	-1,579263	-1,880759	2020-11-19T14:35:37:247
-13,945370	-0,973879	-1,993221	2020-11-19T14:35:37:270
-12,720245	0,138784	-1,859223	2020-11-19T14:35:37:286
-11,502297	1,141376	-1,387837	2020-11-19T14:35:37:310
-10,174281	0,897308	-0,552742	2020-11-19T14:35:37:327
-9,358330	-0,009571	-0,378066	2020-11-19T14:35:37:349
-10,001998	-0,160319	-0,650848	2020-11-19T14:35:37:367
-11,133803	-0,648455	-0,792024	2020-11-19T14:35:37:390
-12,141183	-1,454836	-0,808774	2020-11-19T14:35:37:407
-12,150753	0,842274	-0,059821	2020-11-19T14:35:37:429
-10,169496	3,029313	0,026321	2020-11-19T14:35:37:447
-9,162118	2,766103	-0,236889	2020-11-19T14:35:37:471
-9,111869	0,952343	-0,540778	2020-11-19T14:35:37:486
-8,327023	-0,026321	-0,593420	2020-11-19T14:35:37:510
-7,142576	-0,483350	-0,143569	2020-11-19T14:35:37:527
-6,446264	-1,263410	0,772882	2020-11-19T14:35:37:550
-6,305088	-1,674976	1,105484	2020-11-19T14:35:37:567
-6,290731	-1,277767	1,093520	2020-11-19T14:35:37:590
-6,486942	-1,270589	1,256232	2020-11-19T14:35:37:606
-6,824330	-1,691726	1,385444	2020-11-19T14:35:37:631
-6,908078	-2,213361	1,464408	2020-11-19T14:35:37:648
-7,008578	-2,127219	1,356731	2020-11-19T14:35:37:670
-7,245467	-2,234896	1,179662	2020-11-19T14:35:37:687
-7,525427	-2,213361	0,890130	2020-11-19T14:35:37:711
-7,597212	-2,299503	0,851845	2020-11-19T14:35:37:726
-8,047063	-2,766103	1,107877	2020-11-19T14:35:37:750
-10,214959	-3,294917	2,148755	2020-11-19T14:35:37:768
-12,067005	-3,845266	3,098706	2020-11-19T14:35:37:790
-12,579069	-4,579862	3,735196	2020-11-19T14:35:37:807
-12,198609	-4,345366	3,534199	2020-11-19T14:35:37:830
-12,014362	-4,005585	3,129812	2020-11-19T14:35:37:848
-12,660425	-3,859623	2,510071	2020-11-19T14:35:37:871
-13,430914	-3,438486	2,411965	2020-11-19T14:35:37:889
-13,576876	-3,117848	3,010171	2020-11-19T14:35:37:910
-13,100704	-3,464807	4,065405	2020-11-19T14:35:37:927
-12,184253	-4,094120	4,311867	2020-11-19T14:35:37:951
-10,853845	-4,601398	3,986443	2020-11-19T14:35:37:968
-10,090532	-4,993821	3,567699	2020-11-19T14:35:37:990
-10,171888	-5,280960	3,314059	2020-11-19T14:35:38:008
-10,889735	-5,144568	3,055635	2020-11-19T14:35:38:030
-11,540584	-4,656433	2,550749	2020-11-19T14:35:38:052
-11,789437	-3,617948	1,933401	2020-11-19T14:35:38:071
-11,952149	-2,833102	1,505085	2020-11-19T14:35:38:168
-11,765509	-2,474179	1,325624	2020-11-19T14:35:38:169
-11,030912	-2,155933	1,179662	2020-11-19T14:35:38:173
-10,607382	-1,875973	1,201197	2020-11-19T14:35:38:174
-10,377672	-1,868794	1,105484	2020-11-19T14:35:38:175
-10,217353	-2,127219	0,961915	2020-11-19T14:35:38:330
-9,923036	-2,423929	0,787239	2020-11-19T14:35:38:337
-9,841680	-2,569891	0,591027	2020-11-19T14:35:38:338
-9,628718	-2,682354	0,325424	2020-11-19T14:35:38:341
-9,408579	-2,670390	0,124427	2020-11-19T14:35:38:343
-9,068797	-2,653640	0,045464	2020-11-19T14:35:38:344
-8,726624	-2,522035	0,050249	2020-11-19T14:35:38:345
-8,439486	-2,199004	0,093320	2020-11-19T14:35:38:345
-8,362915	-1,890330	0,397209	2020-11-19T14:35:38:352
-8,441878	-1,773082	0,696311	2020-11-19T14:35:38:368
-8,197811	-1,634298	0,859023	2020-11-19T14:35:38:388
-7,987241	-1,655833	0,631705	2020-11-19T14:35:38:406
-8,212167	-1,830509	0,734596	2020-11-19T14:35:38:430
-8,676375	-1,854438	0,928415	2020-11-19T14:35:38:447
-8,776874	-1,734797	1,473979	2020-11-19T14:35:38:471
-8,886944	-1,605584	2,100898	2020-11-19T14:35:38:488
-9,528220	-1,182054	2,347359	2020-11-19T14:35:38:511
-9,939785	-0,916451	2,091327	2020-11-19T14:35:38:528
-10,138390	-1,076770	2,323431	2020-11-19T14:35:38:550
-10,222138	-1,440479	2,584249	2020-11-19T14:35:38:568
-10,313066	-1,694118	2,596212	2020-11-19T14:35:38:592
-10,033106	-1,665405	2,478964	2020-11-19T14:35:38:608
-9,399008	-1,785046	2,495714	2020-11-19T14:35:38:641
-9,343972	-2,208575	2,560320	2020-11-19T14:35:38:647
-9,774680	-2,471786	2,627320	2020-11-19T14:35:38:672
-10,222138	-2,536392	2,593820	2020-11-19T14:35:38:687
-10,451849	-2,612962	2,299503	2020-11-19T14:35:38:712
-10,717452	-2,708675	1,856830	2020-11-19T14:35:38:728
-10,913664	-3,038885	1,385444	2020-11-19T14:35:38:751
-10,760524	-3,349952	0,930808	2020-11-19T14:35:38:769
-10,260423	-3,431308	0,413958	2020-11-19T14:35:38:791
-9,882358	-3,634698	-0,282353	2020-11-19T14:35:38:807
-9,748360	-3,845266	-0,875773	2020-11-19T14:35:38:832
-9,664611	-4,096512	-0,782453	2020-11-19T14:35:38:849
-9,174082	-4,242475	-0,244068	2020-11-19T14:35:38:871
-8,537591	-4,283153	0,265603	2020-11-19T14:35:38:888
-8,501699	-4,161119	0,416351	2020-11-19T14:35:38:912
-8,908479	-4,146761	0,114855	2020-11-19T14:35:38:928
-9,600004	-4,247260	0,062213	2020-11-19T14:35:38:951
-10,135997	-3,885944	0,294317	2020-11-19T14:35:38:968
-10,334601	-3,651447	0,679562	2020-11-19T14:35:38:992
-10,561919	-3,663411	1,325624	2020-11-19T14:35:39:008
-10,145569	-3,608376	1,780260	2020-11-19T14:35:39:031
-9,604790	-3,625126	2,153540	2020-11-19T14:35:39:048
-9,487542	-4,015156	2,732604	2020-11-19T14:35:39:072
-9,628718	-4,441079	3,158526	2020-11-19T14:35:39:089
-9,664611	-4,486543	3,500700	2020-11-19T14:35:39:111
-9,793823	-4,335794	3,510271	2020-11-19T14:35:39:128
-10,602598	-4,307081	3,811767	2020-11-19T14:35:39:152
-11,669796	-4,417150	4,290331	2020-11-19T14:35:39:169
-12,232110	-4,103691	4,386044	2020-11-19T14:35:39:191
-12,256038	-3,754339	4,254438	2020-11-19T14:35:39:208
-11,739187	-3,605984	4,242475	2020-11-19T14:35:39:232
-11,095518	-3,672983	4,182654	2020-11-19T14:35:39:249
-11,205588	-3,739982	4,161119	2020-11-19T14:35:39:272
-11,796617	-4,039084	4,048656	2020-11-19T14:35:39:288
-12,435498	-4,141976	3,850052	2020-11-19T14:35:39:312
-13,052847	-3,426522	3,493521	2020-11-19T14:35:39:330
-13,406984	-2,770889	2,957529	2020-11-19T14:35:39:351
-13,808979	-2,194218	2,452643	2020-11-19T14:35:39:369
-13,658232	-2,100898	1,995614	2020-11-19T14:35:39:392
-13,098311	-1,916651	1,928615	2020-11-19T14:35:39:408
-12,346965	-1,823331	1,902294	2020-11-19T14:35:39:431
-11,442478	-1,777867	1,883151	2020-11-19T14:35:39:448
-10,789237	-1,651048	1,837688	2020-11-19T14:35:39:472
-10,509278	-1,931008	1,493121	2020-11-19T14:35:39:489
-10,193424	-1,998007	1,270589	2020-11-19T14:35:39:511
-9,990034	-2,213361	1,086342	2020-11-19T14:35:39:528
-9,602397	-2,151148	0,760918	2020-11-19T14:35:39:552
-8,848659	-1,969293	0,378066	2020-11-19T14:35:39:572
-8,288737	-1,765903	0,564706	2020-11-19T14:35:39:591
-7,738388	-1,579263	0,689133	2020-11-19T14:35:39:609
-7,046863	-1,495514	0,547956	2020-11-19T14:35:39:632
-6,422336	-1,502693	0,332602	2020-11-19T14:35:39:648
-6,154340	-1,569692	0,483350	2020-11-19T14:35:39:672
-6,092126	-1,569692	0,825524	2020-11-19T14:35:39:689
-6,348158	-1,758725	1,019342	2020-11-19T14:35:39:712
-6,702296	-1,701297	1,076770	2020-11-19T14:35:39:729
-7,109076	-1,751546	1,071985	2020-11-19T14:35:39:751
-7,738388	-1,612763	1,320838	2020-11-19T14:35:39:769
-8,865408	-1,581656	1,718047	2020-11-19T14:35:39:792
-10,195816	-1,641476	2,132005	2020-11-19T14:35:39:811
-10,817951	-1,485943	2,163112	2020-11-19T14:35:39:832
-11,327622	-1,438086	2,057827	2020-11-19T14:35:39:849
-11,885150	-1,885544	2,232504	2020-11-19T14:35:39:873
-11,251052	-2,541178	2,622534	2020-11-19T14:35:39:889
-10,801201	-2,694318	3,036492	2020-11-19T14:35:39:912
-11,205588	-3,002992	3,632305	2020-11-19T14:35:39:929
-12,540783	-3,335595	4,287938	2020-11-19T14:35:39:952
-13,414164	-3,658626	4,297509	2020-11-19T14:35:39:969
-13,385449	-3,306881	3,474378	2020-11-19T14:35:39:992
-12,753745	-3,177669	2,220540	2020-11-19T14:35:40:009
-12,181859	-3,072384	1,256232	2020-11-19T14:35:40:033
-11,294124	-2,754139	0,552742	2020-11-19T14:35:40:049
-10,325029	-2,481357	0,564706	2020-11-19T14:35:40:072
-9,659825	-2,433501	0,870987	2020-11-19T14:35:40:090
-9,133404	-2,794817	1,110270	2020-11-19T14:35:40:113
-8,681160	-3,187240	1,184447	2020-11-19T14:35:40:129
-8,405986	-3,560520	1,270589	2020-11-19T14:35:40:152
-8,209774	-3,890730	1,493121	2020-11-19T14:35:40:169
-8,298308	-3,878766	1,342373	2020-11-19T14:35:40:193
-8,470592	-3,603590	1,069592	2020-11-19T14:35:40:210
-8,516055	-3,713661	1,110270	2020-11-19T14:35:40:232
-8,791230	-3,766303	1,703690	2020-11-19T14:35:40:249
-9,008978	-3,493521	2,352145	2020-11-19T14:35:40:273
-9,121440	-3,337988	2,684747	2020-11-19T14:35:40:290
-8,946764	-3,371487	2,600998	2020-11-19T14:35:40:312
-8,815158	-3,682554	2,864209	2020-11-19T14:35:40:329
-9,068797	-4,244867	3,450450	2020-11-19T14:35:40:353
-9,573684	-4,625326	4,065405	2020-11-19T14:35:40:370
-9,942179	-4,666004	4,314260	2020-11-19T14:35:40:392
-10,506885	-4,496114	4,347759	2020-11-19T14:35:40:409
-11,600404	-4,254438	4,421937	2020-11-19T14:35:40:433
-12,461821	-4,125226	4,711468	2020-11-19T14:35:40:450
-12,177074	-3,775874	4,857430	2020-11-19T14:35:40:473
-11,691331	-3,357130	4,898108	2020-11-19T14:35:40:489
-11,169697	-3,196811	4,850252	2020-11-19T14:35:40:513
-10,700702	-3,172883	4,723432	2020-11-19T14:35:40:531
-10,293922	-3,270989	4,297509	2020-11-19T14:35:40:552
-10,222138	-3,479164	3,730411	2020-11-19T14:35:40:573
-11,246266	-3,357130	3,304488	2020-11-19T14:35:40:595
-12,327823	-3,144169	2,995814	2020-11-19T14:35:40:609
-13,146168	-2,670390	2,522035	2020-11-19T14:35:40:634
-13,277774	-2,067399	1,928615	2020-11-19T14:35:40:650
-13,502698	-1,854438	2,086541	2020-11-19T14:35:40:673
-13,284950	-1,777867	2,165504	2020-11-19T14:35:40:690
-12,473784	-1,536192	2,062613	2020-11-19T14:35:40:712
-11,545370	-1,289732	1,871187	2020-11-19T14:35:40:730
-10,954341	-1,392623	1,593620	2020-11-19T14:35:40:753
-10,413565	-1,533799	1,117448	2020-11-19T14:35:40:772
-9,803394	-1,744368	1,021735	2020-11-19T14:35:40:793
-9,320045	-2,048256	1,227518	2020-11-19T14:35:40:810
-8,848659	-1,974079	1,373480	2020-11-19T14:35:40:833
-8,341379	-1,797010	1,174876	2020-11-19T14:35:40:850
-7,712067	-1,564906	1,093520	2020-11-19T14:35:40:873
-7,334002	-1,351945	1,024128	2020-11-19T14:35:40:890
-7,092326	-1,127020	1,040878	2020-11-19T14:35:40:913
-6,774081	-0,952343	1,162912	2020-11-19T14:35:40:930
-6,561120	-0,882952	1,079163	2020-11-19T14:35:40:953
-6,522834	-1,031307	1,158126	2020-11-19T14:35:40:970
-6,637690	-0,897308	1,344766	2020-11-19T14:35:40:993
-6,948757	-0,942772	1,562513	2020-11-19T14:35:41:011
-7,113862	-1,158126	1,612763	2020-11-19T14:35:41:033
-7,635497	-1,677369	1,682154	2020-11-19T14:35:41:050
-8,566305	-2,663212	2,103291	2020-11-19T14:35:41:074
-9,312866	-2,919244	2,426322	2020-11-19T14:35:41:090
-9,698111	-2,947958	2,361716	2020-11-19T14:35:41:113
-9,796216	-3,591627	2,239682	2020-11-19T14:35:41:130
-9,552148	-4,106083	2,203789	2020-11-19T14:35:41:153
-9,796216	-3,885944	2,435893	2020-11-19T14:35:41:171
-10,712667	-3,536592	3,096312	2020-11-19T14:35:41:193
-11,729616	-3,644269	3,172883	2020-11-19T14:35:41:210
-12,038290	-3,783052	2,682354	2020-11-19T14:35:41:234
-12,107682	-3,443272	2,158326	2020-11-19T14:35:41:251
-12,519248	-3,249453	1,875973	2020-11-19T14:35:41:273
-12,516854	-3,373880	1,770689	2020-11-19T14:35:41:290
-12,043077	-3,290131	1,533799	2020-11-19T14:35:41:314
-11,447264	-3,275774	1,416551	2020-11-19T14:35:41:331
-10,796415	-3,364309	1,344766	2020-11-19T14:35:41:354
-10,016356	-3,651447	1,122234	2020-11-19T14:35:41:371
-9,245867	-3,670590	0,772882	2020-11-19T14:35:41:394
-8,886944	-3,706482	0,571885	2020-11-19T14:35:41:411
-8,697910	-3,873980	0,361316	2020-11-19T14:35:41:435
-8,918050	-4,022335	0,325424	2020-11-19T14:35:41:450
-9,138189	-4,134798	0,349352	2020-11-19T14:35:41:476
-9,315259	-4,192225	0,626920	2020-11-19T14:35:41:493
-9,363115	-4,218546	0,988236	2020-11-19T14:35:41:513
-9,308081	-3,986443	0,997807	2020-11-19T14:35:41:530
-9,099905	-3,873980	0,672383	2020-11-19T14:35:41:554
-9,133404	-3,900301	0,736989	2020-11-19T14:35:41:570
-8,982656	-4,096512	1,119841	2020-11-19T14:35:41:593
-8,685946	-4,180261	1,761117	2020-11-19T14:35:41:611
-8,300702	-3,931407	1,895115	2020-11-19T14:35:41:634
-8,300702	-3,790231	1,921437	2020-11-19T14:35:41:651
-8,611769	-4,122833	2,285146	2020-11-19T14:35:41:674
-9,025726	-4,357330	2,940779	2020-11-19T14:35:41:691
-9,540184	-4,340580	3,397808	2020-11-19T14:35:41:715
-11,124231	-4,378866	3,835695	2020-11-19T14:35:41:732
-12,016755	-4,366901	4,220939	2020-11-19T14:35:41:753
-12,265609	-3,945765	4,433900	2020-11-19T14:35:41:771
-12,466606	-3,620341	4,740182	2020-11-19T14:35:41:795
-12,550355	-3,933800	5,039285	2020-11-19T14:35:41:811
-12,148360	-4,036692	4,929214	2020-11-19T14:35:41:834
-11,318050	-3,768696	4,431508	2020-11-19T14:35:41:851
-10,997414	-3,395415	3,938586	2020-11-19T14:35:41:875
-11,399406	-3,203990	3,220739	2020-11-19T14:35:41:891
-11,770294	-3,005385	2,928815	2020-11-19T14:35:41:914
-12,107682	-2,799603	2,957529	2020-11-19T14:35:41:931
-12,629318	-2,435893	2,847459	2020-11-19T14:35:41:955
-12,930815	-2,009971	2,519642	2020-11-19T14:35:41:972
-12,662818	-1,868794	2,249253	2020-11-19T14:35:41:994
-11,638690	-1,579263	1,868794	2020-11-19T14:35:42:011
-10,459028	-1,385444	1,596013	2020-11-19T14:35:42:034
-9,650253	-1,332802	1,339981	2020-11-19T14:35:42:050
-9,064013	-1,622334	1,172483	2020-11-19T14:35:42:076
-8,793623	-1,942972	0,926022	2020-11-19T14:35:42:091
-8,616554	-2,076970	0,646062	2020-11-19T14:35:42:115
-8,410772	-2,067399	0,373280	2020-11-19T14:35:42:132
-8,317451	-2,132005	0,145962	2020-11-19T14:35:42:154
-8,152347	-2,210968	0,141177	2020-11-19T14:35:42:172
-7,865208	-2,007578	0,270389	2020-11-19T14:35:42:195
-7,513463	-1,878366	0,447458	2020-11-19T14:35:42:212
-7,046863	-1,734797	0,478565	2020-11-19T14:35:42:234
-6,668797	-1,763510	0,564706	2020-11-19T14:35:42:251
-6,307480	-1,820938	0,526421	2020-11-19T14:35:42:275
-6,262017	-1,962115	0,641276	2020-11-19T14:35:42:291
-6,707082	-1,933401	0,839881	2020-11-19T14:35:42:314
-7,276574	-1,926222	0,990629	2020-11-19T14:35:42:331
-8,039884	-1,883151	1,119841	2020-11-19T14:35:42:355
-9,229117	-1,887937	1,311267	2020-11-19T14:35:42:372
-10,499706	-1,828116	1,550549	2020-11-19T14:35:42:394
-11,325230	-2,191825	1,674976	2020-11-19T14:35:42:411
-12,181859	-2,318645	1,495514	2020-11-19T14:35:42:435
-13,641481	-2,349752	1,627119	2020-11-19T14:35:42:452
-14,033905	-3,471986	2,651247	2020-11-19T14:35:42:474
-12,686745	-4,591826	4,412365	2020-11-19T14:35:42:492
-10,899307	-4,800002	5,668597	2020-11-19T14:35:42:514
-9,422935	-4,328616	5,558527	2020-11-19T14:35:42:531
-8,714661	-3,218346	4,517649	2020-11-19T14:35:42:554
-8,623734	-2,139183	2,962314	2020-11-19T14:35:42:572
-8,958728	-1,399801	1,672583	2020-11-19T14:35:42:594
-9,789038	-0,945165	0,868595	2020-11-19T14:35:42:612
-10,774881	-0,947558	0,825524	2020-11-19T14:35:42:634
-10,844273	-1,328017	1,067199	2020-11-19T14:35:42:652
-9,729217	-1,512264	1,313660	2020-11-19T14:35:42:676
-8,884550	-1,773082	1,555335	2020-11-19T14:35:42:692
-8,860621	-2,383251	2,261217	2020-11-19T14:35:42:714
-9,135797	-2,801995	2,483750	2020-11-19T14:35:42:732
-8,729016	-3,031706	1,658226	2020-11-19T14:35:42:754
-8,800802	-3,476771	2,395216	2020-11-19T14:35:42:772
-8,889337	-4,029513	3,134598	2020-11-19T14:35:42:794
-8,561519	-3,622734	2,919244	2020-11-19T14:35:42:812
-8,252845	-3,259024	2,210968	2020-11-19T14:35:42:834
-7,874779	-3,751946	1,885544	2020-11-19T14:35:42:853
-8,030313	-4,189832	2,962314	2020-11-19T14:35:42:875
-8,176274	-4,149154	3,627519	2020-11-19T14:35:42:892
-8,097312	-3,917051	3,218346	2020-11-19T14:35:42:915
-7,948956	-4,041477	2,574677	2020-11-19T14:35:42:933
-8,324631	-4,390830	3,134598	2020-11-19T14:35:42:954
-9,083155	-4,144369	3,440879	2020-11-19T14:35:42:972
-9,406186	-3,787838	3,266203	2020-11-19T14:35:42:994
-9,949356	-3,749553	3,022135	2020-11-19T14:35:43:012
-10,971091	-3,749553	3,139383	2020-11-19T14:35:43:035
-12,409179	-3,761517	3,402594	2020-11-19T14:35:43:052
-14,036297	-3,976871	4,445865	2020-11-19T14:35:43:076
-13,928620	-3,955336	4,867002	2020-11-19T14:35:43:093
-11,444871	-3,318845	3,945765	2020-11-19T14:35:43:115
-10,164711	-2,974278	3,495914	2020-11-19T14:35:43:132
-9,875179	-3,337988	3,859623	2020-11-19T14:35:43:155
-9,686146	-3,670590	4,445865	2020-11-19T14:35:43:173
-9,846465	-3,412165	4,730610	2020-11-19T14:35:43:194
-9,805787	-2,897708	4,271189	2020-11-19T14:35:43:212
-9,387043	-2,502892	3,287738	2020-11-19T14:35:43:235
-9,080762	-2,644069	2,679961	2020-11-19T14:35:43:252
-9,128618	-2,921637	2,663212	2020-11-19T14:35:43:275
-9,138189	-2,988636	2,916851	2020-11-19T14:35:43:292
-9,387043	-2,457429	2,782853	2020-11-19T14:35:43:315
-10,001998	-2,206182	1,971686	2020-11-19T14:35:43:334
-10,803595	-2,301895	1,689333	2020-11-19T14:35:43:355
-11,042876	-2,548356	1,732404	2020-11-19T14:35:43:373
-10,578669	-2,586641	1,775474	2020-11-19T14:35:43:395
-9,970891	-2,450250	1,878366	2020-11-19T14:35:43:413
-9,128618	-2,222932	2,002793	2020-11-19T14:35:43:435
-8,104490	-2,234896	2,127219	2020-11-19T14:35:43:452
-7,412964	-2,471786	2,660819	2020-11-19T14:35:43:476
-6,836295	-2,895315	3,754339	2020-11-19T14:35:43:492
-5,802595	-3,337988	4,488935	2020-11-19T14:35:43:515
-5,687739	-3,574877	4,189832	2020-11-19T14:35:43:533
-6,326623	-3,543770	4,067799	2020-11-19T14:35:43:555
-6,747760	-3,290131	5,498707	2020-11-19T14:35:43:573
-6,695118	-2,323431	5,661418	2020-11-19T14:35:43:595
-6,216553	-0,906880	5,194818	2020-11-19T14:35:43:613
-5,709275	-0,126820	4,225725	2020-11-19T14:35:43:636
-5,601598	-0,227318	3,223132	2020-11-19T14:35:43:653
-5,850451	-0,189033	2,533999	2020-11-19T14:35:43:676
-6,599405	-0,607777	2,364109	2020-11-19T14:35:43:693
-7,743174	-1,086342	2,488536	2020-11-19T14:35:43:715
-8,831908	-1,215554	2,002793	2020-11-19T14:35:43:733
-9,970891	-1,543371	1,009771	2020-11-19T14:35:43:756
-11,184053	-2,249253	1,280160	2020-11-19T14:35:43:773
-11,224730	-3,244668	2,687140	2020-11-19T14:35:43:795
-10,025927	-3,974478	4,208975	2020-11-19T14:35:43:813
-9,090333	-4,058227	4,756931	2020-11-19T14:35:43:835
-9,202796	-4,060620	4,321437	2020-11-19T14:35:43:853
-10,741381	-4,419543	3,436093	2020-11-19T14:35:43:876
-11,246266	-4,342973	3,105884	2020-11-19T14:35:43:894
-11,150554	-4,149154	2,799603	2020-11-19T14:35:43:915
-11,083554	-3,270989	2,431108	2020-11-19T14:35:43:933
-11,172089	-2,452643	1,969293	2020-11-19T14:35:43:956
-10,815558	-2,000400	1,725225	2020-11-19T14:35:43:973
-10,226924	-2,043471	1,507478	2020-11-19T14:35:43:996
-9,760324	-2,203789	1,325624	2020-11-19T14:35:44:013
-9,580862	-2,536392	1,241875	2020-11-19T14:35:44:036
-9,444471	-2,919244	1,265803	2020-11-19T14:35:44:053
-9,238688	-3,462414	1,438086	2020-11-19T14:35:44:076
-8,934800	-3,799802	1,505085	2020-11-19T14:35:44:093
-8,855836	-3,842873	1,505085	2020-11-19T14:35:44:116
-8,764909	-3,754339	1,560120	2020-11-19T14:35:44:135
-8,618947	-3,603590	1,799403	2020-11-19T14:35:44:156
-8,487342	-3,414558	1,911865	2020-11-19T14:35:44:173
-8,444271	-3,503092	2,124826	2020-11-19T14:35:44:196
-8,228917	-3,646662	2,368894	2020-11-19T14:35:44:213
-8,006385	-3,835695	2,684747	2020-11-19T14:35:44:236
-8,334201	-3,797409	3,060420	2020-11-19T14:35:44:253
-8,965906	-3,816552	3,326023	2020-11-19T14:35:44:276
-9,427721	-4,022335	3,649055	2020-11-19T14:35:44:294
-9,724431	-4,319045	3,792624	2020-11-19T14:35:44:316
-9,781858	-4,532006	3,857230	2020-11-19T14:35:44:333
-9,631111	-4,651647	3,859623	2020-11-19T14:35:44:356
-9,585647	-4,675575	3,900301	2020-11-19T14:35:44:375
-9,997212	-4,354938	3,996014	2020-11-19T14:35:44:396
-10,657632	-4,153940	4,098906	2020-11-19T14:35:44:415
-11,339586	-4,091727	4,027121	2020-11-19T14:35:44:436
-11,901899	-4,012764	3,804588	2020-11-19T14:35:44:453
-11,877973	-4,170690	3,917051	2020-11-19T14:35:44:476
-11,468799	-4,127619	4,094120	2020-11-19T14:35:44:493
-10,908878	-3,921836	3,948158	2020-11-19T14:35:44:516
-11,368300	-3,957729	3,330809	2020-11-19T14:35:44:534
-12,626925	-4,031906	2,586641	2020-11-19T14:35:44:557
-14,117653	-3,938586	2,110470	2020-11-19T14:35:44:574
-15,002998	-3,436093	1,797010	2020-11-19T14:35:44:596
-15,093925	-2,694318	1,653440	2020-11-19T14:35:44:614
-14,512468	-2,256432	1,564906	2020-11-19T14:35:44:636
-13,562519	-2,096112	1,600798	2020-11-19T14:35:44:654
-12,294323	-2,072184	1,703690	2020-11-19T14:35:44:677
-11,282159	-2,225325	1,785046	2020-11-19T14:35:44:693
-10,542776	-2,414358	1,435694	2020-11-19T14:35:44:716
-10,112068	-2,605784	1,191626	2020-11-19T14:35:44:734
-10,076177	-2,727818	0,985843	2020-11-19T14:35:44:756
-9,834501	-2,639283	0,736989	2020-11-19T14:35:44:774
-9,542577	-2,342573	0,626920	2020-11-19T14:35:44:797
-9,004191	-2,060220	0,641276	2020-11-19T14:35:44:814
-8,449057	-1,567299	0,550349	2020-11-19T14:35:44:837
-7,968100	-1,203590	0,457029	2020-11-19T14:35:44:855
-7,692925	-0,949951	0,466600	2020-11-19T14:35:44:877
-7,688138	-1,146162	0,485743	2020-11-19T14:35:44:894
-7,606783	-1,174876	0,404387	2020-11-19T14:35:44:917
-7,525427	-1,325624	0,346959	2020-11-19T14:35:44:934
-7,319644	-1,194018	0,165105	2020-11-19T14:35:44:957
-7,271788	-1,143769	0,122034	2020-11-19T14:35:44:974
-6,867401	-1,337588	0,323031	2020-11-19T14:35:44:997
-6,448657	-1,445265	0,729811	2020-11-19T14:35:45:014
-6,632904	-1,849652	1,119841	2020-11-19T14:35:45:037
-7,032506	-2,088934	1,191626	2020-11-19T14:35:45:054
-7,812566	-2,225325	1,237089	2020-11-19T14:35:45:077
-9,559326	-2,256432	1,490728	2020-11-19T14:35:45:095
-11,100305	-2,438286	1,787439	2020-11-19T14:35:45:117
-12,308680	-2,581856	0,669990	2020-11-19T14:35:45:135
-13,844872	-2,758924	-0,263210	2020-11-19T14:35:45:157
-15,328422	-2,883351	-0,744168	2020-11-19T14:35:45:174
-15,579668	-3,467200	-0,658026	2020-11-19T14:35:45:197
-15,165710	-4,015156	-0,232104	2020-11-19T14:35:45:214
-15,335601	-4,505685	0,212961	2020-11-19T14:35:45:237
-15,897913	-4,943572	0,466600	2020-11-19T14:35:45:254
-16,012770	-5,381458	0,911665	2020-11-19T14:35:45:277
-15,144175	-5,637490	1,088734	2020-11-19T14:35:45:294
-13,725230	-5,364708	0,844666	2020-11-19T14:35:45:317
-12,318252	-4,472186	0,155533	2020-11-19T14:35:45:336
-11,200804	-3,582055	-0,349352	2020-11-19T14:35:45:358
-10,753345	-3,400201	-0,356531	2020-11-19T14:35:45:375
-10,296316	-3,625126	-0,145962	2020-11-19T14:35:45:397
-9,978070	-4,098906	-0,306281	2020-11-19T14:35:45:414
-10,133603	-4,649254	-0,291924	2020-11-19T14:35:45:437
-9,801002	-4,919643	0,112463	2020-11-19T14:35:45:454
-8,764909	-4,890929	-0,665205	2020-11-19T14:35:45:477
-8,135597	-4,630112	-1,710868	2020-11-19T14:35:45:495
-7,613962	-4,735396	-2,093720	2020-11-19T14:35:45:517
-7,592427	-5,163712	-1,660619	2020-11-19T14:35:45:534
-8,075776	-5,111069	-0,854238	2020-11-19T14:35:45:557
-8,080563	-4,675575	-0,169890	2020-11-19T14:35:45:576
-8,054241	-4,106083	0,153141	2020-11-19T14:35:45:598
-8,051848	-3,598805	0,311067	2020-11-19T14:35:45:614
-7,747960	-3,481557	0,306281	2020-11-19T14:35:45:637
-7,441679	-3,524628	0,677169	2020-11-19T14:35:45:654
-7,451250	-3,651447	1,409373	2020-11-19T14:35:45:678
-7,752745	-3,658626	1,981257	2020-11-19T14:35:45:694
-7,891530	-3,235096	2,304288	2020-11-19T14:35:45:717
-8,286345	-2,931208	2,256432	2020-11-19T14:35:45:735
-9,025726	-2,926422	2,115255	2020-11-19T14:35:45:757
-9,982857	-3,452843	2,021935	2020-11-19T14:35:45:775
-11,093125	-4,003192	2,823531	2020-11-19T14:35:45:797
-11,784652	-4,388437	4,503292	2020-11-19T14:35:45:816
-11,516656	-4,338188	4,960321	2020-11-19T14:35:45:837
-10,724631	-4,134798	4,565506	2020-11-19T14:35:45:855
-10,286745	-4,972286	4,029513	2020-11-19T14:35:45:878
-10,645668	-6,295516	3,945765	2020-11-19T14:35:45:895
-10,983055	-7,350751	3,945765	2020-11-19T14:35:45:917
-10,676775	-7,549356	3,486342	2020-11-19T14:35:45:935
-10,408779	-7,288538	2,945565	2020-11-19T14:35:45:957
-10,590633	-6,922436	2,242075	2020-11-19T14:35:45:976
-10,916058	-6,364908	1,976472	2020-11-19T14:35:45:997
-10,772489	-5,764310	1,660619	2020-11-19T14:35:46:015
-10,463813	-4,704289	0,636491	2020-11-19T14:35:46:038
-10,095319	-4,656433	0,753739	2020-11-19T14:35:46:056
-9,477970	-5,264209	0,796810	2020-11-19T14:35:46:077
-8,973085	-5,927022	0,282353	2020-11-19T14:35:46:095
-8,920443	-6,044270	0,236889	2020-11-19T14:35:46:118
-8,939585	-6,360123	0,569492	2020-11-19T14:35:46:135
-8,858230	-6,879365	0,952343	2020-11-19T14:35:46:157
-8,719445	-6,520442	0,949951	2020-11-19T14:35:46:175
-8,898908	-5,723632	0,681954	2020-11-19T14:35:46:198
-9,427721	-5,477170	0,622134	2020-11-19T14:35:46:216
-9,521042	-5,216353	1,148555	2020-11-19T14:35:46:238
-9,248260	-4,993821	1,521835	2020-11-19T14:35:46:255
-9,408579	-4,256832	1,591227	2020-11-19T14:35:46:278
-9,552148	-3,761517	1,249053	2020-11-19T14:35:46:296
-9,334401	-2,696711	0,988236	2020-11-19T14:35:46:318
-8,949157	-2,134398	0,976272	2020-11-19T14:35:46:335
-8,561519	-2,330609	1,115055	2020-11-19T14:35:46:359
-8,073383	-2,421536	1,040878	2020-11-19T14:35:46:375
-7,927422	-2,586641	1,239482	2020-11-19T14:35:46:399
-7,709675	-2,780460	1,225125	2020-11-19T14:35:46:415
-7,037291	-3,220739	1,210768	2020-11-19T14:35:46:438
-6,618547	-3,720839	0,861416	2020-11-19T14:35:46:456
-7,494320	-3,952943	-0,107677	2020-11-19T14:35:46:479
-8,104490	-4,637290	-0,873380	2020-11-19T14:35:46:495
-8,109276	-6,666404	-0,126820	2020-11-19T14:35:46:519
-8,121240	-8,973085	2,565106	2020-11-19T14:35:46:536
-7,771888	-9,485149	4,436293	2020-11-19T14:35:46:558
-7,549356	-8,922836	4,658825	2020-11-19T14:35:46:576
-7,779066	-7,783852	3,055635	2020-11-19T14:35:46:598
-8,427521	-6,843473	1,550549	2020-11-19T14:35:46:615
-9,056834	-6,422336	0,784846	2020-11-19T14:35:46:638
-9,887143	-5,726025	1,093520	2020-11-19T14:35:46:656
-10,049855	-4,730610	1,478764	2020-11-19T14:35:46:679
-9,530612	-3,878766	1,445265	2020-11-19T14:35:46:696
-8,516055	-3,285345	1,038485	2020-11-19T14:35:46:718
-7,929814	-3,562913	0,760918	2020-11-19T14:35:46:736
-7,262216	-4,567898	1,162912	2020-11-19T14:35:46:758
-6,790830	-5,082355	1,794617	2020-11-19T14:35:46:777
-6,635297	-5,283352	2,036292	2020-11-19T14:35:46:798
-6,948757	-5,522634	2,060220	2020-11-19T14:35:46:816
-6,853044	-5,941379	2,165504	2020-11-19T14:35:46:838
-6,699903	-5,601598	2,072184	2020-11-19T14:35:46:856
-6,448657	-4,771288	1,801795	2020-11-19T14:35:46:879
-6,209375	-4,359723	1,885544	2020-11-19T14:35:46:896
-6,118448	-4,211368	2,194218	2020-11-19T14:35:46:918
-6,202196	-3,670590	2,251646	2020-11-19T14:35:46:936
-6,178268	-3,168097	2,258825	2020-11-19T14:35:46:958
-6,041877	-3,201597	2,428715	2020-11-19T14:35:46:976
-6,388836	-3,591627	2,711068	2020-11-19T14:35:46:998
-6,833901	-4,366901	3,541377	2020-11-19T14:35:47:017
-6,807580	-4,192225	3,134598	2020-11-19T14:35:47:038
-7,133004	-3,510271	1,842474	2020-11-19T14:35:47:056
-7,733603	-4,271189	2,986243	2020-11-19T14:35:47:078
-7,948956	-5,919843	3,790231	2020-11-19T14:35:47:096
-7,831708	-5,472386	4,754539	2020-11-19T14:35:47:118
-8,286345	-4,788038	4,790431	2020-11-19T14:35:47:136
-8,535198	-5,522634	4,977071	2020-11-19T14:35:47:158
-9,305687	-6,324231	5,666204	2020-11-19T14:35:47:177
-9,877571	-6,209375	6,135197	2020-11-19T14:35:47:198
-9,918249	-6,269196	5,883951	2020-11-19T14:35:47:216
-9,693325	-7,058826	5,367101	2020-11-19T14:35:47:238
-9,011370	-7,841280	5,041678	2020-11-19T14:35:47:257
-8,200203	-8,094919	4,340580	2020-11-19T14:35:47:280
-8,839087	-8,293523	3,266203	2020-11-19T14:35:47:298
-9,975677	-8,602197	2,538785	2020-11-19T14:35:47:320
-9,863215	-8,843873	1,895115	2020-11-19T14:35:47:336
-8,987441	-8,499306	1,555335	2020-11-19T14:35:47:360
-8,047063	-7,901100	1,402194	2020-11-19T14:35:47:376
-7,546963	-7,403394	1,713261	2020-11-19T14:35:47:399
-7,015756	-6,762117	1,820938	2020-11-19T14:35:47:417
-6,326623	-6,333801	1,550549	2020-11-19T14:35:47:439
-5,922236	-6,037091	1,038485	2020-11-19T14:35:47:456
-5,790630	-6,094519	1,067199	2020-11-19T14:35:47:480
-5,840880	-5,958128	1,485943	2020-11-19T14:35:47:497
-6,106483	-5,599205	1,095913	2020-11-19T14:35:47:519
-6,539584	-5,316852	0,703490	2020-11-19T14:35:47:537
-6,829116	-5,388636	0,607777	2020-11-19T14:35:47:559
-7,042077	-5,039285	1,040878	2020-11-19T14:35:47:576
-7,233503	-4,632504	1,777867	2020-11-19T14:35:47:599
-7,728817	-4,189832	2,725425	2020-11-19T14:35:47:616
-7,793423	-3,615555	2,756532	2020-11-19T14:35:47:639
-7,451250	-2,854637	2,565106	2020-11-19T14:35:47:657
-7,403394	-2,316252	2,739782	2020-11-19T14:35:47:679
-7,422535	-2,199004	3,254239	2020-11-19T14:35:47:696
-7,037291	-2,167897	3,859623	2020-11-19T14:35:47:719
-6,695118	-2,024328	4,058227	2020-11-19T14:35:47:737
-6,685547	-1,454836	3,842873	2020-11-19T14:35:47:759
-7,140182	-1,349552	3,684947	2020-11-19T14:35:47:777
-8,025528	-1,071985	3,704089	2020-11-19T14:35:47:799
-8,662018	-0,433101	3,885944	2020-11-19T14:35:47:816
-9,753145	0,004786	3,972085	2020-11-19T14:35:47:839
-11,621940	0,323031	3,259024	2020-11-19T14:35:47:857
-14,325829	-0,191426	2,617748	2020-11-19T14:35:47:880
-16,137196	-1,150948	2,500499	2020-11-19T14:35:47:897
-15,034104	-1,574477	2,665605	2020-11-19T14:35:47:919
-12,741781	-1,596013	2,892922	2020-11-19T14:35:47:936
-11,480762	-1,808974	2,830709	2020-11-19T14:35:47:959
-10,516455	-2,033899	2,591427	2020-11-19T14:35:47:978
-9,688539	-2,306681	2,297110	2020-11-19T14:35:47:999
-9,157332	-2,656033	1,806581	2020-11-19T14:35:48:017
-8,930015	-2,744568	1,141376	2020-11-19T14:35:48:039
-9,131011	-2,912065	0,382852	2020-11-19T14:35:48:056
-9,657433	-2,732604	-0,007178	2020-11-19T14:35:48:080
-9,860823	-2,677568	-0,315853	2020-11-19T14:35:48:097
-10,135997	-2,340181	-0,423530	2020-11-19T14:35:48:120
-10,621738	-2,172683	-0,669990	2020-11-19T14:35:48:137
-10,810772	-2,435893	-0,763310	2020-11-19T14:35:48:159
-10,064213	-3,120241	-1,033699	2020-11-19T14:35:48:177
-9,798609	-3,718446	-1,124627	2020-11-19T14:35:48:201
-9,822537	-4,242475	-1,103091	2020-11-19T14:35:48:218
-9,901501	-4,773681	-0,658026	2020-11-19T14:35:48:239
-9,734003	-5,053641	-0,172283	2020-11-19T14:35:48:257
-9,446864	-5,087141	-0,090927	2020-11-19T14:35:48:280
-9,188439	-5,067998	0,014357	2020-11-19T14:35:48:297
-9,200402	-5,335995	0,531207	2020-11-19T14:35:48:319
-9,317651	-5,625526	1,708475	2020-11-19T14:35:48:337
-9,408579	-5,644669	2,182254	2020-11-19T14:35:48:359
-9,162118	-5,615955	2,354537	2020-11-19T14:35:48:378
-9,198010	-6,142376	2,270789	2020-11-19T14:35:48:399
-10,707881	-6,979864	2,165504	2020-11-19T14:35:48:417
-13,947763	-7,891530	2,213361	2020-11-19T14:35:48:440
-16,857435	-8,350951	2,926422	2020-11-19T14:35:48:459
-15,869200	-8,145168	3,749553	2020-11-19T14:35:48:481
-11,739187	-7,228717	4,658825	2020-11-19T14:35:48:498
-8,616554	-6,532406	4,438686	2020-11-19T14:35:48:520
-8,855836	-6,230910	4,029513	2020-11-19T14:35:48:537
-10,313066	-5,938986	3,742374	2020-11-19T14:35:48:560
-11,047661	-5,364708	3,151347	2020-11-19T14:35:48:578
-11,588440	-4,766503	2,474179	2020-11-19T14:35:48:600
-12,339786	-4,484150	1,993221	2020-11-19T14:35:48:618
-13,081561	-4,208975	1,842474	2020-11-19T14:35:48:640
-13,737194	-3,885944	1,916651	2020-11-19T14:35:48:657
-14,084153	-3,172883	1,708475	2020-11-19T14:35:48:681
-13,880764	-2,048256	1,426122	2020-11-19T14:35:48:699
-13,115060	-1,483550	1,141376	2020-11-19T14:35:48:720
-12,071791	-1,562513	0,818345	2020-11-19T14:35:48:737
-11,239087	-1,782653	0,538385	2020-11-19T14:35:48:760
-10,662418	-1,832902	0,270389	2020-11-19T14:35:48:778
-9,982857	-1,828116	-0,021535	2020-11-19T14:35:48:800
-9,504292	-1,950150	-0,186640	2020-11-19T14:35:48:817
-8,953942	-2,237289	-0,241675	2020-11-19T14:35:48:841
-8,281559	-2,321038	-0,394816	2020-11-19T14:35:48:859
-7,788638	-2,165504	-0,399601	2020-11-19T14:35:48:881
-7,508677	-2,172683	-0,483350	2020-11-19T14:35:48:897
-7,499106	-2,249253	-0,397209	2020-11-19T14:35:48:921
-7,630712	-2,275574	-0,356531	2020-11-19T14:35:48:939
-7,558927	-2,153540	-0,406780	2020-11-19T14:35:48:961
-7,554141	-2,043471	-0,543171	2020-11-19T14:35:48:978
-7,960921	-1,928615	-0,576670	2020-11-19T14:35:49:001
-8,807980	-1,904687	-0,464208	2020-11-19T14:35:49:018
-9,585647	-2,227718	-0,126820	2020-11-19T14:35:49:041
-9,793823	-1,978864	0,397209	2020-11-19T14:35:49:058
-9,049655	-1,813759	0,679562	2020-11-19T14:35:49:081
-7,925028	-2,457429	1,787439	2020-11-19T14:35:49:098
-7,489535	-3,895515	3,326023	2020-11-19T14:35:49:122
-7,917850	-4,713861	4,723432	2020-11-19T14:35:49:138
-9,092726	-5,190032	5,491528	2020-11-19T14:35:49:161
-10,138390	-5,572884	5,044070	2020-11-19T14:35:49:180
-11,179268	-5,577669	3,854837	2020-11-19T14:35:49:201
-12,409179	-5,668597	3,778267	2020-11-19T14:35:49:218
-12,177074	-5,335995	5,364708	2020-11-19T14:35:49:241
-10,092925	-3,840480	5,300103	2020-11-19T14:35:49:258
-7,869993	-2,548356	5,474778	2020-11-19T14:35:49:281
-7,226324	-2,995814	5,826523	2020-11-19T14:35:49:298
-6,652047	-3,160919	5,649454	2020-11-19T14:35:49:321
-6,278766	-3,390630	5,127820	2020-11-19T14:35:49:338
-6,101698	-3,857230	4,295116	2020-11-19T14:35:49:361
-6,092126	-3,955336	3,713661	2020-11-19T14:35:49:379
-6,128019	-3,357130	3,268596	2020-11-19T14:35:49:401
-6,278766	-2,828316	2,708675	2020-11-19T14:35:49:419
-6,498906	-2,811567	2,088934	2020-11-19T14:35:49:441
-6,776474	-3,103491	1,916651	2020-11-19T14:35:49:458
-6,563512	-3,505485	2,031506	2020-11-19T14:35:49:481
-6,037091	-3,797409	2,100898	2020-11-19T14:35:49:498
-5,654240	-4,189832	1,741975	2020-11-19T14:35:49:521
-5,257031	-4,412365	1,617548	2020-11-19T14:35:49:538
-4,831109	-4,398008	1,127020	2020-11-19T14:35:49:561
-4,582255	-4,405186	0,607777	2020-11-19T14:35:49:579
-4,687540	-4,383651	0,191426	2020-11-19T14:35:49:601
-4,912465	-4,369294	-0,224925	2020-11-19T14:35:49:618
-5,632704	-4,187439	-0,390030	2020-11-19T14:35:49:641
-7,532606	-4,070191	-0,954736	2020-11-19T14:35:49:659
-10,593026	-3,981657	-1,421337	2020-11-19T14:35:49:681
-12,811172	-4,627719	-0,576670	2020-11-19T14:35:49:698
-12,098111	-5,426922	-0,813560	2020-11-19T14:35:49:721
-10,320245	-5,395815	-1,969293	2020-11-19T14:35:49:738
-9,363115	-5,240282	-2,589034	2020-11-19T14:35:49:761
-8,755339	-5,405386	-1,624727	2020-11-19T14:35:49:779
-8,731410	-4,876573	-0,136391	2020-11-19T14:35:49:801
-9,399008	-4,134798	1,304088	2020-11-19T14:35:49:819
-9,753145	-4,871787	2,220540	2020-11-19T14:35:49:841
-8,745767	-6,597012	2,323431	2020-11-19T14:35:49:859
-8,391629	-8,386844	3,029313	2020-11-19T14:35:49:882
-9,399008	-8,109276	2,792424	2020-11-19T14:35:49:900
-9,872787	-6,309873	1,368695	2020-11-19T14:35:49:921
-8,951550	-3,591627	0,220140	2020-11-19T14:35:49:939
-8,236095	-1,323231	-1,134198	2020-11-19T14:35:49:961
-7,867601	-1,356731	-1,598405	2020-11-19T14:35:49:979
-8,532805	-3,311667	0,155533	2020-11-19T14:35:50:002
-8,700303	-3,409772	2,699104	2020-11-19T14:35:50:019
-11,057234	-9,894321	19,848463	2020-11-19T14:35:50:042
-17,532209	-1,067199	14,612967	2020-11-19T14:35:50:059
-7,092326	-2,017149	-2,297110	2020-11-19T14:35:50:082
-4,476971	-5,716454	8,030313	2020-11-19T14:35:50:099
-7,276574	-10,186246	5,704489	2020-11-19T14:35:50:122
-7,965706	-10,322637	6,128019	2020-11-19T14:35:50:140
-6,943972	-6,254838	3,495914	2020-11-19T14:35:50:161
-6,206983	-7,549356	3,007778	2020-11-19T14:35:50:180
-5,357530	-10,494920	7,401000	2020-11-19T14:35:50:203
-4,871787	-9,073583	7,578069	2020-11-19T14:35:50:219
-3,871587	-8,410772	6,195018	2020-11-19T14:35:50:243
-4,354938	-8,738588	6,668797	2020-11-19T14:35:50:259
-4,713861	-8,008778	6,455836	2020-11-19T14:35:50:282
-4,565506	-6,479764	6,872187	2020-11-19T14:35:50:299
-3,991228	-6,403193	7,166504	2020-11-19T14:35:50:322
-3,302095	-6,180661	6,955935	2020-11-19T14:35:50:339
-1,605584	-5,793024	7,192825	2020-11-19T14:35:50:362
-0,756132	-5,553742	7,891530	2020-11-19T14:35:50:381
-0,227318	-5,151747	8,487342	2020-11-19T14:35:50:402
-0,232104	-4,804788	8,709875	2020-11-19T14:35:50:419
-0,272782	-4,685147	8,408379	2020-11-19T14:35:50:442
-0,667598	-4,730610	8,336594	2020-11-19T14:35:50:459
-1,330409	-5,060820	8,097312	2020-11-19T14:35:50:482
-2,081756	-5,565705	7,992027	2020-11-19T14:35:50:499
-2,639283	-5,740381	7,640282	2020-11-19T14:35:50:522
-2,689533	-6,290731	6,967900	2020-11-19T14:35:50:540
-3,440879	-7,195218	7,185646	2020-11-19T14:35:50:563
-4,718646	-7,360322	9,188439	2020-11-19T14:35:50:581
-4,414758	-6,101698	8,573483	2020-11-19T14:35:50:605
-4,146761	-5,460421	7,211967	2020-11-19T14:35:50:621
-4,125226	-6,051448	6,620940	2020-11-19T14:35:50:642
-3,857230	-4,639683	6,862615	2020-11-19T14:35:50:659
-3,519842	-2,849852	7,233503	2020-11-19T14:35:50:683
-2,675175	-2,115255	7,695317	2020-11-19T14:35:50:699
-1,899901	-1,294517	8,676375	2020-11-19T14:35:50:722
-1,588834	-0,837488	9,655040	2020-11-19T14:35:50:740
-1,679761	-0,949951	10,459028	2020-11-19T14:35:50:762
-1,514657	-1,567299	10,478169	2020-11-19T14:35:50:780
-1,328017	-2,311467	10,360922	2020-11-19T14:35:50:802
-1,105484	-3,012564	9,848858	2020-11-19T14:35:50:820
-1,203590	-3,203990	9,121440	2020-11-19T14:35:50:843
-0,808774	-3,352344	8,195417	2020-11-19T14:35:50:861
-0,133998	-3,510271	7,511070	2020-11-19T14:35:50:883
0,612563	-3,414558	7,154540	2020-11-19T14:35:50:900
1,986043	-3,144169	6,474977	2020-11-19T14:35:50:922
3,261417	-2,885744	6,096912	2020-11-19T14:35:50:941
4,400401	-2,268396	6,314659	2020-11-19T14:35:50:963
5,139783	-2,340181	6,573084	2020-11-19T14:35:50:980
5,907879	-2,770889	7,881958	2020-11-19T14:35:51:003
7,228717	-3,675375	8,939585	2020-11-19T14:35:51:021
8,157133	-5,503492	9,123833	2020-11-19T14:35:51:043
7,259824	-8,250452	9,372685	2020-11-19T14:35:51:060
5,678168	-10,119246	8,606983	2020-11-19T14:35:51:083
4,833502	-10,887343	7,970492	2020-11-19T14:35:51:101
4,646862	-10,688738	8,367701	2020-11-19T14:35:51:122
3,871587	-9,425328	8,683553	2020-11-19T14:35:51:140
3,010171	-8,293523	8,056634	2020-11-19T14:35:51:163
2,653640	-7,204789	7,283752	2020-11-19T14:35:51:180
2,050649	-5,374279	6,443871	2020-11-19T14:35:51:203
1,442872	-4,321437	6,195018	2020-11-19T14:35:51:220
1,189233	-4,433900	6,644868	2020-11-19T14:35:51:244
0,966700	-4,520042	7,219146	2020-11-19T14:35:51:260
0,361316	-4,170690	7,302894	2020-11-19T14:35:51:283
0,043071	-4,175476	7,221539	2020-11-19T14:35:51:300
-0,198604	-3,378666	8,106883	2020-11-19T14:35:51:323
-0,303888	-2,840281	8,681160	2020-11-19T14:35:51:341
-0,011964	-2,794817	9,279366	2020-11-19T14:35:51:364
0,055035	-3,125026	9,150154	2020-11-19T14:35:51:381
-0,272782	-3,481557	8,941978	2020-11-19T14:35:51:403
-1,050449	-4,096512	7,915457	2020-11-19T14:35:51:420
-1,406980	-4,460221	7,286145	2020-11-19T14:35:51:443
-1,284946	-4,161119	7,154540	2020-11-19T14:35:51:460
-0,985843	-3,450450	7,499106	2020-11-19T14:35:51:484
-1,186840	-2,782853	7,580462	2020-11-19T14:35:51:501
-1,701297	-2,105684	7,616355	2020-11-19T14:35:51:523
-1,907080	-2,187040	7,676175	2020-11-19T14:35:51:540
-1,476372	-3,163311	8,090133	2020-11-19T14:35:51:563
-1,423729	-4,936393	9,556933	2020-11-19T14:35:51:581
-1,000200	-6,027520	11,131411	2020-11-19T14:35:51:603
-0,107677	-5,563312	10,834702	2020-11-19T14:35:51:620
0,107677	-4,876573	9,640682	2020-11-19T14:35:51:643
0,078963	-4,505685	8,681160	2020-11-19T14:35:51:660
0,019143	-4,438686	7,975278	2020-11-19T14:35:51:685
-0,057428	-4,565506	7,649854	2020-11-19T14:35:51:701
-0,327817	-5,793024	8,645268	2020-11-19T14:35:51:724
-0,375673	-7,393822	8,851050	2020-11-19T14:35:51:741
-0,110070	-8,248059	7,616355	2020-11-19T14:35:51:763
0,294317	-8,176274	5,972485	2020-11-19T14:35:51:781
1,117448	-7,747960	5,223531	2020-11-19T14:35:51:805
2,093720	-7,661818	5,551349	2020-11-19T14:35:51:821
2,617748	-7,384251	7,501499	2020-11-19T14:35:51:844
2,873780	-7,412964	8,941978	2020-11-19T14:35:51:861
1,770689	-6,683154	7,609176	2020-11-19T14:35:51:884
0,746561	-5,974878	6,833901	2020-11-19T14:35:51:901
0,555135	-6,355337	6,202196	2020-11-19T14:35:51:924
0,066999	-6,675975	6,451050	2020-11-19T14:35:51:941
-0,557528	-7,235896	7,927422	2020-11-19T14:35:51:964
-0,698704	-6,613762	8,193025	2020-11-19T14:35:51:982
-0,641276	-6,862615	6,790830	2020-11-19T14:35:52:004
-0,866202	-5,984450	5,127820	2020-11-19T14:35:52:021
-1,497907	-5,027320	6,809973	2020-11-19T14:35:52:044
-2,117648	-7,362715	8,839087	2020-11-19T14:35:52:062
-2,203789	-8,130811	8,927622	2020-11-19T14:35:52:084
-0,650848	-5,749953	7,044470	2020-11-19T14:35:52:102
-0,490529	-6,068198	6,348158	2020-11-19T14:35:52:124
-1,172483	-7,774280	8,626125	2020-11-19T14:35:52:141
-2,206182	-7,125826	8,999406	2020-11-19T14:35:52:164
-1,744368	-4,424329	6,561120	2020-11-19T14:35:52:182
-0,945165	-5,185246	6,266802	2020-11-19T14:35:52:204
-1,040878	-8,664411	8,202596	2020-11-19T14:35:52:221
-0,576670	-12,265609	8,236095	2020-11-19T14:35:52:245
-2,153540	-11,935399	6,084948	2020-11-19T14:35:52:261
-5,254639	-7,195218	5,359922	2020-11-19T14:35:52:284
-7,427321	-4,599005	4,780859	2020-11-19T14:35:52:303
-8,968300	-6,096912	5,034499	2020-11-19T14:35:52:324
-9,403792	-8,712267	3,816552	2020-11-19T14:35:52:343
-8,784052	-8,673983	1,428515	2020-11-19T14:35:52:365
-8,520842	-8,403593	2,388037	2020-11-19T14:35:52:381
-8,274381	-5,728417	2,725425	2020-11-19T14:35:52:404
-7,740781	-6,721439	2,199004	2020-11-19T14:35:52:421
-8,202596	-8,020741	2,531606	2020-11-19T14:35:52:444
-7,690532	-8,410772	2,641676	2020-11-19T14:35:52:462
-8,544770	-7,963314	2,979064	2020-11-19T14:35:52:484
-8,252845	-6,565905	2,091327	2020-11-19T14:35:52:502
-7,994420	-5,871986	2,026721	2020-11-19T14:35:52:524
-8,154739	-5,314459	2,445465	2020-11-19T14:35:52:543
-8,032705	-5,201996	2,885744	2020-11-19T14:35:52:564
-8,858230	-5,730811	2,555535	2020-11-19T14:35:52:581
-9,609575	-6,379266	1,402194	2020-11-19T14:35:52:604
-10,167104	-6,939186	0,892523	2020-11-19T14:35:52:621
-10,583455	-7,764710	0,638884	2020-11-19T14:35:52:644
-10,738988	-7,946564	2,041078	2020-11-19T14:35:52:661
-10,585848	-5,642276	2,249253	2020-11-19T14:35:52:684
-10,660025	-5,228317	2,696711	2020-11-19T14:35:52:702
-10,427922	-4,199404	3,275774	2020-11-19T14:35:52:724
-9,616754	-2,857030	2,378466	2020-11-19T14:35:52:741
-9,293723	-2,124826	2,213361	2020-11-19T14:35:52:764
-8,209774	-2,395216	3,316452	2020-11-19T14:35:52:783
-7,539784	-1,861616	4,340580	2020-11-19T14:35:52:804
-7,441679	-1,373480	4,268795	2020-11-19T14:35:52:822
-7,671390	-0,777667	3,416951	2020-11-19T14:35:52:844
-7,781459	-0,732204	2,687140	2020-11-19T14:35:52:862
-7,802995	-1,287339	2,318645	2020-11-19T14:35:52:885
-7,901100	-1,043271	1,875973	2020-11-19T14:35:52:901
-7,913064	-1,012164	1,646262	2020-11-19T14:35:52:924
-7,257431	-1,270589	1,610370	2020-11-19T14:35:52:942
-6,319445	-1,703690	1,799403	2020-11-19T14:35:52:964
-5,690133	-1,883151	2,158326	2020-11-19T14:35:52:982
-5,438886	-1,770689	2,610569	2020-11-19T14:35:53:005
-5,871986	-1,581656	3,156133	2020-11-19T14:35:53:023
-6,424729	-1,576870	3,306881	2020-11-19T14:35:53:045
-7,066005	-1,552942	3,187240	2020-11-19T14:35:53:062
-7,456036	-1,744368	3,096312	2020-11-19T14:35:53:085
-7,290931	-2,447858	2,909672	2020-11-19T14:35:53:102
-6,802795	-3,211168	3,708875	2020-11-19T14:35:53:125
-6,405586	-4,139583	4,414758	2020-11-19T14:35:53:142
-6,242875	-5,115855	4,773681	2020-11-19T14:35:53:165
-6,623333	-5,448457	4,388437	2020-11-19T14:35:53:185
-6,728617	-5,905487	3,668197	2020-11-19T14:35:53:205
-6,699903	-6,230910	3,146562	2020-11-19T14:35:53:222
-7,046863	-6,386444	2,749353	2020-11-19T14:35:53:245
-8,047063	-6,300302	2,251646	2020-11-19T14:35:53:263
-9,140583	-6,719046	2,258825	2020-11-19T14:35:53:285
-9,714860	-7,142576	2,474179	2020-11-19T14:35:53:302
-9,932607	-7,125826	2,600998	2020-11-19T14:35:53:325
-9,650253	-6,788438	2,581856	2020-11-19T14:35:53:342
-8,961121	-6,539584	2,658426	2020-11-19T14:35:53:365
-8,348558	-6,015556	3,019742	2020-11-19T14:35:53:382
-7,901100	-5,395815	3,201597	2020-11-19T14:35:53:405
-7,527820	-4,977071	3,297310	2020-11-19T14:35:53:422
-7,082755	-4,816752	3,120241	2020-11-19T14:35:53:445
-6,848258	-4,644469	2,864209	2020-11-19T14:35:53:462
-6,563512	-4,390830	2,672783	2020-11-19T14:35:53:485
-6,463014	-4,240082	2,478964	2020-11-19T14:35:53:503
-6,321837	-3,952943	2,263610	2020-11-19T14:35:53:525
-6,285945	-3,663411	2,143969	2020-11-19T14:35:53:542
-6,463014	-3,189633	2,187040	2020-11-19T14:35:53:565
-7,034898	-2,596212	2,325824	2020-11-19T14:35:53:582
-7,740781	-2,438286	2,323431	2020-11-19T14:35:53:605
-8,295916	-2,196611	2,206182	2020-11-19T14:35:53:622
-8,547162	-2,227718	2,163112	2020-11-19T14:35:53:645
-8,752945	-2,254039	2,062613	2020-11-19T14:35:53:663
-9,355937	-2,344966	1,957329	2020-11-19T14:35:53:685
-10,308280	-2,388037	1,933401	2020-11-19T14:35:53:703
-11,449656	-2,433501	1,902294	2020-11-19T14:35:53:726
-12,052648	-2,522035	2,127219	2020-11-19T14:35:53:743
-12,234503	-2,703890	2,469393	2020-11-19T14:35:53:765
-12,442677	-2,916851	2,742175	2020-11-19T14:35:53:783
-12,598210	-3,309274	3,215954	2020-11-19T14:35:53:805
-11,899508	-3,515057	3,469593	2020-11-19T14:35:53:822
-10,360922	-3,407379	3,371487	2020-11-19T14:35:53:845
-9,047262	-3,455236	3,479164	2020-11-19T14:35:53:863
-8,027920	-3,426522	3,393023	2020-11-19T14:35:53:886
-7,762317	-2,878566	3,108276	2020-11-19T14:35:53:903
-8,362915	-2,380858	2,309074	2020-11-19T14:35:53:925
-9,061620	-2,093720	1,560120	2020-11-19T14:35:53:942
-9,245867	-1,741975	0,875773	2020-11-19T14:35:53:965
-9,623933	-1,861616	0,576670	2020-11-19T14:35:53:984
-9,915856	-1,880759	0,492921	2020-11-19T14:35:54:005
-9,848858	-2,115255	0,495314	2020-11-19T14:35:54:023
-9,504292	-2,335395	0,492921	2020-11-19T14:35:54:046
-8,827123	-2,801995	0,526421	2020-11-19T14:35:54:063
-8,403593	-3,369094	1,237089	2020-11-19T14:35:54:086
-8,353344	-3,629912	1,619941	2020-11-19T14:35:54:103
-8,118847	-3,603590	1,600798	2020-11-19T14:35:54:126
-7,853244	-3,498307	1,509871	2020-11-19T14:35:54:143
-7,518249	-3,644269	1,232304	2020-11-19T14:35:54:166
-7,393822	-3,847659	1,533799	2020-11-19T14:35:54:184
-7,456036	-3,797409	2,100898	2020-11-19T14:35:54:206
-7,288538	-3,404987	2,641676	2020-11-19T14:35:54:224
-7,305287	-3,292524	2,928815	2020-11-19T14:35:54:245
-7,221539	-3,237489	3,115455	2020-11-19T14:35:54:263
-7,106683	-3,268596	3,340380	2020-11-19T14:35:54:286
-7,302894	-2,981457	3,646662	2020-11-19T14:35:54:303
-7,920243	-2,868994	3,780660	2020-11-19T14:35:54:326
-8,441878	-2,873780	3,773481	2020-11-19T14:35:54:343
-9,078369	-2,928815	3,692125	2020-11-19T14:35:54:366
-10,262815	-2,952743	3,309274	2020-11-19T14:35:54:384
-11,971292	-3,026921	2,883351	2020-11-19T14:35:54:407
-13,320844	-3,361916	2,988636	2020-11-19T14:35:54:423
-13,342380	-3,665804	3,337988	2020-11-19T14:35:54:446
-12,428321	-3,799802	3,706482	2020-11-19T14:35:54:464
-11,545370	-3,931407	4,103691	2020-11-19T14:35:54:496
-10,636096	-4,043870	3,890730	2020-11-19T14:35:54:503
-10,887343	-4,106083	2,871387	2020-11-19T14:35:54:526
-12,806387	-4,223332	2,139183	2020-11-19T14:35:54:543
-14,627325	-4,158726	1,655833	2020-11-19T14:35:54:566
-15,297315	-3,799802	1,220340	2020-11-19T14:35:54:583
-14,835501	-3,268596	0,691526	2020-11-19T14:35:54:606
-13,634303	-2,864209	0,370888	2020-11-19T14:35:54:624
-12,344571	-2,294717	0,662812	2020-11-19T14:35:54:647
-10,131211	-1,679761	0,823131	2020-11-19T14:35:54:663
-9,052048	-1,631905	1,038485	2020-11-19T14:35:54:687
-8,415558	-1,909473	0,849452	2020-11-19T14:35:54:706
-8,090133	-2,251646	0,593420	2020-11-19T14:35:54:726
-8,116454	-2,507678	0,330210	2020-11-19T14:35:54:744
-8,238488	-2,557927	0,074178	2020-11-19T14:35:54:768
-8,188239	-2,701497	-0,023928	2020-11-19T14:35:54:784
-8,370094	-2,847459	-0,169890	2020-11-19T14:35:54:806
-8,523234	-2,878566	-0,143569	2020-11-19T14:35:54:824
-8,539984	-2,419144	0,007178	2020-11-19T14:35:54:847
-8,499306	-2,053042	0,382852	2020-11-19T14:35:54:865
-8,298308	-1,715654	0,648455	2020-11-19T14:35:54:887
-7,822137	-1,426122	0,471386	2020-11-19T14:35:54:904
-7,401000	-1,404587	0,224925	2020-11-19T14:35:54:927
-7,135397	-1,478764	0,155533	2020-11-19T14:35:54:945
-7,197611	-1,737189	0,440279	2020-11-19T14:35:54:966
-7,391429	-1,959722	0,842274	2020-11-19T14:35:54:984
-7,850852	-2,122434	1,222732	2020-11-19T14:35:55:007
-8,879765	-2,021935	1,418944	2020-11-19T14:35:55:024
-9,860823	-2,167897	1,897508	2020-11-19T14:35:55:047
-10,243673	-2,222932	2,356930	2020-11-19T14:35:55:064
-10,427922	-2,194218	3,010171	2020-11-19T14:35:55:087
-10,415956	-2,388037	3,266203	2020-11-19T14:35:55:105
-10,624132	-2,407180	3,455236	2020-11-19T14:35:55:127
-10,518847	-2,713461	3,826123	2020-11-19T14:35:55:144
-10,009177	-2,859423	4,340580	2020-11-19T14:35:55:167
-9,585647	-2,892922	4,914857	2020-11-19T14:35:55:185
-9,482756	-2,866602	5,228317	2020-11-19T14:35:55:207
-9,274581	-2,797210	4,955536	2020-11-19T14:35:55:225
-8,901299	-2,605784	4,170690	2020-11-19T14:35:55:247
-8,870193	-2,088934	3,148954	2020-11-19T14:35:55:264
-9,272188	-1,785046	2,486143	2020-11-19T14:35:55:288
-9,748360	-1,464408	2,165504	2020-11-19T14:35:55:304
-9,946963	-0,923629	2,151148	2020-11-19T14:35:55:327
-10,315458	-0,677169	2,041078	2020-11-19T14:35:55:345
-10,609775	-0,756132	2,031506	2020-11-19T14:35:55:367
-10,064213	-1,165305	2,376073	2020-11-19T14:35:55:385
-9,257831	-1,811367	2,813959	2020-11-19T14:35:55:407
-8,626125	-2,696711	3,247060	2020-11-19T14:35:55:425
-8,449057	-3,617948	3,278167	2020-11-19T14:35:55:447
-8,513663	-4,000800	3,160919	2020-11-19T14:35:55:464
-8,496914	-4,230510	3,395415	2020-11-19T14:35:55:488
-8,374879	-4,383651	3,601198	2020-11-19T14:35:55:504
-8,188239	-4,244867	3,531806	2020-11-19T14:35:55:528
-8,216952	-3,656233	3,455236	2020-11-19T14:35:55:545
-8,386844	-3,215954	3,309274	2020-11-19T14:35:55:567
-8,647661	-2,907279	3,232704	2020-11-19T14:35:55:585
-9,298509	-2,646462	3,189633	2020-11-19T14:35:55:609
-9,760324	-2,464607	2,919244	2020-11-19T14:35:55:625
-10,420743	-2,376073	2,612962	2020-11-19T14:35:55:648
-11,408978	-2,467000	2,239682	2020-11-19T14:35:55:666
-12,540783	-2,679961	2,074577	2020-11-19T14:35:55:690
-12,827922	-2,708675	2,038685	2020-11-19T14:35:55:705
-12,631711	-3,285345	2,533999	2020-11-19T14:35:55:728
-11,844472	-3,644269	2,438286	2020-11-19T14:35:55:745
-11,176874	-3,859623	2,411965	2020-11-19T14:35:55:770
-10,188639	-4,003192	1,825724	2020-11-19T14:35:55:785
-10,351351	-4,175476	0,899701	2020-11-19T14:35:55:808
-11,925828	-4,235296	0,165105	2020-11-19T14:35:55:825
-13,055241	-4,223332	-0,332602	2020-11-19T14:35:55:849
-13,170096	-3,952943	-0,844666	2020-11-19T14:35:55:865
-12,476178	-3,457629	-1,339981	2020-11-19T14:35:55:889
-11,471190	-2,871387	-1,483550	2020-11-19T14:35:55:906
-10,506885	-2,330609	-1,275374	2020-11-19T14:35:55:929
-9,571291	-1,813759	-0,715454	2020-11-19T14:35:55:945
-8,549555	-1,435694	-0,160319	2020-11-19T14:35:55:968
-7,939385	-1,698904	0,234497	2020-11-19T14:35:55:985
-7,714460	-2,191825	0,165105	2020-11-19T14:35:56:009
-7,752745	-2,529213	-0,557528	2020-11-19T14:35:56:025
-7,910671	-2,672783	-0,851845	2020-11-19T14:35:56:048
-7,917850	-3,065206	-0,976272	2020-11-19T14:35:56:065
-7,793423	-3,357130	-0,787239	2020-11-19T14:35:56:089
-7,446464	-3,251846	-0,512064	2020-11-19T14:35:56:105
-7,317252	-3,101098	-0,330210	2020-11-19T14:35:56:129
-7,221539	-2,916851	0,222532	2020-11-19T14:35:56:146
-7,066005	-2,550749	0,557528	2020-11-19T14:35:56:169
-7,025328	-2,258825	0,935594	2020-11-19T14:35:56:186
-7,405786	-2,244468	0,930808	2020-11-19T14:35:56:208
-7,886744	-2,380858	0,890130	2020-11-19T14:35:56:225
-8,293523	-2,378466	1,036092	2020-11-19T14:35:56:249
-8,705089	-2,414358	1,380659	2020-11-19T14:35:56:265
-9,190832	-2,352145	1,883151	2020-11-19T14:35:56:289
-10,176675	-2,524428	2,445465	2020-11-19T14:35:56:305
-11,062018	-2,550749	2,847459	2020-11-19T14:35:56:329
-11,504691	-2,610569	3,029313	2020-11-19T14:35:56:346
-11,454442	-2,612962	3,065206	2020-11-19T14:35:56:369
-11,775080	-2,421536	2,959922	2020-11-19T14:35:56:387
-12,040684	-2,742175	3,541377	2020-11-19T14:35:56:410
-10,841879	-3,259024	4,249653	2020-11-19T14:35:56:426
-9,123833	-3,302095	4,421937	2020-11-19T14:35:56:449
-8,401200	-2,222932	3,311667	2020-11-19T14:35:56:465
-9,748360	2,266003	6,807580	2020-11-19T14:35:56:490
-9,949356	-3,809374	6,941578	2020-11-19T14:35:56:505
-9,690931	-3,924229	5,692525	2020-11-19T14:35:56:528
-9,858429	-3,589234	4,776074	2020-11-19T14:35:56:546
-9,939785	-3,175276	3,584448	2020-11-19T14:35:56:571
-10,083356	-2,285146	3,407379	2020-11-19T14:35:56:585
-9,846465	-1,789831	2,959922	2020-11-19T14:35:56:609
-9,535398	-1,232304	2,880959	2020-11-19T14:35:56:626
-9,238688	-1,718047	1,931008	2020-11-19T14:35:56:649
-8,982656	-2,572284	1,624727	2020-11-19T14:35:56:665
-8,717053	-3,402594	2,251646	2020-11-19T14:35:56:689
-8,140383	-3,708875	3,371487	2020-11-19T14:35:56:705
-7,618747	-4,058227	4,019942	2020-11-19T14:35:56:730
-7,511070	-3,938586	5,161318	2020-11-19T14:35:56:745
-7,130611	-4,405186	4,206582	2020-11-19T14:35:56:769
-6,716653	-5,881558	3,314059	2020-11-19T14:35:56:787
-6,491727	-7,259824	3,582055	2020-11-19T14:35:56:810
-6,128019	-7,762317	3,452843	2020-11-19T14:35:56:826
-5,845665	-7,518249	3,165704	2020-11-19T14:35:56:849
-5,838487	-7,233503	2,112862	2020-11-19T14:35:56:870
-5,869594	-6,910471	1,165305	2020-11-19T14:35:56:890
-6,195018	-6,932007	0,780060	2020-11-19T14:35:56:906
-6,391229	-7,003791	0,430708	2020-11-19T14:35:56:929
-6,697510	-6,848258	0,107677	2020-11-19T14:35:56:946
-6,943972	-6,625726	-0,428315	2020-11-19T14:35:56:970
-7,324430	-6,319445	-0,591027	2020-11-19T14:35:56:986
-7,597212	-6,113662	-0,375673	2020-11-19T14:35:57:009
-8,666803	-6,393622	-0,019143	2020-11-19T14:35:57:026
-9,786645	-6,360123	0,040678	2020-11-19T14:35:57:050
-9,214760	-6,072984	0,040678	2020-11-19T14:35:57:066
-7,013363	-6,068198	0,210568	2020-11-19T14:35:57:089
-5,682954	-5,927022	-0,397209	2020-11-19T14:35:57:107
-6,204589	-5,548956	-0,457029	2020-11-19T14:35:57:130
-7,475177	-5,510671	-0,270389	2020-11-19T14:35:57:146
-8,898908	-5,726025	0,050249	2020-11-19T14:35:57:169
-9,683753	-5,594419	0,220140	2020-11-19T14:35:57:186
-9,997212	-5,285746	0,222532	2020-11-19T14:35:57:210
-9,468399	-5,060820	-0,576670	2020-11-19T14:35:57:226
-8,652447	-5,151747	2,160719	2020-11-19T14:35:57:249
-8,190632	-3,586841	5,632704	2020-11-19T14:35:57:266
-7,666604	-4,175476	5,426922	2020-11-19T14:35:57:290
-7,582855	-5,075177	3,720839	2020-11-19T14:35:57:306
-7,795816	-5,656632	2,811567	2020-11-19T14:35:57:329
-7,920243	-6,848258	3,519842	2020-11-19T14:35:57:347
-7,948956	-6,355337	3,395415	2020-11-19T14:35:57:370
-8,248059	-5,525027	3,239882	2020-11-19T14:35:57:386
-9,078369	-5,123034	3,172883	2020-11-19T14:35:57:409
-8,894121	-6,285945	1,555335	2020-11-19T14:35:57:426
-9,317651	-6,601797	1,110270	2020-11-19T14:35:57:450
-8,635696	-6,053841	0,169890	2020-11-19T14:35:57:466
-8,353344	-5,876772	-0,595813	2020-11-19T14:35:57:490
-8,671589	-6,300302	0,031107	2020-11-19T14:35:57:506
-8,973085	-6,458229	0,351745	2020-11-19T14:35:57:530
-9,243474	-6,075377	0,423530	2020-11-19T14:35:57:546
-9,298509	-5,460421	0,035892	2020-11-19T14:35:57:569
-9,186047	-4,778467	-0,014357	2020-11-19T14:35:57:588
-9,253045	-5,008178	0,380459	2020-11-19T14:35:57:610
-9,566505	-5,000999	0,614955	2020-11-19T14:35:57:626
-9,963714	-4,548756	-0,119641	2020-11-19T14:35:57:650
-9,664611	-4,290331	-0,138784	2020-11-19T14:35:57:666
-9,360723	-3,818945	-0,215354	2020-11-19T14:35:57:691
-8,970692	-3,443272	-0,234497	2020-11-19T14:35:57:706
-8,563912	-2,897708	-0,787239	2020-11-19T14:35:57:729
-8,164310	-2,282753	-1,002593	2020-11-19T14:35:57:747
-8,015956	-2,086541	-0,940379	2020-11-19T14:35:57:770
-8,403593	-2,134398	-0,672383	2020-11-19T14:35:57:787
-8,800802	-2,431108	-0,461815	2020-11-19T14:35:57:810
-8,944371	-2,727818	-0,253639	2020-11-19T14:35:57:828
-8,762517	-3,108276	-0,059821	2020-11-19T14:35:57:851
-8,669197	-3,617948	0,179462	2020-11-19T14:35:57:867
-8,731410	-4,039084	0,646062	2020-11-19T14:35:57:890
-9,327222	-4,271189	0,768096	2020-11-19T14:35:57:907
-10,447062	-4,517649	0,854238	2020-11-19T14:35:57:931
-11,485549	-5,190032	1,048056	2020-11-19T14:35:57:947
-12,086146	-5,654240	1,347159	2020-11-19T14:35:57:970
-12,184253	-5,450850	1,428515	2020-11-19T14:35:57:989
-11,983256	-4,984250	0,894916	2020-11-19T14:35:58:011
-11,684153	-4,845466	0,705883	2020-11-19T14:35:58:026
-11,243874	-5,247460	0,978664	2020-11-19T14:35:58:050
-10,585848	-5,199604	1,347159	2020-11-19T14:35:58:068
-9,815358	-5,268995	1,366302	2020-11-19T14:35:58:091
-9,044869	-4,984250	1,421337	2020-11-19T14:35:58:107
-8,796017	-4,630112	1,304088	2020-11-19T14:35:58:131
-8,982656	-4,582255	1,318445	2020-11-19T14:35:58:147
-9,377472	-4,747360	1,177269	2020-11-19T14:35:58:170
-9,722038	-4,910072	1,203590	2020-11-19T14:35:58:187
-9,812965	-4,819145	1,182054	2020-11-19T14:35:58:209
-9,485149	-4,630112	1,045663	2020-11-19T14:35:58:228
-8,791230	-4,606184	0,971486	2020-11-19T14:35:58:251
-8,111670	-4,366901	1,299303	2020-11-19T14:35:58:267
-7,724032	-4,323831	1,552942	2020-11-19T14:35:58:290
-7,494320	-4,086941	1,730011	2020-11-19T14:35:58:308
-7,384251	-4,036692	1,651048	2020-11-19T14:35:58:332
-7,463214	-4,043870	1,835295	2020-11-19T14:35:58:347
-7,642675	-4,027121	1,868794	2020-11-19T14:35:58:371
-7,889136	-4,034299	2,117648	2020-11-19T14:35:58:387
-8,231310	-3,972085	2,313859	2020-11-19T14:35:58:411
-8,563912	-3,830909	2,612962	2020-11-19T14:35:58:427
-8,650054	-3,835695	2,730211	2020-11-19T14:35:58:450
-8,496914	-4,031906	2,732604	2020-11-19T14:35:58:467
-8,441878	-4,275974	2,727818	2020-11-19T14:35:58:491
-8,537591	-4,639683	3,017349	2020-11-19T14:35:58:507
-8,934800	-4,929214	3,546163	2020-11-19T14:35:58:530
-9,482756	-5,120641	3,996014	2020-11-19T14:35:58:548
-10,301102	-4,709075	4,821537	2020-11-19T14:35:58:571
-11,246266	-3,220739	5,458029	2020-11-19T14:35:58:588
-10,387242	-3,385844	4,074977	2020-11-19T14:35:58:610
-10,286745	-0,942772	6,027520	2020-11-19T14:35:58:627
-8,958728	-0,076570	6,790830	2020-11-19T14:35:58:651
-9,494720	-1,679761	5,290531	2020-11-19T14:35:58:667
-11,799009	-2,845066	4,264010	2020-11-19T14:35:58:690
-13,591233	-3,259024	3,663411	2020-11-19T14:35:58:708
-13,277774	-2,340181	2,921637	2020-11-19T14:35:58:731
-12,071791	-2,163112	2,270789	2020-11-19T14:35:58:747
-11,217552	-2,277967	2,009971	2020-11-19T14:35:58:770
-10,593026	-2,553142	1,914258	2020-11-19T14:35:58:789
-9,523434	-2,612962	2,091327	2020-11-19T14:35:58:811
-8,851050	-2,746960	2,153540	2020-11-19T14:35:58:827
-8,666803	-2,833102	2,086541	2020-11-19T14:35:58:850
-8,420342	-2,933600	1,945365	2020-11-19T14:35:58:868
-8,121240	-2,976671	1,765903	2020-11-19T14:35:58:892
-8,094919	-2,940779	1,517050	2020-11-19T14:35:58:907
-8,195417	-2,706282	1,462015	2020-11-19T14:35:58:930
-8,501699	-2,510071	1,031307	2020-11-19T14:35:58:948
-8,291130	-2,048256	0,909273	2020-11-19T14:35:58:971
-8,104490	-2,110470	0,870987	2020-11-19T14:35:58:988
-7,850852	-2,194218	0,689133	2020-11-19T14:35:59:010
-7,635497	-2,230111	0,521635	2020-11-19T14:35:59:029
-7,372287	-2,309074	0,619741	2020-11-19T14:35:59:052
-7,204789	-2,347359	0,658026	2020-11-19T14:35:59:068
-6,874579	-2,426322	0,753739	2020-11-19T14:35:59:091
-6,608976	-2,699104	1,115055	2020-11-19T14:35:59:108
-6,484549	-2,885744	1,399801	2020-11-19T14:35:59:132
-6,427122	-2,770889	1,567299	2020-11-19T14:35:59:148
-6,958328	-2,577070	1,603191	2020-11-19T14:35:59:172
-8,073383	-2,550749	1,725225	2020-11-19T14:35:59:188
-9,099905	-2,457429	1,785046	2020-11-19T14:35:59:211
-9,865608	-2,354537	1,808974	2020-11-19T14:35:59:228
-10,868200	-2,574677	2,165504	2020-11-19T14:35:59:251
-11,542977	-2,627320	2,859423	2020-11-19T14:35:59:269
-11,966506	-2,703890	3,615555	2020-11-19T14:35:59:292
-13,019348	-2,897708	3,885944	2020-11-19T14:35:59:308
-13,928620	-2,988636	3,955336	2020-11-19T14:35:59:331
-13,806586	-2,840281	4,577469	2020-11-19T14:35:59:348
-13,138988	-2,778067	5,534599	2020-11-19T14:35:59:372
-11,473583	-2,435893	6,273981	2020-11-19T14:35:59:388
-9,219545	-2,222932	6,711867	2020-11-19T14:35:59:411
-8,315059	-1,875973	7,018148	2020-11-19T14:35:59:428
-8,865408	-1,634298	6,687939	2020-11-19T14:35:59:452
-9,439686	-1,406980	5,529813	2020-11-19T14:35:59:468
-9,707682	-1,445265	4,141976	2020-11-19T14:35:59:491
-9,925428	-1,813759	3,002992	2020-11-19T14:35:59:509
-9,805787	-1,952543	2,249253	2020-11-19T14:35:59:532
-9,482756	-1,710868	1,794617	2020-11-19T14:35:59:548
-9,044869	-1,531406	1,586441	2020-11-19T14:35:59:572
-8,401200	-1,457229	1,667797	2020-11-19T14:35:59:588
-7,855636	-1,749153	2,062613	2020-11-19T14:35:59:612
-7,542177	-2,050649	2,266003	2020-11-19T14:35:59:628
-7,302894	-2,718246	2,447858	2020-11-19T14:35:59:651
-7,173682	-3,139383	2,486143	2020-11-19T14:35:59:669
-6,987042	-3,282953	2,723032	2020-11-19T14:35:59:692
-6,932007	-3,275774	2,584249	2020-11-19T14:35:59:708
-6,908078	-3,261417	2,486143	2020-11-19T14:35:59:731
-6,972685	-3,235096	2,397608	2020-11-19T14:35:59:750
-7,164111	-3,175276	2,304288	2020-11-19T14:35:59:772
-7,216753	-2,632105	2,179861	2020-11-19T14:35:59:790
-7,274181	-2,232504	2,127219	2020-11-19T14:35:59:811
-7,317252	-2,009971	2,117648	2020-11-19T14:35:59:828
-7,393822	-2,050649	2,438286	2020-11-19T14:35:59:852
-7,558927	-2,055435	2,790031	2020-11-19T14:35:59:869
-7,975278	-2,189433	3,287738	2020-11-19T14:35:59:892
-8,458629	-2,368894	3,517449	2020-11-19T14:35:59:909
-8,812766	-2,476572	3,610770	2020-11-19T14:35:59:932
-9,332008	-2,653640	3,718446	2020-11-19T14:35:59:949
-10,078569	-2,679961	3,519842	2020-11-19T14:35:59:972
-11,152946	-2,871387	3,448057	2020-11-19T14:35:59:991
-11,976077	-3,077170	3,457629	2020-11-19T14:36:00:012
-12,574283	-3,220739	4,015156	2020-11-19T14:36:00:029
-13,048061	-3,464807	4,094120	2020-11-19T14:36:00:051
-13,540984	-3,672983	4,412365	2020-11-19T14:36:00:068
-12,239288	-3,883551	4,761717	2020-11-19T14:36:00:093
-9,473185	-3,933800	4,395615	2020-11-19T14:36:00:109
-7,838887	-3,864408	3,773481	2020-11-19T14:36:00:132
-8,334201	-3,787838	3,239882	2020-11-19T14:36:00:149
-10,207782	-3,371487	2,947958	2020-11-19T14:36:00:173
-11,490334	-2,890530	2,524428	2020-11-19T14:36:00:189
-11,930614	-2,411965	2,242075	2020-11-19T14:36:00:212
-11,557333	-2,146362	2,074577	2020-11-19T14:36:00:230
-10,760524	-2,117648	2,002793	2020-11-19T14:36:00:252
-10,566705	-2,366502	2,155933	2020-11-19T14:36:00:269
-10,145569	-2,409572	2,203789	2020-11-19T14:36:00:292
-9,760324	-2,184647	2,091327	2020-11-19T14:36:00:309
-9,566505	-2,132005	1,926222	2020-11-19T14:36:00:332
-9,415757	-2,352145	1,624727	2020-11-19T14:36:00:349
-9,188439	-2,545963	1,435694	2020-11-19T14:36:00:372
-9,037691	-2,598605	1,313660	2020-11-19T14:36:00:390
-8,645268	-2,620141	1,208375	2020-11-19T14:36:00:413
-8,413164	-2,538785	1,026521	2020-11-19T14:36:00:429
-8,200203	-2,400001	1,028914	2020-11-19T14:36:00:452
-7,977671	-2,151148	1,115055	2020-11-19T14:36:00:470
-7,659425	-1,931008	1,191626	2020-11-19T14:36:00:493
-7,197611	-1,785046	1,373480	2020-11-19T14:36:00:510
-7,008578	-1,730011	1,473979	2020-11-19T14:36:00:532
-6,879365	-1,758725	1,519442	2020-11-19T14:36:00:549
-6,953543	-1,816152	1,533799	2020-11-19T14:36:00:573
-7,381857	-1,832902	1,648655	2020-11-19T14:36:00:593
-7,788638	-1,835295	1,727618	2020-11-19T14:36:00:613
-8,353344	-1,861616	1,892723	2020-11-19T14:36:00:630
-8,872586	-1,885544	2,244468	2020-11-19T14:36:00:653
-9,420543	-1,947758	2,400001	2020-11-19T14:36:00:669
-10,059426	-2,045863	2,273181	2020-11-19T14:36:00:692
-10,528419	-2,191825	2,467000	2020-11-19T14:36:00:710
-10,853845	-2,172683	2,486143	2020-11-19T14:36:00:733
-11,899508	-2,199004	2,431108	2020-11-19T14:36:00:750
-12,811172	-2,584249	2,931208	2020-11-19T14:36:00:772
-11,949757	-2,804388	3,364309	2020-11-19T14:36:00:789
-10,119246	-2,778067	3,510271	2020-11-19T14:36:00:814
-9,107083	-2,890530	3,562913	2020-11-19T14:36:00:829
-8,434700	-2,873780	3,428915	2020-11-19T14:36:00:852
-8,681160	-2,469393	3,170490	2020-11-19T14:36:00:870
-9,647861	-2,172683	2,775674	2020-11-19T14:36:00:893
-10,475778	-2,069792	2,309074	2020-11-19T14:36:00:909
-10,727024	-2,175076	1,811367	2020-11-19T14:36:00:933
-10,784451	-2,318645	1,679761	2020-11-19T14:36:00:950
-10,506885	-2,292324	1,751546	2020-11-19T14:36:00:973
-9,705289	-2,285146	1,753939	2020-11-19T14:36:00:990
-9,032906	-2,361716	1,557728	2020-11-19T14:36:01:012
-8,501699	-2,656033	1,507478	2020-11-19T14:36:01:029
-8,353344	-2,988636	1,631905	2020-11-19T14:36:01:053
-8,190632	-3,400201	2,026721	2020-11-19T14:36:01:069
-7,884350	-3,605984	1,957329	2020-11-19T14:36:01:093
-8,044669	-3,572484	1,744368	2020-11-19T14:36:01:110
-8,394022	-3,649055	1,887937	2020-11-19T14:36:01:133
