x	y	z	ts
-0,560000	0,280000	-0,490000	2020-10-29T19:20:28:567
-7,630000	37,799999	-8,190000	2020-10-29T19:20:28:569
-21,770000	-30,450001	8,190000	2020-10-29T19:20:28:569
-15,680000	1,960000	3,500000	2020-10-29T19:20:28:570
-14,770000	1,960000	2,170000	2020-10-29T19:20:28:571
-12,670000	2,100000	2,520000	2020-10-29T19:20:28:588
-11,970000	2,380000	1,960000	2020-10-29T19:20:28:611
-14,210000	3,850000	2,520000	2020-10-29T19:20:28:628
-15,470000	3,430000	2,940000	2020-10-29T19:20:28:650
-11,200000	3,850000	2,800000	2020-10-29T19:20:28:668
-8,470000	3,360000	3,010000	2020-10-29T19:20:28:689
-8,890000	2,310000	3,150000	2020-10-29T19:20:28:708
-7,560000	1,680000	3,430000	2020-10-29T19:20:28:731
-8,540000	1,610000	3,780000	2020-10-29T19:20:28:748
-5,950000	1,820000	4,060000	2020-10-29T19:20:28:770
-2,520000	1,400000	4,130000	2020-10-29T19:20:28:788
-3,570000	1,330000	5,810000	2020-10-29T19:20:28:810
-5,250000	1,470000	7,000000	2020-10-29T19:20:28:828
-7,070000	1,050000	7,980000	2020-10-29T19:20:28:849
-8,050000	1,120000	8,540000	2020-10-29T19:20:28:868
-11,480000	1,680000	10,360000	2020-10-29T19:20:28:890
-20,650000	2,800000	11,060000	2020-10-29T19:20:28:908
-32,200001	5,110000	12,460000	2020-10-29T19:20:28:930
-50,330002	8,680000	14,910000	2020-10-29T19:20:28:948
-62,650002	10,850000	16,520000	2020-10-29T19:20:28:970
-44,660000	9,240000	16,030001	2020-10-29T19:20:28:988
-13,160000	7,910000	12,390000	2020-10-29T19:20:29:010
-12,110000	5,320000	12,180000	2020-10-29T19:20:29:029
-28,210001	4,690000	9,940000	2020-10-29T19:20:29:050
-43,119999	7,420000	8,260000	2020-10-29T19:20:29:068
-59,290001	10,220000	9,240000	2020-10-29T19:20:29:090
-40,250000	9,310000	10,150000	2020-10-29T19:20:29:108
-6,300000	7,980000	4,200000	2020-10-29T19:20:29:131
-6,370000	6,370000	3,430000	2020-10-29T19:20:29:148
-18,549999	7,140000	3,080000	2020-10-29T19:20:29:170
-24,850000	11,130000	4,760000	2020-10-29T19:20:29:188
-29,469999	9,590000	4,410000	2020-10-29T19:20:29:211
-12,320000	8,890000	4,270000	2020-10-29T19:20:29:228
-13,650000	7,350000	4,130000	2020-10-29T19:20:29:250
-23,309999	6,510000	4,410000	2020-10-29T19:20:29:268
-12,600000	6,090000	2,520000	2020-10-29T19:20:29:290
-0,490000	6,160000	-0,280000	2020-10-29T19:20:29:308
1,680000	5,320000	-1,190000	2020-10-29T19:20:29:330
3,780000	4,340000	-0,490000	2020-10-29T19:20:29:348
2,240000	1,820000	-0,210000	2020-10-29T19:20:29:370
3,780000	1,540000	-0,420000	2020-10-29T19:20:29:388
3,990000	2,590000	-0,840000	2020-10-29T19:20:29:410
8,820000	1,750000	-1,330000	2020-10-29T19:20:29:429
10,150000	2,520000	-1,190000	2020-10-29T19:20:29:451
7,840000	2,030000	-1,400000	2020-10-29T19:20:29:468
6,860000	2,030000	-1,190000	2020-10-29T19:20:29:490
4,830000	1,610000	-1,960000	2020-10-29T19:20:29:509
5,320000	1,330000	-2,310000	2020-10-29T19:20:29:531
2,450000	-1,120000	-3,010000	2020-10-29T19:20:29:548
5,880000	0,560000	-3,570000	2020-10-29T19:20:29:571
2,520000	0,560000	-3,010000	2020-10-29T19:20:29:589
-4,060000	0,560000	-2,030000	2020-10-29T19:20:29:611
-3,430000	-0,070000	-1,190000	2020-10-29T19:20:29:631
-2,170000	0,280000	-0,700000	2020-10-29T19:20:29:653
-2,170000	0,350000	-0,210000	2020-10-29T19:20:29:674
-0,490000	0,770000	-0,140000	2020-10-29T19:20:29:696
-0,490000	-0,070000	-0,560000	2020-10-29T19:20:29:711
0,350000	-0,420000	-0,840000	2020-10-29T19:20:29:734
0,140000	-1,330000	-1,120000	2020-10-29T19:20:29:753
-2,170000	-1,540000	-1,190000	2020-10-29T19:20:29:773
-4,340000	-0,420000	-1,120000	2020-10-29T19:20:29:791
-4,130000	0,280000	-0,840000	2020-10-29T19:20:29:813
-2,520000	0,210000	-1,050000	2020-10-29T19:20:29:831
-2,870000	-0,350000	-1,190000	2020-10-29T19:20:29:853
-3,500000	0,140000	-1,120000	2020-10-29T19:20:29:871
-5,740000	0,350000	-0,630000	2020-10-29T19:20:29:893
-9,940000	1,750000	-0,420000	2020-10-29T19:20:29:910
-7,700000	2,520000	-0,490000	2020-10-29T19:20:29:935
-6,720000	2,800000	-0,980000	2020-10-29T19:20:29:951
-7,630000	2,660000	-0,980000	2020-10-29T19:20:29:973
-8,610000	2,310000	-1,050000	2020-10-29T19:20:29:991
-7,700000	2,240000	-0,770000	2020-10-29T19:20:30:012
-2,800000	2,170000	-1,050000	2020-10-29T19:20:30:032
-1,050000	2,240000	-1,190000	2020-10-29T19:20:30:053
-3,220000	2,170000	-0,770000	2020-10-29T19:20:30:071
-3,360000	1,610000	-0,140000	2020-10-29T19:20:30:093
-4,060000	1,050000	0,140000	2020-10-29T19:20:30:112
-2,520000	1,470000	-0,210000	2020-10-29T19:20:30:133
0,210000	1,680000	-0,140000	2020-10-29T19:20:30:151
-1,260000	1,890000	0,350000	2020-10-29T19:20:30:173
-3,990000	2,030000	1,050000	2020-10-29T19:20:30:191
-5,040000	2,170000	1,610000	2020-10-29T19:20:30:213
-5,810000	2,100000	1,890000	2020-10-29T19:20:30:232
-5,600000	2,520000	2,240000	2020-10-29T19:20:30:254
-5,460000	2,520000	2,940000	2020-10-29T19:20:30:271
-7,630000	2,800000	3,220000	2020-10-29T19:20:30:293
-7,700000	3,150000	3,990000	2020-10-29T19:20:30:312
-7,420000	4,340000	5,180000	2020-10-29T19:20:30:334
-12,390000	4,340000	6,580000	2020-10-29T19:20:30:351
-14,980000	4,760000	7,700000	2020-10-29T19:20:30:374
-14,840000	4,900000	8,330000	2020-10-29T19:20:30:391
-14,210000	4,270000	7,070000	2020-10-29T19:20:30:413
-14,490000	4,130000	6,720000	2020-10-29T19:20:30:432
-16,450001	4,060000	6,370000	2020-10-29T19:20:30:472
-19,530001	3,220000	6,090000	2020-10-29T19:20:30:473
-22,750000	2,310000	5,670000	2020-10-29T19:20:30:493
-25,760000	1,960000	5,320000	2020-10-29T19:20:30:512
-26,600000	2,100000	5,600000	2020-10-29T19:20:30:534
-27,650000	2,940000	4,200000	2020-10-29T19:20:30:552
-28,280001	4,270000	4,690000	2020-10-29T19:20:30:573
-33,250000	3,430000	4,830000	2020-10-29T19:20:30:592
-35,700001	2,240000	4,340000	2020-10-29T19:20:30:614
-32,410000	2,310000	3,220000	2020-10-29T19:20:30:632
-26,320000	2,800000	1,820000	2020-10-29T19:20:30:657
-21,980000	1,470000	0,980000	2020-10-29T19:20:30:672
-17,850000	0,980000	-1,260000	2020-10-29T19:20:30:693
-11,130000	1,190000	-2,240000	2020-10-29T19:20:30:712
-10,430000	0,560000	-2,730000	2020-10-29T19:20:30:735
-12,250000	0,770000	-2,100000	2020-10-29T19:20:30:751
-13,300000	0,560000	-2,030000	2020-10-29T19:20:30:773
-10,500000	1,050000	-2,660000	2020-10-29T19:20:30:792
-5,670000	2,100000	-2,730000	2020-10-29T19:20:30:831
-2,940000	1,890000	-3,290000	2020-10-29T19:20:30:834
-2,380000	1,540000	-3,430000	2020-10-29T19:20:30:854
-3,080000	0,770000	-2,660000	2020-10-29T19:20:30:871
-4,410000	0,350000	-1,890000	2020-10-29T19:20:30:895
-3,570000	0,140000	-0,910000	2020-10-29T19:20:30:912
-0,420000	0,210000	-0,560000	2020-10-29T19:20:30:934
3,570000	-0,630000	-0,700000	2020-10-29T19:20:30:952
5,670000	-0,350000	-0,980000	2020-10-29T19:20:30:974
2,870000	-1,680000	-0,210000	2020-10-29T19:20:30:992
1,260000	-1,960000	0,210000	2020-10-29T19:20:31:014
2,730000	-1,470000	-0,210000	2020-10-29T19:20:31:033
5,460000	-1,260000	-0,700000	2020-10-29T19:20:31:055
6,790000	-1,330000	-1,260000	2020-10-29T19:20:31:072
6,300000	-1,190000	-1,960000	2020-10-29T19:20:31:095
3,010000	-0,420000	-1,470000	2020-10-29T19:20:31:112
-2,310000	-0,070000	-0,420000	2020-10-29T19:20:31:136
-5,460000	0,420000	0,140000	2020-10-29T19:20:31:152
-3,920000	1,330000	0,700000	2020-10-29T19:20:31:175
-1,190000	2,450000	0,490000	2020-10-29T19:20:31:192
0,350000	3,290000	0,490000	2020-10-29T19:20:31:215
-1,120000	4,130000	1,120000	2020-10-29T19:20:31:233
-3,220000	4,060000	1,820000	2020-10-29T19:20:31:255
-3,220000	3,710000	1,750000	2020-10-29T19:20:31:272
-1,400000	2,800000	1,400000	2020-10-29T19:20:31:295
0,700000	1,330000	0,280000	2020-10-29T19:20:31:312
3,080000	0,140000	-0,770000	2020-10-29T19:20:31:335
4,060000	0,140000	-0,840000	2020-10-29T19:20:31:352
2,870000	0,490000	-0,350000	2020-10-29T19:20:31:376
0,700000	0,700000	0,210000	2020-10-29T19:20:31:392
-1,610000	0,840000	0,560000	2020-10-29T19:20:31:415
-2,030000	1,050000	0,350000	2020-10-29T19:20:31:433
0,490000	1,820000	-0,420000	2020-10-29T19:20:31:456
2,170000	2,590000	-0,980000	2020-10-29T19:20:31:473
0,700000	3,080000	-0,980000	2020-10-29T19:20:31:495
-2,520000	3,080000	-0,630000	2020-10-29T19:20:31:513
-4,830000	2,450000	-0,490000	2020-10-29T19:20:31:536
-4,270000	2,170000	-0,910000	2020-10-29T19:20:31:553
-1,820000	2,380000	-0,700000	2020-10-29T19:20:31:576
-0,280000	1,890000	-0,490000	2020-10-29T19:20:31:593
0,630000	1,120000	-0,630000	2020-10-29T19:20:31:616
1,190000	0,210000	-0,700000	2020-10-29T19:20:31:633
1,750000	-0,210000	-0,490000	2020-10-29T19:20:31:655
2,310000	-0,210000	-0,210000	2020-10-29T19:20:31:672
2,520000	0,700000	0,210000	2020-10-29T19:20:31:696
2,240000	0,560000	0,350000	2020-10-29T19:20:31:713
1,960000	1,680000	0,700000	2020-10-29T19:20:31:737
0,560000	2,310000	0,700000	2020-10-29T19:20:31:753
-0,560000	2,170000	0,630000	2020-10-29T19:20:31:775
-0,980000	1,680000	0,210000	2020-10-29T19:20:31:793
-0,770000	1,750000	0,210000	2020-10-29T19:20:31:816
-0,770000	1,470000	-0,070000	2020-10-29T19:20:31:833
-0,910000	1,610000	-0,070000	2020-10-29T19:20:31:857
-0,910000	1,400000	-0,070000	2020-10-29T19:20:31:873
-0,070000	1,610000	0,070000	2020-10-29T19:20:31:896
0,280000	1,470000	0,140000	2020-10-29T19:20:31:913
0,630000	1,190000	0,140000	2020-10-29T19:20:31:937
0,630000	1,260000	0,210000	2020-10-29T19:20:31:953
0,070000	1,260000	0,210000	2020-10-29T19:20:31:976
-0,070000	1,120000	-0,070000	2020-10-29T19:20:31:993
0,070000	0,910000	-0,070000	2020-10-29T19:20:32:016
0,070000	1,050000	0,140000	2020-10-29T19:20:32:034
0,490000	1,260000	0,210000	2020-10-29T19:20:32:055
1,750000	1,470000	0,140000	2020-10-29T19:20:32:073
1,610000	0,980000	0,070000	2020-10-29T19:20:32:096
0,280000	0,840000	-0,140000	2020-10-29T19:20:32:113
-0,070000	0,840000	-0,140000	2020-10-29T19:20:32:137
-0,770000	0,910000	-0,210000	2020-10-29T19:20:32:153
-1,120000	0,980000	-0,140000	2020-10-29T19:20:32:177
-1,400000	1,400000	-0,140000	2020-10-29T19:20:32:193
-0,910000	1,400000	-0,140000	2020-10-29T19:20:32:216
-0,560000	1,330000	-0,070000	2020-10-29T19:20:32:234
0,490000	1,260000	-0,070000	2020-10-29T19:20:32:256
1,120000	1,330000	-0,070000	2020-10-29T19:20:32:274
0,840000	0,910000	-0,070000	2020-10-29T19:20:32:296
0,140000	1,120000	-0,070000	2020-10-29T19:20:32:313
-0,280000	0,770000	-0,070000	2020-10-29T19:20:32:338
-0,420000	1,050000	0,070000	2020-10-29T19:20:32:353
0,350000	1,120000	-0,070000	2020-10-29T19:20:32:377
0,910000	1,050000	0,070000	2020-10-29T19:20:32:393
1,260000	0,840000	-0,140000	2020-10-29T19:20:32:417
0,630000	1,260000	0,070000	2020-10-29T19:20:32:434
-0,350000	1,120000	0,070000	2020-10-29T19:20:32:456
-0,980000	1,120000	-0,070000	2020-10-29T19:20:32:474
-0,140000	1,330000	-0,070000	2020-10-29T19:20:32:497
-0,490000	1,260000	-0,070000	2020-10-29T19:20:32:514
-0,140000	1,050000	-0,070000	2020-10-29T19:20:32:537
-0,140000	0,910000	0,070000	2020-10-29T19:20:32:553
0,350000	0,980000	-0,140000	2020-10-29T19:20:32:579
0,490000	1,260000	-0,140000	2020-10-29T19:20:32:593
0,210000	1,190000	-0,140000	2020-10-29T19:20:32:617
0,140000	1,260000	0,140000	2020-10-29T19:20:32:634
0,490000	0,980000	0,070000	2020-10-29T19:20:32:657
1,260000	0,770000	0,070000	2020-10-29T19:20:32:673
1,260000	0,980000	-0,070000	2020-10-29T19:20:32:697
1,190000	1,050000	-0,070000	2020-10-29T19:20:32:714
0,490000	0,980000	-0,140000	2020-10-29T19:20:32:738
-0,210000	1,050000	-0,280000	2020-10-29T19:20:32:754
-0,630000	1,190000	-0,070000	2020-10-29T19:20:32:777
-0,700000	1,120000	-0,210000	2020-10-29T19:20:32:794
-0,560000	0,980000	-0,420000	2020-10-29T19:20:32:817
-0,280000	1,330000	-0,490000	2020-10-29T19:20:32:834
-0,770000	1,400000	-0,420000	2020-10-29T19:20:32:857
-1,190000	1,260000	-0,350000	2020-10-29T19:20:32:874
-1,540000	1,050000	-0,210000	2020-10-29T19:20:32:897
-0,910000	0,910000	-0,210000	2020-10-29T19:20:32:914
0,420000	0,910000	-0,350000	2020-10-29T19:20:32:938
1,050000	1,050000	-0,490000	2020-10-29T19:20:32:954
0,140000	1,190000	-0,210000	2020-10-29T19:20:32:977
-1,050000	0,980000	-0,140000	2020-10-29T19:20:32:994
-0,980000	0,980000	-0,140000	2020-10-29T19:20:33:017
-0,210000	1,050000	-0,420000	2020-10-29T19:20:33:034
0,630000	1,050000	-0,420000	2020-10-29T19:20:33:059
0,630000	0,770000	-0,350000	2020-10-29T19:20:33:074
0,070000	0,980000	-0,280000	2020-10-29T19:20:33:097
-0,840000	0,700000	-0,140000	2020-10-29T19:20:33:114
-1,190000	0,980000	-0,140000	2020-10-29T19:20:33:138
-0,840000	1,120000	-0,420000	2020-10-29T19:20:33:154
-0,070000	1,260000	-0,350000	2020-10-29T19:20:33:177
0,140000	1,120000	-0,350000	2020-10-29T19:20:33:194
0,350000	0,840000	-0,140000	2020-10-29T19:20:33:217
0,280000	0,910000	-0,280000	2020-10-29T19:20:33:235
0,210000	1,050000	-0,140000	2020-10-29T19:20:33:257
-0,630000	1,120000	-0,070000	2020-10-29T19:20:33:274
-0,700000	1,050000	-0,070000	2020-10-29T19:20:33:299
-0,630000	1,190000	-0,210000	2020-10-29T19:20:33:315
-0,420000	1,470000	-0,070000	2020-10-29T19:20:33:337
-0,210000	1,330000	-0,210000	2020-10-29T19:20:33:354
-0,070000	1,260000	-0,140000	2020-10-29T19:20:33:378
-0,070000	1,190000	-0,280000	2020-10-29T19:20:33:394
-0,070000	1,190000	-0,280000	2020-10-29T19:20:33:418
-0,280000	1,260000	-0,140000	2020-10-29T19:20:33:438
-0,350000	1,120000	-0,140000	2020-10-29T19:20:33:457
-0,210000	1,050000	-0,210000	2020-10-29T19:20:33:474
-0,910000	1,190000	-0,070000	2020-10-29T19:20:33:498
-1,050000	1,610000	-0,070000	2020-10-29T19:20:33:514
-0,700000	1,400000	-0,210000	2020-10-29T19:20:33:539
-0,630000	1,610000	-0,280000	2020-10-29T19:20:33:555
-0,980000	1,260000	-0,280000	2020-10-29T19:20:33:578
-0,910000	0,980000	-0,280000	2020-10-29T19:20:33:635
-0,140000	1,120000	-0,210000	2020-10-29T19:20:33:636
0,350000	1,260000	-0,070000	2020-10-29T19:20:33:637
0,210000	1,400000	0,070000	2020-10-29T19:20:33:688
-0,280000	1,400000	-0,070000	2020-10-29T19:20:33:689
-0,630000	1,120000	-0,140000	2020-10-29T19:20:33:699
-0,280000	1,050000	-0,210000	2020-10-29T19:20:33:714
0,420000	0,980000	-0,140000	2020-10-29T19:20:33:738
0,770000	1,050000	-0,280000	2020-10-29T19:20:33:755
0,560000	1,260000	-0,280000	2020-10-29T19:20:33:779
-0,070000	1,190000	-0,210000	2020-10-29T19:20:33:795
-0,630000	1,260000	-0,210000	2020-10-29T19:20:33:819
-0,770000	0,980000	-0,280000	2020-10-29T19:20:33:835
-0,980000	1,050000	-0,210000	2020-10-29T19:20:33:858
-0,560000	1,050000	-0,280000	2020-10-29T19:20:33:875
-0,490000	1,120000	-0,280000	2020-10-29T19:20:33:899
-0,560000	1,260000	-0,210000	2020-10-29T19:20:33:915
-0,980000	1,400000	-0,140000	2020-10-29T19:20:33:938
-0,980000	1,260000	-0,210000	2020-10-29T19:20:33:955
-1,260000	1,330000	-0,280000	2020-10-29T19:20:33:979
-1,120000	1,190000	-0,350000	2020-10-29T19:20:33:995
-1,050000	1,190000	-0,210000	2020-10-29T19:20:34:019
-0,770000	1,330000	-0,140000	2020-10-29T19:20:34:035
-0,420000	1,260000	-0,280000	2020-10-29T19:20:34:059
-0,140000	1,400000	-0,140000	2020-10-29T19:20:34:075
-0,490000	1,120000	-0,350000	2020-10-29T19:20:34:097
-0,420000	1,120000	-0,210000	2020-10-29T19:20:34:115
-0,560000	0,980000	-0,490000	2020-10-29T19:20:34:139
-0,560000	1,120000	-0,420000	2020-10-29T19:20:34:155
-1,120000	1,190000	-0,420000	2020-10-29T19:20:34:178
-1,400000	1,330000	-0,350000	2020-10-29T19:20:34:195
-1,750000	1,470000	-0,350000	2020-10-29T19:20:34:219
-1,610000	1,330000	-0,280000	2020-10-29T19:20:34:235
-0,280000	1,120000	-0,280000	2020-10-29T19:20:34:258
0,210000	1,260000	-0,490000	2020-10-29T19:20:34:275
0,560000	1,120000	-0,420000	2020-10-29T19:20:34:299
0,070000	0,980000	-0,630000	2020-10-29T19:20:34:315
-0,210000	1,190000	-0,840000	2020-10-29T19:20:34:338
0,070000	0,910000	-0,910000	2020-10-29T19:20:34:355
0,490000	0,840000	-0,770000	2020-10-29T19:20:34:378
-0,350000	1,120000	-0,350000	2020-10-29T19:20:34:395
-0,560000	1,190000	0,140000	2020-10-29T19:20:34:420
-0,910000	1,470000	0,070000	2020-10-29T19:20:34:436
-0,770000	1,330000	0,210000	2020-10-29T19:20:34:459
-0,490000	1,260000	0,140000	2020-10-29T19:20:34:475
0,280000	1,330000	-0,210000	2020-10-29T19:20:34:499
0,490000	1,260000	-0,210000	2020-10-29T19:20:34:515
-0,490000	1,190000	-0,070000	2020-10-29T19:20:34:540
-1,050000	1,120000	0,210000	2020-10-29T19:20:34:556
-0,420000	1,260000	0,070000	2020-10-29T19:20:34:579
0,210000	1,260000	0,070000	2020-10-29T19:20:34:595
-0,210000	1,400000	-0,140000	2020-10-29T19:20:34:619
-0,490000	1,260000	-0,070000	2020-10-29T19:20:34:636
-0,840000	1,400000	-0,070000	2020-10-29T19:20:34:657
-0,910000	1,190000	-0,070000	2020-10-29T19:20:34:675
-0,630000	1,260000	-0,070000	2020-10-29T19:20:34:699
-0,420000	1,260000	-0,070000	2020-10-29T19:20:34:714
-0,140000	1,540000	-0,140000	2020-10-29T19:20:34:740
-0,490000	1,400000	0,070000	2020-10-29T19:20:34:755
-0,210000	1,120000	-0,140000	2020-10-29T19:20:34:778
-0,210000	1,470000	0,070000	2020-10-29T19:20:34:795
0,280000	0,840000	-0,070000	2020-10-29T19:20:34:818
0,350000	1,190000	-0,070000	2020-10-29T19:20:34:836
0,210000	1,120000	0,140000	2020-10-29T19:20:34:859
0,210000	1,330000	0,070000	2020-10-29T19:20:34:875
0,350000	1,050000	0,140000	2020-10-29T19:20:34:897
0,700000	0,910000	-0,070000	2020-10-29T19:20:34:915
0,980000	1,120000	-0,070000	2020-10-29T19:20:34:939
0,770000	0,700000	-0,210000	2020-10-29T19:20:34:955
0,700000	1,120000	-0,140000	2020-10-29T19:20:34:979
0,840000	0,980000	-0,070000	2020-10-29T19:20:34:995
0,210000	0,910000	-0,210000	2020-10-29T19:20:35:019
-0,210000	0,980000	-0,140000	2020-10-29T19:20:35:035
-0,630000	0,980000	-0,210000	2020-10-29T19:20:35:058
-0,770000	1,400000	0,070000	2020-10-29T19:20:35:075
-0,770000	1,400000	0,070000	2020-10-29T19:20:35:099
0,210000	1,260000	-0,070000	2020-10-29T19:20:35:115
1,050000	1,120000	-0,140000	2020-10-29T19:20:35:139
0,490000	0,840000	-0,350000	2020-10-29T19:20:35:155
-0,070000	1,050000	-0,210000	2020-10-29T19:20:35:179
-0,490000	1,050000	-0,210000	2020-10-29T19:20:35:195
-0,140000	1,400000	-0,070000	2020-10-29T19:20:35:219
-0,140000	1,190000	-0,350000	2020-10-29T19:20:35:236
-0,070000	1,330000	-0,420000	2020-10-29T19:20:35:259
-0,560000	1,190000	-0,350000	2020-10-29T19:20:35:275
-0,770000	1,330000	-0,280000	2020-10-29T19:20:35:298
-0,210000	1,330000	-0,280000	2020-10-29T19:20:35:316
0,280000	1,190000	-0,140000	2020-10-29T19:20:35:339
0,280000	1,120000	-0,070000	2020-10-29T19:20:35:355
0,070000	1,400000	-0,070000	2020-10-29T19:20:35:378
0,070000	0,980000	-0,140000	2020-10-29T19:20:35:396
0,210000	0,980000	-0,140000	2020-10-29T19:20:35:422
0,210000	0,980000	-0,210000	2020-10-29T19:20:35:440
-0,280000	1,050000	-0,210000	2020-10-29T19:20:35:486
-0,770000	1,190000	-0,210000	2020-10-29T19:20:35:488
-1,050000	1,260000	-0,210000	2020-10-29T19:20:35:499
-0,770000	1,400000	-0,210000	2020-10-29T19:20:35:516
-0,350000	1,330000	-0,070000	2020-10-29T19:20:35:539
-0,070000	1,330000	-0,280000	2020-10-29T19:20:35:555
-0,070000	1,400000	-0,070000	2020-10-29T19:20:35:579
-0,280000	1,330000	-0,070000	2020-10-29T19:20:35:595
-0,350000	1,470000	0,210000	2020-10-29T19:20:35:618
-0,210000	1,190000	0,140000	2020-10-29T19:20:35:636
0,070000	1,120000	-0,280000	2020-10-29T19:20:35:659
0,140000	1,190000	-0,210000	2020-10-29T19:20:35:675
-0,490000	1,120000	-0,210000	2020-10-29T19:20:35:700
-0,770000	1,120000	0,070000	2020-10-29T19:20:35:715
-0,560000	1,190000	0,070000	2020-10-29T19:20:35:740
-0,700000	1,610000	0,210000	2020-10-29T19:20:35:756
-0,630000	1,540000	0,210000	2020-10-29T19:20:35:779
-0,420000	1,680000	-0,070000	2020-10-29T19:20:35:795
-0,280000	1,540000	-0,070000	2020-10-29T19:20:35:820
-0,770000	1,400000	-0,070000	2020-10-29T19:20:35:836
-1,120000	1,120000	-0,140000	2020-10-29T19:20:35:857
-0,980000	1,260000	-0,140000	2020-10-29T19:20:35:875
-0,700000	1,400000	-0,140000	2020-10-29T19:20:35:899
-0,420000	1,190000	-0,140000	2020-10-29T19:20:35:916
-0,280000	1,260000	-0,140000	2020-10-29T19:20:35:940
-0,490000	1,330000	-0,210000	2020-10-29T19:20:35:956
-0,700000	1,260000	-0,140000	2020-10-29T19:20:35:980
-0,840000	1,260000	-0,280000	2020-10-29T19:20:35:996
-0,770000	1,330000	-0,070000	2020-10-29T19:20:36:019
-0,840000	1,470000	-0,070000	2020-10-29T19:20:36:036
-0,420000	1,400000	0,070000	2020-10-29T19:20:36:060
0,210000	1,400000	0,070000	2020-10-29T19:20:36:076
0,210000	1,330000	-0,350000	2020-10-29T19:20:36:099
-0,140000	1,330000	-0,280000	2020-10-29T19:20:36:116
-1,470000	1,120000	-0,280000	2020-10-29T19:20:36:141
-1,750000	0,840000	-0,210000	2020-10-29T19:20:36:156
-1,050000	1,190000	-0,350000	2020-10-29T19:20:36:180
-0,280000	1,400000	-0,140000	2020-10-29T19:20:36:196
-0,140000	1,540000	-0,140000	2020-10-29T19:20:36:220
-0,490000	1,540000	0,140000	2020-10-29T19:20:36:236
-0,560000	1,260000	0,140000	2020-10-29T19:20:36:259
-0,560000	1,120000	-0,140000	2020-10-29T19:20:36:276
-0,490000	1,120000	-0,210000	2020-10-29T19:20:36:300
-0,140000	1,050000	-0,070000	2020-10-29T19:20:36:316
0,420000	1,050000	-0,070000	2020-10-29T19:20:36:340
0,840000	0,840000	-0,280000	2020-10-29T19:20:36:356
0,490000	1,260000	-0,140000	2020-10-29T19:20:36:380
-0,980000	1,400000	0,070000	2020-10-29T19:20:36:396
-2,030000	1,680000	0,070000	2020-10-29T19:20:36:420
-1,470000	1,330000	-0,070000	2020-10-29T19:20:36:437
-0,700000	1,190000	-0,280000	2020-10-29T19:20:36:460
-0,630000	1,750000	-0,210000	2020-10-29T19:20:36:476
-1,330000	1,820000	0,070000	2020-10-29T19:20:36:500
-1,820000	1,680000	0,350000	2020-10-29T19:20:36:517
-1,260000	1,400000	0,350000	2020-10-29T19:20:36:540
-0,420000	1,190000	-0,280000	2020-10-29T19:20:36:557
-0,350000	0,910000	-0,210000	2020-10-29T19:20:36:579
-0,630000	0,840000	-0,210000	2020-10-29T19:20:36:597
-0,490000	1,120000	-0,210000	2020-10-29T19:20:36:621
-0,420000	1,400000	0,070000	2020-10-29T19:20:36:638
-0,350000	1,470000	0,140000	2020-10-29T19:20:36:661
-0,280000	1,400000	0,140000	2020-10-29T19:20:36:676
-0,560000	1,190000	-0,140000	2020-10-29T19:20:36:700
-0,490000	1,260000	-0,210000	2020-10-29T19:20:36:717
-0,770000	1,190000	-0,280000	2020-10-29T19:20:36:741
-0,770000	1,050000	-0,210000	2020-10-29T19:20:36:757
-0,630000	1,050000	-0,070000	2020-10-29T19:20:36:781
-0,700000	1,190000	-0,140000	2020-10-29T19:20:36:797
-0,630000	1,400000	-0,140000	2020-10-29T19:20:36:820
-0,910000	1,470000	-0,140000	2020-10-29T19:20:36:837
-0,700000	1,260000	-0,140000	2020-10-29T19:20:36:860
-0,490000	1,050000	-0,280000	2020-10-29T19:20:36:876
-0,350000	1,330000	-0,140000	2020-10-29T19:20:36:901
-0,630000	1,120000	0,070000	2020-10-29T19:20:36:917
-0,490000	1,120000	0,070000	2020-10-29T19:20:36:941
-0,070000	1,400000	-0,210000	2020-10-29T19:20:36:957
-0,210000	1,540000	-0,070000	2020-10-29T19:20:36:980
-0,840000	1,330000	-0,210000	2020-10-29T19:20:36:997
-1,540000	1,190000	-0,210000	2020-10-29T19:20:37:020
-1,750000	1,050000	-0,210000	2020-10-29T19:20:37:039
-1,190000	1,400000	-0,140000	2020-10-29T19:20:37:059
-0,770000	1,540000	-0,070000	2020-10-29T19:20:37:077
-0,770000	1,610000	0,140000	2020-10-29T19:20:37:101
-1,120000	1,680000	0,140000	2020-10-29T19:20:37:117
-0,980000	1,470000	0,140000	2020-10-29T19:20:37:141
-0,700000	1,330000	-0,210000	2020-10-29T19:20:37:157
-0,490000	1,120000	-0,280000	2020-10-29T19:20:37:181
-0,560000	1,190000	-0,070000	2020-10-29T19:20:37:199
-0,700000	1,260000	0,140000	2020-10-29T19:20:37:220
-0,280000	1,540000	0,070000	2020-10-29T19:20:37:239
0,070000	1,470000	0,070000	2020-10-29T19:20:37:261
-0,560000	1,540000	-0,140000	2020-10-29T19:20:37:279
-0,700000	1,470000	-0,140000	2020-10-29T19:20:37:300
-0,840000	1,050000	-0,140000	2020-10-29T19:20:37:319
-0,350000	1,190000	-0,140000	2020-10-29T19:20:37:342
-0,280000	1,050000	-0,210000	2020-10-29T19:20:37:358
-0,350000	1,540000	-0,210000	2020-10-29T19:20:37:381
-0,210000	1,680000	0,140000	2020-10-29T19:20:37:398
-0,070000	1,190000	-0,070000	2020-10-29T19:20:37:421
-0,140000	1,120000	-0,070000	2020-10-29T19:20:37:439
-0,210000	0,980000	-0,210000	2020-10-29T19:20:37:460
-0,560000	0,980000	-0,210000	2020-10-29T19:20:37:478
-1,190000	1,330000	0,140000	2020-10-29T19:20:37:501
-0,560000	1,400000	0,070000	2020-10-29T19:20:37:519
-0,070000	1,470000	-0,070000	2020-10-29T19:20:37:540
-0,420000	1,470000	-0,140000	2020-10-29T19:20:37:558
-0,980000	1,190000	-0,070000	2020-10-29T19:20:37:581
-1,260000	1,260000	-0,070000	2020-10-29T19:20:37:598
-1,120000	1,540000	-0,210000	2020-10-29T19:20:37:622
-1,190000	1,400000	-0,210000	2020-10-29T19:20:37:638
-1,260000	1,400000	-0,210000	2020-10-29T19:20:37:661
-1,190000	1,330000	-0,140000	2020-10-29T19:20:37:678
-1,330000	1,400000	0,070000	2020-10-29T19:20:37:701
-1,260000	1,400000	0,070000	2020-10-29T19:20:37:718
-0,490000	1,260000	0,070000	2020-10-29T19:20:37:742
-0,350000	1,120000	-0,420000	2020-10-29T19:20:37:758
-0,980000	1,190000	-0,350000	2020-10-29T19:20:37:780
-1,890000	1,260000	-0,350000	2020-10-29T19:20:37:798
-2,030000	1,190000	-0,280000	2020-10-29T19:20:37:821
-1,190000	1,400000	-0,070000	2020-10-29T19:20:37:839
-0,420000	1,400000	-0,140000	2020-10-29T19:20:37:862
-0,420000	1,470000	-0,070000	2020-10-29T19:20:37:878
-0,280000	1,470000	-0,070000	2020-10-29T19:20:37:902
-0,700000	1,190000	-0,140000	2020-10-29T19:20:37:919
-0,840000	1,190000	-0,210000	2020-10-29T19:20:37:942
-0,840000	1,050000	-0,280000	2020-10-29T19:20:37:958
-0,490000	1,050000	-0,210000	2020-10-29T19:20:37:982
-0,840000	1,190000	-0,140000	2020-10-29T19:20:37:999
-0,630000	1,190000	-0,070000	2020-10-29T19:20:38:020
-0,210000	1,330000	-0,140000	2020-10-29T19:20:38:039
-0,420000	1,470000	-0,280000	2020-10-29T19:20:38:062
-1,470000	1,330000	-0,210000	2020-10-29T19:20:38:078
-1,750000	1,330000	-0,210000	2020-10-29T19:20:38:102
-1,750000	1,400000	-0,280000	2020-10-29T19:20:38:118
-1,400000	1,610000	-0,140000	2020-10-29T19:20:38:142
-1,120000	1,540000	-0,210000	2020-10-29T19:20:38:158
-1,050000	1,330000	-0,140000	2020-10-29T19:20:38:180
-1,260000	1,190000	-0,070000	2020-10-29T19:20:38:198
-1,120000	1,470000	-0,070000	2020-10-29T19:20:38:222
-1,330000	1,400000	-0,280000	2020-10-29T19:20:38:239
-1,330000	1,260000	-0,210000	2020-10-29T19:20:38:261
-1,610000	1,330000	-0,140000	2020-10-29T19:20:38:278
-1,470000	1,190000	0,070000	2020-10-29T19:20:38:302
-1,260000	1,750000	0,140000	2020-10-29T19:20:38:319
-1,680000	1,680000	0,350000	2020-10-29T19:20:38:341
-1,820000	1,470000	0,210000	2020-10-29T19:20:38:358
-1,120000	1,680000	0,210000	2020-10-29T19:20:38:382
-1,120000	1,610000	-0,210000	2020-10-29T19:20:38:399
-1,400000	1,330000	-0,280000	2020-10-29T19:20:38:421
-1,400000	1,190000	-0,070000	2020-10-29T19:20:38:439
-1,120000	1,120000	-0,210000	2020-10-29T19:20:38:461
-0,560000	1,470000	-0,210000	2020-10-29T19:20:38:479
-0,770000	1,680000	-0,140000	2020-10-29T19:20:38:502
-1,330000	1,400000	-0,210000	2020-10-29T19:20:38:519
-1,610000	1,330000	-0,420000	2020-10-29T19:20:38:543
-1,610000	1,330000	-0,280000	2020-10-29T19:20:38:559
-1,470000	1,120000	-0,280000	2020-10-29T19:20:38:581
-0,630000	1,330000	-0,210000	2020-10-29T19:20:38:599
-0,070000	1,330000	-0,070000	2020-10-29T19:20:38:623
-0,490000	1,330000	-0,070000	2020-10-29T19:20:38:639
-0,840000	1,610000	-0,070000	2020-10-29T19:20:38:661
-1,260000	1,260000	-0,140000	2020-10-29T19:20:38:678
-0,980000	1,190000	-0,280000	2020-10-29T19:20:38:701
-1,050000	1,260000	-0,210000	2020-10-29T19:20:38:719
-1,120000	1,190000	-0,070000	2020-10-29T19:20:38:742
-1,120000	1,260000	-0,070000	2020-10-29T19:20:38:759
-0,770000	1,330000	-0,070000	2020-10-29T19:20:38:782
-0,980000	1,470000	-0,070000	2020-10-29T19:20:38:799
-1,540000	1,470000	-0,070000	2020-10-29T19:20:38:823
-1,890000	1,260000	-0,140000	2020-10-29T19:20:38:840
-1,750000	1,470000	-0,070000	2020-10-29T19:20:38:864
-1,750000	1,610000	-0,140000	2020-10-29T19:20:38:879
-1,400000	1,470000	-0,070000	2020-10-29T19:20:38:902
-1,120000	1,540000	-0,140000	2020-10-29T19:20:38:919
-1,260000	1,470000	-0,140000	2020-10-29T19:20:38:943
-1,680000	1,610000	-0,140000	2020-10-29T19:20:38:959
-1,610000	1,330000	-0,070000	2020-10-29T19:20:38:981
-1,470000	1,260000	-0,280000	2020-10-29T19:20:38:999
-1,260000	1,470000	-0,140000	2020-10-29T19:20:39:022
-1,400000	1,260000	-0,070000	2020-10-29T19:20:39:039
-1,120000	1,470000	-0,070000	2020-10-29T19:20:39:063
-1,050000	1,470000	-0,070000	2020-10-29T19:20:39:079
-1,050000	1,470000	-0,070000	2020-10-29T19:20:39:103
-0,910000	1,470000	-0,070000	2020-10-29T19:20:39:119
-1,190000	1,400000	-0,070000	2020-10-29T19:20:39:142
-1,400000	1,470000	-0,070000	2020-10-29T19:20:39:159
-1,400000	1,400000	-0,140000	2020-10-29T19:20:39:183
-0,910000	1,050000	-0,070000	2020-10-29T19:20:39:199
-0,560000	1,400000	-0,070000	2020-10-29T19:20:39:222
-0,770000	1,190000	-0,070000	2020-10-29T19:20:39:239
-0,770000	1,190000	-0,070000	2020-10-29T19:20:39:262
-0,980000	1,470000	-0,070000	2020-10-29T19:20:39:279
-1,330000	1,610000	-0,070000	2020-10-29T19:20:39:303
-1,680000	1,540000	-0,140000	2020-10-29T19:20:39:319
-1,400000	1,400000	-0,140000	2020-10-29T19:20:39:343
-1,050000	1,260000	-0,070000	2020-10-29T19:20:39:359
-0,210000	1,260000	-0,070000	2020-10-29T19:20:39:382
-0,140000	1,330000	0,070000	2020-10-29T19:20:39:399
-1,050000	1,470000	0,140000	2020-10-29T19:20:39:422
-1,680000	1,680000	0,070000	2020-10-29T19:20:39:440
-1,750000	1,190000	0,070000	2020-10-29T19:20:39:462
-1,470000	1,330000	-0,140000	2020-10-29T19:20:39:479
-0,980000	1,330000	-0,140000	2020-10-29T19:20:39:503
-0,770000	1,470000	-0,140000	2020-10-29T19:20:39:520
-0,700000	1,610000	-0,140000	2020-10-29T19:20:39:543
-0,980000	1,330000	-0,070000	2020-10-29T19:20:39:559
-1,400000	1,330000	-0,210000	2020-10-29T19:20:39:583
-1,610000	1,470000	-0,210000	2020-10-29T19:20:39:599
-1,540000	1,400000	-0,210000	2020-10-29T19:20:39:623
-1,470000	1,610000	-0,210000	2020-10-29T19:20:39:640
-1,540000	1,540000	-0,210000	2020-10-29T19:20:39:663
-1,540000	1,330000	-0,280000	2020-10-29T19:20:39:679
-1,820000	1,470000	-0,280000	2020-10-29T19:20:39:702
-2,450000	1,330000	-0,280000	2020-10-29T19:20:39:720
-2,590000	1,400000	-0,210000	2020-10-29T19:20:39:744
-2,380000	1,540000	-0,140000	2020-10-29T19:20:39:760
-2,100000	1,680000	-0,140000	2020-10-29T19:20:39:782
-1,960000	1,540000	-0,140000	2020-10-29T19:20:39:800
-1,680000	1,330000	-0,070000	2020-10-29T19:20:39:823
-1,260000	1,330000	-0,070000	2020-10-29T19:20:39:841
-0,840000	1,680000	-0,070000	2020-10-29T19:20:39:863
-0,630000	1,330000	-0,140000	2020-10-29T19:20:39:896
-0,980000	1,190000	0,070000	2020-10-29T19:20:39:905
-1,050000	1,120000	0,070000	2020-10-29T19:20:39:920
-0,490000	1,190000	0,070000	2020-10-29T19:20:39:943
-0,210000	1,190000	-0,070000	2020-10-29T19:20:39:960
-0,490000	1,260000	-0,070000	2020-10-29T19:20:39:983
-0,910000	1,190000	0,070000	2020-10-29T19:20:40:000
-1,120000	1,470000	0,070000	2020-10-29T19:20:40:024
-1,400000	1,470000	-0,070000	2020-10-29T19:20:40:040
-1,610000	1,680000	-0,070000	2020-10-29T19:20:40:064
-1,400000	1,610000	-0,070000	2020-10-29T19:20:40:080
-1,050000	1,540000	-0,070000	2020-10-29T19:20:40:102
-0,700000	1,260000	-0,140000	2020-10-29T19:20:40:120
-0,420000	1,190000	-0,140000	2020-10-29T19:20:40:144
-0,560000	1,120000	0,070000	2020-10-29T19:20:40:160
-0,630000	1,470000	0,140000	2020-10-29T19:20:40:183
-0,700000	1,330000	0,070000	2020-10-29T19:20:40:201
-0,630000	1,400000	0,070000	2020-10-29T19:20:40:223
-0,630000	1,330000	0,070000	2020-10-29T19:20:40:241
-0,630000	1,120000	-0,070000	2020-10-29T19:20:40:264
-0,280000	1,120000	-0,070000	2020-10-29T19:20:40:280
-0,280000	1,120000	0,070000	2020-10-29T19:20:40:304
-0,490000	1,260000	0,070000	2020-10-29T19:20:40:321
-0,560000	1,190000	0,140000	2020-10-29T19:20:40:344
-0,700000	1,260000	-0,070000	2020-10-29T19:20:40:360
-0,420000	1,330000	-0,070000	2020-10-29T19:20:40:384
-0,420000	1,050000	-0,140000	2020-10-29T19:20:40:401
-0,280000	1,190000	-0,140000	2020-10-29T19:20:40:423
-0,280000	1,120000	-0,140000	2020-10-29T19:20:40:441
0,210000	1,120000	-0,140000	2020-10-29T19:20:40:464
0,490000	1,470000	0,070000	2020-10-29T19:20:40:481
0,140000	1,400000	0,070000	2020-10-29T19:20:40:504
-0,280000	1,330000	0,070000	2020-10-29T19:20:40:520
-0,840000	1,120000	-0,070000	2020-10-29T19:20:40:545
-1,330000	0,770000	-0,070000	2020-10-29T19:20:40:560
-1,050000	1,120000	-0,140000	2020-10-29T19:20:40:596
-0,700000	1,400000	-0,070000	2020-10-29T19:20:40:601
-0,350000	1,470000	0,070000	2020-10-29T19:20:40:625
-0,630000	1,330000	0,210000	2020-10-29T19:20:40:641
-0,770000	1,330000	0,280000	2020-10-29T19:20:40:663
-0,700000	1,120000	0,210000	2020-10-29T19:20:40:680
-0,350000	1,260000	0,210000	2020-10-29T19:20:40:704
-0,140000	1,120000	0,210000	2020-10-29T19:20:40:721
-0,210000	1,400000	0,140000	2020-10-29T19:20:40:745
-0,770000	1,330000	-0,070000	2020-10-29T19:20:40:761
-1,260000	1,400000	0,070000	2020-10-29T19:20:40:783
-1,960000	1,610000	0,070000	2020-10-29T19:20:40:801
-2,170000	1,540000	0,070000	2020-10-29T19:20:40:823
-1,890000	1,750000	0,210000	2020-10-29T19:20:40:842
-0,840000	1,820000	0,070000	2020-10-29T19:20:40:863
0,070000	1,750000	0,070000	2020-10-29T19:20:40:881
-0,350000	1,330000	-0,140000	2020-10-29T19:20:40:903
-1,190000	1,400000	0,140000	2020-10-29T19:20:40:921
-1,680000	1,260000	0,350000	2020-10-29T19:20:40:944
-1,330000	1,260000	0,140000	2020-10-29T19:20:40:961
-0,560000	1,260000	0,210000	2020-10-29T19:20:40:984
-0,210000	1,330000	0,070000	2020-10-29T19:20:41:001
-0,140000	1,050000	0,140000	2020-10-29T19:20:41:024
-0,490000	1,120000	0,140000	2020-10-29T19:20:41:042
-0,910000	0,910000	0,140000	2020-10-29T19:20:41:063
-0,630000	1,260000	-0,070000	2020-10-29T19:20:41:081
-0,840000	1,470000	-0,140000	2020-10-29T19:20:41:104
-1,260000	1,470000	0,070000	2020-10-29T19:20:41:121
-1,610000	1,400000	0,070000	2020-10-29T19:20:41:144
-1,120000	1,330000	-0,070000	2020-10-29T19:20:41:161
-0,490000	1,260000	-0,280000	2020-10-29T19:20:41:184
-0,280000	1,260000	-0,280000	2020-10-29T19:20:41:201
-0,770000	1,610000	-0,140000	2020-10-29T19:20:41:224
-1,330000	1,470000	-0,140000	2020-10-29T19:20:41:242
-1,260000	1,610000	0,070000	2020-10-29T19:20:41:263
-1,050000	1,400000	-0,140000	2020-10-29T19:20:41:281
-0,910000	1,400000	-0,140000	2020-10-29T19:20:41:304
-0,980000	1,330000	-0,140000	2020-10-29T19:20:41:321
-0,910000	1,400000	-0,140000	2020-10-29T19:20:41:344
-1,050000	1,330000	-0,070000	2020-10-29T19:20:41:362
-1,470000	1,470000	0,070000	2020-10-29T19:20:41:384
-1,680000	1,330000	0,070000	2020-10-29T19:20:41:401
-1,190000	1,260000	-0,210000	2020-10-29T19:20:41:424
-0,980000	1,540000	-0,140000	2020-10-29T19:20:41:442
-1,260000	1,400000	-0,070000	2020-10-29T19:20:41:465
-1,190000	1,400000	0,070000	2020-10-29T19:20:41:482
-0,700000	1,260000	-0,210000	2020-10-29T19:20:41:504
-0,420000	1,400000	-0,070000	2020-10-29T19:20:41:522
-0,560000	1,260000	-0,140000	2020-10-29T19:20:41:545
-0,910000	1,260000	-0,280000	2020-10-29T19:20:41:562
-1,050000	1,050000	-0,140000	2020-10-29T19:20:41:584
-0,700000	1,120000	-0,210000	2020-10-29T19:20:41:602
-0,700000	1,050000	-0,350000	2020-10-29T19:20:41:624
0,350000	1,260000	-0,350000	2020-10-29T19:20:41:643
-0,070000	1,540000	0,210000	2020-10-29T19:20:41:665
0,140000	1,470000	0,280000	2020-10-29T19:20:41:682
1,540000	1,330000	0,210000	2020-10-29T19:20:41:705
2,380000	1,050000	-0,070000	2020-10-29T19:20:41:721
2,660000	1,400000	0,070000	2020-10-29T19:20:41:745
0,420000	1,260000	0,350000	2020-10-29T19:20:41:761
-0,070000	0,910000	0,140000	2020-10-29T19:20:41:784
0,560000	1,190000	-0,070000	2020-10-29T19:20:41:802
0,630000	1,120000	-0,070000	2020-10-29T19:20:41:824
-0,280000	1,050000	-0,070000	2020-10-29T19:20:41:843
-0,280000	0,910000	-0,140000	2020-10-29T19:20:41:864
-0,280000	1,120000	-0,280000	2020-10-29T19:20:41:882
-0,070000	1,190000	-0,210000	2020-10-29T19:20:41:905
-0,630000	1,330000	-0,140000	2020-10-29T19:20:41:922
-1,470000	1,470000	-0,070000	2020-10-29T19:20:41:947
-1,960000	1,820000	-0,070000	2020-10-29T19:20:41:962
-1,750000	1,750000	-0,140000	2020-10-29T19:20:41:984
-1,610000	1,680000	-0,210000	2020-10-29T19:20:42:002
-1,890000	1,540000	-0,070000	2020-10-29T19:20:42:024
-2,310000	1,330000	-0,140000	2020-10-29T19:20:42:042
-2,100000	1,050000	-0,070000	2020-10-29T19:20:42:064
-1,190000	1,190000	-0,280000	2020-10-29T19:20:42:082
-0,910000	1,260000	-0,210000	2020-10-29T19:20:42:106
-0,700000	1,470000	-0,140000	2020-10-29T19:20:42:122
-1,470000	1,400000	-0,140000	2020-10-29T19:20:42:145
-0,840000	1,470000	-0,070000	2020-10-29T19:20:42:162
-0,630000	1,400000	-0,140000	2020-10-29T19:20:42:184
-0,630000	1,260000	-0,140000	2020-10-29T19:20:42:202
-0,420000	1,260000	-0,140000	2020-10-29T19:20:42:225
-0,280000	1,190000	-0,210000	2020-10-29T19:20:42:243
-0,490000	1,120000	-0,280000	2020-10-29T19:20:42:265
-0,770000	1,260000	-0,210000	2020-10-29T19:20:42:282
-0,980000	1,190000	-0,280000	2020-10-29T19:20:42:304
-1,330000	1,190000	-0,280000	2020-10-29T19:20:42:322
-1,260000	1,120000	-0,280000	2020-10-29T19:20:42:345
-0,700000	1,190000	0,070000	2020-10-29T19:20:42:363
0,420000	1,260000	-0,140000	2020-10-29T19:20:42:385
0,770000	1,330000	-0,140000	2020-10-29T19:20:42:403
0,070000	1,330000	-0,140000	2020-10-29T19:20:42:425
-0,490000	1,190000	-0,140000	2020-10-29T19:20:42:443
-0,700000	1,120000	-0,210000	2020-10-29T19:20:42:464
-0,210000	0,980000	-0,280000	2020-10-29T19:20:42:483
0,140000	1,050000	-0,140000	2020-10-29T19:20:42:505
0,210000	1,120000	-0,070000	2020-10-29T19:20:42:522
0,210000	1,120000	-0,070000	2020-10-29T19:20:42:545
-0,490000	1,050000	-0,140000	2020-10-29T19:20:42:563
-0,490000	0,840000	-0,420000	2020-10-29T19:20:42:794
-0,490000	1,050000	-0,490000	2020-10-29T19:20:42:796
-0,770000	1,120000	-0,350000	2020-10-29T19:20:42:796
-0,980000	0,910000	-0,280000	2020-10-29T19:20:42:798
-0,420000	0,980000	-0,420000	2020-10-29T19:20:42:798
-0,420000	1,050000	-0,490000	2020-10-29T19:20:42:801
-0,210000	1,260000	-0,420000	2020-10-29T19:20:42:801
-1,190000	1,330000	-0,280000	2020-10-29T19:20:42:802
-2,030000	1,540000	-0,140000	2020-10-29T19:20:42:803
-1,960000	1,610000	-0,070000	2020-10-29T19:20:42:803
-1,260000	1,610000	-0,210000	2020-10-29T19:20:42:804
-0,350000	1,610000	-0,280000	2020-10-29T19:20:42:804
-0,420000	1,330000	-0,210000	2020-10-29T19:20:42:823
-0,770000	1,190000	-0,210000	2020-10-29T19:20:42:842
-0,840000	1,120000	-0,140000	2020-10-29T19:20:42:864
-0,630000	1,120000	-0,140000	2020-10-29T19:20:42:886
-0,070000	1,190000	-0,140000	2020-10-29T19:20:42:906
0,350000	1,190000	-0,140000	2020-10-29T19:20:42:923
0,140000	1,190000	-0,140000	2020-10-29T19:20:42:945
0,070000	1,190000	-0,070000	2020-10-29T19:20:42:963
0,490000	1,330000	-0,140000	2020-10-29T19:20:42:985
0,350000	1,330000	-0,350000	2020-10-29T19:20:43:003
-0,210000	1,400000	-0,280000	2020-10-29T19:20:43:024
-0,770000	1,330000	-0,210000	2020-10-29T19:20:43:043
-0,700000	1,190000	-0,420000	2020-10-29T19:20:43:065
-0,560000	1,330000	-0,350000	2020-10-29T19:20:43:083
-0,490000	1,260000	-0,350000	2020-10-29T19:20:43:104
-0,560000	1,330000	-0,350000	2020-10-29T19:20:43:123
-0,630000	1,260000	-0,420000	2020-10-29T19:20:43:147
-0,350000	1,050000	-0,490000	2020-10-29T19:20:43:164
-0,070000	0,980000	-0,490000	2020-10-29T19:20:43:198
-0,070000	1,120000	-0,280000	2020-10-29T19:20:43:210
-0,560000	1,400000	-0,140000	2020-10-29T19:20:43:243
-0,980000	1,540000	0,070000	2020-10-29T19:20:43:244
-0,560000	1,470000	0,070000	2020-10-29T19:20:43:296
0,140000	1,050000	-0,140000	2020-10-29T19:20:43:388
0,140000	1,260000	-0,140000	2020-10-29T19:20:43:403
-0,420000	1,260000	-0,070000	2020-10-29T19:20:43:434
-0,700000	1,190000	-0,070000	2020-10-29T19:20:43:442
-0,560000	1,190000	-0,070000	2020-10-29T19:20:43:465
-0,210000	1,190000	-0,210000	2020-10-29T19:20:43:482
-0,210000	1,330000	-0,070000	2020-10-29T19:20:43:506
-0,560000	1,540000	0,140000	2020-10-29T19:20:43:524
-0,770000	1,470000	0,140000	2020-10-29T19:20:43:546
-0,840000	1,470000	0,140000	2020-10-29T19:20:43:564
-0,700000	1,470000	0,140000	2020-10-29T19:20:43:586
-0,770000	1,190000	0,070000	2020-10-29T19:20:43:603
-0,420000	1,260000	-0,070000	2020-10-29T19:20:43:631
-0,070000	1,190000	-0,070000	2020-10-29T19:20:43:647
-0,840000	1,120000	-0,140000	2020-10-29T19:20:44:247
-0,910000	1,260000	-0,140000	2020-10-29T19:20:44:249
-0,560000	1,330000	-0,070000	2020-10-29T19:20:44:250
-0,210000	1,260000	-0,070000	2020-10-29T19:20:44:251
-0,210000	1,190000	-0,070000	2020-10-29T19:20:44:314
-0,210000	1,190000	-0,140000	2020-10-29T19:20:44:316
-0,490000	1,260000	-0,140000	2020-10-29T19:20:44:316
-0,980000	1,260000	-0,070000	2020-10-29T19:20:44:318
-1,050000	1,190000	-0,140000	2020-10-29T19:20:44:319
-0,770000	1,260000	-0,140000	2020-10-29T19:20:44:325
-0,490000	1,260000	-0,140000	2020-10-29T19:20:44:349
-0,140000	1,330000	-0,140000	2020-10-29T19:20:44:369
-0,140000	1,260000	-0,210000	2020-10-29T19:20:44:393
-0,700000	1,190000	-0,140000	2020-10-29T19:20:44:422
-0,700000	1,260000	0,140000	2020-10-29T19:21:03:089
-0,420000	1,260000	0,140000	2020-10-29T19:21:03:098
-0,070000	1,400000	-0,140000	2020-10-29T19:21:03:102
-0,350000	1,120000	-0,280000	2020-10-29T19:21:03:224
-0,770000	0,910000	-0,210000	2020-10-29T19:21:03:226
-1,120000	1,050000	-0,140000	2020-10-29T19:21:03:227
-1,050000	1,330000	0,140000	2020-10-29T19:21:03:227
-0,770000	1,610000	0,280000	2020-10-29T19:21:03:232
-0,070000	1,400000	0,280000	2020-10-29T19:21:03:235
-0,140000	1,120000	-0,280000	2020-10-29T19:21:03:246
-0,980000	0,980000	-0,420000	2020-10-29T19:21:03:258
-1,680000	1,050000	-0,420000	2020-10-29T19:21:03:278
-1,610000	1,470000	-0,420000	2020-10-29T19:21:03:299
-0,840000	1,610000	0,070000	2020-10-29T19:21:03:355
-0,840000	1,890000	0,070000	2020-10-29T19:21:03:356
-0,840000	1,330000	0,070000	2020-10-29T19:21:03:356
-0,700000	1,260000	-0,140000	2020-10-29T19:21:03:373
-1,470000	1,050000	-0,210000	2020-10-29T19:21:03:407
-1,540000	1,190000	-0,140000	2020-10-29T19:21:03:413
-1,050000	1,330000	-0,210000	2020-10-29T19:21:03:430
-0,560000	1,540000	-0,070000	2020-10-29T19:21:03:452
-0,350000	1,470000	-0,140000	2020-10-29T19:21:03:473
-0,700000	1,470000	-0,140000	2020-10-29T19:21:03:494
-0,980000	1,190000	-0,070000	2020-10-29T19:21:03:512
-1,050000	1,120000	-0,140000	2020-10-29T19:21:03:540
-0,630000	1,120000	-0,070000	2020-10-29T19:21:03:553
-0,210000	1,190000	-0,070000	2020-10-29T19:21:03:574
-0,140000	1,330000	-0,210000	2020-10-29T19:21:03:592
-0,420000	1,330000	-0,140000	2020-10-29T19:21:03:617
-0,700000	1,190000	-0,070000	2020-10-29T19:21:03:633
-0,840000	1,260000	-0,070000	2020-10-29T19:21:03:654
-0,560000	1,120000	-0,140000	2020-10-29T19:21:03:673
-0,420000	1,190000	-0,140000	2020-10-29T19:21:03:695
-0,560000	1,330000	-0,210000	2020-10-29T19:21:03:712
-0,700000	1,330000	-0,210000	2020-10-29T19:21:03:734
-1,190000	1,190000	-0,140000	2020-10-29T19:21:03:756
-1,680000	1,190000	-0,140000	2020-10-29T19:21:03:775
-1,260000	1,400000	-0,070000	2020-10-29T19:21:03:793
-0,700000	1,610000	-0,140000	2020-10-29T19:21:03:816
-0,700000	1,400000	-0,070000	2020-10-29T19:21:03:832
-1,190000	1,190000	-0,210000	2020-10-29T19:21:03:857
-1,120000	1,190000	-0,210000	2020-10-29T19:21:03:872
-0,840000	1,330000	-0,140000	2020-10-29T19:21:03:894
-0,910000	1,540000	-0,070000	2020-10-29T19:21:03:912
-0,560000	1,540000	-0,070000	2020-10-29T19:21:03:937
-0,770000	1,400000	-0,140000	2020-10-29T19:21:03:952
-1,050000	1,260000	-0,210000	2020-10-29T19:21:03:975
-1,190000	1,260000	-0,280000	2020-10-29T19:21:03:992
-1,540000	1,050000	-0,420000	2020-10-29T19:21:04:016
-1,820000	0,980000	-0,280000	2020-10-29T19:21:04:033
-2,030000	1,330000	-0,140000	2020-10-29T19:21:04:057
4,480000	-0,140000	3,080000	2020-10-29T19:23:35:569
-5,250000	-5,180000	4,760000	2020-10-29T19:23:35:571
-3,430000	-2,170000	2,030000	2020-10-29T19:23:35:572
-0,630000	0,350000	1,750000	2020-10-29T19:23:35:573
-1,190000	1,190000	0,910000	2020-10-29T19:23:35:573
-0,980000	0,980000	0,980000	2020-10-29T19:23:35:574
-0,350000	0,280000	-0,280000	2020-10-29T19:23:35:675
-3,220000	0,420000	-2,520000	2020-10-29T19:23:35:676
0,560000	0,630000	-1,820000	2020-10-29T19:23:35:676
1,890000	0,350000	-1,330000	2020-10-29T19:23:35:680
8,260000	-1,610000	-0,280000	2020-10-29T19:23:35:823
3,710000	-0,910000	-1,400000	2020-10-29T19:23:35:823
-2,450000	-0,770000	-4,340000	2020-10-29T19:23:35:824
-5,250000	-0,910000	-5,110000	2020-10-29T19:23:35:835
-8,400000	-1,820000	-8,120000	2020-10-29T19:23:35:836
5,530000	3,430000	27,930000	2020-10-29T19:23:35:845
-1,820000	0,350000	-0,420000	2020-10-29T19:23:35:859
-4,060000	0,560000	-0,700000	2020-10-29T19:23:35:859
0,140000	1,050000	1,330000	2020-10-29T19:23:35:860
-1,750000	0,490000	-0,700000	2020-10-29T19:23:35:860
-1,610000	0,280000	-0,490000	2020-10-29T19:23:35:861
-0,210000	0,630000	-0,140000	2020-10-29T19:23:35:872
0,350000	1,400000	-0,070000	2020-10-29T19:23:35:873
-0,210000	1,820000	-0,490000	2020-10-29T19:23:35:877
1,190000	1,750000	-0,560000	2020-10-29T19:23:35:893
2,240000	1,680000	-0,560000	2020-10-29T19:23:35:922
6,930000	1,400000	-3,290000	2020-10-29T19:23:35:922
-17,570000	-2,520000	-6,020000	2020-10-29T19:23:36:005
-7,630000	-1,540000	1,050000	2020-10-29T19:23:36:013
-7,560000	-2,660000	5,320000	2020-10-29T19:23:36:015
-4,340000	-2,380000	10,220000	2020-10-29T19:23:36:015
-1,750000	-1,190000	9,800000	2020-10-29T19:23:36:016
-1,190000	1,470000	8,680000	2020-10-29T19:23:36:018
-2,800000	0,490000	10,290000	2020-10-29T19:23:36:021
-8,680000	-3,290000	9,170000	2020-10-29T19:23:36:079
-17,710001	-4,270000	12,950000	2020-10-29T19:23:36:079
-13,160000	-4,480000	10,780000	2020-10-29T19:23:36:080
-10,500000	-6,300000	8,540000	2020-10-29T19:23:36:081
0,210000	-4,970000	4,410000	2020-10-29T19:23:36:099
11,340000	-3,150000	1,890000	2020-10-29T19:23:36:099
8,050000	-2,730000	4,620000	2020-10-29T19:23:36:104
7,140000	-0,910000	6,720000	2020-10-29T19:23:36:106
14,980000	-4,060000	8,540000	2020-10-29T19:23:36:110
13,300000	-4,760000	8,330000	2020-10-29T19:23:36:111
10,010000	-4,760000	9,030000	2020-10-29T19:23:36:115
7,630000	-1,750000	5,460000	2020-10-29T19:23:36:119
2,170000	1,540000	2,730000	2020-10-29T19:23:36:120
-2,240000	3,150000	0,700000	2020-10-29T19:23:36:121
-0,980000	1,610000	-1,540000	2020-10-29T19:23:36:124
12,460000	3,640000	-6,650000	2020-10-29T19:23:36:133
15,610000	8,190000	-16,799999	2020-10-29T19:23:36:133
12,390000	11,620000	-19,600000	2020-10-29T19:23:36:134
5,950000	10,920000	-18,830000	2020-10-29T19:23:36:134
0,350000	7,350000	-15,190001	2020-10-29T19:23:36:161
-0,700000	3,500000	-8,400000	2020-10-29T19:23:36:174
0,280000	3,780000	-5,040000	2020-10-29T19:23:36:187
0,070000	4,830000	-3,920000	2020-10-29T19:23:36:211
1,050000	5,390000	-3,640000	2020-10-29T19:23:36:230
0,140000	5,250000	-3,990000	2020-10-29T19:23:36:262
0,630000	4,690000	-3,500000	2020-10-29T19:23:36:272
1,470000	3,780000	-2,730000	2020-10-29T19:23:36:302
-2,940000	1,890000	-2,380000	2020-10-29T19:23:36:327
-4,620000	1,330000	-1,680000	2020-10-29T19:23:36:335
-6,300000	0,560000	-1,120000	2020-10-29T19:23:36:348
-7,980000	0,210000	-0,770000	2020-10-29T19:23:36:374
-2,030000	0,210000	-0,910000	2020-10-29T19:23:36:389
-0,700000	0,280000	-1,540000	2020-10-29T19:23:36:413
0,280000	0,840000	-1,890000	2020-10-29T19:23:36:430
1,470000	0,840000	-1,540000	2020-10-29T19:23:36:460
-1,820000	1,050000	-1,050000	2020-10-29T19:23:36:471
-0,490000	1,330000	-0,490000	2020-10-29T19:23:36:494
-0,140000	0,700000	-0,700000	2020-10-29T19:23:36:518
-1,540000	0,350000	-0,840000	2020-10-29T19:23:36:538
-3,080000	0,770000	-0,980000	2020-10-29T19:23:36:547
-3,010000	0,770000	-0,910000	2020-10-29T19:23:36:571
-1,050000	1,260000	-1,400000	2020-10-29T19:23:36:594
-0,280000	1,120000	-1,260000	2020-10-29T19:23:36:614
2,590000	1,470000	-0,700000	2020-10-29T19:23:36:630
1,540000	0,980000	-0,490000	2020-10-29T19:23:36:658
-1,330000	1,190000	-0,210000	2020-10-29T19:23:36:668
-1,050000	0,980000	-0,420000	2020-10-29T19:23:36:695
1,610000	0,840000	-0,910000	2020-10-29T19:23:36:708
0,070000	0,980000	-1,260000	2020-10-29T19:23:36:732
1,610000	1,400000	-0,770000	2020-10-29T19:23:36:749
2,520000	1,330000	-0,560000	2020-10-29T19:23:36:772
0,980000	1,120000	-0,280000	2020-10-29T19:23:36:794
-0,140000	1,330000	0,210000	2020-10-29T19:23:36:812
0,840000	1,190000	-0,210000	2020-10-29T19:23:36:830
1,750000	0,840000	-0,350000	2020-10-29T19:23:36:855
0,770000	0,490000	-0,350000	2020-10-29T19:23:36:869
0,420000	1,050000	-0,210000	2020-10-29T19:23:36:891
-0,210000	1,120000	-0,140000	2020-10-29T19:23:36:919
-1,890000	1,470000	0,700000	2020-10-29T19:23:36:934
-4,130000	1,610000	0,910000	2020-10-29T19:23:36:951
-5,250000	1,050000	1,330000	2020-10-29T19:23:36:974
-5,600000	-0,280000	0,700000	2020-10-29T19:23:36:988
-3,920000	0,630000	0,560000	2020-10-29T19:23:37:013
-6,580000	0,490000	0,980000	2020-10-29T19:23:37:028
-3,290000	4,480000	-1,400000	2020-10-29T19:23:37:051
-7,840000	1,050000	-0,210000	2020-10-29T19:23:37:068
-5,250000	4,060000	-0,910000	2020-10-29T19:23:37:098
-3,500000	1,190000	-1,680000	2020-10-29T19:23:37:108
-3,360000	1,190000	0,140000	2020-10-29T19:23:37:131
-4,620000	1,330000	1,330000	2020-10-29T19:23:37:148
-4,620000	1,470000	0,560000	2020-10-29T19:23:37:172
3,150000	1,050000	-1,540000	2020-10-29T19:23:37:188
0,980000	1,190000	-1,750000	2020-10-29T19:23:37:213
2,800000	1,610000	-0,350000	2020-10-29T19:23:37:230
4,060000	1,750000	1,120000	2020-10-29T19:23:37:253
2,520000	2,100000	2,380000	2020-10-29T19:23:37:268
2,240000	1,890000	2,450000	2020-10-29T19:23:37:291
3,430000	1,540000	1,470000	2020-10-29T19:23:37:308
2,730000	1,750000	1,470000	2020-10-29T19:23:37:332
0,140000	1,470000	2,310000	2020-10-29T19:23:37:348
3,360000	2,030000	3,710000	2020-10-29T19:23:37:372
1,400000	1,610000	2,800000	2020-10-29T19:23:37:389
3,990000	2,030000	4,130000	2020-10-29T19:23:37:412
6,860000	3,150000	5,950000	2020-10-29T19:23:37:429
8,960000	3,220000	5,740000	2020-10-29T19:23:37:452
5,460000	2,870000	2,730000	2020-10-29T19:23:37:469
-5,320000	0,070000	3,780000	2020-10-29T19:23:37:493
-2,660000	0,980000	2,870000	2020-10-29T19:23:37:515
-5,810000	1,680000	0,490000	2020-10-29T19:23:37:532
0,910000	1,960000	-0,280000	2020-10-29T19:23:37:549
8,750000	1,680000	-1,050000	2020-10-29T19:23:37:573
10,710000	1,400000	-4,550000	2020-10-29T19:23:37:600
-0,210000	1,190000	-6,160000	2020-10-29T19:23:37:641
-6,160000	0,770000	-3,220000	2020-10-29T19:23:37:654
-6,790000	1,120000	-0,490000	2020-10-29T19:23:37:720
-2,240000	1,610000	1,400000	2020-10-29T19:23:37:723
-0,490000	1,540000	0,280000	2020-10-29T19:23:37:736
0,910000	1,470000	-0,560000	2020-10-29T19:23:37:736
0,910000	1,330000	-1,330000	2020-10-29T19:23:37:740
-2,590000	1,190000	-1,540000	2020-10-29T19:23:37:754
-2,940000	1,120000	-1,330000	2020-10-29T19:23:37:786
-1,610000	1,190000	-1,050000	2020-10-29T19:23:37:790
-1,540000	1,190000	-0,700000	2020-10-29T19:23:37:814
-1,400000	1,260000	-0,490000	2020-10-29T19:23:37:832
-1,820000	1,050000	-0,420000	2020-10-29T19:23:37:852
-1,400000	1,330000	-0,420000	2020-10-29T19:23:37:870
-3,290000	0,910000	-0,910000	2020-10-29T19:23:37:892
-2,940000	0,770000	-0,700000	2020-10-29T19:23:37:910
-2,940000	0,910000	-0,770000	2020-10-29T19:23:37:933
0,700000	1,190000	-0,210000	2020-10-29T19:23:37:950
1,750000	1,400000	-0,210000	2020-10-29T19:23:37:974
1,890000	1,120000	-1,330000	2020-10-29T19:23:37:990
0,700000	0,910000	-3,220000	2020-10-29T19:23:38:015
-3,850000	-1,680000	-8,050000	2020-10-29T19:23:38:066
-0,420000	1,540000	-2,240000	2020-10-29T19:23:38:067
-1,750000	0,980000	-1,120000	2020-10-29T19:23:38:079
-0,560000	1,120000	-0,280000	2020-10-29T19:23:38:139
-0,420000	0,980000	-0,700000	2020-10-29T19:23:38:140
0,490000	1,120000	-0,700000	2020-10-29T19:23:38:159
0,980000	1,190000	-0,700000	2020-10-29T19:23:38:159
-0,280000	1,330000	-0,490000	2020-10-29T19:23:38:172
-1,470000	1,260000	-0,420000	2020-10-29T19:23:38:190
-1,050000	1,120000	-0,560000	2020-10-29T19:23:38:214
-1,470000	1,820000	3,290000	2020-10-29T19:23:38:232
-4,410000	0,140000	-0,770000	2020-10-29T19:23:38:255
2,660000	1,400000	0,630000	2020-10-29T19:23:38:272
3,220000	1,120000	2,380000	2020-10-29T19:23:38:296
0,070000	1,680000	4,480000	2020-10-29T19:23:38:312
0,490000	1,610000	2,590000	2020-10-29T19:23:38:334
0,840000	1,610000	1,610000	2020-10-29T19:23:38:352
0,210000	1,260000	1,400000	2020-10-29T19:23:38:376
-1,050000	1,260000	1,750000	2020-10-29T19:23:38:392
-3,010000	1,260000	1,890000	2020-10-29T19:23:38:414
-2,940000	1,260000	1,610000	2020-10-29T19:23:38:432
0,140000	1,190000	0,840000	2020-10-29T19:23:38:456
0,910000	1,330000	0,630000	2020-10-29T19:23:38:472
-0,630000	1,400000	0,630000	2020-10-29T19:23:38:494
-1,260000	0,840000	-0,140000	2020-10-29T19:23:38:512
1,330000	1,400000	-0,910000	2020-10-29T19:23:38:536
2,240000	1,120000	-1,050000	2020-10-29T19:23:38:552
2,100000	1,120000	-0,910000	2020-10-29T19:23:38:575
-1,400000	0,910000	0,210000	2020-10-29T19:23:38:591
-2,940000	1,540000	0,840000	2020-10-29T19:23:38:614
-5,530000	1,260000	0,560000	2020-10-29T19:23:38:631
-0,840000	1,260000	0,560000	2020-10-29T19:23:38:654
0,350000	1,470000	-0,420000	2020-10-29T19:23:38:670
-3,080000	1,330000	-0,350000	2020-10-29T19:23:38:706
-4,970000	0,770000	-0,210000	2020-10-29T19:23:38:711
-0,280000	1,330000	-1,330000	2020-10-29T19:23:38:738
-2,170000	0,910000	-1,400000	2020-10-29T19:23:38:755
-3,430000	0,630000	-0,840000	2020-10-29T19:23:38:806
-2,100000	1,120000	-0,700000	2020-10-29T19:23:38:807
-1,610000	1,190000	-1,470000	2020-10-29T19:23:38:815
-1,120000	1,190000	-1,750000	2020-10-29T19:23:38:833
-1,820000	1,330000	-0,770000	2020-10-29T19:23:38:856
-2,870000	1,190000	-0,490000	2020-10-29T19:23:38:871
-3,360000	0,840000	-0,700000	2020-10-29T19:23:38:899
-1,540000	1,050000	-0,840000	2020-10-29T19:23:38:917
-0,070000	1,260000	-0,980000	2020-10-29T19:23:38:939
0,490000	1,260000	-0,770000	2020-10-29T19:23:38:953
-0,490000	1,260000	-0,280000	2020-10-29T19:23:38:974
-1,120000	1,120000	-0,280000	2020-10-29T19:23:38:992
-2,240000	1,120000	-0,280000	2020-10-29T19:23:39:023
-2,310000	1,190000	0,280000	2020-10-29T19:23:39:041
-1,680000	1,400000	-0,140000	2020-10-29T19:23:39:060
-1,610000	1,400000	-0,490000	2020-10-29T19:23:39:072
-3,080000	1,330000	-0,490000	2020-10-29T19:23:39:098
-3,010000	1,120000	-0,770000	2020-10-29T19:23:39:113
-2,450000	1,050000	-0,980000	2020-10-29T19:23:39:135
-1,120000	1,330000	-0,420000	2020-10-29T19:23:39:152
-0,980000	1,540000	-0,140000	2020-10-29T19:23:39:178
-0,280000	1,470000	-0,280000	2020-10-29T19:23:39:193
-1,190000	1,190000	-0,840000	2020-10-29T19:23:39:216
-2,170000	1,260000	-1,120000	2020-10-29T19:23:39:233
-2,310000	1,120000	-1,120000	2020-10-29T19:23:39:255
-1,680000	1,400000	-1,190000	2020-10-29T19:23:39:272
-0,770000	1,540000	-1,120000	2020-10-29T19:23:39:295
-0,840000	1,330000	-1,260000	2020-10-29T19:23:39:313
-1,890000	0,910000	-3,080000	2020-10-29T19:23:39:337
-1,820000	0,560000	-3,990000	2020-10-29T19:23:39:353
-0,420000	0,910000	-3,640000	2020-10-29T19:23:39:375
-0,840000	0,980000	-4,200000	2020-10-29T19:23:39:393
-0,560000	0,980000	-3,780000	2020-10-29T19:23:39:417
-2,170000	0,840000	-2,940000	2020-10-29T19:23:39:433
-4,270000	0,560000	-4,060000	2020-10-29T19:23:39:455
-4,130000	0,490000	-5,250000	2020-10-29T19:23:39:473
-4,130000	1,260000	-3,920000	2020-10-29T19:23:39:497
-0,140000	1,610000	-2,870000	2020-10-29T19:23:39:523
-1,050000	1,400000	-2,170000	2020-10-29T19:23:39:536
-2,800000	1,120000	-2,730000	2020-10-29T19:23:39:553
-4,900000	8,750000	-3,710000	2020-10-29T19:23:39:576
-7,910000	0,420000	-2,100000	2020-10-29T19:23:39:592
-4,900000	1,820000	-1,050000	2020-10-29T19:23:39:623
1,890000	2,730000	-1,330000	2020-10-29T19:23:39:634
1,260000	2,170000	0,770000	2020-10-29T19:23:39:655
1,750000	0,770000	2,450000	2020-10-29T19:23:39:672
-0,770000	-1,750000	3,360000	2020-10-29T19:23:39:694
-1,750000	0,350000	1,400000	2020-10-29T19:23:39:712
-4,200000	1,260000	-0,140000	2020-10-29T19:23:39:739
-4,270000	0,980000	0,350000	2020-10-29T19:23:39:752
-2,100000	1,050000	1,120000	2020-10-29T19:23:39:776
