x	y	z	ts
0,797650	0,830570	9,738804	2020-10-29T19:20:28:567
0,913579	0,685184	9,739932	2020-10-29T19:20:28:568
0,120605	0,276710	9,802003	2020-10-29T19:20:28:569
0,911950	0,343493	9,758112	2020-10-29T19:20:28:570
1,892692	0,319646	9,616961	2020-10-29T19:20:28:570
1,996355	0,311580	9,596243	2020-10-29T19:20:28:570
2,060293	0,305288	9,582921	2020-10-29T19:20:28:587
2,136858	0,301603	9,566257	2020-10-29T19:20:28:610
2,201653	0,293457	9,551805	2020-10-29T19:20:28:628
2,340384	0,273645	9,519354	2020-10-29T19:20:28:649
2,450580	0,250605	9,492220	2020-10-29T19:20:28:667
0,819902	0,023765	9,772286	2020-10-29T19:20:28:690
2,856669	-0,159054	9,380007	2020-10-29T19:20:28:707
0,819007	0,026654	9,772354	2020-10-29T19:20:28:733
5,567473	-0,044042	8,072899	2020-10-29T19:20:28:747
5,530396	-0,057242	8,098261	2020-10-29T19:20:28:769
5,562215	-0,044965	8,076516	2020-10-29T19:20:28:788
5,529371	-0,034425	8,099090	2020-10-29T19:20:28:810
5,182902	-0,009561	8,325131	2020-10-29T19:20:28:828
0,803891	0,114148	9,772979	2020-10-29T19:20:28:850
1,664154	0,162705	9,663049	2020-10-29T19:20:28:868
1,720101	0,171359	9,653096	2020-10-29T19:20:28:890
1,947014	0,171974	9,609888	2020-10-29T19:20:28:908
2,237539	0,178512	9,546305	2020-10-29T19:20:28:930
2,749832	0,167789	9,411730	2020-10-29T19:20:28:947
0,819108	-1,073545	9,713236	2020-10-29T19:20:28:971
0,813237	-2,036087	9,558419	2020-10-29T19:20:28:988
0,793334	-2,008618	9,565901	2020-10-29T19:20:29:010
0,780391	-1,976710	9,573609	2020-10-29T19:20:29:028
0,783434	-1,995459	9,569470	2020-10-29T19:20:29:050
0,801251	-2,010819	9,564778	2020-10-29T19:20:29:068
0,813632	-2,091127	9,546495	2020-10-29T19:20:29:090
0,803212	-2,173954	9,528859	2020-10-29T19:20:29:108
0,774472	-2,153055	9,535981	2020-10-29T19:20:29:130
0,760585	-2,128772	9,542548	2020-10-29T19:20:29:148
0,751513	-2,129987	9,542995	2020-10-29T19:20:29:170
0,729498	-2,116198	9,547771	2020-10-29T19:20:29:188
0,695436	-2,145765	9,543713	2020-10-29T19:20:29:210
0,654866	-2,127890	9,550582	2020-10-29T19:20:29:228
0,625313	-2,110757	9,556363	2020-10-29T19:20:29:250
0,601035	-2,139781	9,551465	2020-10-29T19:20:29:268
0,574625	-2,151235	9,550517	2020-10-29T19:20:29:290
0,541278	-2,121578	9,559095	2020-10-29T19:20:29:308
0,511806	-2,085912	9,568563	2020-10-29T19:20:29:330
0,485946	-2,041482	9,579488	2020-10-29T19:20:29:348
0,471678	-2,017666	9,585245	2020-10-29T19:20:29:370
0,454369	-1,996466	9,590519	2020-10-29T19:20:29:388
0,445954	-1,979177	9,594497	2020-10-29T19:20:29:410
0,438626	-1,943706	9,602083	2020-10-29T19:20:29:428
0,425631	-1,896407	9,612121	2020-10-29T19:20:29:451
0,413739	-1,856628	9,620402	2020-10-29T19:20:29:468
0,398506	-1,820100	9,628022	2020-10-29T19:20:29:490
0,391726	-1,796175	9,632792	2020-10-29T19:20:29:509
0,378063	-1,774276	9,637396	2020-10-29T19:20:29:531
0,375192	-1,775055	9,637364	2020-10-29T19:20:29:548
0,369747	-1,745548	9,642962	2020-10-29T19:20:29:570
0,363316	-1,715774	9,648549	2020-10-29T19:20:29:588
0,356938	-1,712538	9,649363	2020-10-29T19:20:29:610
0,423704	-1,644262	9,658533	2020-10-29T19:20:29:630
0,374197	-1,679311	9,654547	2020-10-29T19:20:29:653
0,379589	-1,692479	9,652037	2020-10-29T19:20:29:674
0,376838	-1,696893	9,651369	2020-10-29T19:20:29:696
0,373932	-1,701140	9,650735	2020-10-29T19:20:29:711
0,372001	-1,707131	9,649752	2020-10-29T19:20:29:733
0,373773	-1,713117	9,648623	2020-10-29T19:20:29:752
0,381202	-1,719257	9,647240	2020-10-29T19:20:29:772
0,383941	-1,725598	9,645998	2020-10-29T19:20:29:791
0,383845	-1,735666	9,644196	2020-10-29T19:20:29:813
0,386360	-1,744313	9,642535	2020-10-29T19:20:29:831
0,389776	-1,750290	9,641315	2020-10-29T19:20:29:852
0,395296	-1,749280	9,641273	2020-10-29T19:20:29:870
0,404294	-1,759081	9,639116	2020-10-29T19:20:29:893
0,409303	-1,779949	9,635073	2020-10-29T19:20:29:910
0,406319	-1,790401	9,633263	2020-10-29T19:20:29:934
0,399723	-1,795925	9,632510	2020-10-29T19:20:29:951
0,394505	-1,804549	9,631114	2020-10-29T19:20:29:973
0,394511	-1,815557	9,629045	2020-10-29T19:20:29:991
0,462943	-2,116651	9,564301	2020-10-29T19:20:30:014
0,436515	-2,108992	9,567235	2020-10-29T19:20:30:031
0,430554	-2,092483	9,571130	2020-10-29T19:20:30:053
0,418641	-2,080668	9,574233	2020-10-29T19:20:30:071
0,345842	-1,893667	9,615862	2020-10-29T19:20:30:094
0,350820	-1,981906	9,597883	2020-10-29T19:20:30:111
0,348712	-2,155236	9,560531	2020-10-29T19:20:30:134
0,343055	-2,036232	9,586785	2020-10-29T19:20:30:150
0,437618	-1,826262	9,625156	2020-10-29T19:20:30:175
0,366292	-1,876297	9,618509	2020-10-29T19:20:30:191
0,368243	-1,902185	9,613349	2020-10-29T19:20:30:214
0,354318	-1,979652	9,598220	2020-10-29T19:20:30:231
0,353943	-1,983159	9,597509	2020-10-29T19:20:30:253
0,353072	-1,984613	9,597241	2020-10-29T19:20:30:271
0,407182	-1,994705	9,593004	2020-10-29T19:20:30:294
0,326775	-2,018821	9,591036	2020-10-29T19:20:30:311
0,318482	-2,014143	9,592299	2020-10-29T19:20:30:333
0,310609	-2,019350	9,591461	2020-10-29T19:20:30:351
0,302665	-2,037228	9,587934	2020-10-29T19:20:30:374
0,290586	-2,059364	9,583578	2020-10-29T19:20:30:391
0,346159	-2,374701	9,508489	2020-10-29T19:20:30:415
0,235685	-2,420800	9,500240	2020-10-29T19:20:30:432
0,225341	-2,419221	9,500894	2020-10-29T19:20:30:471
0,213197	-2,431517	9,498034	2020-10-29T19:20:30:472
0,222226	-2,415182	9,501994	2020-10-29T19:20:30:494
0,172707	-2,863565	9,377663	2020-10-29T19:20:30:512
0,172597	-2,909369	9,363555	2020-10-29T19:20:30:534
0,172722	-2,939070	9,354273	2020-10-29T19:20:30:552
0,161218	-2,550175	9,467893	2020-10-29T19:20:30:575
0,084465	-2,854445	9,381652	2020-10-29T19:20:30:591
0,175936	-3,231916	9,257113	2020-10-29T19:20:30:615
0,146630	-3,714211	9,074883	2020-10-29T19:20:30:632
0,137811	-3,701931	9,080039	2020-10-29T19:20:30:657
0,138627	-3,720467	9,072447	2020-10-29T19:20:30:671
0,147268	-3,864600	9,011857	2020-10-29T19:20:30:694
0,148575	-3,582385	9,127696	2020-10-29T19:20:30:712
0,152134	-3,565139	9,134387	2020-10-29T19:20:30:735
0,150087	-3,492496	9,162441	2020-10-29T19:20:30:752
0,153561	-3,505359	9,157470	2020-10-29T19:20:30:775
0,190585	-3,563697	9,134229	2020-10-29T19:20:30:791
0,186843	-3,537462	9,144498	2020-10-29T19:20:30:831
0,183456	-3,504033	9,157428	2020-10-29T19:20:30:833
0,179033	-3,466325	9,171855	2020-10-29T19:20:30:854
0,178873	-3,451809	9,177331	2020-10-29T19:20:30:871
0,177884	-3,453981	9,176533	2020-10-29T19:20:30:895
0,178455	-3,472090	9,169685	2020-10-29T19:20:30:912
0,176996	-3,482638	9,165713	2020-10-29T19:20:30:934
0,180879	-3,492044	9,162057	2020-10-29T19:20:30:951
0,184378	-3,457089	9,175235	2020-10-29T19:20:30:975
0,241536	-3,601051	9,118360	2020-10-29T19:20:30:992
0,239558	-3,728871	9,066892	2020-10-29T19:20:31:015
0,252504	-3,874059	9,005459	2020-10-29T19:20:31:032
0,253215	-3,865187	9,009251	2020-10-29T19:20:31:054
0,254989	-3,844620	9,017997	2020-10-29T19:20:31:072
0,262704	-3,801585	9,036001	2020-10-29T19:20:31:094
0,264281	-3,764408	9,051507	2020-10-29T19:20:31:112
0,267904	-3,745134	9,059392	2020-10-29T19:20:31:136
0,269657	-3,743213	9,060134	2020-10-29T19:20:31:152
0,272852	-3,737660	9,062330	2020-10-29T19:20:31:174
0,274095	-3,707884	9,074517	2020-10-29T19:20:31:192
0,267156	-3,659994	9,094144	2020-10-29T19:20:31:215
0,255409	-3,607945	9,115255	2020-10-29T19:20:31:232
0,243866	-3,572022	9,129708	2020-10-29T19:20:31:255
0,233441	-3,540162	9,142382	2020-10-29T19:20:31:272
0,223384	-3,519638	9,150554	2020-10-29T19:20:31:295
0,220064	-3,507025	9,155476	2020-10-29T19:20:31:312
0,220291	-3,500961	9,157791	2020-10-29T19:20:31:335
0,224597	-3,484981	9,163779	2020-10-29T19:20:31:352
0,226514	-3,470097	9,169378	2020-10-29T19:20:31:376
0,228058	-3,455393	9,174891	2020-10-29T19:20:31:392
0,227332	-3,454509	9,175242	2020-10-29T19:20:31:414
0,229594	-3,456891	9,174289	2020-10-29T19:20:31:432
0,232323	-3,442801	9,179517	2020-10-29T19:20:31:455
0,234390	-3,402292	9,194556	2020-10-29T19:20:31:472
0,230862	-3,355998	9,211643	2020-10-29T19:20:31:495
0,223471	-3,317189	9,225871	2020-10-29T19:20:31:512
0,273126	-3,634489	9,104190	2020-10-29T19:20:31:537
0,222121	-3,449948	9,177086	2020-10-29T19:20:31:552
0,216191	-3,425228	9,186482	2020-10-29T19:20:31:575
0,210076	-3,403402	9,194733	2020-10-29T19:20:31:592
0,205743	-3,388570	9,200307	2020-10-29T19:20:31:616
0,207104	-3,388605	9,200264	2020-10-29T19:20:31:633
0,213771	-3,400254	9,195812	2020-10-29T19:20:31:655
0,218951	-3,406570	9,193352	2020-10-29T19:20:31:672
0,221683	-3,400766	9,195436	2020-10-29T19:20:31:695
0,224258	-3,396479	9,196958	2020-10-29T19:20:31:713
0,221880	-3,373027	9,205642	2020-10-29T19:20:31:737
0,218683	-3,349441	9,214326	2020-10-29T19:20:31:753
0,163817	-3,481116	9,166536	2020-10-29T19:20:31:776
0,170192	-3,287944	9,237470	2020-10-29T19:20:31:793
0,171794	-3,272503	9,242921	2020-10-29T19:20:31:816
0,171155	-3,260732	9,247092	2020-10-29T19:20:31:833
0,166923	-3,244224	9,252975	2020-10-29T19:20:31:857
0,167502	-3,239136	9,254746	2020-10-29T19:20:31:873
0,166794	-3,228117	9,258608	2020-10-29T19:20:31:895
0,169539	-3,223807	9,260059	2020-10-29T19:20:31:913
0,172765	-3,221942	9,260650	2020-10-29T19:20:31:936
0,171411	-3,212558	9,263934	2020-10-29T19:20:31:952
0,171224	-3,207451	9,265707	2020-10-29T19:20:31:976
0,170181	-3,202488	9,267443	2020-10-29T19:20:31:993
0,258432	-3,412751	9,190034	2020-10-29T19:20:32:016
0,232844	-3,378014	9,203543	2020-10-29T19:20:32:033
0,238554	-3,559029	9,134921	2020-10-29T19:20:32:056
0,222993	-3,349684	9,214134	2020-10-29T19:20:32:073
0,233769	-3,429421	9,184487	2020-10-29T19:20:32:098
0,236339	-3,335889	9,218805	2020-10-29T19:20:32:113
0,235375	-3,330461	9,220793	2020-10-29T19:20:32:136
0,235741	-3,323681	9,223229	2020-10-29T19:20:32:153
0,235371	-3,320465	9,224397	2020-10-29T19:20:32:176
0,232670	-3,315384	9,226293	2020-10-29T19:20:32:193
0,250678	-3,475743	9,166611	2020-10-29T19:20:32:216
0,196597	-3,350395	9,214477	2020-10-29T19:20:32:233
0,195835	-3,338426	9,218837	2020-10-29T19:20:32:256
0,194482	-3,321683	9,224911	2020-10-29T19:20:32:273
0,197230	-3,312987	9,227980	2020-10-29T19:20:32:296
0,197460	-3,303811	9,231263	2020-10-29T19:20:32:313
0,201242	-3,300006	9,232543	2020-10-29T19:20:32:337
0,198794	-3,295780	9,234105	2020-10-29T19:20:32:353
0,200550	-3,291596	9,235559	2020-10-29T19:20:32:376
0,200449	-3,283684	9,238378	2020-10-29T19:20:32:393
0,197859	-3,271226	9,242852	2020-10-29T19:20:32:416
0,198956	-3,260102	9,246758	2020-10-29T19:20:32:434
0,199925	-3,252842	9,249293	2020-10-29T19:20:32:456
0,203586	-3,251392	9,249723	2020-10-29T19:20:32:473
0,206210	-3,244038	9,252248	2020-10-29T19:20:32:496
0,200658	-3,233509	9,256054	2020-10-29T19:20:32:513
0,203032	-3,231522	9,256697	2020-10-29T19:20:32:537
0,204679	-3,231860	9,256542	2020-10-29T19:20:32:553
0,204553	-3,224589	9,259080	2020-10-29T19:20:32:579
0,204326	-3,215918	9,262100	2020-10-29T19:20:32:593
0,205947	-3,208326	9,264697	2020-10-29T19:20:32:616
0,201722	-3,198286	9,268261	2020-10-29T19:20:32:634
0,200248	-3,192085	9,270431	2020-10-29T19:20:32:656
0,202512	-3,190621	9,270885	2020-10-29T19:20:32:673
0,201603	-3,183959	9,273195	2020-10-29T19:20:32:696
0,199313	-3,173678	9,276768	2020-10-29T19:20:32:713
0,199989	-3,168261	9,278605	2020-10-29T19:20:32:737
0,201019	-3,162183	9,280656	2020-10-29T19:20:32:754
0,196815	-3,150477	9,284726	2020-10-29T19:20:32:777
0,197790	-3,148203	9,285477	2020-10-29T19:20:32:794
0,299479	-3,277357	9,237945	2020-10-29T19:20:32:819
0,262069	-3,165974	9,277840	2020-10-29T19:20:32:834
0,258649	-3,158840	9,280367	2020-10-29T19:20:32:856
0,255081	-3,155920	9,281459	2020-10-29T19:20:32:874
0,254046	-3,156874	9,281163	2020-10-29T19:20:32:897
0,255434	-3,162361	9,279257	2020-10-29T19:20:32:913
0,257170	-3,162133	9,279286	2020-10-29T19:20:32:937
0,256483	-3,155366	9,281610	2020-10-29T19:20:32:953
0,256789	-3,150046	9,283407	2020-10-29T19:20:32:977
0,255906	-3,151751	9,282853	2020-10-29T19:20:32:994
0,256240	-3,156578	9,281203	2020-10-29T19:20:33:017
0,252078	-3,155628	9,281641	2020-10-29T19:20:33:033
0,250005	-3,148967	9,283958	2020-10-29T19:20:33:058
0,248171	-3,144353	9,285572	2020-10-29T19:20:33:073
0,244503	-3,137344	9,288039	2020-10-29T19:20:33:097
0,246922	-3,140757	9,286822	2020-10-29T19:20:33:113
0,245630	-3,144280	9,285664	2020-10-29T19:20:33:137
0,245519	-3,140652	9,286895	2020-10-29T19:20:33:154
0,244993	-3,138241	9,287724	2020-10-29T19:20:33:177
0,244871	-3,135752	9,288568	2020-10-29T19:20:33:194
0,244751	-3,134888	9,288862	2020-10-29T19:20:33:217
0,246906	-3,134804	9,288834	2020-10-29T19:20:33:235
0,290187	-3,279113	9,237618	2020-10-29T19:20:33:258
0,264465	-3,208282	9,263227	2020-10-29T19:20:33:274
0,264194	-3,207741	9,263422	2020-10-29T19:20:33:298
0,265113	-3,203950	9,264708	2020-10-29T19:20:33:314
0,261844	-3,193166	9,268522	2020-10-29T19:20:33:337
0,261405	-3,186919	9,270685	2020-10-29T19:20:33:354
0,263586	-3,178823	9,273402	2020-10-29T19:20:33:377
0,262406	-3,173450	9,275275	2020-10-29T19:20:33:394
0,260025	-3,165513	9,278054	2020-10-29T19:20:33:417
0,260801	-3,162160	9,279176	2020-10-29T19:20:33:438
0,259749	-3,159937	9,279963	2020-10-29T19:20:33:457
0,263617	-3,155520	9,281357	2020-10-29T19:20:33:474
0,264394	-3,151455	9,282716	2020-10-29T19:20:33:498
0,262177	-3,146008	9,284626	2020-10-29T19:20:33:514
0,259158	-3,139007	9,287080	2020-10-29T19:20:33:539
0,255997	-3,129426	9,290401	2020-10-29T19:20:33:554
0,255066	-3,128848	9,290621	2020-10-29T19:20:33:577
0,257689	-3,130737	9,289912	2020-10-29T19:20:33:635
0,257437	-3,128470	9,290683	2020-10-29T19:20:33:635
0,256204	-3,122413	9,292754	2020-10-29T19:20:33:636
0,253140	-3,113566	9,295806	2020-10-29T19:20:33:688
0,248722	-3,105796	9,298524	2020-10-29T19:20:33:689
0,247696	-3,102349	9,299703	2020-10-29T19:20:33:698
0,247549	-3,102743	9,299575	2020-10-29T19:20:33:714
0,248107	-3,103409	9,299337	2020-10-29T19:20:33:738
0,246649	-3,098385	9,301051	2020-10-29T19:20:33:755
0,245841	-3,091408	9,303394	2020-10-29T19:20:33:778
0,246870	-3,087756	9,304580	2020-10-29T19:20:33:794
0,245415	-3,084376	9,305739	2020-10-29T19:20:33:818
0,246172	-3,084177	9,305785	2020-10-29T19:20:33:835
0,245050	-3,084555	9,305690	2020-10-29T19:20:33:858
0,244195	-3,084797	9,305632	2020-10-29T19:20:33:874
0,241055	-3,081773	9,306715	2020-10-29T19:20:33:898
0,241137	-3,078685	9,307735	2020-10-29T19:20:33:915
0,238330	-3,074915	9,309053	2020-10-29T19:20:33:938
0,239158	-3,074793	9,309072	2020-10-29T19:20:33:954
0,237627	-3,071582	9,310172	2020-10-29T19:20:33:979
0,240555	-3,072184	9,309898	2020-10-29T19:20:33:995
0,240732	-3,073106	9,309589	2020-10-29T19:20:34:019
0,240711	-3,072372	9,309832	2020-10-29T19:20:34:035
0,241104	-3,070670	9,310384	2020-10-29T19:20:34:058
0,243329	-3,067613	9,311333	2020-10-29T19:20:34:074
0,340057	-3,289627	9,232178	2020-10-29T19:20:34:099
0,324702	-3,231313	9,253301	2020-10-29T19:20:34:114
0,320413	-3,224485	9,255832	2020-10-29T19:20:34:139
0,315840	-3,216103	9,258904	2020-10-29T19:20:34:154
0,311871	-3,209964	9,261168	2020-10-29T19:20:34:178
0,309837	-3,201763	9,264075	2020-10-29T19:20:34:195
0,304897	-3,194768	9,266654	2020-10-29T19:20:34:219
0,301056	-3,195121	9,266658	2020-10-29T19:20:34:235
0,310710	-3,370006	9,204179	2020-10-29T19:20:34:270
0,298153	-3,256003	9,245536	2020-10-29T19:20:34:275
0,297147	-3,244591	9,249579	2020-10-29T19:20:34:299
0,295850	-3,236271	9,252535	2020-10-29T19:20:34:315
0,292547	-3,226988	9,255882	2020-10-29T19:20:34:338
0,290232	-3,219401	9,258596	2020-10-29T19:20:34:355
0,314323	-3,232688	9,253179	2020-10-29T19:20:34:379
0,273560	-3,144459	9,284822	2020-10-29T19:20:34:395
0,273591	-3,137092	9,287313	2020-10-29T19:20:34:419
0,273084	-3,129989	9,289724	2020-10-29T19:20:34:436
0,275067	-3,129114	9,289961	2020-10-29T19:20:34:459
0,273444	-3,129156	9,289994	2020-10-29T19:20:34:475
0,270604	-3,123328	9,292039	2020-10-29T19:20:34:499
0,268502	-3,114303	9,295128	2020-10-29T19:20:34:515
0,267025	-3,106276	9,297856	2020-10-29T19:20:34:539
0,266466	-3,107846	9,297347	2020-10-29T19:20:34:555
0,265883	-3,106615	9,297775	2020-10-29T19:20:34:578
0,266690	-3,104371	9,298502	2020-10-29T19:20:34:595
0,344918	-3,265868	9,240429	2020-10-29T19:20:34:620
0,309915	-3,188526	9,268638	2020-10-29T19:20:34:636
0,278004	-3,268354	9,241805	2020-10-29T19:20:34:658
0,257248	-3,194794	9,268090	2020-10-29T19:20:34:674
0,257875	-3,187525	9,270576	2020-10-29T19:20:34:698
0,260224	-3,181015	9,272746	2020-10-29T19:20:34:714
0,261463	-3,168826	9,276883	2020-10-29T19:20:34:739
0,260014	-3,161362	9,279470	2020-10-29T19:20:34:754
0,259233	-3,155906	9,281349	2020-10-29T19:20:34:778
0,256828	-3,148144	9,284052	2020-10-29T19:20:34:794
0,256014	-3,145321	9,285030	2020-10-29T19:20:34:818
0,256023	-3,142189	9,286091	2020-10-29T19:20:34:835
0,258608	-3,139965	9,286772	2020-10-29T19:20:34:858
0,253732	-3,131963	9,289608	2020-10-29T19:20:34:874
0,321499	-3,333439	9,217115	2020-10-29T19:20:34:898
0,290639	-3,238956	9,251760	2020-10-29T19:20:34:915
0,286897	-3,227708	9,255808	2020-10-29T19:20:34:939
0,290704	-3,218428	9,258920	2020-10-29T19:20:34:954
0,290147	-3,206446	9,263094	2020-10-29T19:20:34:979
0,288899	-3,192380	9,267989	2020-10-29T19:20:34:995
0,290604	-3,186574	9,269935	2020-10-29T19:20:35:018
0,291730	-3,179819	9,272218	2020-10-29T19:20:35:035
0,294620	-3,171910	9,274836	2020-10-29T19:20:35:058
0,292303	-3,160227	9,278895	2020-10-29T19:20:35:074
0,290321	-3,155104	9,280702	2020-10-29T19:20:35:099
0,287368	-3,146740	9,283632	2020-10-29T19:20:35:115
0,286572	-3,136283	9,287195	2020-10-29T19:20:35:138
0,285552	-3,128514	9,289846	2020-10-29T19:20:35:155
0,286419	-3,121753	9,292094	2020-10-29T19:20:35:179
0,287838	-3,118114	9,293272	2020-10-29T19:20:35:195
0,286265	-3,106582	9,297181	2020-10-29T19:20:35:219
0,286027	-3,099604	9,299518	2020-10-29T19:20:35:235
0,284657	-3,089778	9,302829	2020-10-29T19:20:35:258
0,285171	-3,086866	9,303780	2020-10-29T19:20:35:275
0,287218	-3,081414	9,305524	2020-10-29T19:20:35:298
0,286302	-3,075570	9,307486	2020-10-29T19:20:35:316
0,270944	-3,229557	9,255644	2020-10-29T19:20:35:340
0,260435	-3,106362	9,298015	2020-10-29T19:20:35:355
0,261010	-3,099801	9,300188	2020-10-29T19:20:35:378
0,262167	-3,096366	9,301299	2020-10-29T19:20:35:395
0,264023	-3,089095	9,303664	2020-10-29T19:20:35:422
0,265830	-3,085658	9,304753	2020-10-29T19:20:35:439
0,267701	-3,078905	9,306936	2020-10-29T19:20:35:483
0,267089	-3,075691	9,308017	2020-10-29T19:20:35:487
0,269337	-3,074004	9,308509	2020-10-29T19:20:35:499
0,265957	-3,066052	9,311229	2020-10-29T19:20:35:515
0,267235	-3,062695	9,312297	2020-10-29T19:20:35:538
0,268358	-3,055215	9,314721	2020-10-29T19:20:35:555
0,268524	-3,049494	9,316591	2020-10-29T19:20:35:579
0,268175	-3,045140	9,318025	2020-10-29T19:20:35:595
0,267439	-3,039212	9,319982	2020-10-29T19:20:35:618
0,266045	-3,037543	9,320565	2020-10-29T19:20:35:636
0,347823	-3,204770	9,261687	2020-10-29T19:20:35:660
0,324757	-3,080654	9,304542	2020-10-29T19:20:35:675
0,322652	-3,074139	9,306769	2020-10-29T19:20:35:699
0,322462	-3,073067	9,307130	2020-10-29T19:20:35:715
0,322246	-3,067806	9,308872	2020-10-29T19:20:35:740
0,319001	-3,062196	9,310831	2020-10-29T19:20:35:755
0,314783	-3,058522	9,312182	2020-10-29T19:20:35:779
0,308268	-3,049388	9,315395	2020-10-29T19:20:35:795
0,309001	-3,041767	9,317863	2020-10-29T19:20:35:819
0,303618	-3,034770	9,320320	2020-10-29T19:20:35:836
0,360202	-3,174582	9,271605	2020-10-29T19:20:35:859
0,326418	-3,109519	9,294876	2020-10-29T19:20:35:875
0,307288	-3,179344	9,271878	2020-10-29T19:20:35:900
0,299508	-3,081643	9,305060	2020-10-29T19:20:35:915
0,296510	-3,074629	9,307477	2020-10-29T19:20:35:940
0,294737	-3,067062	9,310029	2020-10-29T19:20:35:956
0,293091	-3,062661	9,311530	2020-10-29T19:20:35:979
0,293632	-3,058325	9,312938	2020-10-29T19:20:35:996
0,294751	-3,051090	9,315275	2020-10-29T19:20:36:019
0,294208	-3,048024	9,316297	2020-10-29T19:20:36:036
0,294158	-3,042701	9,318038	2020-10-29T19:20:36:060
0,290281	-3,035223	9,320598	2020-10-29T19:20:36:076
0,294459	-3,026686	9,323242	2020-10-29T19:20:36:099
0,292070	-3,018559	9,325953	2020-10-29T19:20:36:116
0,289273	-3,017303	9,326446	2020-10-29T19:20:36:140
0,293803	-3,025479	9,323655	2020-10-29T19:20:36:155
0,297027	-3,028728	9,322497	2020-10-29T19:20:36:180
0,298009	-3,025919	9,323379	2020-10-29T19:20:36:196
0,296398	-3,018083	9,325970	2020-10-29T19:20:36:219
0,291472	-3,012493	9,327931	2020-10-29T19:20:36:236
0,290004	-3,010805	9,328523	2020-10-29T19:20:36:259
0,289728	-3,009499	9,328953	2020-10-29T19:20:36:276
0,288658	-3,008895	9,329181	2020-10-29T19:20:36:300
0,288867	-3,011967	9,328182	2020-10-29T19:20:36:316
0,289472	-3,008852	9,329169	2020-10-29T19:20:36:339
0,290003	-3,005249	9,330315	2020-10-29T19:20:36:356
0,290625	-2,999292	9,332211	2020-10-29T19:20:36:379
0,291554	-2,995613	9,333364	2020-10-29T19:20:36:396
0,290882	-2,994263	9,333818	2020-10-29T19:20:36:420
0,290289	-2,998229	9,332563	2020-10-29T19:20:36:437
0,290549	-2,995975	9,333280	2020-10-29T19:20:36:460
0,289377	-2,987190	9,336131	2020-10-29T19:20:36:476
0,287837	-2,977745	9,339195	2020-10-29T19:20:36:500
0,288109	-2,980521	9,338301	2020-10-29T19:20:36:516
0,325362	-3,227110	9,254744	2020-10-29T19:20:36:541
0,274060	-3,110698	9,296173	2020-10-29T19:20:36:557
0,274677	-3,108115	9,297019	2020-10-29T19:20:36:579
0,275229	-3,103042	9,298697	2020-10-29T19:20:36:596
0,276597	-3,095816	9,301064	2020-10-29T19:20:36:620
0,277257	-3,087074	9,303950	2020-10-29T19:20:36:637
0,277495	-3,079505	9,306451	2020-10-29T19:20:36:660
0,275747	-3,067707	9,310399	2020-10-29T19:20:36:676
0,277886	-3,063205	9,311817	2020-10-29T19:20:36:700
0,275276	-3,053834	9,314972	2020-10-29T19:20:36:717
0,277477	-3,048974	9,316499	2020-10-29T19:20:36:740
0,281129	-3,050122	9,316013	2020-10-29T19:20:36:756
0,285699	-3,048245	9,316489	2020-10-29T19:20:36:780
0,285741	-3,045092	9,317518	2020-10-29T19:20:36:797
0,285909	-3,038931	9,319525	2020-10-29T19:20:36:819
0,286141	-3,036255	9,320390	2020-10-29T19:20:36:837
0,285562	-3,032975	9,321475	2020-10-29T19:20:36:860
0,285602	-3,030762	9,322194	2020-10-29T19:20:36:876
0,285353	-3,025609	9,323875	2020-10-29T19:20:36:900
0,285370	-3,022039	9,325032	2020-10-29T19:20:36:916
0,287334	-3,023721	9,324427	2020-10-29T19:20:36:941
0,288691	-3,018604	9,326043	2020-10-29T19:20:36:957
0,286666	-3,008666	9,329316	2020-10-29T19:20:36:980
0,285776	-3,005598	9,330332	2020-10-29T19:20:36:997
0,320570	-3,232209	9,253132	2020-10-29T19:20:37:021
0,318990	-3,162129	9,277369	2020-10-29T19:20:37:039
0,306111	-3,253937	9,246003	2020-10-29T19:20:37:060
0,303527	-3,136328	9,286641	2020-10-29T19:20:37:076
0,299664	-3,125435	9,290439	2020-10-29T19:20:37:100
0,298658	-3,114613	9,294105	2020-10-29T19:20:37:117
0,341272	-3,196421	9,264815	2020-10-29T19:20:37:143
0,307316	-3,080439	9,305204	2020-10-29T19:20:37:156
0,307647	-3,073620	9,307448	2020-10-29T19:20:37:180
0,309829	-3,072063	9,307890	2020-10-29T19:20:37:198
0,306772	-3,069756	9,308753	2020-10-29T19:20:37:220
0,300892	-3,061212	9,311757	2020-10-29T19:20:37:238
0,298454	-3,052296	9,314762	2020-10-29T19:20:37:261
0,294841	-3,044811	9,317327	2020-10-29T19:20:37:278
0,292438	-3,037905	9,319656	2020-10-29T19:20:37:300
0,291046	-3,037182	9,319936	2020-10-29T19:20:37:319
0,289044	-3,035595	9,320515	2020-10-29T19:20:37:341
0,289030	-3,030762	9,322088	2020-10-29T19:20:37:358
0,287606	-3,021405	9,325169	2020-10-29T19:20:37:381
0,284401	-3,014615	9,327465	2020-10-29T19:20:37:398
0,284159	-3,008716	9,329376	2020-10-29T19:20:37:421
0,281543	-3,005185	9,330594	2020-10-29T19:20:37:438
0,282991	-3,002849	9,331302	2020-10-29T19:20:37:460
0,284873	-3,000422	9,332026	2020-10-29T19:20:37:478
0,283096	-2,999663	9,332323	2020-10-29T19:20:37:501
0,283056	-3,001230	9,331821	2020-10-29T19:20:37:518
0,305764	-3,173202	9,274033	2020-10-29T19:20:37:541
0,282639	-3,060613	9,312527	2020-10-29T19:20:37:558
0,283473	-3,055792	9,314084	2020-10-29T19:20:37:581
0,283001	-3,052964	9,315025	2020-10-29T19:20:37:598
0,282911	-3,046377	9,317184	2020-10-29T19:20:37:621
0,279037	-3,039697	9,319483	2020-10-29T19:20:37:638
0,280429	-3,036253	9,320564	2020-10-29T19:20:37:661
0,278227	-3,034523	9,321194	2020-10-29T19:20:37:678
0,279684	-3,031606	9,322099	2020-10-29T19:20:37:701
0,277605	-3,030372	9,322562	2020-10-29T19:20:37:717
0,278002	-3,029891	9,322707	2020-10-29T19:20:37:742
0,276574	-3,020871	9,325676	2020-10-29T19:20:37:757
0,275694	-3,015619	9,327401	2020-10-29T19:20:37:780
0,278312	-3,015815	9,327260	2020-10-29T19:20:37:797
0,280767	-3,020898	9,325541	2020-10-29T19:20:37:821
0,276646	-3,019279	9,326189	2020-10-29T19:20:37:838
0,276128	-3,016854	9,326989	2020-10-29T19:20:37:861
0,273598	-3,012265	9,328547	2020-10-29T19:20:37:877
0,270575	-3,002300	9,331847	2020-10-29T19:20:37:901
0,266921	-2,999097	9,332982	2020-10-29T19:20:37:918
0,266756	-2,996061	9,333961	2020-10-29T19:20:37:941
0,266159	-2,996396	9,333872	2020-10-29T19:20:37:957
0,267464	-2,996275	9,333873	2020-10-29T19:20:37:981
0,265459	-2,994630	9,334458	2020-10-29T19:20:37:998
0,349759	-3,205324	9,261422	2020-10-29T19:20:38:021
0,337717	-3,115858	9,292350	2020-10-29T19:20:38:038
0,336947	-3,104789	9,296082	2020-10-29T19:20:38:062
0,338527	-3,097381	9,298495	2020-10-29T19:20:38:078
0,336363	-3,092821	9,300092	2020-10-29T19:20:38:101
0,336463	-3,089433	9,301214	2020-10-29T19:20:38:118
0,330501	-3,084009	9,303227	2020-10-29T19:20:38:142
0,326697	-3,077667	9,305462	2020-10-29T19:20:38:158
0,335694	-3,244246	9,248382	2020-10-29T19:20:38:181
0,313243	-3,171878	9,274236	2020-10-29T19:20:38:198
0,306474	-3,159646	9,278637	2020-10-29T19:20:38:221
0,303162	-3,148169	9,282645	2020-10-29T19:20:38:239
0,305629	-3,139485	9,285505	2020-10-29T19:20:38:261
0,302707	-3,131994	9,288131	2020-10-29T19:20:38:278
0,300566	-3,130890	9,288572	2020-10-29T19:20:38:302
0,296628	-3,120585	9,292166	2020-10-29T19:20:38:318
0,329333	-3,226022	9,254983	2020-10-29T19:20:38:343
0,289476	-3,158046	9,279727	2020-10-29T19:20:38:358
0,287563	-3,148566	9,283007	2020-10-29T19:20:38:381
0,285700	-3,140228	9,285889	2020-10-29T19:20:38:398
0,283994	-3,131473	9,288898	2020-10-29T19:20:38:421
0,283280	-3,129032	9,289742	2020-10-29T19:20:38:439
0,353364	-3,250461	9,245541	2020-10-29T19:20:38:462
0,345263	-3,146409	9,281772	2020-10-29T19:20:38:478
0,341435	-3,138173	9,284701	2020-10-29T19:20:38:502
0,340520	-3,132521	9,286643	2020-10-29T19:20:38:518
0,336422	-3,126842	9,288707	2020-10-29T19:20:38:542
0,334702	-3,126750	9,288799	2020-10-29T19:20:38:559
0,335955	-3,308796	9,225474	2020-10-29T19:20:38:584
0,290431	-3,205003	9,263584	2020-10-29T19:20:38:598
0,290478	-3,193321	9,267616	2020-10-29T19:20:38:623
0,287259	-3,179343	9,272521	2020-10-29T19:20:38:639
0,284939	-3,168535	9,276292	2020-10-29T19:20:38:661
0,282423	-3,160344	9,279162	2020-10-29T19:20:38:678
0,340196	-3,237896	9,250443	2020-10-29T19:20:38:702
0,334840	-3,179151	9,270990	2020-10-29T19:20:38:718
0,330386	-3,174701	9,272675	2020-10-29T19:20:38:742
0,326213	-3,171151	9,274037	2020-10-29T19:20:38:758
0,324484	-3,163863	9,276587	2020-10-29T19:20:38:782
0,319709	-3,154063	9,280089	2020-10-29T19:20:38:798
0,317841	-3,151581	9,280996	2020-10-29T19:20:38:823
0,317530	-3,152706	9,280625	2020-10-29T19:20:38:839
0,315545	-3,149578	9,281755	2020-10-29T19:20:38:863
0,311424	-3,141602	9,284596	2020-10-29T19:20:38:878
0,308199	-3,135946	9,286616	2020-10-29T19:20:38:902
0,301798	-3,126261	9,290092	2020-10-29T19:20:38:919
0,298668	-3,119007	9,292630	2020-10-29T19:20:38:942
0,294806	-3,113945	9,294451	2020-10-29T19:20:38:958
0,291199	-3,111304	9,295449	2020-10-29T19:20:38:981
0,290355	-3,112212	9,295172	2020-10-29T19:20:38:999
0,381748	-3,278685	9,234440	2020-10-29T19:20:39:023
0,329626	-3,214699	9,258911	2020-10-29T19:20:39:039
0,323302	-3,208323	9,261346	2020-10-29T19:20:39:062
0,319597	-3,197880	9,265085	2020-10-29T19:20:39:079
0,316037	-3,194541	9,266359	2020-10-29T19:20:39:102
0,311967	-3,184145	9,270075	2020-10-29T19:20:39:119
0,338318	-3,272018	9,238497	2020-10-29T19:20:39:143
0,297447	-3,197319	9,266016	2020-10-29T19:20:39:158
0,295631	-3,189474	9,268778	2020-10-29T19:20:39:182
0,291145	-3,185134	9,270412	2020-10-29T19:20:39:199
0,290620	-3,180684	9,271956	2020-10-29T19:20:39:221
0,289214	-3,172070	9,274951	2020-10-29T19:20:39:239
0,303947	-3,280698	9,236613	2020-10-29T19:20:39:263
0,282662	-3,165591	9,277366	2020-10-29T19:20:39:278
0,279580	-3,160339	9,279250	2020-10-29T19:20:39:303
0,274102	-3,155010	9,281226	2020-10-29T19:20:39:319
0,272164	-3,149645	9,283105	2020-10-29T19:20:39:343
0,270622	-3,145758	9,284469	2020-10-29T19:20:39:359
0,269519	-3,139395	9,286654	2020-10-29T19:20:39:382
0,264221	-3,129290	9,290216	2020-10-29T19:20:39:399
0,282989	-3,267678	9,241893	2020-10-29T19:20:39:423
0,253145	-3,150891	9,283220	2020-10-29T19:20:39:440
0,252821	-3,154141	9,282125	2020-10-29T19:20:39:462
0,250868	-3,152200	9,282838	2020-10-29T19:20:39:479
0,251525	-3,147179	9,284524	2020-10-29T19:20:39:503
0,250600	-3,139713	9,287076	2020-10-29T19:20:39:519
0,250015	-3,130153	9,290318	2020-10-29T19:20:39:543
0,247677	-3,127494	9,291277	2020-10-29T19:20:39:559
0,249875	-3,120125	9,293695	2020-10-29T19:20:39:583
0,250282	-3,119371	9,293937	2020-10-29T19:20:39:599
0,249972	-3,113278	9,295988	2020-10-29T19:20:39:622
0,249210	-3,106925	9,298134	2020-10-29T19:20:39:640
0,249035	-3,104250	9,299032	2020-10-29T19:20:39:663
0,249225	-3,104609	9,298907	2020-10-29T19:20:39:679
0,248957	-3,100477	9,300293	2020-10-29T19:20:39:702
0,248980	-3,102895	9,299486	2020-10-29T19:20:39:719
0,246080	-3,103431	9,299384	2020-10-29T19:20:39:744
0,247459	-3,107637	9,297943	2020-10-29T19:20:39:759
0,280390	-3,357487	9,209725	2020-10-29T19:20:39:784
0,254499	-3,259869	9,245479	2020-10-29T19:20:39:799
0,253869	-3,254978	9,247219	2020-10-29T19:20:39:823
0,256085	-3,253935	9,247524	2020-10-29T19:20:39:840
0,252717	-3,241637	9,251936	2020-10-29T19:20:39:863
0,253035	-3,234730	9,254344	2020-10-29T19:20:39:895
0,286386	-3,453478	9,173977	2020-10-29T19:20:39:911
0,286739	-3,347440	9,213187	2020-10-29T19:20:39:920
0,284638	-3,337831	9,216737	2020-10-29T19:20:39:943
0,284584	-3,326021	9,221007	2020-10-29T19:20:39:960
0,281516	-3,313189	9,225720	2020-10-29T19:20:39:983
0,278777	-3,307047	9,228006	2020-10-29T19:20:39:999
0,277596	-3,293792	9,232781	2020-10-29T19:20:40:023
0,270815	-3,280704	9,237641	2020-10-29T19:20:40:040
0,270272	-3,271439	9,240943	2020-10-29T19:20:40:063
0,265489	-3,262428	9,244267	2020-10-29T19:20:40:080
0,264490	-3,399895	9,194626	2020-10-29T19:20:40:104
0,246827	-3,274570	9,240490	2020-10-29T19:20:40:120
0,249196	-3,268619	9,242533	2020-10-29T19:20:40:144
0,249473	-3,263717	9,244258	2020-10-29T19:20:40:160
0,248460	-3,254505	9,247532	2020-10-29T19:20:40:183
0,250271	-3,248081	9,249742	2020-10-29T19:20:40:200
0,294988	-3,421375	9,185726	2020-10-29T19:20:40:224
0,246498	-3,274439	9,240545	2020-10-29T19:20:40:240
0,244080	-3,263694	9,244410	2020-10-29T19:20:40:263
0,243949	-3,256558	9,246929	2020-10-29T19:20:40:280
0,243018	-3,250814	9,248975	2020-10-29T19:20:40:304
0,243107	-3,242110	9,252028	2020-10-29T19:20:40:320
0,242364	-3,237574	9,253634	2020-10-29T19:20:40:343
0,243732	-3,231615	9,255682	2020-10-29T19:20:40:360
0,242582	-3,223760	9,258451	2020-10-29T19:20:40:383
0,243158	-3,219487	9,259922	2020-10-29T19:20:40:400
0,241771	-3,214562	9,261669	2020-10-29T19:20:40:422
0,245816	-3,212091	9,262420	2020-10-29T19:20:40:441
0,237016	-3,419800	9,187991	2020-10-29T19:20:40:465
0,234037	-3,251463	9,248979	2020-10-29T19:20:40:480
0,232813	-3,237887	9,253771	2020-10-29T19:20:40:504
0,234294	-3,229782	9,256565	2020-10-29T19:20:40:520
0,234110	-3,222085	9,259252	2020-10-29T19:20:40:544
0,233434	-3,222063	9,259276	2020-10-29T19:20:40:560
0,232852	-3,217815	9,260768	2020-10-29T19:20:40:595
0,231820	-3,213757	9,262203	2020-10-29T19:20:40:600
0,230871	-3,206802	9,264637	2020-10-29T19:20:40:624
0,232714	-3,204840	9,265270	2020-10-29T19:20:40:640
0,230279	-3,199074	9,267323	2020-10-29T19:20:40:663
0,229362	-3,196064	9,268384	2020-10-29T19:20:40:680
0,308128	-3,360522	9,207732	2020-10-29T19:20:40:705
0,272294	-3,268933	9,241770	2020-10-29T19:20:40:720
0,270562	-3,258554	9,245486	2020-10-29T19:20:40:744
0,269281	-3,249019	9,248878	2020-10-29T19:20:40:760
0,267589	-3,238855	9,252492	2020-10-29T19:20:40:782
0,268325	-3,234013	9,254164	2020-10-29T19:20:40:800
0,265736	-3,229835	9,255697	2020-10-29T19:20:40:823
0,261808	-3,223178	9,258130	2020-10-29T19:20:40:841
0,257512	-3,212546	9,261945	2020-10-29T19:20:40:863
0,252915	-3,198366	9,266977	2020-10-29T19:20:40:880
0,252055	-3,189328	9,270115	2020-10-29T19:20:40:903
0,248623	-3,183187	9,272319	2020-10-29T19:20:40:921
0,246810	-3,185198	9,271676	2020-10-29T19:20:40:943
0,246723	-3,183228	9,272355	2020-10-29T19:20:40:960
0,245066	-3,181458	9,273006	2020-10-29T19:20:40:984
0,244323	-3,177142	9,274506	2020-10-29T19:20:41:001
0,245856	-3,173282	9,275786	2020-10-29T19:20:41:023
0,243322	-3,169607	9,277110	2020-10-29T19:20:41:041
0,240816	-3,171574	9,276504	2020-10-29T19:20:41:063
0,241092	-3,167147	9,278008	2020-10-29T19:20:41:081
0,241681	-3,160281	9,280334	2020-10-29T19:20:41:104
0,239644	-3,151668	9,283316	2020-10-29T19:20:41:121
0,239987	-3,149666	9,283986	2020-10-29T19:20:41:144
0,239397	-3,149124	9,284185	2020-10-29T19:20:41:161
0,238531	-3,142346	9,286504	2020-10-29T19:20:41:183
0,236995	-3,135679	9,288796	2020-10-29T19:20:41:201
0,269449	-3,312781	9,226227	2020-10-29T19:20:41:225
0,263413	-3,224565	9,257601	2020-10-29T19:20:41:241
0,260783	-3,217914	9,259990	2020-10-29T19:20:41:263
0,258739	-3,211137	9,262400	2020-10-29T19:20:41:281
0,258287	-3,207281	9,263747	2020-10-29T19:20:41:303
0,259982	-3,204780	9,264565	2020-10-29T19:20:41:321
0,259317	-3,201199	9,265822	2020-10-29T19:20:41:344
0,257128	-3,194328	9,268254	2020-10-29T19:20:41:361
0,252976	-3,187888	9,270586	2020-10-29T19:20:41:384
0,249232	-3,188196	9,270581	2020-10-29T19:20:41:401
0,249534	-3,187982	9,270647	2020-10-29T19:20:41:424
0,247867	-3,180513	9,273256	2020-10-29T19:20:41:441
0,248834	-3,179618	9,273538	2020-10-29T19:20:41:465
0,247021	-3,179456	9,273642	2020-10-29T19:20:41:481
0,273229	-3,435913	9,180971	2020-10-29T19:20:41:505
0,248932	-3,295130	9,233122	2020-10-29T19:20:41:521
0,246142	-3,286177	9,236387	2020-10-29T19:20:41:544
0,244570	-3,276771	9,239770	2020-10-29T19:20:41:561
0,242978	-3,270911	9,241888	2020-10-29T19:20:41:584
0,241017	-3,265252	9,243939	2020-10-29T19:20:41:601
0,237619	-3,259053	9,246215	2020-10-29T19:20:41:624
0,235612	-3,246326	9,250743	2020-10-29T19:20:41:642
0,231818	-3,236353	9,254333	2020-10-29T19:20:41:664
0,229073	-3,229909	9,256652	2020-10-29T19:20:41:681
0,228745	-3,225000	9,258371	2020-10-29T19:20:41:705
0,231595	-3,219031	9,260378	2020-10-29T19:20:41:721
0,232005	-3,197196	9,267928	2020-10-29T19:20:41:745
0,228395	-3,186700	9,271632	2020-10-29T19:20:41:761
0,232719	-3,191349	9,269925	2020-10-29T19:20:41:784
0,232147	-3,182760	9,272892	2020-10-29T19:20:41:801
0,228659	-3,173750	9,276067	2020-10-29T19:20:41:824
0,227704	-3,170953	9,277046	2020-10-29T19:20:41:842
0,229424	-3,169969	9,277341	2020-10-29T19:20:41:864
0,232113	-3,169185	9,277541	2020-10-29T19:20:41:881
0,231570	-3,162737	9,279755	2020-10-29T19:20:41:904
0,230725	-3,154569	9,282556	2020-10-29T19:20:41:921
0,233979	-3,155466	9,282169	2020-10-29T19:20:41:946
0,231054	-3,143718	9,286228	2020-10-29T19:20:41:961
0,230990	-3,136928	9,288526	2020-10-29T19:20:41:984
0,229018	-3,127920	9,291612	2020-10-29T19:20:42:001
0,293243	-3,360275	9,208308	2020-10-29T19:20:42:025
0,281675	-3,301328	9,229966	2020-10-29T19:20:42:042
0,293002	-3,419953	9,186319	2020-10-29T19:20:42:065
0,285145	-3,324996	9,221360	2020-10-29T19:20:42:082
0,284191	-3,317653	9,224033	2020-10-29T19:20:42:105
0,281525	-3,303318	9,229259	2020-10-29T19:20:42:122
0,278910	-3,294167	9,232609	2020-10-29T19:20:42:145
0,272538	-3,283771	9,236501	2020-10-29T19:20:42:161
0,238160	-3,363111	9,208862	2020-10-29T19:20:42:186
0,222986	-3,242448	9,252416	2020-10-29T19:20:42:202
0,222422	-3,232141	9,256035	2020-10-29T19:20:42:224
0,221285	-3,221685	9,259706	2020-10-29T19:20:42:242
0,223120	-3,215095	9,261952	2020-10-29T19:20:42:264
0,221553	-3,204059	9,265814	2020-10-29T19:20:42:282
0,224420	-3,202720	9,266208	2020-10-29T19:20:42:304
0,224254	-3,196775	9,268264	2020-10-29T19:20:42:322
0,223682	-3,196917	9,268229	2020-10-29T19:20:42:345
0,220527	-3,194278	9,269215	2020-10-29T19:20:42:362
0,219903	-3,187279	9,271639	2020-10-29T19:20:42:384
0,220272	-3,174433	9,276036	2020-10-29T19:20:42:403
0,313404	-3,355836	9,209263	2020-10-29T19:20:42:427
0,291802	-3,269425	9,241001	2020-10-29T19:20:42:443
0,269022	-3,379584	9,201980	2020-10-29T19:20:42:465
0,240027	-3,271413	9,241787	2020-10-29T19:20:42:482
0,241464	-3,263065	9,244700	2020-10-29T19:20:42:505
0,241899	-3,253759	9,247969	2020-10-29T19:20:42:522
0,241162	-3,239929	9,252842	2020-10-29T19:20:42:545
0,240795	-3,230658	9,256093	2020-10-29T19:20:42:562
0,241484	-3,226123	9,257656	2020-10-29T19:20:42:794
0,241401	-3,216870	9,260878	2020-10-29T19:20:42:795
0,238386	-3,207561	9,264184	2020-10-29T19:20:42:796
0,238953	-3,208014	9,264012	2020-10-29T19:20:42:797
0,235403	-3,202217	9,266109	2020-10-29T19:20:42:798
0,240699	-3,200835	9,266451	2020-10-29T19:20:42:799
0,314384	-3,255088	9,245320	2020-10-29T19:20:42:801
0,283606	-3,172423	9,275003	2020-10-29T19:20:42:802
0,308471	-3,352211	9,210750	2020-10-29T19:20:42:803
0,267252	-3,284421	9,236424	2020-10-29T19:20:42:803
0,291091	-3,358376	9,209069	2020-10-29T19:20:42:803
0,275739	-3,218304	9,259420	2020-10-29T19:20:42:804
0,238011	-3,339362	9,217505	2020-10-29T19:20:42:824
0,247125	-3,252615	9,248233	2020-10-29T19:20:42:842
0,246879	-3,242834	9,251674	2020-10-29T19:20:42:864
0,242741	-3,236783	9,253901	2020-10-29T19:20:42:885
0,295120	-3,330990	9,218883	2020-10-29T19:20:42:907
0,276546	-3,236778	9,252955	2020-10-29T19:20:42:922
0,272856	-3,228350	9,256008	2020-10-29T19:20:42:945
0,270320	-3,224002	9,257598	2020-10-29T19:20:42:962
0,270679	-3,213466	9,261250	2020-10-29T19:20:42:985
0,268780	-3,201228	9,265543	2020-10-29T19:20:43:002
0,240375	-3,235445	9,254431	2020-10-29T19:20:43:026
0,237918	-3,226297	9,257688	2020-10-29T19:20:43:043
0,241513	-3,154891	9,282172	2020-10-29T19:20:43:065
0,242749	-3,150112	9,283763	2020-10-29T19:20:43:083
0,274835	-3,339002	9,216611	2020-10-29T19:20:43:106
0,265658	-3,236181	9,253483	2020-10-29T19:20:43:122
0,274153	-3,388441	9,198570	2020-10-29T19:20:43:158
0,279998	-3,271973	9,240464	2020-10-29T19:20:43:164
0,280558	-3,267078	9,242179	2020-10-29T19:20:43:198
0,280784	-3,254528	9,246599	2020-10-29T19:20:43:210
0,295973	-3,291800	9,232922	2020-10-29T19:20:43:239
0,251079	-3,188360	9,270474	2020-10-29T19:20:43:244
0,248106	-3,181298	9,272981	2020-10-29T19:20:43:295
0,286722	-3,339473	9,216078	2020-10-29T19:20:43:393
0,277305	-3,192385	9,268342	2020-10-29T19:20:43:402
0,277031	-3,186378	9,270417	2020-10-29T19:20:43:433
0,273536	-3,179317	9,272944	2020-10-29T19:20:43:442
0,271372	-3,174298	9,274728	2020-10-29T19:20:43:464
0,271995	-3,171738	9,275585	2020-10-29T19:20:43:482
0,270660	-3,162320	9,278839	2020-10-29T19:20:43:506
0,269568	-3,153013	9,282038	2020-10-29T19:20:43:523
0,267617	-3,145965	9,284486	2020-10-29T19:20:43:545
0,264048	-3,137254	9,287535	2020-10-29T19:20:43:563
0,263738	-3,131287	9,289557	2020-10-29T19:20:43:586
0,265342	-3,129980	9,289952	2020-10-29T19:20:43:603
0,261545	-3,126868	9,291107	2020-10-29T19:20:43:631
0,260196	-3,123557	9,292259	2020-10-29T19:20:43:646
0,258849	-3,122233	9,292742	2020-10-29T19:20:44:247
0,260298	-3,122279	9,292686	2020-10-29T19:20:44:248
0,295383	-3,282837	9,236131	2020-10-29T19:20:44:250
0,256594	-3,172620	9,275723	2020-10-29T19:20:44:250
0,326823	-3,282644	9,235141	2020-10-29T19:20:44:252
0,306250	-3,184368	9,270188	2020-10-29T19:20:44:315
0,306049	-3,176520	9,272887	2020-10-29T19:20:44:316
0,303488	-3,170179	9,275141	2020-10-29T19:20:44:317
0,243110	-3,321705	9,223749	2020-10-29T19:20:44:319
0,233102	-3,213372	9,262304	2020-10-29T19:20:44:325
0,233400	-3,203783	9,265618	2020-10-29T19:20:44:348
0,230638	-3,189800	9,270511	2020-10-29T19:20:44:368
0,231972	-3,181054	9,273482	2020-10-29T19:20:44:392
0,230519	-3,172211	9,276546	2020-10-29T19:20:44:422
0,227808	-3,168416	9,277911	2020-10-29T19:21:03:088
0,225793	-3,162348	9,280030	2020-10-29T19:21:03:097
0,221860	-3,148175	9,284943	2020-10-29T19:21:03:101
0,219337	-3,138957	9,288123	2020-10-29T19:21:03:224
0,219818	-3,135824	9,289169	2020-10-29T19:21:03:225
0,221035	-3,133377	9,289967	2020-10-29T19:21:03:226
0,218565	-3,128056	9,291818	2020-10-29T19:21:03:227
0,216135	-3,119501	9,294750	2020-10-29T19:21:03:231
0,212918	-3,111152	9,297623	2020-10-29T19:21:03:234
0,216033	-3,103946	9,299959	2020-10-29T19:21:03:246
0,217049	-3,099503	9,301417	2020-10-29T19:21:03:258
0,219043	-3,100377	9,301079	2020-10-29T19:21:03:278
0,218832	-3,096164	9,302487	2020-10-29T19:21:03:299
0,217587	-3,090253	9,304482	2020-10-29T19:21:03:355
0,191881	-3,329135	9,222279	2020-10-29T19:21:03:356
0,182563	-3,171203	9,277959	2020-10-29T19:21:03:356
0,213521	-3,210099	9,263911	2020-10-29T19:21:03:373
0,212110	-3,182414	9,273491	2020-10-29T19:21:03:407
0,226827	-3,332433	9,220294	2020-10-29T19:21:03:413
0,228002	-3,200597	9,266853	2020-10-29T19:21:03:430
0,331273	-3,269521	9,239636	2020-10-29T19:21:03:453
0,295650	-3,148402	9,282808	2020-10-29T19:21:03:472
0,328017	-3,241578	9,249593	2020-10-29T19:21:03:497
0,282260	-3,181495	9,271936	2020-10-29T19:21:03:512
0,280045	-3,180693	9,272279	2020-10-29T19:21:03:540
0,278631	-3,176375	9,273801	2020-10-29T19:21:03:552
0,275092	-3,168452	9,276617	2020-10-29T19:21:03:574
0,274773	-3,159512	9,279675	2020-10-29T19:21:03:592
0,271704	-3,151922	9,282346	2020-10-29T19:21:03:616
0,270524	-3,147400	9,283915	2020-10-29T19:21:03:632
0,240393	-3,341467	9,216681	2020-10-29T19:21:03:655
0,225578	-3,201596	9,266568	2020-10-29T19:21:03:672
0,226166	-3,286632	9,236735	2020-10-29T19:21:03:696
0,195565	-3,143340	9,287171	2020-10-29T19:21:03:712
0,306626	-3,305284	9,227755	2020-10-29T19:21:03:735
0,274374	-3,221103	9,258488	2020-10-29T19:21:03:754
0,272508	-3,216622	9,260100	2020-10-29T19:21:03:775
0,269961	-3,210939	9,262148	2020-10-29T19:21:03:792
0,264990	-3,197270	9,267018	2020-10-29T19:21:03:816
0,263032	-3,186142	9,270905	2020-10-29T19:21:03:832
0,258678	-3,181088	9,272764	2020-10-29T19:21:03:856
0,258763	-3,176062	9,274484	2020-10-29T19:21:03:872
0,255581	-3,167761	9,277411	2020-10-29T19:21:03:894
0,252177	-3,161381	9,279680	2020-10-29T19:21:03:912
0,246201	-3,149228	9,283972	2020-10-29T19:21:03:936
0,242327	-3,138292	9,287776	2020-10-29T19:21:03:952
0,238859	-3,131253	9,290241	2020-10-29T19:21:03:974
0,233722	-3,124214	9,292742	2020-10-29T19:21:03:992
0,233958	-3,121526	9,293639	2020-10-29T19:21:04:015
0,232835	-3,119222	9,294440	2020-10-29T19:21:04:033
0,229721	-3,116831	9,295321	2020-10-29T19:21:04:056
0,157401	-3,412356	9,192467	2020-10-29T19:23:35:569
0,182537	-3,253890	9,249285	2020-10-29T19:23:35:570
0,198636	-3,111541	9,297809	2020-10-29T19:23:35:572
0,209272	-2,915040	9,361043	2020-10-29T19:23:35:572
0,206216	-2,786178	9,400270	2020-10-29T19:23:35:573
0,204899	-2,666983	9,434808	2020-10-29T19:23:35:574
0,216046	-2,517858	9,475448	2020-10-29T19:23:35:674
0,212375	-2,445032	9,494582	2020-10-29T19:23:35:675
0,219584	-2,320162	9,525703	2020-10-29T19:23:35:676
0,171409	-2,346365	9,520271	2020-10-29T19:23:35:680
0,190604	-2,164989	9,562786	2020-10-29T19:23:35:822
0,197729	-2,090777	9,579141	2020-10-29T19:23:35:823
0,207914	-2,009206	9,596366	2020-10-29T19:23:35:824
0,218202	-1,952765	9,607782	2020-10-29T19:23:35:835
0,225100	-1,919916	9,614242	2020-10-29T19:23:35:836
0,188509	-1,907188	9,617561	2020-10-29T19:23:35:837
0,205575	-1,827730	9,632628	2020-10-29T19:23:35:859
0,201906	-1,787119	9,640323	2020-10-29T19:23:35:859
0,200902	-1,725406	9,651580	2020-10-29T19:23:35:860
0,205189	-1,679324	9,659615	2020-10-29T19:23:35:860
0,212406	-1,641677	9,665928	2020-10-29T19:23:35:861
0,216430	-1,594805	9,673683	2020-10-29T19:23:35:869
0,212980	-1,544057	9,681989	2020-10-29T19:23:35:873
0,209876	-1,504429	9,688293	2020-10-29T19:23:35:877
0,208484	-1,459297	9,695224	2020-10-29T19:23:35:893
0,210442	-1,404485	9,703274	2020-10-29T19:23:35:922
0,163070	-1,381440	9,707493	2020-10-29T19:23:35:922
0,184552	-1,425676	9,700710	2020-10-29T19:23:36:005
0,192544	-1,432174	9,699597	2020-10-29T19:23:36:013
0,214339	-1,458594	9,695202	2020-10-29T19:23:36:014
0,229917	-1,470164	9,693097	2020-10-29T19:23:36:015
0,242893	-1,471309	9,692607	2020-10-29T19:23:36:015
0,244830	-1,419105	9,700339	2020-10-29T19:23:36:016
0,243316	-1,386386	9,705108	2020-10-29T19:23:36:020
0,267260	-1,348419	9,709826	2020-10-29T19:23:36:078
0,276199	-1,413391	9,700331	2020-10-29T19:23:36:079
0,284080	-1,466547	9,692209	2020-10-29T19:23:36:080
0,293966	-1,526443	9,682662	2020-10-29T19:23:36:081
0,310921	-1,563322	9,676246	2020-10-29T19:23:36:098
0,324581	-1,525859	9,681776	2020-10-29T19:23:36:098
0,338093	-1,480427	9,688365	2020-10-29T19:23:36:104
0,293510	-1,478391	9,690129	2020-10-29T19:23:36:105
0,299026	-1,457724	9,693090	2020-10-29T19:23:36:110
0,330331	-1,413625	9,698605	2020-10-29T19:23:36:111
0,363106	-1,373867	9,703145	2020-10-29T19:23:36:114
0,385861	-1,320570	9,709664	2020-10-29T19:23:36:119
0,394365	-1,279899	9,714768	2020-10-29T19:23:36:120
0,390679	-1,269733	9,716251	2020-10-29T19:23:36:121
0,395045	-1,272994	9,715648	2020-10-29T19:23:36:121
0,400140	-1,242895	9,719336	2020-10-29T19:23:36:124
0,399937	-1,134059	9,732643	2020-10-29T19:23:36:133
0,385427	-1,002076	9,747701	2020-10-29T19:23:36:134
0,355349	-0,922949	9,756653	2020-10-29T19:23:36:134
-0,085027	-0,427495	9,796959	2020-10-29T19:23:36:162
-0,061392	-1,686595	9,660332	2020-10-29T19:23:36:174
-0,045447	2,271868	9,539756	2020-10-29T19:23:36:187
-0,042463	0,400533	9,798375	2020-10-29T19:23:36:211
-0,032563	-0,011793	9,806589	2020-10-29T19:23:36:230
-0,029426	-0,094260	9,806153	2020-10-29T19:23:36:262
-0,025163	-0,150781	9,805458	2020-10-29T19:23:36:271
-0,015509	-0,212723	9,804330	2020-10-29T19:23:36:302
-0,007969	-0,250319	9,803452	2020-10-29T19:23:36:327
-0,000882	-0,283292	9,802557	2020-10-29T19:23:36:334
0,010848	-0,330188	9,801084	2020-10-29T19:23:36:348
0,024048	-0,389142	9,798897	2020-10-29T19:23:36:374
0,035372	-0,428911	9,797202	2020-10-29T19:23:36:389
0,051833	-0,465878	9,795441	2020-10-29T19:23:36:412
0,062771	-0,485994	9,794399	2020-10-29T19:23:36:429
0,075739	-0,498103	9,793699	2020-10-29T19:23:36:460
0,085661	-0,513535	9,792820	2020-10-29T19:23:36:471
0,094122	-0,524876	9,792141	2020-10-29T19:23:36:494
0,327181	-0,625062	9,781239	2020-10-29T19:23:36:511
0,326042	-0,662883	9,778787	2020-10-29T19:23:36:537
0,324488	-0,668179	9,778478	2020-10-29T19:23:36:547
0,323951	-0,679055	9,777746	2020-10-29T19:23:36:571
0,325710	-0,687033	9,777131	2020-10-29T19:23:36:594
0,323663	-0,692388	9,776821	2020-10-29T19:23:36:613
0,321884	-0,684029	9,777468	2020-10-29T19:23:36:629
0,319626	-0,675575	9,778130	2020-10-29T19:23:36:657
0,318371	-0,673631	9,778305	2020-10-29T19:23:36:667
0,314020	-0,682011	9,777864	2020-10-29T19:23:36:694
0,314414	-0,679156	9,778050	2020-10-29T19:23:36:708
0,312844	-0,674783	9,778404	2020-10-29T19:23:36:731
0,309522	-0,670776	9,778785	2020-10-29T19:23:36:748
0,438695	-0,705833	9,771373	2020-10-29T19:23:36:773
0,370064	-0,615043	9,780346	2020-10-29T19:23:36:792
0,367455	-0,610747	9,780713	2020-10-29T19:23:36:812
0,359056	-0,611644	9,780969	2020-10-29T19:23:36:829
0,330467	-0,687860	9,776913	2020-10-29T19:23:36:854
0,349662	-0,623758	9,780544	2020-10-29T19:23:36:868
0,347290	-0,633865	9,779979	2020-10-29T19:23:36:895
0,340440	-0,598132	9,782470	2020-10-29T19:23:36:919
0,342749	-0,599350	9,782315	2020-10-29T19:23:36:933
0,344748	-0,604632	9,781919	2020-10-29T19:23:36:950
0,339848	-0,616859	9,781328	2020-10-29T19:23:36:972
0,345665	-0,638022	9,779766	2020-10-29T19:23:36:988
0,345822	-0,644720	9,779322	2020-10-29T19:23:37:013
0,343269	-0,653223	9,778847	2020-10-29T19:23:37:028
-0,127765	-0,602665	9,787280	2020-10-29T19:23:37:051
0,120612	-1,305212	9,718656	2020-10-29T19:23:37:068
0,120250	-1,205081	9,731583	2020-10-29T19:23:37:097
0,133584	-1,103866	9,743409	2020-10-29T19:23:37:108
0,362331	-0,617948	9,780452	2020-10-29T19:23:37:132
0,356947	-0,811582	9,766489	2020-10-29T19:23:37:148
0,350030	-0,826332	9,765502	2020-10-29T19:23:37:172
0,337850	-0,812080	9,767127	2020-10-29T19:23:37:188
0,227128	-0,799781	9,771343	2020-10-29T19:23:37:213
0,254243	-0,707382	9,777799	2020-10-29T19:23:37:230
0,415422	-0,692370	9,773354	2020-10-29T19:23:37:253
0,349180	-0,623775	9,780560	2020-10-29T19:23:37:268
0,342737	-0,624431	9,780746	2020-10-29T19:23:37:291
0,334224	-0,612785	9,781777	2020-10-29T19:23:37:308
0,327475	-0,599872	9,782806	2020-10-29T19:23:37:332
0,324966	-0,606143	9,782503	2020-10-29T19:23:37:348
0,313436	-0,600187	9,783247	2020-10-29T19:23:37:371
0,308421	-0,606142	9,783039	2020-10-29T19:23:37:389
0,305721	-0,606929	9,783075	2020-10-29T19:23:37:412
0,296359	-0,588872	9,784467	2020-10-29T19:23:37:429
0,285396	-0,562352	9,786352	2020-10-29T19:23:37:451
0,199779	-0,413118	9,795908	2020-10-29T19:23:37:468
-0,122729	-0,684103	9,781990	2020-10-29T19:23:37:494
0,182209	-0,981649	9,755693	2020-10-29T19:23:37:515
0,187433	-0,963759	9,757378	2020-10-29T19:23:37:532
0,188203	-0,926999	9,760924	2020-10-29T19:23:37:548
0,170980	-0,900739	9,763699	2020-10-29T19:23:37:572
0,172279	-0,828363	9,770082	2020-10-29T19:23:37:600
0,177807	-0,795898	9,772682	2020-10-29T19:23:37:616
0,190016	-0,786104	9,773245	2020-10-29T19:23:37:654
0,200187	-0,785573	9,773085	2020-10-29T19:23:37:708
0,201510	-0,772895	9,774068	2020-10-29T19:23:37:723
0,199706	-0,759847	9,775128	2020-10-29T19:23:37:723
0,200977	-0,736734	9,776872	2020-10-29T19:23:37:736
0,202529	-0,722660	9,777890	2020-10-29T19:23:37:740
0,269056	-0,586590	9,785393	2020-10-29T19:23:37:755
0,264933	-0,645694	9,781783	2020-10-29T19:23:37:777
0,261888	-0,646308	9,781824	2020-10-29T19:23:37:790
0,264757	-0,647911	9,781641	2020-10-29T19:23:37:814
0,264560	-0,647833	9,781651	2020-10-29T19:23:37:832
0,292305	-0,676408	9,778927	2020-10-29T19:23:37:852
0,266337	-0,644864	9,781799	2020-10-29T19:23:37:870
0,288962	-0,609491	9,783425	2020-10-29T19:23:37:893
0,288542	-0,720112	9,775918	2020-10-29T19:23:37:910
0,287578	-0,719891	9,775963	2020-10-29T19:23:37:933
0,283808	-0,712466	9,776616	2020-10-29T19:23:37:950
0,280549	-0,702033	9,777465	2020-10-29T19:23:37:973
0,274826	-0,693120	9,778264	2020-10-29T19:23:37:989
0,252149	-0,699152	9,778445	2020-10-29T19:23:38:015
0,286395	-0,723967	9,775696	2020-10-29T19:23:38:066
0,275009	-0,557255	9,786942	2020-10-29T19:23:38:067
0,303559	-0,591515	9,784086	2020-10-29T19:23:38:078
0,297965	-0,593814	9,784119	2020-10-29T19:23:38:139
0,296764	-0,596234	9,784008	2020-10-29T19:23:38:139
0,291667	-0,594923	9,784242	2020-10-29T19:23:38:159
0,291261	-0,589042	9,784610	2020-10-29T19:23:38:159
0,291896	-0,588659	9,784614	2020-10-29T19:23:38:172
0,288187	-0,589538	9,784671	2020-10-29T19:23:38:190
0,289275	-0,582749	9,785045	2020-10-29T19:23:38:214
0,291753	-0,566902	9,785902	2020-10-29T19:23:38:232
0,299673	-0,590564	9,784264	2020-10-29T19:23:38:254
0,293802	-0,585359	9,784755	2020-10-29T19:23:38:272
0,298837	-0,563122	9,785907	2020-10-29T19:23:38:296
0,291527	-0,567140	9,785895	2020-10-29T19:23:38:312
0,295367	-0,648367	9,780734	2020-10-29T19:23:38:335
0,277371	-0,576435	9,785764	2020-10-29T19:23:38:351
0,277829	-0,577506	9,785687	2020-10-29T19:23:38:375
0,277192	-0,572479	9,786001	2020-10-29T19:23:38:392
0,332336	-0,502143	9,788145	2020-10-29T19:23:38:415
0,333028	-0,659932	9,778750	2020-10-29T19:23:38:432
0,336164	-0,594376	9,782847	2020-10-29T19:23:38:458
0,309163	-0,549129	9,786382	2020-10-29T19:23:38:471
0,235012	-0,596009	9,785700	2020-10-29T19:23:38:495
0,251976	-0,673558	9,780246	2020-10-29T19:23:38:512
0,249084	-0,662991	9,781042	2020-10-29T19:23:38:536
0,233828	-0,653709	9,782043	2020-10-29T19:23:38:552
0,237220	-0,630571	9,783481	2020-10-29T19:23:38:574
0,246503	-0,629172	9,783341	2020-10-29T19:23:38:591
0,248293	-0,624852	9,783573	2020-10-29T19:23:38:614
0,252977	-0,641594	9,782369	2020-10-29T19:23:38:631
0,251686	-0,643835	9,782255	2020-10-29T19:23:38:653
0,249262	-0,630657	9,783175	2020-10-29T19:23:38:670
0,245389	-0,619242	9,784002	2020-10-29T19:23:38:705
0,249556	-0,641642	9,782454	2020-10-29T19:23:38:711
0,249940	-0,639710	9,782571	2020-10-29T19:23:38:737
0,252147	-0,641987	9,782365	2020-10-29T19:23:38:755
0,315364	-0,633136	9,781108	2020-10-29T19:23:38:779
0,281143	-0,637921	9,781840	2020-10-29T19:23:38:807
0,425449	-0,652677	9,775653	2020-10-29T19:23:38:815
0,396290	-0,621423	9,778914	2020-10-29T19:23:38:832
0,268127	-0,625629	9,783000	2020-10-29T19:23:38:856
0,276434	-0,677288	9,779327	2020-10-29T19:23:38:871
0,303745	-0,754540	9,772860	2020-10-29T19:23:38:899
0,303683	-0,745160	9,773582	2020-10-29T19:23:38:917
0,353726	-0,617810	9,780776	2020-10-29T19:23:38:938
0,343010	-0,590463	9,782846	2020-10-29T19:23:38:953
0,350061	-0,668737	9,777557	2020-10-29T19:23:38:975
0,340999	-0,678697	9,777191	2020-10-29T19:23:38:992
0,340294	-0,679466	9,777163	2020-10-29T19:23:39:020
0,337287	-0,682751	9,777038	2020-10-29T19:23:39:041
0,336263	-0,690109	9,776557	2020-10-29T19:23:39:059
0,334656	-0,688249	9,776743	2020-10-29T19:23:39:072
0,332899	-0,692603	9,776495	2020-10-29T19:23:39:097
0,329565	-0,695723	9,776387	2020-10-29T19:23:39:112
0,328876	-0,703017	9,775888	2020-10-29T19:23:39:135
0,328017	-0,699601	9,776162	2020-10-29T19:23:39:152
0,325501	-0,701434	9,776115	2020-10-29T19:23:39:177
0,320023	-0,701086	9,776320	2020-10-29T19:23:39:193
0,318651	-0,701386	9,776344	2020-10-29T19:23:39:215
0,318015	-0,706149	9,776022	2020-10-29T19:23:39:232
0,311911	-0,767594	9,771586	2020-10-29T19:23:39:256
0,299891	-0,758377	9,772682	2020-10-29T19:23:39:272
0,295348	-0,750436	9,773434	2020-10-29T19:23:39:295
0,289876	-0,748025	9,773782	2020-10-29T19:23:39:312
0,290061	-0,750390	9,773595	2020-10-29T19:23:39:336
0,294998	-0,756277	9,772994	2020-10-29T19:23:39:352
0,294404	-0,751274	9,773397	2020-10-29T19:23:39:374
0,295078	-0,755547	9,773047	2020-10-29T19:23:39:392
0,297471	-0,747439	9,773599	2020-10-29T19:23:39:417
0,302059	-0,744067	9,773715	2020-10-29T19:23:39:432
0,302197	-0,752942	9,773031	2020-10-29T19:23:39:455
0,306500	-0,766922	9,771811	2020-10-29T19:23:39:472
0,305381	-0,766496	9,771878	2020-10-29T19:23:39:497
0,302266	-0,758462	9,772602	2020-10-29T19:23:39:523
0,298799	-0,756371	9,772871	2020-10-29T19:23:39:535
0,299888	-0,762746	9,772342	2020-10-29T19:23:39:552
0,259495	-0,729509	9,776035	2020-10-29T19:23:39:576
0,262916	-0,749162	9,774457	2020-10-29T19:23:39:591
0,266898	-0,777108	9,772167	2020-10-29T19:23:39:623
0,265069	-0,762678	9,773354	2020-10-29T19:23:39:634
0,331516	-0,747113	9,772528	2020-10-29T19:23:39:656
0,277776	-0,636922	9,782001	2020-10-29T19:23:39:671
0,283632	-0,649934	9,780977	2020-10-29T19:23:39:694
0,289813	-0,657300	9,780304	2020-10-29T19:23:39:711
0,291796	-0,673994	9,779109	2020-10-29T19:23:39:739
0,295178	-0,692232	9,777734	2020-10-29T19:23:39:752
0,296184	-0,698712	9,777242	2020-10-29T19:23:39:776
