x	y	z	ts
-0,315291	2,593910	9,452122	2020-10-29T19:03:51:285
-0,304190	2,604371	9,449609	2020-10-29T19:03:51:286
-0,202261	2,209346	9,552396	2020-10-29T19:03:51:286
-0,169050	2,096419	9,578457	2020-10-29T19:03:51:287
-0,136413	1,983702	9,602953	2020-10-29T19:03:51:287
-0,092644	1,808280	9,638045	2020-10-29T19:03:51:311
-0,085230	1,772267	9,644801	2020-10-29T19:03:51:320
-0,057913	1,630309	9,670012	2020-10-29T19:03:51:338
-0,018922	1,410873	9,704611	2020-10-29T19:03:51:359
0,020404	1,103768	9,744314	2020-10-29T19:03:51:380
0,041438	0,839558	9,770558	2020-10-29T19:03:51:399
0,044426	0,675554	9,783253	2020-10-29T19:03:51:418
0,036977	0,633132	9,786120	2020-10-29T19:03:51:439
0,031690	0,589888	9,788841	2020-10-29T19:03:51:460
0,030999	0,536780	9,791900	2020-10-29T19:03:51:479
0,044095	0,255850	9,803213	2020-10-29T19:03:51:500
0,058657	-0,273887	9,802649	2020-10-29T19:03:51:519
0,065868	-1,083853	9,746348	2020-10-29T19:03:51:540
0,062452	-2,613572	9,451757	2020-10-29T19:03:51:559
0,078896	3,240528	9,255439	2020-10-29T19:03:51:580
0,064063	3,586218	9,127175	2020-10-29T19:03:51:599
0,073521	2,967895	9,346475	2020-10-29T19:03:51:620
0,082385	2,466936	9,490933	2020-10-29T19:03:51:639
0,095991	2,109384	9,576621	2020-10-29T19:03:51:660
0,116235	1,983239	9,603313	2020-10-29T19:03:51:679
0,145365	1,823230	9,634578	2020-10-29T19:03:51:700
0,157933	1,795466	9,639592	2020-10-29T19:03:51:719
0,169419	1,825095	9,633831	2020-10-29T19:03:51:739
0,175001	1,665669	9,662573	2020-10-29T19:03:51:759
0,196520	1,616777	9,670460	2020-10-29T19:03:51:780
0,210620	1,583423	9,675680	2020-10-29T19:03:51:799
0,196425	1,443391	9,697857	2020-10-29T19:03:51:819
0,191817	1,270316	9,722134	2020-10-29T19:03:51:839
0,195456	1,127571	9,739649	2020-10-29T19:03:51:860
0,194716	1,041312	9,749264	2020-10-29T19:03:51:880
0,202182	0,996826	9,753760	2020-10-29T19:03:51:900
0,215730	0,942117	9,758906	2020-10-29T19:03:51:919
0,231890	0,849401	9,767043	2020-10-29T19:03:51:940
0,221458	0,800183	9,771441	2020-10-29T19:03:51:959
0,212509	0,798609	9,771768	2020-10-29T19:03:51:979
0,181108	0,582896	9,787636	2020-10-29T19:03:52:000
0,184126	0,582212	9,787621	2020-10-29T19:03:52:019
0,173929	0,549400	9,789703	2020-10-29T19:03:52:039
0,174131	0,523696	9,791108	2020-10-29T19:03:52:060
0,175027	0,508695	9,791883	2020-10-29T19:03:52:080
0,178646	0,503267	9,792098	2020-10-29T19:03:52:099
0,184542	0,504249	9,791939	2020-10-29T19:03:52:120
0,181319	0,524067	9,790958	2020-10-29T19:03:52:139
0,170056	0,439029	9,795341	2020-10-29T19:03:52:159
0,165696	0,425623	9,796008	2020-10-29T19:03:52:180
0,151756	0,360827	9,798835	2020-10-29T19:03:52:200
0,142948	0,288510	9,801363	2020-10-29T19:03:52:219
0,111181	0,193087	9,804118	2020-10-29T19:03:52:241
0,098847	0,174315	9,804603	2020-10-29T19:03:52:261
0,064211	0,126232	9,805627	2020-10-29T19:03:52:280
0,083167	0,173677	9,804759	2020-10-29T19:03:52:300
0,101299	0,188196	9,804320	2020-10-29T19:03:52:321
0,088670	0,146348	9,805157	2020-10-29T19:03:52:339
0,068405	0,081625	9,806071	2020-10-29T19:03:52:361
0,174577	0,139881	9,804098	2020-10-29T19:03:52:379
0,218472	0,128686	9,803371	2020-10-29T19:03:52:402
0,109423	0,012926	9,806031	2020-10-29T19:03:52:422
0,120750	-0,004054	9,805905	2020-10-29T19:03:52:443
0,190689	-0,006781	9,804793	2020-10-29T19:03:52:461
0,258731	-0,020126	9,803216	2020-10-29T19:03:52:483
0,224455	-0,064456	9,803869	2020-10-29T19:03:52:502
0,200699	-0,088363	9,804198	2020-10-29T19:03:52:523
0,296179	-0,067696	9,801943	2020-10-29T19:03:52:542
0,200646	-0,100120	9,804086	2020-10-29T19:03:52:564
0,165794	-0,110756	9,804623	2020-10-29T19:03:52:582
0,148610	-0,135785	9,804584	2020-10-29T19:03:52:603
0,178768	-0,136807	9,804066	2020-10-29T19:03:52:621
0,139398	-0,153367	9,804460	2020-10-29T19:03:52:643
0,245955	-0,134883	9,802637	2020-10-29T19:03:52:663
0,445980	-0,130070	9,795640	2020-10-29T19:03:52:683
0,353027	-0,154947	9,799068	2020-10-29T19:03:52:702
0,296445	-0,157471	9,800903	2020-10-29T19:03:52:724
0,291114	-0,164470	9,800948	2020-10-29T19:03:52:742
0,105003	-0,185386	9,804336	2020-10-29T19:03:52:763
0,051948	-0,204604	9,804378	2020-10-29T19:03:52:782
0,164195	-0,200275	9,803229	2020-10-29T19:03:52:804
0,300880	-0,186354	9,800261	2020-10-29T19:03:52:821
0,365743	-0,170730	9,798340	2020-10-29T19:03:52:844
0,414892	-0,158112	9,796594	2020-10-29T19:03:52:862
0,464025	-0,150562	9,794509	2020-10-29T19:03:52:884
0,673269	-0,137061	9,782551	2020-10-29T19:03:52:904
0,715154	-0,130238	9,779672	2020-10-29T19:03:52:924
0,874632	-0,123110	9,766793	2020-10-29T19:03:52:942
1,221795	-0,103840	9,729688	2020-10-29T19:03:52:965
1,300575	-0,100465	9,719506	2020-10-29T19:03:52:982
1,584875	-0,091153	9,677306	2020-10-29T19:03:53:004
1,955283	-0,084085	9,609380	2020-10-29T19:03:53:022
2,272475	-0,082935	9,539359	2020-10-29T19:03:53:044
2,953663	-0,082147	9,350909	2020-10-29T19:03:53:061
4,051854	-0,136212	8,929407	2020-10-29T19:03:53:084
2,672148	-0,079536	9,435236	2020-10-29T19:03:53:102
3,930590	-0,119551	8,983683	2020-10-29T19:03:53:123
3,394489	-0,096470	9,199920	2020-10-29T19:03:53:143
2,461071	-0,076729	9,492504	2020-10-29T19:03:53:164
2,707775	-0,079650	9,425073	2020-10-29T19:03:53:182
3,742425	-0,100203	9,063917	2020-10-29T19:03:53:204
4,549053	-0,161761	8,686215	2020-10-29T19:03:53:222
2,868095	-0,331231	9,372017	2020-10-29T19:03:53:244
2,409766	-0,341694	9,499825	2020-10-29T19:03:53:262
1,191186	-0,362069	9,727300	2020-10-29T19:03:53:285
1,065717	-0,367574	9,741638	2020-10-29T19:03:53:302
0,790834	-0,378832	9,767366	2020-10-29T19:03:53:324
0,637211	-0,389417	9,778174	2020-10-29T19:03:53:342
0,517557	-0,378213	9,785677	2020-10-29T19:03:53:364
0,442986	-0,381585	9,789206	2020-10-29T19:03:53:383
0,327968	-0,373814	9,794033	2020-10-29T19:03:53:405
0,219737	-0,326829	9,798738	2020-10-29T19:03:53:422
0,162990	-0,311979	9,800331	2020-10-29T19:03:53:444
0,132770	-0,323864	9,800402	2020-10-29T19:03:53:463
0,068659	-0,309875	9,801513	2020-10-29T19:03:53:485
0,054233	-0,301897	9,801852	2020-10-29T19:03:53:502
0,024264	-0,285897	9,802452	2020-10-29T19:03:53:524
0,004505	-0,279113	9,802676	2020-10-29T19:03:53:542
-0,008464	-0,281602	9,802603	2020-10-29T19:03:53:565
-0,015688	-0,288869	9,802382	2020-10-29T19:03:53:583
-0,019414	-0,293946	9,802224	2020-10-29T19:03:53:604
-0,035503	-0,282299	9,802522	2020-10-29T19:03:53:623
-0,052936	-0,263705	9,802960	2020-10-29T19:03:53:644
-0,066264	-0,252898	9,803164	2020-10-29T19:03:53:662
-0,093821	-0,222646	9,803674	2020-10-29T19:03:53:686
-0,097400	-0,219582	9,803707	2020-10-29T19:03:53:702
-0,114735	-0,191238	9,804113	2020-10-29T19:03:53:724
-0,134528	-0,152942	9,804534	2020-10-29T19:03:53:742
-0,154456	-0,107219	9,804848	2020-10-29T19:03:53:765
-0,159338	-0,094387	9,804901	2020-10-29T19:03:53:783
-0,174772	-0,041939	9,805003	2020-10-29T19:03:53:805
-0,177784	-0,026784	9,805002	2020-10-29T19:03:53:822
-0,188074	0,029079	9,804803	2020-10-29T19:03:53:844
-0,193416	0,074712	9,804458	2020-10-29T19:03:53:863
-0,201293	0,147641	9,803473	2020-10-29T19:03:53:885
-0,211272	0,248718	9,801219	2020-10-29T19:03:53:902
-0,218039	0,368938	9,797281	2020-10-29T19:03:53:925
-0,227413	0,570603	9,787394	2020-10-29T19:03:53:942
-0,233878	0,842994	9,767550	2020-10-29T19:03:53:965
-0,237891	1,215355	9,728140	2020-10-29T19:03:53:984
-0,236769	1,945565	9,608804	2020-10-29T19:03:54:005
-0,218135	3,009954	9,330754	2020-10-29T19:03:54:022
-0,241191	-3,464132	9,171259	2020-10-29T19:03:54:045
-0,251775	-3,162320	9,279371	2020-10-29T19:03:54:063
-0,272738	-2,386848	9,507836	2020-10-29T19:03:54:085
-0,283020	-2,027812	9,590529	2020-10-29T19:03:54:104
-0,290143	-1,787343	9,638029	2020-10-29T19:03:54:125
-0,298435	-1,533491	9,681412	2020-10-29T19:03:54:143
-0,304898	-1,372281	9,705373	2020-10-29T19:03:54:165
-0,305571	-1,287819	9,716920	2020-10-29T19:03:54:183
-0,308018	-1,165027	9,732328	2020-10-29T19:03:54:205
-0,316835	-1,077226	9,742155	2020-10-29T19:03:54:223
-0,317517	-1,063645	9,743625	2020-10-29T19:03:54:246
-0,321134	-1,008149	9,749405	2020-10-29T19:03:54:263
-0,320855	-0,970030	9,753281	2020-10-29T19:03:54:285
-0,324918	-0,938598	9,756221	2020-10-29T19:03:54:303
-0,326270	-0,906209	9,759237	2020-10-29T19:03:54:325
-0,329177	-0,869566	9,762473	2020-10-29T19:03:54:344
-0,333296	-0,854036	9,763704	2020-10-29T19:03:54:365
-0,338749	-0,828384	9,765726	2020-10-29T19:03:54:384
-0,341742	-0,813377	9,766884	2020-10-29T19:03:54:406
-0,343473	-0,796820	9,768188	2020-10-29T19:03:54:423
-0,345713	-0,790978	9,768583	2020-10-29T19:03:54:446
-0,351315	-0,777385	9,769475	2020-10-29T19:03:54:463
-0,353938	-0,768822	9,770058	2020-10-29T19:03:54:486
-0,355193	-0,762978	9,770471	2020-10-29T19:03:54:503
-0,363616	-0,757918	9,770555	2020-10-29T19:03:54:526
-0,366378	-0,752837	9,770844	2020-10-29T19:03:54:543
-0,367056	-0,749274	9,771092	2020-10-29T19:03:54:566
-0,369360	-0,742185	9,771546	2020-10-29T19:03:54:585
-0,369440	-0,741063	9,771628	2020-10-29T19:03:54:606
-0,372939	-0,736363	9,771851	2020-10-29T19:03:54:623
-0,373079	-0,734368	9,771996	2020-10-29T19:03:54:646
-0,376079	-0,728508	9,772319	2020-10-29T19:03:54:663
-0,380160	-0,728804	9,772140	2020-10-29T19:03:54:687
-0,379608	-0,727162	9,772284	2020-10-29T19:03:54:704
-0,380961	-0,726575	9,772274	2020-10-29T19:03:54:726
-0,380956	-0,719795	9,772776	2020-10-29T19:03:54:743
-0,382283	-0,716594	9,772960	2020-10-29T19:03:54:766
-0,385283	-0,709538	9,773356	2020-10-29T19:03:54:784
-0,387846	-0,708471	9,773333	2020-10-29T19:03:54:806
-0,388652	-0,705900	9,773486	2020-10-29T19:03:54:825
-0,392500	-0,704095	9,773463	2020-10-29T19:03:54:846
-0,392765	-0,697990	9,773890	2020-10-29T19:03:54:863
-0,395084	-0,699303	9,773703	2020-10-29T19:03:54:887
-0,395096	-0,694292	9,774059	2020-10-29T19:03:54:904
-0,396215	-0,684146	9,774730	2020-10-29T19:03:54:926
-0,393249	-0,682192	9,774986	2020-10-29T19:03:54:944
-0,396243	-0,680567	9,774979	2020-10-29T19:03:54:966
-0,395588	-0,682266	9,774886	2020-10-29T19:03:54:984
-0,395364	-0,675467	9,775368	2020-10-29T19:03:55:007
-0,394513	-0,670850	9,775721	2020-10-29T19:03:55:024
-0,401890	-0,672267	9,775322	2020-10-29T19:03:55:048
-0,401015	-0,673294	9,775288	2020-10-29T19:03:55:065
-0,404229	-0,668762	9,775466	2020-10-29T19:03:55:087
-0,405098	-0,670484	9,775312	2020-10-29T19:03:55:104
-0,405597	-0,663752	9,775751	2020-10-29T19:03:55:127
-0,404733	-0,663720	9,775789	2020-10-29T19:03:55:144
-0,404600	-0,656814	9,776261	2020-10-29T19:03:55:166
-0,404097	-0,653728	9,776488	2020-10-29T19:03:55:185
-0,405053	-0,658809	9,776108	2020-10-29T19:03:55:207
-0,408175	-0,652935	9,776372	2020-10-29T19:03:55:224
-0,409843	-0,653699	9,776252	2020-10-29T19:03:55:247
-0,408525	-0,652528	9,776384	2020-10-29T19:03:55:264
-0,408189	-0,654107	9,776293	2020-10-29T19:03:55:287
-0,405791	-0,652024	9,776532	2020-10-29T19:03:55:305
-0,406030	-0,648515	9,776755	2020-10-29T19:03:55:327
-0,405193	-0,648508	9,776791	2020-10-29T19:03:55:344
-0,405205	-0,646037	9,776954	2020-10-29T19:03:55:367
-0,408564	-0,642550	9,777044	2020-10-29T19:03:55:385
-0,407324	-0,641343	9,777175	2020-10-29T19:03:55:407
-0,407402	-0,634897	9,777593	2020-10-29T19:03:55:424
-0,410125	-0,636388	9,777382	2020-10-29T19:03:55:447
-0,411834	-0,640903	9,777015	2020-10-29T19:03:55:464
-0,411035	-0,638600	9,777199	2020-10-29T19:03:55:487
-0,410841	-0,632006	9,777636	2020-10-29T19:03:55:504
-0,408111	-0,634328	9,777599	2020-10-29T19:03:55:527
-0,410361	-0,636751	9,777349	2020-10-29T19:03:55:545
-0,410576	-0,634276	9,777500	2020-10-29T19:03:55:567
-0,407426	-0,630532	9,777874	2020-10-29T19:03:55:584
-0,407862	-0,628143	9,778009	2020-10-29T19:03:55:607
-0,408303	-0,634335	9,777592	2020-10-29T19:03:55:624
-0,409855	-0,635206	9,777470	2020-10-29T19:03:55:647
-0,409646	-0,634949	9,777495	2020-10-29T19:03:55:666
-0,405443	-0,638891	9,777413	2020-10-29T19:03:55:688
-0,406995	-0,638253	9,777390	2020-10-29T19:03:55:705
-0,405272	-0,638837	9,777424	2020-10-29T19:03:55:727
-0,408236	-0,643154	9,777018	2020-10-29T19:03:55:744
-0,406335	-0,642569	9,777136	2020-10-29T19:03:55:767
-0,408972	-0,634679	9,777541	2020-10-29T19:03:55:786
-0,408211	-0,635304	9,777533	2020-10-29T19:03:55:807
-0,406917	-0,638749	9,777362	2020-10-29T19:03:55:824
-0,408125	-0,639359	9,777271	2020-10-29T19:03:55:847
-0,407100	-0,643480	9,777044	2020-10-29T19:03:55:864
-0,407243	-0,640133	9,777258	2020-10-29T19:03:55:887
-0,410191	-0,642049	9,777009	2020-10-29T19:03:55:905
-0,410106	-0,642713	9,776969	2020-10-29T19:03:55:928
-0,408656	-0,646301	9,776793	2020-10-29T19:03:55:944
-0,409719	-0,649116	9,776562	2020-10-29T19:03:55:967
-0,408551	-0,643264	9,776998	2020-10-29T19:03:55:985
-0,404639	-0,643268	9,777160	2020-10-29T19:03:56:007
-0,405410	-0,643645	9,777103	2020-10-29T19:03:56:026
-0,404359	-0,638828	9,777463	2020-10-29T19:03:56:047
-0,402788	-0,633189	9,777894	2020-10-29T19:03:56:064
-0,403260	-0,634216	9,777808	2020-10-29T19:03:56:088
-0,405313	-0,631603	9,777892	2020-10-29T19:03:56:105
-0,403367	-0,635042	9,777750	2020-10-29T19:03:56:127
-0,404778	-0,635026	9,777693	2020-10-29T19:03:56:145
-0,404269	-0,635526	9,777681	2020-10-29T19:03:56:169
-0,404182	-0,636090	9,777649	2020-10-29T19:03:56:185
-0,403622	-0,634811	9,777755	2020-10-29T19:03:56:207
-0,401911	-0,639819	9,777499	2020-10-29T19:03:56:224
-0,400698	-0,639503	9,777570	2020-10-29T19:03:56:248
-0,400136	-0,639503	9,777593	2020-10-29T19:03:56:266
-0,401937	-0,644029	9,777222	2020-10-29T19:03:56:289
-0,401775	-0,648222	9,776951	2020-10-29T19:03:56:305
-0,403712	-0,651286	9,776668	2020-10-29T19:03:56:328
-0,404400	-0,649081	9,776786	2020-10-29T19:03:56:345
-0,406352	-0,650557	9,776607	2020-10-29T19:03:56:368
-0,409857	-0,654943	9,776168	2020-10-29T19:03:56:385
-0,411836	-0,658225	9,775864	2020-10-29T19:03:56:409
-0,413807	-0,658504	9,775762	2020-10-29T19:03:56:425
-0,412278	-0,660057	9,775722	2020-10-29T19:03:56:448
-0,411388	-0,655019	9,776098	2020-10-29T19:03:56:466
-0,413047	-0,651400	9,776270	2020-10-29T19:03:56:489
-0,412028	-0,653553	9,776169	2020-10-29T19:03:56:506
-0,413240	-0,650446	9,776325	2020-10-29T19:03:56:528
-0,412623	-0,653935	9,776118	2020-10-29T19:03:56:545
-0,413612	-0,654668	9,776028	2020-10-29T19:03:56:569
-0,415154	-0,660494	9,775571	2020-10-29T19:03:56:586
-0,415157	-0,658260	9,775722	2020-10-29T19:03:56:608
-0,417205	-0,655437	9,775824	2020-10-29T19:03:56:626
-0,411213	-0,659558	9,775801	2020-10-29T19:03:56:649
-0,411878	-0,659433	9,775781	2020-10-29T19:03:56:665
-0,411986	-0,657751	9,775889	2020-10-29T19:03:56:689
-0,411201	-0,657761	9,775922	2020-10-29T19:03:56:706
-0,410484	-0,664492	9,775496	2020-10-29T19:03:56:728
-0,411224	-0,668985	9,775159	2020-10-29T19:03:56:746
-0,409295	-0,665558	9,775475	2020-10-29T19:03:56:768
-0,409323	-0,659977	9,775851	2020-10-29T19:03:56:785
-0,409697	-0,654230	9,776222	2020-10-29T19:03:56:809
-0,407716	-0,657951	9,776055	2020-10-29T19:03:56:826
-0,408729	-0,661263	9,775789	2020-10-29T19:03:56:848
-0,409864	-0,659349	9,775871	2020-10-29T19:03:56:865
-0,408445	-0,657825	9,776033	2020-10-29T19:03:56:889
-0,410078	-0,658080	9,775948	2020-10-29T19:03:56:906
-0,413447	-0,660806	9,775621	2020-10-29T19:03:56:928
-0,412008	-0,666933	9,775267	2020-10-29T19:03:56:945
-0,410208	-0,669816	9,775145	2020-10-29T19:03:56:968
-0,412441	-0,669287	9,775087	2020-10-29T19:03:56:987
-0,413424	-0,669828	9,775009	2020-10-29T19:03:57:009
-0,411064	-0,671952	9,774962	2020-10-29T19:03:57:025
-0,411527	-0,674397	9,774775	2020-10-29T19:03:57:049
-0,409127	-0,672200	9,775026	2020-10-29T19:03:57:066
-0,408045	-0,670324	9,775201	2020-10-29T19:03:57:089
-0,407579	-0,674008	9,774967	2020-10-29T19:03:57:106
-0,408495	-0,677135	9,774713	2020-10-29T19:03:57:129
-0,407745	-0,676282	9,774803	2020-10-29T19:03:57:146
-0,407361	-0,674062	9,774972	2020-10-29T19:03:57:169
-0,406442	-0,675623	9,774902	2020-10-29T19:03:57:186
-0,407208	-0,678738	9,774655	2020-10-29T19:03:57:209
-0,406438	-0,677306	9,774786	2020-10-29T19:03:57:227
-0,406962	-0,681756	9,774455	2020-10-29T19:03:57:249
-0,407335	-0,686846	9,774083	2020-10-29T19:03:57:265
-0,408582	-0,689305	9,773858	2020-10-29T19:03:57:290
-0,407637	-0,686005	9,774130	2020-10-29T19:03:57:306
-0,405404	-0,685657	9,774247	2020-10-29T19:03:57:329
-0,405454	-0,691365	9,773843	2020-10-29T19:03:57:346
-0,404675	-0,691188	9,773888	2020-10-29T19:03:57:369
-0,402901	-0,691348	9,773950	2020-10-29T19:03:57:386
-0,404368	-0,693284	9,773752	2020-10-29T19:03:57:411
-0,405613	-0,691688	9,773813	2020-10-29T19:03:57:426
-0,407730	-0,696232	9,773403	2020-10-29T19:03:57:449
-0,407894	-0,700591	9,773085	2020-10-29T19:03:57:467
-0,408865	-0,700603	9,773043	2020-10-29T19:03:57:490
-0,405566	-0,701290	9,773131	2020-10-29T19:03:57:506
-0,405148	-0,703620	9,772981	2020-10-29T19:03:57:529
-0,404469	-0,696107	9,773547	2020-10-29T19:03:57:546
-0,403517	-0,697580	9,773481	2020-10-29T19:03:57:570
-0,400766	-0,698345	9,773540	2020-10-29T19:03:57:587
-0,401528	-0,702750	9,773193	2020-10-29T19:03:57:609
-0,402058	-0,697156	9,773572	2020-10-29T19:03:57:626
-0,406339	-0,687533	9,774076	2020-10-29T19:03:57:651
-0,406442	-0,687775	9,774055	2020-10-29T19:03:57:666
-0,408928	-0,690162	9,773784	2020-10-29T19:03:57:689
-0,406875	-0,693200	9,773654	2020-10-29T19:03:57:708
-0,405672	-0,691482	9,773826	2020-10-29T19:03:57:730
-0,404177	-0,694566	9,773669	2020-10-29T19:03:57:746
-0,406520	-0,688267	9,774017	2020-10-29T19:03:57:770
-0,406494	-0,687762	9,774054	2020-10-29T19:03:57:787
-0,405419	-0,690532	9,773903	2020-10-29T19:03:57:811
-0,407384	-0,690044	9,773856	2020-10-29T19:03:57:827
-0,410244	-0,691821	9,773611	2020-10-29T19:03:57:850
-0,407348	-0,692849	9,773659	2020-10-29T19:03:57:866
-0,406002	-0,688212	9,774043	2020-10-29T19:03:57:891
-0,407248	-0,690292	9,773844	2020-10-29T19:03:57:907
-0,407146	-0,687573	9,774040	2020-10-29T19:03:57:929
-0,405062	-0,687323	9,774144	2020-10-29T19:03:57:948
-0,405446	-0,691768	9,773815	2020-10-29T19:03:57:970
-0,404076	-0,697019	9,773499	2020-10-29T19:03:57:987
-0,405909	-0,699474	9,773247	2020-10-29T19:03:58:010
-0,406005	-0,697189	9,773406	2020-10-29T19:03:58:028
-0,406587	-0,700523	9,773144	2020-10-29T19:03:58:050
-0,405671	-0,701039	9,773145	2020-10-29T19:03:58:067
-0,405456	-0,703019	9,773011	2020-10-29T19:03:58:091
-0,406096	-0,703471	9,772952	2020-10-29T19:03:58:107
-0,405601	-0,708326	9,772622	2020-10-29T19:03:58:130
-0,404235	-0,709225	9,772614	2020-10-29T19:03:58:147
-0,405429	-0,706576	9,772757	2020-10-29T19:03:58:171
-0,404174	-0,701957	9,773141	2020-10-29T19:03:58:191
-0,404686	-0,703007	9,773045	2020-10-29T19:03:58:218
-0,407929	-0,706271	9,772675	2020-10-29T19:03:58:238
-0,409619	-0,702934	9,772844	2020-10-29T19:03:58:250
-0,408647	-0,702067	9,772947	2020-10-29T19:03:58:267
-0,410088	-0,702028	9,772889	2020-10-29T19:03:58:292
-0,409718	-0,703611	9,772791	2020-10-29T19:03:58:307
-0,409314	-0,703976	9,772781	2020-10-29T19:03:58:329
-0,408085	-0,706841	9,772626	2020-10-29T19:03:58:347
-0,406050	-0,710672	9,772433	2020-10-29T19:03:58:371
-0,404888	-0,709834	9,772542	2020-10-29T19:03:58:387
-0,403551	-0,708224	9,772715	2020-10-29T19:03:58:410
-0,401900	-0,707148	9,772861	2020-10-29T19:03:58:428
-0,404253	-0,708534	9,772663	2020-10-29T19:03:58:450
-0,402849	-0,713168	9,772384	2020-10-29T19:03:58:467
-0,400219	-0,715355	9,772332	2020-10-29T19:03:58:490
-0,401045	-0,713899	9,772405	2020-10-29T19:03:58:507
-0,402830	-0,712395	9,772441	2020-10-29T19:03:58:531
-0,405820	-0,712417	9,772316	2020-10-29T19:03:58:547
-0,407357	-0,717384	9,771889	2020-10-29T19:03:58:570
-0,409763	-0,721760	9,771465	2020-10-29T19:03:58:587
-0,410320	-0,717380	9,771765	2020-10-29T19:03:58:611
-0,414016	-0,718423	9,771532	2020-10-29T19:03:58:627
-0,414020	-0,719298	9,771468	2020-10-29T19:03:58:650
-0,414515	-0,718963	9,771471	2020-10-29T19:03:58:668
-0,413390	-0,720521	9,771404	2020-10-29T19:03:58:691
-0,416128	-0,721211	9,771237	2020-10-29T19:03:58:707
-0,419521	-0,718933	9,771260	2020-10-29T19:03:58:730
-0,417868	-0,721007	9,771178	2020-10-29T19:03:58:747
-0,416730	-0,718454	9,771415	2020-10-29T19:03:58:771
-0,417300	-0,715275	9,771624	2020-10-29T19:03:58:788
-0,414386	-0,712750	9,771932	2020-10-29T19:03:58:811
-0,415374	-0,709863	9,772100	2020-10-29T19:03:58:827
-0,416024	-0,708324	9,772184	2020-10-29T19:03:58:851
-0,417384	-0,706280	9,772274	2020-10-29T19:03:58:867
-0,418533	-0,704098	9,772383	2020-10-29T19:03:58:891
-0,418349	-0,705076	9,772320	2020-10-29T19:03:58:909
-0,421412	-0,701914	9,772416	2020-10-29T19:03:58:931
-0,421737	-0,704550	9,772212	2020-10-29T19:03:58:948
-0,421347	-0,701099	9,772477	2020-10-29T19:03:58:970
-0,420703	-0,701397	9,772484	2020-10-29T19:03:58:988
-0,418558	-0,703426	9,772429	2020-10-29T19:03:59:011
-0,421391	-0,699116	9,772617	2020-10-29T19:03:59:027
-0,419611	-0,699257	9,772684	2020-10-29T19:03:59:050
-0,419885	-0,703361	9,772378	2020-10-29T19:03:59:067
-0,422754	-0,708817	9,771860	2020-10-29T19:03:59:092
-0,421328	-0,704201	9,772255	2020-10-29T19:03:59:107
-0,421202	-0,705396	9,772174	2020-10-29T19:03:59:130
-0,420485	-0,704431	9,772275	2020-10-29T19:03:59:149
-0,422040	-0,705292	9,772145	2020-10-29T19:03:59:171
-0,422538	-0,701578	9,772391	2020-10-29T19:03:59:188
-0,424208	-0,702750	9,772235	2020-10-29T19:03:59:211
-0,421869	-0,699828	9,772546	2020-10-29T19:03:59:228
-0,423393	-0,699895	9,772475	2020-10-29T19:03:59:251
-0,424500	-0,702605	9,772233	2020-10-29T19:03:59:268
-0,422590	-0,704877	9,772152	2020-10-29T19:03:59:291
-0,423468	-0,704642	9,772131	2020-10-29T19:03:59:308
-0,424338	-0,704894	9,772075	2020-10-29T19:03:59:331
-0,427630	-0,705135	9,771914	2020-10-29T19:03:59:348
-0,431784	-0,707531	9,771558	2020-10-29T19:03:59:371
-0,429581	-0,710268	9,771457	2020-10-29T19:03:59:390
-0,430588	-0,709159	9,771493	2020-10-29T19:03:59:412
-0,433601	-0,708906	9,771378	2020-10-29T19:03:59:427
-0,434879	-0,705165	9,771592	2020-10-29T19:03:59:452
-0,435395	-0,707458	9,771403	2020-10-29T19:03:59:469
-0,436983	-0,713064	9,770925	2020-10-29T19:03:59:492
-0,433739	-0,719791	9,770576	2020-10-29T19:03:59:508
-0,436354	-0,715265	9,770792	2020-10-29T19:03:59:531
-0,434072	-0,714142	9,770976	2020-10-29T19:03:59:548
-0,432956	-0,716735	9,770835	2020-10-29T19:03:59:572
-0,433125	-0,716335	9,770857	2020-10-29T19:03:59:589
-0,435752	-0,712105	9,771049	2020-10-29T19:03:59:611
-0,435986	-0,707547	9,771370	2020-10-29T19:03:59:629
-0,434345	-0,707545	9,771443	2020-10-29T19:03:59:652
-0,435327	-0,709710	9,771243	2020-10-29T19:03:59:668
-0,437318	-0,706099	9,771416	2020-10-29T19:03:59:692
-0,437120	-0,706299	9,771410	2020-10-29T19:03:59:709
-0,436622	-0,707458	9,771348	2020-10-29T19:03:59:731
-0,436485	-0,707713	9,771336	2020-10-29T19:03:59:747
-0,433391	-0,707764	9,771470	2020-10-29T19:03:59:770
-0,431603	-0,705679	9,771700	2020-10-29T19:03:59:788
-0,429124	-0,703518	9,771965	2020-10-29T19:03:59:812
-0,431633	-0,708961	9,771461	2020-10-29T19:03:59:827
-0,432238	-0,703184	9,771852	2020-10-29T19:03:59:850
-0,431990	-0,698927	9,772168	2020-10-29T19:03:59:869
-0,432513	-0,700291	9,772047	2020-10-29T19:03:59:892
-0,433444	-0,708297	9,771429	2020-10-29T19:03:59:907
-0,431267	-0,708262	9,771528	2020-10-29T19:03:59:930
-0,433061	-0,707123	9,771531	2020-10-29T19:03:59:948
-0,434170	-0,709736	9,771293	2020-10-29T19:03:59:971
-0,435313	-0,714545	9,770891	2020-10-29T19:03:59:988
-0,435994	-0,716183	9,770741	2020-10-29T19:04:00:011
-0,435335	-0,718409	9,770607	2020-10-29T19:04:00:027
-0,434059	-0,719196	9,770606	2020-10-29T19:04:00:051
-0,429679	-0,721860	9,770603	2020-10-29T19:04:00:067
-0,427617	-0,724182	9,770521	2020-10-29T19:04:00:091
-0,426726	-0,726898	9,770359	2020-10-29T19:04:00:109
-0,426093	-0,725892	9,770461	2020-10-29T19:04:00:131
-0,424335	-0,730501	9,770194	2020-10-29T19:04:00:148
-0,424991	-0,734278	9,769882	2020-10-29T19:04:00:172
-0,426164	-0,739032	9,769473	2020-10-29T19:04:00:188
-0,422775	-0,745803	9,769106	2020-10-29T19:04:00:213
-0,422127	-0,744200	9,769256	2020-10-29T19:04:00:228
-0,418469	-0,745719	9,769298	2020-10-29T19:04:00:251
-0,418466	-0,748918	9,769053	2020-10-29T19:04:00:268
-0,417505	-0,749458	9,769053	2020-10-29T19:04:00:292
-0,418001	-0,754174	9,768668	2020-10-29T19:04:00:308
-0,415409	-0,754646	9,768743	2020-10-29T19:04:00:331
-0,415025	-0,756424	9,768621	2020-10-29T19:04:00:349
-0,418634	-0,746409	9,769238	2020-10-29T19:04:00:372
-0,414740	-0,752717	9,768920	2020-10-29T19:04:00:388
-0,414354	-0,755993	9,768683	2020-10-29T19:04:00:412
-0,412911	-0,756262	9,768723	2020-10-29T19:04:00:428
-0,414248	-0,754405	9,768810	2020-10-29T19:04:00:452
-0,412603	-0,760208	9,768430	2020-10-29T19:04:00:468
-0,414141	-0,770978	9,767521	2020-10-29T19:04:00:491
-0,411945	-0,771478	9,767574	2020-10-29T19:04:00:508
-0,411675	-0,771732	9,767566	2020-10-29T19:04:00:532
-0,408238	-0,772838	9,767622	2020-10-29T19:04:00:548
-0,411978	-0,779891	9,766905	2020-10-29T19:04:00:571
-0,409690	-0,787206	9,766414	2020-10-29T19:04:00:590
-0,407487	-0,785122	9,766674	2020-10-29T19:04:00:612
-0,407313	-0,785927	9,766617	2020-10-29T19:04:00:628
-0,408395	-0,795152	9,765824	2020-10-29T19:04:00:651
-0,403819	-0,801489	9,765497	2020-10-29T19:04:00:668
-0,399926	-0,805723	9,765308	2020-10-29T19:04:00:692
-0,400280	-0,798796	9,765863	2020-10-29T19:04:00:708
-0,400615	-0,803605	9,765455	2020-10-29T19:04:00:732
-0,400815	-0,805180	9,765317	2020-10-29T19:04:00:748
-0,401284	-0,807989	9,765066	2020-10-29T19:04:00:772
-0,399485	-0,806714	9,765244	2020-10-29T19:04:00:789
-0,400494	-0,804213	9,765409	2020-10-29T19:04:00:811
-0,400741	-0,808131	9,765077	2020-10-29T19:04:00:830
-0,400092	-0,812553	9,764736	2020-10-29T19:04:00:852
-0,399959	-0,810139	9,764942	2020-10-29T19:04:00:869
-0,397246	-0,815621	9,764596	2020-10-29T19:04:00:893
-0,398451	-0,815740	9,764538	2020-10-29T19:04:00:909
-0,399382	-0,816038	9,764474	2020-10-29T19:04:00:932
-0,400901	-0,815825	9,764430	2020-10-29T19:04:00:949
-0,397823	-0,815687	9,764567	2020-10-29T19:04:00:971
-0,399625	-0,813385	9,764686	2020-10-29T19:04:00:989
-0,399519	-0,814583	9,764590	2020-10-29T19:04:01:013
-0,399649	-0,815353	9,764521	2020-10-29T19:04:01:029
-0,401343	-0,818160	9,764216	2020-10-29T19:04:01:051
-0,402403	-0,818418	9,764152	2020-10-29T19:04:01:071
-0,401073	-0,827862	9,763410	2020-10-29T19:04:01:093
-0,400089	-0,828243	9,763418	2020-10-29T19:04:01:109
-0,398619	-0,827082	9,763577	2020-10-29T19:04:01:132
-0,397947	-0,828651	9,763471	2020-10-29T19:04:01:149
-0,397221	-0,828285	9,763532	2020-10-29T19:04:01:172
-0,398336	-0,830950	9,763260	2020-10-29T19:04:01:189
-0,399718	-0,832406	9,763079	2020-10-29T19:04:01:212
-0,400277	-0,837473	9,762623	2020-10-29T19:04:01:229
-0,396930	-0,836025	9,762883	2020-10-29T19:04:01:251
-0,395271	-0,840100	9,762601	2020-10-29T19:04:01:269
-0,398220	-0,842725	9,762255	2020-10-29T19:04:01:293
-0,396376	-0,840001	9,762565	2020-10-29T19:04:01:310
-0,394578	-0,837478	9,762855	2020-10-29T19:04:01:331
-0,397016	-0,835084	9,762960	2020-10-29T19:04:01:349
-0,400463	-0,832407	9,763048	2020-10-29T19:04:01:373
-0,399074	-0,831626	9,763172	2020-10-29T19:04:01:390
-0,398309	-0,830029	9,763339	2020-10-29T19:04:01:411
-0,398544	-0,827845	9,763515	2020-10-29T19:04:01:429
-0,401599	-0,827881	9,763387	2020-10-29T19:04:01:451
-0,403103	-0,826652	9,763429	2020-10-29T19:04:01:469
-0,399155	-0,826598	9,763596	2020-10-29T19:04:01:493
-0,401037	-0,826941	9,763490	2020-10-29T19:04:01:509
-0,400499	-0,832065	9,763076	2020-10-29T19:04:01:531
-0,398555	-0,829388	9,763383	2020-10-29T19:04:01:550
-0,396103	-0,828238	9,763580	2020-10-29T19:04:01:571
-0,395478	-0,830717	9,763395	2020-10-29T19:04:01:589
-0,397880	-0,829284	9,763419	2020-10-29T19:04:01:613
-0,394692	-0,832998	9,763233	2020-10-29T19:04:01:629
-0,394489	-0,835368	9,763039	2020-10-29T19:04:01:653
-0,396130	-0,835915	9,762925	2020-10-29T19:04:01:671
-0,398704	-0,834041	9,762980	2020-10-29T19:04:01:693
-0,400475	-0,837111	9,762646	2020-10-29T19:04:01:709
-0,402562	-0,833927	9,762833	2020-10-29T19:04:01:734
-0,402935	-0,834402	9,762776	2020-10-29T19:04:01:749
-0,404877	-0,831053	9,762981	2020-10-29T19:04:01:772
-0,404778	-0,831380	9,762958	2020-10-29T19:04:01:790
-0,404522	-0,832462	9,762877	2020-10-29T19:04:01:813
-0,404901	-0,835619	9,762590	2020-10-29T19:04:01:829
-0,404910	-0,833470	9,762774	2020-10-29T19:04:01:853
-0,404204	-0,834933	9,762678	2020-10-29T19:04:01:869
-0,406444	-0,837081	9,762402	2020-10-29T19:04:01:893
-0,407469	-0,837634	9,762311	2020-10-29T19:04:01:910
-0,407943	-0,831508	9,762815	2020-10-29T19:04:01:932
-0,408738	-0,825527	9,763289	2020-10-29T19:04:01:949
-0,410353	-0,823891	9,763360	2020-10-29T19:04:01:972
-0,412659	-0,832358	9,762545	2020-10-29T19:04:01:990
-0,412771	-0,833249	9,762464	2020-10-29T19:04:02:013
-0,411550	-0,833939	9,762457	2020-10-29T19:04:02:031
-0,414088	-0,835661	9,762202	2020-10-29T19:04:02:052
-0,416081	-0,829632	9,762631	2020-10-29T19:04:02:069
-0,417062	-0,825747	9,762918	2020-10-29T19:04:02:093
-0,415534	-0,828179	9,762778	2020-10-29T19:04:02:110
-0,415539	-0,829726	9,762647	2020-10-29T19:04:02:132
-0,415131	-0,824280	9,763125	2020-10-29T19:04:02:151
-0,413077	-0,829694	9,762753	2020-10-29T19:04:02:172
-0,415310	-0,832470	9,762423	2020-10-29T19:04:02:190
-0,415987	-0,833472	9,762308	2020-10-29T19:04:02:213
-0,414896	-0,831056	9,762561	2020-10-29T19:04:02:229
-0,416138	-0,828459	9,762729	2020-10-29T19:04:02:252
-0,416675	-0,823409	9,763133	2020-10-29T19:04:02:271
-0,418218	-0,826919	9,762771	2020-10-29T19:04:02:293
-0,416159	-0,828034	9,762764	2020-10-29T19:04:02:310
-0,417876	-0,825406	9,762913	2020-10-29T19:04:02:333
-0,415314	-0,823682	9,763168	2020-10-29T19:04:02:350
-0,414198	-0,818130	9,763682	2020-10-29T19:04:02:372
-0,415098	-0,818550	9,763609	2020-10-29T19:04:02:390
-0,414174	-0,820801	9,763459	2020-10-29T19:04:02:413
-0,418949	-0,820964	9,763242	2020-10-29T19:04:02:430
-0,421762	-0,823945	9,762869	2020-10-29T19:04:02:453
-0,421900	-0,822153	9,763014	2020-10-29T19:04:02:470
-0,425351	-0,825066	9,762619	2020-10-29T19:04:02:493
-0,426075	-0,830504	9,762126	2020-10-29T19:04:02:511
-0,429070	-0,832949	9,761786	2020-10-29T19:04:02:533
-0,426408	-0,829968	9,762157	2020-10-29T19:04:02:550
-0,428872	-0,830642	9,761992	2020-10-29T19:04:02:573
-0,429990	-0,832139	9,761815	2020-10-29T19:04:02:591
-0,430721	-0,831692	9,761821	2020-10-29T19:04:02:613
-0,425578	-0,833349	9,761906	2020-10-29T19:04:02:630
-0,430324	-0,830552	9,761936	2020-10-29T19:04:02:653
-0,430044	-0,831162	9,761896	2020-10-29T19:04:02:670
-0,433902	-0,837580	9,761177	2020-10-29T19:04:02:694
-0,434266	-0,838441	9,761086	2020-10-29T19:04:02:711
-0,437522	-0,837337	9,761036	2020-10-29T19:04:02:733
-0,435929	-0,836213	9,761204	2020-10-29T19:04:02:751
-0,432871	-0,834827	9,761458	2020-10-29T19:04:02:773
-0,434005	-0,838160	9,761123	2020-10-29T19:04:02:791
-0,432371	-0,838450	9,761170	2020-10-29T19:04:02:813
-0,430304	-0,837909	9,761308	2020-10-29T19:04:02:830
-0,434125	-0,838503	9,761087	2020-10-29T19:04:02:853
-0,434858	-0,839855	9,760939	2020-10-29T19:04:02:871
-0,428810	-0,835013	9,761621	2020-10-29T19:04:02:895
-0,428774	-0,835193	9,761608	2020-10-29T19:04:02:911
-0,428122	-0,829493	9,762122	2020-10-29T19:04:02:933
-0,426720	-0,832532	9,761926	2020-10-29T19:04:02:951
-0,427578	-0,833087	9,761841	2020-10-29T19:04:02:973
-0,428846	-0,830882	9,761972	2020-10-29T19:04:02:994
-0,431729	-0,828940	9,762011	2020-10-29T19:04:03:014
-0,432129	-0,829945	9,761908	2020-10-29T19:04:03:030
-0,433546	-0,829077	9,761919	2020-10-29T19:04:03:053
-0,430850	-0,827761	9,762150	2020-10-29T19:04:03:071
-0,429265	-0,832695	9,761800	2020-10-29T19:04:03:094
-0,429236	-0,832976	9,761777	2020-10-29T19:04:03:111
-0,427894	-0,830107	9,762080	2020-10-29T19:04:03:133
-0,426517	-0,830324	9,762122	2020-10-29T19:04:03:150
-0,427558	-0,829641	9,762135	2020-10-29T19:04:03:173
-0,426429	-0,826993	9,762409	2020-10-29T19:04:03:191
-0,428067	-0,830988	9,761998	2020-10-29T19:04:03:213
-0,430417	-0,833620	9,761670	2020-10-29T19:04:03:233
-0,430974	-0,835149	9,761515	2020-10-29T19:04:03:253
-0,429464	-0,835015	9,761593	2020-10-29T19:04:03:271
-0,430358	-0,835907	9,761477	2020-10-29T19:04:03:294
-0,431133	-0,838303	9,761237	2020-10-29T19:04:03:311
-0,430808	-0,836564	9,761401	2020-10-29T19:04:03:333
-0,434552	-0,838108	9,761103	2020-10-29T19:04:03:351
-0,437182	-0,834762	9,761271	2020-10-29T19:04:03:374
-0,436580	-0,833986	9,761365	2020-10-29T19:04:03:391
-0,435727	-0,837625	9,761091	2020-10-29T19:04:03:414
-0,434275	-0,841657	9,760810	2020-10-29T19:04:03:431
-0,434487	-0,842056	9,760766	2020-10-29T19:04:03:454
-0,430079	-0,839563	9,761176	2020-10-29T19:04:03:471
-0,433367	-0,833190	9,761577	2020-10-29T19:04:03:494
-0,434274	-0,842767	9,760714	2020-10-29T19:04:03:511
-0,434210	-0,842711	9,760721	2020-10-29T19:04:03:534
-0,436578	-0,844327	9,760476	2020-10-29T19:04:03:551
-0,438857	-0,839003	9,760833	2020-10-29T19:04:03:573
-0,440102	-0,837996	9,760863	2020-10-29T19:04:03:591
-0,438468	-0,844415	9,760384	2020-10-29T19:04:03:615
-0,437730	-0,844175	9,760438	2020-10-29T19:04:03:631
-0,436185	-0,843839	9,760536	2020-10-29T19:04:03:653
-0,437673	-0,842078	9,760621	2020-10-29T19:04:03:671
-0,439092	-0,847494	9,760089	2020-10-29T19:04:03:694
-0,439690	-0,847188	9,760089	2020-10-29T19:04:03:712
-0,438272	-0,848235	9,760061	2020-10-29T19:04:03:734
-0,436353	-0,848260	9,760145	2020-10-29T19:04:03:751
-0,437449	-0,851424	9,759821	2020-10-29T19:04:03:774
-0,433715	-0,851620	9,759971	2020-10-29T19:04:03:791
-0,431095	-0,847669	9,760430	2020-10-29T19:04:03:814
-0,431272	-0,847055	9,760476	2020-10-29T19:04:03:831
-0,431366	-0,845802	9,760580	2020-10-29T19:04:03:854
-0,432667	-0,846657	9,760448	2020-10-29T19:04:03:871
-0,430589	-0,847096	9,760502	2020-10-29T19:04:03:894
-0,432379	-0,847383	9,760398	2020-10-29T19:04:03:911
-0,432967	-0,852251	9,759949	2020-10-29T19:04:03:934
-0,433823	-0,854568	9,759707	2020-10-29T19:04:03:952
-0,436248	-0,857158	9,759373	2020-10-29T19:04:03:974
-0,436388	-0,856397	9,759433	2020-10-29T19:04:03:991
-0,436212	-0,858476	9,759258	2020-10-29T19:04:04:014
-0,432829	-0,858790	9,759381	2020-10-29T19:04:04:031
-0,432531	-0,861248	9,759178	2020-10-29T19:04:04:055
-0,433119	-0,861376	9,759141	2020-10-29T19:04:04:071
-0,431889	-0,864519	9,758917	2020-10-29T19:04:04:095
-0,431569	-0,859764	9,759352	2020-10-29T19:04:04:111
-0,433328	-0,858460	9,759388	2020-10-29T19:04:04:134
-0,430452	-0,857508	9,759599	2020-10-29T19:04:04:151
-0,432368	-0,855640	9,759679	2020-10-29T19:04:04:174
-0,430962	-0,854297	9,759858	2020-10-29T19:04:04:193
-0,430619	-0,855139	9,759800	2020-10-29T19:04:04:214
-0,432126	-0,852701	9,759947	2020-10-29T19:04:04:231
-0,431312	-0,854513	9,759824	2020-10-29T19:04:04:254
-0,432073	-0,855260	9,759725	2020-10-29T19:04:04:272
-0,427887	-0,856150	9,759831	2020-10-29T19:04:04:294
-0,429638	-0,858167	9,759577	2020-10-29T19:04:04:312
-0,432170	-0,856477	9,759614	2020-10-29T19:04:04:334
-0,433240	-0,850148	9,760119	2020-10-29T19:04:04:351
-0,433482	-0,856616	9,759543	2020-10-29T19:04:04:375
-0,433578	-0,856139	9,759581	2020-10-29T19:04:04:392
-0,435834	-0,857402	9,759370	2020-10-29T19:04:04:415
-0,434670	-0,860196	9,759175	2020-10-29T19:04:04:433
-0,432169	-0,857486	9,759525	2020-10-29T19:04:04:454
-0,434091	-0,856107	9,759561	2020-10-29T19:04:04:471
-0,432333	-0,859231	9,759364	2020-10-29T19:04:04:495
-0,434094	-0,863827	9,758881	2020-10-29T19:04:04:512
-0,436118	-0,860884	9,759050	2020-10-29T19:04:04:534
-0,433909	-0,858624	9,759348	2020-10-29T19:04:04:552
-0,435391	-0,858658	9,759279	2020-10-29T19:04:04:575
-0,436008	-0,862581	9,758905	2020-10-29T19:04:04:593
-0,436087	-0,861081	9,759034	2020-10-29T19:04:04:616
-0,437632	-0,863921	9,758714	2020-10-29T19:04:04:632
-0,437124	-0,865675	9,758581	2020-10-29T19:04:04:655
-0,433962	-0,865174	9,758767	2020-10-29T19:04:04:673
-0,432663	-0,863879	9,758940	2020-10-29T19:04:04:695
-0,431836	-0,863790	9,758984	2020-10-29T19:04:04:712
-0,430249	-0,865540	9,758899	2020-10-29T19:04:04:735
-0,428550	-0,864210	9,759091	2020-10-29T19:04:04:752
-0,427457	-0,858424	9,759650	2020-10-29T19:04:04:775
-0,426701	-0,861981	9,759370	2020-10-29T19:04:04:793
-0,425658	-0,865378	9,759114	2020-10-29T19:04:04:815
-0,424497	-0,865378	9,759165	2020-10-29T19:04:04:832
-0,415977	-0,870768	9,759053	2020-10-29T19:04:04:856
-0,416536	-0,871589	9,758956	2020-10-29T19:04:04:873
-0,415705	-0,873443	9,758825	2020-10-29T19:04:04:895
-0,415655	-0,873756	9,758800	2020-10-29T19:04:04:913
-0,414401	-0,872202	9,758991	2020-10-29T19:04:04:935
-0,418182	-0,874245	9,758648	2020-10-29T19:04:04:952
-0,416810	-0,879647	9,758221	2020-10-29T19:04:04:975
-0,418805	-0,877777	9,758304	2020-10-29T19:04:05:015
-0,420466	-0,871940	9,758756	2020-10-29T19:04:05:245
-0,416597	-0,874217	9,758718	2020-10-29T19:04:05:246
-0,415479	-0,873391	9,758840	2020-10-29T19:04:05:247
-0,417934	-0,873454	9,758729	2020-10-29T19:04:05:248
-0,414971	-0,873258	9,758873	2020-10-29T19:04:05:252
-0,417064	-0,876970	9,758451	2020-10-29T19:04:05:253
-0,413318	-0,879237	9,758407	2020-10-29T19:04:05:255
-0,415615	-0,884019	9,757876	2020-10-29T19:04:05:263
-0,415329	-0,885756	9,757731	2020-10-29T19:04:05:264
-0,413502	-0,884427	9,757930	2020-10-29T19:04:05:265
-0,413571	-0,879139	9,758405	2020-10-29T19:04:05:265
-0,412298	-0,886823	9,757763	2020-10-29T19:04:05:266
-0,413520	-0,888257	9,757581	2020-10-29T19:04:05:267
-0,412103	-0,886503	9,757800	2020-10-29T19:04:05:276
-0,412118	-0,884567	9,757976	2020-10-29T19:04:05:294
-0,412125	-0,885430	9,757896	2020-10-29T19:04:05:311
-0,414996	-0,887016	9,757631	2020-10-29T19:04:05:335
-0,416159	-0,881192	9,758109	2020-10-29T19:04:05:353
-0,417926	-0,883377	9,757836	2020-10-29T19:04:05:375
-0,421890	-0,885484	9,757475	2020-10-29T19:04:05:395
-0,417200	-0,886921	9,757545	2020-10-29T19:04:05:415
-0,417240	-0,886216	9,757608	2020-10-29T19:04:05:432
-0,418503	-0,883046	9,757841	2020-10-29T19:04:05:455
-0,418222	-0,887205	9,757476	2020-10-29T19:04:05:474
-0,416623	-0,884077	9,757829	2020-10-29T19:04:05:496
-0,414812	-0,879406	9,758327	2020-10-29T19:04:05:513
-0,415406	-0,880748	9,758182	2020-10-29T19:04:05:536
-0,417277	-0,885012	9,757716	2020-10-29T19:04:05:552
-0,414628	-0,883065	9,758005	2020-10-29T19:04:05:576
-0,415195	-0,881092	9,758160	2020-10-29T19:04:05:595
-0,412289	-0,881228	9,758270	2020-10-29T19:04:05:647
-0,410160	-0,883430	9,758161	2020-10-29T19:04:05:649
-0,413274	-0,882783	9,758088	2020-10-29T19:04:05:668
-0,411490	-0,886282	9,757846	2020-10-29T19:04:05:675
-0,411327	-0,881630	9,758274	2020-10-29T19:04:05:697
-0,412301	-0,879974	9,758383	2020-10-29T19:04:05:735
-0,412838	-0,879016	9,758447	2020-10-29T19:04:05:815
-0,411605	-0,878543	9,758541	2020-10-29T19:04:05:833
-0,414657	-0,875678	9,758670	2020-10-29T19:04:05:855
-0,411910	-0,877649	9,758609	2020-10-29T19:04:05:873
-0,412256	-0,878458	9,758521	2020-10-29T19:04:05:901
-0,408836	-0,875902	9,758895	2020-10-29T19:04:05:913
-0,408689	-0,875043	9,758978	2020-10-29T19:04:05:936
-0,407220	-0,879899	9,758603	2020-10-29T19:04:05:953
-0,408228	-0,885181	9,758083	2020-10-29T19:04:05:977
-0,408839	-0,886245	9,757961	2020-10-29T19:04:05:994
-0,408760	-0,886295	9,757960	2020-10-29T19:04:06:016
-0,408330	-0,889387	9,757696	2020-10-29T19:04:06:034
-0,407222	-0,892642	9,757445	2020-10-29T19:04:06:057
-0,409464	-0,887335	9,757835	2020-10-29T19:04:06:084
-0,408520	-0,890605	9,757578	2020-10-29T19:04:10:140
-0,412427	-0,893709	9,757130	2020-10-29T19:04:10:141
-0,412029	-0,897375	9,756809	2020-10-29T19:04:10:142
-0,414950	-0,897566	9,756668	2020-10-29T19:04:10:158
-0,416474	-0,899111	9,756461	2020-10-29T19:04:10:182
-0,417389	-0,901225	9,756227	2020-10-29T19:04:10:197
-0,419514	-0,911184	9,755211	2020-10-29T19:04:10:219
-0,419596	-0,911747	9,755155	2020-10-29T19:04:10:235
-0,414171	-0,912641	9,755302	2020-10-29T19:04:10:258
-0,412896	-0,919595	9,754704	2020-10-29T19:04:10:276
-0,410432	-0,926335	9,754170	2020-10-29T19:04:10:298
-0,411753	-0,925200	9,754222	2020-10-29T19:04:10:316
-0,409592	-0,927379	9,754107	2020-10-29T19:04:10:339
-0,410710	-0,932893	9,753533	2020-10-29T19:04:10:357
-0,413195	-0,931660	9,753546	2020-10-29T19:04:10:378
-0,413064	-0,938365	9,752909	2020-10-29T19:04:10:402
-0,411833	-0,943172	9,752498	2020-10-29T19:04:10:418
-0,413765	-0,942683	9,752463	2020-10-29T19:04:10:436
-0,411653	-0,944928	9,752335	2020-10-29T19:04:10:459
-0,412487	-0,944238	9,752367	2020-10-29T19:04:10:476
-0,412000	-0,950312	9,751797	2020-10-29T19:04:10:500
-0,409124	-0,952667	9,751688	2020-10-29T19:04:10:516
-0,407961	-0,952998	9,751705	2020-10-29T19:04:10:539
-0,408380	-0,955822	9,751410	2020-10-29T19:04:10:555
-0,407227	-0,960687	9,750981	2020-10-29T19:04:10:579
-0,406123	-0,959963	9,751099	2020-10-29T19:04:10:596
-0,410162	-0,959337	9,750991	2020-10-29T19:04:10:618
-0,408920	-0,958710	9,751104	2020-10-29T19:04:10:637
-0,408798	-0,962114	9,750774	2020-10-29T19:04:10:658
-0,409187	-0,959162	9,751049	2020-10-29T19:04:10:676
-0,406415	-0,961116	9,750973	2020-10-29T19:04:10:698
-0,409632	-0,958955	9,751051	2020-10-29T19:04:10:716
-0,413164	-0,963278	9,750476	2020-10-29T19:04:10:739
-0,412002	-0,963785	9,750475	2020-10-29T19:04:10:756
-0,413955	-0,963188	9,750451	2020-10-29T19:04:10:779
-0,415500	-0,965384	9,750168	2020-10-29T19:04:10:796
-0,419119	-0,966638	9,749889	2020-10-29T19:04:10:820
-0,418543	-0,967511	9,749827	2020-10-29T19:04:10:836
-0,418705	-0,967354	9,749836	2020-10-29T19:04:10:859
-0,419754	-0,967048	9,749821	2020-10-29T19:04:10:877
-0,420565	-0,966932	9,749798	2020-10-29T19:04:10:899
-0,421566	-0,966960	9,749751	2020-10-29T19:04:10:916
-0,418592	-0,968895	9,749687	2020-10-29T19:04:10:939
-0,419223	-0,969272	9,749623	2020-10-29T19:04:10:956
-0,417540	-0,971780	9,749446	2020-10-29T19:04:10:979
-0,418449	-0,971530	9,749432	2020-10-29T19:04:10:996
-0,415855	-0,973742	9,749322	2020-10-29T19:04:11:019
-0,415471	-0,975006	9,749212	2020-10-29T19:04:11:037
-0,416805	-0,969361	9,749718	2020-10-29T19:04:11:059
-0,417512	-0,969765	9,749647	2020-10-29T19:04:11:077
-0,416634	-0,970637	9,749599	2020-10-29T19:04:11:099
-0,414720	-0,970404	9,749703	2020-10-29T19:04:11:118
-0,416088	-0,968896	9,749795	2020-10-29T19:04:11:140
-0,416854	-0,969498	9,749702	2020-10-29T19:04:11:156
-0,414131	-0,968686	9,749899	2020-10-29T19:04:11:180
-0,416715	-0,967328	9,749924	2020-10-29T19:04:11:197
-0,418683	-0,976949	9,748880	2020-10-29T19:04:11:220
-0,418045	-0,977110	9,748891	2020-10-29T19:04:11:237
-0,415131	-0,983346	9,748388	2020-10-29T19:04:11:259
-0,418050	-0,983618	9,748237	2020-10-29T19:04:11:277
-0,416940	-0,978239	9,748825	2020-10-29T19:04:11:300
-0,416826	-0,978252	9,748829	2020-10-29T19:04:11:317
-0,413392	-0,983020	9,748495	2020-10-29T19:04:11:340
-0,415643	-0,981402	9,748563	2020-10-29T19:04:11:357
-0,411646	-0,982378	9,748634	2020-10-29T19:04:11:380
-0,412242	-0,980702	9,748777	2020-10-29T19:04:11:397
-0,411398	-0,978157	9,749069	2020-10-29T19:04:11:420
-0,410706	-0,977773	9,749137	2020-10-29T19:04:11:439
-0,409615	-0,979193	9,749040	2020-10-29T19:04:11:460
-0,412016	-0,979027	9,748956	2020-10-29T19:04:11:479
-0,409913	-0,975336	9,749414	2020-10-29T19:04:11:500
-0,409708	-0,980510	9,748903	2020-10-29T19:04:11:518
-0,410450	-0,978916	9,749033	2020-10-29T19:04:11:540
-0,410294	-0,977307	9,749201	2020-10-29T19:04:11:558
-0,409020	-0,973673	9,749618	2020-10-29T19:04:11:580
-0,409569	-0,970374	9,749924	2020-10-29T19:04:11:599
-0,409593	-0,971525	9,749808	2020-10-29T19:04:11:619
-0,412284	-0,971027	9,749744	2020-10-29T19:04:11:637
-0,412733	-0,972224	9,749606	2020-10-29T19:04:11:660
-0,410873	-0,975083	9,749399	2020-10-29T19:04:11:678
-0,412248	-0,975488	9,749300	2020-10-29T19:04:11:699
-0,411973	-0,972504	9,749610	2020-10-29T19:04:11:718
-0,414381	-0,976278	9,749131	2020-10-29T19:04:11:741
-0,415606	-0,976749	9,749032	2020-10-29T19:04:11:757
-0,415671	-0,974204	9,749284	2020-10-29T19:04:11:780
-0,413756	-0,973444	9,749441	2020-10-29T19:04:11:798
-0,413226	-0,975811	9,749227	2020-10-29T19:04:11:820
-0,415697	-0,970040	9,749698	2020-10-29T19:04:11:838
-0,412435	-0,967784	9,750060	2020-10-29T19:04:11:860
-0,414057	-0,964079	9,750359	2020-10-29T19:04:11:877
-0,416018	-0,967971	9,749889	2020-10-29T19:04:11:900
-0,414590	-0,965696	9,750175	2020-10-29T19:04:11:918
-0,414909	-0,959765	9,750748	2020-10-29T19:04:11:941
-0,413889	-0,955992	9,751162	2020-10-29T19:04:11:958
-0,413555	-0,958784	9,750902	2020-10-29T19:04:11:980
-0,416904	-0,956974	9,750937	2020-10-29T19:04:11:997
-0,415950	-0,955531	9,751120	2020-10-29T19:04:12:020
-0,416065	-0,956822	9,750988	2020-10-29T19:04:12:038
-0,415703	-0,964362	9,750260	2020-10-29T19:04:12:061
-0,416171	-0,964803	9,750197	2020-10-29T19:04:12:079
-0,418277	-0,960098	9,750571	2020-10-29T19:04:12:100
-0,417847	-0,959293	9,750669	2020-10-29T19:04:12:117
-0,420088	-0,959718	9,750531	2020-10-29T19:04:12:141
-0,417134	-0,958752	9,750752	2020-10-29T19:04:12:157
-0,416657	-0,961661	9,750486	2020-10-29T19:04:12:180
-0,418331	-0,960229	9,750556	2020-10-29T19:04:12:198
-0,417609	-0,961353	9,750476	2020-10-29T19:04:12:220
-0,415501	-0,960143	9,750686	2020-10-29T19:04:12:238
-0,415917	-0,961093	9,750574	2020-10-29T19:04:12:260
-0,414371	-0,961645	9,750586	2020-10-29T19:04:12:278
-0,415624	-0,963175	9,750381	2020-10-29T19:04:12:300
-0,416451	-0,955730	9,751079	2020-10-29T19:04:12:318
-0,417860	-0,954399	9,751148	2020-10-29T19:04:12:340
-0,418693	-0,955630	9,750993	2020-10-29T19:04:12:357
-0,418678	-0,959036	9,750659	2020-10-29T19:04:12:381
-0,416881	-0,953993	9,751230	2020-10-29T19:04:12:398
-0,412883	-0,954745	9,751327	2020-10-29T19:04:12:420
-0,412340	-0,952641	9,751555	2020-10-29T19:04:12:438
-0,411245	-0,949094	9,751947	2020-10-29T19:04:12:460
-0,413131	-0,946806	9,752090	2020-10-29T19:04:12:477
-0,412350	-0,948073	9,752000	2020-10-29T19:04:12:500
-0,413751	-0,948272	9,751922	2020-10-29T19:04:12:518
-0,415198	-0,946333	9,752048	2020-10-29T19:04:12:541
-0,415245	-0,942662	9,752402	2020-10-29T19:04:12:559
-0,416247	-0,938785	9,752733	2020-10-29T19:04:12:581
-0,415109	-0,941159	9,752553	2020-10-29T19:04:12:598
-0,415334	-0,938569	9,752793	2020-10-29T19:04:12:620
-0,415609	-0,940520	9,752593	2020-10-29T19:04:12:638
-0,417257	-0,938015	9,752764	2020-10-29T19:04:12:660
-0,418667	-0,939451	9,752565	2020-10-29T19:04:12:678
-0,420395	-0,940360	9,752403	2020-10-29T19:04:12:701
-0,418898	-0,940483	9,752456	2020-10-29T19:04:12:718
-0,417711	-0,936450	9,752895	2020-10-29T19:04:12:741
-0,420475	-0,938942	9,752537	2020-10-29T19:04:12:758
-0,422223	-0,937354	9,752614	2020-10-29T19:04:12:781
-0,421438	-0,936249	9,752754	2020-10-29T19:04:12:799
-0,423376	-0,936408	9,752655	2020-10-29T19:04:12:821
-0,424290	-0,933449	9,752899	2020-10-29T19:04:12:838
-0,428383	-0,930667	9,752986	2020-10-29T19:04:12:861
-0,428456	-0,929500	9,753094	2020-10-29T19:04:12:879
-0,430025	-0,931050	9,752877	2020-10-29T19:04:12:900
-0,432352	-0,931893	9,752693	2020-10-29T19:04:12:918
-0,436235	-0,930674	9,752637	2020-10-29T19:04:12:941
-0,436785	-0,934962	9,752202	2020-10-29T19:04:12:958
-0,436625	-0,935743	9,752134	2020-10-29T19:04:12:981
-0,437124	-0,938249	9,751871	2020-10-29T19:04:12:998
-0,438818	-0,932581	9,752339	2020-10-29T19:04:13:020
-0,437386	-0,932993	9,752364	2020-10-29T19:04:13:040
-0,434249	-0,932706	9,752532	2020-10-29T19:04:13:061
-0,435273	-0,930133	9,752731	2020-10-29T19:04:13:079
-0,436691	-0,926059	9,753056	2020-10-29T19:04:13:101
-0,435225	-0,921723	9,753532	2020-10-29T19:04:13:119
-0,438449	-0,927149	9,752873	2020-10-29T19:04:13:141
-0,438117	-0,928658	9,752745	2020-10-29T19:04:13:158
-0,436105	-0,925463	9,753139	2020-10-29T19:04:13:181
-0,437958	-0,924318	9,753164	2020-10-29T19:04:13:198
-0,439082	-0,929127	9,752657	2020-10-29T19:04:13:222
-0,437887	-0,930731	9,752558	2020-10-29T19:04:13:239
-0,435628	-0,932328	9,752506	2020-10-29T19:04:13:261
-0,437238	-0,927778	9,752868	2020-10-29T19:04:13:280
-0,435386	-0,928858	9,752848	2020-10-29T19:04:13:301
-0,433108	-0,931523	9,752695	2020-10-29T19:04:13:319
-0,431034	-0,933804	9,752569	2020-10-29T19:04:13:342
-0,431494	-0,931586	9,752761	2020-10-29T19:04:13:359
-0,431208	-0,928726	9,753046	2020-10-29T19:04:13:381
-0,433842	-0,927788	9,753018	2020-10-29T19:04:13:399
-0,434505	-0,930415	9,752739	2020-10-29T19:04:13:421
-0,433969	-0,932647	9,752549	2020-10-29T19:04:13:439
-0,432717	-0,926992	9,753144	2020-10-29T19:04:13:461
-0,433344	-0,923741	9,753425	2020-10-29T19:04:13:479
-0,437038	-0,926075	9,753038	2020-10-29T19:04:13:501
-0,434858	-0,919239	9,753783	2020-10-29T19:04:13:520
-0,432405	-0,918398	9,753971	2020-10-29T19:04:13:541
-0,434206	-0,917992	9,753929	2020-10-29T19:04:13:558
-0,436296	-0,914315	9,754182	2020-10-29T19:04:13:581
-0,437615	-0,910851	9,754447	2020-10-29T19:04:13:599
-0,437586	-0,911957	9,754345	2020-10-29T19:04:13:621
-0,435795	-0,913391	9,754291	2020-10-29T19:04:13:640
-0,435991	-0,913045	9,754314	2020-10-29T19:04:13:661
-0,436440	-0,908724	9,754698	2020-10-29T19:04:13:679
-0,434657	-0,911410	9,754527	2020-10-29T19:04:13:701
-0,432168	-0,910104	9,754759	2020-10-29T19:04:13:719
-0,433321	-0,911025	9,754622	2020-10-29T19:04:13:742
-0,435574	-0,908786	9,754730	2020-10-29T19:04:13:760
-0,435022	-0,912247	9,754432	2020-10-29T19:04:13:782
-0,434525	-0,912799	9,754402	2020-10-29T19:04:13:799
-0,437514	-0,906135	9,754890	2020-10-29T19:04:13:823
-0,437566	-0,906928	9,754814	2020-10-29T19:04:13:840
-0,441104	-0,908577	9,754501	2020-10-29T19:04:13:862
-0,437978	-0,905153	9,754961	2020-10-29T19:04:13:880
-0,437438	-0,902776	9,755205	2020-10-29T19:04:13:901
-0,437498	-0,911735	9,754369	2020-10-29T19:04:13:919
-0,438990	-0,909788	9,754484	2020-10-29T19:04:13:942
-0,437637	-0,906249	9,754874	2020-10-29T19:04:13:959
-0,436516	-0,909581	9,754614	2020-10-29T19:04:13:981
-0,436018	-0,915224	9,754108	2020-10-29T19:04:14:000
-0,436702	-0,914989	9,754100	2020-10-29T19:04:14:022
-0,435799	-0,919147	9,753750	2020-10-29T19:04:14:039
-0,436486	-0,921710	9,753477	2020-10-29T19:04:14:062
-0,436579	-0,921188	9,753522	2020-10-29T19:04:14:080
-0,436733	-0,924123	9,753238	2020-10-29T19:04:14:101
-0,438430	-0,929065	9,752692	2020-10-29T19:04:14:120
-0,435758	-0,929165	9,752802	2020-10-29T19:04:14:143
-0,434374	-0,924964	9,753263	2020-10-29T19:04:14:159
-0,433814	-0,926057	9,753184	2020-10-29T19:04:14:182
-0,436993	-0,926481	9,753002	2020-10-29T19:04:14:199
-0,439589	-0,927313	9,752807	2020-10-29T19:04:14:222
-0,437644	-0,920753	9,753515	2020-10-29T19:04:14:241
-0,437838	-0,915218	9,754027	2020-10-29T19:04:14:262
-0,436633	-0,920664	9,753570	2020-10-29T19:04:14:280
-0,434244	-0,919809	9,753757	2020-10-29T19:04:14:302
-0,435080	-0,921759	9,753535	2020-10-29T19:04:14:320
-0,439175	-0,922967	9,753238	2020-10-29T19:04:14:343
-0,438533	-0,923518	9,753214	2020-10-29T19:04:14:360
-0,435941	-0,923387	9,753343	2020-10-29T19:04:14:382
-0,435278	-0,925227	9,753198	2020-10-29T19:04:14:400
-0,436630	-0,924420	9,753214	2020-10-29T19:04:14:422
-0,437170	-0,925633	9,753075	2020-10-29T19:04:14:440
-0,436506	-0,923859	9,753273	2020-10-29T19:04:14:462
-0,435180	-0,926779	9,753055	2020-10-29T19:04:14:481
-0,435512	-0,925554	9,753157	2020-10-29T19:04:14:502
-0,438380	-0,924170	9,753160	2020-10-29T19:04:14:520
-0,440955	-0,922144	9,753235	2020-10-29T19:04:14:543
-0,440179	-0,922842	9,753204	2020-10-29T19:04:14:560
-0,437842	-0,922699	9,753323	2020-10-29T19:04:14:582
-0,441850	-0,925838	9,752845	2020-10-29T19:04:14:600
-0,438155	-0,925216	9,753070	2020-10-29T19:04:14:623
-0,438559	-0,924910	9,753081	2020-10-29T19:04:14:640
-0,436165	-0,923240	9,753346	2020-10-29T19:04:14:662
-0,432846	-0,924033	9,753420	2020-10-29T19:04:14:680
-0,435147	-0,925873	9,753142	2020-10-29T19:04:14:702
-0,437351	-0,922525	9,753362	2020-10-29T19:04:14:721
-0,434637	-0,923267	9,753412	2020-10-29T19:04:14:743
-0,434021	-0,923716	9,753397	2020-10-29T19:04:14:760
-0,433221	-0,919372	9,753843	2020-10-29T19:04:14:783
-0,434223	-0,917568	9,753968	2020-10-29T19:04:14:800
-0,433190	-0,916700	9,754096	2020-10-29T19:04:14:824
-0,435470	-0,911406	9,754491	2020-10-29T19:04:14:841
-0,437066	-0,915055	9,754078	2020-10-29T19:04:14:863
-0,438392	-0,913875	9,754128	2020-10-29T19:04:14:880
-0,436287	-0,913918	9,754219	2020-10-29T19:04:14:903
-0,435147	-0,913309	9,754327	2020-10-29T19:04:14:920
-0,435426	-0,909347	9,754684	2020-10-29T19:04:14:944
-0,435308	-0,909129	9,754710	2020-10-29T19:04:14:962
-0,435962	-0,909922	9,754607	2020-10-29T19:04:14:984
-0,435699	-0,911031	9,754516	2020-10-29T19:04:15:000
-0,433911	-0,912148	9,754491	2020-10-29T19:04:15:023
-0,433111	-0,915855	9,754179	2020-10-29T19:04:15:041
-0,434041	-0,914420	9,754272	2020-10-29T19:04:15:064
-0,434319	-0,916886	9,754028	2020-10-29T19:04:15:081
-0,436155	-0,917971	9,753844	2020-10-29T19:04:15:103
-0,434728	-0,916610	9,754036	2020-10-29T19:04:15:120
-0,435942	-0,918029	9,753848	2020-10-29T19:04:15:145
-0,434276	-0,919453	9,753789	2020-10-29T19:04:15:160
-0,434363	-0,922271	9,753519	2020-10-29T19:04:15:183
-0,432356	-0,924669	9,753381	2020-10-29T19:04:15:201
-0,431422	-0,925514	9,753342	2020-10-29T19:04:15:224
-0,430445	-0,927382	9,753208	2020-10-29T19:04:15:241
-0,432584	-0,924466	9,753390	2020-10-29T19:04:15:263
-0,433191	-0,922175	9,753580	2020-10-29T19:04:15:281
-0,434306	-0,923739	9,753383	2020-10-29T19:04:15:304
-0,436174	-0,922884	9,753380	2020-10-29T19:04:15:321
-0,432955	-0,927538	9,753082	2020-10-29T19:04:15:344
-0,431799	-0,928319	9,753058	2020-10-29T19:04:15:360
-0,432749	-0,930981	9,752763	2020-10-29T19:04:15:385
-0,433089	-0,932434	9,752609	2020-10-29T19:04:15:401
-0,432113	-0,933513	9,752549	2020-10-29T19:04:15:423
-0,431601	-0,935135	9,752417	2020-10-29T19:04:15:442
-0,435775	-0,935660	9,752180	2020-10-29T19:04:15:464
-0,433619	-0,940892	9,751773	2020-10-29T19:04:15:481
-0,433913	-0,945458	9,751319	2020-10-29T19:04:15:504
-0,433184	-0,947294	9,751173	2020-10-29T19:04:15:521
-0,433213	-0,954717	9,750447	2020-10-29T19:04:15:544
-0,432032	-0,958948	9,750085	2020-10-29T19:04:15:561
-0,428165	-0,964255	9,749732	2020-10-29T19:04:15:584
-0,427567	-0,967709	9,749416	2020-10-29T19:04:15:601
-0,428367	-0,964902	9,749659	2020-10-29T19:04:15:624
-0,429507	-0,963943	9,749703	2020-10-29T19:04:15:641
-0,427354	-0,962206	9,749969	2020-10-29T19:04:15:663
-0,428306	-0,965200	9,749632	2020-10-29T19:04:15:682
-0,423812	-0,968949	9,749456	2020-10-29T19:04:15:705
-0,423780	-0,969876	9,749366	2020-10-29T19:04:15:721
-0,424896	-0,964898	9,749811	2020-10-29T19:04:15:744
-0,426668	-0,965828	9,749641	2020-10-29T19:04:15:761
-0,427708	-0,968105	9,749371	2020-10-29T19:04:15:785
-0,427929	-0,968115	9,749360	2020-10-29T19:04:15:801
-0,429651	-0,969132	9,749183	2020-10-29T19:04:15:824
-0,429310	-0,972299	9,748882	2020-10-29T19:04:15:841
-0,431536	-0,971255	9,748888	2020-10-29T19:04:15:865
-0,432496	-0,975662	9,748405	2020-10-29T19:04:15:881
-0,424920	-0,977564	9,748549	2020-10-29T19:04:15:904
-0,424476	-0,979966	9,748326	2020-10-29T19:04:15:922
-0,425424	-0,983573	9,747922	2020-10-29T19:04:15:946
-0,427190	-0,981390	9,748065	2020-10-29T19:04:15:961
-0,424011	-0,979762	9,748367	2020-10-29T19:04:15:984
-0,426070	-0,988878	9,747357	2020-10-29T19:04:16:001
-0,423862	-0,987675	9,747576	2020-10-29T19:04:16:025
-0,423885	-0,985516	9,747793	2020-10-29T19:04:16:042
-0,423558	-0,989632	9,747390	2020-10-29T19:04:16:064
-0,420761	-0,995325	9,746931	2020-10-29T19:04:16:081
-0,420004	-0,996418	9,746853	2020-10-29T19:04:16:105
-0,416909	-0,998237	9,746799	2020-10-29T19:04:16:122
-0,415149	-0,998339	9,746863	2020-10-29T19:04:16:145
-0,416938	-0,998294	9,746792	2020-10-29T19:04:16:162
-0,417725	-0,999599	9,746625	2020-10-29T19:04:16:185
-0,417099	-1,002339	9,746370	2020-10-29T19:04:16:201
-0,414943	-1,002842	9,746410	2020-10-29T19:04:16:224
-0,413610	-0,995494	9,747220	2020-10-29T19:04:16:242
-0,415186	-0,994373	9,747268	2020-10-29T19:04:16:266
-0,414402	-0,994979	9,747239	2020-10-29T19:04:16:282
-0,414527	-1,003560	9,746354	2020-10-29T19:04:16:304
-0,414664	-1,001736	9,746536	2020-10-29T19:04:16:321
-0,419278	-1,004623	9,746041	2020-10-29T19:04:16:346
-0,418935	-1,005165	9,746000	2020-10-29T19:04:16:361
-0,423128	-1,013049	9,745003	2020-10-29T19:04:16:385
-0,422077	-1,014098	9,744939	2020-10-29T19:04:16:402
-0,420082	-1,011419	9,745304	2020-10-29T19:04:16:425
-0,418510	-1,012723	9,745236	2020-10-29T19:04:16:442
-0,417220	-1,016199	9,744929	2020-10-29T19:04:16:464
-0,419943	-1,017285	9,744699	2020-10-29T19:04:16:482
-0,419086	-1,008831	9,745615	2020-10-29T19:04:16:506
-0,418471	-1,009575	9,745564	2020-10-29T19:04:16:521
-0,418529	-1,015899	9,744905	2020-10-29T19:04:16:556
-0,420423	-1,016969	9,744712	2020-10-29T19:04:16:564
-0,419445	-1,023964	9,744021	2020-10-29T19:04:16:586
-0,420343	-1,024194	9,743958	2020-10-29T19:04:16:601
-0,420032	-1,021523	9,744252	2020-10-29T19:04:16:624
-0,416952	-1,028229	9,743679	2020-10-29T19:04:16:643
-0,416952	-1,029883	9,743505	2020-10-29T19:04:16:665
-0,420419	-1,026684	9,743693	2020-10-29T19:04:16:682
-0,419464	-1,027540	9,743644	2020-10-29T19:04:16:704
-0,420288	-1,028800	9,743475	2020-10-29T19:04:16:722
-0,420556	-1,030007	9,743337	2020-10-29T19:04:16:747
-0,419688	-1,024715	9,743932	2020-10-29T19:04:16:763
-0,421169	-1,026550	9,743674	2020-10-29T19:04:16:786
-0,421699	-1,031066	9,743175	2020-10-29T19:04:16:802
-0,420534	-1,034209	9,742892	2020-10-29T19:04:16:826
-0,421021	-1,030569	9,743257	2020-10-29T19:04:16:842
-0,421741	-1,032718	9,742998	2020-10-29T19:04:16:865
-0,423513	-1,033841	9,742803	2020-10-29T19:04:16:884
-0,423301	-1,034624	9,742728	2020-10-29T19:04:16:905
-0,423565	-1,035545	9,742619	2020-10-29T19:04:16:922
-0,422022	-1,038619	9,742358	2020-10-29T19:04:16:945
-0,424163	-1,038396	9,742290	2020-10-29T19:04:16:963
-0,421291	-1,039579	9,742288	2020-10-29T19:04:16:986
-0,419372	-1,037457	9,742597	2020-10-29T19:04:17:003
-0,418325	-1,039328	9,742442	2020-10-29T19:04:17:025
-0,420241	-1,042029	9,742071	2020-10-29T19:04:17:042
-0,417794	-1,043973	9,741968	2020-10-29T19:04:17:066
-0,414250	-1,048407	9,741644	2020-10-29T19:04:17:083
-0,415513	-1,051289	9,741280	2020-10-29T19:04:17:105
-0,411250	-1,048068	9,741807	2020-10-29T19:04:17:123
-0,416100	-1,047485	9,741664	2020-10-29T19:04:17:146
-0,415606	-1,055438	9,740827	2020-10-29T19:04:17:162
-0,414321	-1,055769	9,740846	2020-10-29T19:04:17:185
-0,414438	-1,051564	9,741296	2020-10-29T19:04:17:203
-0,412552	-1,050905	9,741446	2020-10-29T19:04:17:229
-0,414142	-1,049976	9,741479	2020-10-29T19:04:17:243
-0,412512	-1,048616	9,741695	2020-10-29T19:04:17:265
-0,409567	-1,048731	9,741807	2020-10-29T19:04:17:283
-0,411095	-1,052199	9,741368	2020-10-29T19:04:17:306
-0,409845	-1,051533	9,741493	2020-10-29T19:04:17:323
-0,408747	-1,046962	9,742032	2020-10-29T19:04:17:345
-0,410354	-1,045576	9,742113	2020-10-29T19:04:17:364
-0,406416	-1,046322	9,742198	2020-10-29T19:04:17:387
-0,406456	-1,047016	9,742122	2020-10-29T19:04:17:403
-0,407635	-1,047421	9,742029	2020-10-29T19:04:17:425
-0,407524	-1,048914	9,741873	2020-10-29T19:04:17:443
-0,406897	-1,048043	9,741993	2020-10-29T19:04:17:466
-0,407278	-1,047321	9,742055	2020-10-29T19:04:17:485
-0,408952	-1,044963	9,742238	2020-10-29T19:04:17:505
-0,406977	-1,043213	9,742508	2020-10-29T19:04:17:523
-0,405597	-1,043014	9,742587	2020-10-29T19:04:17:546
-0,405022	-1,044729	9,742427	2020-10-29T19:04:17:563
-0,406589	-1,050513	9,741740	2020-10-29T19:04:17:585
-0,405925	-1,056302	9,741141	2020-10-29T19:04:17:604
-0,406694	-1,052039	9,741570	2020-10-29T19:04:17:626
-0,404916	-1,051746	9,741676	2020-10-29T19:04:17:643
-0,405962	-1,054139	9,741374	2020-10-29T19:04:17:666
-0,406043	-1,056723	9,741091	2020-10-29T19:04:17:684
-0,409481	-1,058489	9,740755	2020-10-29T19:04:17:706
-0,407795	-1,058710	9,740802	2020-10-29T19:04:17:723
-0,410779	-1,060104	9,740525	2020-10-29T19:04:17:747
-0,411073	-1,058025	9,740739	2020-10-29T19:04:17:763
-0,414581	-1,061740	9,740186	2020-10-29T19:04:17:787
-0,415684	-1,063128	9,739987	2020-10-29T19:04:17:804
-0,413191	-1,062232	9,740191	2020-10-29T19:04:17:826
-0,414247	-1,060921	9,740289	2020-10-29T19:04:17:844
-0,411610	-1,058484	9,740666	2020-10-29T19:04:17:866
-0,412899	-1,052737	9,741234	2020-10-29T19:04:17:884
-0,413626	-1,052526	9,741226	2020-10-29T19:04:17:907
-0,412855	-1,052371	9,741276	2020-10-29T19:04:17:923
-0,412282	-1,051673	9,741375	2020-10-29T19:04:17:946
-0,413514	-1,048369	9,741679	2020-10-29T19:04:17:963
-0,416644	-1,047984	9,741588	2020-10-29T19:04:17:986
-0,416275	-1,050164	9,741368	2020-10-29T19:04:18:003
-0,416036	-1,051977	9,741183	2020-10-29T19:04:18:026
-0,412675	-1,052195	9,741302	2020-10-29T19:04:18:044
-0,412474	-1,051324	9,741405	2020-10-29T19:04:18:066
-0,415654	-1,047475	9,741684	2020-10-29T19:04:18:084
-0,413220	-1,046906	9,741849	2020-10-29T19:04:18:106
-0,412656	-1,046824	9,741881	2020-10-29T19:04:18:123
-0,411473	-1,049343	9,741661	2020-10-29T19:04:18:146
-0,413738	-1,047044	9,741812	2020-10-29T19:04:18:164
-0,415297	-1,046533	9,741800	2020-10-29T19:04:18:187
-0,415436	-1,043300	9,742142	2020-10-29T19:04:18:204
-0,416393	-1,047106	9,741693	2020-10-29T19:04:18:226
-0,415275	-1,045008	9,741965	2020-10-29T19:04:18:244
-0,414634	-1,046978	9,741781	2020-10-29T19:04:18:267
-0,415835	-1,048635	9,741551	2020-10-29T19:04:18:284
-0,414784	-1,043500	9,742147	2020-10-29T19:04:18:307
-0,414450	-1,044023	9,742106	2020-10-29T19:04:18:325
-0,414695	-1,052159	9,741220	2020-10-29T19:04:18:347
-0,413821	-1,052661	9,741203	2020-10-29T19:04:18:363
-0,413768	-1,049075	9,741592	2020-10-29T19:04:18:386
-0,418251	-1,050736	9,741221	2020-10-29T19:04:18:404
-0,417943	-1,046381	9,741704	2020-10-29T19:04:18:427
-0,417907	-1,046823	9,741658	2020-10-29T19:04:18:444
-0,415224	-1,047218	9,741731	2020-10-29T19:04:18:467
-0,415360	-1,046144	9,741839	2020-10-29T19:04:18:484
-0,415964	-1,046615	9,741763	2020-10-29T19:04:18:507
-0,410343	-1,047607	9,741896	2020-10-29T19:04:18:527
-0,410167	-1,046985	9,741969	2020-10-29T19:04:18:547
-0,409953	-1,048709	9,741793	2020-10-29T19:04:18:564
-0,407549	-1,051773	9,741564	2020-10-29T19:04:18:587
-0,410247	-1,052022	9,741424	2020-10-29T19:04:18:604
-0,411402	-1,052826	9,741288	2020-10-29T19:04:18:626
-0,412467	-1,054976	9,741011	2020-10-29T19:04:18:644
-0,414111	-1,052920	9,741163	2020-10-29T19:04:18:667
-0,413034	-1,054233	9,741067	2020-10-29T19:04:18:684
-0,411987	-1,057438	9,740764	2020-10-29T19:04:18:706
-0,411431	-1,058824	9,740637	2020-10-29T19:04:18:724
-0,402608	-1,066682	9,740148	2020-10-29T19:04:18:749
-0,402287	-1,065446	9,740296	2020-10-29T19:04:18:764
-0,398451	-1,064711	9,740535	2020-10-29T19:04:18:787
-0,399055	-1,062003	9,740806	2020-10-29T19:04:18:805
-0,402369	-1,062868	9,740575	2020-10-29T19:04:18:827
-0,400105	-1,063884	9,740557	2020-10-29T19:04:18:844
-0,401012	-1,057179	9,741250	2020-10-29T19:04:18:867
-0,404500	-1,057376	9,741084	2020-10-29T19:04:18:884
-0,403993	-1,056794	9,741168	2020-10-29T19:04:18:907
-0,405362	-1,059633	9,740803	2020-10-29T19:04:18:924
-0,402658	-1,059612	9,740917	2020-10-29T19:04:18:947
-0,401532	-1,052351	9,741751	2020-10-29T19:04:18:964
-0,402825	-1,057756	9,741113	2020-10-29T19:04:18:989
-0,402133	-1,058521	9,741057	2020-10-29T19:04:19:004
-0,403298	-1,055039	9,741387	2020-10-29T19:04:19:026
-0,405272	-1,053925	9,741426	2020-10-29T19:04:19:046
-0,408875	-1,056409	9,741007	2020-10-29T19:04:19:068
-0,408616	-1,050778	9,741627	2020-10-29T19:04:19:084
-0,409093	-1,049100	9,741787	2020-10-29T19:04:19:107
-0,407706	-1,045203	9,742264	2020-10-29T19:04:19:124
-0,412128	-1,032389	9,743444	2020-10-29T19:04:19:149
-0,412308	-1,032363	9,743440	2020-10-29T19:04:19:164
-0,412507	-1,032825	9,743382	2020-10-29T19:04:19:187
-0,415446	-1,029003	9,743662	2020-10-29T19:04:19:204
-0,412314	-1,027409	9,743963	2020-10-29T19:04:19:229
-0,412190	-1,028936	9,743807	2020-10-29T19:04:19:245
-0,413009	-1,031601	9,743490	2020-10-29T19:04:19:267
-0,413971	-1,028538	9,743773	2020-10-29T19:04:19:286
-0,416076	-1,031506	9,743370	2020-10-29T19:04:19:308
-0,414510	-1,031260	9,743463	2020-10-29T19:04:19:324
-0,412477	-1,035197	9,743132	2020-10-29T19:04:19:348
-0,411616	-1,037103	9,742966	2020-10-29T19:04:19:365
-0,411337	-1,036585	9,743032	2020-10-29T19:04:19:388
-0,409947	-1,033229	9,743447	2020-10-29T19:04:19:405
-0,409305	-1,034734	9,743315	2020-10-29T19:04:19:427
-0,408514	-1,034231	9,743402	2020-10-29T19:04:19:445
-0,406886	-1,030593	9,743855	2020-10-29T19:04:19:468
-0,406632	-1,032649	9,743648	2020-10-29T19:04:19:485
-0,405057	-1,031822	9,743801	2020-10-29T19:04:19:508
-0,403825	-1,035514	9,743461	2020-10-29T19:04:19:531
-0,403323	-1,030635	9,743999	2020-10-29T19:04:19:549
-0,403472	-1,032527	9,743792	2020-10-29T19:04:19:565
-0,404290	-1,033900	9,743612	2020-10-29T19:04:19:588
-0,402039	-1,030998	9,744013	2020-10-29T19:04:19:605
-0,405885	-1,031668	9,743783	2020-10-29T19:04:19:628
-0,402441	-1,032710	9,743815	2020-10-29T19:04:19:645
-0,400145	-1,035890	9,743572	2020-10-29T19:04:19:667
-0,397465	-1,032375	9,744055	2020-10-29T19:04:19:685
-0,400191	-1,031605	9,744025	2020-10-29T19:04:19:708
-0,400607	-1,032914	9,743869	2020-10-29T19:04:19:725
-0,399237	-1,029869	9,744247	2020-10-29T19:04:19:748
-0,400934	-1,033960	9,743745	2020-10-29T19:04:19:768
-0,399582	-1,034063	9,743790	2020-10-29T19:04:19:788
-0,401666	-1,033531	9,743760	2020-10-29T19:04:19:804
-0,399918	-1,029804	9,744226	2020-10-29T19:04:19:828
-0,400025	-1,031936	9,743997	2020-10-29T19:04:19:845
-0,401616	-1,033275	9,743790	2020-10-29T19:04:19:868
-0,403350	-1,034474	9,743590	2020-10-29T19:04:19:885
-0,405833	-1,031220	9,743833	2020-10-29T19:04:19:908
-0,405040	-1,030872	9,743902	2020-10-29T19:04:19:925
-0,405573	-1,028558	9,744124	2020-10-29T19:04:19:949
-0,406875	-1,024597	9,744488	2020-10-29T19:04:19:967
-0,408162	-1,023958	9,744501	2020-10-29T19:04:19:988
-0,408607	-1,026283	9,744238	2020-10-29T19:04:20:006
-0,411678	-1,024546	9,744291	2020-10-29T19:04:20:029
-0,411890	-1,021113	9,744642	2020-10-29T19:04:20:045
-0,413960	-1,020208	9,744650	2020-10-29T19:04:20:068
-0,413430	-1,021190	9,744570	2020-10-29T19:04:20:085
-0,414278	-1,021850	9,744464	2020-10-29T19:04:20:108
-0,417012	-1,020832	9,744454	2020-10-29T19:04:20:125
-0,417098	-1,020923	9,744441	2020-10-29T19:04:20:149
-0,418111	-1,018523	9,744649	2020-10-29T19:04:20:165
-0,421276	-1,020228	9,744334	2020-10-29T19:04:20:189
-0,419590	-1,016968	9,744747	2020-10-29T19:04:20:205
-0,414584	-1,012643	9,745412	2020-10-29T19:04:20:228
-0,415061	-1,013396	9,745314	2020-10-29T19:04:20:246
-0,414579	-1,011061	9,745577	2020-10-29T19:04:20:269
-0,416428	-1,010215	9,745585	2020-10-29T19:04:20:285
-0,418673	-1,015531	9,744937	2020-10-29T19:04:20:308
-0,416909	-1,012745	9,745302	2020-10-29T19:04:20:325
-0,418110	-1,012310	9,745296	2020-10-29T19:04:20:350
-0,416976	-1,010809	9,745501	2020-10-29T19:04:20:365
-0,417520	-1,010699	9,745488	2020-10-29T19:04:20:388
-0,419103	-1,012155	9,745270	2020-10-29T19:04:20:405
-0,420134	-1,012094	9,745232	2020-10-29T19:04:20:429
-0,423098	-1,011981	9,745115	2020-10-29T19:04:20:446
-0,423620	-1,007832	9,745522	2020-10-29T19:04:20:468
-0,422712	-1,005125	9,745841	2020-10-29T19:04:20:487
-0,424143	-1,006747	9,745612	2020-10-29T19:04:20:510
-0,422374	-1,009482	9,745405	2020-10-29T19:04:20:526
-0,422716	-1,012532	9,745074	2020-10-29T19:04:20:549
-0,422353	-1,012669	9,745076	2020-10-29T19:04:20:565
-0,421075	-1,010527	9,745354	2020-10-29T19:04:20:589
-0,419541	-1,010911	9,745379	2020-10-29T19:04:20:606
-0,416872	-1,009493	9,745642	2020-10-29T19:04:20:629
-0,419097	-1,009450	9,745550	2020-10-29T19:04:20:646
-0,418924	-1,009268	9,745577	2020-10-29T19:04:20:669
-0,416503	-1,007896	9,745823	2020-10-29T19:04:20:686
-0,416063	-1,006790	9,745955	2020-10-29T19:04:20:708
-0,417667	-1,007519	9,745811	2020-10-29T19:04:20:727
-0,419927	-1,005973	9,745874	2020-10-29T19:04:20:749
-0,421210	-1,006603	9,745754	2020-10-29T19:04:20:766
-0,423632	-1,009014	9,745399	2020-10-29T19:04:20:789
-0,423820	-1,002926	9,746019	2020-10-29T19:04:20:806
-0,423868	-0,994529	9,746878	2020-10-29T19:04:20:830
-0,423059	-0,996497	9,746712	2020-10-29T19:04:20:847
-0,419649	-1,000772	9,746422	2020-10-29T19:04:20:869
-0,419699	-0,996375	9,746870	2020-10-29T19:04:20:886
-0,420882	-0,996990	9,746757	2020-10-29T19:04:20:910
-0,421452	-0,997579	9,746671	2020-10-29T19:04:20:926
-0,423868	-0,991356	9,747201	2020-10-29T19:04:20:951
-0,424065	-0,991524	9,747175	2020-10-29T19:04:20:967
-0,427445	-0,991119	9,747069	2020-10-29T19:04:20:990
-0,426235	-0,996758	9,746547	2020-10-29T19:04:21:006
-0,421783	-0,988290	9,747603	2020-10-29T19:04:21:031
-0,421757	-0,987719	9,747663	2020-10-29T19:04:21:046
-0,421094	-0,992718	9,747183	2020-10-29T19:04:21:071
-0,424005	-0,992836	9,747045	2020-10-29T19:04:21:086
-0,423299	-0,993550	9,747003	2020-10-29T19:04:21:110
-0,422818	-0,990276	9,747356	2020-10-29T19:04:21:126
-0,421248	-0,988227	9,747633	2020-10-29T19:04:21:151
-0,424190	-0,991093	9,747214	2020-10-29T19:04:21:166
-0,430398	-0,985450	9,747514	2020-10-29T19:04:21:190
-0,433374	-0,987692	9,747155	2020-10-29T19:04:21:207
-0,430216	-0,991249	9,746934	2020-10-29T19:04:21:231
-0,431092	-0,993174	9,746699	2020-10-29T19:04:21:247
-0,434563	-0,990000	9,746868	2020-10-29T19:04:21:271
-0,434839	-0,990212	9,746835	2020-10-29T19:04:21:287
-0,431784	-0,993137	9,746673	2020-10-29T19:04:21:311
-0,431313	-0,992192	9,746790	2020-10-29T19:04:21:327
-0,434888	-0,984469	9,747414	2020-10-29T19:04:21:349
-0,434700	-0,982984	9,747572	2020-10-29T19:04:21:366
-0,437254	-0,979883	9,747770	2020-10-29T19:04:21:391
-0,437933	-0,979064	9,747822	2020-10-29T19:04:21:406
-0,434326	-0,977953	9,748095	2020-10-29T19:04:21:429
-0,434941	-0,982413	9,747619	2020-10-29T19:04:21:448
-0,435327	-0,979149	9,747931	2020-10-29T19:04:21:470
-0,438165	-0,979576	9,747760	2020-10-29T19:04:21:487
-0,438213	-0,975955	9,748121	2020-10-29T19:04:21:511
-0,437643	-0,974500	9,748292	2020-10-29T19:04:21:527
-0,437737	-0,973984	9,748340	2020-10-29T19:04:21:551
-0,437927	-0,977748	9,747954	2020-10-29T19:04:21:567
-0,438814	-0,980160	9,747672	2020-10-29T19:04:21:590
-0,440019	-0,978276	9,747808	2020-10-29T19:04:21:607
-0,440735	-0,975071	9,748096	2020-10-29T19:04:21:631
-0,438325	-0,978996	9,747811	2020-10-29T19:04:21:647
-0,437333	-0,977830	9,747972	2020-10-29T19:04:21:669
-0,436754	-0,974336	9,748348	2020-10-29T19:04:21:687
-0,438054	-0,971526	9,748570	2020-10-29T19:04:21:711
-0,438917	-0,971701	9,748514	2020-10-29T19:04:21:726
-0,436819	-0,970954	9,748683	2020-10-29T19:04:21:752
-0,436392	-0,972042	9,748593	2020-10-29T19:04:21:767
-0,436134	-0,971581	9,748652	2020-10-29T19:04:21:791
-0,434534	-0,972414	9,748640	2020-10-29T19:04:21:807
-0,434775	-0,974247	9,748446	2020-10-29T19:04:21:830
-0,436023	-0,973389	9,748476	2020-10-29T19:04:21:847
-0,433762	-0,969065	9,749007	2020-10-29T19:04:21:871
-0,431978	-0,968934	9,749100	2020-10-29T19:04:21:888
-0,433960	-0,968367	9,749068	2020-10-29T19:04:21:910
-0,430750	-0,972141	9,748835	2020-10-29T19:04:21:929
-0,432063	-0,970749	9,748916	2020-10-29T19:04:21:951
-0,431406	-0,972000	9,748820	2020-10-29T19:04:21:967
-0,430644	-0,972284	9,748825	2020-10-29T19:04:21:990
-0,430544	-0,972524	9,748806	2020-10-29T19:04:22:007
-0,433427	-0,971659	9,748764	2020-10-29T19:04:22:031
-0,433693	-0,967326	9,749184	2020-10-29T19:04:22:047
-0,432645	-0,966405	9,749321	2020-10-29T19:04:22:070
-0,432866	-0,970349	9,748919	2020-10-29T19:04:22:087
-0,434931	-0,970012	9,748861	2020-10-29T19:04:22:110
-0,438191	-0,963960	9,749315	2020-10-29T19:04:22:127
-0,440755	-0,964268	9,749169	2020-10-29T19:04:22:151
-0,439162	-0,967070	9,748964	2020-10-29T19:04:22:168
-0,440424	-0,968067	9,748808	2020-10-29T19:04:22:191
-0,438840	-0,965320	9,749152	2020-10-29T19:04:22:207
-0,439028	-0,963604	9,749313	2020-10-29T19:04:22:230
-0,437877	-0,965979	9,749130	2020-10-29T19:04:22:247
-0,437815	-0,971724	9,748562	2020-10-29T19:04:22:271
-0,437173	-0,975973	9,748166	2020-10-29T19:04:22:288
-0,435833	-0,976493	9,748174	2020-10-29T19:04:22:310
-0,432162	-0,973694	9,748617	2020-10-29T19:04:22:328
-0,435044	-0,978976	9,747960	2020-10-29T19:04:22:351
-0,433754	-0,979696	9,747945	2020-10-29T19:04:22:367
-0,436903	-0,979739	9,747801	2020-10-29T19:04:22:390
-0,435909	-0,980466	9,747772	2020-10-29T19:04:22:408
-0,434612	-0,979057	9,747972	2020-10-29T19:04:22:431
-0,435468	-0,982845	9,747552	2020-10-29T19:04:22:448
-0,434054	-0,982628	9,747637	2020-10-29T19:04:22:470
-0,436717	-0,980036	9,747779	2020-10-29T19:04:22:488
-0,434256	-0,980951	9,747797	2020-10-29T19:04:22:511
-0,433184	-0,984771	9,747459	2020-10-29T19:04:22:528
-0,431560	-0,978984	9,748115	2020-10-29T19:04:22:551
-0,431141	-0,979971	9,748034	2020-10-29T19:04:22:568
-0,429603	-0,980530	9,748045	2020-10-29T19:04:22:591
-0,426776	-0,979873	9,748236	2020-10-29T19:04:22:608
-0,427328	-0,982946	9,747902	2020-10-29T19:04:22:630
-0,428296	-0,980894	9,748066	2020-10-29T19:04:22:649
-0,425609	-0,981448	9,748128	2020-10-29T19:04:22:671
-0,425241	-0,976074	9,748684	2020-10-29T19:04:22:688
-0,426003	-0,978516	9,748405	2020-10-29T19:04:22:711
-0,425026	-0,984764	9,747819	2020-10-29T19:04:22:728
-0,424644	-0,986118	9,747699	2020-10-29T19:04:22:751
-0,426321	-0,988615	9,747373	2020-10-29T19:04:22:768
-0,427115	-0,988559	9,747344	2020-10-29T19:04:22:791
-0,427239	-0,991286	9,747061	2020-10-29T19:04:22:808
-0,425545	-0,992289	9,747033	2020-10-29T19:04:22:831
-0,426698	-0,993561	9,746853	2020-10-29T19:04:22:848
-0,428065	-0,996117	9,746532	2020-10-29T19:04:22:871
-0,424528	-0,996735	9,746624	2020-10-29T19:04:22:889
-0,426822	-0,994778	9,746724	2020-10-29T19:04:22:911
-0,429628	-0,997067	9,746367	2020-10-29T19:04:22:928
-0,425511	-1,002661	9,745974	2020-10-29T19:04:22:952
-0,425629	-1,003361	9,745896	2020-10-29T19:04:22:968
-0,424162	-1,007891	9,745493	2020-10-29T19:04:22:992
-0,423436	-1,008155	9,745497	2020-10-29T19:04:23:008
-0,423508	-1,008807	9,745426	2020-10-29T19:04:23:031
-0,424465	-1,009895	9,745272	2020-10-29T19:04:23:048
-0,423870	-1,007919	9,745502	2020-10-29T19:04:23:071
-0,422888	-1,009013	9,745432	2020-10-29T19:04:23:088
-0,425054	-1,005405	9,745710	2020-10-29T19:04:23:111
-0,423115	-1,006599	9,745671	2020-10-29T19:04:23:129
-0,423738	-1,004331	9,745878	2020-10-29T19:04:23:152
-0,423854	-1,002311	9,746081	2020-10-29T19:04:23:168
-0,422348	-1,004340	9,745938	2020-10-29T19:04:23:191
-0,422715	-1,007444	9,745602	2020-10-29T19:04:23:208
-0,422223	-1,003009	9,746080	2020-10-29T19:04:23:232
-0,422468	-1,003538	9,746016	2020-10-29T19:04:23:249
-0,426019	-1,004485	9,745764	2020-10-29T19:04:23:271
-0,426550	-1,005262	9,745660	2020-10-29T19:04:23:288
-0,428532	-0,998918	9,746225	2020-10-29T19:04:23:312
-0,431987	-0,998173	9,746149	2020-10-29T19:04:23:328
-0,431852	-1,001673	9,745796	2020-10-29T19:04:23:351
-0,431213	-1,005701	9,745409	2020-10-29T19:04:23:369
-0,425402	-1,001117	9,746137	2020-10-29T19:04:23:392
-0,423338	-1,003422	9,745990	2020-10-29T19:04:23:408
-0,422863	-1,008498	9,745486	2020-10-29T19:04:23:431
-0,425322	-1,010574	9,745164	2020-10-29T19:04:23:449
-0,425944	-1,013172	9,744867	2020-10-29T19:04:23:472
-0,426751	-1,013152	9,744834	2020-10-29T19:04:23:489
-0,427435	-1,010761	9,745052	2020-10-29T19:04:23:511
-0,425304	-1,014882	9,744718	2020-10-29T19:04:23:528
-0,422851	-1,012701	9,745050	2020-10-29T19:04:23:552
-0,421721	-1,013480	9,745019	2020-10-29T19:04:23:568
-0,419935	-1,014765	9,744963	2020-10-29T19:04:23:591
-0,422125	-1,013670	9,744982	2020-10-29T19:04:23:610
-0,421893	-1,011717	9,745194	2020-10-29T19:04:23:632
-0,421067	-1,012026	9,745198	2020-10-29T19:04:23:649
-0,422869	-1,012346	9,745087	2020-10-29T19:04:23:672
-0,422260	-1,011720	9,745178	2020-10-29T19:04:23:689
-0,420635	-1,016393	9,744762	2020-10-29T19:04:23:712
-0,421301	-1,012834	9,745104	2020-10-29T19:04:23:729
-0,421737	-1,009552	9,745426	2020-10-29T19:04:23:752
-0,423365	-1,012738	9,745025	2020-10-29T19:04:23:768
-0,428205	-1,015152	9,744562	2020-10-29T19:04:23:793
-0,428794	-1,015860	9,744462	2020-10-29T19:04:23:809
-0,423895	-1,013532	9,744919	2020-10-29T19:04:23:831
-0,422844	-1,013649	9,744953	2020-10-29T19:04:23:850
-0,423563	-1,015127	9,744767	2020-10-29T19:04:23:873
-0,426876	-1,021248	9,743983	2020-10-29T19:04:23:889
-0,422601	-1,016421	9,744675	2020-10-29T19:04:23:911
-0,424735	-1,011878	9,745054	2020-10-29T19:04:23:929
-0,422180	-1,016887	9,744644	2020-10-29T19:04:23:953
-0,423020	-1,017800	9,744513	2020-10-29T19:04:23:969
-0,424590	-1,014923	9,744744	2020-10-29T19:04:23:992
-0,422713	-1,014307	9,744890	2020-10-29T19:04:24:009
-0,421799	-1,017389	9,744608	2020-10-29T19:04:24:033
-0,421575	-1,021041	9,744236	2020-10-29T19:04:24:049
-0,421312	-1,019695	9,744389	2020-10-29T19:04:24:072
-0,421612	-1,020009	9,744343	2020-10-29T19:04:24:090
-0,419419	-1,020661	9,744369	2020-10-29T19:04:24:113
-0,417588	-1,023392	9,744161	2020-10-29T19:04:24:129
-0,420588	-1,021698	9,744210	2020-10-29T19:04:24:153
-0,422058	-1,021391	9,744179	2020-10-29T19:04:24:169
-0,423565	-1,020464	9,744210	2020-10-29T19:04:24:193
-0,423840	-1,020909	9,744151	2020-10-29T19:04:24:209
-0,420552	-1,018432	9,744554	2020-10-29T19:04:24:233
-0,421017	-1,020265	9,744341	2020-10-29T19:04:24:249
-0,418357	-1,023739	9,744092	2020-10-29T19:04:24:273
-0,415872	-1,025543	9,744008	2020-10-29T19:04:24:289
-0,418681	-1,024867	9,743959	2020-10-29T19:04:24:312
-0,420187	-1,025595	9,743817	2020-10-29T19:04:24:330
-0,418988	-1,027347	9,743685	2020-10-29T19:04:24:354
-0,419951	-1,026997	9,743680	2020-10-29T19:04:24:369
-0,417889	-1,031763	9,743265	2020-10-29T19:04:24:392
-0,421140	-1,033231	9,742970	2020-10-29T19:04:24:409
-0,419455	-1,033316	9,743033	2020-10-29T19:04:24:433
-0,422643	-1,036667	9,742539	2020-10-29T19:04:24:450
-0,423981	-1,042049	9,741907	2020-10-29T19:04:24:472
-0,425509	-1,040153	9,742043	2020-10-29T19:04:24:489
-0,421759	-1,046824	9,741492	2020-10-29T19:04:24:513
-0,418772	-1,054378	9,740806	2020-10-29T19:04:24:529
-0,419039	-1,063270	9,739828	2020-10-29T19:04:24:552
-0,416665	-1,064915	9,739750	2020-10-29T19:04:24:571
-0,416463	-1,058533	9,740455	2020-10-29T19:04:24:594
-0,415967	-1,059916	9,740325	2020-10-29T19:04:24:609
-0,415188	-1,065438	9,739756	2020-10-29T19:04:24:632
-0,414701	-1,066261	9,739687	2020-10-29T19:04:24:650
-0,409640	-1,070738	9,739409	2020-10-29T19:04:24:673
-0,410778	-1,077636	9,738601	2020-10-29T19:04:24:690
-0,408743	-1,074832	9,738997	2020-10-29T19:04:24:713
-0,404271	-1,080102	9,738600	2020-10-29T19:04:24:729
-0,402872	-1,083505	9,738280	2020-10-29T19:04:24:754
-0,402267	-1,084282	9,738218	2020-10-29T19:04:24:770
-0,404263	-1,088134	9,737706	2020-10-29T19:04:24:793
-0,398673	-1,088118	9,737938	2020-10-29T19:04:24:811
-0,396646	-1,084807	9,738391	2020-10-29T19:04:24:834
-0,396948	-1,092208	9,737551	2020-10-29T19:04:24:850
-0,397043	-1,096640	9,737049	2020-10-29T19:04:24:873
-0,394831	-1,091676	9,737697	2020-10-29T19:04:24:890
-0,397767	-1,091325	9,737617	2020-10-29T19:04:24:913
-0,395792	-1,096002	9,737172	2020-10-29T19:04:24:930
-0,396078	-1,089828	9,737853	2020-10-29T19:04:24:953
-0,397796	-1,089481	9,737822	2020-10-29T19:04:24:970
-0,396692	-1,090852	9,737714	2020-10-29T19:04:24:994
-0,398608	-1,096630	9,736986	2020-10-29T19:04:25:010
-0,397291	-1,103496	9,736264	2020-10-29T19:04:25:033
-0,394493	-1,115976	9,734956	2020-10-29T19:04:25:051
-0,398618	-1,118863	9,734456	2020-10-29T19:04:25:074
-0,398619	-1,119633	9,734367	2020-10-29T19:04:25:090
-0,395758	-1,119867	9,734457	2020-10-29T19:04:25:114
-0,395492	-1,121478	9,734282	2020-10-29T19:04:25:130
-0,398419	-1,125816	9,733663	2020-10-29T19:04:25:154
-0,398681	-1,126447	9,733579	2020-10-29T19:04:25:172
-0,398463	-1,128755	9,733320	2020-10-29T19:04:25:193
-0,398359	-1,137713	9,732282	2020-10-29T19:04:25:210
-0,399673	-1,138949	9,732083	2020-10-29T19:04:25:234
-0,402328	-1,143429	9,731448	2020-10-29T19:04:25:251
-0,403251	-1,144590	9,731274	2020-10-29T19:04:25:273
-0,399385	-1,147250	9,731120	2020-10-29T19:04:25:292
-0,400252	-1,146637	9,731156	2020-10-29T19:04:25:314
-0,393210	-1,150705	9,730964	2020-10-29T19:04:25:330
-0,395173	-1,151517	9,730788	2020-10-29T19:04:25:354
-0,398514	-1,152418	9,730545	2020-10-29T19:04:25:370
-0,399921	-1,156456	9,730008	2020-10-29T19:04:25:394
-0,399685	-1,162963	9,729242	2020-10-29T19:04:25:411
-0,397996	-1,168864	9,728604	2020-10-29T19:04:25:434
-0,397427	-1,170836	9,728391	2020-10-29T19:04:25:451
-0,398202	-1,178044	9,727489	2020-10-29T19:04:25:474
-0,400522	-1,186303	9,726390	2020-10-29T19:04:25:491
-0,399483	-1,196526	9,725180	2020-10-29T19:04:25:513
-0,400612	-1,196680	9,725115	2020-10-29T19:04:25:532
-0,397357	-1,202094	9,724581	2020-10-29T19:04:25:554
-0,398369	-1,207630	9,723853	2020-10-29T19:04:25:570
-0,395836	-1,216338	9,722871	2020-10-29T19:04:25:594
-0,395389	-1,216599	9,722857	2020-10-29T19:04:25:611
-0,390558	-1,220300	9,722588	2020-10-29T19:04:25:634
-0,391964	-1,221014	9,722442	2020-10-29T19:04:25:651
-0,391386	-1,222572	9,722269	2020-10-29T19:04:25:674
-0,392180	-1,226077	9,721796	2020-10-29T19:04:25:691
-0,390964	-1,226348	9,721810	2020-10-29T19:04:25:715
-0,388758	-1,224364	9,722149	2020-10-29T19:04:25:731
-0,393227	-1,222904	9,722154	2020-10-29T19:04:25:754
-0,394269	-1,225157	9,721828	2020-10-29T19:04:25:772
-0,391837	-1,223668	9,722114	2020-10-29T19:04:25:795
-0,391906	-1,222279	9,722285	2020-10-29T19:04:25:811
-0,393553	-1,219782	9,722532	2020-10-29T19:04:25:833
-0,393141	-1,218462	9,722714	2020-10-29T19:04:25:851
-0,394980	-1,220317	9,722407	2020-10-29T19:04:25:875
-0,393623	-1,220380	9,722454	2020-10-29T19:04:25:891
-0,395072	-1,220129	9,722427	2020-10-29T19:04:25:914
-0,395958	-1,216685	9,722822	2020-10-29T19:04:25:931
-0,396430	-1,216007	9,722888	2020-10-29T19:04:25:955
-0,394492	-1,215696	9,723006	2020-10-29T19:04:25:971
-0,396684	-1,213338	9,723211	2020-10-29T19:04:25:994
-0,395362	-1,215292	9,723021	2020-10-29T19:04:26:015
-0,394286	-1,219066	9,722592	2020-10-29T19:04:26:075
-0,392527	-1,221165	9,722400	2020-10-29T19:04:26:076
-0,392079	-1,217261	9,722908	2020-10-29T19:04:26:076
-0,389730	-1,221488	9,722472	2020-10-29T19:04:26:092
-0,387077	-1,222546	9,722445	2020-10-29T19:04:26:116
-0,385191	-1,226089	9,722074	2020-10-29T19:04:26:179
-0,386415	-1,228003	9,721784	2020-10-29T19:04:26:180
-0,383903	-1,221390	9,722716	2020-10-29T19:04:26:180
-0,386949	-1,223264	9,722360	2020-10-29T19:04:26:195
-0,389952	-1,228886	9,721531	2020-10-29T19:04:26:210
-0,394123	-1,224497	9,721916	2020-10-29T19:04:26:232
-0,394977	-1,222805	9,722095	2020-10-29T19:04:26:317
-0,393371	-1,227180	9,721608	2020-10-29T19:04:26:317
-0,390185	-1,228827	9,721529	2020-10-29T19:04:26:318
-0,387616	-1,229668	9,721525	2020-10-29T19:04:26:319
-0,387411	-1,229482	9,721557	2020-10-29T19:04:26:330
-0,383726	-1,231867	9,721401	2020-10-29T19:04:26:354
-0,381755	-1,235037	9,721077	2020-10-29T19:04:26:371
-0,381382	-1,234590	9,721148	2020-10-29T19:04:26:392
-0,381364	-1,234417	9,721170	2020-10-29T19:04:26:410
-0,379863	-1,239665	9,720562	2020-10-29T19:04:26:435
-0,379920	-1,239608	9,720567	2020-10-29T19:04:26:451
-0,379998	-1,247113	9,719604	2020-10-29T19:04:26:475
-0,379993	-1,248487	9,719427	2020-10-29T19:04:26:493
-0,380634	-1,249803	9,719234	2020-10-29T19:04:26:515
-0,382855	-1,245579	9,719688	2020-10-29T19:04:26:531
-0,384304	-1,246189	9,719553	2020-10-29T19:04:26:555
-0,386376	-1,243437	9,719823	2020-10-29T19:04:26:572
-0,386942	-1,234998	9,720877	2020-10-29T19:04:26:596
-0,385977	-1,235036	9,720910	2020-10-29T19:04:26:612
-0,388550	-1,241491	9,719985	2020-10-29T19:04:26:636
-0,388908	-1,243568	9,719706	2020-10-29T19:04:26:653
-0,389237	-1,243869	9,719654	2020-10-29T19:04:26:675
-0,390902	-1,242744	9,719730	2020-10-29T19:04:26:692
-0,392541	-1,243136	9,719615	2020-10-29T19:04:26:714
-0,391675	-1,240222	9,720022	2020-10-29T19:04:26:733
-0,389989	-1,240409	9,720066	2020-10-29T19:04:26:757
-0,387263	-1,239594	9,720279	2020-10-29T19:04:26:771
-0,389071	-1,240664	9,720070	2020-10-29T19:04:26:795
-0,388589	-1,236085	9,720673	2020-10-29T19:04:26:812
-0,389922	-1,233093	9,721000	2020-10-29T19:04:26:836
-0,389959	-1,233774	9,720911	2020-10-29T19:04:26:852
-0,389808	-1,236145	9,720616	2020-10-29T19:04:26:875
-0,386965	-1,233660	9,721045	2020-10-29T19:04:26:892
-0,385351	-1,233864	9,721084	2020-10-29T19:04:26:916
-0,384671	-1,233557	9,721149	2020-10-29T19:04:26:932
-0,383419	-1,233622	9,721190	2020-10-29T19:04:26:955
-0,386090	-1,230240	9,721514	2020-10-29T19:04:26:990
-0,387977	-1,230906	9,721354	2020-10-29T19:04:27:440
-0,390023	-1,228135	9,721622	2020-10-29T19:04:27:456
-0,390008	-1,228976	9,721518	2020-10-29T19:04:27:481
-0,392487	-1,227060	9,721660	2020-10-29T19:04:27:493
-0,394064	-1,222916	9,722117	2020-10-29T19:04:27:515
-0,395178	-1,224729	9,721845	2020-10-29T19:04:27:533
-0,395893	-1,223854	9,721926	2020-10-29T19:04:27:558
-0,395582	-1,223630	9,721967	2020-10-29T19:04:27:572
-0,391289	-1,224975	9,721971	2020-10-29T19:04:27:596
-0,391118	-1,227881	9,721611	2020-10-29T19:04:27:612
-0,395794	-1,228617	9,721329	2020-10-29T19:04:27:636
-0,394433	-1,228058	9,721455	2020-10-29T19:04:27:653
-0,394705	-1,222208	9,722180	2020-10-29T19:04:27:675
-0,393665	-1,228688	9,721406	2020-10-29T19:04:27:695
-0,390374	-1,229794	9,721399	2020-10-29T19:04:27:716
-0,387814	-1,227852	9,721747	2020-10-29T19:04:27:733
-0,386942	-1,226934	9,721897	2020-10-29T19:04:27:756
-0,384076	-1,229399	9,721700	2020-10-29T19:04:27:773
-0,384089	-1,232380	9,721322	2020-10-29T19:04:27:796
-0,383275	-1,234580	9,721075	2020-10-29T19:04:27:813
-0,381756	-1,235012	9,721080	2020-10-29T19:04:27:836
-0,382986	-1,234348	9,721116	2020-10-29T19:04:27:853
-0,382630	-1,238647	9,720583	2020-10-29T19:04:27:877
-0,383603	-1,240488	9,720310	2020-10-29T19:04:27:893
-0,380510	-1,237219	9,720848	2020-10-29T19:04:27:916
-0,380606	-1,237828	9,720767	2020-10-29T19:04:27:934
-0,380638	-1,240033	9,720485	2020-10-29T19:04:27:957
-0,383239	-1,239581	9,720440	2020-10-29T19:04:27:973
-0,383536	-1,232723	9,721300	2020-10-29T19:04:27:996
-0,387624	-1,235917	9,720733	2020-10-29T19:04:28:013
-0,386067	-1,234793	9,720938	2020-10-29T19:04:28:037
-0,387903	-1,231851	9,721237	2020-10-29T19:04:28:053
-0,388918	-1,230896	9,721318	2020-10-29T19:04:28:076
-0,391251	-1,231901	9,721097	2020-10-29T19:04:28:093
-0,393082	-1,229003	9,721390	2020-10-29T19:04:28:117
-0,397095	-1,225729	9,721641	2020-10-29T19:04:28:133
-0,394372	-1,228454	9,721407	2020-10-29T19:04:28:157
-0,394891	-1,225719	9,721731	2020-10-29T19:04:28:174
-0,395976	-1,219540	9,722465	2020-10-29T19:04:28:197
-0,395411	-1,216892	9,722819	2020-10-29T19:04:28:213
-0,393770	-1,215242	9,723092	2020-10-29T19:04:28:236
-0,397703	-1,215923	9,722847	2020-10-29T19:04:28:254
-0,398320	-1,217116	9,722672	2020-10-29T19:04:28:277
-0,395997	-1,211942	9,723413	2020-10-29T19:04:28:293
-0,396535	-1,208773	9,723785	2020-10-29T19:04:28:316
-0,398377	-1,211047	9,723428	2020-10-29T19:04:28:333
-0,400061	-1,208184	9,723715	2020-10-29T19:04:28:358
-0,398177	-1,205170	9,724166	2020-10-29T19:04:28:373
-0,397775	-1,204861	9,724220	2020-10-29T19:04:28:396
-0,396837	-1,203060	9,724483	2020-10-29T19:04:28:414
-0,396474	-1,202869	9,724521	2020-10-29T19:04:28:437
-0,395894	-1,196373	9,725346	2020-10-29T19:04:28:454
-0,396919	-1,192943	9,725725	2020-10-29T19:04:28:477
-0,394886	-1,189656	9,726211	2020-10-29T19:04:28:494
-0,394434	-1,191582	9,725993	2020-10-29T19:04:28:517
-0,396426	-1,190038	9,726101	2020-10-29T19:04:28:533
-0,397245	-1,187558	9,726371	2020-10-29T19:04:28:557
-0,395304	-1,188843	9,726293	2020-10-29T19:04:28:573
-0,393542	-1,185130	9,726817	2020-10-29T19:04:28:597
-0,394297	-1,184729	9,726835	2020-10-29T19:04:28:614
-0,395862	-1,187128	9,726480	2020-10-29T19:04:28:636
-0,398832	-1,187835	9,726272	2020-10-29T19:04:28:655
-0,398809	-1,181563	9,727036	2020-10-29T19:04:28:677
-0,396703	-1,177912	9,727566	2020-10-29T19:04:28:693
-0,396425	-1,174962	9,727934	2020-10-29T19:04:28:716
-0,397992	-1,174351	9,727943	2020-10-29T19:04:28:734
-0,395872	-1,171490	9,728375	2020-10-29T19:04:28:757
-0,394111	-1,162316	9,729547	2020-10-29T19:04:28:774
-0,391962	-1,160612	9,729837	2020-10-29T19:04:28:797
-0,392681	-1,158024	9,730117	2020-10-29T19:04:28:813
-0,392754	-1,154376	9,730547	2020-10-29T19:04:28:837
-0,393849	-1,151187	9,730881	2020-10-29T19:04:28:854
-0,393449	-1,146704	9,731426	2020-10-29T19:04:28:877
-0,392064	-1,144476	9,731744	2020-10-29T19:04:28:895
-0,392299	-1,138838	9,732396	2020-10-29T19:04:28:917
-0,391411	-1,139680	9,732333	2020-10-29T19:04:28:934
-0,395218	-1,133514	9,732900	2020-10-29T19:04:28:957
-0,396980	-1,128210	9,733444	2020-10-29T19:04:28:976
-0,400500	-1,120833	9,734152	2020-10-29T19:04:28:998
-0,402122	-1,113530	9,734923	2020-10-29T19:04:29:014
-0,402398	-1,112845	9,734990	2020-10-29T19:04:29:036
-0,402641	-1,116040	9,734614	2020-10-29T19:04:29:054
-0,403892	-1,114661	9,734720	2020-10-29T19:04:29:077
-0,404207	-1,108519	9,735409	2020-10-29T19:04:29:094
-0,406503	-1,106815	9,735507	2020-10-29T19:04:29:117
-0,407843	-1,103934	9,735778	2020-10-29T19:04:29:136
-0,407891	-1,104190	9,735747	2020-10-29T19:04:29:158
-0,409148	-1,099597	9,736215	2020-10-29T19:04:29:174
-0,414785	-1,085561	9,737551	2020-10-29T19:04:29:197
-0,416094	-1,084587	9,737603	2020-10-29T19:04:29:214
-0,415801	-1,084354	9,737642	2020-10-29T19:04:29:237
-0,415275	-1,080021	9,738146	2020-10-29T19:04:29:255
-0,414951	-1,075882	9,738618	2020-10-29T19:04:29:277
-0,415159	-1,077462	9,738435	2020-10-29T19:04:29:294
-0,417491	-1,074446	9,738667	2020-10-29T19:04:29:318
-0,417791	-1,073784	9,738728	2020-10-29T19:04:29:334
-0,413561	-1,074825	9,738793	2020-10-29T19:04:29:357
-0,414988	-1,074666	9,738750	2020-10-29T19:04:29:375
-0,414313	-1,071957	9,739078	2020-10-29T19:04:29:398
-0,414076	-1,072574	9,739020	2020-10-29T19:04:29:414
-0,414159	-1,076993	9,738528	2020-10-29T19:04:29:437
-0,415368	-1,073356	9,738879	2020-10-29T19:04:29:455
-0,417917	-1,070202	9,739117	2020-10-29T19:04:29:478
-0,418067	-1,070623	9,739064	2020-10-29T19:04:29:494
-0,420651	-1,069117	9,739119	2020-10-29T19:04:29:518
-0,420774	-1,067945	9,739242	2020-10-29T19:04:29:538
-0,420859	-1,066226	9,739427	2020-10-29T19:04:29:559
-0,420390	-1,059788	9,740149	2020-10-29T19:04:29:575
-0,422023	-1,057894	9,740284	2020-10-29T19:04:29:597
-0,420755	-1,062658	9,739820	2020-10-29T19:04:29:616
-0,421361	-1,061090	9,739965	2020-10-29T19:04:29:638
-0,423447	-1,057865	9,740226	2020-10-29T19:04:29:655
-0,423836	-1,060088	9,739967	2020-10-29T19:04:29:679
-0,422413	-1,061847	9,739838	2020-10-29T19:04:29:695
-0,419311	-1,061348	9,740026	2020-10-29T19:04:29:719
-0,417259	-1,063014	9,739932	2020-10-29T19:04:29:735
-0,419200	-1,058491	9,740341	2020-10-29T19:04:29:758
-0,420478	-1,054411	9,740729	2020-10-29T19:04:29:775
-0,416952	-1,057793	9,740514	2020-10-29T19:04:29:798
-0,414211	-1,060473	9,740339	2020-10-29T19:04:29:815
-0,412257	-1,060313	9,740439	2020-10-29T19:04:29:837
-0,415448	-1,057505	9,740609	2020-10-29T19:04:29:856
-0,412996	-1,058571	9,740598	2020-10-29T19:04:29:879
-0,414266	-1,056720	9,740745	2020-10-29T19:04:29:895
-0,414593	-1,058770	9,740508	2020-10-29T19:04:29:918
-0,416369	-1,059123	9,740395	2020-10-29T19:04:29:935
-0,414418	-1,062025	9,740161	2020-10-29T19:04:29:959
-0,413405	-1,061350	9,740278	2020-10-29T19:04:29:975
-0,415230	-1,054072	9,740991	2020-10-29T19:04:29:998
-0,414236	-1,055135	9,740918	2020-10-29T19:04:30:015
-0,413555	-1,054777	9,740986	2020-10-29T19:04:30:039
-0,409866	-1,059874	9,740588	2020-10-29T19:04:30:055
-0,409607	-1,059784	9,740609	2020-10-29T19:04:30:078
-0,409286	-1,058469	9,740766	2020-10-29T19:04:30:096
-0,406319	-1,057210	9,741027	2020-10-29T19:04:30:119
-0,406459	-1,059124	9,740812	2020-10-29T19:04:30:135
-0,406541	-1,062545	9,740437	2020-10-29T19:04:30:158
-0,407574	-1,065535	9,740067	2020-10-29T19:04:30:175
-0,407630	-1,062544	9,740391	2020-10-29T19:04:30:199
-0,409707	-1,061215	9,740449	2020-10-29T19:04:30:215
-0,409643	-1,062636	9,740296	2020-10-29T19:04:30:239
-0,409896	-1,064056	9,740131	2020-10-29T19:04:30:256
-0,409592	-1,061079	9,740469	2020-10-29T19:04:30:279
-0,411047	-1,056670	9,740887	2020-10-29T19:04:30:295
-0,412314	-1,058521	9,740632	2020-10-29T19:04:30:318
-0,412879	-1,056370	9,740842	2020-10-29T19:04:30:336
-0,412392	-1,059832	9,740486	2020-10-29T19:04:30:359
-0,412564	-1,061757	9,740270	2020-10-29T19:04:30:375
-0,411055	-1,060730	9,740445	2020-10-29T19:04:30:398
-0,410357	-1,060357	9,740515	2020-10-29T19:04:30:416
-0,409619	-1,063449	9,740210	2020-10-29T19:04:30:439
-0,410633	-1,066010	9,739886	2020-10-29T19:04:30:457
-0,410947	-1,066971	9,739768	2020-10-29T19:04:30:478
-0,411548	-1,059812	9,740524	2020-10-29T19:04:30:496
-0,410924	-1,061553	9,740361	2020-10-29T19:04:30:519
-0,410294	-1,061605	9,740382	2020-10-29T19:04:30:537
-0,413219	-1,060942	9,740331	2020-10-29T19:04:30:560
-0,409004	-1,064785	9,740088	2020-10-29T19:04:30:578
-0,408161	-1,066241	9,739965	2020-10-29T19:04:30:599
-0,407443	-1,063807	9,740261	2020-10-29T19:04:30:616
-0,407635	-1,063748	9,740260	2020-10-29T19:04:30:638
-0,408902	-1,065573	9,740007	2020-10-29T19:04:30:657
-0,410882	-1,064533	9,740037	2020-10-29T19:04:30:679
-0,410546	-1,064423	9,740064	2020-10-29T19:04:30:697
-0,412167	-1,058820	9,740606	2020-10-29T19:04:30:718
-0,414940	-1,059844	9,740376	2020-10-29T19:04:30:736
-0,412891	-1,063292	9,740088	2020-10-29T19:04:30:759
-0,413525	-1,065757	9,739792	2020-10-29T19:04:30:777
-0,415812	-1,065485	9,739724	2020-10-29T19:04:30:798
-0,414583	-1,060911	9,740275	2020-10-29T19:04:30:817
-0,413853	-1,062906	9,740089	2020-10-29T19:04:30:840
-0,414353	-1,063134	9,740044	2020-10-29T19:04:30:857
-0,412002	-1,065621	9,739871	2020-10-29T19:04:30:879
-0,413766	-1,060732	9,740330	2020-10-29T19:04:30:897
-0,411985	-1,063621	9,740090	2020-10-29T19:04:30:919
-0,411060	-1,063963	9,740092	2020-10-29T19:04:30:937
-0,412240	-1,065300	9,739896	2020-10-29T19:04:30:958
-0,412247	-1,059617	9,740516	2020-10-29T19:04:30:976
-0,411672	-1,059145	9,740591	2020-10-29T19:04:31:000
-0,412278	-1,060177	9,740454	2020-10-29T19:04:31:016
-0,413900	-1,056887	9,740743	2020-10-29T19:04:31:038
-0,415580	-1,051968	9,741203	2020-10-29T19:04:31:057
-0,416809	-1,058151	9,740481	2020-10-29T19:04:31:080
-0,415678	-1,063053	9,739996	2020-10-29T19:04:31:095
-0,414416	-1,059793	9,740405	2020-10-29T19:04:31:118
-0,411797	-1,059454	9,740553	2020-10-29T19:04:31:135
-0,412648	-1,064575	9,739958	2020-10-29T19:04:31:160
-0,412887	-1,064835	9,739920	2020-10-29T19:04:31:176
-0,414932	-1,068992	9,739377	2020-10-29T19:04:31:198
-0,412604	-1,068305	9,739552	2020-10-29T19:04:31:216
-0,415000	-1,068541	9,739424	2020-10-29T19:04:31:240
-0,416762	-1,068984	9,739300	2020-10-29T19:04:31:257
-0,416593	-1,071108	9,739074	2020-10-29T19:04:31:279
-0,417812	-1,067730	9,739392	2020-10-29T19:04:31:297
-0,419897	-1,069595	9,739099	2020-10-29T19:04:31:320
-0,420132	-1,073751	9,738631	2020-10-29T19:04:31:336
-0,424260	-1,069924	9,738873	2020-10-29T19:04:31:359
-0,421860	-1,070013	9,738968	2020-10-29T19:04:31:377
-0,421664	-1,070704	9,738900	2020-10-29T19:04:31:400
-0,422491	-1,070442	9,738894	2020-10-29T19:04:31:416
-0,421780	-1,067033	9,739298	2020-10-29T19:04:31:439
-0,422696	-1,063401	9,739655	2020-10-29T19:04:31:457
-0,424724	-1,063863	9,739517	2020-10-29T19:04:31:480
-0,423322	-1,064162	9,739545	2020-10-29T19:04:31:497
-0,420695	-1,062263	9,739866	2020-10-29T19:04:31:519
-0,422041	-1,068028	9,739178	2020-10-29T19:04:31:537
-0,425166	-1,065506	9,739318	2020-10-29T19:04:31:560
-0,423898	-1,061584	9,739801	2020-10-29T19:04:31:577
-0,425661	-1,063883	9,739474	2020-10-29T19:04:31:599
-0,427368	-1,067647	9,738987	2020-10-29T19:04:31:617
-0,428797	-1,063565	9,739371	2020-10-29T19:04:31:640
-0,429379	-1,060475	9,739682	2020-10-29T19:04:31:657
-0,427523	-1,060904	9,739717	2020-10-29T19:04:31:680
-0,427087	-1,060479	9,739782	2020-10-29T19:04:31:697
-0,425895	-1,059378	9,739955	2020-10-29T19:04:31:720
-0,425714	-1,060660	9,739823	2020-10-29T19:04:31:737
-0,427123	-1,066823	9,739088	2020-10-29T19:04:31:761
-0,428631	-1,065988	9,739114	2020-10-29T19:04:31:778
-0,427820	-1,066443	9,739100	2020-10-29T19:04:31:800
-0,426869	-1,068401	9,738926	2020-10-29T19:04:31:817
-0,429352	-1,068073	9,738853	2020-10-29T19:04:31:839
-0,428650	-1,064915	9,739230	2020-10-29T19:04:31:857
-0,429224	-1,066177	9,739066	2020-10-29T19:04:31:881
-0,428767	-1,066371	9,739065	2020-10-29T19:04:31:897
-0,428981	-1,061965	9,739537	2020-10-29T19:04:31:920
-0,429239	-1,063599	9,739347	2020-10-29T19:04:31:937
-0,429294	-1,068230	9,738838	2020-10-29T19:04:31:962
-0,433409	-1,068955	9,738577	2020-10-29T19:04:31:977
-0,429593	-1,067825	9,738870	2020-10-29T19:04:31:999
-0,430617	-1,067711	9,738837	2020-10-29T19:04:32:018
-0,433304	-1,064091	9,739114	2020-10-29T19:04:32:040
-0,428977	-1,067647	9,738916	2020-10-29T19:04:32:057
-0,429371	-1,071144	9,738515	2020-10-29T19:04:32:080
-0,431142	-1,076077	9,737893	2020-10-29T19:04:32:097
-0,431874	-1,077288	9,737726	2020-10-29T19:04:32:121
-0,432063	-1,075808	9,737882	2020-10-29T19:04:32:137
-0,430799	-1,077934	9,737702	2020-10-29T19:04:32:160
-0,433382	-1,081137	9,737233	2020-10-29T19:04:32:177
-0,434388	-1,082392	9,737049	2020-10-29T19:04:32:201
-0,437593	-1,084142	9,736711	2020-10-29T19:04:32:217
-0,435548	-1,092132	9,735909	2020-10-29T19:04:32:239
-0,437100	-1,090726	9,735997	2020-10-29T19:04:32:258
-0,433163	-1,092991	9,735919	2020-10-29T19:04:32:281
-0,434570	-1,094430	9,735695	2020-10-29T19:04:32:297
-0,432804	-1,097303	9,735450	2020-10-29T19:04:32:320
-0,430951	-1,097713	9,735486	2020-10-29T19:04:32:338
-0,426894	-1,103975	9,734957	2020-10-29T19:04:32:361
-0,425067	-1,100869	9,735389	2020-10-29T19:04:32:378
-0,423404	-1,102419	9,735286	2020-10-29T19:04:32:400
-0,421008	-1,110667	9,734452	2020-10-29T19:04:32:417
-0,421440	-1,113114	9,734154	2020-10-29T19:04:32:443
-0,420080	-1,113944	9,734118	2020-10-29T19:04:32:458
-0,422278	-1,113539	9,734069	2020-10-29T19:04:32:481
-0,422840	-1,113710	9,734025	2020-10-29T19:04:32:499
-0,422644	-1,116948	9,733663	2020-10-29T19:04:32:520
-0,418964	-1,119691	9,733506	2020-10-29T19:04:32:537
-0,419874	-1,118997	9,733547	2020-10-29T19:04:32:561
-0,421103	-1,122039	9,733144	2020-10-29T19:04:32:578
-0,418352	-1,122818	9,733172	2020-10-29T19:04:32:601
-0,416654	-1,122740	9,733254	2020-10-29T19:04:32:618
-0,415606	-1,118636	9,733771	2020-10-29T19:04:32:640
-0,414397	-1,119696	9,733702	2020-10-29T19:04:32:658
-0,413806	-1,122069	9,733453	2020-10-29T19:04:32:681
-0,411739	-1,122748	9,733462	2020-10-29T19:04:32:697
-0,409031	-1,125497	9,733259	2020-10-29T19:04:32:720
-0,411224	-1,122531	9,733509	2020-10-29T19:04:32:739
-0,410461	-1,119828	9,733852	2020-10-29T19:04:32:761
-0,410699	-1,123129	9,733462	2020-10-29T19:04:32:778
-0,409992	-1,126736	9,733075	2020-10-29T19:04:32:800
-0,409744	-1,125260	9,733256	2020-10-29T19:04:32:818
-0,409090	-1,123006	9,733544	2020-10-29T19:04:32:841
-0,409246	-1,120958	9,733774	2020-10-29T19:04:32:860
-0,407434	-1,122615	9,733659	2020-10-29T19:04:32:881
-0,408370	-1,118963	9,734040	2020-10-29T19:04:32:897
-0,407276	-1,121286	9,733819	2020-10-29T19:04:32:921
-0,408445	-1,122262	9,733658	2020-10-29T19:04:32:938
-0,405583	-1,123631	9,733619	2020-10-29T19:04:32:961
-0,406572	-1,125662	9,733343	2020-10-29T19:04:32:979
-0,406034	-1,126727	9,733242	2020-10-29T19:04:33:001
-0,403791	-1,125550	9,733472	2020-10-29T19:04:33:018
-0,403701	-1,130244	9,732932	2020-10-29T19:04:33:041
-0,400932	-1,125367	9,733611	2020-10-29T19:04:33:058
-0,398676	-1,126364	9,733588	2020-10-29T19:04:33:081
-0,399573	-1,123265	9,733910	2020-10-29T19:04:33:098
-0,398272	-1,125208	9,733739	2020-10-29T19:04:33:121
-0,399870	-1,125802	9,733604	2020-10-29T19:04:33:138
-0,398114	-1,129234	9,733279	2020-10-29T19:04:33:162
-0,400713	-1,131785	9,732876	2020-10-29T19:04:33:178
-0,401548	-1,133240	9,732673	2020-10-29T19:04:33:200
-0,404398	-1,131051	9,732809	2020-10-29T19:04:33:220
-0,404104	-1,132372	9,732668	2020-10-29T19:04:33:241
-0,405216	-1,134721	9,732347	2020-10-29T19:04:33:258
-0,405565	-1,138869	9,731849	2020-10-29T19:04:33:281
-0,404709	-1,143404	9,731353	2020-10-29T19:04:33:298
-0,408102	-1,144235	9,731113	2020-10-29T19:04:33:321
-0,404669	-1,146048	9,731043	2020-10-29T19:04:33:338
-0,401240	-1,145181	9,731287	2020-10-29T19:04:33:361
-0,401231	-1,149875	9,730734	2020-10-29T19:04:33:378
-0,400534	-1,154466	9,730219	2020-10-29T19:04:33:402
-0,400275	-1,149710	9,730793	2020-10-29T19:04:33:419
-0,400761	-1,148111	9,730962	2020-10-29T19:04:33:441
-0,401553	-1,153097	9,730339	2020-10-29T19:04:33:460
-0,399652	-1,154226	9,730284	2020-10-29T19:04:33:482
-0,399781	-1,151368	9,730618	2020-10-29T19:04:33:498
-0,398158	-1,150970	9,730731	2020-10-29T19:04:33:520
-0,399737	-1,151304	9,730626	2020-10-29T19:04:33:539
-0,399672	-1,158083	9,729825	2020-10-29T19:04:33:562
-0,397671	-1,154137	9,730375	2020-10-29T19:04:33:579
-0,400360	-1,158769	9,729714	2020-10-29T19:04:33:601
-0,399135	-1,162295	9,729344	2020-10-29T19:04:33:618
-0,398053	-1,164018	9,729183	2020-10-29T19:04:33:642
-0,399494	-1,164272	9,729094	2020-10-29T19:04:33:659
-0,399688	-1,161747	9,729387	2020-10-29T19:04:33:681
-0,399653	-1,164526	9,729056	2020-10-29T19:04:33:700
-0,400567	-1,162645	9,729244	2020-10-29T19:04:33:722
-0,401475	-1,161250	9,729373	2020-10-29T19:04:33:739
-0,400244	-1,161841	9,729353	2020-10-29T19:04:33:762
-0,398305	-1,163192	9,729271	2020-10-29T19:04:33:779
-0,400790	-1,165794	9,728858	2020-10-29T19:04:33:802
-0,397032	-1,167405	9,728819	2020-10-29T19:04:33:819
-0,394443	-1,169447	9,728679	2020-10-29T19:04:33:841
-0,397782	-1,173031	9,728111	2020-10-29T19:04:33:859
-0,398340	-1,169684	9,728492	2020-10-29T19:04:33:883
-0,398744	-1,170422	9,728386	2020-10-29T19:04:33:899
-0,395631	-1,175281	9,727927	2020-10-29T19:04:33:922
-0,397856	-1,179250	9,727357	2020-10-29T19:04:33:940
-0,399499	-1,174030	9,727921	2020-10-29T19:04:33:963
-0,397063	-1,172936	9,728152	2020-10-29T19:04:33:979
-0,396829	-1,176805	9,727695	2020-10-29T19:04:34:001
-0,400488	-1,177760	9,727429	2020-10-29T19:04:34:019
-0,401819	-1,174473	9,727772	2020-10-29T19:04:34:042
-0,398489	-1,175051	9,727839	2020-10-29T19:04:34:060
-0,398685	-1,175611	9,727763	2020-10-29T19:04:34:082
-0,397291	-1,175673	9,727813	2020-10-29T19:04:34:099
-0,396960	-1,177062	9,727658	2020-10-29T19:04:34:122
-0,397456	-1,178596	9,727452	2020-10-29T19:04:34:139
-0,395772	-1,181483	9,727171	2020-10-29T19:04:34:162
-0,396434	-1,182387	9,727034	2020-10-29T19:04:34:180
-0,398811	-1,185114	9,726604	2020-10-29T19:04:34:202
-0,397901	-1,186395	9,726486	2020-10-29T19:04:34:219
-0,398320	-1,186230	9,726489	2020-10-29T19:04:34:242
-0,397807	-1,188309	9,726256	2020-10-29T19:04:34:260
-0,399294	-1,184444	9,726666	2020-10-29T19:04:34:283
-0,396148	-1,184696	9,726765	2020-10-29T19:04:34:299
-0,393617	-1,183371	9,727029	2020-10-29T19:04:34:322
-0,395073	-1,184656	9,726813	2020-10-29T19:04:34:339
-0,396391	-1,185966	9,726600	2020-10-29T19:04:34:363
-0,396593	-1,189819	9,726121	2020-10-29T19:04:34:379
-0,394030	-1,192760	9,725865	2020-10-29T19:04:34:401
-0,394955	-1,191666	9,725962	2020-10-29T19:04:34:422
-0,394663	-1,189029	9,726296	2020-10-29T19:04:34:442
-0,395844	-1,190876	9,726022	2020-10-29T19:04:34:460
-0,398251	-1,186913	9,726408	2020-10-29T19:04:34:482
-0,396678	-1,185541	9,726640	2020-10-29T19:04:34:500
-0,398741	-1,187582	9,726307	2020-10-29T19:04:34:522
-0,399317	-1,190585	9,725916	2020-10-29T19:04:34:540
-0,399766	-1,190087	9,725958	2020-10-29T19:04:34:563
-0,398896	-1,187315	9,726333	2020-10-29T19:04:34:580
-0,398554	-1,189254	9,726110	2020-10-29T19:04:34:603
-0,398453	-1,193165	9,725635	2020-10-29T19:04:34:620
-0,402037	-1,190964	9,725758	2020-10-29T19:04:34:643
-0,400633	-1,187839	9,726197	2020-10-29T19:04:34:661
-0,406454	-1,192273	9,725413	2020-10-29T19:04:34:684
-0,406849	-1,192113	9,725416	2020-10-29T19:04:34:700
-0,405063	-1,191627	9,725551	2020-10-29T19:04:34:723
-0,403491	-1,191159	9,725674	2020-10-29T19:04:34:741
-0,403283	-1,195344	9,725168	2020-10-29T19:04:34:764
-0,401390	-1,191414	9,725729	2020-10-29T19:04:34:780
-0,402906	-1,186890	9,726219	2020-10-29T19:04:34:802
-0,401641	-1,184414	9,726574	2020-10-29T19:04:34:820
-0,405800	-1,187212	9,726060	2020-10-29T19:04:34:843
-0,404761	-1,190379	9,725716	2020-10-29T19:04:34:860
-0,406604	-1,185982	9,726176	2020-10-29T19:04:34:883
-0,404551	-1,184964	9,726386	2020-10-29T19:04:34:901
-0,405057	-1,188075	9,725986	2020-10-29T19:04:34:923
-0,404573	-1,190191	9,725747	2020-10-29T19:04:34:940
-0,406449	-1,190866	9,725586	2020-10-29T19:04:34:963
-0,406677	-1,191254	9,725529	2020-10-29T19:04:34:980
-0,402763	-1,187842	9,726110	2020-10-29T19:04:35:003
-0,402975	-1,189457	9,725903	2020-10-29T19:04:35:020
-0,404695	-1,190290	9,725730	2020-10-29T19:04:35:043
-0,403575	-1,190439	9,725758	2020-10-29T19:04:35:060
-0,401653	-1,194700	9,725315	2020-10-29T19:04:35:084
-0,399762	-1,193893	9,725492	2020-10-29T19:04:35:100
-0,398493	-1,188172	9,726245	2020-10-29T19:04:35:123
-0,400440	-1,190122	9,725926	2020-10-29T19:04:35:141
-0,402836	-1,192856	9,725492	2020-10-29T19:04:35:164
-0,398582	-1,193366	9,725605	2020-10-29T19:04:35:180
-0,397726	-1,191391	9,725883	2020-10-29T19:04:35:203
-0,398592	-1,197021	9,725156	2020-10-29T19:04:35:220
-0,399400	-1,196644	9,725169	2020-10-29T19:04:35:244
-0,398214	-1,194392	9,725494	2020-10-29T19:04:35:261
-0,397966	-1,194436	9,725499	2020-10-29T19:04:35:283
-0,399110	-1,201185	9,724621	2020-10-29T19:04:35:300
-0,400198	-1,199560	9,724776	2020-10-29T19:04:35:324
-0,402283	-1,198134	9,724867	2020-10-29T19:04:35:340
-0,400843	-1,201307	9,724535	2020-10-29T19:04:35:363
-0,397576	-1,201352	9,724663	2020-10-29T19:04:35:381
-0,396417	-1,200288	9,724842	2020-10-29T19:04:35:404
-0,401105	-1,197605	9,724980	2020-10-29T19:04:35:420
-0,400053	-1,195737	9,725253	2020-10-29T19:04:35:443
-0,399365	-1,195066	9,725364	2020-10-29T19:04:35:461
-0,398199	-1,191714	9,725823	2020-10-29T19:04:35:484
-0,398802	-1,192870	9,725657	2020-10-29T19:04:35:501
-0,399915	-1,192117	9,725703	2020-10-29T19:04:35:523
-0,400468	-1,189972	9,725944	2020-10-29T19:04:35:540
-0,401798	-1,188140	9,726112	2020-10-29T19:04:35:564
-0,401557	-1,192830	9,725549	2020-10-29T19:04:35:581
-0,403382	-1,192895	9,725465	2020-10-29T19:04:35:603
-0,402221	-1,189993	9,725868	2020-10-29T19:04:35:621
-0,398795	-1,194341	9,725476	2020-10-29T19:04:35:644
-0,396567	-1,198102	9,725105	2020-10-29T19:04:35:661
-0,396504	-1,199635	9,724918	2020-10-29T19:04:35:683
-0,397663	-1,197067	9,725188	2020-10-29T19:04:35:701
-0,395141	-1,197622	9,725223	2020-10-29T19:04:35:724
-0,392776	-1,199868	9,725041	2020-10-29T19:04:35:741
-0,394244	-1,200596	9,724892	2020-10-29T19:04:35:764
-0,396991	-1,199518	9,724914	2020-10-29T19:04:35:781
-0,394932	-1,199671	9,724978	2020-10-29T19:04:35:804
-0,394280	-1,202132	9,724701	2020-10-29T19:04:35:821
-0,394173	-1,202138	9,724705	2020-10-29T19:04:35:843
-0,392393	-1,200779	9,724944	2020-10-29T19:04:35:862
-0,392310	-1,201799	9,724822	2020-10-29T19:04:35:885
-0,390099	-1,200340	9,725091	2020-10-29T19:04:35:901
-0,387761	-1,201209	9,725077	2020-10-29T19:04:35:923
-0,386808	-1,198549	9,725443	2020-10-29T19:04:35:941
-0,385823	-1,195363	9,725874	2020-10-29T19:04:35:964
-0,386732	-1,192719	9,726163	2020-10-29T19:04:35:981
-0,387105	-1,193942	9,725998	2020-10-29T19:04:36:003
-0,386501	-1,193395	9,726089	2020-10-29T19:04:36:021
-0,383665	-1,193384	9,726203	2020-10-29T19:04:36:044
-0,385245	-1,191004	9,726432	2020-10-29T19:04:36:061
-0,386888	-1,193229	9,726094	2020-10-29T19:04:36:084
-0,384037	-1,192131	9,726341	2020-10-29T19:04:36:102
-0,387264	-1,189937	9,726482	2020-10-29T19:04:36:124
-0,385706	-1,192090	9,726281	2020-10-29T19:04:36:141
-0,385860	-1,193274	9,726130	2020-10-29T19:04:36:164
-0,385531	-1,190822	9,726443	2020-10-29T19:04:36:182
-0,383531	-1,192930	9,726264	2020-10-29T19:04:36:204
-0,383932	-1,194754	9,726024	2020-10-29T19:04:36:221
-0,384199	-1,194904	9,725995	2020-10-29T19:04:36:244
-0,387802	-1,189641	9,726498	2020-10-29T19:04:36:261
-0,391142	-1,189532	9,726377	2020-10-29T19:04:36:285
-0,390376	-1,188704	9,726509	2020-10-29T19:04:36:301
-0,389602	-1,190571	9,726312	2020-10-29T19:04:36:324
-0,388779	-1,187778	9,726686	2020-10-29T19:04:36:342
-0,389000	-1,188698	9,726564	2020-10-29T19:04:36:366
-0,386888	-1,191409	9,726317	2020-10-29T19:04:36:381
-0,391114	-1,190806	9,726222	2020-10-29T19:04:36:404
-0,391396	-1,190006	9,726309	2020-10-29T19:04:36:421
-0,391886	-1,188540	9,726468	2020-10-29T19:04:36:445
-0,391985	-1,189249	9,726377	2020-10-29T19:04:36:462
-0,390637	-1,190353	9,726296	2020-10-29T19:04:36:484
-0,393713	-1,186727	9,726616	2020-10-29T19:04:36:501
-0,392844	-1,184637	9,726906	2020-10-29T19:04:36:525
-0,393358	-1,181498	9,727266	2020-10-29T19:04:36:541
-0,396429	-1,180164	9,727304	2020-10-29T19:04:36:564
-0,393416	-1,183460	9,727026	2020-10-29T19:04:36:583
-0,396785	-1,182043	9,727061	2020-10-29T19:04:36:605
-0,396406	-1,177751	9,727597	2020-10-29T19:04:36:621
-0,396182	-1,172961	9,728185	2020-10-29T19:04:36:644
-0,396670	-1,177557	9,727610	2020-10-29T19:04:36:662
-0,394563	-1,178847	9,727539	2020-10-29T19:04:36:685
-0,394729	-1,176134	9,727861	2020-10-29T19:04:36:701
-0,395307	-1,173854	9,728113	2020-10-29T19:04:36:724
-0,397882	-1,176910	9,727639	2020-10-29T19:04:36:742
-0,398567	-1,175573	9,727773	2020-10-29T19:04:36:767
-0,398293	-1,169789	9,728481	2020-10-29T19:04:36:782
-0,394136	-1,173079	9,728254	2020-10-29T19:04:36:805
-0,394899	-1,171881	9,728368	2020-10-29T19:04:36:823
-0,396175	-1,171484	9,728363	2020-10-29T19:04:36:845
-0,397979	-1,169935	9,728477	2020-10-29T19:04:36:862
-0,399308	-1,169480	9,728477	2020-10-29T19:04:36:885
-0,400092	-1,176688	9,727575	2020-10-29T19:04:36:901
-0,400408	-1,176227	9,727618	2020-10-29T19:04:36:925
-0,402052	-1,178059	9,727328	2020-10-29T19:04:36:942
-0,399187	-1,178642	9,727376	2020-10-29T19:04:36:964
-0,403647	-1,178409	9,727220	2020-10-29T19:04:36:982
-0,402356	-1,180264	9,727049	2020-10-29T19:04:37:005
-0,402595	-1,177832	9,727333	2020-10-29T19:04:37:022
-0,400710	-1,175260	9,727722	2020-10-29T19:04:37:044
-0,402439	-1,176958	9,727446	2020-10-29T19:04:37:064
-0,405424	-1,176840	9,727336	2020-10-29T19:04:37:086
-0,409496	-1,175518	9,727325	2020-10-29T19:04:37:101
-0,410194	-1,170564	9,727893	2020-10-29T19:04:37:124
-0,409092	-1,174113	9,727512	2020-10-29T19:04:37:142
-0,410336	-1,176787	9,727137	2020-10-29T19:04:37:166
-0,410341	-1,177687	9,727027	2020-10-29T19:04:37:182
-0,411397	-1,179062	9,726816	2020-10-29T19:04:37:204
-0,408691	-1,176690	9,727218	2020-10-29T19:04:37:222
-0,409869	-1,173281	9,727579	2020-10-29T19:04:37:246
-0,411827	-1,173671	9,727449	2020-10-29T19:04:37:263
-0,412038	-1,171271	9,727730	2020-10-29T19:04:37:285
-0,413844	-1,169419	9,727877	2020-10-29T19:04:37:303
-0,412656	-1,168177	9,728076	2020-10-29T19:04:37:325
-0,410213	-1,169132	9,728065	2020-10-29T19:04:37:342
-0,412974	-1,171843	9,727621	2020-10-29T19:04:37:366
-0,412621	-1,171478	9,727680	2020-10-29T19:04:37:383
-0,410505	-1,170830	9,727848	2020-10-29T19:04:37:406
-0,411113	-1,170283	9,727888	2020-10-29T19:04:37:425
-0,409705	-1,172018	9,727738	2020-10-29T19:04:37:445
-0,410410	-1,170497	9,727892	2020-10-29T19:04:37:462
-0,410304	-1,169516	9,728015	2020-10-29T19:04:37:487
-0,410692	-1,169743	9,727971	2020-10-29T19:04:37:502
-0,410758	-1,173334	9,727535	2020-10-29T19:04:37:525
-0,410649	-1,171385	9,727775	2020-10-29T19:04:37:543
-0,409715	-1,166943	9,728349	2020-10-29T19:04:37:570
-0,410543	-1,159714	9,729177	2020-10-29T19:04:37:582
-0,410110	-1,161659	9,728964	2020-10-29T19:04:37:605
-0,405326	-1,162132	9,729108	2020-10-29T19:04:37:622
-0,404299	-1,160002	9,729405	2020-10-29T19:04:37:646
-0,405287	-1,162273	9,729093	2020-10-29T19:04:37:663
-0,405250	-1,160618	9,729292	2020-10-29T19:04:37:686
-0,405571	-1,158276	9,729558	2020-10-29T19:04:37:702
-0,403281	-1,160460	9,729393	2020-10-29T19:04:37:726
-0,405001	-1,157455	9,729679	2020-10-29T19:04:37:742
-0,403377	-1,160881	9,729339	2020-10-29T19:04:37:765
-0,404166	-1,159377	9,729486	2020-10-29T19:04:37:784
-0,403466	-1,158636	9,729603	2020-10-29T19:04:37:806
-0,405822	-1,158952	9,729466	2020-10-29T19:04:37:822
-0,406019	-1,161461	9,729159	2020-10-29T19:04:37:845
-0,405207	-1,162981	9,729012	2020-10-29T19:04:37:863
-0,403925	-1,161362	9,729259	2020-10-29T19:04:37:887
-0,404350	-1,159807	9,729426	2020-10-29T19:04:37:903
-0,406250	-1,161705	9,729120	2020-10-29T19:04:37:925
-0,403433	-1,161157	9,729303	2020-10-29T19:04:37:942
-0,406200	-1,158941	9,729452	2020-10-29T19:04:37:967
-0,403147	-1,160212	9,729428	2020-10-29T19:04:37:984
-0,401144	-1,160957	9,729422	2020-10-29T19:04:38:005
-0,403963	-1,156217	9,729870	2020-10-29T19:04:38:024
-0,404013	-1,151698	9,730403	2020-10-29T19:04:38:046
-0,402522	-1,154432	9,730142	2020-10-29T19:04:38:063
-0,405754	-1,152201	9,730271	2020-10-29T19:04:38:086
-0,405399	-1,154574	9,730005	2020-10-29T19:04:38:103
-0,402409	-1,157294	9,729806	2020-10-29T19:04:38:126
-0,404226	-1,153338	9,730200	2020-10-29T19:04:38:143
-0,406944	-1,155380	9,729845	2020-10-29T19:04:38:166
-0,405415	-1,158131	9,729582	2020-10-29T19:04:38:183
-0,408939	-1,158781	9,729357	2020-10-29T19:04:38:207
-0,409986	-1,154642	9,729805	2020-10-29T19:04:38:223
-0,409674	-1,152441	9,730079	2020-10-29T19:04:38:245
-0,409764	-1,153458	9,729955	2020-10-29T19:04:38:264
-0,409062	-1,155239	9,729773	2020-10-29T19:04:38:287
-0,411961	-1,153560	9,729850	2020-10-29T19:04:38:303
-0,406159	-1,156369	9,729760	2020-10-29T19:04:38:325
-0,404300	-1,172245	9,727938	2020-10-29T19:04:38:343
-0,407576	-1,178403	9,727057	2020-10-29T19:04:38:368
-0,406555	-1,175019	9,727509	2020-10-29T19:04:38:383
-0,402160	-1,171850	9,728074	2020-10-29T19:04:38:405
-0,400082	-1,172187	9,728119	2020-10-29T19:04:38:423
-0,396940	-1,172990	9,728150	2020-10-29T19:04:38:447
-0,392999	-1,169838	9,728690	2020-10-29T19:04:38:464
-0,393678	-1,173397	9,728234	2020-10-29T19:04:38:486
-0,390662	-1,169892	9,728778	2020-10-29T19:04:38:504
-0,392433	-1,163257	9,729503	2020-10-29T19:04:38:527
-0,393277	-1,160422	9,729807	2020-10-29T19:04:38:543
-0,395874	-1,163230	9,729366	2020-10-29T19:04:38:566
-0,395889	-1,165586	9,729083	2020-10-29T19:04:38:584
-0,396697	-1,160726	9,729631	2020-10-29T19:04:38:607
-0,397961	-1,158802	9,729810	2020-10-29T19:04:38:623
-0,397896	-1,159874	9,729684	2020-10-29T19:04:38:646
-0,398841	-1,160191	9,729608	2020-10-29T19:04:38:664
-0,399049	-1,157382	9,729934	2020-10-29T19:04:38:687
-0,401218	-1,160250	9,729503	2020-10-29T19:04:38:704
-0,396674	-1,164253	9,729211	2020-10-29T19:04:38:726
-0,396698	-1,163161	9,729341	2020-10-29T19:04:38:744
-0,398933	-1,158828	9,729767	2020-10-29T19:04:38:768
-0,398721	-1,156392	9,730065	2020-10-29T19:04:38:784
-0,398466	-1,156678	9,730042	2020-10-29T19:04:38:806
-0,394940	-1,157793	9,730053	2020-10-29T19:04:38:824
-0,395885	-1,155704	9,730263	2020-10-29T19:04:38:848
-0,399735	-1,156110	9,730057	2020-10-29T19:04:38:864
-0,401129	-1,153300	9,730333	2020-10-29T19:04:38:888
-0,399444	-1,152132	9,730540	2020-10-29T19:04:38:903
-0,398547	-1,147587	9,731114	2020-10-29T19:04:38:928
-0,399720	-1,147263	9,731105	2020-10-29T19:04:38:944
-0,399391	-1,146392	9,731220	2020-10-29T19:04:38:966
-0,399003	-1,146828	9,731185	2020-10-29T19:04:38:985
-0,398869	-1,147554	9,731105	2020-10-29T19:04:39:007
-0,396533	-1,146677	9,731304	2020-10-29T19:04:39:023
-0,395744	-1,146099	9,731404	2020-10-29T19:04:39:047
-0,396365	-1,146358	9,731348	2020-10-29T19:04:39:064
-0,395448	-1,147254	9,731280	2020-10-29T19:04:39:087
-0,394840	-1,144292	9,731653	2020-10-29T19:04:39:104
-0,391497	-1,148883	9,731248	2020-10-29T19:04:39:126
-0,393595	-1,146434	9,731452	2020-10-29T19:04:39:144
-0,395256	-1,144281	9,731638	2020-10-29T19:04:39:168
-0,395864	-1,145989	9,731412	2020-10-29T19:04:39:184
-0,397922	-1,148908	9,730984	2020-10-29T19:04:39:206
-0,397751	-1,151237	9,730716	2020-10-29T19:04:39:225
-0,398286	-1,150305	9,730804	2020-10-29T19:04:39:248
-0,398585	-1,149356	9,730905	2020-10-29T19:04:39:264
-0,398388	-1,148630	9,730998	2020-10-29T19:04:39:287
-0,397682	-1,151032	9,730743	2020-10-29T19:04:39:304
-0,398782	-1,151459	9,730647	2020-10-29T19:04:39:327
-0,400988	-1,152273	9,730460	2020-10-29T19:04:39:344
-0,399674	-1,155000	9,730191	2020-10-29T19:04:39:367
-0,399234	-1,151239	9,730655	2020-10-29T19:04:39:384
-0,400862	-1,150344	9,730694	2020-10-29T19:04:39:408
-0,402068	-1,151147	9,730549	2020-10-29T19:04:39:424
-0,402762	-1,153517	9,730240	2020-10-29T19:04:39:446
-0,402919	-1,151253	9,730501	2020-10-29T19:04:39:465
-0,401602	-1,154539	9,730166	2020-10-29T19:04:39:487
-0,402679	-1,155243	9,730039	2020-10-29T19:04:39:503
-0,400833	-1,155704	9,730060	2020-10-29T19:04:39:528
-0,400988	-1,152131	9,730477	2020-10-29T19:04:39:543
-0,400425	-1,153125	9,730383	2020-10-29T19:04:39:568
-0,400055	-1,155966	9,730061	2020-10-29T19:04:39:584
-0,400957	-1,156711	9,729935	2020-10-29T19:04:39:607
-0,401239	-1,152937	9,730371	2020-10-29T19:04:39:624
-0,404165	-1,150879	9,730494	2020-10-29T19:04:39:648
-0,403171	-1,154471	9,730109	2020-10-29T19:04:39:665
-0,403612	-1,158173	9,729651	2020-10-29T19:04:39:687
-0,401895	-1,160607	9,729432	2020-10-29T19:04:39:705
-0,404270	-1,151872	9,730372	2020-10-29T19:04:39:729
-0,404594	-1,152468	9,730289	2020-10-29T19:04:39:744
-0,401505	-1,154824	9,730137	2020-10-29T19:04:39:768
-0,400981	-1,156661	9,729940	2020-10-29T19:04:39:785
-0,402482	-1,155863	9,729973	2020-10-29T19:04:39:808
-0,402772	-1,151892	9,730432	2020-10-29T19:04:39:825
-0,402138	-1,152627	9,730371	2020-10-29T19:04:39:847
-0,400686	-1,154545	9,730204	2020-10-29T19:04:39:865
-0,400604	-1,151126	9,730612	2020-10-29T19:04:39:889
-0,402081	-1,153297	9,730294	2020-10-29T19:04:39:905
-0,401937	-1,154595	9,730145	2020-10-29T19:04:39:927
-0,401012	-1,151984	9,730494	2020-10-29T19:04:39:946
-0,406283	-1,148768	9,730656	2020-10-29T19:04:39:970
-0,406977	-1,149331	9,730559	2020-10-29T19:04:39:984
-0,404620	-1,151965	9,730347	2020-10-29T19:04:40:007
-0,406181	-1,150472	9,730458	2020-10-29T19:04:40:025
-0,405596	-1,149906	9,730550	2020-10-29T19:04:40:056
-0,403505	-1,152486	9,730331	2020-10-29T19:04:40:065
-0,401888	-1,155195	9,730077	2020-10-29T19:04:40:087
-0,403121	-1,153954	9,730173	2020-10-29T19:04:40:104
-0,403997	-1,155634	9,729938	2020-10-29T19:04:40:130
-0,404484	-1,153711	9,730145	2020-10-29T19:04:40:145
-0,402933	-1,149214	9,730742	2020-10-29T19:04:40:169
-0,405600	-1,143339	9,731323	2020-10-29T19:04:40:186
-0,406370	-1,147112	9,730846	2020-10-29T19:04:40:211
-0,407008	-1,147320	9,730796	2020-10-29T19:04:40:225
-0,408738	-1,143630	9,731157	2020-10-29T19:04:40:249
-0,409931	-1,143760	9,731092	2020-10-29T19:04:40:265
-0,410556	-1,142024	9,731270	2020-10-29T19:04:40:290
-0,412063	-1,140223	9,731417	2020-10-29T19:04:40:305
-0,411992	-1,137995	9,731681	2020-10-29T19:04:40:329
-0,415036	-1,137867	9,731566	2020-10-29T19:04:40:345
-0,415203	-1,137471	9,731606	2020-10-29T19:04:40:370
-0,414405	-1,138950	9,731467	2020-10-29T19:04:40:386
-0,414169	-1,142894	9,731014	2020-10-29T19:04:40:408
-0,415589	-1,140249	9,731264	2020-10-29T19:04:40:426
-0,417229	-1,140882	9,731120	2020-10-29T19:04:40:449
-0,417673	-1,138830	9,731341	2020-10-29T19:04:40:465
-0,418097	-1,143724	9,730749	2020-10-29T19:04:40:489
-0,417606	-1,142615	9,730900	2020-10-29T19:04:40:505
-0,418662	-1,142720	9,730843	2020-10-29T19:04:40:530
-0,419275	-1,144600	9,730596	2020-10-29T19:04:40:546
-0,417878	-1,146725	9,730405	2020-10-29T19:04:40:568
-0,417174	-1,148692	9,730204	2020-10-29T19:04:40:585
-0,415192	-1,148118	9,730356	2020-10-29T19:04:40:609
-0,416147	-1,149614	9,730139	2020-10-29T19:04:40:625
-0,416057	-1,146321	9,730531	2020-10-29T19:04:40:648
-0,416814	-1,147390	9,730372	2020-10-29T19:04:40:667
-0,415149	-1,149706	9,730170	2020-10-29T19:04:40:689
-0,416079	-1,146523	9,730506	2020-10-29T19:04:40:705
-0,414317	-1,146718	9,730558	2020-10-29T19:04:40:729
-0,412765	-1,142909	9,731072	2020-10-29T19:04:40:745
-0,412802	-1,141459	9,731241	2020-10-29T19:04:40:770
-0,414661	-1,137015	9,731682	2020-10-29T19:04:40:786
-0,413266	-1,135046	9,731972	2020-10-29T19:04:40:809
-0,412501	-1,135931	9,731900	2020-10-29T19:04:40:825
-0,412981	-1,133517	9,732162	2020-10-29T19:04:40:849
-0,415200	-1,135094	9,731883	2020-10-29T19:04:40:866
-0,413402	-1,134359	9,732046	2020-10-29T19:04:40:889
-0,410934	-1,134522	9,732131	2020-10-29T19:04:40:907
-0,407934	-1,134766	9,732229	2020-10-29T19:04:40:930
-0,409236	-1,135324	9,732109	2020-10-29T19:04:40:946
-0,410506	-1,130685	9,732595	2020-10-29T19:04:40:968
-0,408175	-1,131932	9,732549	2020-10-29T19:04:40:986
-0,409067	-1,132599	9,732434	2020-10-29T19:04:41:009
-0,408835	-1,140311	9,731543	2020-10-29T19:04:41:026
-0,407639	-1,136078	9,732088	2020-10-29T19:04:41:048
-0,409422	-1,133294	9,732338	2020-10-29T19:04:41:066
-0,407949	-1,132908	9,732445	2020-10-29T19:04:41:090
