v1	v2	v3	v4	ts
1002,162781	92,717392	27,469999	1002,192139	2020-10-29T19:03:51:286
1002,164429	92,704178	27,469999	1002,179443	2020-10-29T19:03:51:461
1002,167969	92,675117	27,469999	1002,199951	2020-10-29T19:03:51:701
1002,172546	92,635483	27,469999	1002,213379	2020-10-29T19:03:51:940
1002,177429	92,595848	27,480000	1002,221436	2020-10-29T19:03:52:181
1002,176941	92,598488	27,469999	1002,172852	2020-10-29T19:03:52:423
1002,178345	92,587921	27,480000	1002,191162	2020-10-29T19:03:52:663
1002,179382	92,577354	27,480000	1002,188232	2020-10-29T19:03:52:903
1002,182007	92,556213	27,480000	1002,205566	2020-10-29T19:03:53:144
1002,184937	92,532433	27,490000	1002,210938	2020-10-29T19:03:53:384
1002,185974	92,521866	27,490000	1002,195312	2020-10-29T19:03:53:624
1002,188232	92,503365	27,490000	1002,208496	2020-10-29T19:03:53:864
1002,188660	92,500725	27,490000	1002,192871	2020-10-29T19:03:54:105
1002,187561	92,508652	27,500000	1002,177734	2020-10-29T19:03:54:345
1002,188904	92,498085	27,500000	1002,200928	2020-10-29T19:03:54:585
1002,194092	92,455803	27,500000	1002,241211	2020-10-29T19:03:54:826
1002,196350	92,434669	27,500000	1002,216553	2020-10-29T19:03:55:066
1002,197632	92,424095	27,500000	1002,209229	2020-10-29T19:03:55:306
1002,199219	92,410889	27,510000	1002,213623	2020-10-29T19:03:55:546
1002,202148	92,387108	27,510000	1002,228760	2020-10-29T19:03:55:787
1002,207703	92,339546	27,510000	1002,257568	2020-10-29T19:03:56:026
1002,211426	92,310478	27,510000	1002,244629	2020-10-29T19:03:56:267
1002,214294	92,284058	27,510000	1002,240479	2020-10-29T19:03:56:507
1002,216064	92,270844	27,510000	1002,231934	2020-10-29T19:03:56:747
1002,215271	92,276131	27,510000	1002,207764	2020-10-29T19:03:56:988
1002,213135	92,294624	27,519999	1002,193848	2020-10-29T19:03:57:227
1002,209229	92,326332	27,519999	1002,174072	2020-10-29T19:03:57:468
1002,205933	92,355400	27,519999	1002,176025	2020-10-29T19:03:57:709
1002,200745	92,400322	27,519999	1002,154541	2020-10-29T19:03:57:949
1002,201050	92,397675	27,519999	1002,203613	2020-10-29T19:03:58:189
1002,204468	92,368614	27,529999	1002,235352	2020-10-29T19:03:58:429
1002,206299	92,352760	27,529999	1002,222412	2020-10-29T19:03:58:669
1002,206970	92,347473	27,519999	1002,212891	2020-10-29T19:03:58:909
1002,207153	92,344833	27,529999	1002,208496	2020-10-29T19:03:59:150
1002,209595	92,323692	27,529999	1002,231689	2020-10-29T19:03:59:391
1002,212524	92,299911	27,529999	1002,239014	2020-10-29T19:03:59:630
1002,213501	92,291985	27,529999	1002,221924	2020-10-29T19:03:59:869
1002,213684	92,289345	27,529999	1002,215332	2020-10-29T19:04:00:110
1002,212402	92,302551	27,529999	1002,200928	2020-10-29T19:04:00:350
1002,212097	92,302551	27,539999	1002,208984	2020-10-29T19:04:00:590
1002,211365	92,310478	27,539999	1002,205078	2020-10-29T19:04:00:830
1002,211975	92,305199	27,539999	1002,217041	2020-10-29T19:04:01:071
1002,208313	92,334259	27,539999	1002,175049	2020-10-29T19:04:01:311
1002,205933	92,355400	27,539999	1002,184326	2020-10-29T19:04:01:551
1002,201599	92,392395	27,539999	1002,163086	2020-10-29T19:04:01:791
1002,198120	92,421455	27,539999	1002,166748	2020-10-29T19:04:02:032
1002,193970	92,455803	27,549999	1002,156982	2020-10-29T19:04:02:272
1002,191528	92,476944	27,559999	1002,169434	2020-10-29T19:04:02:512
1002,191956	92,471657	27,549999	1002,196045	2020-10-29T19:04:02:752
1002,195068	92,447876	27,559999	1002,223389	2020-10-29T19:04:02:992
1002,199219	92,410889	27,549999	1002,236572	2020-10-29T19:04:03:234
1002,199768	92,408249	27,559999	1002,204834	2020-10-29T19:04:03:474
1002,197449	92,426743	27,559999	1002,176270	2020-10-29T19:04:03:713
1002,197205	92,429382	27,559999	1002,195068	2020-10-29T19:04:03:953
1002,198914	92,413528	27,559999	1002,213867	2020-10-29T19:04:04:194
1002,203979	92,371254	27,559999	1002,249756	2020-10-29T19:04:04:434
1002,206909	92,347473	27,559999	1002,232910	2020-10-29T19:04:04:674
1002,206848	92,347473	27,559999	1002,206055	2020-10-29T19:04:04:914
1002,206482	92,350113	27,570000	1002,203369	2020-10-29T19:04:05:247
1002,204590	92,365967	27,559999	1002,187256	2020-10-29T19:04:05:395
1002,200867	92,397675	27,559999	1002,167236	2020-10-29T19:04:05:649
1002,200012	92,405602	27,469999	1002,192139	2020-10-29T19:04:05:874
1002,197388	92,426743	27,570000	1002,173584	2020-10-29T19:04:10:141
1002,198364	92,418816	27,570000	1002,207520	2020-10-29T19:04:10:142
1002,202209	92,387108	27,570000	1002,236572	2020-10-29T19:04:10:143
1002,202209	92,387108	27,570000	1002,201904	2020-10-29T19:04:10:143
1002,202271	92,387108	27,570000	1002,202393	2020-10-29T19:04:10:143
1002,199890	92,405602	27,570000	1002,178711	2020-10-29T19:04:10:144
1002,198730	92,416168	27,570000	1002,188232	2020-10-29T19:04:10:144
1002,199097	92,413528	27,570000	1002,202393	2020-10-29T19:04:10:144
1002,199036	92,413528	27,580000	1002,197998	2020-10-29T19:04:10:144
1002,199341	92,410889	27,570000	1002,202148	2020-10-29T19:04:10:144
1002,202820	92,381821	27,580000	1002,234375	2020-10-29T19:04:10:145
1002,206787	92,347473	27,580000	1002,241943	2020-10-29T19:04:10:145
1002,204468	92,368614	27,570000	1002,183594	2020-10-29T19:04:10:146
1002,202393	92,384468	27,580000	1002,183594	2020-10-29T19:04:10:146
1002,201111	92,395035	27,580000	1002,189941	2020-10-29T19:04:10:146
1002,205200	92,360687	27,580000	1002,241943	2020-10-29T19:04:10:159
1002,205505	92,358040	27,570000	1002,208008	2020-10-29T19:04:10:403
1002,207092	92,344833	27,580000	1002,221436	2020-10-29T19:04:10:638
1002,207397	92,342186	27,580000	1002,209961	2020-10-29T19:04:10:878
1002,207947	92,339546	27,580000	1002,213135	2020-10-29T19:04:11:119
1002,211609	92,307838	27,580000	1002,244385	2020-10-29T19:04:11:359
1002,211853	92,305199	27,580000	1002,214355	2020-10-29T19:04:11:600
1002,210693	92,315765	27,580000	1002,199951	2020-10-29T19:04:11:840
1002,205200	92,360687	27,580000	1002,155762	2020-10-29T19:04:12:080
1002,203552	92,376541	27,580000	1002,188232	2020-10-29T19:04:12:320
1002,204407	92,368614	27,590000	1002,212402	2020-10-29T19:04:12:560
1002,206543	92,350113	27,590000	1002,225830	2020-10-29T19:04:12:800
1002,206787	92,347473	27,580000	1002,209229	2020-10-29T19:04:13:040
1002,207397	92,342186	27,580000	1002,213135	2020-10-29T19:04:13:281
1002,205017	92,363327	27,590000	1002,183594	2020-10-29T19:04:13:521
1002,204529	92,365967	27,590000	1002,199951	2020-10-29T19:04:13:761
1002,203796	92,373894	27,590000	1002,196777	2020-10-29T19:04:14:001
1002,207336	92,342186	27,599998	1002,239258	2020-10-29T19:04:14:242
1002,209961	92,321053	27,590000	1002,233398	2020-10-29T19:04:14:482
1002,209595	92,323692	27,590000	1002,206055	2020-10-29T19:04:14:722
1002,210327	92,318405	27,590000	1002,217285	2020-10-29T19:04:14:963
1002,210754	92,315765	27,590000	1002,214600	2020-10-29T19:04:15:202
1002,211182	92,310478	27,599998	1002,214844	2020-10-29T19:04:15:443
1002,207886	92,339546	27,590000	1002,177979	2020-10-29T19:04:15:683
1002,208313	92,334259	27,590000	1002,212402	2020-10-29T19:04:15:923
1002,211426	92,310478	27,599998	1002,239014	2020-10-29T19:04:16:163
1002,214050	92,286697	27,599998	1002,237793	2020-10-29T19:04:16:403
1002,215698	92,273491	27,590000	1002,230713	2020-10-29T19:04:16:644
1002,216858	92,262917	27,599998	1002,227539	2020-10-29T19:04:16:885
1002,216675	92,265564	27,599998	1002,214600	2020-10-29T19:04:17:124
1002,216187	92,268204	27,599998	1002,211426	2020-10-29T19:04:17:364
1002,216858	92,262917	27,599998	1002,222900	2020-10-29T19:04:17:605
1002,214050	92,286697	27,590000	1002,188232	2020-10-29T19:04:17:845
1002,214050	92,286697	27,599998	1002,214111	2020-10-29T19:04:18:085
1002,215393	92,276131	27,599998	1002,227295	2020-10-29T19:04:18:325
1002,216187	92,268204	27,599998	1002,223389	2020-10-29T19:04:18:565
1002,217651	92,257637	27,590000	1002,230713	2020-10-29T19:04:18:806
1002,219177	92,244423	27,599998	1002,233154	2020-10-29T19:04:19:047
1002,218872	92,247070	27,599998	1002,215820	2020-10-29T19:04:19:287
1002,217834	92,254990	27,599998	1002,208496	2020-10-29T19:04:19:534
1002,218018	92,254990	27,599998	1002,219727	2020-10-29T19:04:19:769
1002,218994	92,244423	27,599998	1002,227539	2020-10-29T19:04:20:007
1002,220032	92,236496	27,599998	1002,229248	2020-10-29T19:04:20:247
1002,220520	92,233856	27,599998	1002,225342	2020-10-29T19:04:20:487
1002,220215	92,236496	27,599998	1002,217041	2020-10-29T19:04:20:729
1002,220886	92,228569	27,599998	1002,227051	2020-10-29T19:04:20:968
1002,220581	92,231216	27,599998	1002,217773	2020-10-29T19:04:21:208
1002,219910	92,239143	27,599998	1002,213867	2020-10-29T19:04:21:449
1002,219421	92,241783	27,609999	1002,214844	2020-10-29T19:04:21:689
1002,219360	92,241783	27,609999	1002,219238	2020-10-29T19:04:21:930
1002,216919	92,262917	27,609999	1002,195312	2020-10-29T19:04:22:169
1002,214783	92,281418	27,599998	1002,196045	2020-10-29T19:04:22:409
1002,214600	92,281418	27,599998	1002,212891	2020-10-29T19:04:22:650
1002,216187	92,268204	27,599998	1002,230713	2020-10-29T19:04:22:890
1002,216553	92,265564	27,599998	1002,219727	2020-10-29T19:04:23:130
1002,216125	92,270844	27,609999	1002,212158	2020-10-29T19:04:23:370
1002,219360	92,241783	27,609999	1002,248291	2020-10-29T19:04:23:611
1002,219421	92,241783	27,609999	1002,219971	2020-10-29T19:04:23:851
1002,219543	92,241783	27,609999	1002,220947	2020-10-29T19:04:24:091
1002,219360	92,241783	27,609999	1002,218018	2020-10-29T19:04:24:331
1002,219666	92,239143	27,609999	1002,222412	2020-10-29T19:04:24:572
1002,219910	92,239143	27,609999	1002,221924	2020-10-29T19:04:24:812
1002,219482	92,241783	27,609999	1002,215332	2020-10-29T19:04:25:052
1002,218018	92,254990	27,609999	1002,205078	2020-10-29T19:04:25:292
1002,218201	92,252350	27,599998	1002,219482	2020-10-29T19:04:25:532
1002,218567	92,249710	27,609999	1002,222168	2020-10-29T19:04:25:772
1002,217712	92,257637	27,609999	1002,209717	2020-10-29T19:04:26:016
1002,219849	92,239143	27,609999	1002,239258	2020-10-29T19:04:26:317
1002,220886	92,228569	27,609999	1002,229980	2020-10-29T19:04:26:494
1002,220215	92,236496	27,609999	1002,213867	2020-10-29T19:04:26:734
1002,219360	92,241783	27,609999	1002,211426	2020-10-29T19:04:26:991
1002,219727	92,239143	27,619999	1002,223145	2020-10-29T19:04:27:424
1002,218994	92,244423	27,599998	1002,212158	2020-10-29T19:04:27:456
1002,218018	92,254990	27,609999	1002,208984	2020-10-29T19:04:27:695
1002,217590	92,257637	27,609999	1002,213379	2020-10-29T19:04:27:935
1002,218201	92,252350	27,609999	1002,223877	2020-10-29T19:04:28:175
1002,223145	92,210075	27,609999	1002,268066	2020-10-29T19:04:28:415
1002,226257	92,183655	27,609999	1002,254639	2020-10-29T19:04:28:656
1002,227478	92,175728	27,609999	1002,238281	2020-10-29T19:04:28:895
1002,226990	92,178368	27,609999	1002,222656	2020-10-29T19:04:29:136
1002,226929	92,178368	27,619999	1002,226318	2020-10-29T19:04:29:377
1002,229126	92,159874	27,619999	1002,249023	2020-10-29T19:04:29:616
1002,232605	92,130806	27,609999	1002,264404	2020-10-29T19:04:29:857
1002,233948	92,120239	27,619999	1002,245605	2020-10-29T19:04:30:097
1002,231995	92,136093	27,619999	1002,214355	2020-10-29T19:04:30:337
1002,227539	92,173080	27,609999	1002,187012	2020-10-29T19:04:30:579
1002,222107	92,220642	27,619999	1002,173340	2020-10-29T19:04:30:818
1002,219849	92,239143	27,619999	1002,199463	2020-10-29T19:04:31:058
1002,220886	92,228569	27,619999	1002,230225	2020-10-29T19:04:31:299
1002,222412	92,218002	27,629999	1002,235840	2020-10-29T19:04:31:538
1002,222290	92,218002	27,619999	1002,221680	2020-10-29T19:04:31:779
1002,220886	92,228569	27,629999	1002,207764	2020-10-29T19:04:32:019
1002,221130	92,228569	27,629999	1002,223145	2020-10-29T19:04:32:259
1002,220276	92,233856	27,629999	1002,212158	2020-10-29T19:04:32:499
1002,220459	92,233856	27,629999	1002,221924	2020-10-29T19:04:32:739
1002,220825	92,231216	27,629999	1002,223877	2020-10-29T19:04:32:980
1002,220276	92,233856	27,629999	1002,215576	2020-10-29T19:04:33:220
1002,219360	92,241783	27,629999	1002,211182	2020-10-29T19:04:33:461
1002,221497	92,225929	27,639999	1002,241211	2020-10-29T19:04:33:701
1002,223206	92,210075	27,639999	1002,238770	2020-10-29T19:04:33:941
1002,223511	92,207436	27,639999	1002,226074	2020-10-29T19:04:34:181
1002,221802	92,223289	27,639999	1002,206299	2020-10-29T19:04:34:423
1002,218689	92,249710	27,650000	1002,191162	2020-10-29T19:04:34:662
1002,220215	92,236496	27,639999	1002,233643	2020-10-29T19:04:34:902
1002,220886	92,228569	27,639999	1002,227051	2020-10-29T19:04:35:142
1002,221863	92,220642	27,650000	1002,230469	2020-10-29T19:04:35:383
1002,222534	92,215363	27,639999	1002,228516	2020-10-29T19:04:35:622
1002,217529	92,257637	27,650000	1002,172852	2020-10-29T19:04:35:863
1002,214539	92,284058	27,650000	1002,187744	2020-10-29T19:04:36:103
1002,213501	92,291985	27,650000	1002,204346	2020-10-29T19:04:36:343
1002,209961	92,321053	27,650000	1002,177979	2020-10-29T19:04:36:583
1002,207458	92,342186	27,650000	1002,184814	2020-10-29T19:04:36:823
1002,206482	92,350113	27,650000	1002,197510	2020-10-29T19:04:37:065
1002,205688	92,358040	27,650000	1002,197998	2020-10-29T19:04:37:304
1002,204590	92,365967	27,650000	1002,194824	2020-10-29T19:04:37:544
1002,206299	92,352760	27,650000	1002,221191	2020-10-29T19:04:37:784
1002,210144	92,321053	27,650000	1002,244629	2020-10-29T19:04:38:025
1002,212708	92,299911	27,650000	1002,235596	2020-10-29T19:04:38:265
1002,216003	92,270844	27,660000	1002,245605	2020-10-29T19:04:38:505
1002,214355	92,284058	27,650000	1002,199219	2020-10-29T19:04:38:745
1002,214966	92,278770	27,650000	1002,220459	2020-10-29T19:04:38:986
1002,215271	92,276131	27,650000	1002,218018	2020-10-29T19:04:39:226
1002,215942	92,270844	27,660000	1002,221924	2020-10-29T19:04:39:466
1002,216614	92,265564	27,650000	1002,222656	2020-10-29T19:04:39:706
1002,216492	92,265564	27,650000	1002,215332	2020-10-29T19:04:39:947
1002,216858	92,262917	27,660000	1002,220215	2020-10-29T19:04:40:187
1002,216431	92,268204	27,650000	1002,212158	2020-10-29T19:04:40:427
1002,215820	92,273491	27,660000	1002,210449	2020-10-29T19:04:40:668
1002,215698	92,273491	27,660000	1002,214844	2020-10-29T19:04:40:908
1002,213684	92,289345	27,660000	1002,195801	2020-10-29T19:04:41:147
1002,215271	92,276131	27,660000	1002,229492	2020-10-29T19:04:41:388
1002,213806	92,289345	27,650000	1002,200928	2020-10-29T19:04:41:628
1002,210571	92,315765	27,660000	1002,181152	2020-10-29T19:04:41:869
1002,209778	92,323692	27,660000	1002,202637	2020-10-29T19:04:42:109
1002,209473	92,326332	27,650000	1002,206543	2020-10-29T19:04:42:350
1002,208618	92,331619	27,660000	1002,200928	2020-10-29T19:04:42:590
1002,208557	92,334259	27,660000	1002,208008	2020-10-29T19:04:42:829
1002,209595	92,323692	27,660000	1002,218750	2020-10-29T19:04:43:070
1002,212097	92,302551	27,660000	1002,234619	2020-10-29T19:04:43:310
1002,217163	92,260277	27,660000	1002,262695	2020-10-29T19:04:43:550
1002,216370	92,268204	27,660000	1002,208984	2020-10-29T19:04:43:791
1002,215393	92,276131	27,660000	1002,206787	2020-10-29T19:04:44:030
1002,215393	92,276131	27,670000	1002,215088	2020-10-29T19:04:44:271
1002,217041	92,262917	27,660000	1002,231934	2020-10-29T19:04:44:510
1002,216248	92,268204	27,670000	1002,208984	2020-10-29T19:04:44:751
1002,216553	92,265564	27,660000	1002,218750	2020-10-29T19:04:44:991
1002,217041	92,262917	27,670000	1002,221191	2020-10-29T19:04:45:231
1002,215820	92,273491	27,660000	1002,204834	2020-10-29T19:04:45:471
1002,216003	92,270844	27,670000	1002,217529	2020-10-29T19:04:45:712
1002,215210	92,276131	27,670000	1002,208008	2020-10-29T19:04:45:952
1002,214172	92,286697	27,670000	1002,204834	2020-10-29T19:04:46:193
1002,215637	92,273491	27,660000	1002,228760	2020-10-29T19:04:46:433
1002,215149	92,278770	27,670000	1002,210693	2020-10-29T19:04:46:675
1002,215576	92,273491	27,680000	1002,219482	2020-10-29T19:04:46:913
1002,215698	92,273491	27,680000	1002,216309	2020-10-29T19:04:47:153
1002,217041	92,262917	27,670000	1002,229492	2020-10-29T19:04:47:393
1002,216614	92,265564	27,680000	1002,213135	2020-10-29T19:04:47:634
1002,219299	92,241783	27,680000	1002,243164	2020-10-29T19:04:47:875
1002,220154	92,236496	27,680000	1002,227295	2020-10-29T19:04:48:116
1002,219177	92,244423	27,680000	1002,210449	2020-10-29T19:04:48:354
1002,216187	92,268204	27,680000	1002,189209	2020-10-29T19:04:48:595
1002,215637	92,273491	27,689999	1002,210449	2020-10-29T19:04:48:835
1002,216370	92,268204	27,689999	1002,222656	2020-10-29T19:04:49:076
1002,217041	92,262917	27,689999	1002,223145	2020-10-29T19:04:49:316
1002,217346	92,260277	27,689999	1002,220215	2020-10-29T19:04:49:556
1002,214905	92,278770	27,689999	1002,192871	2020-10-29T19:04:49:797
1002,215027	92,278770	27,699999	1002,215820	2020-10-29T19:04:50:037
1002,213501	92,291985	27,689999	1002,199707	2020-10-29T19:04:50:277
1002,214600	92,281418	27,699999	1002,224365	2020-10-29T19:04:50:517
1002,216980	92,262917	27,689999	1002,238281	2020-10-29T19:04:50:757
1002,219849	92,239143	27,699999	1002,245605	2020-10-29T19:04:50:997
1002,219604	92,239143	27,699999	1002,217285	2020-10-29T19:04:51:237
1002,218689	92,249710	27,699999	1002,210205	2020-10-29T19:04:51:478
1002,213806	92,289345	27,699999	1002,169678	2020-10-29T19:04:51:718
1002,211365	92,310478	27,709999	1002,188965	2020-10-29T19:04:51:959
1002,211487	92,307838	27,709999	1002,212402	2020-10-29T19:04:52:199
1002,210754	92,315765	27,699999	1002,204102	2020-10-29T19:04:52:440
1002,210754	92,315765	27,709999	1002,210449	2020-10-29T19:04:52:680
1002,209534	92,326332	27,709999	1002,198242	2020-10-29T19:04:52:922
1002,209290	92,326332	27,709999	1002,207031	2020-10-29T19:04:53:159
1002,208923	92,328979	27,709999	1002,205322	2020-10-29T19:04:53:400
1002,205505	92,358040	27,709999	1002,174561	2020-10-29T19:04:53:640
1002,203613	92,373894	27,699999	1002,186768	2020-10-29T19:04:53:880
1002,204163	92,371254	27,709999	1002,209473	2020-10-29T19:04:54:120
1002,206238	92,352760	27,709999	1002,225098	2020-10-29T19:04:54:361
1002,204346	92,368614	27,709999	1002,187012	2020-10-29T19:04:54:601
1002,202881	92,381821	27,709999	1002,189697	2020-10-29T19:04:54:841
1002,202026	92,387108	27,709999	1002,194580	2020-10-29T19:04:55:082
1002,200195	92,402962	27,709999	1002,183594	2020-10-29T19:04:55:321
1002,199280	92,410889	27,709999	1002,190918	2020-10-29T19:04:55:562
1002,198547	92,416168	27,709999	1002,191895	2020-10-29T19:04:55:802
1002,199646	92,408249	27,709999	1002,209229	2020-10-29T19:04:56:042
1002,201843	92,389748	27,709999	1002,221191	2020-10-29T19:04:56:284
1002,205078	92,363327	27,719999	1002,234375	2020-10-29T19:04:56:523
1002,208801	92,331619	27,709999	1002,242432	2020-10-29T19:04:56:763
1002,210815	92,315765	27,709999	1002,228760	2020-10-29T19:04:57:003
1002,212891	92,297272	27,709999	1002,231689	2020-10-29T19:04:57:243
1002,212891	92,297272	27,709999	1002,212646	2020-10-29T19:04:57:483
1002,211670	92,307838	27,709999	1002,200684	2020-10-29T19:04:57:724
1002,212952	92,297272	27,709999	1002,224609	2020-10-29T19:04:57:964
1002,210999	92,313126	27,709999	1002,193359	2020-10-29T19:04:58:204
1002,210449	92,318405	27,709999	1002,205811	2020-10-29T19:04:58:445
1002,210571	92,315765	27,709999	1002,211426	2020-10-29T19:04:58:686
1002,209778	92,323692	27,699999	1002,202637	2020-10-29T19:04:58:926
1002,209106	92,328979	27,709999	1002,203369	2020-10-29T19:04:59:166
1002,208374	92,334259	27,709999	1002,201660	2020-10-29T19:04:59:406
1002,206970	92,347473	27,709999	1002,194824	2020-10-29T19:04:59:647
1002,207520	92,342186	27,709999	1002,212158	2020-10-29T19:04:59:887
1002,206421	92,352760	27,709999	1002,196289	2020-10-29T19:05:00:127
1002,207031	92,347473	27,709999	1002,212158	2020-10-29T19:05:00:367
1002,209717	92,323692	27,709999	1002,233643	2020-10-29T19:05:00:608
1002,211060	92,313126	27,709999	1002,223145	2020-10-29T19:05:00:848
1002,211304	92,310478	27,709999	1002,213623	2020-10-29T19:05:01:089
1002,208740	92,331619	27,709999	1002,185303	2020-10-29T19:05:01:328
1002,206665	92,350113	27,709999	1002,187744	2020-10-29T19:05:01:568
1002,207397	92,342186	27,699999	1002,214111	2020-10-29T19:05:01:808
1002,206848	92,347473	27,709999	1002,201904	2020-10-29T19:05:02:049
1002,206543	92,350113	27,709999	1002,203857	2020-10-29T19:05:02:290
1002,206421	92,352760	27,709999	1002,205811	2020-10-29T19:05:02:528
1002,207520	92,342186	27,709999	1002,217285	2020-10-29T19:05:02:768
1002,204590	92,365967	27,699999	1002,177979	2020-10-29T19:05:03:009
1002,202637	92,381821	27,709999	1002,185059	2020-10-29T19:05:03:249
1002,201233	92,395035	27,699999	1002,188232	2020-10-29T19:05:03:489
1002,203247	92,376541	27,709999	1002,221191	2020-10-29T19:05:03:729
1002,201782	92,389748	27,709999	1002,188477	2020-10-29T19:05:03:971
1002,201965	92,389748	27,709999	1002,203613	2020-10-29T19:05:04:211
1002,202026	92,387108	27,699999	1002,202393	2020-10-29T19:05:04:451
1002,201782	92,389748	27,699999	1002,199463	2020-10-29T19:05:04:691
1002,201904	92,389748	27,709999	1002,203369	2020-10-29T19:05:04:931
1002,203125	92,379181	27,709999	1002,213867	2020-10-29T19:05:05:171
1002,205139	92,363327	27,709999	1002,223145	2020-10-29T19:05:05:412
1002,207214	92,344833	27,709999	1002,225586	2020-10-29T19:05:05:652
1002,209900	92,321053	27,709999	1002,234375	2020-10-29T19:05:05:894
1002,207947	92,339546	27,709999	1002,190186	2020-10-29T19:05:06:132
1002,209473	92,326332	27,709999	1002,223389	2020-10-29T19:05:06:373
1002,206238	92,352760	27,709999	1002,176758	2020-10-29T19:05:06:613
1002,203674	92,373894	27,709999	1002,180420	2020-10-29T19:05:06:853
1002,200562	92,400322	27,709999	1002,172852	2020-10-29T19:05:07:093
1002,202271	92,387108	27,709999	1002,217773	2020-10-29T19:05:07:333
1002,206909	92,347473	27,709999	1002,249023	2020-10-29T19:05:07:573
1002,210754	92,315765	27,719999	1002,245117	2020-10-29T19:05:07:815
1002,212769	92,297272	27,719999	1002,230713	2020-10-29T19:05:08:054
1002,212769	92,297272	27,719999	1002,212646	2020-10-29T19:05:08:295
1002,211426	92,310478	27,709999	1002,199219	2020-10-29T19:05:08:534
1002,210144	92,321053	27,719999	1002,198975	2020-10-29T19:05:08:775
1002,212036	92,305199	27,719999	1002,228760	2020-10-29T19:05:09:016
1002,211853	92,305199	27,719999	1002,210693	2020-10-29T19:05:09:256
1002,209839	92,323692	27,719999	1002,191406	2020-10-29T19:05:09:496
1002,207581	92,342186	27,730000	1002,187012	2020-10-29T19:05:09:737
1002,204346	92,368614	27,719999	1002,174805	2020-10-29T19:05:09:976
1002,203674	92,373894	27,730000	1002,197754	2020-10-29T19:05:10:215
1002,201965	92,389748	27,730000	1002,186523	2020-10-29T19:05:16:139
1002,204407	92,368614	27,730000	1002,226562	2020-10-29T19:05:16:140
1002,207214	92,344833	27,740000	1002,232422	2020-10-29T19:05:16:144
1002,205933	92,355400	27,730000	1002,194580	2020-10-29T19:05:16:145
1002,205139	92,363327	27,730000	1002,198242	2020-10-29T19:05:16:145
1002,207275	92,344833	27,740000	1002,226074	2020-10-29T19:05:16:145
1002,208618	92,331619	27,740000	1002,220703	2020-10-29T19:05:16:145
1002,211121	92,313126	27,740000	1002,233643	2020-10-29T19:05:16:145
1002,212280	92,302551	27,730000	1002,222412	2020-10-29T19:05:16:145
1002,210999	92,313126	27,740000	1002,199463	2020-10-29T19:05:16:145
1002,210938	92,313126	27,740000	1002,210693	2020-10-29T19:05:16:146
1002,211792	92,305199	27,740000	1002,219482	2020-10-29T19:05:16:146
1002,210999	92,313126	27,740000	1002,203857	2020-10-29T19:05:16:146
1002,211304	92,310478	27,740000	1002,213867	2020-10-29T19:05:16:146
1002,211426	92,310478	27,730000	1002,212402	2020-10-29T19:05:16:146
1002,214478	92,284058	27,730000	1002,242432	2020-10-29T19:05:16:146
1002,214233	92,286697	27,730000	1002,212158	2020-10-29T19:05:16:147
1002,215332	92,276131	27,730000	1002,224854	2020-10-29T19:05:16:147
1002,212708	92,299911	27,719999	1002,189209	2020-10-29T19:05:16:147
1002,211487	92,307838	27,719999	1002,200928	2020-10-29T19:05:16:147
1002,212524	92,299911	27,730000	1002,221924	2020-10-29T19:05:16:147
1002,213440	92,291985	27,719999	1002,221680	2020-10-29T19:05:16:147
1002,214233	92,286697	27,719999	1002,221436	2020-10-29T19:05:16:147
1002,215515	92,276131	27,719999	1002,227051	2020-10-29T19:05:16:148
1002,216187	92,268204	27,719999	1002,221924	2020-10-29T19:05:16:148
1002,215088	92,278770	27,719999	1002,204834	2020-10-29T19:05:16:148
1002,213135	92,294624	27,719999	1002,196045	2020-10-29T19:05:16:244
1002,208008	92,336906	27,719999	1002,161621	2020-10-29T19:05:16:484
1002,207031	92,347473	27,719999	1002,197998	2020-10-29T19:05:16:726
1002,205505	92,358040	27,709999	1002,191406	2020-10-29T19:05:16:965
1002,207092	92,344833	27,719999	1002,221680	2020-10-29T19:05:17:206
1002,207642	92,339546	27,709999	1002,212158	2020-10-29T19:05:17:447
1002,209167	92,328979	27,719999	1002,222900	2020-10-29T19:05:17:686
1002,207031	92,347473	27,719999	1002,187744	2020-10-29T19:05:17:927
1002,203003	92,379181	27,719999	1002,166260	2020-10-29T19:05:18:166
1002,198914	92,413528	27,709999	1002,162354	2020-10-29T19:05:18:406
1002,199646	92,408249	27,719999	1002,206055	2020-10-29T19:05:18:647
1002,199036	92,413528	27,719999	1002,193359	2020-10-29T19:05:18:887
1002,201294	92,395035	27,719999	1002,221680	2020-10-29T19:05:19:127
1002,198181	92,421455	27,719999	1002,169922	2020-10-29T19:05:19:368
1002,200500	92,400322	27,719999	1002,221680	2020-10-29T19:05:19:607
1002,199341	92,410889	27,730000	1002,188965	2020-10-29T19:05:19:848
1002,201111	92,395035	27,719999	1002,217285	2020-10-29T19:05:20:088
1002,202271	92,387108	27,719999	1002,213135	2020-10-29T19:05:20:330
1002,202515	92,384468	27,719999	1002,204834	2020-10-29T19:05:20:568
1002,200500	92,400322	27,719999	1002,182617	2020-10-29T19:05:20:808
1002,198303	92,418816	27,719999	1002,178711	2020-10-29T19:05:21:049
1002,198486	92,418816	27,730000	1002,200195	2020-10-29T19:05:21:289
1002,199463	92,410889	27,730000	1002,208252	2020-10-29T19:05:21:529
1002,199646	92,408249	27,719999	1002,201416	2020-10-29T19:05:21:770
1002,198303	92,418816	27,719999	1002,186279	2020-10-29T19:05:22:010
1002,200867	92,397675	27,719999	1002,223633	2020-10-29T19:05:22:250
1002,203247	92,376541	27,719999	1002,224365	2020-10-29T19:05:22:490
1002,205322	92,360687	27,730000	1002,223877	2020-10-29T19:05:22:731
1002,206238	92,352760	27,740000	1002,214844	2020-10-29T19:05:22:972
1002,203003	92,379181	27,740000	1002,173828	2020-10-29T19:05:23:211
1002,201904	92,389748	27,740000	1002,191895	2020-10-29T19:05:23:452
1002,202576	92,384468	27,730000	1002,208740	2020-10-29T19:05:23:692
1002,206421	92,352760	27,740000	1002,240967	2020-10-29T19:05:23:932
1002,207336	92,342186	27,730000	1002,215088	2020-10-29T19:05:24:172
1002,207703	92,339546	27,740000	1002,211182	2020-10-29T19:05:24:412
1002,205322	92,360687	27,740000	1002,183838	2020-10-29T19:05:24:653
1002,204224	92,368614	27,750000	1002,194580	2020-10-29T19:05:24:893
1002,203674	92,373894	27,740000	1002,198730	2020-10-29T19:05:25:133
1002,202454	92,384468	27,740000	1002,191406	2020-10-29T19:05:25:373
1002,199829	92,405602	27,740000	1002,176270	2020-10-29T19:05:25:613
1002,199768	92,408249	27,750000	1002,199707	2020-10-29T19:05:25:854
1002,198730	92,416168	27,740000	1002,189209	2020-10-29T19:05:26:094
1002,199890	92,405602	27,740000	1002,210205	2020-10-29T19:05:26:335
1002,199341	92,410889	27,740000	1002,194580	2020-10-29T19:05:26:575
1002,196899	92,432022	27,740000	1002,174805	2020-10-29T19:05:26:815
1002,197815	92,424095	27,750000	1002,206055	2020-10-29T19:05:27:055
1002,200623	92,400322	27,750000	1002,225586	2020-10-29T19:05:27:295
1002,200623	92,400322	27,750000	1002,200928	2020-10-29T19:05:27:535
1002,201355	92,395035	27,750000	1002,208252	2020-10-29T19:05:27:777
1002,201172	92,395035	27,750000	1002,199463	2020-10-29T19:05:28:016
1002,205566	92,358040	27,750000	1002,245361	2020-10-29T19:05:28:256
1002,206055	92,355400	27,750000	1002,210449	2020-10-29T19:05:28:496
1002,208679	92,331619	27,760000	1002,232178	2020-10-29T19:05:28:737
1002,209167	92,328979	27,750000	1002,213623	2020-10-29T19:05:28:977
1002,210327	92,318405	27,750000	1002,220703	2020-10-29T19:05:29:217
1002,207581	92,342186	27,750000	1002,182861	2020-10-29T19:05:29:458
1002,207886	92,339546	27,750000	1002,210693	2020-10-29T19:05:29:697
1002,208679	92,331619	27,750000	1002,216064	2020-10-29T19:05:29:938
1002,208862	92,331619	27,750000	1002,210693	2020-10-29T19:05:30:178
1002,210999	92,313126	27,750000	1002,229736	2020-10-29T19:05:30:419
1002,210205	92,318405	27,760000	1002,203369	2020-10-29T19:05:30:659
1002,210327	92,318405	27,760000	1002,211426	2020-10-29T19:05:30:899
1002,210327	92,318405	27,750000	1002,210449	2020-10-29T19:05:31:139
1002,207886	92,339546	27,750000	1002,185791	2020-10-29T19:05:31:379
1002,206299	92,352760	27,760000	1002,192139	2020-10-29T19:05:31:620
1002,205750	92,358040	27,760000	1002,200684	2020-10-29T19:05:31:860
1002,205322	92,360687	27,750000	1002,201172	2020-10-29T19:05:32:100
1002,200928	92,397675	27,750000	1002,161621	2020-10-29T19:05:32:340
1002,201233	92,395035	27,760000	1002,203613	2020-10-29T19:05:32:580
1002,198792	92,416168	27,760000	1002,176758	2020-10-29T19:05:32:820
1002,197205	92,429382	27,760000	1002,183105	2020-10-29T19:05:33:061
1002,195984	92,439949	27,760000	1002,184570	2020-10-29T19:05:33:301
1002,195862	92,439949	27,760000	1002,194824	2020-10-29T19:05:33:541
1002,194824	92,447876	27,760000	1002,185303	2020-10-29T19:05:33:781
1002,193604	92,458450	27,760000	1002,182373	2020-10-29T19:05:34:023
1002,192810	92,466377	27,760000	1002,185547	2020-10-29T19:05:34:261
1002,192261	92,469017	27,760000	1002,187012	2020-10-29T19:05:34:502
1002,193787	92,458450	27,760000	1002,207520	2020-10-29T19:05:34:743
1002,195190	92,445236	27,760000	1002,207764	2020-10-29T19:05:34:983
1002,197571	92,426743	27,769999	1002,219238	2020-10-29T19:05:35:223
1002,195129	92,445236	27,769999	1002,173096	2020-10-29T19:05:35:463
1002,194702	92,450523	27,769999	1002,190918	2020-10-29T19:05:35:703
1002,197510	92,426743	27,769999	1002,222900	2020-10-29T19:05:35:945
1002,198120	92,421455	27,769999	1002,203613	2020-10-29T19:05:36:184
1002,198608	92,416168	27,779999	1002,203125	2020-10-29T19:05:36:424
1002,199402	92,410889	27,769999	1002,206543	2020-10-29T19:05:36:663
1002,200012	92,405602	27,779999	1002,205322	2020-10-29T19:05:36:904
1002,199036	92,413528	27,779999	1002,190186	2020-10-29T19:05:37:145
1002,197998	92,421455	27,779999	1002,188477	2020-10-29T19:05:37:385
1002,195557	92,442596	27,779999	1002,173584	2020-10-29T19:05:37:627
1002,193481	92,461090	27,779999	1002,174805	2020-10-29T19:05:37:866
1002,192932	92,463730	27,779999	1002,187744	2020-10-29T19:05:38:105
1002,187744	92,508652	27,779999	1002,140625	2020-10-29T19:05:38:346
1002,184509	92,535072	27,779999	1002,155762	2020-10-29T19:05:38:586
1002,183105	92,548286	27,779999	1002,170410	2020-10-29T19:05:38:826
1002,183899	92,540359	27,779999	1002,190918	2020-10-29T19:05:39:067
1002,185242	92,529793	27,779999	1002,196777	2020-10-29T19:05:39:307
1002,182861	92,548286	27,789999	1002,161377	2020-10-29T19:05:39:547
1002,181030	92,564140	27,779999	1002,164551	2020-10-29T19:05:39:787
1002,181763	92,558853	27,779999	1002,188721	2020-10-29T19:05:40:027
1002,183044	92,548286	27,779999	1002,194336	2020-10-29T19:05:40:268
1002,184875	92,532433	27,779999	1002,201172	2020-10-29T19:05:40:508
1002,187927	92,506012	27,789999	1002,215088	2020-10-29T19:05:40:748
1002,189575	92,492798	27,779999	1002,204346	2020-10-29T19:05:40:988
1002,190552	92,484871	27,779999	1002,199219	2020-10-29T19:05:41:229
1002,192505	92,469017	27,779999	1002,209717	2020-10-29T19:05:41:470
1002,194031	92,455803	27,779999	1002,208252	2020-10-29T19:05:41:710
1002,197754	92,424095	27,779999	1002,231201	2020-10-29T19:05:41:950
1002,197632	92,424095	27,779999	1002,196289	2020-10-29T19:05:42:189
1002,198608	92,416168	27,779999	1002,207275	2020-10-29T19:05:42:430
1002,200684	92,400322	27,779999	1002,219727	2020-10-29T19:05:42:671
1002,201721	92,389748	27,789999	1002,211182	2020-10-29T19:05:42:910
1002,202393	92,384468	27,779999	1002,208740	2020-10-29T19:05:43:150
1002,203308	92,376541	27,779999	1002,211914	2020-10-29T19:05:43:391
1002,202820	92,381821	27,779999	1002,198486	2020-10-29T19:05:43:631
1002,198364	92,418816	27,779999	1002,157959	2020-10-29T19:05:43:871
1002,194824	92,447876	27,789999	1002,162842	2020-10-29T19:05:44:111
1002,192261	92,469017	27,789999	1002,169189	2020-10-29T19:05:44:352
1002,190063	92,487511	27,779999	1002,170410	2020-10-29T19:05:44:596
1002,190308	92,487511	27,789999	1002,192871	2020-10-29T19:05:44:832
1002,193298	92,461090	27,789999	1002,220215	2020-10-29T19:05:45:073
1002,195374	92,445236	27,789999	1002,214355	2020-10-29T19:05:45:312
1002,192688	92,466377	27,779999	1002,168213	2020-10-29T19:05:45:554
1002,194702	92,450523	27,779999	1002,212646	2020-10-29T19:05:45:793
1002,197266	92,429382	27,779999	1002,220459	2020-10-29T19:05:46:037
1002,197632	92,424095	27,789999	1002,200684	2020-10-29T19:05:46:274
1002,197205	92,429382	27,789999	1002,193604	2020-10-29T19:05:46:515
1002,194885	92,447876	27,789999	1002,174072	2020-10-29T19:05:46:755
1002,192688	92,466377	27,769999	1002,172363	2020-10-29T19:05:46:995
1002,192444	92,469017	27,789999	1002,190430	2020-10-29T19:05:47:235
1002,191406	92,476944	27,779999	1002,181885	2020-10-29T19:05:47:475
1002,193298	92,461090	27,789999	1002,210449	2020-10-29T19:05:47:715
1002,194641	92,450523	27,779999	1002,206543	2020-10-29T19:05:47:955
1002,192078	92,471657	27,789999	1002,168701	2020-10-29T19:05:48:196
1002,190491	92,484871	27,779999	1002,176270	2020-10-29T19:05:48:436
1002,189209	92,495438	27,779999	1002,177490	2020-10-29T19:05:48:676
1002,189453	92,492798	27,789999	1002,191406	2020-10-29T19:05:48:917
1002,190369	92,484871	27,779999	1002,198975	2020-10-29T19:05:49:157
1002,188416	92,503365	27,789999	1002,170654	2020-10-29T19:05:49:397
1002,186157	92,521866	27,789999	1002,166016	2020-10-29T19:05:49:637
1002,184875	92,532433	27,799999	1002,173096	2020-10-29T19:05:49:877
1002,184998	92,529793	27,789999	1002,186035	2020-10-29T19:05:50:117
1002,186768	92,516579	27,789999	1002,202637	2020-10-29T19:05:50:359
1002,191528	92,476944	27,799999	1002,234375	2020-10-29T19:05:50:599
1002,194763	92,450523	27,789999	1002,224121	2020-10-29T19:05:50:838
1002,198303	92,418816	27,799999	1002,229736	2020-10-29T19:05:51:079
1002,201416	92,392395	27,799999	1002,229248	2020-10-29T19:05:51:319
1002,204041	92,371254	27,799999	1002,227783	2020-10-29T19:05:51:560
1002,205750	92,358040	27,809999	1002,220947	2020-10-29T19:05:51:799
1002,204895	92,363327	27,799999	1002,196777	2020-10-29T19:05:52:039
1002,208008	92,336906	27,809999	1002,236328	2020-10-29T19:05:52:280
1002,209106	92,328979	27,799999	1002,218750	2020-10-29T19:05:52:520
1002,209106	92,328979	27,799999	1002,209473	2020-10-29T19:05:52:760
1002,206848	92,347473	27,809999	1002,186523	2020-10-29T19:05:53:000
1002,207336	92,342186	27,809999	1002,211670	2020-10-29T19:05:53:241
1002,208435	92,334259	27,799999	1002,218262	2020-10-29T19:05:53:481
1002,207947	92,339546	27,809999	1002,203613	2020-10-29T19:05:53:721
1002,206116	92,352760	27,809999	1002,189941	2020-10-29T19:05:53:962
1002,204468	92,368614	27,809999	1002,189453	2020-10-29T19:05:54:201
1002,200623	92,400322	27,809999	1002,165771	2020-10-29T19:05:54:441
1002,202271	92,387108	27,809999	1002,217285	2020-10-29T19:05:54:683
1002,203369	92,376541	27,820000	1002,213379	2020-10-29T19:05:54:923
1002,202515	92,384468	27,809999	1002,194336	2020-10-29T19:05:55:163
1002,198059	92,421455	27,809999	1002,157715	2020-10-29T19:05:55:403
1002,197937	92,421455	27,809999	1002,196777	2020-10-29T19:05:55:643
1002,197998	92,421455	27,809999	1002,198242	2020-10-29T19:05:55:883
1002,195312	92,445236	27,809999	1002,171387	2020-10-29T19:05:56:123
1002,195557	92,442596	27,799999	1002,197754	2020-10-29T19:05:56:364
1002,195068	92,447876	27,809999	1002,190918	2020-10-29T19:05:56:604
1002,196838	92,432022	27,809999	1002,213135	2020-10-29T19:05:56:844
1002,195251	92,445236	27,809999	1002,181152	2020-10-29T19:05:57:085
1002,196899	92,432022	27,809999	1002,211670	2020-10-29T19:05:57:324
1002,195801	92,439949	27,809999	1002,186279	2020-10-29T19:05:57:567
1002,197388	92,426743	27,809999	1002,211670	2020-10-29T19:05:57:805
1002,199829	92,405602	27,809999	1002,222168	2020-10-29T19:05:58:045
1002,200134	92,402962	27,820000	1002,203125	2020-10-29T19:05:58:286
1002,201904	92,389748	27,809999	1002,218018	2020-10-29T19:05:58:529
1002,197449	92,426743	27,809999	1002,157227	2020-10-29T19:05:58:766
1002,192993	92,463730	27,809999	1002,153320	2020-10-29T19:05:59:007
1002,191223	92,479584	27,820000	1002,175049	2020-10-29T19:05:59:247
1002,190125	92,487511	27,809999	1002,179688	2020-10-29T19:05:59:487
1002,187622	92,508652	27,809999	1002,165283	2020-10-29T19:05:59:727
1002,189026	92,498085	27,809999	1002,201660	2020-10-29T19:05:59:967
1002,189697	92,492798	27,809999	1002,195557	2020-10-29T19:06:00:206
1002,188110	92,506012	27,809999	1002,173584	2020-10-29T19:06:00:447
1002,187317	92,511292	27,809999	1002,179688	2020-10-29T19:06:00:688
1002,185974	92,521866	27,809999	1002,174072	2020-10-29T19:06:00:928
1002,186829	92,516579	27,809999	1002,194824	2020-10-29T19:06:01:168
1002,189819	92,490158	27,820000	1002,216309	2020-10-29T19:06:01:410
1002,192871	92,466377	27,809999	1002,219971	2020-10-29T19:06:01:649
1002,193909	92,455803	27,809999	1002,202881	2020-10-29T19:06:01:889
1002,194580	92,450523	27,820000	1002,200928	2020-10-29T19:06:02:129
1002,194763	92,450523	27,809999	1002,196289	2020-10-29T19:06:02:370
1002,198059	92,421455	27,820000	1002,227539	2020-10-29T19:06:02:610
1002,199707	92,408249	27,809999	1002,214844	2020-10-29T19:06:02:851
1002,201660	92,389748	27,809999	1002,218994	2020-10-29T19:06:03:091
1002,200684	92,400322	27,820000	1002,191895	2020-10-29T19:06:03:331
1002,202087	92,387108	27,820000	1002,214844	2020-10-29T19:06:03:571
1002,204651	92,365967	27,820000	1002,227783	2020-10-29T19:06:03:811
1002,205933	92,355400	27,820000	1002,217285	2020-10-29T19:06:04:051
1002,205872	92,355400	27,820000	1002,205811	2020-10-29T19:06:04:292
1002,207214	92,344833	27,820000	1002,218750	2020-10-29T19:06:04:534
1002,206421	92,352760	27,820000	1002,199463	2020-10-29T19:06:04:772
1002,205078	92,363327	27,809999	1002,192871	2020-10-29T19:06:05:012
1002,203552	92,376541	27,820000	1002,189941	2020-10-29T19:06:05:253
1002,203552	92,376541	27,820000	1002,203613	2020-10-29T19:06:05:493
1002,204651	92,365967	27,820000	1002,214844	2020-10-29T19:06:05:733
1002,205078	92,363327	27,820000	1002,208740	2020-10-29T19:06:05:974
1002,205933	92,355400	27,820000	1002,213623	2020-10-29T19:06:06:213
1002,208679	92,331619	27,820000	1002,233887	2020-10-29T19:06:06:453
1002,205505	92,358040	27,820000	1002,176758	2020-10-29T19:06:06:694
1002,205627	92,358040	27,820000	1002,207031	2020-10-29T19:06:06:935
1002,206238	92,352760	27,820000	1002,211914	2020-10-29T19:06:07:174
1002,207947	92,339546	27,820000	1002,223389	2020-10-29T19:06:07:415
1002,207275	92,344833	27,820000	1002,201416	2020-10-29T19:06:07:655
1002,204895	92,363327	27,820000	1002,183594	2020-10-29T19:06:07:896
1002,203369	92,376541	27,820000	1002,189453	2020-10-29T19:06:08:135
1002,205383	92,360687	27,820000	1002,223389	2020-10-29T19:06:08:375
1002,206909	92,347473	27,820000	1002,220947	2020-10-29T19:06:08:615
1002,207520	92,342186	27,820000	1002,213135	2020-10-29T19:06:08:856
1002,207703	92,339546	27,820000	1002,209473	2020-10-29T19:06:09:096
1002,209106	92,328979	27,830000	1002,221680	2020-10-29T19:06:09:336
1002,207336	92,342186	27,830000	1002,191650	2020-10-29T19:06:09:577
1002,206421	92,352760	27,820000	1002,198486	2020-10-29T19:06:09:817
1002,205444	92,360687	27,830000	1002,196289	2020-10-29T19:06:10:057
1002,205688	92,358040	27,830000	1002,207764	2020-10-29T19:06:10:298
1002,203674	92,373894	27,830000	1002,185547	2020-10-29T19:06:10:537
1002,204346	92,368614	27,830000	1002,210205	2020-10-29T19:06:10:778
1002,201233	92,395035	27,830000	1002,173340	2020-10-29T19:06:11:019
1002,197937	92,421455	27,840000	1002,168213	2020-10-29T19:06:11:258
1002,196655	92,432022	27,840000	1002,184814	2020-10-29T19:06:11:499
1002,194885	92,447876	27,830000	1002,178711	2020-10-29T19:06:11:739
1002,192627	92,466377	27,840000	1002,171875	2020-10-29T19:06:11:979
1002,194763	92,450523	27,840000	1002,213867	2020-10-29T19:06:12:220
1002,196289	92,437309	27,840000	1002,209717	2020-10-29T19:06:12:461
1002,198181	92,421455	27,830000	1002,215088	2020-10-29T19:06:12:700
1002,198975	92,413528	27,840000	1002,206299	2020-10-29T19:06:12:940
1002,199768	92,408249	27,840000	1002,206543	2020-10-29T19:06:13:181
1002,198975	92,413528	27,840000	1002,191406	2020-10-29T19:06:13:420
1002,200256	92,402962	27,830000	1002,211914	2020-10-29T19:06:13:660
1002,198303	92,418816	27,849998	1002,180664	2020-10-29T19:06:13:901
1002,197205	92,429382	27,840000	1002,187500	2020-10-29T19:06:14:141
1002,198120	92,421455	27,840000	1002,206299	2020-10-29T19:06:14:382
1002,195496	92,442596	27,830000	1002,171875	2020-10-29T19:06:14:621
1002,195557	92,442596	27,840000	1002,196045	2020-10-29T19:06:14:862
1002,195984	92,439949	27,840000	1002,199951	2020-10-29T19:06:15:102
1002,193970	92,455803	27,840000	1002,175537	2020-10-29T19:06:15:342
1002,191833	92,474304	27,830000	1002,172363	2020-10-29T19:06:15:582
1002,191589	92,476944	27,840000	1002,189209	2020-10-29T19:06:15:823
1002,190552	92,484871	27,840000	1002,180908	2020-10-29T19:06:16:063
1002,193054	92,463730	27,840000	1002,215332	2020-10-29T19:06:16:303
1002,195557	92,442596	27,830000	1002,217529	2020-10-29T19:06:16:543
1002,199585	92,408249	27,840000	1002,236328	2020-10-29T19:06:16:785
1002,203125	92,379181	27,830000	1002,234619	2020-10-29T19:06:17:024
1002,203308	92,376541	27,830000	1002,204834	2020-10-29T19:06:17:264
1002,201843	92,389748	27,840000	1002,188721	2020-10-29T19:06:17:504
1002,200134	92,402962	27,830000	1002,184570	2020-10-29T19:06:17:744
1002,200806	92,397675	27,840000	1002,206543	2020-10-29T19:06:17:985
1002,200623	92,400322	27,849998	1002,198975	2020-10-29T19:06:18:225
1002,203247	92,376541	27,840000	1002,227051	2020-10-29T19:06:18:465
1002,203979	92,371254	27,849998	1002,210449	2020-10-29T19:06:18:705
1002,205505	92,358040	27,849998	1002,218750	2020-10-29T19:06:18:946
1002,206482	92,350113	27,840000	1002,215332	2020-10-29T19:06:19:186
1002,204834	92,365967	27,840000	1002,189697	2020-10-29T19:06:19:426
1002,202209	92,387108	27,840000	1002,178955	2020-10-29T19:06:19:667
1002,197571	92,426743	27,849998	1002,155273	2020-10-29T19:06:19:907
1002,195618	92,442596	27,849998	1002,178223	2020-10-29T19:06:20:147
1002,193848	92,455803	27,840000	1002,177979	2020-10-29T19:06:20:387
1002,194763	92,450523	27,849998	1002,203125	2020-10-29T19:06:20:629
1002,198181	92,421455	27,849998	1002,229004	2020-10-29T19:06:20:868
1002,199280	92,410889	27,859999	1002,208984	2020-10-29T19:06:21:108
1002,198120	92,421455	27,859999	1002,187988	2020-10-29T19:06:21:348
1002,197327	92,426743	27,859999	1002,190186	2020-10-29T19:06:21:589
1002,198242	92,418816	27,859999	1002,206055	2020-10-29T19:06:21:828
1002,199219	92,410889	27,859999	1002,208008	2020-10-29T19:06:22:068
1002,198181	92,421455	27,859999	1002,188965	2020-10-29T19:06:22:309
1002,197449	92,426743	27,859999	1002,191162	2020-10-29T19:06:22:551
1002,196411	92,434669	27,859999	1002,187012	2020-10-29T19:06:22:789
1002,195312	92,445236	27,869999	1002,185547	2020-10-29T19:06:23:030
1002,195190	92,445236	27,869999	1002,193848	2020-10-29T19:06:23:270
1002,196655	92,432022	27,869999	1002,209717	2020-10-29T19:06:23:511
1002,198059	92,421455	27,869999	1002,210449	2020-10-29T19:06:23:752
1002,198608	92,416168	27,869999	1002,203857	2020-10-29T19:06:23:992
1002,199280	92,410889	27,869999	1002,205566	2020-10-29T19:06:24:232
1002,200867	92,397675	27,869999	1002,215332	2020-10-29T19:06:24:472
1002,201660	92,389748	27,879999	1002,208740	2020-10-29T19:06:24:711
1002,199707	92,408249	27,869999	1002,182129	2020-10-29T19:06:24:953
1002,196411	92,434669	27,879999	1002,166748	2020-10-29T19:06:25:192
1002,193665	92,458450	27,889999	1002,168701	2020-10-29T19:06:25:433
1002,193542	92,458450	27,879999	1002,192139	2020-10-29T19:06:25:673
1002,195496	92,442596	27,889999	1002,213135	2020-10-29T19:06:25:913
1002,197388	92,426743	27,879999	1002,214355	2020-10-29T19:06:26:153
1002,196167	92,437309	27,889999	1002,185547	2020-10-29T19:06:26:393
1002,193787	92,458450	27,889999	1002,172607	2020-10-29T19:06:26:633
1002,192017	92,471657	27,889999	1002,176270	2020-10-29T19:06:26:873
1002,189575	92,492798	27,889999	1002,167725	2020-10-29T19:06:27:114
1002,186768	92,516579	27,889999	1002,161865	2020-10-29T19:06:27:354
1002,186523	92,519218	27,889999	1002,184082	2020-10-29T19:06:27:594
1002,186829	92,516579	27,900000	1002,189941	2020-10-29T19:06:27:835
1002,184875	92,532433	27,900000	1002,167236	2020-10-29T19:06:28:075
1002,184326	92,537720	27,900000	1002,179443	2020-10-29T19:06:28:315
1002,184082	92,540359	27,900000	1002,181885	2020-10-29T19:06:28:555
1002,184937	92,532433	27,900000	1002,192871	2020-10-29T19:06:28:795
1002,189941	92,490158	27,900000	1002,234619	2020-10-29T19:06:29:036
1002,191528	92,476944	27,900000	1002,205322	2020-10-29T19:06:29:276
1002,193604	92,458450	27,900000	1002,212402	2020-10-29T19:06:29:516
1002,194824	92,447876	27,900000	1002,205566	2020-10-29T19:06:29:756
1002,192627	92,466377	27,900000	1002,172363	2020-10-29T19:06:29:997
1002,187561	92,508652	27,900000	1002,141846	2020-10-29T19:06:30:237
1002,185486	92,527145	27,900000	1002,166260	2020-10-29T19:06:30:477
1002,185242	92,529793	27,910000	1002,183105	2020-10-29T19:06:30:717
1002,185303	92,529793	27,910000	1002,186279	2020-10-29T19:06:30:958
1002,184753	92,532433	27,910000	1002,179688	2020-10-29T19:06:31:198
1002,183777	92,542999	27,910000	1002,175049	2020-10-29T19:06:31:437
1002,185425	92,527145	27,910000	1002,200195	2020-10-29T19:06:31:678
1002,183899	92,540359	27,900000	1002,169922	2020-10-29T19:06:31:919
1002,182556	92,550926	27,900000	1002,170166	2020-10-29T19:06:32:159
1002,181885	92,556213	27,910000	1002,175537	2020-10-29T19:06:32:399
1002,184082	92,540359	27,910000	1002,203613	2020-10-29T19:06:32:639
1002,183533	92,542999	27,910000	1002,178467	2020-10-29T19:06:32:879
1002,182861	92,548286	27,910000	1002,177002	2020-10-29T19:06:33:120
1002,182495	92,553574	27,910000	1002,179199	2020-10-29T19:06:33:360
1002,181641	92,558853	27,910000	1002,173828	2020-10-29T19:06:33:600
1002,180664	92,566780	27,910000	1002,172119	2020-10-29T19:06:33:840
1002,177673	92,593201	27,910000	1002,150879	2020-10-29T19:06:34:084
1002,175537	92,611702	27,910000	1002,156006	2020-10-29T19:06:34:321
1002,175598	92,609055	27,910000	1002,176270	2020-10-29T19:06:34:562
1002,178162	92,587921	27,910000	1002,201172	2020-10-29T19:06:34:801
1002,178406	92,587921	27,910000	1002,180420	2020-10-29T19:06:35:041
1002,179932	92,574707	27,920000	1002,193359	2020-10-29T19:06:35:281
1002,179504	92,577354	27,930000	1002,175781	2020-10-29T19:06:35:522
1002,178955	92,582634	27,920000	1002,174072	2020-10-29T19:06:35:762
1002,178589	92,585281	27,920000	1002,175049	2020-10-29T19:06:36:004
1002,179199	92,579994	27,920000	1002,185059	2020-10-29T19:06:36:243
1002,180237	92,572067	27,920000	1002,189697	2020-10-29T19:06:36:483
1002,184509	92,535072	27,910000	1002,222412	2020-10-29T19:06:36:723
1002,188477	92,503365	27,920000	1002,223633	2020-10-29T19:06:36:963
1002,188477	92,503365	27,920000	1002,188477	2020-10-29T19:06:37:204
1002,189758	92,492798	27,920000	1002,201172	2020-10-29T19:06:37:443
1002,191956	92,471657	27,930000	1002,211426	2020-10-29T19:06:37:683
1002,190308	92,487511	27,920000	1002,175537	2020-10-29T19:06:37:924
1002,185364	92,527145	27,920000	1002,140625	2020-10-29T19:06:38:164
1002,183289	92,545647	27,930000	1002,164551	2020-10-29T19:06:38:405
1002,182800	92,550926	27,930000	1002,177979	2020-10-29T19:06:38:645
1002,181946	92,556213	27,930000	1002,174561	2020-10-29T19:06:38:885
1002,181885	92,556213	27,930000	1002,181152	2020-10-29T19:06:39:125
1002,183777	92,542999	27,930000	1002,200684	2020-10-29T19:06:39:366
1002,185974	92,521866	27,920000	1002,205566	2020-10-29T19:06:39:606
1002,188293	92,503365	27,930000	1002,208984	2020-10-29T19:06:39:845
1002,188171	92,503365	27,930000	1002,187256	2020-10-29T19:06:40:086
1002,192017	92,471657	27,930000	1002,226074	2020-10-29T19:06:40:327
1002,194885	92,447876	27,930000	1002,220947	2020-10-29T19:06:40:567
1002,196777	92,432022	27,930000	1002,213623	2020-10-29T19:06:40:807
1002,196167	92,437309	27,930000	1002,190674	2020-10-29T19:06:41:047
1002,195374	92,445236	27,930000	1002,188477	2020-10-29T19:06:41:287
1002,194336	92,453163	27,930000	1002,185059	2020-10-29T19:06:41:528
1002,193359	92,461090	27,920000	1002,184814	2020-10-29T19:06:41:768
1002,193909	92,455803	27,920000	1002,198975	2020-10-29T19:06:42:010
1002,196289	92,437309	27,930000	1002,217773	2020-10-29T19:06:42:249
1002,196838	92,432022	27,930000	1002,201660	2020-10-29T19:06:42:489
1002,199280	92,410889	27,920000	1002,221680	2020-10-29T19:06:42:729
1002,201416	92,392395	27,930000	1002,220947	2020-10-29T19:06:42:969
1002,202942	92,379181	27,930000	1002,216553	2020-10-29T19:06:43:210
1002,202393	92,384468	27,930000	1002,197510	2020-10-29T19:06:43:450
1002,199158	92,413528	27,930000	1002,170410	2020-10-29T19:06:43:690
1002,198608	92,416168	27,920000	1002,193604	2020-10-29T19:06:43:930
1002,197205	92,429382	27,930000	1002,184814	2020-10-29T19:06:44:170
1002,196106	92,437309	27,930000	1002,186279	2020-10-29T19:06:44:411
1002,194092	92,455803	27,930000	1002,175781	2020-10-29T19:06:44:651
1002,193481	92,461090	27,930000	1002,187988	2020-10-29T19:06:44:891
1002,194824	92,447876	27,920000	1002,206787	2020-10-29T19:06:45:131
1002,198364	92,418816	27,930000	1002,229980	2020-10-29T19:06:45:373
1002,199890	92,405602	27,930000	1002,213379	2020-10-29T19:06:45:612
1002,197815	92,424095	27,930000	1002,179199	2020-10-29T19:06:45:852
1002,195251	92,445236	27,920000	1002,172119	2020-10-29T19:06:46:092
1002,197632	92,424095	27,930000	1002,218750	2020-10-29T19:06:46:333
1002,199768	92,408249	27,930000	1002,218994	2020-10-29T19:06:46:572
1002,204041	92,371254	27,920000	1002,242188	2020-10-29T19:06:46:813
1002,205383	92,360687	27,930000	1002,217041	2020-10-29T19:06:47:053
1002,202698	92,381821	27,930000	1002,178467	2020-10-29T19:06:47:293
1002,200439	92,402962	27,930000	1002,179688	2020-10-29T19:06:47:543
1002,196106	92,437309	27,920000	1002,157471	2020-10-29T19:06:47:773
1002,194397	92,453163	27,930000	1002,178955	2020-10-29T19:06:48:013
1002,191895	92,474304	27,930000	1002,169434	2020-10-29T19:06:48:255
1002,192261	92,469017	27,920000	1002,195801	2020-10-29T19:06:48:494
1002,191162	92,479584	27,930000	1002,181396	2020-10-29T19:06:48:735
1002,190918	92,482231	27,920000	1002,188477	2020-10-29T19:06:48:975
1002,193726	92,458450	27,930000	1002,218994	2020-10-29T19:06:49:215
1002,192688	92,466377	27,920000	1002,183594	2020-10-29T19:06:49:455
1002,191895	92,474304	27,930000	1002,184570	2020-10-29T19:06:49:696
1002,195496	92,442596	27,920000	1002,228271	2020-10-29T19:06:49:935
1002,197998	92,421455	27,930000	1002,219971	2020-10-29T19:06:50:176
1002,200562	92,400322	27,930000	1002,223877	2020-10-29T19:06:50:417
1002,202637	92,381821	27,930000	1002,221191	2020-10-29T19:06:50:657
1002,202454	92,384468	27,930000	1002,200439	2020-10-29T19:06:50:897
1002,201843	92,389748	27,930000	1002,196289	2020-10-29T19:06:51:137
1002,201843	92,389748	27,930000	1002,201904	2020-10-29T19:06:51:377
1002,199829	92,405602	27,930000	1002,181885	2020-10-29T19:06:51:618
1002,201721	92,389748	27,930000	1002,218994	2020-10-29T19:06:51:857
1002,200378	92,402962	27,930000	1002,188721	2020-10-29T19:06:52:099
1002,196777	92,432022	27,930000	1002,164062	2020-10-29T19:06:52:339
1002,199524	92,408249	27,930000	1002,224365	2020-10-29T19:06:52:577
1002,201355	92,395035	27,930000	1002,218018	2020-10-29T19:06:52:820
1002,204651	92,365967	27,930000	1002,234131	2020-10-29T19:06:53:059
1002,206482	92,350113	27,930000	1002,222900	2020-10-29T19:06:53:299
1002,208679	92,331619	27,930000	1002,228271	2020-10-29T19:06:53:540
1002,211487	92,307838	27,930000	1002,236816	2020-10-29T19:06:53:933
1002,211975	92,305199	27,939999	1002,216553	2020-10-29T19:06:54:204
1002,210938	92,313126	27,930000	1002,201172	2020-10-29T19:06:54:391
1002,207153	92,344833	27,939999	1002,173096	2020-10-29T19:06:54:524
1002,202515	92,384468	27,939999	1002,161133	2020-10-29T19:06:54:741
1002,199951	92,405602	27,939999	1002,176758	2020-10-29T19:06:54:984
1002,196472	92,434669	27,939999	1002,165527	2020-10-29T19:06:55:224
1002,194824	92,447876	27,939999	1002,180176	2020-10-29T19:06:55:461
1002,192932	92,463730	27,939999	1002,175537	2020-10-29T19:06:55:782
1002,194702	92,450523	27,939999	1002,210205	2020-10-29T19:06:55:941
1002,194458	92,453163	27,939999	1002,192383	2020-10-29T19:06:56:229
1002,197266	92,429382	27,939999	1002,222412	2020-10-29T19:06:56:422
1002,200562	92,400322	27,949999	1002,229980	2020-10-29T19:06:56:660
1002,205322	92,360687	27,949999	1002,248535	2020-10-29T19:06:56:904
1002,207581	92,342186	27,949999	1002,228271	2020-10-29T19:06:57:144
1002,210876	92,313126	27,959999	1002,240479	2020-10-29T19:06:57:384
1002,213135	92,294624	27,959999	1002,233887	2020-10-29T19:06:57:624
1002,213013	92,297272	27,959999	1002,211914	2020-10-29T19:06:58:308
1002,210632	92,315765	27,959999	1002,188965	2020-10-29T19:06:58:314
1002,209290	92,326332	27,959999	1002,197266	2020-10-29T19:06:58:352
1002,209167	92,328979	27,959999	1002,207764	2020-10-29T19:06:58:585
1002,206909	92,347473	27,969999	1002,186768	2020-10-29T19:06:58:823
1002,206177	92,352760	27,969999	1002,199707	2020-10-29T19:06:59:065
1002,208069	92,336906	27,969999	1002,225098	2020-10-29T19:06:59:303
1002,205627	92,358040	27,969999	1002,183350	2020-10-29T19:06:59:547
1002,204346	92,368614	27,969999	1002,192871	2020-10-29T19:06:59:786
1002,203064	92,379181	27,980000	1002,191406	2020-10-29T19:07:00:028
1002,198425	92,418816	27,969999	1002,156738	2020-10-29T19:07:00:268
1002,197388	92,426743	27,990000	1002,187744	2020-10-29T19:07:00:507
1002,196960	92,429382	27,990000	1002,193359	2020-10-29T19:07:00:747
1002,196350	92,434669	27,990000	1002,191162	2020-10-29T19:07:00:987
1002,196350	92,434669	27,990000	1002,196289	2020-10-29T19:07:01:228
1002,197388	92,426743	28,000000	1002,206787	2020-10-29T19:07:01:468
1002,198181	92,421455	27,990000	1002,205322	2020-10-29T19:07:01:709
1002,200195	92,402962	28,000000	1002,218506	2020-10-29T19:07:01:950
1002,200867	92,397675	28,000000	1002,206787	2020-10-29T19:07:02:189
1002,203308	92,376541	28,010000	1002,225342	2020-10-29T19:07:02:429
1002,203430	92,376541	28,010000	1002,204102	2020-10-29T19:07:02:671
1002,203308	92,376541	28,010000	1002,201904	2020-10-29T19:07:02:910
1002,204407	92,368614	28,019999	1002,213867	2020-10-29T19:07:03:150
1002,208252	92,336906	28,019999	1002,242920	2020-10-29T19:07:03:390
