x	y	z	ts
-0,153141	2,352145	9,305687	2020-10-29T19:03:51:284
-0,315853	2,598605	9,468399	2020-10-29T19:03:51:285
-0,059821	2,909672	9,284152	2020-10-29T19:03:51:286
0,105284	2,828316	9,272188	2020-10-29T19:03:51:286
0,105284	2,861816	9,322437	2020-10-29T19:03:51:287
0,162712	3,146562	9,212367	2020-10-29T19:03:51:287
0,169890	3,055635	9,293723	2020-10-29T19:03:51:311
0,040678	2,871387	9,183653	2020-10-29T19:03:51:320
0,098106	2,689533	9,288938	2020-10-29T19:03:51:338
0,244068	2,608176	9,025726	2020-10-29T19:03:51:359
0,552742	2,955136	9,420543	2020-10-29T19:03:51:379
0,466600	2,184647	9,317651	2020-10-29T19:03:51:399
0,313460	1,931008	9,434900	2020-10-29T19:03:51:418
0,107677	1,701297	9,511470	2020-10-29T19:03:51:438
0,083749	1,607977	9,477970	2020-10-29T19:03:51:460
0,069392	1,978864	9,537791	2020-10-29T19:03:51:479
0,191426	2,017149	9,410972	2020-10-29T19:03:51:500
0,296710	1,789831	9,375079	2020-10-29T19:03:51:519
0,234497	1,749153	9,317651	2020-10-29T19:03:51:539
0,287139	1,507478	9,652647	2020-10-29T19:03:51:559
0,294317	0,940379	9,619147	2020-10-29T19:03:51:580
-0,413958	1,366302	8,484949	2020-10-29T19:03:51:599
0,145962	1,813759	9,286544	2020-10-29T19:03:51:620
0,157926	1,610370	9,734003	2020-10-29T19:03:51:639
0,208176	1,574477	10,140782	2020-10-29T19:03:51:660
0,375673	1,892723	9,944571	2020-10-29T19:03:51:679
0,495314	1,304088	9,573684	2020-10-29T19:03:51:700
0,318245	1,899901	9,652647	2020-10-29T19:03:51:719
0,229711	2,311467	9,315259	2020-10-29T19:03:51:739
0,509671	1,677369	9,858429	2020-10-29T19:03:51:759
0,579063	1,811367	9,619147	2020-10-29T19:03:51:779
0,562313	2,031506	9,662218	2020-10-29T19:03:51:799
0,215354	1,280160	9,430114	2020-10-29T19:03:51:819
0,258425	0,600598	9,580862	2020-10-29T19:03:51:839
0,337388	0,619741	9,870394	2020-10-29T19:03:51:860
0,236889	0,591027	9,707682	2020-10-29T19:03:51:879
0,375673	0,930808	9,528220	2020-10-29T19:03:51:899
0,483350	0,684347	9,619147	2020-10-29T19:03:51:919
0,641276	0,320638	9,743573	2020-10-29T19:03:51:940
0,284746	0,686740	9,475577	2020-10-29T19:03:51:959
0,117248	1,232304	8,932407	2020-10-29T19:03:51:979
0,404387	0,260818	9,693325	2020-10-29T19:03:52:000
0,519243	0,878166	9,762716	2020-10-29T19:03:52:019
0,220140	0,507278	9,616754	2020-10-29T19:03:52:039
0,351745	0,490529	9,559326	2020-10-29T19:03:52:060
0,282353	0,457029	9,681360	2020-10-29T19:03:52:080
0,315853	0,533599	9,693325	2020-10-29T19:03:52:099
0,399601	0,602991	9,702895	2020-10-29T19:03:52:119
0,227318	1,466800	9,695717	2020-10-29T19:03:52:139
0,325424	-0,023928	9,719646	2020-10-29T19:03:52:159
0,344566	0,765703	9,592826	2020-10-29T19:03:52:180
0,308674	0,193819	9,678967	2020-10-29T19:03:52:200
0,538385	0,167498	9,681360	2020-10-29T19:03:52:219
0,435494	0,428315	9,865608	2020-10-29T19:03:52:241
-0,004786	0,308674	9,669396	2020-10-29T19:03:52:260
-0,251246	-0,033500	9,791430	2020-10-29T19:03:52:280
0,196211	1,088734	9,714860	2020-10-29T19:03:52:299
0,504886	0,710668	9,552148	2020-10-29T19:03:52:321
0,246461	0,265603	9,693325	2020-10-29T19:03:52:339
0,126820	-0,150748	9,695717	2020-10-29T19:03:52:361
0,162712	0,153141	9,810574	2020-10-29T19:03:52:379
0,354138	0,019143	9,671788	2020-10-29T19:03:52:401
-0,258425	-0,179462	9,968499	2020-10-29T19:03:52:422
0,153141	0,100499	9,667004	2020-10-29T19:03:52:442
0,232104	-0,435494	9,793823	2020-10-29T19:03:52:461
0,263210	-0,966700	9,937392	2020-10-29T19:03:52:483
-0,088534	-0,674776	9,772287	2020-10-29T19:03:52:501
-0,129212	-0,622134	9,485149	2020-10-29T19:03:52:522
0,421137	-0,705883	9,564112	2020-10-29T19:03:52:541
-0,114855	-0,055035	10,214959	2020-10-29T19:03:52:564
-0,090927	0,229711	9,853643	2020-10-29T19:03:52:581
-0,155533	-0,497707	9,348758	2020-10-29T19:03:52:603
0,064606	-0,380459	9,719646	2020-10-29T19:03:52:621
-0,114855	-0,078963	9,860823	2020-10-29T19:03:52:643
0,356531	-0,602991	10,200603	2020-10-29T19:03:52:662
0,167498	-1,902294	9,561719	2020-10-29T19:03:52:683
-0,545564	-0,413958	10,104890	2020-10-29T19:03:52:701
-0,078963	-0,155533	10,088140	2020-10-29T19:03:52:723
-0,208176	-0,401994	9,439686	2020-10-29T19:03:52:741
-0,157926	0,729811	9,602397	2020-10-29T19:03:52:763
-0,179462	-0,002393	9,664611	2020-10-29T19:03:52:782
-0,179462	-0,926022	9,623933	2020-10-29T19:03:52:803
-0,124427	-0,976272	9,525827	2020-10-29T19:03:52:821
-0,086142	-0,287139	9,513863	2020-10-29T19:03:52:843
-0,148355	-0,349352	9,588040	2020-10-29T19:03:52:861
-0,184247	-0,287139	9,588040	2020-10-29T19:03:52:883
-0,303888	-0,870987	9,810574	2020-10-29T19:03:52:904
0,050249	-0,291924	9,705289	2020-10-29T19:03:52:924
-0,258425	-0,758525	9,738789	2020-10-29T19:03:52:941
-0,160319	-0,605384	9,607183	2020-10-29T19:03:52:964
-0,186640	-0,497707	9,549755	2020-10-29T19:03:52:981
-0,181855	-0,562313	9,966106	2020-10-29T19:03:53:003
-0,169890	-0,543171	9,734003	2020-10-29T19:03:53:021
-0,337388	-0,440279	9,621540	2020-10-29T19:03:53:043
0,387637	-0,521635	9,856036	2020-10-29T19:03:53:061
-0,521635	-1,854438	10,145569	2020-10-29T19:03:53:083
-0,693919	1,277767	10,059426	2020-10-29T19:03:53:102
0,126820	-1,763510	9,482756	2020-10-29T19:03:53:123
-0,823131	0,138784	9,832108	2020-10-29T19:03:53:142
0,066999	0,112463	9,497113	2020-10-29T19:03:53:164
-0,502493	-0,270389	9,561719	2020-10-29T19:03:53:181
-0,244068	-0,775275	9,745967	2020-10-29T19:03:53:204
-0,234497	-0,579063	9,592826	2020-10-29T19:03:53:222
-0,222532	-0,535992	9,750752	2020-10-29T19:03:53:244
-0,131605	-0,248854	9,590433	2020-10-29T19:03:53:262
-0,256032	-0,337388	9,568897	2020-10-29T19:03:53:285
-0,078963	-0,607777	9,734003	2020-10-29T19:03:53:302
-0,160319	-0,780060	10,188639	2020-10-29T19:03:53:324
0,177069	-0,918844	9,422935	2020-10-29T19:03:53:342
-0,815953	-0,241675	10,155140	2020-10-29T19:03:53:364
0,275175	-0,708275	9,262616	2020-10-29T19:03:53:383
-0,736989	-0,961915	9,970891	2020-10-29T19:03:53:404
-0,454636	-0,155533	9,664611	2020-10-29T19:03:53:422
0,011964	-0,409173	9,588040	2020-10-29T19:03:53:444
-0,244068	-0,897308	9,652647	2020-10-29T19:03:53:462
-0,267996	-0,727418	9,544970	2020-10-29T19:03:53:485
-0,325424	-0,354138	9,688539	2020-10-29T19:03:53:502
-0,203390	-0,277567	9,779467	2020-10-29T19:03:53:524
-0,205783	-0,416351	9,616754	2020-10-29T19:03:53:542
-0,263210	-0,650848	9,652647	2020-10-29T19:03:53:565
-0,256032	-0,746561	9,578469	2020-10-29T19:03:53:582
-0,174676	-0,495314	9,846465	2020-10-29T19:03:53:604
-0,241675	-0,447458	9,879964	2020-10-29T19:03:53:623
-0,186640	-0,418744	9,607183	2020-10-29T19:03:53:644
-0,184247	-0,495314	9,748360	2020-10-29T19:03:53:662
-0,232104	-0,437887	9,774680	2020-10-29T19:03:53:686
-0,177069	-0,713061	9,753145	2020-10-29T19:03:53:702
-0,239282	-0,485743	9,693325	2020-10-29T19:03:53:724
-0,311067	-0,394816	9,678967	2020-10-29T19:03:53:742
-0,244068	-0,519243	9,621540	2020-10-29T19:03:53:765
-0,318245	-0,497707	9,621540	2020-10-29T19:03:53:782
-0,267996	-0,610170	9,659825	2020-10-29T19:03:53:805
-0,241675	-0,459422	9,726824	2020-10-29T19:03:53:822
-0,294317	-0,500100	9,681360	2020-10-29T19:03:53:844
-0,205783	-0,591027	9,623933	2020-10-29T19:03:53:862
-0,251246	-0,524028	9,650253	2020-10-29T19:03:53:885
-0,315853	-0,593420	9,643075	2020-10-29T19:03:53:902
-0,256032	-0,519243	9,688539	2020-10-29T19:03:53:924
-0,344566	-0,543171	9,738789	2020-10-29T19:03:53:942
-0,296710	-0,528814	9,719646	2020-10-29T19:03:53:964
-0,291924	-0,626920	9,638289	2020-10-29T19:03:53:984
-0,337388	-0,538385	9,688539	2020-10-29T19:03:54:004
-0,282353	-0,519243	9,695717	2020-10-29T19:03:54:022
-0,397209	-0,557528	9,676575	2020-10-29T19:03:54:045
-0,378066	-0,710668	9,659825	2020-10-29T19:03:54:062
-0,318245	-0,500100	9,664611	2020-10-29T19:03:54:085
-0,325424	-0,679562	9,621540	2020-10-29T19:03:54:103
-0,313460	-0,669990	9,681360	2020-10-29T19:03:54:124
-0,361316	-0,514457	9,623933	2020-10-29T19:03:54:142
-0,349352	-0,528814	9,657433	2020-10-29T19:03:54:164
-0,267996	-0,629312	9,662218	2020-10-29T19:03:54:182
-0,265603	-0,354138	9,659825	2020-10-29T19:03:54:204
-0,368495	-0,634098	9,683753	2020-10-29T19:03:54:223
-0,313460	-0,634098	9,638289	2020-10-29T19:03:54:245
-0,349352	-0,535992	9,671788	2020-10-29T19:03:54:262
-0,251246	-0,509671	9,698111	2020-10-29T19:03:54:285
-0,349352	-0,581456	9,698111	2020-10-29T19:03:54:303
-0,272782	-0,473779	9,693325	2020-10-29T19:03:54:325
-0,315853	-0,445065	9,628718	2020-10-29T19:03:54:343
-0,346959	-0,602991	9,650253	2020-10-29T19:03:54:365
-0,375673	-0,509671	9,693325	2020-10-29T19:03:54:383
-0,332602	-0,557528	9,667004	2020-10-29T19:03:54:406
-0,311067	-0,490529	9,659825	2020-10-29T19:03:54:423
-0,318245	-0,607777	9,695717	2020-10-29T19:03:54:445
-0,387637	-0,535992	9,652647	2020-10-29T19:03:54:463
-0,313460	-0,533599	9,676575	2020-10-29T19:03:54:485
-0,303888	-0,564706	9,707682	2020-10-29T19:03:54:503
-0,454636	-0,598206	9,655040	2020-10-29T19:03:54:525
-0,346959	-0,583849	9,650253	2020-10-29T19:03:54:543
-0,291924	-0,559920	9,717253	2020-10-29T19:03:54:565
-0,334995	-0,535992	9,640682	2020-10-29T19:03:54:584
-0,296710	-0,595813	9,688539	2020-10-29T19:03:54:605
-0,370888	-0,555135	9,645468	2020-10-29T19:03:54:623
-0,301496	-0,574277	9,650253	2020-10-29T19:03:54:645
-0,356531	-0,519243	9,688539	2020-10-29T19:03:54:663
-0,349352	-0,617348	9,688539	2020-10-29T19:03:54:687
-0,270389	-0,524028	9,655040	2020-10-29T19:03:54:703
-0,318245	-0,591027	9,588040	2020-10-29T19:03:54:726
-0,311067	-0,526421	9,678967	2020-10-29T19:03:54:743
-0,332602	-0,567099	9,645468	2020-10-29T19:03:54:765
-0,370888	-0,521635	9,686146	2020-10-29T19:03:54:783
-0,370888	-0,602991	9,693325	2020-10-29T19:03:54:806
-0,339781	-0,579063	9,671788	2020-10-29T19:03:54:824
-0,394816	-0,610170	9,671788	2020-10-29T19:03:54:845
-0,332602	-0,533599	9,664611	2020-10-29T19:03:54:863
-0,361316	-0,622134	9,662218	2020-10-29T19:03:54:886
-0,325424	-0,535992	9,686146	2020-10-29T19:03:54:903
-0,358923	-0,483350	9,659825	2020-10-29T19:03:54:925
-0,263210	-0,552742	9,614362	2020-10-29T19:03:54:943
-0,392423	-0,569492	9,686146	2020-10-29T19:03:54:966
-0,301496	-0,605384	9,743573	2020-10-29T19:03:54:983
-0,325424	-0,509671	9,667004	2020-10-29T19:03:55:006
-0,320638	-0,545564	9,638289	2020-10-29T19:03:55:023
-0,399601	-0,588634	9,700503	2020-10-29T19:03:55:048
-0,277567	-0,643669	9,669396	2020-10-29T19:03:55:064
-0,392423	-0,528814	9,621540	2020-10-29T19:03:55:086
-0,339781	-0,600598	9,714860	2020-10-29T19:03:55:104
-0,337388	-0,521635	9,664611	2020-10-29T19:03:55:127
-0,267996	-0,535992	9,683753	2020-10-29T19:03:55:143
-0,325424	-0,449851	9,700503	2020-10-29T19:03:55:166
-0,311067	-0,485743	9,645468	2020-10-29T19:03:55:184
-0,337388	-0,636491	9,647861	2020-10-29T19:03:55:206
-0,397209	-0,492921	9,631111	2020-10-29T19:03:55:223
-0,368495	-0,586242	9,671788	2020-10-29T19:03:55:246
-0,296710	-0,519243	9,657433	2020-10-29T19:03:55:263
-0,325424	-0,583849	9,635897	2020-10-29T19:03:55:287
-0,294317	-0,531207	9,659825	2020-10-29T19:03:55:305
-0,332602	-0,495314	9,722038	2020-10-29T19:03:55:326
-0,313460	-0,564706	9,657433	2020-10-29T19:03:55:343
-0,337388	-0,533599	9,664611	2020-10-29T19:03:55:367
-0,409173	-0,526421	9,645468	2020-10-29T19:03:55:384
-0,294317	-0,516850	9,712467	2020-10-29T19:03:55:407
-0,327817	-0,440279	9,578469	2020-10-29T19:03:55:424
-0,382852	-0,567099	9,717253	2020-10-29T19:03:55:447
-0,368495	-0,634098	9,681360	2020-10-29T19:03:55:464
-0,342174	-0,543171	9,683753	2020-10-29T19:03:55:487
-0,330210	-0,440279	9,655040	2020-10-29T19:03:55:504
-0,277567	-0,552742	9,683753	2020-10-29T19:03:55:526
-0,373280	-0,600598	9,693325	2020-10-29T19:03:55:545
-0,349352	-0,528814	9,600004	2020-10-29T19:03:55:566
-0,284746	-0,488136	9,686146	2020-10-29T19:03:55:584
-0,346959	-0,504886	9,619147	2020-10-29T19:03:55:607
-0,339781	-0,629312	9,678967	2020-10-29T19:03:55:624
-0,375673	-0,567099	9,745967	2020-10-29T19:03:55:647
-0,346959	-0,559920	9,688539	2020-10-29T19:03:55:665
-0,256032	-0,612563	9,650253	2020-10-29T19:03:55:687
-0,366102	-0,535992	9,678967	2020-10-29T19:03:55:704
-0,299103	-0,543171	9,681360	2020-10-29T19:03:55:727
-0,387637	-0,619741	9,690931	2020-10-29T19:03:55:744
-0,311067	-0,564706	9,678967	2020-10-29T19:03:55:767
-0,404387	-0,459422	9,743573	2020-10-29T19:03:55:785
-0,311067	-0,538385	9,731609	2020-10-29T19:03:55:807
-0,301496	-0,602991	9,719646	2020-10-29T19:03:55:824
-0,370888	-0,593420	9,741181	2020-10-29T19:03:55:847
-0,294317	-0,612563	9,626326	2020-10-29T19:03:55:864
-0,327817	-0,490529	9,650253	2020-10-29T19:03:55:887
-0,380459	-0,581456	9,664611	2020-10-29T19:03:55:905
-0,323031	-0,555135	9,609575	2020-10-29T19:03:55:927
-0,303888	-0,602991	9,686146	2020-10-29T19:03:55:944
-0,363709	-0,622134	9,645468	2020-10-29T19:03:55:967
-0,325424	-0,483350	9,693325	2020-10-29T19:03:55:985
-0,246461	-0,524028	9,631111	2020-10-29T19:03:56:007
-0,339781	-0,559920	9,664611	2020-10-29T19:03:56:025
-0,315853	-0,485743	9,640682	2020-10-29T19:03:56:047
-0,291924	-0,433101	9,669396	2020-10-29T19:03:56:064
-0,342174	-0,547956	9,650253	2020-10-29T19:03:56:088
-0,382852	-0,502493	9,647861	2020-10-29T19:03:56:105
-0,284746	-0,581456	9,676575	2020-10-29T19:03:56:127
-0,351745	-0,533599	9,638289	2020-10-29T19:03:56:145
-0,320638	-0,547956	9,659825	2020-10-29T19:03:56:168
-0,325424	-0,540778	9,647861	2020-10-29T19:03:56:185
-0,315853	-0,514457	9,652647	2020-10-29T19:03:56:207
-0,287139	-0,617348	9,669396	2020-10-29T19:03:56:224
-0,313460	-0,540778	9,693325	2020-10-29T19:03:56:248
-0,294317	-0,533599	9,676575	2020-10-29T19:03:56:266
-0,351745	-0,593420	9,659825	2020-10-29T19:03:56:289
-0,320638	-0,602991	9,662218	2020-10-29T19:03:56:305
-0,358923	-0,605384	9,633504	2020-10-29T19:03:56:328
-0,342174	-0,512064	9,681360	2020-10-29T19:03:56:345
-0,358923	-0,557528	9,710074	2020-10-29T19:03:56:367
-0,387637	-0,610170	9,659825	2020-10-29T19:03:56:385
-0,363709	-0,607777	9,667004	2020-10-29T19:03:56:408
-0,378066	-0,567099	9,724431	2020-10-29T19:03:56:425
-0,294317	-0,574277	9,659825	2020-10-29T19:03:56:448
-0,318245	-0,480957	9,619147	2020-10-29T19:03:56:465
-0,351745	-0,516850	9,705289	2020-10-29T19:03:56:489
-0,275175	-0,672383	9,667004	2020-10-29T19:03:56:506
-0,366102	-0,519243	9,609575	2020-10-29T19:03:56:528
-0,318245	-0,614955	9,674182	2020-10-29T19:03:56:545
-0,354138	-0,564706	9,690931	2020-10-29T19:03:56:569
-0,361316	-0,658026	9,667004	2020-10-29T19:03:56:585
-0,354138	-0,543171	9,681360	2020-10-29T19:03:56:608
-0,392423	-0,535992	9,702895	2020-10-29T19:03:56:625
-0,222532	-0,650848	9,678967	2020-10-29T19:03:56:649
-0,349352	-0,591027	9,669396	2020-10-29T19:03:56:665
-0,344566	-0,552742	9,664611	2020-10-29T19:03:56:688
-0,330210	-0,562313	9,669396	2020-10-29T19:03:56:705
-0,313460	-0,638884	9,667004	2020-10-29T19:03:56:727
-0,366102	-0,677169	9,726824	2020-10-29T19:03:56:746
-0,323031	-0,569492	9,580862	2020-10-29T19:03:56:768
-0,332602	-0,500100	9,631111	2020-10-29T19:03:56:785
-0,337388	-0,478565	9,674182	2020-10-29T19:03:56:808
-0,284746	-0,605384	9,695717	2020-10-29T19:03:56:825
-0,354138	-0,622134	9,671788	2020-10-29T19:03:56:847
-0,370888	-0,559920	9,726824	2020-10-29T19:03:56:865
-0,313460	-0,559920	9,635897	2020-10-29T19:03:56:888
-0,366102	-0,571885	9,676575	2020-10-29T19:03:56:905
-0,418744	-0,605384	9,669396	2020-10-29T19:03:56:928
-0,325424	-0,693919	9,669396	2020-10-29T19:03:56:945
-0,313460	-0,638884	9,671788	2020-10-29T19:03:56:968
-0,385244	-0,571885	9,688539	2020-10-29T19:03:56:987
-0,368495	-0,569492	9,686146	2020-10-29T19:03:57:008
-0,306281	-0,602991	9,714860	2020-10-29T19:03:57:025
-0,351745	-0,612563	9,655040	2020-10-29T19:03:57:048
-0,303888	-0,538385	9,609575	2020-10-29T19:03:57:065
-0,320638	-0,526421	9,731609	2020-10-29T19:03:57:088
-0,339781	-0,658026	9,731609	2020-10-29T19:03:57:105
-0,363709	-0,643669	9,631111	2020-10-29T19:03:57:128
-0,334995	-0,559920	9,667004	2020-10-29T19:03:57:145
-0,325424	-0,547956	9,635897	2020-10-29T19:03:57:168
-0,323031	-0,617348	9,681360	2020-10-29T19:03:57:186
-0,351745	-0,638884	9,681360	2020-10-29T19:03:57:208
-0,325424	-0,562313	9,614362	2020-10-29T19:03:57:226
-0,342174	-0,655633	9,741181	2020-10-29T19:03:57:248
-0,344566	-0,686740	9,678967	2020-10-29T19:03:57:265
-0,346959	-0,626920	9,616754	2020-10-29T19:03:57:290
-0,308674	-0,528814	9,616754	2020-10-29T19:03:57:306
-0,296710	-0,581456	9,700503	2020-10-29T19:03:57:328
-0,318245	-0,679562	9,621540	2020-10-29T19:03:57:346
-0,301496	-0,569492	9,650253	2020-10-29T19:03:57:369
-0,294317	-0,583849	9,686146	2020-10-29T19:03:57:386
-0,351745	-0,626920	9,623933	2020-10-29T19:03:57:410
-0,351745	-0,545564	9,667004	2020-10-29T19:03:57:426
-0,370888	-0,669990	9,690931	2020-10-29T19:03:57:448
-0,330210	-0,677169	9,695717	2020-10-29T19:03:57:467
-0,346959	-0,610170	9,657433	2020-10-29T19:03:57:490
-0,272782	-0,610170	9,712467	2020-10-29T19:03:57:506
-0,318245	-0,646062	9,698111	2020-10-29T19:03:57:529
-0,311067	-0,468993	9,683753	2020-10-29T19:03:57:546
-0,313460	-0,636491	9,667004	2020-10-29T19:03:57:569
-0,284746	-0,619741	9,652647	2020-10-29T19:03:57:586
-0,337388	-0,689133	9,671788	2020-10-29T19:03:57:608
-0,344566	-0,535992	9,638289	2020-10-29T19:03:57:626
-0,375673	-0,497707	9,686146	2020-10-29T19:03:57:650
-0,327817	-0,576670	9,681360	2020-10-29T19:03:57:666
-0,385244	-0,636491	9,616754	2020-10-29T19:03:57:689
-0,282353	-0,636491	9,719646	2020-10-29T19:03:57:707
-0,313460	-0,574277	9,609575	2020-10-29T19:03:57:729
-0,301496	-0,634098	9,643075	2020-10-29T19:03:57:746
-0,356531	-0,540778	9,705289	2020-10-29T19:03:57:770
-0,327817	-0,571885	9,671788	2020-10-29T19:03:57:787
-0,303888	-0,646062	9,640682	2020-10-29T19:03:57:810
-0,368495	-0,588634	9,643075	2020-10-29T19:03:57:826
-0,390030	-0,631705	9,664611	2020-10-29T19:03:57:849
-0,284746	-0,610170	9,683753	2020-10-29T19:03:57:866
-0,308674	-0,531207	9,705289	2020-10-29T19:03:57:890
-0,351745	-0,638884	9,626326	2020-10-29T19:03:57:906
-0,332602	-0,555135	9,700503	2020-10-29T19:03:57:929
-0,299103	-0,586242	9,616754	2020-10-29T19:03:57:947
-0,334995	-0,660419	9,705289	2020-10-29T19:03:57:970
-0,296710	-0,674776	9,662218	2020-10-29T19:03:57:986
-0,363709	-0,660419	9,643075	2020-10-29T19:03:58:009
-0,339781	-0,576670	9,611969	2020-10-29T19:03:58:027
-0,334995	-0,634098	9,633504	2020-10-29T19:03:58:050
-0,306281	-0,591027	9,607183	2020-10-29T19:03:58:067
-0,325424	-0,631705	9,700503	2020-10-29T19:03:58:090
-0,337388	-0,600598	9,652647	2020-10-29T19:03:58:107
-0,313460	-0,689133	9,681360	2020-10-29T19:03:58:130
-0,308674	-0,622134	9,683753	2020-10-29T19:03:58:146
-0,361316	-0,591027	9,657433	2020-10-29T19:03:58:170
-0,315853	-0,557528	9,638289	2020-10-29T19:03:58:189
-0,363709	-0,662812	9,686146	2020-10-29T19:03:58:218
-0,392423	-0,658026	9,705289	2020-10-29T19:03:58:237
-0,373280	-0,562313	9,707682	2020-10-29T19:03:58:250
-0,318245	-0,591027	9,700503	2020-10-29T19:03:58:267
-0,366102	-0,619741	9,707682	2020-10-29T19:03:58:291
-0,332602	-0,655633	9,655040	2020-10-29T19:03:58:307
-0,330210	-0,622134	9,631111	2020-10-29T19:03:58:329
-0,301496	-0,638884	9,655040	2020-10-29T19:03:58:347
-0,284746	-0,674776	9,647861	2020-10-29T19:03:58:370
-0,311067	-0,622134	9,657433	2020-10-29T19:03:58:387
-0,308674	-0,593420	9,688539	2020-10-29T19:03:58:410
-0,296710	-0,586242	9,628718	2020-10-29T19:03:58:427
-0,368495	-0,631705	9,734003	2020-10-29T19:03:58:450
-0,296710	-0,686740	9,683753	2020-10-29T19:03:58:466
-0,270389	-0,634098	9,719646	2020-10-29T19:03:58:490
-0,346959	-0,607777	9,635897	2020-10-29T19:03:58:507
-0,356531	-0,586242	9,619147	2020-10-29T19:03:58:530
-0,375673	-0,591027	9,671788	2020-10-29T19:03:58:547
-0,356531	-0,705883	9,647861	2020-10-29T19:03:58:569
-0,385244	-0,710668	9,645468	2020-10-29T19:03:58:587
-0,354138	-0,559920	9,683753	2020-10-29T19:03:58:611
-0,413958	-0,646062	9,681360	2020-10-29T19:03:58:627
-0,337388	-0,634098	9,659825	2020-10-29T19:03:58:649
-0,356531	-0,626920	9,592826	2020-10-29T19:03:58:668
-0,320638	-0,646062	9,686146	2020-10-29T19:03:58:691
-0,401994	-0,660419	9,669396	2020-10-29T19:03:58:707
-0,411566	-0,600598	9,667004	2020-10-29T19:03:58:730
-0,311067	-0,669990	9,626326	2020-10-29T19:03:58:746
-0,325424	-0,602991	9,695717	2020-10-29T19:03:58:770
-0,361316	-0,591027	9,669396	2020-10-29T19:03:58:787
-0,294317	-0,579063	9,655040	2020-10-29T19:03:58:810
-0,366102	-0,591027	9,676575	2020-10-29T19:03:58:827
-0,361316	-0,607777	9,683753	2020-10-29T19:03:58:851
-0,373280	-0,583849	9,674182	2020-10-29T19:03:58:867
-0,363709	-0,576670	9,628718	2020-10-29T19:03:58:891
-0,342174	-0,631705	9,686146	2020-10-29T19:03:58:908
-0,406780	-0,559920	9,688539	2020-10-29T19:03:58:931
-0,354138	-0,653241	9,664611	2020-10-29T19:03:58:947
-0,346959	-0,593420	9,698111	2020-10-29T19:03:58:970
-0,334995	-0,631705	9,616754	2020-10-29T19:03:58:987
-0,294317	-0,638884	9,707682	2020-10-29T19:03:59:011
-0,392423	-0,535992	9,652647	2020-10-29T19:03:59:027
-0,318245	-0,617348	9,683753	2020-10-29T19:03:59:050
-0,334995	-0,674776	9,690931	2020-10-29T19:03:59:067
-0,411566	-0,717847	9,647861	2020-10-29T19:03:59:091
-0,330210	-0,552742	9,729217	2020-10-29T19:03:59:107
-0,346959	-0,636491	9,695717	2020-10-29T19:03:59:130
-0,327817	-0,579063	9,664611	2020-10-29T19:03:59:148
-0,366102	-0,617348	9,662218	2020-10-29T19:03:59:171
-0,368495	-0,559920	9,595219	2020-10-29T19:03:59:187
-0,385244	-0,626920	9,753145	2020-10-29T19:03:59:210
-0,299103	-0,545564	9,597611	2020-10-29T19:03:59:227
-0,378066	-0,600598	9,657433	2020-10-29T19:03:59:251
-0,375673	-0,665205	9,650253	2020-10-29T19:03:59:267
-0,330210	-0,669990	9,698111	2020-10-29T19:03:59:290
-0,366102	-0,610170	9,614362	2020-10-29T19:03:59:307
-0,361316	-0,612563	9,645468	2020-10-29T19:03:59:331
-0,421137	-0,629312	9,693325	2020-10-29T19:03:59:348
-0,430708	-0,646062	9,688539	2020-10-29T19:03:59:371
-0,313460	-0,658026	9,686146	2020-10-29T19:03:59:389
-0,378066	-0,607777	9,643075	2020-10-29T19:03:59:412
-0,411566	-0,622134	9,647861	2020-10-29T19:03:59:427
-0,382852	-0,559920	9,669396	2020-10-29T19:03:59:452
-0,368495	-0,638884	9,676575	2020-10-29T19:03:59:468
-0,392423	-0,710668	9,619147	2020-10-29T19:03:59:491
-0,287139	-0,748954	9,628718	2020-10-29T19:03:59:508
-0,418744	-0,576670	9,645468	2020-10-29T19:03:59:531
-0,315853	-0,598206	9,671788	2020-10-29T19:03:59:547
-0,330210	-0,650848	9,652647	2020-10-29T19:03:59:571
-0,363709	-0,622134	9,640682	2020-10-29T19:03:59:588
-0,406780	-0,552742	9,607183	2020-10-29T19:03:59:611
-0,368495	-0,545564	9,664611	2020-10-29T19:03:59:629
-0,327817	-0,598206	9,700503	2020-10-29T19:03:59:651
-0,380459	-0,658026	9,669396	2020-10-29T19:03:59:668
-0,411566	-0,576670	9,669396	2020-10-29T19:03:59:692
-0,356531	-0,610170	9,628718	2020-10-29T19:03:59:708
-0,356531	-0,626920	9,616754	2020-10-29T19:03:59:730
-0,351745	-0,595813	9,607183	2020-10-29T19:03:59:747
-0,311067	-0,626920	9,681360	2020-10-29T19:03:59:770
-0,327817	-0,586242	9,609575	2020-10-29T19:03:59:787
-0,311067	-0,569492	9,655040	2020-10-29T19:03:59:811
-0,399601	-0,713061	9,652647	2020-10-29T19:03:59:827
-0,380459	-0,547956	9,640682	2020-10-29T19:03:59:850
-0,361316	-0,550349	9,671788	2020-10-29T19:03:59:868
-0,366102	-0,610170	9,659825	2020-10-29T19:03:59:891
-0,370888	-0,734596	9,669396	2020-10-29T19:03:59:907
-0,323031	-0,600598	9,628718	2020-10-29T19:03:59:930
-0,387637	-0,583849	9,645468	2020-10-29T19:03:59:947
-0,378066	-0,634098	9,640682	2020-10-29T19:03:59:971
-0,382852	-0,672383	9,657433	2020-10-29T19:03:59:987
-0,382852	-0,646062	9,702895	2020-10-29T19:04:00:010
-0,351745	-0,646062	9,638289	2020-10-29T19:04:00:027
-0,339781	-0,626920	9,645468	2020-10-29T19:04:00:051
-0,267996	-0,622134	9,690931	2020-10-29T19:04:00:067
-0,315853	-0,636491	9,659825	2020-10-29T19:04:00:091
-0,332602	-0,646062	9,700503	2020-10-29T19:04:00:108
-0,342174	-0,595813	9,623933	2020-10-29T19:04:00:131
-0,320638	-0,686740	9,657433	2020-10-29T19:04:00:147
-0,361316	-0,665205	9,659825	2020-10-29T19:04:00:171
-0,378066	-0,696311	9,738789	2020-10-29T19:04:00:188
-0,277567	-0,763310	9,724431	2020-10-29T19:04:00:212
-0,351745	-0,638884	9,671788	2020-10-29T19:04:00:228
-0,282353	-0,655633	9,669396	2020-10-29T19:04:00:251
-0,339781	-0,669990	9,645468	2020-10-29T19:04:00:267
-0,334995	-0,617348	9,664611	2020-10-29T19:04:00:292
-0,349352	-0,698704	9,638289	2020-10-29T19:04:00:308
-0,296710	-0,626920	9,702895	2020-10-29T19:04:00:330
-0,330210	-0,679562	9,631111	2020-10-29T19:04:00:349
-0,411566	-0,502493	9,657433	2020-10-29T19:04:00:371
-0,267996	-0,744168	9,698111	2020-10-29T19:04:00:388
-0,320638	-0,693919	9,604790	2020-10-29T19:04:00:411
-0,313460	-0,658026	9,590433	2020-10-29T19:04:00:428
-0,358923	-0,595813	9,647861	2020-10-29T19:04:00:451
-0,299103	-0,686740	9,614362	2020-10-29T19:04:00:468
-0,366102	-0,827917	9,734003	2020-10-29T19:04:00:491
-0,308674	-0,681954	9,683753	2020-10-29T19:04:00:508
-0,361316	-0,686740	9,683753	2020-10-29T19:04:00:531
-0,282353	-0,662812	9,585647	2020-10-29T19:04:00:548
-0,399601	-0,765703	9,686146	2020-10-29T19:04:00:570
-0,289532	-0,813560	9,693325	2020-10-29T19:04:00:589
-0,318245	-0,684347	9,707682	2020-10-29T19:04:00:612
-0,334995	-0,691526	9,705289	2020-10-29T19:04:00:628
-0,351745	-0,849452	9,678967	2020-10-29T19:04:00:651
-0,246461	-0,796810	9,640682	2020-10-29T19:04:00:668
-0,253639	-0,772882	9,600004	2020-10-29T19:04:00:692
-0,346959	-0,619741	9,631111	2020-10-29T19:04:00:708
-0,327817	-0,729811	9,659825	2020-10-29T19:04:00:732
-0,334995	-0,765703	9,659825	2020-10-29T19:04:00:747
-0,334995	-0,744168	9,724431	2020-10-29T19:04:00:771
-0,299103	-0,691526	9,659825	2020-10-29T19:04:00:788
-0,358923	-0,655633	9,600004	2020-10-29T19:04:00:811
-0,334995	-0,753739	9,635897	2020-10-29T19:04:00:829
-0,313460	-0,775275	9,729217	2020-10-29T19:04:00:851
-0,332602	-0,674776	9,628718	2020-10-29T19:04:00:868
-0,296710	-0,760918	9,724431	2020-10-29T19:04:00:892
-0,394816	-0,713061	9,614362	2020-10-29T19:04:00:908
-0,366102	-0,746561	9,717253	2020-10-29T19:04:00:931
-0,354138	-0,708275	9,681360	2020-10-29T19:04:00:948
-0,272782	-0,717847	9,650253	2020-10-29T19:04:00:971
-0,351745	-0,665205	9,616754	2020-10-29T19:04:00:988
-0,332602	-0,717847	9,626326	2020-10-29T19:04:01:013
-0,339781	-0,744168	9,731609	2020-10-29T19:04:01:028
-0,361316	-0,756132	9,686146	2020-10-29T19:04:01:051
-0,354138	-0,703490	9,688539	2020-10-29T19:04:01:070
-0,294317	-0,856631	9,669396	2020-10-29T19:04:01:092
-0,311067	-0,756132	9,674182	2020-10-29T19:04:01:109
-0,301496	-0,734596	9,655040	2020-10-29T19:04:01:131
-0,311067	-0,756132	9,645468	2020-10-29T19:04:01:149
-0,311067	-0,703490	9,683753	2020-10-29T19:04:01:172
-0,342174	-0,760918	9,693325	2020-10-29T19:04:01:189
-0,356531	-0,758525	9,647861	2020-10-29T19:04:01:211
-0,332602	-0,806381	9,681360	2020-10-29T19:04:01:228
-0,263210	-0,677169	9,621540	2020-10-29T19:04:01:251
-0,296710	-0,784846	9,655040	2020-10-29T19:04:01:268
-0,373280	-0,789631	9,676575	2020-10-29T19:04:01:292
-0,296710	-0,705883	9,631111	2020-10-29T19:04:01:310
-0,287139	-0,677169	9,674182	2020-10-29T19:04:01:331
-0,373280	-0,693919	9,683753	2020-10-29T19:04:01:348
-0,349352	-0,681954	9,623933	2020-10-29T19:04:01:373
-0,260818	-0,681954	9,609575	2020-10-29T19:04:01:389
-0,325424	-0,701097	9,662218	2020-10-29T19:04:01:411
-0,339781	-0,684347	9,614362	2020-10-29T19:04:01:428
-0,404387	-0,741775	9,738789	2020-10-29T19:04:01:451
-0,363709	-0,715454	9,662218	2020-10-29T19:04:01:469
-0,256032	-0,713061	9,676575	2020-10-29T19:04:01:493
-0,368495	-0,741775	9,619147	2020-10-29T19:04:01:509
-0,303888	-0,782453	9,702895	2020-10-29T19:04:01:531
-0,294317	-0,674776	9,688539	2020-10-29T19:04:01:549
-0,279960	-0,696311	9,714860	2020-10-29T19:04:01:571
-0,311067	-0,760918	9,628718	2020-10-29T19:04:01:589
-0,373280	-0,715454	9,676575	2020-10-29T19:04:01:613
-0,251246	-0,775275	9,690931	2020-10-29T19:04:01:629
-0,315853	-0,758525	9,667004	2020-10-29T19:04:01:652
-0,356531	-0,739382	9,681360	2020-10-29T19:04:01:670
-0,366102	-0,686740	9,597611	2020-10-29T19:04:01:693
-0,375673	-0,794417	9,659825	2020-10-29T19:04:01:709
-0,351745	-0,696311	9,681360	2020-10-29T19:04:01:733
-0,354138	-0,753739	9,638289	2020-10-29T19:04:01:749
-0,370888	-0,693919	9,652647	2020-10-29T19:04:01:772
-0,327817	-0,732204	9,688539	2020-10-29T19:04:01:790
-0,323031	-0,744168	9,590433	2020-10-29T19:04:01:812
-0,337388	-0,792024	9,690931	2020-10-29T19:04:01:828
-0,334995	-0,698704	9,619147	2020-10-29T19:04:01:852
-0,308674	-0,746561	9,647861	2020-10-29T19:04:01:869
-0,351745	-0,763310	9,662218	2020-10-29T19:04:01:893
-0,399601	-0,801596	9,623933	2020-10-29T19:04:01:909
-0,354138	-0,648455	9,676575	2020-10-29T19:04:01:932
-0,351745	-0,634098	9,664611	2020-10-29T19:04:01:949
-0,358923	-0,686740	9,659825	2020-10-29T19:04:01:972
-0,368495	-0,859023	9,664611	2020-10-29T19:04:01:990
-0,346959	-0,763310	9,676575	2020-10-29T19:04:02:013
-0,263210	-0,775275	9,669396	2020-10-29T19:04:02:030
-0,392423	-0,777667	9,667004	2020-10-29T19:04:02:052
-0,380459	-0,631705	9,607183	2020-10-29T19:04:02:069
-0,358923	-0,655633	9,662218	2020-10-29T19:04:02:092
-0,306281	-0,748954	9,674182	2020-10-29T19:04:02:109
-0,337388	-0,744168	9,662218	2020-10-29T19:04:02:132
-0,337388	-0,638884	9,655040	2020-10-29T19:04:02:150
-0,291924	-0,775275	9,659825	2020-10-29T19:04:02:172
-0,387637	-0,780060	9,678967	2020-10-29T19:04:02:190
-0,356531	-0,758525	9,681360	2020-10-29T19:04:02:212
-0,337388	-0,729811	9,674182	2020-10-29T19:04:02:229
-0,361316	-0,691526	9,655040	2020-10-29T19:04:02:251
-0,363709	-0,667598	9,674182	2020-10-29T19:04:02:270
-0,366102	-0,780060	9,671788	2020-10-29T19:04:02:292
-0,306281	-0,751346	9,662218	2020-10-29T19:04:02:309
-0,370888	-0,684347	9,655040	2020-10-29T19:04:02:333
-0,299103	-0,701097	9,640682	2020-10-29T19:04:02:349
-0,334995	-0,634098	9,662218	2020-10-29T19:04:02:372
-0,351745	-0,703490	9,702895	2020-10-29T19:04:02:390
-0,315853	-0,753739	9,669396	2020-10-29T19:04:02:412
-0,440279	-0,725025	9,662218	2020-10-29T19:04:02:429
-0,406780	-0,775275	9,671788	2020-10-29T19:04:02:452
-0,346959	-0,672383	9,676575	2020-10-29T19:04:02:469
-0,409173	-0,746561	9,597611	2020-10-29T19:04:02:492
-0,363709	-0,815953	9,638289	2020-10-29T19:04:02:511
-0,416351	-0,777667	9,695717	2020-10-29T19:04:02:532
-0,306281	-0,677169	9,662218	2020-10-29T19:04:02:550
-0,390030	-0,732204	9,707682	2020-10-29T19:04:02:573
-0,351745	-0,717847	9,638289	2020-10-29T19:04:02:590
-0,361316	-0,701097	9,731609	2020-10-29T19:04:02:612
-0,246461	-0,739382	9,698111	2020-10-29T19:04:02:630
-0,397209	-0,698704	9,712467	2020-10-29T19:04:02:653
-0,342174	-0,756132	9,595219	2020-10-29T19:04:02:670
-0,421137	-0,815953	9,659825	2020-10-29T19:04:02:693
-0,385244	-0,782453	9,645468	2020-10-29T19:04:02:710
-0,423530	-0,720240	9,583255	2020-10-29T19:04:02:732
-0,346959	-0,727418	9,750752	2020-10-29T19:04:02:751
-0,296710	-0,681954	9,647861	2020-10-29T19:04:02:773
-0,378066	-0,787239	9,611969	2020-10-29T19:04:02:790
-0,327817	-0,736989	9,686146	2020-10-29T19:04:02:812
-0,320638	-0,715454	9,714860	2020-10-29T19:04:02:830
-0,433101	-0,760918	9,638289	2020-10-29T19:04:02:853
-0,387637	-0,768096	9,678967	2020-10-29T19:04:02:870
-0,294317	-0,672383	9,662218	2020-10-29T19:04:02:894
-0,349352	-0,715454	9,614362	2020-10-29T19:04:02:910
-0,332602	-0,600598	9,678967	2020-10-29T19:04:02:933
-0,320638	-0,753739	9,712467	2020-10-29T19:04:02:950
-0,370888	-0,756132	9,667004	2020-10-29T19:04:02:973
-0,373280	-0,722632	9,669396	2020-10-29T19:04:02:994
-0,409173	-0,698704	9,602397	2020-10-29T19:04:03:013
-0,375673	-0,765703	9,650253	2020-10-29T19:04:03:030
-0,392423	-0,722632	9,717253	2020-10-29T19:04:03:053
-0,318245	-0,710668	9,655040	2020-10-29T19:04:03:070
-0,325424	-0,746561	9,678967	2020-10-29T19:04:03:094
-0,354138	-0,741775	9,635897	2020-10-29T19:04:03:110
-0,323031	-0,641276	9,657433	2020-10-29T19:04:03:133
-0,332602	-0,715454	9,729217	2020-10-29T19:04:03:150
-0,368495	-0,698704	9,683753	2020-10-29T19:04:03:173
-0,330210	-0,665205	9,674182	2020-10-29T19:04:03:191
-0,387637	-0,794417	9,619147	2020-10-29T19:04:03:213
-0,406780	-0,777667	9,662218	2020-10-29T19:04:03:231
-0,373280	-0,758525	9,635897	2020-10-29T19:04:03:252
-0,330210	-0,708275	9,623933	2020-10-29T19:04:03:270
-0,373280	-0,729811	9,719646	2020-10-29T19:04:03:293
-0,392423	-0,813560	9,707682	2020-10-29T19:04:03:311
-0,349352	-0,708275	9,645468	2020-10-29T19:04:03:333
-0,430708	-0,760918	9,702895	2020-10-29T19:04:03:350
-0,425922	-0,693919	9,702895	2020-10-29T19:04:03:373
-0,363709	-0,741775	9,626326	2020-10-29T19:04:03:390
-0,349352	-0,799203	9,664611	2020-10-29T19:04:03:413
-0,337388	-0,820738	9,690931	2020-10-29T19:04:03:430
-0,363709	-0,753739	9,662218	2020-10-29T19:04:03:453
-0,289532	-0,703490	9,662218	2020-10-29T19:04:03:471
-0,425922	-0,646062	9,650253	2020-10-29T19:04:03:493
-0,366102	-0,894916	9,690931	2020-10-29T19:04:03:510
-0,356531	-0,729811	9,662218	2020-10-29T19:04:03:533
-0,418744	-0,794417	9,695717	2020-10-29T19:04:03:550
-0,423530	-0,679562	9,686146	2020-10-29T19:04:03:573
-0,390030	-0,708275	9,667004	2020-10-29T19:04:03:591
-0,339781	-0,799203	9,655040	2020-10-29T19:04:03:614
-0,320638	-0,717847	9,628718	2020-10-29T19:04:03:630
-0,339781	-0,734596	9,657433	2020-10-29T19:04:03:653
-0,404387	-0,720240	9,714860	2020-10-29T19:04:03:671
-0,387637	-0,837488	9,700503	2020-10-29T19:04:03:693
-0,375673	-0,751346	9,652647	2020-10-29T19:04:03:712
-0,339781	-0,763310	9,683753	2020-10-29T19:04:03:733
-0,327817	-0,734596	9,626326	2020-10-29T19:04:03:750
-0,385244	-0,796810	9,657433	2020-10-29T19:04:03:773
-0,284746	-0,725025	9,600004	2020-10-29T19:04:03:791
-0,337388	-0,705883	9,678967	2020-10-29T19:04:03:814
-0,380459	-0,727418	9,726824	2020-10-29T19:04:03:831
-0,363709	-0,736989	9,686146	2020-10-29T19:04:03:853
-0,387637	-0,775275	9,662218	2020-10-29T19:04:03:870
-0,327817	-0,748954	9,659825	2020-10-29T19:04:03:894
-0,385244	-0,715454	9,623933	2020-10-29T19:04:03:911
-0,361316	-0,780060	9,662218	2020-10-29T19:04:03:933
-0,373280	-0,775275	9,681360	2020-10-29T19:04:03:952
-0,401994	-0,799203	9,600004	2020-10-29T19:04:03:974
-0,366102	-0,744168	9,676575	2020-10-29T19:04:03:991
-0,368495	-0,806381	9,647861	2020-10-29T19:04:04:014
-0,289532	-0,741775	9,669396	2020-10-29T19:04:04:031
-0,361316	-0,780060	9,671788	2020-10-29T19:04:04:054
-0,409173	-0,780060	9,623933	2020-10-29T19:04:04:071
-0,337388	-0,813560	9,683753	2020-10-29T19:04:04:094
-0,358923	-0,684347	9,710074	2020-10-29T19:04:04:111
-0,392423	-0,734596	9,611969	2020-10-29T19:04:04:134
-0,323031	-0,751346	9,676575	2020-10-29T19:04:04:151
-0,404387	-0,729811	9,695717	2020-10-29T19:04:04:174
-0,332602	-0,722632	9,674182	2020-10-29T19:04:04:192
-0,358923	-0,777667	9,602397	2020-10-29T19:04:04:214
-0,394816	-0,713061	9,662218	2020-10-29T19:04:04:231
-0,346959	-0,787239	9,633504	2020-10-29T19:04:04:254
-0,375673	-0,758525	9,657433	2020-10-29T19:04:04:271
-0,289532	-0,765703	9,664611	2020-10-29T19:04:04:294
-0,390030	-0,780060	9,628718	2020-10-29T19:04:04:311
-0,418744	-0,741775	9,702895	2020-10-29T19:04:04:334
-0,373280	-0,643669	9,573684	2020-10-29T19:04:04:351
-0,366102	-0,813560	9,645468	2020-10-29T19:04:04:375
-0,358923	-0,705883	9,657433	2020-10-29T19:04:04:392
-0,411566	-0,787239	9,640682	2020-10-29T19:04:04:414
-0,334995	-0,806381	9,652647	2020-10-29T19:04:04:432
-0,311067	-0,689133	9,667004	2020-10-29T19:04:04:454
-0,406780	-0,734596	9,635897	2020-10-29T19:04:04:471
-0,334995	-0,801596	9,669396	2020-10-29T19:04:04:494
-0,387637	-0,827917	9,676575	2020-10-29T19:04:04:511
-0,413958	-0,736989	9,619147	2020-10-29T19:04:04:534
-0,327817	-0,715454	9,647861	2020-10-29T19:04:04:552
-0,382852	-0,734596	9,671788	2020-10-29T19:04:04:574
-0,370888	-0,803988	9,626326	2020-10-29T19:04:04:592
-0,375673	-0,725025	9,712467	2020-10-29T19:04:04:615
-0,387637	-0,803988	9,597611	2020-10-29T19:04:04:632
-0,351745	-0,794417	9,676575	2020-10-29T19:04:04:654
-0,306281	-0,751346	9,669396	2020-10-29T19:04:04:673
-0,344566	-0,751346	9,614362	2020-10-29T19:04:04:695
-0,334995	-0,734596	9,683753	2020-10-29T19:04:04:712
-0,334995	-0,789631	9,681360	2020-10-29T19:04:04:735
-0,323031	-0,722632	9,700503	2020-10-29T19:04:04:752
-0,342174	-0,660419	9,657433	2020-10-29T19:04:04:774
-0,332602	-0,808774	9,623933	2020-10-29T19:04:04:792
-0,325424	-0,808774	9,686146	2020-10-29T19:04:04:815
-0,337388	-0,765703	9,657433	2020-10-29T19:04:04:832
-0,258425	-0,806381	9,655040	2020-10-29T19:04:04:856
-0,387637	-0,815953	9,698111	2020-10-29T19:04:04:872
-0,332602	-0,815953	9,619147	2020-10-29T19:04:04:895
-0,349352	-0,787239	9,650253	2020-10-29T19:04:04:913
-0,327817	-0,732204	9,674182	2020-10-29T19:04:04:934
-0,421137	-0,806381	9,674182	2020-10-29T19:04:04:952
-0,311067	-0,856631	9,652647	2020-10-29T19:04:04:975
-0,392423	-0,744168	9,652647	2020-10-29T19:04:04:993
-0,390030	-0,684347	9,734003	2020-10-29T19:04:05:243
-0,267996	-0,784846	9,678967	2020-10-29T19:04:05:246
-0,325424	-0,746561	9,657433	2020-10-29T19:04:05:247
-0,397209	-0,772882	9,669396	2020-10-29T19:04:05:248
-0,296710	-0,770489	9,645468	2020-10-29T19:04:05:252
-0,382852	-0,823131	9,655040	2020-10-29T19:04:05:253
-0,270389	-0,787239	9,729217	2020-10-29T19:04:05:255
-0,368495	-0,801596	9,657433	2020-10-29T19:04:05:256
-0,337388	-0,859023	9,681360	2020-10-29T19:04:05:264
-0,308674	-0,763310	9,643075	2020-10-29T19:04:05:265
-0,346959	-0,696311	9,595219	2020-10-29T19:04:05:265
-0,308674	-0,904487	9,683753	2020-10-29T19:04:05:266
-0,370888	-0,803988	9,693325	2020-10-29T19:04:05:266
-0,318245	-0,763310	9,611969	2020-10-29T19:04:05:276
-0,337388	-0,753739	9,580862	2020-10-29T19:04:05:294
-0,342174	-0,832702	9,676575	2020-10-29T19:04:05:310
-0,409173	-0,835095	9,626326	2020-10-29T19:04:05:334
-0,368495	-0,679562	9,643075	2020-10-29T19:04:05:353
-0,380459	-0,803988	9,662218	2020-10-29T19:04:05:375
-0,425922	-0,825524	9,626326	2020-10-29T19:04:05:394
-0,258425	-0,787239	9,611969	2020-10-29T19:04:05:415
-0,354138	-0,770489	9,719646	2020-10-29T19:04:05:432
-0,373280	-0,720240	9,734003	2020-10-29T19:04:05:455
-0,334995	-0,837488	9,650253	2020-10-29T19:04:05:474
-0,315853	-0,717847	9,674182	2020-10-29T19:04:05:496
-0,315853	-0,698704	9,671788	2020-10-29T19:04:05:513
-0,358923	-0,794417	9,621540	2020-10-29T19:04:05:535
-0,382852	-0,847059	9,657433	2020-10-29T19:04:05:552
-0,294317	-0,734596	9,628718	2020-10-29T19:04:05:575
-0,361316	-0,756132	9,676575	2020-10-29T19:04:05:594
-0,287139	-0,772882	9,705289	2020-10-29T19:04:05:647
-0,301496	-0,815953	9,628718	2020-10-29T19:04:05:649
-0,397209	-0,758525	9,652647	2020-10-29T19:04:05:667
-0,306281	-0,837488	9,693325	2020-10-29T19:04:05:675
-0,337388	-0,698704	9,652647	2020-10-29T19:04:05:697
-0,363709	-0,753739	9,588040	2020-10-29T19:04:05:732
-0,354138	-0,756132	9,628718	2020-10-29T19:04:05:815
-0,318245	-0,763310	9,588040	2020-10-29T19:04:05:833
-0,406780	-0,736989	9,602397	2020-10-29T19:04:05:855
-0,289532	-0,789631	9,726824	2020-10-29T19:04:05:873
-0,346959	-0,782453	9,623933	2020-10-29T19:04:05:901
-0,270389	-0,701097	9,635897	2020-10-29T19:04:05:912
-0,337388	-0,736989	9,611969	2020-10-29T19:04:05:936
-0,303888	-0,830309	9,712467	2020-10-29T19:04:05:953
-0,356531	-0,866202	9,626326	2020-10-29T19:04:05:976
-0,349352	-0,803988	9,667004	2020-10-29T19:04:05:993
-0,344566	-0,792024	9,671788	2020-10-29T19:04:06:015
-0,325424	-0,825524	9,664611	2020-10-29T19:04:06:033
-0,318245	-0,847059	9,650253	2020-10-29T19:04:06:056
-0,380459	-0,698704	9,631111	2020-10-29T19:04:06:083
-0,320638	-0,839881	9,678967	2020-10-29T19:04:10:140
-0,418744	-0,839881	9,652647	2020-10-29T19:04:10:141
-0,334995	-0,878166	9,645468	2020-10-29T19:04:10:142
-0,409173	-0,830309	9,595219	2020-10-29T19:04:10:158
-0,375673	-0,820738	9,607183	2020-10-29T19:04:10:181
-0,358923	-0,808774	9,652647	2020-10-29T19:04:10:197
-0,373280	-0,904487	9,700503	2020-10-29T19:04:10:218
-0,354138	-0,849452	9,652647	2020-10-29T19:04:10:234
-0,244068	-0,815953	9,647861	2020-10-29T19:04:10:257
-0,308674	-0,923629	9,628718	2020-10-29T19:04:10:275
-0,294317	-0,949951	9,611969	2020-10-29T19:04:10:298
-0,375673	-0,811167	9,650253	2020-10-29T19:04:10:315
-0,301496	-0,844666	9,681360	2020-10-29T19:04:10:339
-0,351745	-0,904487	9,688539	2020-10-29T19:04:10:355
-0,397209	-0,835095	9,633504	2020-10-29T19:04:10:378
-0,342174	-0,959522	9,647861	2020-10-29T19:04:10:397
-0,318245	-0,911665	9,602397	2020-10-29T19:04:10:418
-0,380459	-0,825524	9,645468	2020-10-29T19:04:10:436
-0,323031	-0,870987	9,655040	2020-10-29T19:04:10:459
-0,397209	-0,808774	9,681360	2020-10-29T19:04:10:476
-0,332602	-0,942772	9,683753	2020-10-29T19:04:10:499
-0,282353	-0,873380	9,578469	2020-10-29T19:04:10:515
-0,320638	-0,851845	9,650253	2020-10-29T19:04:10:538
-0,346959	-0,890130	9,585647	2020-10-29T19:04:10:555
-0,308674	-0,904487	9,573684	2020-10-29T19:04:10:578
-0,318245	-0,835095	9,621540	2020-10-29T19:04:10:595
-0,418744	-0,844666	9,647861	2020-10-29T19:04:10:618
-0,320638	-0,830309	9,650253	2020-10-29T19:04:10:637
-0,339781	-0,911665	9,667004	2020-10-29T19:04:10:658
-0,344566	-0,806381	9,647861	2020-10-29T19:04:10:676
-0,287139	-0,882952	9,676575	2020-10-29T19:04:10:698
-0,397209	-0,818345	9,607183	2020-10-29T19:04:10:716
-0,411566	-0,916451	9,590433	2020-10-29T19:04:10:738
-0,318245	-0,839881	9,635897	2020-10-29T19:04:10:756
-0,387637	-0,854238	9,619147	2020-10-29T19:04:10:778
-0,370888	-0,873380	9,602397	2020-10-29T19:04:10:796
-0,397209	-0,870987	9,609575	2020-10-29T19:04:10:819
-0,311067	-0,899701	9,650253	2020-10-29T19:04:10:836
-0,354138	-0,861416	9,647861	2020-10-29T19:04:10:858
-0,373280	-0,854238	9,655040	2020-10-29T19:04:10:877
-0,366102	-0,856631	9,595219	2020-10-29T19:04:10:898
-0,375673	-0,868595	9,616754	2020-10-29T19:04:10:916
-0,296710	-0,880559	9,623933	2020-10-29T19:04:10:939
-0,358923	-0,854238	9,590433	2020-10-29T19:04:10:956
-0,315853	-0,890130	9,609575	2020-10-29T19:04:10:978
-0,368495	-0,851845	9,678967	2020-10-29T19:04:10:996
-0,301496	-0,894916	9,657433	2020-10-29T19:04:11:019
-0,334995	-0,885344	9,664611	2020-10-29T19:04:11:036
-0,375673	-0,784846	9,595219	2020-10-29T19:04:11:059
-0,351745	-0,842274	9,638289	2020-10-29T19:04:11:076
-0,332602	-0,873380	9,635897	2020-10-29T19:04:11:098
-0,318245	-0,870987	9,705289	2020-10-29T19:04:11:117
-0,363709	-0,830309	9,607183	2020-10-29T19:04:11:139
-0,358923	-0,873380	9,667004	2020-10-29T19:04:11:156
-0,291924	-0,832702	9,676575	2020-10-29T19:04:11:179
-0,397209	-0,835095	9,640682	2020-10-29T19:04:11:196
-0,370888	-0,957129	9,640682	2020-10-29T19:04:11:220
-0,311067	-0,851845	9,602397	2020-10-29T19:04:11:237
-0,279960	-0,952343	9,669396	2020-10-29T19:04:11:259
-0,404387	-0,885344	9,568897	2020-10-29T19:04:11:276
-0,342174	-0,811167	9,667004	2020-10-29T19:04:11:300
-0,342174	-0,856631	9,578469	2020-10-29T19:04:11:316
-0,279960	-0,937986	9,602397	2020-10-29T19:04:11:339
-0,394816	-0,844666	9,647861	2020-10-29T19:04:11:357
-0,294317	-0,873380	9,578469	2020-10-29T19:04:11:380
-0,375673	-0,775275	9,674182	2020-10-29T19:04:11:396
-0,325424	-0,808774	9,609575	2020-10-29T19:04:11:419
-0,323031	-0,837488	9,652647	2020-10-29T19:04:11:438
-0,318245	-0,894916	9,619147	2020-10-29T19:04:11:460
-0,387637	-0,897308	9,623933	2020-10-29T19:04:11:478
-0,296710	-0,789631	9,650253	2020-10-29T19:04:11:499
-0,327817	-0,957129	9,695717	2020-10-29T19:04:11:517
-0,356531	-0,847059	9,681360	2020-10-29T19:04:11:539
-0,344566	-0,868595	9,631111	2020-10-29T19:04:11:557
-0,308674	-0,806381	9,600004	2020-10-29T19:04:11:579
-0,351745	-0,808774	9,674182	2020-10-29T19:04:11:599
-0,339781	-0,873380	9,652647	2020-10-29T19:04:11:619
-0,392423	-0,863809	9,659825	2020-10-29T19:04:11:637
-0,356531	-0,892523	9,635897	2020-10-29T19:04:11:659
-0,301496	-0,894916	9,655040	2020-10-29T19:04:11:678
-0,375673	-0,890130	9,686146	2020-10-29T19:04:11:699
-0,337388	-0,808774	9,655040	2020-10-29T19:04:11:717
-0,401994	-0,947558	9,722038	2020-10-29T19:04:11:741
-0,368495	-0,873380	9,619147	2020-10-29T19:04:11:757
-0,346959	-0,820738	9,588040	2020-10-29T19:04:11:779
-0,308674	-0,825524	9,588040	2020-10-29T19:04:11:797
-0,327817	-0,887737	9,674182	2020-10-29T19:04:11:819
-0,394816	-0,789631	9,652647	2020-10-29T19:04:11:838
-0,284746	-0,811167	9,710074	2020-10-29T19:04:11:859
-0,370888	-0,782453	9,652647	2020-10-29T19:04:11:877
-0,375673	-0,894916	9,638289	2020-10-29T19:04:11:899
-0,323031	-0,813560	9,667004	2020-10-29T19:04:11:917
-0,356531	-0,768096	9,647861	2020-10-29T19:04:11:941
-0,325424	-0,782453	9,611969	2020-10-29T19:04:11:957
-0,337388	-0,892523	9,674182	2020-10-29T19:04:11:980
-0,406780	-0,803988	9,614362	2020-10-29T19:04:11:997
-0,330210	-0,799203	9,623933	2020-10-29T19:04:12:020
-0,351745	-0,859023	9,688539	2020-10-29T19:04:12:037
-0,339781	-0,921237	9,597611	2020-10-29T19:04:12:060
-0,370888	-0,887737	9,652647	2020-10-29T19:04:12:078
-0,392423	-0,789631	9,631111	2020-10-29T19:04:12:099
-0,346959	-0,847059	9,724431	2020-10-29T19:04:12:117
-0,387637	-0,863809	9,657433	2020-10-29T19:04:12:141
-0,287139	-0,813560	9,611969	2020-10-29T19:04:12:157
-0,337388	-0,899701	9,657433	2020-10-29T19:04:12:180
-0,378066	-0,827917	9,619147	2020-10-29T19:04:12:197
-0,330210	-0,873380	9,633504	2020-10-29T19:04:12:220
-0,308674	-0,842274	9,638289	2020-10-29T19:04:12:237
-0,354138	-0,866202	9,631111	2020-10-29T19:04:12:259
-0,320638	-0,854238	9,678967	2020-10-29T19:04:12:277
-0,366102	-0,880559	9,640682	2020-10-29T19:04:12:300
-0,368495	-0,751346	9,592826	2020-10-29T19:04:12:318
-0,370888	-0,823131	9,667004	2020-10-29T19:04:12:340
-0,366102	-0,875773	9,585647	2020-10-29T19:04:12:357
-0,349352	-0,926022	9,652647	2020-10-29T19:04:12:381
-0,320638	-0,768096	9,643075	2020-10-29T19:04:12:397
-0,263210	-0,835095	9,638289	2020-10-29T19:04:12:419
-0,334995	-0,803988	9,674182	2020-10-29T19:04:12:438
-0,325424	-0,784846	9,676575	2020-10-29T19:04:12:460
-0,380459	-0,813560	9,583255	2020-10-29T19:04:12:477
-0,327817	-0,866202	9,700503	2020-10-29T19:04:12:500
-0,375673	-0,863809	9,631111	2020-10-29T19:04:12:518
-0,375673	-0,818345	9,628718	2020-10-29T19:04:12:541
-0,346959	-0,775275	9,626326	2020-10-29T19:04:12:559
-0,368495	-0,765703	9,640682	2020-10-29T19:04:12:580
-0,323031	-0,861416	9,638289	2020-10-29T19:04:12:597
-0,351745	-0,792024	9,667004	2020-10-29T19:04:12:620
-0,351745	-0,866202	9,683753	2020-10-29T19:04:12:638
-0,380459	-0,787239	9,621540	2020-10-29T19:04:12:660
-0,375673	-0,859023	9,638289	2020-10-29T19:04:12:678
-0,390030	-0,863809	9,655040	2020-10-29T19:04:12:700
-0,323031	-0,827917	9,688539	2020-10-29T19:04:12:717
-0,315853	-0,739382	9,717253	2020-10-29T19:04:12:741
-0,399601	-0,875773	9,643075	2020-10-29T19:04:12:757
-0,387637	-0,806381	9,643075	2020-10-29T19:04:12:780
-0,337388	-0,799203	9,664611	2020-10-29T19:04:12:799
-0,382852	-0,820738	9,623933	2020-10-29T19:04:12:820
-0,375673	-0,789631	9,626326	2020-10-29T19:04:12:838
-0,442672	-0,789631	9,688539	2020-10-29T19:04:12:861
-0,354138	-0,789631	9,633504	2020-10-29T19:04:12:878
-0,387637	-0,842274	9,619147	2020-10-29T19:04:12:900
-0,411566	-0,847059	9,712467	2020-10-29T19:04:12:918
-0,445065	-0,832702	9,602397	2020-10-29T19:04:12:941
-0,378066	-0,916451	9,631111	2020-10-29T19:04:12:957
-0,366102	-0,839881	9,688539	2020-10-29T19:04:12:981
-0,375673	-0,873380	9,674182	2020-10-29T19:04:12:998
-0,406780	-0,744168	9,590433	2020-10-29T19:04:13:020
-0,337388	-0,811167	9,669396	2020-10-29T19:04:13:039
-0,308674	-0,815953	9,717253	2020-10-29T19:04:13:060
-0,392423	-0,808774	9,700503	2020-10-29T19:04:13:078
-0,401994	-0,775275	9,657433	2020-10-29T19:04:13:101
-0,327817	-0,713061	9,643075	2020-10-29T19:04:13:119
-0,423530	-0,914058	9,655040	2020-10-29T19:04:13:141
-0,368495	-0,861416	9,657433	2020-10-29T19:04:13:158
-0,330210	-0,770489	9,635897	2020-10-29T19:04:13:181
-0,404387	-0,806381	9,650253	2020-10-29T19:04:13:198
-0,378066	-0,866202	9,604790	2020-10-29T19:04:13:221
-0,294317	-0,887737	9,669396	2020-10-29T19:04:13:238
-0,323031	-0,861416	9,650253	2020-10-29T19:04:13:260
-0,397209	-0,753739	9,657433	2020-10-29T19:04:13:279
-0,323031	-0,813560	9,734003	2020-10-29T19:04:13:300
-0,318245	-0,844666	9,602397	2020-10-29T19:04:13:318
-0,311067	-0,832702	9,669396	2020-10-29T19:04:13:341
-0,366102	-0,801596	9,621540	2020-10-29T19:04:13:358
-0,354138	-0,777667	9,652647	2020-10-29T19:04:13:381
-0,416351	-0,806381	9,674182	2020-10-29T19:04:13:398
-0,380459	-0,861416	9,724431	2020-10-29T19:04:13:421
-0,354138	-0,859023	9,640682	2020-10-29T19:04:13:438
-0,339781	-0,722632	9,628718	2020-10-29T19:04:13:461
-0,375673	-0,770489	9,619147	2020-10-29T19:04:13:478
-0,435494	-0,875773	9,635897	2020-10-29T19:04:13:501
-0,330210	-0,715454	9,611969	2020-10-29T19:04:13:520
-0,315853	-0,796810	9,674182	2020-10-29T19:04:13:541
-0,394816	-0,827917	9,621540	2020-10-29T19:04:13:558
-0,404387	-0,768096	9,576077	2020-10-29T19:04:13:581
-0,387637	-0,744168	9,611969	2020-10-29T19:04:13:598
-0,368495	-0,832702	9,705289	2020-10-29T19:04:13:620
-0,332602	-0,830309	9,616754	2020-10-29T19:04:13:639
-0,373280	-0,803988	9,643075	2020-10-29T19:04:13:661
-0,370888	-0,722632	9,700503	2020-10-29T19:04:13:678
-0,327817	-0,837488	9,657433	2020-10-29T19:04:13:701
-0,313460	-0,770489	9,645468	2020-10-29T19:04:13:718
-0,392423	-0,827917	9,647861	2020-10-29T19:04:13:741
-0,409173	-0,765703	9,623933	2020-10-29T19:04:13:760
-0,356531	-0,875773	9,655040	2020-10-29T19:04:13:781
-0,354138	-0,820738	9,592826	2020-10-29T19:04:13:798
-0,404387	-0,746561	9,652647	2020-10-29T19:04:13:822
-0,373280	-0,835095	9,724431	2020-10-29T19:04:13:839
-0,437887	-0,832702	9,726824	2020-10-29T19:04:13:861
-0,313460	-0,744168	9,638289	2020-10-29T19:04:13:879
-0,351745	-0,741775	9,592826	2020-10-29T19:04:13:901
-0,358923	-0,957129	9,645468	2020-10-29T19:04:13:919
-0,404387	-0,789631	9,633504	2020-10-29T19:04:13:942
-0,342174	-0,736989	9,626326	2020-10-29T19:04:13:959
-0,342174	-0,847059	9,626326	2020-10-29T19:04:13:981
-0,356531	-0,899701	9,683753	2020-10-29T19:04:14:000
-0,387637	-0,815953	9,707682	2020-10-29T19:04:14:021
-0,342174	-0,882952	9,640682	2020-10-29T19:04:14:039
-0,375673	-0,854238	9,607183	2020-10-29T19:04:14:062
-0,370888	-0,794417	9,693325	2020-10-29T19:04:14:079
-0,370888	-0,859023	9,667004	2020-10-29T19:04:14:101
-0,404387	-0,928415	9,700503	2020-10-29T19:04:14:119
-0,320638	-0,835095	9,652647	2020-10-29T19:04:14:142
-0,337388	-0,741775	9,683753	2020-10-29T19:04:14:159
-0,354138	-0,830309	9,698111	2020-10-29T19:04:14:181
-0,421137	-0,823131	9,635897	2020-10-29T19:04:14:199
-0,425922	-0,849452	9,626326	2020-10-29T19:04:14:221
-0,330210	-0,701097	9,686146	2020-10-29T19:04:14:240
-0,370888	-0,713061	9,669396	2020-10-29T19:04:14:261
-0,337388	-0,887737	9,674182	2020-10-29T19:04:14:279
-0,320638	-0,799203	9,616754	2020-10-29T19:04:14:301
-0,385244	-0,863809	9,640682	2020-10-29T19:04:14:319
-0,418744	-0,842274	9,676575	2020-10-29T19:04:14:343
-0,332602	-0,849452	9,702895	2020-10-29T19:04:14:359
-0,315853	-0,806381	9,626326	2020-10-29T19:04:14:382
-0,354138	-0,859023	9,667004	2020-10-29T19:04:14:399
-0,392423	-0,813560	9,576077	2020-10-29T19:04:14:421
-0,378066	-0,837488	9,645468	2020-10-29T19:04:14:440
-0,354138	-0,782453	9,638289	2020-10-29T19:04:14:462
-0,342174	-0,885344	9,635897	2020-10-29T19:04:14:480
-0,370888	-0,789631	9,616754	2020-10-29T19:04:14:502
-0,423530	-0,792024	9,693325	2020-10-29T19:04:14:519
-0,423530	-0,784846	9,693325	2020-10-29T19:04:14:542
-0,356531	-0,830309	9,626326	2020-10-29T19:04:14:559
-0,325424	-0,799203	9,659825	2020-10-29T19:04:14:582
-0,452243	-0,870987	9,643075	2020-10-29T19:04:14:600
-0,330210	-0,801596	9,621540	2020-10-29T19:04:14:623
-0,385244	-0,794417	9,655040	2020-10-29T19:04:14:640
-0,323031	-0,777667	9,647861	2020-10-29T19:04:14:662
-0,306281	-0,823131	9,614362	2020-10-29T19:04:14:680
-0,418744	-0,878166	9,700503	2020-10-29T19:04:14:702
-0,409173	-0,770489	9,623933	2020-10-29T19:04:14:720
-0,313460	-0,815953	9,621540	2020-10-29T19:04:14:743
-0,356531	-0,830309	9,690931	2020-10-29T19:04:14:760
-0,349352	-0,739382	9,619147	2020-10-29T19:04:14:783
-0,385244	-0,792024	9,633504	2020-10-29T19:04:14:800
-0,346959	-0,801596	9,626326	2020-10-29T19:04:14:823
-0,413958	-0,744168	9,640682	2020-10-29T19:04:14:840
-0,392423	-0,863809	9,678967	2020-10-29T19:04:14:863
-0,394816	-0,784846	9,619147	2020-10-29T19:04:14:879
-0,330210	-0,796810	9,676575	2020-10-29T19:04:14:903
-0,344566	-0,794417	9,688539	2020-10-29T19:04:14:920
-0,373280	-0,777667	9,621540	2020-10-29T19:04:14:943
-0,363709	-0,794417	9,690931	2020-10-29T19:04:14:961
-0,382852	-0,823131	9,623933	2020-10-29T19:04:14:984
-0,358923	-0,811167	9,650253	2020-10-29T19:04:15:000
-0,330210	-0,806381	9,676575	2020-10-29T19:04:15:023
-0,349352	-0,861416	9,707682	2020-10-29T19:04:15:040
-0,390030	-0,784846	9,647861	2020-10-29T19:04:15:063
-0,361316	-0,830309	9,667004	2020-10-29T19:04:15:080
-0,404387	-0,825524	9,667004	2020-10-29T19:04:15:102
-0,342174	-0,777667	9,655040	2020-10-29T19:04:15:120
-0,387637	-0,830309	9,609575	2020-10-29T19:04:15:144
-0,332602	-0,827917	9,700503	2020-10-29T19:04:15:160
-0,363709	-0,849452	9,662218	2020-10-29T19:04:15:182
-0,323031	-0,837488	9,655040	2020-10-29T19:04:15:201
-0,346959	-0,830309	9,650253	2020-10-29T19:04:15:224
-0,339781	-0,835095	9,626326	2020-10-29T19:04:15:240
-0,404387	-0,765703	9,681360	2020-10-29T19:04:15:263
-0,378066	-0,772882	9,609575	2020-10-29T19:04:15:280
-0,382852	-0,839881	9,712467	2020-10-29T19:04:15:304
-0,409173	-0,811167	9,643075	2020-10-29T19:04:15:320
-0,299103	-0,875773	9,607183	2020-10-29T19:04:15:343
-0,346959	-0,820738	9,616754	2020-10-29T19:04:15:360
-0,366102	-0,813560	9,626326	2020-10-29T19:04:15:385
-0,380459	-0,892523	9,597611	2020-10-29T19:04:15:400
-0,344566	-0,851845	9,635897	2020-10-29T19:04:15:423
-0,356531	-0,863809	9,693325	2020-10-29T19:04:15:441
-0,445065	-0,830309	9,671788	2020-10-29T19:04:15:464
-0,323031	-0,899701	9,645468	2020-10-29T19:04:15:480
-0,370888	-0,866202	9,628718	2020-10-29T19:04:15:504
-0,325424	-0,940379	9,693325	2020-10-29T19:04:15:520
-0,361316	-0,978664	9,695717	2020-10-29T19:04:15:544
-0,330210	-0,894916	9,674182	2020-10-29T19:04:15:560
-0,289532	-0,942772	9,688539	2020-10-29T19:04:15:583
-0,346959	-0,921237	9,707682	2020-10-29T19:04:15:601
-0,375673	-0,813560	9,678967	2020-10-29T19:04:15:624
-0,382852	-0,827917	9,664611	2020-10-29T19:04:15:641
-0,320638	-0,796810	9,659825	2020-10-29T19:04:15:663
-0,373280	-0,892523	9,693325	2020-10-29T19:04:15:681
-0,258425	-0,909273	9,614362	2020-10-29T19:04:15:704
-0,354138	-0,882952	9,645468	2020-10-29T19:04:15:720
-0,378066	-0,768096	9,676575	2020-10-29T19:04:15:743
-0,387637	-0,847059	9,669396	2020-10-29T19:04:15:761
-0,370888	-0,878166	9,638289	2020-10-29T19:04:15:785
-0,370888	-0,856631	9,645468	2020-10-29T19:04:15:801
-0,397209	-0,882952	9,707682	2020-10-29T19:04:15:823
-0,346959	-0,887737	9,676575	2020-10-29T19:04:15:841
-0,409173	-0,854238	9,671788	2020-10-29T19:04:15:864
-0,380459	-0,947558	9,640682	2020-10-29T19:04:15:881
-0,270389	-0,837488	9,609575	2020-10-29T19:04:15:904
-0,323031	-0,964308	9,681360	2020-10-29T19:04:15:921
-0,373280	-0,949951	9,614362	2020-10-29T19:04:15:945
-0,394816	-0,842274	9,621540	2020-10-29T19:04:15:961
-0,296710	-0,803988	9,671788	2020-10-29T19:04:15:984
-0,387637	-0,988236	9,671788	2020-10-29T19:04:16:001
-0,315853	-0,823131	9,647861	2020-10-29T19:04:16:024
-0,351745	-0,815953	9,635897	2020-10-29T19:04:16:041
-0,339781	-0,902094	9,671788	2020-10-29T19:04:16:063
-0,299103	-0,954736	9,662218	2020-10-29T19:04:16:081
-0,344566	-0,904487	9,631111	2020-10-29T19:04:16:104
-0,284746	-0,899701	9,678967	2020-10-29T19:04:16:121
-0,315853	-0,880559	9,600004	2020-10-29T19:04:16:144
-0,373280	-0,849452	9,614362	2020-10-29T19:04:16:162
-0,368495	-0,906880	9,683753	2020-10-29T19:04:16:185
-0,337388	-0,933201	9,657433	2020-10-29T19:04:16:201
-0,306281	-0,897308	9,678967	2020-10-29T19:04:16:223
-0,323031	-0,751346	9,604790	2020-10-29T19:04:16:241
-0,356531	-0,832702	9,700503	2020-10-29T19:04:16:265
-0,299103	-0,870987	9,633504	2020-10-29T19:04:16:281
-0,342174	-1,036092	9,659825	2020-10-29T19:04:16:303
-0,361316	-0,885344	9,664611	2020-10-29T19:04:16:321
-0,394816	-0,897308	9,643075	2020-10-29T19:04:16:346
-0,330210	-0,892523	9,635897	2020-10-29T19:04:16:361
-0,401994	-0,954736	9,655040	2020-10-29T19:04:16:385
-0,291924	-0,937986	9,626326	2020-10-29T19:04:16:402
-0,315853	-0,849452	9,652647	2020-10-29T19:04:16:425
-0,318245	-0,914058	9,619147	2020-10-29T19:04:16:441
-0,320638	-0,954736	9,650253	2020-10-29T19:04:16:464
-0,404387	-0,933201	9,681360	2020-10-29T19:04:16:482
-0,346959	-0,823131	9,676575	2020-10-29T19:04:16:506
-0,306281	-0,897308	9,681360	2020-10-29T19:04:16:521
-0,344566	-0,990629	9,619147	2020-10-29T19:04:16:554
-0,392423	-0,918844	9,633504	2020-10-29T19:04:16:563
-0,323031	-1,019342	9,647861	2020-10-29T19:04:16:586
-0,363709	-0,923629	9,580862	2020-10-29T19:04:16:601
-0,349352	-0,878166	9,607183	2020-10-29T19:04:16:624
-0,284746	-1,019342	9,671788	2020-10-29T19:04:16:643
-0,344566	-0,923629	9,664611	2020-10-29T19:04:16:665
-0,413958	-0,856631	9,623933	2020-10-29T19:04:16:682
-0,337388	-0,914058	9,681360	2020-10-29T19:04:16:704
-0,370888	-0,945165	9,643075	2020-10-29T19:04:16:721
-0,356531	-0,933201	9,676575	2020-10-29T19:04:16:747
-0,330210	-0,811167	9,614362	2020-10-29T19:04:16:762
-0,385244	-0,954736	9,669396	2020-10-29T19:04:16:785
-0,356531	-0,981057	9,607183	2020-10-29T19:04:16:801
-0,330210	-0,981057	9,635897	2020-10-29T19:04:16:826
-0,361316	-0,854238	9,688539	2020-10-29T19:04:16:841
-0,363709	-0,952343	9,631111	2020-10-29T19:04:16:864
-0,387637	-0,945165	9,652647	2020-10-29T19:04:16:884
-0,354138	-0,940379	9,633504	2020-10-29T19:04:16:905
-0,361316	-0,928415	9,683753	2020-10-29T19:04:16:921
-0,325424	-0,971486	9,650253	2020-10-29T19:04:16:945
-0,399601	-0,933201	9,671788	2020-10-29T19:04:16:962
-0,303888	-0,947558	9,638289	2020-10-29T19:04:16:986
-0,313460	-0,863809	9,607183	2020-10-29T19:04:17:002
-0,327817	-0,935594	9,655040	2020-10-29T19:04:17:024
-0,385244	-0,952343	9,645468	2020-10-29T19:04:17:042
-0,299103	-0,942772	9,628718	2020-10-29T19:04:17:065
-0,275175	-0,993021	9,655040	2020-10-29T19:04:17:082
-0,370888	-0,993021	9,676575	2020-10-29T19:04:17:104
-0,272782	-0,897308	9,643075	2020-10-29T19:04:17:123
-0,437887	-0,926022	9,623933	2020-10-29T19:04:17:146
-0,332602	-1,057628	9,719646	2020-10-29T19:04:17:162
-0,332602	-0,961915	9,714860	2020-10-29T19:04:17:185
-0,363709	-0,894916	9,724431	2020-10-29T19:04:17:202
-0,306281	-0,894916	9,638289	2020-10-29T19:04:17:228
-0,378066	-0,906880	9,635897	2020-10-29T19:04:17:242
-0,318245	-0,897308	9,631111	2020-10-29T19:04:17:264
-0,294317	-0,918844	9,643075	2020-10-29T19:04:17:282
-0,378066	-1,016950	9,710074	2020-10-29T19:04:17:305
-0,320638	-0,926022	9,626326	2020-10-29T19:04:17:322
-0,318245	-0,844666	9,611969	2020-10-29T19:04:17:345
-0,382852	-0,937986	9,690931	2020-10-29T19:04:17:363
-0,291924	-0,909273	9,619147	2020-10-29T19:04:17:387
-0,339781	-0,961915	9,705289	2020-10-29T19:04:17:402
-0,363709	-0,940379	9,635897	2020-10-29T19:04:17:425
-0,337388	-0,959522	9,678967	2020-10-29T19:04:17:443
-0,325424	-0,916451	9,638289	2020-10-29T19:04:17:465
-0,344566	-0,906880	9,664611	2020-10-29T19:04:17:484
-0,380459	-0,899701	9,683753	2020-10-29T19:04:17:505
-0,303888	-0,878166	9,650253	2020-10-29T19:04:17:522
-0,308674	-0,870987	9,616754	2020-10-29T19:04:17:546
-0,323031	-0,894916	9,647861	2020-10-29T19:04:17:562
-0,366102	-0,976272	9,669396	2020-10-29T19:04:17:585
-0,318245	-1,019342	9,695717	2020-10-29T19:04:17:603
-0,361316	-0,873380	9,626326	2020-10-29T19:04:17:625
-0,313460	-0,928415	9,611969	2020-10-29T19:04:17:643
-0,349352	-0,964308	9,652647	2020-10-29T19:04:17:665
-0,337388	-0,981057	9,678967	2020-10-29T19:04:17:683
-0,411566	-0,993021	9,667004	2020-10-29T19:04:17:706
-0,311067	-0,952343	9,686146	2020-10-29T19:04:17:723
-0,392423	-0,966700	9,647861	2020-10-29T19:04:17:746
-0,346959	-0,904487	9,659825	2020-10-29T19:04:17:762
-0,413958	-1,026521	9,731609	2020-10-29T19:04:17:786
-0,378066	-0,993021	9,647861	2020-10-29T19:04:17:803
-0,299103	-0,906880	9,595219	2020-10-29T19:04:17:825
-0,363709	-0,921237	9,669396	2020-10-29T19:04:17:844
-0,294317	-0,894916	9,657433	2020-10-29T19:04:17:866
-0,370888	-0,859023	9,633504	2020-10-29T19:04:17:883
-0,346959	-0,921237	9,662218	2020-10-29T19:04:17:907
-0,301496	-0,926022	9,635897	2020-10-29T19:04:17:923
-0,334995	-0,928415	9,652647	2020-10-29T19:04:17:946
-0,368495	-0,878166	9,633504	2020-10-29T19:04:17:963
-0,406780	-0,923629	9,643075	2020-10-29T19:04:17:986
-0,339781	-0,964308	9,590433	2020-10-29T19:04:18:002
-0,339781	-0,952343	9,659825	2020-10-29T19:04:18:026
-0,284746	-0,933201	9,635897	2020-10-29T19:04:18:043
-0,342174	-0,926022	9,652647	2020-10-29T19:04:18:065
-0,416351	-0,892523	9,678967	2020-10-29T19:04:18:084
-0,294317	-0,887737	9,681360	2020-10-29T19:04:18:106
-0,334995	-0,918844	9,662218	2020-10-29T19:04:18:123
-0,318245	-0,966700	9,600004	2020-10-29T19:04:18:146
-0,390030	-0,902094	9,631111	2020-10-29T19:04:18:163
-0,378066	-0,930808	9,655040	2020-10-29T19:04:18:186
-0,346959	-0,868595	9,664611	2020-10-29T19:04:18:203
-0,368495	-1,009771	9,633504	2020-10-29T19:04:18:225
-0,330210	-0,894916	9,647861	2020-10-29T19:04:18:244
-0,334995	-0,966700	9,671788	2020-10-29T19:04:18:266
-0,370888	-0,957129	9,580862	2020-10-29T19:04:18:283
-0,332602	-0,870987	9,674182	2020-10-29T19:04:18:306
-0,327817	-0,945165	9,655040	2020-10-29T19:04:18:324
-0,346959	-1,076770	9,597611	2020-10-29T19:04:18:347
-0,334995	-0,952343	9,638289	2020-10-29T19:04:18:363
-0,346959	-0,870987	9,698111	2020-10-29T19:04:18:386
-0,430708	-0,954736	9,662218	2020-10-29T19:04:18:403
-0,342174	-0,873380	9,580862	2020-10-29T19:04:18:427
-0,349352	-0,947558	9,600004	2020-10-29T19:04:18:444
-0,315853	-0,926022	9,597611	2020-10-29T19:04:18:467
-0,346959	-0,863809	9,652647	2020-10-29T19:04:18:483
-0,361316	-0,928415	9,635897	2020-10-29T19:04:18:506
-0,236889	-0,902094	9,698111	2020-10-29T19:04:18:527
-0,344566	-0,923629	9,678967	2020-10-29T19:04:18:547
-0,337388	-0,964308	9,650253	2020-10-29T19:04:18:564
-0,289532	-0,976272	9,643075	2020-10-29T19:04:18:587
-0,399601	-0,954736	9,662218	2020-10-29T19:04:18:603
-0,370888	-0,964308	9,647861	2020-10-29T19:04:18:626
-0,361316	-0,971486	9,616754	2020-10-29T19:04:18:644
-0,380459	-0,918844	9,722038	2020-10-29T19:04:18:666
-0,325424	-0,959522	9,655040	2020-10-29T19:04:18:684
-0,320638	-0,990629	9,580862	2020-10-29T19:04:18:706
-0,332602	-0,961915	9,659825	2020-10-29T19:04:18:723
-0,232104	-1,009771	9,686146	2020-10-29T19:04:18:748
-0,318245	-0,887737	9,674182	2020-10-29T19:04:18:763
-0,258425	-0,911665	9,628718	2020-10-29T19:04:18:786
-0,339781	-0,882952	9,647861	2020-10-29T19:04:18:805
-0,397209	-0,940379	9,657433	2020-10-29T19:04:18:827
-0,294317	-0,966700	9,635897	2020-10-29T19:04:18:844
-0,349352	-0,830309	9,616754	2020-10-29T19:04:18:866
-0,401994	-0,945165	9,631111	2020-10-29T19:04:18:884
-0,323031	-0,906880	9,714860	2020-10-29T19:04:18:907
-0,366102	-1,000200	9,614362	2020-10-29T19:04:18:924
-0,284746	-0,918844	9,590433	2020-10-29T19:04:18:947
-0,311067	-0,806381	9,664611	2020-10-29T19:04:18:963
-0,344566	-0,981057	9,628718	2020-10-29T19:04:18:989
-0,289532	-0,976272	9,623933	2020-10-29T19:04:19:004
-0,363709	-0,887737	9,657433	2020-10-29T19:04:19:026
-0,375673	-0,921237	9,719646	2020-10-29T19:04:19:045
-0,413958	-0,995414	9,633504	2020-10-29T19:04:19:067
-0,327817	-0,825524	9,669396	2020-10-29T19:04:19:084
-0,351745	-0,918844	9,590433	2020-10-29T19:04:19:106
-0,311067	-0,861416	9,643075	2020-10-29T19:04:19:124
-0,390030	-0,803988	9,650253	2020-10-29T19:04:19:149
-0,351745	-0,911665	9,638289	2020-10-29T19:04:19:164
-0,346959	-0,928415	9,662218	2020-10-29T19:04:19:187
-0,401994	-0,859023	9,652647	2020-10-29T19:04:19:204
-0,287139	-0,870987	9,690931	2020-10-29T19:04:19:228
-0,344566	-0,945165	9,645468	2020-10-29T19:04:19:245
-0,361316	-0,961915	9,635897	2020-10-29T19:04:19:266
-0,363709	-0,885344	9,549755	2020-10-29T19:04:19:285
-0,390030	-0,969093	9,616754	2020-10-29T19:04:19:308
-0,318245	-0,894916	9,645468	2020-10-29T19:04:19:324
-0,303888	-0,971486	9,619147	2020-10-29T19:04:19:347
-0,327817	-0,971486	9,683753	2020-10-29T19:04:19:364
-0,339781	-0,926022	9,595219	2020-10-29T19:04:19:388
-0,315853	-0,859023	9,688539	2020-10-29T19:04:19:404
-0,327817	-0,940379	9,645468	2020-10-29T19:04:19:427
-0,330210	-0,921237	9,640682	2020-10-29T19:04:19:445
-0,308674	-0,854238	9,604790	2020-10-29T19:04:19:467
-0,330210	-0,933201	9,621540	2020-10-29T19:04:19:485
-0,306281	-0,892523	9,667004	2020-10-29T19:04:19:508
-0,311067	-0,978664	9,647861	2020-10-29T19:04:19:529
-0,330210	-0,847059	9,614362	2020-10-29T19:04:19:548
-0,334995	-0,940379	9,683753	2020-10-29T19:04:19:564
-0,349352	-0,928415	9,667004	2020-10-29T19:04:19:587
-0,291924	-0,851845	9,607183	2020-10-29T19:04:19:604
-0,406780	-0,928415	9,614362	2020-10-29T19:04:19:628
-0,272782	-0,933201	9,693325	2020-10-29T19:04:19:645
-0,282353	-0,957129	9,681360	2020-10-29T19:04:19:667
-0,284746	-0,859023	9,623933	2020-10-29T19:04:19:685
-0,382852	-0,887737	9,690931	2020-10-29T19:04:19:708
-0,349352	-0,947558	9,626326	2020-10-29T19:04:19:725
-0,311067	-0,847059	9,700503	2020-10-29T19:04:19:747
-0,366102	-0,969093	9,631111	2020-10-29T19:04:19:768
-0,308674	-0,914058	9,667004	2020-10-29T19:04:19:788
-0,373280	-0,921237	9,659825	2020-10-29T19:04:19:804
-0,303888	-0,861416	9,650253	2020-10-29T19:04:19:827
-0,327817	-0,940379	9,678967	2020-10-29T19:04:19:845
-0,358923	-0,930808	9,683753	2020-10-29T19:04:19:868
-0,370888	-0,954736	9,602397	2020-10-29T19:04:19:885
-0,382852	-0,873380	9,611969	2020-10-29T19:04:19:907
-0,318245	-0,904487	9,674182	2020-10-29T19:04:19:924
-0,351745	-0,894916	9,662218	2020-10-29T19:04:19:948
-0,366102	-0,856631	9,645468	2020-10-29T19:04:19:966
-0,363709	-0,904487	9,690931	2020-10-29T19:04:19:987
-0,354138	-0,973879	9,645468	2020-10-29T19:04:20:005
-0,409173	-0,904487	9,638289	2020-10-29T19:04:20:028
-0,342174	-0,844666	9,690931	2020-10-29T19:04:20:045
-0,375673	-0,870987	9,588040	2020-10-29T19:04:20:067
-0,337388	-0,914058	9,628718	2020-10-29T19:04:20:085
-0,361316	-0,916451	9,640682	2020-10-29T19:04:20:108
-0,404387	-0,909273	9,664611	2020-10-29T19:04:20:125
-0,346959	-0,909273	9,621540	2020-10-29T19:04:20:148
-0,368495	-0,887737	9,600004	2020-10-29T19:04:20:165
-0,413958	-0,952343	9,640682	2020-10-29T19:04:20:189
-0,323031	-0,851845	9,674182	2020-10-29T19:04:20:205
-0,296710	-0,856631	9,676575	2020-10-29T19:04:20:228
-0,370888	-0,937986	9,681360	2020-10-29T19:04:20:246
-0,334995	-0,847059	9,635897	2020-10-29T19:04:20:269
-0,378066	-0,863809	9,640682	2020-10-29T19:04:20:285
-0,390030	-0,988236	9,614362	2020-10-29T19:04:20:308
-0,323031	-0,866202	9,676575	2020-10-29T19:04:20:325
-0,363709	-0,909273	9,724431	2020-10-29T19:04:20:350
-0,282353	-0,806381	9,633504	2020-10-29T19:04:20:365
-0,354138	-0,882952	9,611969	2020-10-29T19:04:20:388
-0,373280	-0,906880	9,647861	2020-10-29T19:04:20:405
-0,370888	-0,892523	9,568897	2020-10-29T19:04:20:429
-0,413958	-0,904487	9,688539	2020-10-29T19:04:20:445
-0,366102	-0,835095	9,623933	2020-10-29T19:04:20:467
-0,334995	-0,844666	9,671788	2020-10-29T19:04:20:486
-0,385244	-0,923629	9,631111	2020-10-29T19:04:20:510
-0,318245	-0,921237	9,659825	2020-10-29T19:04:20:525
-0,351745	-0,921237	9,669396	2020-10-29T19:04:20:549
-0,327817	-0,894916	9,671788	2020-10-29T19:04:20:565
-0,337388	-0,880559	9,650253	2020-10-29T19:04:20:589
-0,315853	-0,875773	9,604790	2020-10-29T19:04:20:605
-0,296710	-0,849452	9,619147	2020-10-29T19:04:20:628
-0,390030	-0,890130	9,628718	2020-10-29T19:04:20:645
-0,351745	-0,906880	9,628718	2020-10-29T19:04:20:669
-0,291924	-0,854238	9,628718	2020-10-29T19:04:20:686
-0,339781	-0,882952	9,724431	2020-10-29T19:04:20:708
-0,380459	-0,933201	9,657433	2020-10-29T19:04:20:726
-0,401994	-0,892523	9,676575	2020-10-29T19:04:20:749
-0,373280	-0,892523	9,607183	2020-10-29T19:04:20:765
-0,399601	-0,945165	9,645468	2020-10-29T19:04:20:789
-0,354138	-0,794417	9,635897	2020-10-29T19:04:20:806
-0,351745	-0,784846	9,674182	2020-10-29T19:04:20:830
-0,303888	-0,964308	9,683753	2020-10-29T19:04:20:846
-0,289532	-0,959522	9,621540	2020-10-29T19:04:20:868
-0,356531	-0,813560	9,717253	2020-10-29T19:04:20:886
-0,375673	-0,887737	9,592826	2020-10-29T19:04:20:909
-0,363709	-0,894916	9,698111	2020-10-29T19:04:20:926
-0,373280	-0,811167	9,669396	2020-10-29T19:04:20:951
-0,370888	-0,885344	9,645468	2020-10-29T19:04:20:967
-0,418744	-0,859023	9,683753	2020-10-29T19:04:20:989
-0,337388	-0,985843	9,700503	2020-10-29T19:04:21:005
-0,303888	-0,803988	9,611969	2020-10-29T19:04:21:031
-0,351745	-0,844666	9,626326	2020-10-29T19:04:21:046
-0,332602	-0,940379	9,659825	2020-10-29T19:04:21:070
-0,411566	-0,878166	9,628718	2020-10-29T19:04:21:085
-0,346959	-0,904487	9,671788	2020-10-29T19:04:21:109
-0,346959	-0,818345	9,662218	2020-10-29T19:04:21:125
-0,323031	-0,827917	9,683753	2020-10-29T19:04:21:151
-0,411566	-0,940379	9,635897	2020-10-29T19:04:21:166
-0,478565	-0,818345	9,669396	2020-10-29T19:04:21:189
-0,421137	-0,904487	9,635897	2020-10-29T19:04:21:207
-0,301496	-0,918844	9,662218	2020-10-29T19:04:21:230
-0,375673	-0,928415	9,614362	2020-10-29T19:04:21:246
-0,401994	-0,854238	9,621540	2020-10-29T19:04:21:270
-0,385244	-0,902094	9,741181	2020-10-29T19:04:21:286
-0,299103	-0,921237	9,621540	2020-10-29T19:04:21:310
-0,354138	-0,878166	9,664611	2020-10-29T19:04:21:326
-0,425922	-0,768096	9,631111	2020-10-29T19:04:21:349
-0,361316	-0,847059	9,652647	2020-10-29T19:04:21:365
-0,416351	-0,837488	9,619147	2020-10-29T19:04:21:391
-0,382852	-0,863809	9,631111	2020-10-29T19:04:21:406
-0,296710	-0,842274	9,674182	2020-10-29T19:04:21:429
-0,375673	-0,961915	9,655040	2020-10-29T19:04:21:447
-0,375673	-0,818345	9,674182	2020-10-29T19:04:21:470
-0,418744	-0,875773	9,602397	2020-10-29T19:04:21:486
-0,370888	-0,815953	9,640682	2020-10-29T19:04:21:511
-0,358923	-0,849452	9,635897	2020-10-29T19:04:21:527
-0,368495	-0,851845	9,643075	2020-10-29T19:04:21:550
-0,373280	-0,926022	9,638289	2020-10-29T19:04:21:566
-0,382852	-0,902094	9,626326	2020-10-29T19:04:21:590
-0,397209	-0,844666	9,645468	2020-10-29T19:04:21:606
-0,382852	-0,811167	9,643075	2020-10-29T19:04:21:630
-0,318245	-0,921237	9,633504	2020-10-29T19:04:21:647
-0,351745	-0,849452	9,681360	2020-10-29T19:04:21:669
-0,354138	-0,808774	9,628718	2020-10-29T19:04:21:687
-0,394816	-0,820738	9,592826	2020-10-29T19:04:21:710
-0,380459	-0,856631	9,626326	2020-10-29T19:04:21:726
-0,342174	-0,847059	9,633504	2020-10-29T19:04:21:752
-0,337388	-0,923629	9,592826	2020-10-29T19:04:21:766
-0,366102	-0,863809	9,662218	2020-10-29T19:04:21:790
-0,332602	-0,870987	9,638289	2020-10-29T19:04:21:807
-0,366102	-0,894916	9,616754	2020-10-29T19:04:21:830
-0,394816	-0,868595	9,698111	2020-10-29T19:04:21:846
-0,327817	-0,794417	9,712467	2020-10-29T19:04:21:870
-0,325424	-0,844666	9,595219	2020-10-29T19:04:21:888
-0,397209	-0,851845	9,631111	2020-10-29T19:04:21:910
-0,323031	-0,892523	9,552148	2020-10-29T19:04:21:929
-0,390030	-0,832702	9,676575	2020-10-29T19:04:21:951
-0,320638	-0,921237	9,609575	2020-10-29T19:04:21:966
-0,342174	-0,854238	9,657433	2020-10-29T19:04:21:989
-0,356531	-0,866202	9,659825	2020-10-29T19:04:22:006
-0,425922	-0,875773	9,712467	2020-10-29T19:04:22:030
-0,368495	-0,792024	9,647861	2020-10-29T19:04:22:047
-0,342174	-0,837488	9,693325	2020-10-29T19:04:22:069
-0,361316	-0,916451	9,659825	2020-10-29T19:04:22:087
-0,409173	-0,868595	9,623933	2020-10-29T19:04:22:110
-0,435494	-0,780060	9,609575	2020-10-29T19:04:22:127
-0,413958	-0,851845	9,664611	2020-10-29T19:04:22:150
-0,334995	-0,882952	9,631111	2020-10-29T19:04:22:168
-0,387637	-0,868595	9,635897	2020-10-29T19:04:22:191
-0,339781	-0,811167	9,626326	2020-10-29T19:04:22:206
-0,378066	-0,815953	9,611969	2020-10-29T19:04:22:229
-0,349352	-0,861416	9,652647	2020-10-29T19:04:22:247
-0,363709	-0,935594	9,669396	2020-10-29T19:04:22:270
-0,356531	-0,945165	9,638289	2020-10-29T19:04:22:287
-0,346959	-0,880559	9,695717	2020-10-29T19:04:22:309
-0,291924	-0,777667	9,614362	2020-10-29T19:04:22:327
-0,421137	-0,940379	9,611969	2020-10-29T19:04:22:351
-0,342174	-0,882952	9,662218	2020-10-29T19:04:22:367
-0,428315	-0,890130	9,626326	2020-10-29T19:04:22:390
-0,342174	-0,861416	9,616754	2020-10-29T19:04:22:408
-0,346959	-0,837488	9,688539	2020-10-29T19:04:22:430
-0,380459	-0,926022	9,631111	2020-10-29T19:04:22:447
-0,332602	-0,854238	9,640682	2020-10-29T19:04:22:470
-0,413958	-0,823131	9,609575	2020-10-29T19:04:22:488
-0,320638	-0,870987	9,722038	2020-10-29T19:04:22:511
-0,339781	-0,942772	9,647861	2020-10-29T19:04:22:528
-0,346959	-0,818345	9,676575	2020-10-29T19:04:22:551
-0,337388	-0,918844	9,650253	2020-10-29T19:04:22:567
-0,334995	-0,873380	9,628718	2020-10-29T19:04:22:591
-0,311067	-0,863809	9,686146	2020-10-29T19:04:22:607
-0,373280	-0,937986	9,638289	2020-10-29T19:04:22:629
-0,387637	-0,856631	9,707682	2020-10-29T19:04:22:648
-0,308674	-0,887737	9,600004	2020-10-29T19:04:22:670
-0,349352	-0,775275	9,592826	2020-10-29T19:04:22:688
-0,370888	-0,897308	9,681360	2020-10-29T19:04:22:710
-0,330210	-0,961915	9,652647	2020-10-29T19:04:22:727
-0,349352	-0,894916	9,619147	2020-10-29T19:04:22:751
-0,390030	-0,926022	9,671788	2020-10-29T19:04:22:767
-0,370888	-0,863809	9,638289	2020-10-29T19:04:22:790
-0,358923	-0,930808	9,714860	2020-10-29T19:04:22:807
-0,327817	-0,899701	9,544970	2020-10-29T19:04:22:831
-0,380459	-0,902094	9,640682	2020-10-29T19:04:22:848
-0,382852	-0,921237	9,659825	2020-10-29T19:04:22:870
-0,296710	-0,897308	9,657433	2020-10-29T19:04:22:888
-0,397209	-0,847059	9,616754	2020-10-29T19:04:22:911
-0,406780	-0,914058	9,638289	2020-10-29T19:04:22:928
-0,282353	-0,964308	9,753145	2020-10-29T19:04:22:951
-0,370888	-0,916451	9,652647	2020-10-29T19:04:22:967
-0,320638	-0,947558	9,578469	2020-10-29T19:04:22:991
-0,330210	-0,880559	9,633504	2020-10-29T19:04:23:008
-0,354138	-0,911665	9,621540	2020-10-29T19:04:23:030
-0,382852	-0,940379	9,633504	2020-10-29T19:04:23:048
-0,344566	-0,861416	9,669396	2020-10-29T19:04:23:071
-0,334995	-0,909273	9,645468	2020-10-29T19:04:23:088
-0,392423	-0,830309	9,611969	2020-10-29T19:04:23:110
-0,320638	-0,909273	9,645468	2020-10-29T19:04:23:128
-0,366102	-0,849452	9,604790	2020-10-29T19:04:23:152
-0,358923	-0,844666	9,650253	2020-10-29T19:04:23:167
-0,330210	-0,926022	9,698111	2020-10-29T19:04:23:191
-0,361316	-0,937986	9,640682	2020-10-29T19:04:23:208
-0,346959	-0,837488	9,633504	2020-10-29T19:04:23:232
-0,368495	-0,911665	9,607183	2020-10-29T19:04:23:248
-0,425922	-0,904487	9,659825	2020-10-29T19:04:23:270
-0,370888	-0,904487	9,674182	2020-10-29T19:04:23:288
-0,397209	-0,794417	9,640682	2020-10-29T19:04:23:311
-0,425922	-0,878166	9,607183	2020-10-29T19:04:23:328
-0,361316	-0,942772	9,609575	2020-10-29T19:04:23:351
-0,344566	-0,954736	9,702895	2020-10-29T19:04:23:369
-0,256032	-0,794417	9,611969	2020-10-29T19:04:23:391
-0,318245	-0,930808	9,614362	2020-10-29T19:04:23:408
-0,346959	-0,981057	9,616754	2020-10-29T19:04:23:430
-0,399601	-0,909273	9,647861	2020-10-29T19:04:23:448
-0,368495	-0,926022	9,638289	2020-10-29T19:04:23:472
-0,404387	-0,904487	9,698111	2020-10-29T19:04:23:488
-0,380459	-0,873380	9,700503	2020-10-29T19:04:23:511
-0,315853	-0,969093	9,626326	2020-10-29T19:04:23:528
-0,313460	-0,854238	9,600004	2020-10-29T19:04:23:552
-0,327817	-0,897308	9,683753	2020-10-29T19:04:23:568
-0,320638	-0,916451	9,647861	2020-10-29T19:04:23:591
-0,404387	-0,892523	9,676575	2020-10-29T19:04:23:609
-0,349352	-0,859023	9,628718	2020-10-29T19:04:23:632
-0,339781	-0,902094	9,702895	2020-10-29T19:04:23:648
-0,370888	-0,899701	9,611969	2020-10-29T19:04:23:672
-0,320638	-0,859023	9,631111	2020-10-29T19:04:23:688
-0,308674	-0,957129	9,583255	2020-10-29T19:04:23:712
-0,363709	-0,839881	9,640682	2020-10-29T19:04:23:728
-0,368495	-0,849452	9,678967	2020-10-29T19:04:23:751
-0,380459	-0,926022	9,592826	2020-10-29T19:04:23:768
-0,416351	-0,914058	9,628718	2020-10-29T19:04:23:793
-0,399601	-0,952343	9,643075	2020-10-29T19:04:23:808
-0,272782	-0,856631	9,664611	2020-10-29T19:04:23:831
-0,332602	-0,894916	9,628718	2020-10-29T19:04:23:850
-0,366102	-0,904487	9,688539	2020-10-29T19:04:23:872
-0,418744	-1,007378	9,664611	2020-10-29T19:04:23:888
-0,282353	-0,813560	9,674182	2020-10-29T19:04:23:911
-0,399601	-0,832702	9,647861	2020-10-29T19:04:23:928
-0,296710	-0,947558	9,614362	2020-10-29T19:04:23:952
-0,370888	-0,914058	9,640682	2020-10-29T19:04:23:968
-0,394816	-0,870987	9,662218	2020-10-29T19:04:23:991
-0,315853	-0,868595	9,616754	2020-10-29T19:04:24:008
-0,337388	-0,942772	9,676575	2020-10-29T19:04:24:032
-0,349352	-0,966700	9,664611	2020-10-29T19:04:24:049
-0,351745	-0,882952	9,616754	2020-10-29T19:04:24:071
-0,361316	-0,914058	9,667004	2020-10-29T19:04:24:090
-0,306281	-0,894916	9,690931	2020-10-29T19:04:24:113
-0,313460	-0,942772	9,669396	2020-10-29T19:04:24:128
-0,416351	-0,890130	9,662218	2020-10-29T19:04:24:152
-0,387637	-0,911665	9,631111	2020-10-29T19:04:24:169
-0,380459	-0,885344	9,623933	2020-10-29T19:04:24:193
-0,361316	-0,911665	9,633504	2020-10-29T19:04:24:209
-0,313460	-0,849452	9,597611	2020-10-29T19:04:24:233
-0,375673	-0,990629	9,676575	2020-10-29T19:04:24:249
-0,301496	-0,969093	9,628718	2020-10-29T19:04:24:272
-0,301496	-0,935594	9,631111	2020-10-29T19:04:24:289
-0,409173	-0,897308	9,621540	2020-10-29T19:04:24:312
-0,378066	-0,911665	9,674182	2020-10-29T19:04:24:330
-0,342174	-0,933201	9,655040	2020-10-29T19:04:24:354
-0,411566	-0,894916	9,635897	2020-10-29T19:04:24:369
-0,308674	-0,971486	9,595219	2020-10-29T19:04:24:392
-0,409173	-0,914058	9,643075	2020-10-29T19:04:24:409
-0,325424	-0,904487	9,626326	2020-10-29T19:04:24:432
-0,413958	-0,947558	9,635897	2020-10-29T19:04:24:449
-0,387637	-1,004985	9,628718	2020-10-29T19:04:24:472
-0,390030	-0,854238	9,619147	2020-10-29T19:04:24:489
-0,289532	-0,983450	9,669396	2020-10-29T19:04:24:512
-0,294317	-0,983450	9,659825	2020-10-29T19:04:24:529
-0,344566	-1,033699	9,657433	2020-10-29T19:04:24:552
-0,318245	-1,004985	9,688539	2020-10-29T19:04:24:570
-0,351745	-0,878166	9,604790	2020-10-29T19:04:24:594
-0,301496	-0,993021	9,655040	2020-10-29T19:04:24:609
-0,327817	-1,031307	9,647861	2020-10-29T19:04:24:632
-0,342174	-0,961915	9,674182	2020-10-29T19:04:24:650
-0,244068	-1,009771	9,609575	2020-10-29T19:04:24:673
-0,356531	-1,057628	9,645468	2020-10-29T19:04:24:689
-0,303888	-0,885344	9,631111	2020-10-29T19:04:24:712
-0,251246	-1,012164	9,686146	2020-10-29T19:04:24:729
-0,301496	-0,959522	9,614362	2020-10-29T19:04:24:753
-0,323031	-0,933201	9,712467	2020-10-29T19:04:24:769
-0,366102	-1,014557	9,621540	2020-10-29T19:04:24:792
-0,227318	-0,988236	9,604790	2020-10-29T19:04:24:810
-0,287139	-0,916451	9,664611	2020-10-29T19:04:24:833
-0,315853	-1,062413	9,588040	2020-10-29T19:04:24:850
-0,323031	-1,043271	9,611969	2020-10-29T19:04:24:873
-0,294317	-0,885344	9,652647	2020-10-29T19:04:24:890
-0,385244	-0,957129	9,647861	2020-10-29T19:04:24:913
-0,287139	-1,055235	9,662218	2020-10-29T19:04:24:930
-0,339781	-0,875773	9,669396	2020-10-29T19:04:24:953
-0,363709	-0,935594	9,626326	2020-10-29T19:04:24:969
-0,311067	-0,935594	9,667004	2020-10-29T19:04:24:994
-0,368495	-0,997807	9,678967	2020-10-29T19:04:25:010
-0,308674	-1,002593	9,647861	2020-10-29T19:04:25:032
-0,279960	-1,155733	9,676575	2020-10-29T19:04:25:051
-0,409173	-1,052842	9,554541	2020-10-29T19:04:25:073
-0,344566	-1,033699	9,635897	2020-10-29T19:04:25:090
-0,296710	-0,985843	9,597611	2020-10-29T19:04:25:113
-0,301496	-1,050449	9,619147	2020-10-29T19:04:25:130
-0,382852	-1,045663	9,592826	2020-10-29T19:04:25:154
-0,339781	-1,004985	9,602397	2020-10-29T19:04:25:171
-0,325424	-1,000200	9,652647	2020-10-29T19:04:25:193
-0,323031	-1,131805	9,669396	2020-10-29T19:04:25:209
-0,356531	-1,012164	9,645468	2020-10-29T19:04:25:233
-0,378066	-1,064806	9,576077	2020-10-29T19:04:25:250
-0,356531	-1,012164	9,592826	2020-10-29T19:04:25:273
-0,258425	-1,004985	9,604790	2020-10-29T19:04:25:291
-0,346959	-0,959522	9,669396	2020-10-29T19:04:25:314
-0,189033	-1,000200	9,628718	2020-10-29T19:04:25:330
-0,373280	-1,024128	9,623933	2020-10-29T19:04:25:353
-0,401994	-1,012164	9,650253	2020-10-29T19:04:25:370
-0,358923	-1,055235	9,676575	2020-10-29T19:04:25:394
-0,325424	-1,098306	9,674182	2020-10-29T19:04:25:410
-0,303888	-1,124627	9,669396	2020-10-29T19:04:25:433
-0,323031	-1,050449	9,671788	2020-10-29T19:04:25:450
-0,339781	-1,115055	9,616754	2020-10-29T19:04:25:474
-0,370888	-1,141376	9,647861	2020-10-29T19:04:25:491
-0,320638	-1,229911	9,628718	2020-10-29T19:04:25:513
-0,363709	-1,045663	9,657433	2020-10-29T19:04:25:531
-0,267996	-1,110270	9,690931	2020-10-29T19:04:25:554
-0,349352	-1,138984	9,544970	2020-10-29T19:04:25:570
-0,306281	-1,162912	9,645468	2020-10-29T19:04:25:594
-0,301496	-1,100698	9,695717	2020-10-29T19:04:25:610
-0,234497	-1,155733	9,671788	2020-10-29T19:04:25:634
-0,349352	-1,095913	9,623933	2020-10-29T19:04:25:651
-0,315853	-1,112662	9,635897	2020-10-29T19:04:25:673
-0,342174	-1,158126	9,662218	2020-10-29T19:04:25:690
-0,301496	-1,098306	9,583255	2020-10-29T19:04:25:714
-0,279960	-1,052842	9,607183	2020-10-29T19:04:25:730
-0,418744	-1,107877	9,652647	2020-10-29T19:04:25:753
-0,346959	-1,143769	9,604790	2020-10-29T19:04:25:771
-0,291924	-1,088734	9,657433	2020-10-29T19:04:25:794
-0,327817	-1,074377	9,669396	2020-10-29T19:04:25:810
-0,354138	-1,038485	9,616754	2020-10-29T19:04:25:833
-0,323031	-1,064806	9,698111	2020-10-29T19:04:25:851
-0,363709	-1,119841	9,650253	2020-10-29T19:04:25:874
-0,299103	-1,069592	9,638289	2020-10-29T19:04:25:891
-0,358923	-1,088734	9,647861	2020-10-29T19:04:25:913
-0,346959	-1,024128	9,595219	2020-10-29T19:04:25:930
-0,337388	-1,062413	9,645468	2020-10-29T19:04:25:955
-0,291924	-1,062413	9,686146	2020-10-29T19:04:25:970
-0,370888	-1,036092	9,621540	2020-10-29T19:04:25:993
-0,306281	-1,093520	9,633504	2020-10-29T19:04:26:014
-0,301496	-1,107877	9,664611	2020-10-29T19:04:26:047
-0,301496	-1,117448	9,647861	2020-10-29T19:04:26:076
-0,318245	-1,009771	9,600004	2020-10-29T19:04:26:076
-0,275175	-1,134198	9,616754	2020-10-29T19:04:26:092
-0,267996	-1,062413	9,616754	2020-10-29T19:04:26:115
-0,282353	-1,119841	9,635897	2020-10-29T19:04:26:179
-0,349352	-1,148555	9,667004	2020-10-29T19:04:26:179
-0,275175	-0,969093	9,616754	2020-10-29T19:04:26:180
-0,370888	-1,095913	9,604790	2020-10-29T19:04:26:194
-0,378066	-1,172483	9,597611	2020-10-29T19:04:26:210
-0,413958	-1,038485	9,573684	2020-10-29T19:04:26:232
-0,358923	-1,074377	9,686146	2020-10-29T19:04:26:316
-0,289532	-1,131805	9,623933	2020-10-29T19:04:26:317
-0,263210	-1,119841	9,628718	2020-10-29T19:04:26:318
-0,270389	-1,105484	9,698111	2020-10-29T19:04:26:319
-0,315853	-1,079163	9,652647	2020-10-29T19:04:26:330
-0,244068	-1,107877	9,645468	2020-10-29T19:04:26:354
-0,277567	-1,153341	9,674182	2020-10-29T19:04:26:370
-0,311067	-1,091127	9,616754	2020-10-29T19:04:26:392
-0,315853	-1,081556	9,652647	2020-10-29T19:04:26:410
-0,296710	-1,143769	9,614362	2020-10-29T19:04:26:435
-0,323031	-1,098306	9,583255	2020-10-29T19:04:26:451
-0,311067	-1,172483	9,693325	2020-10-29T19:04:26:474
-0,315853	-1,189233	9,597611	2020-10-29T19:04:26:492
-0,332602	-1,165305	9,662218	2020-10-29T19:04:26:515
-0,361316	-1,052842	9,645468	2020-10-29T19:04:26:531
-0,346959	-1,129412	9,724431	2020-10-29T19:04:26:554
-0,354138	-1,071985	9,568897	2020-10-29T19:04:26:571
-0,327817	-1,028914	9,578469	2020-10-29T19:04:26:596
-0,260818	-1,069592	9,592826	2020-10-29T19:04:26:611
-0,370888	-1,210768	9,671788	2020-10-29T19:04:26:636
-0,334995	-1,153341	9,611969	2020-10-29T19:04:26:652
-0,330210	-1,107877	9,580862	2020-10-29T19:04:26:675
-0,356531	-1,079163	9,628718	2020-10-29T19:04:26:691
-0,358923	-1,115055	9,676575	2020-10-29T19:04:26:713
-0,313460	-1,060020	9,667004	2020-10-29T19:04:26:733
-0,291924	-1,098306	9,616754	2020-10-29T19:04:26:757
-0,265603	-1,055235	9,652647	2020-10-29T19:04:26:771
-0,354138	-1,110270	9,619147	2020-10-29T19:04:26:794
-0,318245	-1,040878	9,621540	2020-10-29T19:04:26:812
-0,342174	-1,086342	9,674182	2020-10-29T19:04:26:836
-0,325424	-1,131805	9,640682	2020-10-29T19:04:26:852
-0,318245	-1,129412	9,611969	2020-10-29T19:04:26:874
-0,267996	-1,033699	9,626326	2020-10-29T19:04:26:891
-0,303888	-1,095913	9,667004	2020-10-29T19:04:26:916
-0,277567	-1,064806	9,686146	2020-10-29T19:04:26:931
-0,296710	-1,095913	9,657433	2020-10-29T19:04:26:955
-0,373280	-1,045663	9,590433	2020-10-29T19:04:26:985
-0,356531	-1,112662	9,650253	2020-10-29T19:04:27:439
-0,351745	-1,081556	9,659825	2020-10-29T19:04:27:456
-0,318245	-1,124627	9,595219	2020-10-29T19:04:27:481
-0,375673	-1,067199	9,604790	2020-10-29T19:04:27:492
-0,358923	-1,024128	9,631111	2020-10-29T19:04:27:515
-0,346959	-1,110270	9,566505	2020-10-29T19:04:27:533
-0,344566	-1,069592	9,688539	2020-10-29T19:04:27:557
-0,325424	-1,091127	9,585647	2020-10-29T19:04:27:572
-0,239282	-1,081556	9,583255	2020-10-29T19:04:27:595
-0,323031	-1,141376	9,638289	2020-10-29T19:04:27:612
-0,416351	-1,112662	9,611969	2020-10-29T19:04:27:635
-0,301496	-1,081556	9,547362	2020-10-29T19:04:27:652
-0,332602	-0,983450	9,604790	2020-10-29T19:04:27:675
-0,303888	-1,201197	9,655040	2020-10-29T19:04:27:694
-0,260818	-1,098306	9,650253	2020-10-29T19:04:27:716
-0,275175	-1,055235	9,556933	2020-10-29T19:04:27:732
-0,303888	-1,069592	9,633504	2020-10-29T19:04:27:756
-0,258425	-1,122234	9,592826	2020-10-29T19:04:27:772
-0,315853	-1,143769	9,652647	2020-10-29T19:04:27:796
-0,308674	-1,155733	9,633504	2020-10-29T19:04:27:813
-0,284746	-1,100698	9,623933	2020-10-29T19:04:27:835
-0,332602	-1,079163	9,542577	2020-10-29T19:04:27:852
-0,306281	-1,167697	9,645468	2020-10-29T19:04:27:877
-0,332602	-1,127020	9,602397	2020-10-29T19:04:27:892
-0,282353	-1,050449	9,583255	2020-10-29T19:04:27:916
-0,313460	-1,119841	9,578469	2020-10-29T19:04:27:933
-0,315853	-1,129412	9,614362	2020-10-29T19:04:27:956
-0,373280	-1,122234	9,647861	2020-10-29T19:04:27:972
-0,330210	-1,012164	9,588040	2020-10-29T19:04:27:996
-0,394816	-1,158126	9,616754	2020-10-29T19:04:28:012
-0,289532	-1,062413	9,616754	2020-10-29T19:04:28:036
-0,358923	-1,055235	9,623933	2020-10-29T19:04:28:053
-0,344566	-1,083949	9,597611	2020-10-29T19:04:28:076
-0,358923	-1,105484	9,604790	2020-10-29T19:04:28:092
-0,354138	-1,038485	9,580862	2020-10-29T19:04:28:116
-0,416351	-1,081556	9,621540	2020-10-29T19:04:28:133
-0,294317	-1,134198	9,657433	2020-10-29T19:04:28:157
-0,349352	-0,971486	9,544970	2020-10-29T19:04:28:174
-0,346959	-1,000200	9,619147	2020-10-29T19:04:28:196
-0,318245	-1,038485	9,633504	2020-10-29T19:04:28:213
-0,299103	-1,050449	9,657433	2020-10-29T19:04:28:236
-0,399601	-1,095913	9,619147	2020-10-29T19:04:28:253
-0,342174	-1,117448	9,643075	2020-10-29T19:04:28:277
-0,282353	-0,976272	9,576077	2020-10-29T19:04:28:293
-0,349352	-1,050449	9,671788	2020-10-29T19:04:28:316
-0,368495	-1,129412	9,621540	2020-10-29T19:04:28:333
-0,363709	-1,038485	9,628718	2020-10-29T19:04:28:357
-0,291924	-1,007378	9,695717	2020-10-29T19:04:28:373
-0,315853	-1,055235	9,597611	2020-10-29T19:04:28:396
-0,313460	-1,048056	9,645468	2020-10-29T19:04:28:414
-0,323031	-1,086342	9,631111	2020-10-29T19:04:28:437
-0,313460	-0,961915	9,611969	2020-10-29T19:04:28:453
-0,349352	-1,016950	9,573684	2020-10-29T19:04:28:477
-0,284746	-0,981057	9,674182	2020-10-29T19:04:28:493
-0,318245	-1,091127	9,650253	2020-10-29T19:04:28:517
-0,370888	-1,045663	9,628718	2020-10-29T19:04:28:533
-0,351745	-1,033699	9,609575	2020-10-29T19:04:28:556
-0,289532	-1,086342	9,631111	2020-10-29T19:04:28:573
-0,294317	-0,997807	9,559326	2020-10-29T19:04:28:597
-0,342174	-1,043271	9,566505	2020-10-29T19:04:28:613
-0,358923	-1,110270	9,647861	2020-10-29T19:04:28:636
-0,378066	-1,067199	9,609575	2020-10-29T19:04:28:654
-0,334995	-0,981057	9,626326	2020-10-29T19:04:28:677
-0,282353	-0,983450	9,638289	2020-10-29T19:04:28:693
-0,323031	-1,000200	9,609575	2020-10-29T19:04:28:716
-0,356531	-1,031307	9,659825	2020-10-29T19:04:28:733
-0,289532	-1,000200	9,609575	2020-10-29T19:04:28:757
-0,296710	-0,918844	9,643075	2020-10-29T19:04:28:773
-0,277567	-1,009771	9,631111	2020-10-29T19:04:28:797
-0,337388	-1,014557	9,623933	2020-10-29T19:04:28:813
-0,325424	-0,978664	9,647861	2020-10-29T19:04:28:837
-0,344566	-1,002593	9,667004	2020-10-29T19:04:28:854
-0,313460	-0,964308	9,590433	2020-10-29T19:04:28:876
-0,291924	-0,973879	9,616754	2020-10-29T19:04:28:894
-0,323031	-0,914058	9,640682	2020-10-29T19:04:28:917
-0,299103	-1,007378	9,643075	2020-10-29T19:04:28:933
-0,387637	-0,911665	9,590433	2020-10-29T19:04:28:956
-0,375673	-0,966700	9,676575	2020-10-29T19:04:28:975
-0,404387	-0,928415	9,578469	2020-10-29T19:04:28:998
-0,356531	-0,870987	9,633504	2020-10-29T19:04:29:013
-0,332602	-0,935594	9,669396	2020-10-29T19:04:29:036
-0,332602	-1,019342	9,655040	2020-10-29T19:04:29:053
-0,356531	-0,976272	9,611969	2020-10-29T19:04:29:077
-0,346959	-0,894916	9,643075	2020-10-29T19:04:29:094
-0,382852	-0,952343	9,707682	2020-10-29T19:04:29:117
-0,351745	-0,954736	9,640682	2020-10-29T19:04:29:135
-0,334995	-1,012164	9,638289	2020-10-29T19:04:29:157
-0,358923	-0,940379	9,595219	2020-10-29T19:04:29:173
-0,406780	-0,875773	9,609575	2020-10-29T19:04:29:197
-0,413958	-0,916451	9,554541	2020-10-29T19:04:29:213
-0,342174	-0,954736	9,647861	2020-10-29T19:04:29:237
-0,337388	-0,880559	9,638289	2020-10-29T19:04:29:254
-0,334995	-0,873380	9,631111	2020-10-29T19:04:29:277
-0,344566	-0,961915	9,643075	2020-10-29T19:04:29:293
-0,375673	-0,937986	9,647861	2020-10-29T19:04:29:318
-0,370888	-0,937986	9,650253	2020-10-29T19:04:29:334
-0,258425	-0,935594	9,657433	2020-10-29T19:04:29:357
-0,375673	-0,959522	9,671788	2020-10-29T19:04:29:375
-0,339781	-0,923629	9,683753	2020-10-29T19:04:29:397
-0,346959	-0,976272	9,647861	2020-10-29T19:04:29:413
-0,346959	-1,043271	9,645468	2020-10-29T19:04:29:437
-0,370888	-0,902094	9,621540	2020-10-29T19:04:29:454
-0,404387	-0,930808	9,628718	2020-10-29T19:04:29:477
-0,356531	-0,978664	9,619147	2020-10-29T19:04:29:494
-0,378066	-0,940379	9,635897	2020-10-29T19:04:29:517
-0,358923	-0,894916	9,657433	2020-10-29T19:04:29:535
-0,354138	-0,928415	9,645468	2020-10-29T19:04:29:559
-0,342174	-0,839881	9,690931	2020-10-29T19:04:29:574
-0,382852	-0,911665	9,657433	2020-10-29T19:04:29:597
-0,327817	-1,026521	9,659825	2020-10-29T19:04:29:615
-0,363709	-0,916451	9,690931	2020-10-29T19:04:29:638
-0,394816	-0,882952	9,626326	2020-10-29T19:04:29:655
-0,366102	-0,978664	9,671788	2020-10-29T19:04:29:678
-0,325424	-0,959522	9,626326	2020-10-29T19:04:29:694
-0,294317	-0,906880	9,633504	2020-10-29T19:04:29:718
-0,308674	-0,973879	9,674182	2020-10-29T19:04:29:734
-0,390030	-0,880559	9,604790	2020-10-29T19:04:29:757
-0,387637	-0,894916	9,750752	2020-10-29T19:04:29:774
-0,287139	-0,997807	9,621540	2020-10-29T19:04:29:798
-0,294317	-0,966700	9,609575	2020-10-29T19:04:29:814
-0,303888	-0,928415	9,600004	2020-10-29T19:04:29:837
-0,406780	-0,916451	9,611969	2020-10-29T19:04:29:856
-0,294317	-0,949951	9,597611	2020-10-29T19:04:29:879
-0,370888	-0,916451	9,647861	2020-10-29T19:04:29:894
-0,354138	-0,983450	9,633504	2020-10-29T19:04:29:917
-0,373280	-0,933201	9,643075	2020-10-29T19:04:29:934
-0,303888	-0,976272	9,623933	2020-10-29T19:04:29:958
-0,327817	-0,935594	9,686146	2020-10-29T19:04:29:975
-0,392423	-0,847059	9,638289	2020-10-29T19:04:29:997
-0,325424	-0,937986	9,652647	2020-10-29T19:04:30:014
-0,334995	-0,911665	9,667004	2020-10-29T19:04:30:038
-0,267996	-0,990629	9,631111	2020-10-29T19:04:30:055
-0,344566	-0,935594	9,619147	2020-10-29T19:04:30:077
-0,334995	-0,902094	9,621540	2020-10-29T19:04:30:095
-0,282353	-0,875773	9,643075	2020-10-29T19:04:30:118
-0,344566	-0,945165	9,734003	2020-10-29T19:04:30:134
-0,337388	-0,983450	9,655040	2020-10-29T19:04:30:158
-0,354138	-0,978664	9,652647	2020-10-29T19:04:30:175
-0,337388	-0,866202	9,595219	2020-10-29T19:04:30:198
-0,380459	-0,911665	9,688539	2020-10-29T19:04:30:215
-0,332602	-0,945165	9,688539	2020-10-29T19:04:30:238
-0,346959	-0,985843	9,640682	2020-10-29T19:04:30:255
-0,334995	-0,899701	9,640682	2020-10-29T19:04:30:279
-0,368495	-0,868595	9,688539	2020-10-29T19:04:30:295
-0,366102	-0,978664	9,640682	2020-10-29T19:04:30:317
-0,356531	-0,897308	9,647861	2020-10-29T19:04:30:336
-0,330210	-0,976272	9,628718	2020-10-29T19:04:30:359
-0,349352	-0,973879	9,635897	2020-10-29T19:04:30:375
-0,315853	-0,923629	9,676575	2020-10-29T19:04:30:397
-0,327817	-0,926022	9,607183	2020-10-29T19:04:30:415
-0,325424	-0,983450	9,681360	2020-10-29T19:04:30:439
-0,361316	-0,981057	9,645468	2020-10-29T19:04:30:456
-0,351745	-0,966700	9,647861	2020-10-29T19:04:30:477
-0,356531	-0,827917	9,652647	2020-10-29T19:04:30:496
-0,323031	-0,949951	9,631111	2020-10-29T19:04:30:518
-0,332602	-0,926022	9,676575	2020-10-29T19:04:30:536
-0,409173	-0,928415	9,645468	2020-10-29T19:04:30:558
-0,260818	-0,988236	9,655040	2020-10-29T19:04:30:578
-0,318245	-0,969093	9,564112	2020-10-29T19:04:30:599
-0,327817	-0,909273	9,659825	2020-10-29T19:04:30:616
-0,344566	-0,947558	9,655040	2020-10-29T19:04:30:637
-0,366102	-0,988236	9,664611	2020-10-29T19:04:30:656
-0,382852	-0,945165	9,650253	2020-10-29T19:04:30:679
-0,332602	-0,933201	9,573684	2020-10-29T19:04:30:696
-0,378066	-0,851845	9,645468	2020-10-29T19:04:30:717
-0,394816	-0,947558	9,659825	2020-10-29T19:04:30:735
-0,301496	-0,983450	9,611969	2020-10-29T19:04:30:759
-0,354138	-0,971486	9,693325	2020-10-29T19:04:30:776
-0,399601	-0,952343	9,631111	2020-10-29T19:04:30:798
-0,325424	-0,859023	9,564112	2020-10-29T19:04:30:817
-0,332602	-0,961915	9,628718	2020-10-29T19:04:30:839
-0,349352	-0,921237	9,595219	2020-10-29T19:04:30:856
-0,303888	-0,993021	9,638289	2020-10-29T19:04:30:878
-0,375673	-0,854238	9,667004	2020-10-29T19:04:30:897
-0,308674	-0,978664	9,674182	2020-10-29T19:04:30:919
-0,323031	-0,940379	9,693325	2020-10-29T19:04:30:936
-0,370888	-0,978664	9,659825	2020-10-29T19:04:30:958
-0,344566	-0,849452	9,655040	2020-10-29T19:04:30:976
-0,334995	-0,930808	9,674182	2020-10-29T19:04:31:000
-0,373280	-0,990629	9,657433	2020-10-29T19:04:31:016
-0,382852	-0,911665	9,650253	2020-10-29T19:04:31:038
-0,378066	-0,856631	9,568897	2020-10-29T19:04:31:057
-0,370888	-1,033699	9,573684	2020-10-29T19:04:31:079
-0,318245	-1,014557	9,607183	2020-10-29T19:04:31:095
-0,318245	-0,863809	9,645468	2020-10-29T19:04:31:117
-0,291924	-0,916451	9,619147	2020-10-29T19:04:31:135
-0,356531	-0,990629	9,631111	2020-10-29T19:04:31:160
-0,361316	-0,969093	9,633504	2020-10-29T19:04:31:176
-0,390030	-1,048056	9,650253	2020-10-29T19:04:31:198
-0,294317	-0,918844	9,573684	2020-10-29T19:04:31:216
-0,390030	-0,952343	9,580862	2020-10-29T19:04:31:239
-0,385244	-0,959522	9,659825	2020-10-29T19:04:31:256
-0,349352	-0,997807	9,619147	2020-10-29T19:04:31:278
-0,373280	-0,885344	9,602397	2020-10-29T19:04:31:297
-0,382852	-0,957129	9,616754	2020-10-29T19:04:31:320
-0,351745	-1,024128	9,588040	2020-10-29T19:04:31:336
-0,442672	-0,916451	9,674182	2020-10-29T19:04:31:359
-0,311067	-0,942772	9,650253	2020-10-29T19:04:31:376
-0,349352	-0,954736	9,633504	2020-10-29T19:04:31:399
-0,382852	-0,976272	9,712467	2020-10-29T19:04:31:416
-0,342174	-0,897308	9,640682	2020-10-29T19:04:31:438
-0,366102	-0,868595	9,635897	2020-10-29T19:04:31:456
-0,390030	-0,937986	9,638289	2020-10-29T19:04:31:480
-0,325424	-0,933201	9,619147	2020-10-29T19:04:31:496
-0,303888	-0,885344	9,583255	2020-10-29T19:04:31:518
-0,373280	-1,028914	9,650253	2020-10-29T19:04:31:537
-0,418744	-0,916451	9,616754	2020-10-29T19:04:31:560
-0,337388	-0,873380	9,597611	2020-10-29T19:04:31:576
-0,399601	-0,988236	9,657433	2020-10-29T19:04:31:599
-0,385244	-1,007378	9,638289	2020-10-29T19:04:31:616
-0,397209	-0,914058	9,657433	2020-10-29T19:04:31:640
-0,378066	-0,904487	9,647861	2020-10-29T19:04:31:657
-0,337388	-0,935594	9,621540	2020-10-29T19:04:31:680
-0,332602	-0,897308	9,681360	2020-10-29T19:04:31:696
-0,332602	-0,904487	9,633504	2020-10-29T19:04:31:720
-0,349352	-0,942772	9,578469	2020-10-29T19:04:31:736
-0,378066	-1,048056	9,597611	2020-10-29T19:04:31:760
-0,392423	-0,949951	9,621540	2020-10-29T19:04:31:777
-0,346959	-0,964308	9,645468	2020-10-29T19:04:31:800
-0,342174	-0,983450	9,667004	2020-10-29T19:04:31:816
-0,406780	-0,942772	9,635897	2020-10-29T19:04:31:839
-0,346959	-0,878166	9,585647	2020-10-29T19:04:31:857
-0,370888	-0,957129	9,655040	2020-10-29T19:04:31:880
-0,356531	-0,945165	9,626326	2020-10-29T19:04:31:896
-0,368495	-0,897308	9,647861	2020-10-29T19:04:31:920
-0,373280	-1,028914	9,638289	2020-10-29T19:04:31:936
-0,363709	-1,033699	9,600004	2020-10-29T19:04:31:961
-0,437887	-0,947558	9,633504	2020-10-29T19:04:31:977
-0,291924	-0,911665	9,635897	2020-10-29T19:04:31:999
-0,378066	-0,937986	9,652647	2020-10-29T19:04:32:017
-0,416351	-0,890130	9,640682	2020-10-29T19:04:32:040
-0,277567	-0,978664	9,645468	2020-10-29T19:04:32:057
-0,368495	-1,000200	9,650253	2020-10-29T19:04:32:079
-0,399601	-1,040878	9,690931	2020-10-29T19:04:32:097
-0,390030	-0,997807	9,717253	2020-10-29T19:04:32:120
-0,373280	-0,933201	9,631111	2020-10-29T19:04:32:137
-0,332602	-0,976272	9,667004	2020-10-29T19:04:32:160
-0,413958	-1,021735	9,626326	2020-10-29T19:04:32:177
-0,385244	-0,981057	9,619147	2020-10-29T19:04:32:200
-0,435494	-1,004985	9,604790	2020-10-29T19:04:32:217
-0,313460	-1,071985	9,712467	2020-10-29T19:04:32:239
-0,406780	-0,966700	9,631111	2020-10-29T19:04:32:258
-0,284746	-0,978664	9,683753	2020-10-29T19:04:32:280
-0,385244	-0,981057	9,585647	2020-10-29T19:04:32:297
-0,334995	-1,012164	9,667004	2020-10-29T19:04:32:319
-0,334995	-0,973879	9,621540	2020-10-29T19:04:32:337
-0,279960	-1,071985	9,621540	2020-10-29T19:04:32:361
-0,332602	-0,942772	9,640682	2020-10-29T19:04:32:377
-0,325424	-1,002593	9,600004	2020-10-29T19:04:32:399
-0,301496	-1,112662	9,626326	2020-10-29T19:04:32:417
-0,363709	-1,031307	9,647861	2020-10-29T19:04:32:442
-0,275175	-1,016950	9,623933	2020-10-29T19:04:32:458
-0,399601	-0,983450	9,628718	2020-10-29T19:04:32:480
-0,363709	-0,981057	9,576077	2020-10-29T19:04:32:498
-0,351745	-1,050449	9,619147	2020-10-29T19:04:32:520
-0,279960	-1,021735	9,619147	2020-10-29T19:04:32:537
-0,373280	-0,993021	9,674182	2020-10-29T19:04:32:560
-0,378066	-1,050449	9,659825	2020-10-29T19:04:32:577
-0,299103	-1,007378	9,631111	2020-10-29T19:04:32:600
-0,315853	-0,988236	9,669396	2020-10-29T19:04:32:617
-0,332602	-0,926022	9,647861	2020-10-29T19:04:32:640
-0,325424	-1,000200	9,659825	2020-10-29T19:04:32:657
-0,332602	-1,026521	9,607183	2020-10-29T19:04:32:681
-0,306281	-1,002593	9,678967	2020-10-29T19:04:32:697
-0,291924	-1,048056	9,674182	2020-10-29T19:04:32:719
-0,387637	-0,954736	9,657433	2020-10-29T19:04:32:738
-0,332602	-0,942772	9,669396	2020-10-29T19:04:32:761
-0,346959	-1,050449	9,681360	2020-10-29T19:04:32:777
-0,327817	-1,062413	9,643075	2020-10-29T19:04:32:800
-0,334995	-0,971486	9,607183	2020-10-29T19:04:32:818
-0,337388	-0,964308	9,643075	2020-10-29T19:04:32:841
-0,349352	-0,949951	9,667004	2020-10-29T19:04:32:859
-0,306281	-1,000200	9,652647	2020-10-29T19:04:32:880
-0,358923	-0,923629	9,686146	2020-10-29T19:04:32:897
-0,318245	-1,021735	9,659825	2020-10-29T19:04:32:921
-0,366102	-1,009771	9,623933	2020-10-29T19:04:32:938
-0,287139	-0,995414	9,619147	2020-10-29T19:04:32:960
-0,358923	-1,016950	9,635897	2020-10-29T19:04:32:979
-0,325424	-0,995414	9,578469	2020-10-29T19:04:33:001
-0,299103	-0,973879	9,647861	2020-10-29T19:04:33:017
-0,334995	-1,081556	9,631111	2020-10-29T19:04:33:041
-0,287139	-0,916451	9,631111	2020-10-29T19:04:33:058
-0,282353	-1,004985	9,628718	2020-10-29T19:04:33:081
-0,344566	-0,928415	9,595219	2020-10-29T19:04:33:097
-0,311067	-1,009771	9,621540	2020-10-29T19:04:33:120
-0,363709	-0,988236	9,681360	2020-10-29T19:04:33:137
-0,294317	-1,026521	9,671788	2020-10-29T19:04:33:161
-0,385244	-1,050449	9,635897	2020-10-29T19:04:33:178
-0,351745	-1,028914	9,631111	2020-10-29T19:04:33:200
-0,368495	-0,966700	9,655040	2020-10-29T19:04:33:220
-0,308674	-1,040878	9,571291	2020-10-29T19:04:33:241
-0,366102	-1,069592	9,600004	2020-10-29T19:04:33:258
-0,339781	-1,057628	9,659825	2020-10-29T19:04:33:281
-0,323031	-1,069592	9,681360	2020-10-29T19:04:33:298
-0,404387	-1,021735	9,671788	2020-10-29T19:04:33:321
-0,272782	-1,043271	9,595219	2020-10-29T19:04:33:338
-0,272782	-0,973879	9,626326	2020-10-29T19:04:33:361
-0,332602	-1,074377	9,686146	2020-10-29T19:04:33:377
-0,320638	-1,093520	9,671788	2020-10-29T19:04:33:401
-0,330210	-0,945165	9,611969	2020-10-29T19:04:33:418
-0,344566	-0,981057	9,633504	2020-10-29T19:04:33:440
-0,354138	-1,100698	9,686146	2020-10-29T19:04:33:459
-0,294317	-1,024128	9,576077	2020-10-29T19:04:33:481
-0,344566	-1,000200	9,659825	2020-10-29T19:04:33:498
-0,301496	-1,002593	9,652647	2020-10-29T19:04:33:520
-0,363709	-1,012164	9,643075	2020-10-29T19:04:33:538
-0,325424	-1,122234	9,631111	2020-10-29T19:04:33:562
-0,301496	-0,952343	9,604790	2020-10-29T19:04:33:579
-0,385244	-1,107877	9,676575	2020-10-29T19:04:33:601
-0,308674	-1,074377	9,588040	2020-10-29T19:04:33:618
-0,313460	-1,043271	9,638289	2020-10-29T19:04:33:641
-0,361316	-1,033699	9,710074	2020-10-29T19:04:33:659
-0,342174	-0,995414	9,662218	2020-10-29T19:04:33:681
-0,327817	-1,067199	9,592826	2020-10-29T19:04:33:699
-0,349352	-1,007378	9,645468	2020-10-29T19:04:33:722
-0,351745	-1,021735	9,676575	2020-10-29T19:04:33:738
-0,313460	-1,036092	9,640682	2020-10-29T19:04:33:761
-0,289532	-1,019342	9,635897	2020-10-29T19:04:33:778
-0,390030	-1,098306	9,664611	2020-10-29T19:04:33:801
-0,260818	-1,040878	9,619147	2020-10-29T19:04:33:818
-0,279960	-1,050449	9,678967	2020-10-29T19:04:33:841
-0,382852	-1,083949	9,643075	2020-10-29T19:04:33:859
-0,342174	-0,990629	9,592826	2020-10-29T19:04:33:882
-0,339781	-1,043271	9,621540	2020-10-29T19:04:33:898
-0,270389	-1,115055	9,635897	2020-10-29T19:04:33:921
-0,370888	-1,119841	9,602397	2020-10-29T19:04:33:939
-0,368495	-0,981057	9,616754	2020-10-29T19:04:33:962
-0,284746	-1,002593	9,659825	2020-10-29T19:04:33:978
-0,323031	-1,095913	9,693325	2020-10-29T19:04:34:001
-0,399601	-1,069592	9,647861	2020-10-29T19:04:34:019
-0,358923	-0,997807	9,643075	2020-10-29T19:04:34:042
-0,267996	-1,033699	9,640682	2020-10-29T19:04:34:059
-0,327817	-1,038485	9,607183	2020-10-29T19:04:34:081
-0,308674	-1,045663	9,640682	2020-10-29T19:04:34:098
-0,315853	-1,038485	9,602397	2020-10-29T19:04:34:122
-0,342174	-1,076770	9,614362	2020-10-29T19:04:34:139
-0,296710	-1,098306	9,659825	2020-10-29T19:04:34:161
-0,339781	-1,057628	9,607183	2020-10-29T19:04:34:180
-0,382852	-1,105484	9,623933	2020-10-29T19:04:34:202
-0,313460	-1,062413	9,626326	2020-10-29T19:04:34:219
-0,344566	-1,043271	9,650253	2020-10-29T19:04:34:241
-0,315853	-1,067199	9,554541	2020-10-29T19:04:34:259
-0,363709	-0,997807	9,614362	2020-10-29T19:04:34:282
-0,272782	-1,043271	9,655040	2020-10-29T19:04:34:299
-0,282353	-1,014557	9,655040	2020-10-29T19:04:34:321
-0,356531	-1,067199	9,645468	2020-10-29T19:04:34:339
-0,356531	-1,079163	9,611969	2020-10-29T19:04:34:363
-0,330210	-1,119841	9,647861	2020-10-29T19:04:34:379
-0,275175	-1,110270	9,664611	2020-10-29T19:04:34:401
-0,346959	-1,052842	9,616754	2020-10-29T19:04:34:421
-0,325424	-1,007378	9,607183	2020-10-29T19:04:34:442
-0,351745	-1,083949	9,702895	2020-10-29T19:04:34:459
-0,382852	-1,007378	9,662218	2020-10-29T19:04:34:482
-0,301496	-1,016950	9,645468	2020-10-29T19:04:34:499
-0,373280	-1,086342	9,667004	2020-10-29T19:04:34:522
-0,339781	-1,107877	9,607183	2020-10-29T19:04:34:539
-0,337388	-1,050449	9,604790	2020-10-29T19:04:34:562
-0,313460	-0,988236	9,607183	2020-10-29T19:04:34:579
-0,320638	-1,069592	9,643075	2020-10-29T19:04:34:603
-0,332602	-1,131805	9,705289	2020-10-29T19:04:34:619
-0,411566	-1,055235	9,662218	2020-10-29T19:04:34:642
-0,308674	-0,985843	9,588040	2020-10-29T19:04:34:661
-0,406780	-1,100698	9,621540	2020-10-29T19:04:34:684
-0,368495	-1,060020	9,657433	2020-10-29T19:04:34:699
-0,303888	-1,052842	9,633504	2020-10-29T19:04:34:723
-0,308674	-1,048056	9,631111	2020-10-29T19:04:34:740
-0,325424	-1,115055	9,614362	2020-10-29T19:04:34:763
-0,301496	-0,995414	9,564112	2020-10-29T19:04:34:780
-0,366102	-0,990629	9,623933	2020-10-29T19:04:34:802
-0,315853	-1,009771	9,652647	2020-10-29T19:04:34:819
-0,416351	-1,100698	9,638289	2020-10-29T19:04:34:843
-0,323031	-1,115055	9,645468	2020-10-29T19:04:34:860
-0,373280	-0,988236	9,578469	2020-10-29T19:04:34:882
-0,296710	-1,021735	9,604790	2020-10-29T19:04:34:900
-0,349352	-1,107877	9,643075	2020-10-29T19:04:34:923
-0,334995	-1,098306	9,580862	2020-10-29T19:04:34:940
-0,378066	-1,076770	9,623933	2020-10-29T19:04:34:962
-0,337388	-1,055235	9,638289	2020-10-29T19:04:34:980
-0,260818	-0,978664	9,659825	2020-10-29T19:04:35:003
-0,334995	-1,083949	9,655040	2020-10-29T19:04:35:019
-0,373280	-1,074377	9,592826	2020-10-29T19:04:35:042
-0,311067	-1,038485	9,647861	2020-10-29T19:04:35:060
-0,296710	-1,129412	9,647861	2020-10-29T19:04:35:083
-0,299103	-1,040878	9,590433	2020-10-29T19:04:35:100
-0,308674	-0,942772	9,674182	2020-10-29T19:04:35:122
-0,368495	-1,086342	9,640682	2020-10-29T19:04:35:141
-0,380459	-1,105484	9,614362	2020-10-29T19:04:35:164
-0,256032	-1,057628	9,669396	2020-10-29T19:04:35:180
-0,313460	-1,012164	9,662218	2020-10-29T19:04:35:202
-0,334995	-1,141376	9,609575	2020-10-29T19:04:35:220
-0,351745	-1,071985	9,633504	2020-10-29T19:04:35:243
-0,315853	-1,031307	9,578469	2020-10-29T19:04:35:260
-0,320638	-1,036092	9,643075	2020-10-29T19:04:35:283
-0,349352	-1,189233	9,690931	2020-10-29T19:04:35:300
-0,351745	-1,040878	9,573684	2020-10-29T19:04:35:323
-0,370888	-1,038485	9,561719	2020-10-29T19:04:35:340
-0,308674	-1,129412	9,643075	2020-10-29T19:04:35:363
-0,263210	-1,040878	9,626326	2020-10-29T19:04:35:381
-0,311067	-1,048056	9,580862	2020-10-29T19:04:35:403
-0,421137	-1,028914	9,544970	2020-10-29T19:04:35:420
-0,315853	-1,019342	9,621540	2020-10-29T19:04:35:442
-0,320638	-1,043271	9,638289	2020-10-29T19:04:35:461
-0,311067	-1,000200	9,619147	2020-10-29T19:04:35:484
-0,339781	-1,069592	9,683753	2020-10-29T19:04:35:500
-0,354138	-1,057628	9,683753	2020-10-29T19:04:35:522
-0,346959	-1,031307	9,616754	2020-10-29T19:04:35:540
-0,363709	-1,033699	9,678967	2020-10-29T19:04:35:564
-0,325424	-1,122234	9,602397	2020-10-29T19:04:35:580
-0,373280	-1,074377	9,635897	2020-10-29T19:04:35:602
-0,318245	-1,021735	9,655040	2020-10-29T19:04:35:621
-0,265603	-1,124627	9,635897	2020-10-29T19:04:35:644
-0,279960	-1,103091	9,693325	2020-10-29T19:04:35:660
-0,332602	-1,105484	9,614362	2020-10-29T19:04:35:683
-0,354138	-1,021735	9,561719	2020-10-29T19:04:35:700
-0,282353	-1,050449	9,631111	2020-10-29T19:04:35:724
-0,282353	-1,095913	9,626326	2020-10-29T19:04:35:740
-0,358923	-1,091127	9,628718	2020-10-29T19:04:35:763
-0,387637	-1,055235	9,659825	2020-10-29T19:04:35:781
-0,287139	-1,045663	9,597611	2020-10-29T19:04:35:804
-0,315853	-1,110270	9,693325	2020-10-29T19:04:35:821
-0,323031	-1,069592	9,623933	2020-10-29T19:04:35:843
-0,296710	-1,050449	9,647861	2020-10-29T19:04:35:861
-0,323031	-1,076770	9,669396	2020-10-29T19:04:35:884
-0,279960	-1,014557	9,614362	2020-10-29T19:04:35:900
-0,275175	-1,069592	9,621540	2020-10-29T19:04:35:923
-0,303888	-1,014557	9,614362	2020-10-29T19:04:35:940
-0,301496	-0,995414	9,638289	2020-10-29T19:04:35:964
-0,334995	-1,002593	9,640682	2020-10-29T19:04:35:981
-0,330210	-1,086342	9,614362	2020-10-29T19:04:36:003
-0,308674	-1,040878	9,583255	2020-10-29T19:04:36:020
-0,263210	-1,045663	9,698111	2020-10-29T19:04:36:044
-0,344566	-1,004985	9,616754	2020-10-29T19:04:36:061
-0,351745	-1,098306	9,640682	2020-10-29T19:04:36:083
-0,270389	-1,045663	9,674182	2020-10-29T19:04:36:101
-0,382852	-1,033699	9,616754	2020-10-29T19:04:36:124
-0,284746	-1,064806	9,643075	2020-10-29T19:04:36:141
-0,323031	-1,069592	9,616754	2020-10-29T19:04:36:164
-0,320638	-1,024128	9,583255	2020-10-29T19:04:36:181
-0,277567	-1,071985	9,616754	2020-10-29T19:04:36:204
-0,315853	-1,062413	9,604790	2020-10-29T19:04:36:221
-0,323031	-1,069592	9,590433	2020-10-29T19:04:36:243
-0,387637	-0,985843	9,607183	2020-10-29T19:04:36:261
-0,390030	-1,076770	9,647861	2020-10-29T19:04:36:285
-0,313460	-1,050449	9,652647	2020-10-29T19:04:36:301
-0,306281	-1,091127	9,645468	2020-10-29T19:04:36:323
-0,311067	-1,007378	9,602397	2020-10-29T19:04:36:342
-0,325424	-1,067199	9,621540	2020-10-29T19:04:36:365
-0,275175	-1,086342	9,633504	2020-10-29T19:04:36:381
-0,406780	-1,062413	9,655040	2020-10-29T19:04:36:404
-0,332602	-1,052842	9,611969	2020-10-29T19:04:36:421
-0,332602	-1,055235	9,652647	2020-10-29T19:04:36:445
-0,332602	-1,107877	9,657433	2020-10-29T19:04:36:461
-0,294317	-1,067199	9,657433	2020-10-29T19:04:36:484
-0,387637	-1,004985	9,631111	2020-10-29T19:04:36:501
-0,308674	-1,009771	9,674182	2020-10-29T19:04:36:524
-0,339781	-1,002593	9,595219	2020-10-29T19:04:36:541
-0,385244	-1,028914	9,585647	2020-10-29T19:04:36:564
-0,270389	-1,086342	9,683753	2020-10-29T19:04:36:582
-0,404387	-1,057628	9,643075	2020-10-29T19:04:36:604
-0,330210	-0,995414	9,640682	2020-10-29T19:04:36:621
-0,327817	-0,964308	9,621540	2020-10-29T19:04:36:644
-0,334995	-1,112662	9,659825	2020-10-29T19:04:36:661
-0,287139	-1,069592	9,611969	2020-10-29T19:04:36:685
-0,337388	-1,021735	9,645468	2020-10-29T19:04:36:701
-0,337388	-0,995414	9,621540	2020-10-29T19:04:36:724
-0,378066	-1,100698	9,657433	2020-10-29T19:04:36:741
-0,346959	-1,033699	9,657433	2020-10-29T19:04:36:766
-0,327817	-0,952343	9,628718	2020-10-29T19:04:36:781
-0,275175	-1,057628	9,609575	2020-10-29T19:04:36:805
-0,368495	-0,988236	9,669396	2020-10-29T19:04:36:822
-0,351745	-1,038485	9,607183	2020-10-29T19:04:36:845
-0,361316	-1,014557	9,578469	2020-10-29T19:04:36:862
-0,358923	-1,026521	9,633504	2020-10-29T19:04:36:884
-0,344566	-1,160519	9,614362	2020-10-29T19:04:36:901
-0,342174	-1,048056	9,652647	2020-10-29T19:04:36:925
-0,366102	-1,088734	9,600004	2020-10-29T19:04:36:941
-0,275175	-1,028914	9,635897	2020-10-29T19:04:36:964
-0,421137	-1,052842	9,652647	2020-10-29T19:04:36:981
-0,308674	-1,071985	9,638289	2020-10-29T19:04:37:005
-0,349352	-1,024128	9,600004	2020-10-29T19:04:37:021
-0,296710	-0,995414	9,650253	2020-10-29T19:04:37:043
-0,358923	-1,060020	9,564112	2020-10-29T19:04:37:063
-0,394816	-1,043271	9,635897	2020-10-29T19:04:37:085
-0,428315	-1,052842	9,657433	2020-10-29T19:04:37:101
-0,358923	-0,964308	9,595219	2020-10-29T19:04:37:124
-0,313460	-1,076770	9,662218	2020-10-29T19:04:37:141
-0,370888	-1,098306	9,614362	2020-10-29T19:04:37:165
-0,339781	-1,057628	9,640682	2020-10-29T19:04:37:181
-0,358923	-1,079163	9,631111	2020-10-29T19:04:37:204
-0,289532	-1,000200	9,662218	2020-10-29T19:04:37:221
-0,366102	-0,988236	9,609575	2020-10-29T19:04:37:245
-0,378066	-1,040878	9,655040	2020-10-29T19:04:37:262
-0,356531	-1,019342	9,643075	2020-10-29T19:04:37:284
-0,380459	-1,021735	9,626326	2020-10-29T19:04:37:302
-0,325424	-1,028914	9,640682	2020-10-29T19:04:37:325
-0,296710	-1,050449	9,652647	2020-10-29T19:04:37:342
-0,375673	-1,079163	9,619147	2020-10-29T19:04:37:365
-0,325424	-1,016950	9,607183	2020-10-29T19:04:37:382
-0,301496	-1,019342	9,669396	2020-10-29T19:04:37:405
-0,356531	-1,033699	9,600004	2020-10-29T19:04:37:424
-0,318245	-1,074377	9,686146	2020-10-29T19:04:37:444
-0,358923	-1,036092	9,607183	2020-10-29T19:04:37:461
-0,342174	-1,028914	9,683753	2020-10-29T19:04:37:486
-0,370888	-1,052842	9,643075	2020-10-29T19:04:37:502
-0,349352	-1,105484	9,698111	2020-10-29T19:04:37:524
-0,354138	-1,052842	9,664611	2020-10-29T19:04:37:543
-0,318245	-0,966700	9,635897	2020-10-29T19:04:37:567
-0,351745	-0,911665	9,564112	2020-10-29T19:04:37:582
-0,327817	-1,048056	9,647861	2020-10-29T19:04:37:604
-0,251246	-1,028914	9,640682	2020-10-29T19:04:37:622
-0,320638	-1,004985	9,628718	2020-10-29T19:04:37:645
-0,358923	-1,060020	9,650253	2020-10-29T19:04:37:662
-0,342174	-1,024128	9,667004	2020-10-29T19:04:37:686
-0,358923	-0,918844	9,676575	2020-10-29T19:04:37:702
-0,287139	-1,060020	9,650253	2020-10-29T19:04:37:726
-0,370888	-0,995414	9,640682	2020-10-29T19:04:37:742
-0,303888	-1,086342	9,619147	2020-10-29T19:04:37:765
-0,356531	-1,021735	9,638289	2020-10-29T19:04:37:783
-0,327817	-1,019342	9,638289	2020-10-29T19:04:37:805
-0,380459	-1,028914	9,583255	2020-10-29T19:04:37:822
-0,342174	-1,083949	9,667004	2020-10-29T19:04:37:845
-0,325424	-1,069592	9,669396	2020-10-29T19:04:37:863
-0,313460	-1,004985	9,623933	2020-10-29T19:04:37:886
-0,342174	-1,000200	9,602397	2020-10-29T19:04:37:902
-0,378066	-1,083949	9,602397	2020-10-29T19:04:37:925
-0,282353	-1,021735	9,686146	2020-10-29T19:04:37:942
-0,394816	-1,019342	9,638289	2020-10-29T19:04:37:966
-0,275175	-1,038485	9,693325	2020-10-29T19:04:37:983
-0,299103	-1,048056	9,662218	2020-10-29T19:04:38:004
-0,392423	-0,971486	9,628718	2020-10-29T19:04:38:023
-0,334995	-0,937986	9,600004	2020-10-29T19:04:38:045
-0,308674	-1,057628	9,607183	2020-10-29T19:04:38:062
-0,401994	-0,993021	9,609575	2020-10-29T19:04:38:086
-0,332602	-1,083949	9,638289	2020-10-29T19:04:38:102
-0,275175	-1,074377	9,626326	2020-10-29T19:04:38:126
-0,370888	-0,961915	9,671788	2020-10-29T19:04:38:142
-0,387637	-1,048056	9,623933	2020-10-29T19:04:38:165
-0,311067	-1,081556	9,621540	2020-10-29T19:04:38:183
-0,409173	-1,057628	9,690931	2020-10-29T19:04:38:206
-0,363709	-0,966700	9,683753	2020-10-29T19:04:38:222
-0,337388	-0,985843	9,722038	2020-10-29T19:04:38:245
-0,342174	-1,021735	9,628718	2020-10-29T19:04:38:264
-0,330210	-1,033699	9,614362	2020-10-29T19:04:38:286
-0,409173	-0,969093	9,571291	2020-10-29T19:04:38:302
-0,236889	-0,942772	9,628718	2020-10-29T19:04:38:325
-0,287139	-1,201197	9,681360	2020-10-29T19:04:38:342
-0,378066	-1,112662	9,650253	2020-10-29T19:04:38:368
-0,299103	-0,918844	9,621540	2020-10-29T19:04:38:383
-0,248854	-0,978664	9,616754	2020-10-29T19:04:38:405
-0,294317	-1,062413	9,647861	2020-10-29T19:04:38:422
-0,270389	-1,055235	9,621540	2020-10-29T19:04:38:446
-0,258425	-0,976272	9,597611	2020-10-29T19:04:38:463
-0,330210	-1,103091	9,664611	2020-10-29T19:04:38:485
-0,267996	-0,988236	9,616754	2020-10-29T19:04:38:504
-0,361316	-0,945165	9,650253	2020-10-29T19:04:38:526
-0,342174	-0,985843	9,640682	2020-10-29T19:04:38:542
-0,370888	-1,064806	9,678967	2020-10-29T19:04:38:566
-0,330210	-1,083949	9,655040	2020-10-29T19:04:38:583
-0,354138	-0,985843	9,667004	2020-10-29T19:04:38:606
-0,354138	-0,995414	9,628718	2020-10-29T19:04:38:623
-0,330210	-1,048056	9,686146	2020-10-29T19:04:38:645
-0,351745	-1,040878	9,621540	2020-10-29T19:04:38:663
-0,342174	-0,990629	9,664611	2020-10-29T19:04:38:687
-0,378066	-1,086342	9,609575	2020-10-29T19:04:38:703
-0,241675	-1,083949	9,614362	2020-10-29T19:04:38:725
-0,330210	-1,014557	9,655040	2020-10-29T19:04:38:744
-0,375673	-0,966700	9,597611	2020-10-29T19:04:38:767
-0,327817	-0,971486	9,671788	2020-10-29T19:04:38:783
-0,325424	-1,038485	9,645468	2020-10-29T19:04:38:805
-0,265603	-1,052842	9,659825	2020-10-29T19:04:38:823
-0,349352	-0,995414	9,623933	2020-10-29T19:04:38:848
-0,409173	-1,045663	9,662218	2020-10-29T19:04:38:864
-0,363709	-0,997807	9,619147	2020-10-29T19:04:38:887
-0,301496	-1,004985	9,633504	2020-10-29T19:04:38:903
-0,325424	-0,973879	9,686146	2020-10-29T19:04:38:928
-0,397209	-1,009771	9,631111	2020-10-29T19:04:38:943
-0,327817	-1,009771	9,652647	2020-10-29T19:04:38:966
-0,327817	-1,033699	9,602397	2020-10-29T19:04:38:985
-0,325424	-1,016950	9,722038	2020-10-29T19:04:39:007
-0,287139	-0,995414	9,626326	2020-10-29T19:04:39:023
-0,320638	-1,002593	9,655040	2020-10-29T19:04:39:047
-0,358923	-1,014557	9,576077	2020-10-29T19:04:39:064
-0,308674	-1,019342	9,657433	2020-10-29T19:04:39:087
-0,318245	-0,961915	9,664611	2020-10-29T19:04:39:103
-0,251246	-1,057628	9,607183	2020-10-29T19:04:39:126
-0,354138	-0,957129	9,614362	2020-10-29T19:04:39:143
-0,342174	-0,957129	9,585647	2020-10-29T19:04:39:167
-0,330210	-1,019342	9,588040	2020-10-29T19:04:39:184
-0,363709	-1,045663	9,683753	2020-10-29T19:04:39:206
-0,332602	-1,071985	9,655040	2020-10-29T19:04:39:225
-0,346959	-1,016950	9,609575	2020-10-29T19:04:39:247
-0,339781	-1,007378	9,647861	2020-10-29T19:04:39:264
-0,325424	-0,995414	9,614362	2020-10-29T19:04:39:286
-0,320638	-1,071985	9,645468	2020-10-29T19:04:39:304
-0,356531	-1,038485	9,652647	2020-10-29T19:04:39:327
-0,378066	-1,045663	9,597611	2020-10-29T19:04:39:344
-0,308674	-1,079163	9,638289	2020-10-29T19:04:39:367
-0,327817	-0,971486	9,609575	2020-10-29T19:04:39:384
-0,370888	-1,016950	9,635897	2020-10-29T19:04:39:407
-0,361316	-1,033699	9,631111	2020-10-29T19:04:39:424
-0,354138	-1,074377	9,621540	2020-10-29T19:04:39:446
-0,337388	-0,988236	9,657433	2020-10-29T19:04:39:464
-0,308674	-1,079163	9,674182	2020-10-29T19:04:39:487
-0,356531	-1,043271	9,628718	2020-10-29T19:04:39:503
-0,303888	-1,038485	9,655040	2020-10-29T19:04:39:528
-0,330210	-0,947558	9,592826	2020-10-29T19:04:39:543
-0,325424	-1,033699	9,626326	2020-10-29T19:04:39:567
-0,323031	-1,050449	9,619147	2020-10-29T19:04:39:584
-0,349352	-1,036092	9,602397	2020-10-29T19:04:39:606
-0,339781	-0,964308	9,671788	2020-10-29T19:04:39:624
-0,392423	-0,985843	9,600004	2020-10-29T19:04:39:648
-0,313460	-1,050449	9,674182	2020-10-29T19:04:39:664
-0,344566	-1,086342	9,619147	2020-10-29T19:04:39:687
-0,303888	-1,083949	9,568897	2020-10-29T19:04:39:705
-0,370888	-0,954736	9,568897	2020-10-29T19:04:39:729
-0,346959	-1,026521	9,576077	2020-10-29T19:04:39:744
-0,277567	-1,055235	9,650253	2020-10-29T19:04:39:768
-0,330210	-1,074377	9,621540	2020-10-29T19:04:39:784
-0,366102	-1,028914	9,614362	2020-10-29T19:04:39:807
-0,344566	-0,971486	9,683753	2020-10-29T19:04:39:824
-0,323031	-1,033699	9,643075	2020-10-29T19:04:39:847
-0,303888	-1,043271	9,628718	2020-10-29T19:04:39:864
-0,332602	-0,959522	9,638289	2020-10-29T19:04:39:888
-0,361316	-1,052842	9,609575	2020-10-29T19:04:39:904
-0,334995	-1,055235	9,640682	2020-10-29T19:04:39:926
-0,313460	-0,964308	9,604790	2020-10-29T19:04:39:945
-0,433101	-0,973879	9,683753	2020-10-29T19:04:39:970
-0,358923	-1,033699	9,683753	2020-10-29T19:04:39:984
-0,291924	-1,057628	9,647861	2020-10-29T19:04:40:007
-0,366102	-0,985843	9,564112	2020-10-29T19:04:40:025
-0,320638	-0,985843	9,645468	2020-10-29T19:04:40:055
-0,296710	-1,064806	9,657433	2020-10-29T19:04:40:065
-0,306281	-1,079163	9,638289	2020-10-29T19:04:40:087
-0,358923	-0,997807	9,576077	2020-10-29T19:04:40:104
-0,349352	-1,038485	9,638289	2020-10-29T19:04:40:129
-0,351745	-1,002593	9,676575	2020-10-29T19:04:40:144
-0,308674	-0,937986	9,631111	2020-10-29T19:04:40:168
-0,385244	-0,906880	9,659825	2020-10-29T19:04:40:185
-0,356531	-1,079163	9,643075	2020-10-29T19:04:40:210
-0,354138	-1,031307	9,585647	2020-10-29T19:04:40:224
-0,373280	-0,978664	9,671788	2020-10-29T19:04:40:248
-0,366102	-1,024128	9,621540	2020-10-29T19:04:40:265
-0,358923	-0,997807	9,681360	2020-10-29T19:04:40:289
-0,375673	-0,983450	9,690931	2020-10-29T19:04:40:304
-0,344566	-0,973879	9,623933	2020-10-29T19:04:40:328
-0,413958	-1,024128	9,664611	2020-10-29T19:04:40:345
-0,354138	-1,024128	9,659825	2020-10-29T19:04:40:369
-0,334995	-1,048056	9,650253	2020-10-29T19:04:40:385
-0,339781	-1,079163	9,600004	2020-10-29T19:04:40:407
-0,375673	-0,971486	9,652647	2020-10-29T19:04:40:426
-0,380459	-1,026521	9,578469	2020-10-29T19:04:40:449
-0,358923	-0,961915	9,614362	2020-10-29T19:04:40:465
-0,356531	-1,069592	9,628718	2020-10-29T19:04:40:489
-0,320638	-0,942772	9,659825	2020-10-29T19:04:40:505
-0,375673	-1,019342	9,590433	2020-10-29T19:04:40:530
-0,361316	-1,043271	9,633504	2020-10-29T19:04:40:546
-0,325424	-1,057628	9,604790	2020-10-29T19:04:40:568
-0,337388	-1,060020	9,602397	2020-10-29T19:04:40:584
-0,313460	-1,012164	9,676575	2020-10-29T19:04:40:608
-0,366102	-1,060020	9,628718	2020-10-29T19:04:40:625
-0,346959	-0,959522	9,621540	2020-10-29T19:04:40:648
-0,358923	-1,024128	9,576077	2020-10-29T19:04:40:666
-0,315853	-1,055235	9,595219	2020-10-29T19:04:40:689
-0,366102	-0,978664	9,652647	2020-10-29T19:04:40:705
-0,320638	-1,028914	9,604790	2020-10-29T19:04:40:728
-0,315853	-0,935594	9,674182	2020-10-29T19:04:40:745
-0,346959	-0,988236	9,626326	2020-10-29T19:04:40:770
-0,385244	-0,940379	9,619147	2020-10-29T19:04:40:785
-0,334995	-0,993021	9,650253	2020-10-29T19:04:40:809
-0,299103	-1,055235	9,571291	2020-10-29T19:04:40:825
-0,356531	-0,971486	9,628718	2020-10-29T19:04:40:849
-0,390030	-1,033699	9,602397	2020-10-29T19:04:40:865
-0,311067	-0,985843	9,628718	2020-10-29T19:04:40:888
-0,296710	-0,988236	9,640682	2020-10-29T19:04:40:906
-0,284746	-0,988236	9,568897	2020-10-29T19:04:40:929
-0,366102	-1,019342	9,592826	2020-10-29T19:04:40:945
-0,368495	-0,937986	9,588040	2020-10-29T19:04:40:968
-0,294317	-1,019342	9,607183	2020-10-29T19:04:40:985
-0,363709	-1,024128	9,595219	2020-10-29T19:04:41:009
-0,330210	-1,110270	9,657433	2020-10-29T19:04:41:025
-0,323031	-0,957129	9,590433	2020-10-29T19:04:41:048
