v1	v2	v3	v4	ts
0,000000	0,000000	0,000000	0,000000	2020-10-29T19:03:51:320
0,000000	0,000000	0,000000	0,000000	2020-10-29T19:03:51:359
0,000000	0,000000	0,000000	0,000000	2020-10-29T19:03:51:400
0,000000	0,000000	0,000000	0,000000	2020-10-29T19:03:51:439
0,000000	0,000000	0,000000	0,000000	2020-10-29T19:03:51:479
0,000000	0,000000	0,000000	0,000000	2020-10-29T19:03:51:520
0,000000	0,000000	0,000000	0,000000	2020-10-29T19:03:51:559
0,000000	0,000000	0,000000	0,000000	2020-10-29T19:03:51:599
0,000000	0,000000	0,000000	0,000000	2020-10-29T19:03:51:639
0,000000	0,000000	0,000000	0,000000	2020-10-29T19:03:51:680
0,000000	0,000000	0,000000	0,000000	2020-10-29T19:03:51:719
0,000000	0,000000	0,000000	0,000000	2020-10-29T19:03:51:759
0,000000	0,000000	0,000000	0,000000	2020-10-29T19:03:51:799
0,000000	0,000000	0,000000	0,000000	2020-10-29T19:03:51:839
0,000000	0,000000	0,000000	0,000000	2020-10-29T19:03:51:880
0,000000	0,000000	0,000000	0,000000	2020-10-29T19:03:51:919
0,000000	0,000000	0,000000	0,000000	2020-10-29T19:03:51:959
0,000000	0,000000	0,000000	0,000000	2020-10-29T19:03:52:000
0,000000	0,000000	0,000000	0,000000	2020-10-29T19:03:52:040
0,000000	0,000000	0,000000	0,000000	2020-10-29T19:03:52:080
0,000000	0,000000	0,000000	0,000000	2020-10-29T19:03:52:120
0,000000	0,000000	0,000000	0,000000	2020-10-29T19:03:52:160
0,000000	0,000000	0,000000	0,000000	2020-10-29T19:03:52:200
0,000000	0,000000	0,000000	0,000000	2020-10-29T19:03:52:240
0,000000	0,000000	0,000000	0,000000	2020-10-29T19:03:52:280
0,000000	0,000000	0,000000	0,000000	2020-10-29T19:03:52:321
0,000000	0,000000	0,000000	0,000000	2020-10-29T19:03:52:361
0,000000	0,000000	0,000000	0,000000	2020-10-29T19:03:52:402
0,000000	0,000000	0,000000	0,000000	2020-10-29T19:03:52:443
0,000000	0,000000	0,000000	0,000000	2020-10-29T19:03:52:484
0,000000	0,000000	0,000000	0,000000	2020-10-29T19:03:52:523
0,000000	0,000000	0,000000	0,000000	2020-10-29T19:03:52:563
0,000000	0,000000	0,000000	0,000000	2020-10-29T19:03:52:604
0,000000	0,000000	0,000000	0,000000	2020-10-29T19:03:52:644
0,000000	0,000000	0,000000	0,000000	2020-10-29T19:03:52:684
0,000000	0,000000	0,000000	0,000000	2020-10-29T19:03:52:724
0,000000	0,000000	0,000000	0,000000	2020-10-29T19:03:52:764
0,000000	0,000000	0,000000	0,000000	2020-10-29T19:03:52:804
0,000000	0,000000	0,000000	0,000000	2020-10-29T19:03:52:844
0,000000	0,000000	0,000000	0,000000	2020-10-29T19:03:52:885
0,000000	0,000000	0,000000	0,000000	2020-10-29T19:03:52:923
0,000000	0,000000	0,000000	0,000000	2020-10-29T19:03:52:964
0,000000	0,000000	0,000000	0,000000	2020-10-29T19:03:53:004
0,000000	0,000000	0,000000	0,000000	2020-10-29T19:03:53:044
0,000000	0,000000	0,000000	0,000000	2020-10-29T19:03:53:085
0,000000	0,000000	0,000000	0,000000	2020-10-29T19:03:53:124
0,000000	0,000000	0,000000	0,000000	2020-10-29T19:03:53:163
0,000000	0,000000	0,000000	0,000000	2020-10-29T19:03:53:207
0,000000	0,000000	0,000000	0,000000	2020-10-29T19:03:53:244
0,000000	0,000000	0,000000	0,000000	2020-10-29T19:03:53:284
0,000000	0,000000	0,000000	0,000000	2020-10-29T19:03:53:325
0,000000	0,000000	0,000000	0,000000	2020-10-29T19:03:53:365
0,000000	0,000000	0,000000	0,000000	2020-10-29T19:03:53:405
0,000000	0,000000	0,000000	0,000000	2020-10-29T19:03:53:445
0,000000	0,000000	0,000000	0,000000	2020-10-29T19:03:53:484
0,000000	0,000000	0,000000	0,000000	2020-10-29T19:03:53:525
0,000000	0,000000	0,000000	0,000000	2020-10-29T19:03:53:564
0,000000	0,000000	0,000000	0,000000	2020-10-29T19:03:53:605
0,000000	0,000000	0,000000	0,000000	2020-10-29T19:03:53:645
0,000000	0,000000	0,000000	0,000000	2020-10-29T19:03:53:685
0,000000	0,000000	0,000000	0,000000	2020-10-29T19:03:53:725
0,000000	0,000000	0,000000	0,000000	2020-10-29T19:03:53:765
0,000000	0,000000	0,000000	0,000000	2020-10-29T19:03:53:805
0,000000	0,000000	0,000000	0,000000	2020-10-29T19:03:53:845
0,000000	0,000000	0,000000	0,000000	2020-10-29T19:03:53:886
0,000000	0,000000	0,000000	0,000000	2020-10-29T19:03:53:925
0,000000	0,000000	0,000000	0,000000	2020-10-29T19:03:53:965
0,000000	0,000000	0,000000	0,000000	2020-10-29T19:03:54:005
0,000000	0,000000	0,000000	0,000000	2020-10-29T19:03:54:045
0,000000	0,000000	0,000000	0,000000	2020-10-29T19:03:54:086
0,000000	0,000000	0,000000	0,000000	2020-10-29T19:03:54:125
0,000000	0,000000	0,000000	0,000000	2020-10-29T19:03:54:165
0,000000	0,000000	0,000000	0,000000	2020-10-29T19:03:54:205
0,000000	0,000000	0,000000	0,000000	2020-10-29T19:03:54:245
0,000000	0,000000	0,000000	0,000000	2020-10-29T19:03:54:286
0,000000	0,000000	0,000000	0,000000	2020-10-29T19:03:54:326
0,000000	0,000000	0,000000	0,000000	2020-10-29T19:03:54:366
0,000000	0,000000	0,000000	0,000000	2020-10-29T19:03:54:407
0,000000	0,000000	0,000000	0,000000	2020-10-29T19:03:54:446
0,000000	0,000000	0,000000	0,000000	2020-10-29T19:03:54:486
0,000000	0,000000	0,000000	0,000000	2020-10-29T19:03:54:526
0,000000	0,000000	0,000000	0,000000	2020-10-29T19:03:54:566
0,000000	0,000000	0,000000	0,000000	2020-10-29T19:03:54:606
0,000000	0,000000	0,000000	0,000000	2020-10-29T19:03:54:646
0,000000	0,000000	0,000000	0,000000	2020-10-29T19:03:54:686
0,000000	0,000000	0,000000	0,000000	2020-10-29T19:03:54:727
0,000000	0,000000	0,000000	0,000000	2020-10-29T19:03:54:766
0,000000	0,000000	0,000000	0,000000	2020-10-29T19:03:54:807
0,000000	0,000000	0,000000	0,000000	2020-10-29T19:03:54:846
0,000000	0,000000	0,000000	0,000000	2020-10-29T19:03:54:887
0,000000	0,000000	0,000000	0,000000	2020-10-29T19:03:54:926
0,000000	0,000000	0,000000	0,000000	2020-10-29T19:03:54:967
0,000000	0,000000	0,000000	0,000000	2020-10-29T19:03:55:007
0,000000	0,000000	0,000000	0,000000	2020-10-29T19:03:55:047
0,000000	0,000000	0,000000	0,000000	2020-10-29T19:03:55:087
0,000000	0,000000	0,000000	0,000000	2020-10-29T19:03:55:127
0,000000	0,000000	0,000000	0,000000	2020-10-29T19:03:55:167
0,000000	0,000000	0,000000	0,000000	2020-10-29T19:03:55:207
0,000000	0,000000	0,000000	0,000000	2020-10-29T19:03:55:247
0,000000	0,000000	0,000000	0,000000	2020-10-29T19:03:55:288
0,000000	0,000000	0,000000	0,000000	2020-10-29T19:03:55:327
0,000000	0,000000	0,000000	0,000000	2020-10-29T19:03:55:367
0,000000	0,000000	0,000000	0,000000	2020-10-29T19:03:55:408
0,000000	0,000000	0,000000	0,000000	2020-10-29T19:03:55:448
0,000000	0,000000	0,000000	0,000000	2020-10-29T19:03:55:488
0,000000	0,000000	0,000000	0,000000	2020-10-29T19:03:55:527
0,000000	0,000000	0,000000	0,000000	2020-10-29T19:03:55:567
0,000000	0,000000	0,000000	0,000000	2020-10-29T19:03:55:608
0,000000	0,000000	0,000000	0,000000	2020-10-29T19:03:55:648
0,000000	0,000000	0,000000	0,000000	2020-10-29T19:03:55:688
0,000000	0,000000	0,000000	0,000000	2020-10-29T19:03:55:728
0,000000	0,000000	0,000000	0,000000	2020-10-29T19:03:55:768
0,000000	0,000000	0,000000	0,000000	2020-10-29T19:03:55:808
0,000000	0,000000	0,000000	0,000000	2020-10-29T19:03:55:848
0,000000	0,000000	0,000000	0,000000	2020-10-29T19:03:55:888
0,000000	0,000000	0,000000	0,000000	2020-10-29T19:03:55:928
0,000000	0,000000	0,000000	0,000000	2020-10-29T19:03:55:968
0,000000	0,000000	0,000000	0,000000	2020-10-29T19:03:56:008
0,000000	0,000000	0,000000	0,000000	2020-10-29T19:03:56:048
0,000000	0,000000	0,000000	0,000000	2020-10-29T19:03:56:089
0,000000	0,000000	0,000000	0,000000	2020-10-29T19:03:56:128
0,000000	0,000000	0,000000	0,000000	2020-10-29T19:03:56:167
0,000000	0,000000	0,000000	0,000000	2020-10-29T19:03:56:208
0,000000	0,000000	0,000000	0,000000	2020-10-29T19:03:56:248
0,000000	0,000000	0,000000	0,000000	2020-10-29T19:03:56:290
0,000000	0,000000	0,000000	0,000000	2020-10-29T19:03:56:329
0,000000	0,000000	0,000000	0,000000	2020-10-29T19:03:56:368
0,000000	0,000000	0,000000	0,000000	2020-10-29T19:03:56:409
0,000000	0,000000	0,000000	0,000000	2020-10-29T19:03:56:449
0,000000	0,000000	0,000000	0,000000	2020-10-29T19:03:56:488
0,000000	0,000000	0,000000	0,000000	2020-10-29T19:03:56:529
0,000000	0,000000	0,000000	0,000000	2020-10-29T19:03:56:570
0,000000	0,000000	0,000000	0,000000	2020-10-29T19:03:56:609
0,000000	0,000000	0,000000	0,000000	2020-10-29T19:03:56:648
0,000000	0,000000	0,000000	0,000000	2020-10-29T19:03:56:689
0,000000	0,000000	0,000000	0,000000	2020-10-29T19:03:56:729
0,000000	0,000000	0,000000	0,000000	2020-10-29T19:03:56:769
0,000000	0,000000	0,000000	0,000000	2020-10-29T19:03:56:809
0,000000	0,000000	0,000000	0,000000	2020-10-29T19:03:56:848
0,000000	0,000000	0,000000	0,000000	2020-10-29T19:03:56:889
0,000000	0,000000	0,000000	0,000000	2020-10-29T19:03:56:929
0,000000	0,000000	0,000000	0,000000	2020-10-29T19:03:56:969
0,000000	0,000000	0,000000	0,000000	2020-10-29T19:03:57:009
0,000000	0,000000	0,000000	0,000000	2020-10-29T19:03:57:049
0,000000	0,000000	0,000000	0,000000	2020-10-29T19:03:57:089
0,000000	0,000000	0,000000	0,000000	2020-10-29T19:03:57:129
0,000000	0,000000	0,000000	0,000000	2020-10-29T19:03:57:169
0,000000	0,000000	0,000000	0,000000	2020-10-29T19:03:57:209
0,000000	0,000000	0,000000	0,000000	2020-10-29T19:03:57:249
0,000000	0,000000	0,000000	0,000000	2020-10-29T19:03:57:291
0,000000	0,000000	0,000000	0,000000	2020-10-29T19:03:57:329
0,000000	0,000000	0,000000	0,000000	2020-10-29T19:03:57:370
0,000000	0,000000	0,000000	0,000000	2020-10-29T19:03:57:411
0,000000	0,000000	0,000000	0,000000	2020-10-29T19:03:57:449
0,000000	0,000000	0,000000	0,000000	2020-10-29T19:03:57:491
0,000000	0,000000	0,000000	0,000000	2020-10-29T19:03:57:530
0,000000	0,000000	0,000000	0,000000	2020-10-29T19:03:57:570
0,000000	0,000000	0,000000	0,000000	2020-10-29T19:03:57:609
0,000000	0,000000	0,000000	0,000000	2020-10-29T19:03:57:650
0,000000	0,000000	0,000000	0,000000	2020-10-29T19:03:57:690
0,000000	0,000000	0,000000	0,000000	2020-10-29T19:03:57:730
0,000000	0,000000	0,000000	0,000000	2020-10-29T19:03:57:769
0,000000	0,000000	0,000000	0,000000	2020-10-29T19:03:57:811
0,000000	0,000000	0,000000	0,000000	2020-10-29T19:03:57:850
0,000000	0,000000	0,000000	0,000000	2020-10-29T19:03:57:891
0,000000	0,000000	0,000000	0,000000	2020-10-29T19:03:57:930
0,000000	0,000000	0,000000	0,000000	2020-10-29T19:03:57:971
0,000000	0,000000	0,000000	0,000000	2020-10-29T19:03:58:010
0,000000	0,000000	0,000000	0,000000	2020-10-29T19:03:58:051
0,000000	0,000000	0,000000	0,000000	2020-10-29T19:03:58:091
0,000000	0,000000	0,000000	0,000000	2020-10-29T19:03:58:131
0,000000	0,000000	0,000000	0,000000	2020-10-29T19:03:58:171
0,000000	0,000000	0,000000	0,000000	2020-10-29T19:03:58:219
0,000000	0,000000	0,000000	0,000000	2020-10-29T19:03:58:251
0,000000	0,000000	0,000000	0,000000	2020-10-29T19:03:58:293
0,000000	0,000000	0,000000	0,000000	2020-10-29T19:03:58:330
0,000000	0,000000	0,000000	0,000000	2020-10-29T19:03:58:371
0,000000	0,000000	0,000000	0,000000	2020-10-29T19:03:58:411
0,000000	0,000000	0,000000	0,000000	2020-10-29T19:03:58:451
0,000000	0,000000	0,000000	0,000000	2020-10-29T19:03:58:491
0,000000	0,000000	0,000000	0,000000	2020-10-29T19:03:58:531
0,000000	0,000000	0,000000	0,000000	2020-10-29T19:03:58:570
0,000000	0,000000	0,000000	0,000000	2020-10-29T19:03:58:612
0,000000	0,000000	0,000000	0,000000	2020-10-29T19:03:58:650
0,000000	0,000000	0,000000	0,000000	2020-10-29T19:03:58:692
0,000000	0,000000	0,000000	0,000000	2020-10-29T19:03:58:731
0,000000	0,000000	0,000000	0,000000	2020-10-29T19:03:58:771
0,000000	0,000000	0,000000	0,000000	2020-10-29T19:03:58:811
0,000000	0,000000	0,000000	0,000000	2020-10-29T19:03:58:852
0,000000	0,000000	0,000000	0,000000	2020-10-29T19:03:58:892
0,000000	0,000000	0,000000	0,000000	2020-10-29T19:03:58:932
0,000000	0,000000	0,000000	0,000000	2020-10-29T19:03:58:971
0,000000	0,000000	0,000000	0,000000	2020-10-29T19:03:59:012
0,000000	0,000000	0,000000	0,000000	2020-10-29T19:03:59:051
0,000000	0,000000	0,000000	0,000000	2020-10-29T19:03:59:095
0,000000	0,000000	0,000000	0,000000	2020-10-29T19:03:59:131
0,000000	0,000000	0,000000	0,000000	2020-10-29T19:03:59:172
0,000000	0,000000	0,000000	0,000000	2020-10-29T19:03:59:211
0,000000	0,000000	0,000000	0,000000	2020-10-29T19:03:59:252
0,000000	0,000000	0,000000	0,000000	2020-10-29T19:03:59:292
0,000000	0,000000	0,000000	0,000000	2020-10-29T19:03:59:332
0,000000	0,000000	0,000000	0,000000	2020-10-29T19:03:59:370
0,000000	0,000000	0,000000	0,000000	2020-10-29T19:03:59:413
0,000000	0,000000	0,000000	0,000000	2020-10-29T19:03:59:453
0,000000	0,000000	0,000000	0,000000	2020-10-29T19:03:59:493
0,000000	0,000000	0,000000	0,000000	2020-10-29T19:03:59:531
0,000000	0,000000	0,000000	0,000000	2020-10-29T19:03:59:572
0,000000	0,000000	0,000000	0,000000	2020-10-29T19:03:59:611
0,000000	0,000000	0,000000	0,000000	2020-10-29T19:03:59:653
0,000000	0,000000	0,000000	0,000000	2020-10-29T19:03:59:693
0,000000	0,000000	0,000000	0,000000	2020-10-29T19:03:59:731
0,000000	0,000000	0,000000	0,000000	2020-10-29T19:03:59:771
0,000000	0,000000	0,000000	0,000000	2020-10-29T19:03:59:812
0,000000	0,000000	0,000000	0,000000	2020-10-29T19:03:59:851
0,000000	0,000000	0,000000	0,000000	2020-10-29T19:03:59:892
0,000000	0,000000	0,000000	0,000000	2020-10-29T19:03:59:931
0,000000	0,000000	0,000000	0,000000	2020-10-29T19:03:59:972
0,000000	0,000000	0,000000	0,000000	2020-10-29T19:04:00:011
0,000000	0,000000	0,000000	0,000000	2020-10-29T19:04:00:052
0,000000	0,000000	0,000000	0,000000	2020-10-29T19:04:00:092
0,000000	0,000000	0,000000	0,000000	2020-10-29T19:04:00:132
0,000000	0,000000	0,000000	0,000000	2020-10-29T19:04:00:170
0,000000	0,000000	0,000000	0,000000	2020-10-29T19:04:00:211
0,000000	0,000000	0,000000	0,000000	2020-10-29T19:04:00:251
0,000000	0,000000	0,000000	0,000000	2020-10-29T19:04:00:293
0,000000	0,000000	0,000000	0,000000	2020-10-29T19:04:00:331
0,000000	0,000000	0,000000	0,000000	2020-10-29T19:04:00:372
0,000000	0,000000	0,000000	0,000000	2020-10-29T19:04:00:412
0,000000	0,000000	0,000000	0,000000	2020-10-29T19:04:00:452
0,000000	0,000000	0,000000	0,000000	2020-10-29T19:04:00:492
0,000000	0,000000	0,000000	0,000000	2020-10-29T19:04:00:533
0,000000	0,000000	0,000000	0,000000	2020-10-29T19:04:00:571
0,000000	0,000000	0,000000	0,000000	2020-10-29T19:04:00:613
0,000000	0,000000	0,000000	0,000000	2020-10-29T19:04:00:652
0,000000	0,000000	0,000000	0,000000	2020-10-29T19:04:00:693
0,000000	0,000000	0,000000	0,000000	2020-10-29T19:04:00:731
0,000000	0,000000	0,000000	0,000000	2020-10-29T19:04:00:773
0,000000	0,000000	0,000000	0,000000	2020-10-29T19:04:00:812
0,000000	0,000000	0,000000	0,000000	2020-10-29T19:04:00:853
0,000000	0,000000	0,000000	0,000000	2020-10-29T19:04:00:892
0,000000	0,000000	0,000000	0,000000	2020-10-29T19:04:00:933
0,000000	0,000000	0,000000	0,000000	2020-10-29T19:04:00:972
0,000000	0,000000	0,000000	0,000000	2020-10-29T19:04:01:013
0,000000	0,000000	0,000000	0,000000	2020-10-29T19:04:01:052
0,000000	0,000000	0,000000	0,000000	2020-10-29T19:04:01:093
0,000000	0,000000	0,000000	0,000000	2020-10-29T19:04:01:132
0,000000	0,000000	0,000000	0,000000	2020-10-29T19:04:01:173
67,000000	0,000000	0,000000	0,000000	2020-10-29T19:04:01:213
67,000000	0,000000	0,000000	0,000000	2020-10-29T19:04:01:252
67,000000	0,000000	0,000000	0,000000	2020-10-29T19:04:01:293
67,000000	0,000000	0,000000	0,000000	2020-10-29T19:04:01:332
67,000000	0,000000	0,000000	0,000000	2020-10-29T19:04:01:373
67,000000	0,000000	0,000000	0,000000	2020-10-29T19:04:01:412
67,000000	0,000000	0,000000	0,000000	2020-10-29T19:04:01:452
67,000000	0,000000	0,000000	0,000000	2020-10-29T19:04:01:494
67,000000	0,000000	0,000000	0,000000	2020-10-29T19:04:01:532
67,000000	0,000000	0,000000	0,000000	2020-10-29T19:04:01:572
67,000000	0,000000	0,000000	0,000000	2020-10-29T19:04:01:614
67,000000	0,000000	0,000000	0,000000	2020-10-29T19:04:01:653
67,000000	0,000000	0,000000	0,000000	2020-10-29T19:04:01:694
67,000000	0,000000	0,000000	0,000000	2020-10-29T19:04:01:733
67,000000	0,000000	0,000000	0,000000	2020-10-29T19:04:01:773
67,000000	0,000000	0,000000	0,000000	2020-10-29T19:04:01:813
67,000000	0,000000	0,000000	0,000000	2020-10-29T19:04:01:853
67,000000	0,000000	0,000000	0,000000	2020-10-29T19:04:01:892
67,000000	0,000000	0,000000	0,000000	2020-10-29T19:04:01:933
67,000000	0,000000	0,000000	0,000000	2020-10-29T19:04:01:973
67,000000	0,000000	0,000000	0,000000	2020-10-29T19:04:02:013
67,000000	0,000000	0,000000	0,000000	2020-10-29T19:04:02:053
67,000000	0,000000	0,000000	0,000000	2020-10-29T19:04:02:093
67,000000	0,000000	0,000000	0,000000	2020-10-29T19:04:02:133
67,000000	0,000000	0,000000	0,000000	2020-10-29T19:04:02:173
67,000000	0,000000	0,000000	0,000000	2020-10-29T19:04:02:213
67,000000	0,000000	0,000000	0,000000	2020-10-29T19:04:02:253
67,000000	0,000000	0,000000	0,000000	2020-10-29T19:04:02:293
67,000000	0,000000	0,000000	0,000000	2020-10-29T19:04:02:334
67,000000	0,000000	0,000000	0,000000	2020-10-29T19:04:02:373
67,000000	0,000000	0,000000	0,000000	2020-10-29T19:04:02:413
67,000000	0,000000	0,000000	0,000000	2020-10-29T19:04:02:453
67,000000	0,000000	0,000000	0,000000	2020-10-29T19:04:02:493
67,000000	0,000000	0,000000	0,000000	2020-10-29T19:04:02:533
67,000000	0,000000	0,000000	0,000000	2020-10-29T19:04:02:574
67,000000	0,000000	0,000000	0,000000	2020-10-29T19:04:02:613
67,000000	0,000000	0,000000	0,000000	2020-10-29T19:04:02:653
67,000000	0,000000	0,000000	0,000000	2020-10-29T19:04:02:694
67,000000	0,000000	0,000000	0,000000	2020-10-29T19:04:02:733
67,000000	0,000000	0,000000	0,000000	2020-10-29T19:04:02:774
67,000000	0,000000	0,000000	0,000000	2020-10-29T19:04:02:813
67,000000	0,000000	0,000000	0,000000	2020-10-29T19:04:02:853
67,000000	0,000000	0,000000	0,000000	2020-10-29T19:04:02:893
67,000000	0,000000	0,000000	0,000000	2020-10-29T19:04:02:934
67,000000	0,000000	0,000000	0,000000	2020-10-29T19:04:02:974
67,000000	0,000000	0,000000	0,000000	2020-10-29T19:04:03:013
67,000000	0,000000	0,000000	0,000000	2020-10-29T19:04:03:054
67,000000	0,000000	0,000000	0,000000	2020-10-29T19:04:03:094
67,000000	0,000000	0,000000	0,000000	2020-10-29T19:04:03:134
67,000000	0,000000	0,000000	0,000000	2020-10-29T19:04:03:174
67,000000	0,000000	0,000000	0,000000	2020-10-29T19:04:03:214
67,000000	0,000000	0,000000	0,000000	2020-10-29T19:04:03:253
67,000000	0,000000	0,000000	0,000000	2020-10-29T19:04:03:294
67,000000	0,000000	0,000000	0,000000	2020-10-29T19:04:03:334
67,000000	0,000000	0,000000	0,000000	2020-10-29T19:04:03:374
67,000000	0,000000	0,000000	0,000000	2020-10-29T19:04:03:415
67,000000	0,000000	0,000000	0,000000	2020-10-29T19:04:03:454
67,000000	0,000000	0,000000	0,000000	2020-10-29T19:04:03:494
67,000000	0,000000	0,000000	0,000000	2020-10-29T19:04:03:534
67,000000	0,000000	0,000000	0,000000	2020-10-29T19:04:03:574
67,000000	0,000000	0,000000	0,000000	2020-10-29T19:04:03:614
67,000000	0,000000	0,000000	0,000000	2020-10-29T19:04:03:654
67,000000	0,000000	0,000000	0,000000	2020-10-29T19:04:03:694
67,000000	0,000000	0,000000	0,000000	2020-10-29T19:04:03:734
67,000000	0,000000	0,000000	0,000000	2020-10-29T19:04:03:774
67,000000	0,000000	0,000000	0,000000	2020-10-29T19:04:03:814
67,000000	0,000000	0,000000	0,000000	2020-10-29T19:04:03:854
67,000000	0,000000	0,000000	0,000000	2020-10-29T19:04:03:895
67,000000	0,000000	0,000000	0,000000	2020-10-29T19:04:03:934
67,000000	0,000000	0,000000	0,000000	2020-10-29T19:04:03:975
67,000000	0,000000	816,000000	0,000000	2020-10-29T19:04:04:015
67,000000	0,000000	816,000000	0,000000	2020-10-29T19:04:04:054
67,000000	0,000000	816,000000	0,000000	2020-10-29T19:04:04:095
67,000000	0,000000	816,000000	0,000000	2020-10-29T19:04:04:135
67,000000	0,000000	816,000000	0,000000	2020-10-29T19:04:04:175
67,000000	0,000000	816,000000	0,000000	2020-10-29T19:04:04:215
67,000000	0,000000	816,000000	0,000000	2020-10-29T19:04:04:255
67,000000	0,000000	816,000000	0,000000	2020-10-29T19:04:04:295
67,000000	0,000000	816,000000	0,000000	2020-10-29T19:04:04:335
67,000000	0,000000	816,000000	0,000000	2020-10-29T19:04:04:375
67,000000	0,000000	816,000000	0,000000	2020-10-29T19:04:04:415
67,000000	0,000000	816,000000	0,000000	2020-10-29T19:04:04:455
67,000000	0,000000	816,000000	0,000000	2020-10-29T19:04:04:495
67,000000	0,000000	816,000000	0,000000	2020-10-29T19:04:04:535
67,000000	0,000000	816,000000	0,000000	2020-10-29T19:04:04:575
67,000000	0,000000	816,000000	0,000000	2020-10-29T19:04:04:614
67,000000	0,000000	816,000000	0,000000	2020-10-29T19:04:04:655
67,000000	0,000000	816,000000	0,000000	2020-10-29T19:04:04:696
67,000000	0,000000	816,000000	0,000000	2020-10-29T19:04:04:736
67,000000	0,000000	816,000000	0,000000	2020-10-29T19:04:04:775
67,000000	0,000000	816,000000	0,000000	2020-10-29T19:04:04:816
67,000000	0,000000	881,000000	0,000000	2020-10-29T19:04:04:855
67,000000	0,000000	881,000000	0,000000	2020-10-29T19:04:04:896
67,000000	0,000000	881,000000	0,000000	2020-10-29T19:04:04:936
67,000000	0,000000	881,000000	0,000000	2020-10-29T19:04:04:976
67,000000	0,000000	881,000000	0,000000	2020-10-29T19:04:05:246
67,000000	0,000000	881,000000	0,000000	2020-10-29T19:04:05:247
67,000000	0,000000	881,000000	0,000000	2020-10-29T19:04:05:248
67,000000	0,000000	881,000000	0,000000	2020-10-29T19:04:05:249
67,000000	0,000000	881,000000	0,000000	2020-10-29T19:04:05:253
67,000000	0,000000	881,000000	0,000000	2020-10-29T19:04:05:265
67,000000	0,000000	881,000000	0,000000	2020-10-29T19:04:05:267
67,000000	0,000000	881,000000	0,000000	2020-10-29T19:04:05:294
67,000000	0,000000	881,000000	0,000000	2020-10-29T19:04:05:335
67,000000	0,000000	881,000000	0,000000	2020-10-29T19:04:05:376
67,000000	0,000000	881,000000	0,000000	2020-10-29T19:04:05:416
67,000000	0,000000	881,000000	0,000000	2020-10-29T19:04:05:456
67,000000	0,000000	881,000000	0,000000	2020-10-29T19:04:05:495
67,000000	0,000000	881,000000	0,000000	2020-10-29T19:04:05:536
67,000000	0,000000	881,000000	0,000000	2020-10-29T19:04:05:577
67,000000	0,000000	881,000000	0,000000	2020-10-29T19:04:05:648
67,000000	0,000000	881,000000	0,000000	2020-10-29T19:04:05:669
67,000000	0,000000	857,000000	0,000000	2020-10-29T19:04:05:698
67,000000	0,000000	857,000000	0,000000	2020-10-29T19:04:05:816
67,000000	0,000000	857,000000	0,000000	2020-10-29T19:04:05:855
67,000000	0,000000	857,000000	0,000000	2020-10-29T19:04:05:902
67,000000	0,000000	857,000000	0,000000	2020-10-29T19:04:05:937
67,000000	0,000000	857,000000	0,000000	2020-10-29T19:04:05:975
67,000000	0,000000	857,000000	0,000000	2020-10-29T19:04:06:017
67,000000	0,000000	857,000000	0,000000	2020-10-29T19:04:06:057
67,000000	0,000000	812,000000	0,000000	2020-10-29T19:04:10:141
67,000000	0,000000	812,000000	0,000000	2020-10-29T19:04:10:143
67,000000	0,000000	812,000000	0,000000	2020-10-29T19:04:10:183
67,000000	0,000000	812,000000	0,000000	2020-10-29T19:04:10:219
67,000000	0,000000	812,000000	0,000000	2020-10-29T19:04:10:258
67,000000	0,000000	812,000000	0,000000	2020-10-29T19:04:10:299
67,000000	0,000000	812,000000	0,000000	2020-10-29T19:04:10:340
67,000000	0,000000	812,000000	0,000000	2020-10-29T19:04:10:379
67,000000	0,000000	812,000000	0,000000	2020-10-29T19:04:10:419
67,000000	0,000000	812,000000	0,000000	2020-10-29T19:04:10:458
67,000000	0,000000	812,000000	0,000000	2020-10-29T19:04:10:500
67,000000	0,000000	812,000000	0,000000	2020-10-29T19:04:10:539
67,000000	0,000000	812,000000	0,000000	2020-10-29T19:04:10:579
67,000000	0,000000	961,000000	0,000000	2020-10-29T19:04:10:619
67,000000	0,000000	961,000000	0,000000	2020-10-29T19:04:10:659
67,000000	0,000000	961,000000	0,000000	2020-10-29T19:04:10:699
67,000000	0,000000	961,000000	0,000000	2020-10-29T19:04:10:739
67,000000	0,000000	961,000000	0,000000	2020-10-29T19:04:10:779
67,000000	0,000000	961,000000	0,000000	2020-10-29T19:04:10:819
67,000000	0,000000	961,000000	0,000000	2020-10-29T19:04:10:859
67,000000	0,000000	961,000000	0,000000	2020-10-29T19:04:10:899
67,000000	0,000000	961,000000	0,000000	2020-10-29T19:04:10:940
67,000000	0,000000	961,000000	0,000000	2020-10-29T19:04:10:979
67,000000	0,000000	961,000000	0,000000	2020-10-29T19:04:11:020
67,000000	0,000000	961,000000	0,000000	2020-10-29T19:04:11:060
67,000000	0,000000	961,000000	0,000000	2020-10-29T19:04:11:099
67,000000	0,000000	961,000000	0,000000	2020-10-29T19:04:11:140
67,000000	0,000000	961,000000	0,000000	2020-10-29T19:04:11:180
67,000000	0,000000	961,000000	0,000000	2020-10-29T19:04:11:219
67,000000	0,000000	961,000000	0,000000	2020-10-29T19:04:11:260
67,000000	0,000000	961,000000	0,000000	2020-10-29T19:04:11:299
67,000000	0,000000	961,000000	0,000000	2020-10-29T19:04:11:340
67,000000	0,000000	961,000000	0,000000	2020-10-29T19:04:11:380
67,000000	0,000000	961,000000	0,000000	2020-10-29T19:04:11:420
67,000000	0,000000	961,000000	0,000000	2020-10-29T19:04:11:459
67,000000	0,000000	961,000000	0,000000	2020-10-29T19:04:11:500
67,000000	0,000000	961,000000	0,000000	2020-10-29T19:04:11:540
67,000000	0,000000	961,000000	0,000000	2020-10-29T19:04:11:580
67,000000	0,000000	961,000000	0,000000	2020-10-29T19:04:11:620
67,000000	0,000000	961,000000	0,000000	2020-10-29T19:04:11:660
67,000000	0,000000	961,000000	0,000000	2020-10-29T19:04:11:700
67,000000	0,000000	961,000000	0,000000	2020-10-29T19:04:11:742
67,000000	0,000000	961,000000	0,000000	2020-10-29T19:04:11:780
67,000000	0,000000	961,000000	0,000000	2020-10-29T19:04:11:820
67,000000	0,000000	961,000000	0,000000	2020-10-29T19:04:11:860
67,000000	0,000000	961,000000	0,000000	2020-10-29T19:04:11:900
67,000000	0,000000	961,000000	0,000000	2020-10-29T19:04:11:942
67,000000	0,000000	961,000000	0,000000	2020-10-29T19:04:11:981
67,000000	0,000000	961,000000	0,000000	2020-10-29T19:04:12:021
67,000000	0,000000	961,000000	0,000000	2020-10-29T19:04:12:060
67,000000	0,000000	961,000000	0,000000	2020-10-29T19:04:12:100
67,000000	0,000000	961,000000	0,000000	2020-10-29T19:04:12:142
67,000000	0,000000	961,000000	0,000000	2020-10-29T19:04:12:181
67,000000	0,000000	961,000000	0,000000	2020-10-29T19:04:12:221
67,000000	0,000000	961,000000	0,000000	2020-10-29T19:04:12:260
67,000000	0,000000	885,000000	0,000000	2020-10-29T19:04:12:301
67,000000	0,000000	885,000000	0,000000	2020-10-29T19:04:12:341
67,000000	0,000000	885,000000	0,000000	2020-10-29T19:04:12:380
67,000000	0,000000	885,000000	0,000000	2020-10-29T19:04:12:420
67,000000	0,000000	885,000000	0,000000	2020-10-29T19:04:12:461
67,000000	0,000000	885,000000	0,000000	2020-10-29T19:04:12:501
67,000000	0,000000	885,000000	0,000000	2020-10-29T19:04:12:540
67,000000	0,000000	885,000000	0,000000	2020-10-29T19:04:12:581
67,000000	0,000000	885,000000	0,000000	2020-10-29T19:04:12:621
67,000000	0,000000	885,000000	0,000000	2020-10-29T19:04:12:661
67,000000	0,000000	885,000000	0,000000	2020-10-29T19:04:12:701
67,000000	0,000000	885,000000	0,000000	2020-10-29T19:04:12:742
67,000000	0,000000	885,000000	0,000000	2020-10-29T19:04:12:781
67,000000	0,000000	885,000000	0,000000	2020-10-29T19:04:12:821
67,000000	0,000000	885,000000	0,000000	2020-10-29T19:04:12:862
67,000000	0,000000	885,000000	0,000000	2020-10-29T19:04:12:901
67,000000	0,000000	885,000000	0,000000	2020-10-29T19:04:12:942
67,000000	0,000000	885,000000	0,000000	2020-10-29T19:04:12:982
67,000000	0,000000	885,000000	0,000000	2020-10-29T19:04:13:021
67,000000	0,000000	885,000000	0,000000	2020-10-29T19:04:13:061
67,000000	0,000000	885,000000	0,000000	2020-10-29T19:04:13:102
67,000000	0,000000	885,000000	0,000000	2020-10-29T19:04:13:142
67,000000	0,000000	885,000000	0,000000	2020-10-29T19:04:13:182
67,000000	0,000000	885,000000	0,000000	2020-10-29T19:04:13:221
67,000000	0,000000	885,000000	0,000000	2020-10-29T19:04:13:261
67,000000	0,000000	885,000000	0,000000	2020-10-29T19:04:13:301
67,000000	0,000000	885,000000	0,000000	2020-10-29T19:04:13:342
67,000000	0,000000	885,000000	0,000000	2020-10-29T19:04:13:382
67,000000	0,000000	867,000000	0,000000	2020-10-29T19:04:13:422
67,000000	0,000000	867,000000	0,000000	2020-10-29T19:04:13:462
67,000000	0,000000	867,000000	0,000000	2020-10-29T19:04:13:502
67,000000	0,000000	867,000000	0,000000	2020-10-29T19:04:13:542
67,000000	0,000000	867,000000	0,000000	2020-10-29T19:04:13:582
67,000000	0,000000	867,000000	0,000000	2020-10-29T19:04:13:621
67,000000	0,000000	867,000000	0,000000	2020-10-29T19:04:13:662
67,000000	0,000000	867,000000	0,000000	2020-10-29T19:04:13:702
67,000000	0,000000	867,000000	0,000000	2020-10-29T19:04:13:742
67,000000	0,000000	867,000000	0,000000	2020-10-29T19:04:13:782
67,000000	0,000000	867,000000	0,000000	2020-10-29T19:04:13:822
67,000000	0,000000	867,000000	0,000000	2020-10-29T19:04:13:863
67,000000	0,000000	867,000000	0,000000	2020-10-29T19:04:13:902
67,000000	0,000000	867,000000	0,000000	2020-10-29T19:04:13:943
67,000000	0,000000	867,000000	0,000000	2020-10-29T19:04:13:982
67,000000	0,000000	867,000000	0,000000	2020-10-29T19:04:14:022
67,000000	0,000000	867,000000	0,000000	2020-10-29T19:04:14:062
67,000000	0,000000	867,000000	0,000000	2020-10-29T19:04:14:102
67,000000	0,000000	867,000000	0,000000	2020-10-29T19:04:14:143
67,000000	0,000000	867,000000	0,000000	2020-10-29T19:04:14:183
67,000000	0,000000	867,000000	0,000000	2020-10-29T19:04:14:222
67,000000	0,000000	957,000000	0,000000	2020-10-29T19:04:14:263
67,000000	0,000000	957,000000	0,000000	2020-10-29T19:04:14:303
67,000000	0,000000	957,000000	0,000000	2020-10-29T19:04:14:342
67,000000	0,000000	957,000000	0,000000	2020-10-29T19:04:14:383
66,000000	0,000000	957,000000	0,000000	2020-10-29T19:04:14:423
66,000000	0,000000	957,000000	0,000000	2020-10-29T19:04:14:463
67,000000	0,000000	957,000000	0,000000	2020-10-29T19:04:14:503
67,000000	0,000000	957,000000	0,000000	2020-10-29T19:04:14:543
67,000000	0,000000	957,000000	0,000000	2020-10-29T19:04:14:583
67,000000	0,000000	957,000000	0,000000	2020-10-29T19:04:14:623
66,000000	0,000000	957,000000	0,000000	2020-10-29T19:04:14:663
66,000000	0,000000	957,000000	0,000000	2020-10-29T19:04:14:703
67,000000	0,000000	957,000000	0,000000	2020-10-29T19:04:14:744
67,000000	0,000000	957,000000	0,000000	2020-10-29T19:04:14:784
67,000000	0,000000	957,000000	0,000000	2020-10-29T19:04:14:824
67,000000	0,000000	957,000000	0,000000	2020-10-29T19:04:14:864
66,000000	0,000000	957,000000	0,000000	2020-10-29T19:04:14:904
66,000000	0,000000	957,000000	0,000000	2020-10-29T19:04:14:942
66,000000	0,000000	957,000000	0,000000	2020-10-29T19:04:14:985
66,000000	0,000000	957,000000	0,000000	2020-10-29T19:04:15:024
66,000000	0,000000	957,000000	0,000000	2020-10-29T19:04:15:064
66,000000	0,000000	957,000000	0,000000	2020-10-29T19:04:15:105
66,000000	0,000000	957,000000	0,000000	2020-10-29T19:04:15:147
66,000000	0,000000	957,000000	0,000000	2020-10-29T19:04:15:183
66,000000	0,000000	957,000000	0,000000	2020-10-29T19:04:15:225
66,000000	0,000000	957,000000	0,000000	2020-10-29T19:04:15:264
66,000000	0,000000	957,000000	0,000000	2020-10-29T19:04:15:305
66,000000	0,000000	957,000000	0,000000	2020-10-29T19:04:15:344
66,000000	0,000000	1006,000000	0,000000	2020-10-29T19:04:15:385
66,000000	0,000000	1006,000000	0,000000	2020-10-29T19:04:15:424
66,000000	0,000000	1006,000000	0,000000	2020-10-29T19:04:15:465
66,000000	0,000000	1006,000000	0,000000	2020-10-29T19:04:15:503
66,000000	0,000000	1006,000000	0,000000	2020-10-29T19:04:15:545
66,000000	0,000000	1006,000000	0,000000	2020-10-29T19:04:15:584
66,000000	0,000000	1006,000000	0,000000	2020-10-29T19:04:15:625
66,000000	0,000000	1006,000000	0,000000	2020-10-29T19:04:15:664
66,000000	0,000000	1006,000000	0,000000	2020-10-29T19:04:15:705
66,000000	0,000000	1006,000000	0,000000	2020-10-29T19:04:15:744
66,000000	0,000000	1006,000000	0,000000	2020-10-29T19:04:15:785
66,000000	0,000000	1006,000000	0,000000	2020-10-29T19:04:15:824
66,000000	0,000000	1006,000000	0,000000	2020-10-29T19:04:15:865
66,000000	0,000000	1006,000000	0,000000	2020-10-29T19:04:15:904
66,000000	0,000000	1006,000000	0,000000	2020-10-29T19:04:15:945
66,000000	0,000000	1006,000000	0,000000	2020-10-29T19:04:15:985
66,000000	0,000000	1006,000000	0,000000	2020-10-29T19:04:16:025
66,000000	0,000000	1006,000000	0,000000	2020-10-29T19:04:16:064
66,000000	0,000000	1006,000000	0,000000	2020-10-29T19:04:16:105
66,000000	0,000000	1006,000000	0,000000	2020-10-29T19:04:16:145
66,000000	0,000000	1006,000000	0,000000	2020-10-29T19:04:16:186
66,000000	0,000000	897,000000	0,000000	2020-10-29T19:04:16:224
66,000000	0,000000	897,000000	0,000000	2020-10-29T19:04:16:265
66,000000	0,000000	897,000000	0,000000	2020-10-29T19:04:16:304
66,000000	0,000000	897,000000	0,000000	2020-10-29T19:04:16:345
66,000000	0,000000	897,000000	0,000000	2020-10-29T19:04:16:384
66,000000	0,000000	897,000000	0,000000	2020-10-29T19:04:16:426
66,000000	0,000000	897,000000	0,000000	2020-10-29T19:04:16:465
66,000000	0,000000	897,000000	0,000000	2020-10-29T19:04:16:505
66,000000	0,000000	897,000000	0,000000	2020-10-29T19:04:16:559
66,000000	0,000000	897,000000	0,000000	2020-10-29T19:04:16:587
66,000000	0,000000	897,000000	0,000000	2020-10-29T19:04:16:625
66,000000	0,000000	897,000000	0,000000	2020-10-29T19:04:16:666
66,000000	0,000000	897,000000	0,000000	2020-10-29T19:04:16:705
66,000000	0,000000	897,000000	0,000000	2020-10-29T19:04:16:748
66,000000	0,000000	897,000000	0,000000	2020-10-29T19:04:16:785
66,000000	0,000000	897,000000	0,000000	2020-10-29T19:04:16:827
66,000000	0,000000	897,000000	0,000000	2020-10-29T19:04:16:865
66,000000	0,000000	897,000000	0,000000	2020-10-29T19:04:16:906
66,000000	0,000000	897,000000	0,000000	2020-10-29T19:04:16:946
66,000000	0,000000	897,000000	0,000000	2020-10-29T19:04:16:985
66,000000	0,000000	897,000000	0,000000	2020-10-29T19:04:17:025
66,000000	0,000000	892,000000	0,000000	2020-10-29T19:04:17:066
66,000000	0,000000	892,000000	0,000000	2020-10-29T19:04:17:105
66,000000	0,000000	892,000000	0,000000	2020-10-29T19:04:17:147
66,000000	0,000000	892,000000	0,000000	2020-10-29T19:04:17:186
66,000000	0,000000	892,000000	0,000000	2020-10-29T19:04:17:230
66,000000	0,000000	892,000000	0,000000	2020-10-29T19:04:17:265
66,000000	0,000000	892,000000	0,000000	2020-10-29T19:04:17:306
66,000000	0,000000	892,000000	0,000000	2020-10-29T19:04:17:346
66,000000	0,000000	892,000000	0,000000	2020-10-29T19:04:17:386
66,000000	0,000000	892,000000	0,000000	2020-10-29T19:04:17:426
66,000000	0,000000	892,000000	0,000000	2020-10-29T19:04:17:467
66,000000	0,000000	892,000000	0,000000	2020-10-29T19:04:17:506
66,000000	0,000000	892,000000	0,000000	2020-10-29T19:04:17:547
66,000000	0,000000	892,000000	0,000000	2020-10-29T19:04:17:586
67,000000	0,000000	892,000000	0,000000	2020-10-29T19:04:17:627
67,000000	0,000000	892,000000	0,000000	2020-10-29T19:04:17:666
67,000000	0,000000	892,000000	0,000000	2020-10-29T19:04:17:707
67,000000	0,000000	892,000000	0,000000	2020-10-29T19:04:17:745
67,000000	0,000000	892,000000	0,000000	2020-10-29T19:04:17:787
67,000000	0,000000	892,000000	0,000000	2020-10-29T19:04:17:827
67,000000	0,000000	892,000000	0,000000	2020-10-29T19:04:17:867
67,000000	0,000000	892,000000	0,000000	2020-10-29T19:04:17:906
67,000000	0,000000	892,000000	0,000000	2020-10-29T19:04:17:947
67,000000	0,000000	892,000000	0,000000	2020-10-29T19:04:17:987
67,000000	0,000000	892,000000	0,000000	2020-10-29T19:04:18:027
67,000000	0,000000	892,000000	0,000000	2020-10-29T19:04:18:066
67,000000	0,000000	892,000000	0,000000	2020-10-29T19:04:18:107
67,000000	0,000000	892,000000	0,000000	2020-10-29T19:04:18:147
67,000000	0,000000	812,000000	0,000000	2020-10-29T19:04:18:187
67,000000	0,000000	812,000000	0,000000	2020-10-29T19:04:18:227
67,000000	0,000000	812,000000	0,000000	2020-10-29T19:04:18:267
67,000000	0,000000	812,000000	0,000000	2020-10-29T19:04:18:306
67,000000	0,000000	812,000000	0,000000	2020-10-29T19:04:18:348
67,000000	0,000000	812,000000	0,000000	2020-10-29T19:04:18:387
67,000000	0,000000	812,000000	0,000000	2020-10-29T19:04:18:427
67,000000	0,000000	812,000000	0,000000	2020-10-29T19:04:18:466
67,000000	0,000000	812,000000	0,000000	2020-10-29T19:04:18:507
67,000000	0,000000	812,000000	0,000000	2020-10-29T19:04:18:546
67,000000	0,000000	812,000000	0,000000	2020-10-29T19:04:18:588
67,000000	0,000000	812,000000	0,000000	2020-10-29T19:04:18:627
67,000000	0,000000	812,000000	0,000000	2020-10-29T19:04:18:667
67,000000	0,000000	812,000000	0,000000	2020-10-29T19:04:18:707
67,000000	0,000000	812,000000	0,000000	2020-10-29T19:04:18:748
67,000000	0,000000	812,000000	0,000000	2020-10-29T19:04:18:787
67,000000	0,000000	812,000000	0,000000	2020-10-29T19:04:18:828
67,000000	0,000000	812,000000	0,000000	2020-10-29T19:04:18:867
67,000000	0,000000	812,000000	0,000000	2020-10-29T19:04:18:908
67,000000	0,000000	812,000000	0,000000	2020-10-29T19:04:18:948
67,000000	0,000000	812,000000	0,000000	2020-10-29T19:04:18:988
67,000000	0,000000	812,000000	0,000000	2020-10-29T19:04:19:027
67,000000	0,000000	812,000000	0,000000	2020-10-29T19:04:19:068
67,000000	0,000000	812,000000	0,000000	2020-10-29T19:04:19:107
67,000000	0,000000	812,000000	0,000000	2020-10-29T19:04:19:148
67,000000	0,000000	812,000000	0,000000	2020-10-29T19:04:19:188
67,000000	0,000000	812,000000	0,000000	2020-10-29T19:04:19:227
67,000000	0,000000	812,000000	0,000000	2020-10-29T19:04:19:267
67,000000	0,000000	812,000000	0,000000	2020-10-29T19:04:19:309
67,000000	0,000000	812,000000	0,000000	2020-10-29T19:04:19:348
67,000000	0,000000	812,000000	0,000000	2020-10-29T19:04:19:389
67,000000	0,000000	812,000000	0,000000	2020-10-29T19:04:19:428
67,000000	0,000000	812,000000	0,000000	2020-10-29T19:04:19:468
67,000000	0,000000	812,000000	0,000000	2020-10-29T19:04:19:507
67,000000	0,000000	812,000000	0,000000	2020-10-29T19:04:19:549
67,000000	0,000000	812,000000	0,000000	2020-10-29T19:04:19:588
67,000000	0,000000	812,000000	0,000000	2020-10-29T19:04:19:629
67,000000	0,000000	812,000000	0,000000	2020-10-29T19:04:19:668
67,000000	0,000000	812,000000	0,000000	2020-10-29T19:04:19:709
67,000000	0,000000	812,000000	0,000000	2020-10-29T19:04:19:748
67,000000	0,000000	812,000000	0,000000	2020-10-29T19:04:19:789
67,000000	0,000000	812,000000	0,000000	2020-10-29T19:04:19:828
68,000000	0,000000	812,000000	0,000000	2020-10-29T19:04:19:869
68,000000	0,000000	812,000000	0,000000	2020-10-29T19:04:19:908
68,000000	0,000000	812,000000	0,000000	2020-10-29T19:04:19:949
67,000000	0,000000	812,000000	0,000000	2020-10-29T19:04:19:988
67,000000	0,000000	812,000000	0,000000	2020-10-29T19:04:20:029
68,000000	0,000000	812,000000	0,000000	2020-10-29T19:04:20:068
68,000000	0,000000	812,000000	0,000000	2020-10-29T19:04:20:109
68,000000	0,000000	888,000000	0,000000	2020-10-29T19:04:20:151
67,000000	0,000000	888,000000	0,000000	2020-10-29T19:04:20:190
67,000000	0,000000	888,000000	0,000000	2020-10-29T19:04:20:228
67,000000	0,000000	888,000000	0,000000	2020-10-29T19:04:20:270
67,000000	0,000000	888,000000	0,000000	2020-10-29T19:04:20:308
68,000000	0,000000	888,000000	0,000000	2020-10-29T19:04:20:349
68,000000	0,000000	888,000000	0,000000	2020-10-29T19:04:20:389
68,000000	0,000000	888,000000	0,000000	2020-10-29T19:04:20:430
67,000000	0,000000	888,000000	0,000000	2020-10-29T19:04:20:469
67,000000	0,000000	888,000000	0,000000	2020-10-29T19:04:20:511
68,000000	0,000000	888,000000	0,000000	2020-10-29T19:04:20:549
68,000000	0,000000	888,000000	0,000000	2020-10-29T19:04:20:590
68,000000	0,000000	888,000000	0,000000	2020-10-29T19:04:20:629
68,000000	0,000000	888,000000	0,000000	2020-10-29T19:04:20:670
68,000000	0,000000	888,000000	0,000000	2020-10-29T19:04:20:709
67,000000	0,000000	888,000000	0,000000	2020-10-29T19:04:20:750
67,000000	0,000000	888,000000	0,000000	2020-10-29T19:04:20:788
67,000000	0,000000	888,000000	0,000000	2020-10-29T19:04:20:830
67,000000	0,000000	888,000000	0,000000	2020-10-29T19:04:20:869
67,000000	0,000000	888,000000	0,000000	2020-10-29T19:04:20:910
67,000000	0,000000	888,000000	0,000000	2020-10-29T19:04:20:950
67,000000	0,000000	888,000000	0,000000	2020-10-29T19:04:20:990
67,000000	0,000000	888,000000	0,000000	2020-10-29T19:04:21:030
67,000000	0,000000	888,000000	0,000000	2020-10-29T19:04:21:071
67,000000	0,000000	888,000000	0,000000	2020-10-29T19:04:21:111
67,000000	0,000000	888,000000	0,000000	2020-10-29T19:04:21:152
67,000000	0,000000	888,000000	0,000000	2020-10-29T19:04:21:190
67,000000	0,000000	888,000000	0,000000	2020-10-29T19:04:21:231
67,000000	0,000000	967,000000	0,000000	2020-10-29T19:04:21:270
67,000000	0,000000	967,000000	0,000000	2020-10-29T19:04:21:311
67,000000	0,000000	967,000000	0,000000	2020-10-29T19:04:21:350
67,000000	0,000000	967,000000	0,000000	2020-10-29T19:04:21:392
67,000000	0,000000	967,000000	0,000000	2020-10-29T19:04:21:430
67,000000	0,000000	967,000000	0,000000	2020-10-29T19:04:21:471
67,000000	0,000000	967,000000	0,000000	2020-10-29T19:04:21:512
67,000000	0,000000	967,000000	0,000000	2020-10-29T19:04:21:551
67,000000	0,000000	967,000000	0,000000	2020-10-29T19:04:21:589
67,000000	0,000000	967,000000	0,000000	2020-10-29T19:04:21:631
67,000000	0,000000	967,000000	0,000000	2020-10-29T19:04:21:670
67,000000	0,000000	967,000000	0,000000	2020-10-29T19:04:21:711
67,000000	0,000000	967,000000	0,000000	2020-10-29T19:04:21:751
67,000000	0,000000	967,000000	0,000000	2020-10-29T19:04:21:791
66,000000	0,000000	967,000000	0,000000	2020-10-29T19:04:21:829
66,000000	0,000000	967,000000	0,000000	2020-10-29T19:04:21:871
66,000000	0,000000	967,000000	0,000000	2020-10-29T19:04:21:909
66,000000	0,000000	967,000000	0,000000	2020-10-29T19:04:21:950
66,000000	0,000000	967,000000	0,000000	2020-10-29T19:04:21:991
66,000000	0,000000	967,000000	0,000000	2020-10-29T19:04:22:031
66,000000	0,000000	967,000000	0,000000	2020-10-29T19:04:22:070
66,000000	0,000000	967,000000	0,000000	2020-10-29T19:04:22:111
66,000000	0,000000	967,000000	0,000000	2020-10-29T19:04:22:151
66,000000	0,000000	967,000000	0,000000	2020-10-29T19:04:22:192
66,000000	0,000000	967,000000	0,000000	2020-10-29T19:04:22:230
66,000000	0,000000	967,000000	0,000000	2020-10-29T19:04:22:271
66,000000	0,000000	967,000000	0,000000	2020-10-29T19:04:22:311
66,000000	0,000000	967,000000	0,000000	2020-10-29T19:04:22:352
66,000000	0,000000	1072,000000	0,000000	2020-10-29T19:04:22:391
66,000000	0,000000	1072,000000	0,000000	2020-10-29T19:04:22:431
66,000000	0,000000	1072,000000	0,000000	2020-10-29T19:04:22:471
66,000000	0,000000	1072,000000	0,000000	2020-10-29T19:04:22:512
66,000000	0,000000	1072,000000	0,000000	2020-10-29T19:04:22:550
66,000000	0,000000	1072,000000	0,000000	2020-10-29T19:04:22:592
66,000000	0,000000	1072,000000	0,000000	2020-10-29T19:04:22:631
66,000000	0,000000	1072,000000	0,000000	2020-10-29T19:04:22:672
66,000000	0,000000	1072,000000	0,000000	2020-10-29T19:04:22:711
66,000000	0,000000	1072,000000	0,000000	2020-10-29T19:04:22:752
66,000000	0,000000	1072,000000	0,000000	2020-10-29T19:04:22:791
65,000000	0,000000	1072,000000	0,000000	2020-10-29T19:04:22:832
65,000000	0,000000	1072,000000	0,000000	2020-10-29T19:04:22:871
66,000000	0,000000	1072,000000	0,000000	2020-10-29T19:04:22:912
66,000000	0,000000	1072,000000	0,000000	2020-10-29T19:04:22:952
66,000000	0,000000	1072,000000	0,000000	2020-10-29T19:04:22:992
66,000000	0,000000	1072,000000	0,000000	2020-10-29T19:04:23:031
66,000000	0,000000	1072,000000	0,000000	2020-10-29T19:04:23:072
66,000000	0,000000	1072,000000	0,000000	2020-10-29T19:04:23:111
66,000000	0,000000	1072,000000	0,000000	2020-10-29T19:04:23:153
66,000000	0,000000	1072,000000	0,000000	2020-10-29T19:04:23:192
66,000000	0,000000	1072,000000	0,000000	2020-10-29T19:04:23:232
65,000000	0,000000	1072,000000	0,000000	2020-10-29T19:04:23:272
65,000000	0,000000	1072,000000	0,000000	2020-10-29T19:04:23:312
65,000000	0,000000	1072,000000	0,000000	2020-10-29T19:04:23:352
65,000000	0,000000	1072,000000	0,000000	2020-10-29T19:04:23:392
65,000000	0,000000	1072,000000	0,000000	2020-10-29T19:04:23:432
65,000000	0,000000	1072,000000	0,000000	2020-10-29T19:04:23:472
65,000000	0,000000	1072,000000	0,000000	2020-10-29T19:04:23:512
65,000000	0,000000	1072,000000	0,000000	2020-10-29T19:04:23:553
65,000000	0,000000	1072,000000	0,000000	2020-10-29T19:04:23:592
65,000000	0,000000	1072,000000	0,000000	2020-10-29T19:04:23:633
65,000000	0,000000	1072,000000	0,000000	2020-10-29T19:04:23:671
65,000000	0,000000	1072,000000	0,000000	2020-10-29T19:04:23:713
65,000000	0,000000	1072,000000	0,000000	2020-10-29T19:04:23:752
65,000000	0,000000	1072,000000	0,000000	2020-10-29T19:04:23:793
65,000000	0,000000	1072,000000	0,000000	2020-10-29T19:04:23:832
64,000000	0,000000	1072,000000	0,000000	2020-10-29T19:04:23:873
65,000000	0,000000	1072,000000	0,000000	2020-10-29T19:04:23:912
65,000000	0,000000	1072,000000	0,000000	2020-10-29T19:04:23:953
65,000000	0,000000	1072,000000	0,000000	2020-10-29T19:04:23:992
65,000000	0,000000	1072,000000	0,000000	2020-10-29T19:04:24:033
65,000000	0,000000	959,000000	0,000000	2020-10-29T19:04:24:072
65,000000	0,000000	959,000000	0,000000	2020-10-29T19:04:24:114
65,000000	0,000000	959,000000	0,000000	2020-10-29T19:04:24:153
65,000000	0,000000	959,000000	0,000000	2020-10-29T19:04:24:194
65,000000	0,000000	959,000000	0,000000	2020-10-29T19:04:24:232
65,000000	0,000000	959,000000	0,000000	2020-10-29T19:04:24:273
64,000000	0,000000	959,000000	0,000000	2020-10-29T19:04:24:313
64,000000	0,000000	959,000000	0,000000	2020-10-29T19:04:24:353
64,000000	0,000000	959,000000	0,000000	2020-10-29T19:04:24:393
64,000000	0,000000	959,000000	0,000000	2020-10-29T19:04:24:433
64,000000	0,000000	959,000000	0,000000	2020-10-29T19:04:24:473
64,000000	0,000000	959,000000	0,000000	2020-10-29T19:04:24:514
64,000000	0,000000	959,000000	0,000000	2020-10-29T19:04:24:553
64,000000	0,000000	959,000000	0,000000	2020-10-29T19:04:24:593
64,000000	0,000000	959,000000	0,000000	2020-10-29T19:04:24:633
64,000000	0,000000	959,000000	0,000000	2020-10-29T19:04:24:674
64,000000	0,000000	959,000000	0,000000	2020-10-29T19:04:24:713
64,000000	0,000000	959,000000	0,000000	2020-10-29T19:04:24:755
64,000000	0,000000	959,000000	0,000000	2020-10-29T19:04:24:793
64,000000	0,000000	959,000000	0,000000	2020-10-29T19:04:24:834
64,000000	0,000000	959,000000	0,000000	2020-10-29T19:04:24:874
64,000000	0,000000	959,000000	0,000000	2020-10-29T19:04:24:914
64,000000	0,000000	959,000000	0,000000	2020-10-29T19:04:24:954
64,000000	0,000000	959,000000	0,000000	2020-10-29T19:04:24:995
64,000000	0,000000	959,000000	0,000000	2020-10-29T19:04:25:033
64,000000	0,000000	959,000000	0,000000	2020-10-29T19:04:25:074
64,000000	0,000000	959,000000	0,000000	2020-10-29T19:04:25:113
64,000000	0,000000	959,000000	0,000000	2020-10-29T19:04:25:156
64,000000	0,000000	951,000000	0,000000	2020-10-29T19:04:25:194
64,000000	0,000000	951,000000	0,000000	2020-10-29T19:04:25:234
64,000000	0,000000	951,000000	0,000000	2020-10-29T19:04:25:274
64,000000	0,000000	951,000000	0,000000	2020-10-29T19:04:25:315
64,000000	0,000000	951,000000	0,000000	2020-10-29T19:04:25:354
64,000000	0,000000	951,000000	0,000000	2020-10-29T19:04:25:395
64,000000	0,000000	951,000000	0,000000	2020-10-29T19:04:25:433
64,000000	0,000000	951,000000	0,000000	2020-10-29T19:04:25:475
64,000000	0,000000	951,000000	0,000000	2020-10-29T19:04:25:512
64,000000	0,000000	951,000000	0,000000	2020-10-29T19:04:25:555
64,000000	0,000000	951,000000	0,000000	2020-10-29T19:04:25:594
64,000000	0,000000	951,000000	0,000000	2020-10-29T19:04:25:635
64,000000	0,000000	951,000000	0,000000	2020-10-29T19:04:25:675
64,000000	0,000000	951,000000	0,000000	2020-10-29T19:04:25:715
64,000000	0,000000	951,000000	0,000000	2020-10-29T19:04:25:754
64,000000	0,000000	951,000000	0,000000	2020-10-29T19:04:25:795
64,000000	0,000000	951,000000	0,000000	2020-10-29T19:04:25:834
64,000000	0,000000	951,000000	0,000000	2020-10-29T19:04:25:875
64,000000	0,000000	951,000000	0,000000	2020-10-29T19:04:25:914
64,000000	0,000000	951,000000	0,000000	2020-10-29T19:04:25:956
64,000000	0,000000	951,000000	0,000000	2020-10-29T19:04:25:994
64,000000	0,000000	919,000000	0,000000	2020-10-29T19:04:26:075
64,000000	0,000000	919,000000	0,000000	2020-10-29T19:04:26:077
64,000000	0,000000	919,000000	0,000000	2020-10-29T19:04:26:116
64,000000	0,000000	919,000000	0,000000	2020-10-29T19:04:26:180
64,000000	0,000000	919,000000	0,000000	2020-10-29T19:04:26:195
64,000000	0,000000	919,000000	0,000000	2020-10-29T19:04:26:233
64,000000	0,000000	919,000000	0,000000	2020-10-29T19:04:26:318
64,000000	0,000000	919,000000	0,000000	2020-10-29T19:04:26:318
64,000000	0,000000	919,000000	0,000000	2020-10-29T19:04:26:355
64,000000	0,000000	919,000000	0,000000	2020-10-29T19:04:26:392
64,000000	0,000000	919,000000	0,000000	2020-10-29T19:04:26:434
64,000000	0,000000	919,000000	0,000000	2020-10-29T19:04:26:474
64,000000	0,000000	919,000000	0,000000	2020-10-29T19:04:26:516
64,000000	0,000000	919,000000	0,000000	2020-10-29T19:04:26:555
64,000000	0,000000	919,000000	0,000000	2020-10-29T19:04:26:596
65,000000	0,000000	919,000000	0,000000	2020-10-29T19:04:26:637
65,000000	0,000000	919,000000	0,000000	2020-10-29T19:04:26:676
65,000000	0,000000	919,000000	0,000000	2020-10-29T19:04:26:715
65,000000	0,000000	919,000000	0,000000	2020-10-29T19:04:26:758
65,000000	0,000000	919,000000	0,000000	2020-10-29T19:04:26:795
65,000000	0,000000	919,000000	0,000000	2020-10-29T19:04:26:835
65,000000	0,000000	919,000000	0,000000	2020-10-29T19:04:26:875
65,000000	0,000000	919,000000	0,000000	2020-10-29T19:04:26:916
65,000000	0,000000	919,000000	0,000000	2020-10-29T19:04:26:956
65,000000	0,000000	843,000000	0,000000	2020-10-29T19:04:27:440
65,000000	0,000000	843,000000	0,000000	2020-10-29T19:04:27:482
65,000000	0,000000	843,000000	0,000000	2020-10-29T19:04:27:516
66,000000	0,000000	843,000000	0,000000	2020-10-29T19:04:27:559
66,000000	0,000000	843,000000	0,000000	2020-10-29T19:04:27:595
66,000000	0,000000	843,000000	0,000000	2020-10-29T19:04:27:637
66,000000	0,000000	843,000000	0,000000	2020-10-29T19:04:27:676
66,000000	0,000000	843,000000	0,000000	2020-10-29T19:04:27:717
66,000000	0,000000	843,000000	0,000000	2020-10-29T19:04:27:755
66,000000	0,000000	843,000000	0,000000	2020-10-29T19:04:27:797
66,000000	0,000000	843,000000	0,000000	2020-10-29T19:04:27:836
66,000000	0,000000	843,000000	0,000000	2020-10-29T19:04:27:878
66,000000	0,000000	843,000000	0,000000	2020-10-29T19:04:27:915
66,000000	0,000000	843,000000	0,000000	2020-10-29T19:04:27:957
66,000000	0,000000	843,000000	0,000000	2020-10-29T19:04:27:997
66,000000	0,000000	843,000000	0,000000	2020-10-29T19:04:28:037
66,000000	0,000000	843,000000	0,000000	2020-10-29T19:04:28:077
66,000000	0,000000	843,000000	0,000000	2020-10-29T19:04:28:118
66,000000	0,000000	843,000000	0,000000	2020-10-29T19:04:28:156
67,000000	0,000000	843,000000	0,000000	2020-10-29T19:04:28:197
67,000000	0,000000	843,000000	0,000000	2020-10-29T19:04:28:237
67,000000	0,000000	843,000000	0,000000	2020-10-29T19:04:28:278
67,000000	0,000000	843,000000	0,000000	2020-10-29T19:04:28:317
67,000000	0,000000	843,000000	0,000000	2020-10-29T19:04:28:358
67,000000	0,000000	843,000000	0,000000	2020-10-29T19:04:28:397
67,000000	0,000000	843,000000	0,000000	2020-10-29T19:04:28:438
67,000000	0,000000	843,000000	0,000000	2020-10-29T19:04:28:476
67,000000	0,000000	843,000000	0,000000	2020-10-29T19:04:28:518
66,000000	0,000000	843,000000	0,000000	2020-10-29T19:04:28:557
67,000000	0,000000	843,000000	0,000000	2020-10-29T19:04:28:598
67,000000	0,000000	843,000000	0,000000	2020-10-29T19:04:28:637
67,000000	0,000000	843,000000	0,000000	2020-10-29T19:04:28:678
67,000000	0,000000	843,000000	0,000000	2020-10-29T19:04:28:717
67,000000	0,000000	843,000000	0,000000	2020-10-29T19:04:28:758
67,000000	0,000000	843,000000	0,000000	2020-10-29T19:04:28:796
67,000000	0,000000	843,000000	0,000000	2020-10-29T19:04:28:838
67,000000	0,000000	843,000000	0,000000	2020-10-29T19:04:28:877
67,000000	0,000000	843,000000	0,000000	2020-10-29T19:04:28:918
67,000000	0,000000	843,000000	0,000000	2020-10-29T19:04:28:957
67,000000	0,000000	843,000000	0,000000	2020-10-29T19:04:28:997
67,000000	0,000000	843,000000	0,000000	2020-10-29T19:04:29:037
67,000000	0,000000	843,000000	0,000000	2020-10-29T19:04:29:078
67,000000	0,000000	843,000000	0,000000	2020-10-29T19:04:29:116
67,000000	0,000000	843,000000	0,000000	2020-10-29T19:04:29:158
67,000000	0,000000	843,000000	0,000000	2020-10-29T19:04:29:197
67,000000	0,000000	843,000000	0,000000	2020-10-29T19:04:29:238
67,000000	0,000000	843,000000	0,000000	2020-10-29T19:04:29:278
67,000000	0,000000	843,000000	0,000000	2020-10-29T19:04:29:318
67,000000	0,000000	843,000000	0,000000	2020-10-29T19:04:29:358
67,000000	0,000000	874,000000	0,000000	2020-10-29T19:04:29:399
67,000000	0,000000	874,000000	0,000000	2020-10-29T19:04:29:438
67,000000	0,000000	874,000000	0,000000	2020-10-29T19:04:29:479
67,000000	0,000000	874,000000	0,000000	2020-10-29T19:04:29:517
67,000000	0,000000	874,000000	0,000000	2020-10-29T19:04:29:558
67,000000	0,000000	874,000000	0,000000	2020-10-29T19:04:29:598
67,000000	0,000000	874,000000	0,000000	2020-10-29T19:04:29:639
67,000000	0,000000	874,000000	0,000000	2020-10-29T19:04:29:679
67,000000	0,000000	874,000000	0,000000	2020-10-29T19:04:29:719
67,000000	0,000000	874,000000	0,000000	2020-10-29T19:04:29:758
67,000000	0,000000	874,000000	0,000000	2020-10-29T19:04:29:799
67,000000	0,000000	874,000000	0,000000	2020-10-29T19:04:29:838
67,000000	0,000000	874,000000	0,000000	2020-10-29T19:04:29:880
67,000000	0,000000	874,000000	0,000000	2020-10-29T19:04:29:918
67,000000	0,000000	874,000000	0,000000	2020-10-29T19:04:29:959
66,000000	0,000000	874,000000	0,000000	2020-10-29T19:04:29:998
67,000000	0,000000	874,000000	0,000000	2020-10-29T19:04:30:039
67,000000	0,000000	874,000000	0,000000	2020-10-29T19:04:30:078
67,000000	0,000000	874,000000	0,000000	2020-10-29T19:04:30:119
67,000000	0,000000	874,000000	0,000000	2020-10-29T19:04:30:159
67,000000	0,000000	874,000000	0,000000	2020-10-29T19:04:30:199
67,000000	0,000000	1014,000000	0,000000	2020-10-29T19:04:30:239
67,000000	0,000000	1014,000000	0,000000	2020-10-29T19:04:30:280
67,000000	0,000000	1014,000000	0,000000	2020-10-29T19:04:30:318
67,000000	0,000000	1014,000000	0,000000	2020-10-29T19:04:30:360
66,000000	0,000000	1014,000000	0,000000	2020-10-29T19:04:30:399
66,000000	0,000000	1014,000000	0,000000	2020-10-29T19:04:30:440
67,000000	0,000000	1014,000000	0,000000	2020-10-29T19:04:30:479
67,000000	0,000000	1014,000000	0,000000	2020-10-29T19:04:30:519
67,000000	0,000000	1014,000000	0,000000	2020-10-29T19:04:30:560
67,000000	0,000000	1014,000000	0,000000	2020-10-29T19:04:30:600
67,000000	0,000000	1014,000000	0,000000	2020-10-29T19:04:30:639
67,000000	0,000000	1014,000000	0,000000	2020-10-29T19:04:30:680
67,000000	0,000000	1014,000000	0,000000	2020-10-29T19:04:30:718
67,000000	0,000000	1014,000000	0,000000	2020-10-29T19:04:30:760
67,000000	0,000000	1014,000000	0,000000	2020-10-29T19:04:30:799
67,000000	0,000000	1014,000000	0,000000	2020-10-29T19:04:30:840
66,000000	0,000000	1014,000000	0,000000	2020-10-29T19:04:30:879
66,000000	0,000000	1014,000000	0,000000	2020-10-29T19:04:30:920
66,000000	0,000000	1014,000000	0,000000	2020-10-29T19:04:30:959
66,000000	0,000000	1014,000000	0,000000	2020-10-29T19:04:31:000
66,000000	0,000000	1014,000000	0,000000	2020-10-29T19:04:31:039
66,000000	0,000000	1014,000000	0,000000	2020-10-29T19:04:31:080
66,000000	0,000000	1014,000000	0,000000	2020-10-29T19:04:31:119
66,000000	0,000000	1014,000000	0,000000	2020-10-29T19:04:31:160
66,000000	0,000000	1014,000000	0,000000	2020-10-29T19:04:31:199
66,000000	0,000000	1014,000000	0,000000	2020-10-29T19:04:31:240
66,000000	0,000000	1014,000000	0,000000	2020-10-29T19:04:31:279
66,000000	0,000000	1014,000000	0,000000	2020-10-29T19:04:31:321
66,000000	0,000000	1002,000000	0,000000	2020-10-29T19:04:31:360
66,000000	0,000000	1002,000000	0,000000	2020-10-29T19:04:31:400
66,000000	0,000000	1002,000000	0,000000	2020-10-29T19:04:31:439
66,000000	0,000000	1002,000000	0,000000	2020-10-29T19:04:31:481
66,000000	0,000000	1002,000000	0,000000	2020-10-29T19:04:31:519
66,000000	0,000000	1002,000000	0,000000	2020-10-29T19:04:31:561
66,000000	0,000000	1002,000000	0,000000	2020-10-29T19:04:31:600
66,000000	0,000000	1002,000000	0,000000	2020-10-29T19:04:31:641
66,000000	0,000000	1002,000000	0,000000	2020-10-29T19:04:31:679
66,000000	0,000000	1002,000000	0,000000	2020-10-29T19:04:31:721
66,000000	0,000000	1002,000000	0,000000	2020-10-29T19:04:31:761
66,000000	0,000000	1002,000000	0,000000	2020-10-29T19:04:31:801
66,000000	0,000000	1002,000000	0,000000	2020-10-29T19:04:31:840
65,000000	0,000000	1002,000000	0,000000	2020-10-29T19:04:31:881
66,000000	0,000000	1002,000000	0,000000	2020-10-29T19:04:31:919
66,000000	0,000000	1002,000000	0,000000	2020-10-29T19:04:31:960
66,000000	0,000000	1002,000000	0,000000	2020-10-29T19:04:32:000
66,000000	0,000000	1002,000000	0,000000	2020-10-29T19:04:32:041
66,000000	0,000000	1002,000000	0,000000	2020-10-29T19:04:32:080
66,000000	0,000000	1002,000000	0,000000	2020-10-29T19:04:32:121
66,000000	0,000000	1002,000000	0,000000	2020-10-29T19:04:32:161
66,000000	0,000000	997,000000	0,000000	2020-10-29T19:04:32:201
66,000000	0,000000	997,000000	0,000000	2020-10-29T19:04:32:240
66,000000	0,000000	997,000000	0,000000	2020-10-29T19:04:32:281
65,000000	0,000000	997,000000	0,000000	2020-10-29T19:04:32:320
66,000000	0,000000	997,000000	0,000000	2020-10-29T19:04:32:362
66,000000	0,000000	997,000000	0,000000	2020-10-29T19:04:32:400
66,000000	0,000000	997,000000	0,000000	2020-10-29T19:04:32:441
66,000000	0,000000	997,000000	0,000000	2020-10-29T19:04:32:480
66,000000	0,000000	997,000000	0,000000	2020-10-29T19:04:32:521
66,000000	0,000000	997,000000	0,000000	2020-10-29T19:04:32:561
66,000000	0,000000	997,000000	0,000000	2020-10-29T19:04:32:601
66,000000	0,000000	997,000000	0,000000	2020-10-29T19:04:32:641
66,000000	0,000000	997,000000	0,000000	2020-10-29T19:04:32:682
65,000000	0,000000	997,000000	0,000000	2020-10-29T19:04:32:720
65,000000	0,000000	997,000000	0,000000	2020-10-29T19:04:32:762
66,000000	0,000000	997,000000	0,000000	2020-10-29T19:04:32:801
66,000000	0,000000	997,000000	0,000000	2020-10-29T19:04:32:842
66,000000	0,000000	997,000000	0,000000	2020-10-29T19:04:32:881
66,000000	0,000000	997,000000	0,000000	2020-10-29T19:04:32:922
66,000000	0,000000	997,000000	0,000000	2020-10-29T19:04:32:961
66,000000	0,000000	997,000000	0,000000	2020-10-29T19:04:33:002
66,000000	0,000000	997,000000	0,000000	2020-10-29T19:04:33:042
66,000000	0,000000	997,000000	0,000000	2020-10-29T19:04:33:082
66,000000	0,000000	997,000000	0,000000	2020-10-29T19:04:33:121
66,000000	0,000000	997,000000	0,000000	2020-10-29T19:04:33:162
66,000000	0,000000	997,000000	0,000000	2020-10-29T19:04:33:201
66,000000	0,000000	997,000000	0,000000	2020-10-29T19:04:33:242
66,000000	0,000000	997,000000	0,000000	2020-10-29T19:04:33:282
66,000000	0,000000	997,000000	0,000000	2020-10-29T19:04:33:322
66,000000	0,000000	997,000000	0,000000	2020-10-29T19:04:33:362
66,000000	0,000000	997,000000	0,000000	2020-10-29T19:04:33:402
66,000000	0,000000	997,000000	0,000000	2020-10-29T19:04:33:441
67,000000	0,000000	997,000000	0,000000	2020-10-29T19:04:33:482
66,000000	0,000000	997,000000	0,000000	2020-10-29T19:04:33:521
66,000000	0,000000	997,000000	0,000000	2020-10-29T19:04:33:563
67,000000	0,000000	997,000000	0,000000	2020-10-29T19:04:33:602
67,000000	0,000000	997,000000	0,000000	2020-10-29T19:04:33:643
67,000000	0,000000	997,000000	0,000000	2020-10-29T19:04:33:682
67,000000	0,000000	997,000000	0,000000	2020-10-29T19:04:33:723
67,000000	0,000000	997,000000	0,000000	2020-10-29T19:04:33:762
67,000000	0,000000	997,000000	0,000000	2020-10-29T19:04:33:802
67,000000	0,000000	997,000000	0,000000	2020-10-29T19:04:33:842
67,000000	0,000000	997,000000	0,000000	2020-10-29T19:04:33:883
67,000000	0,000000	997,000000	0,000000	2020-10-29T19:04:33:921
67,000000	0,000000	997,000000	0,000000	2020-10-29T19:04:33:963
67,000000	0,000000	997,000000	0,000000	2020-10-29T19:04:34:002
68,000000	0,000000	997,000000	0,000000	2020-10-29T19:04:34:043
68,000000	0,000000	997,000000	0,000000	2020-10-29T19:04:34:082
68,000000	0,000000	997,000000	0,000000	2020-10-29T19:04:34:123
68,000000	0,000000	997,000000	0,000000	2020-10-29T19:04:34:162
68,000000	0,000000	997,000000	0,000000	2020-10-29T19:04:34:203
68,000000	0,000000	997,000000	0,000000	2020-10-29T19:04:34:242
68,000000	0,000000	997,000000	0,000000	2020-10-29T19:04:34:283
68,000000	0,000000	997,000000	0,000000	2020-10-29T19:04:34:323
68,000000	0,000000	997,000000	0,000000	2020-10-29T19:04:34:364
68,000000	0,000000	997,000000	0,000000	2020-10-29T19:04:34:402
68,000000	0,000000	997,000000	0,000000	2020-10-29T19:04:34:443
68,000000	0,000000	997,000000	0,000000	2020-10-29T19:04:34:483
69,000000	0,000000	997,000000	0,000000	2020-10-29T19:04:34:523
68,000000	0,000000	997,000000	0,000000	2020-10-29T19:04:34:563
68,000000	0,000000	997,000000	0,000000	2020-10-29T19:04:34:604
68,000000	0,000000	997,000000	0,000000	2020-10-29T19:04:34:643
68,000000	0,000000	997,000000	0,000000	2020-10-29T19:04:34:683
68,000000	0,000000	997,000000	0,000000	2020-10-29T19:04:34:722
68,000000	0,000000	997,000000	0,000000	2020-10-29T19:04:34:764
68,000000	0,000000	997,000000	0,000000	2020-10-29T19:04:34:803
68,000000	0,000000	997,000000	0,000000	2020-10-29T19:04:34:844
68,000000	0,000000	997,000000	0,000000	2020-10-29T19:04:34:883
68,000000	0,000000	997,000000	0,000000	2020-10-29T19:04:34:924
68,000000	0,000000	997,000000	0,000000	2020-10-29T19:04:34:963
68,000000	0,000000	997,000000	0,000000	2020-10-29T19:04:35:004
68,000000	0,000000	997,000000	0,000000	2020-10-29T19:04:35:043
68,000000	0,000000	997,000000	0,000000	2020-10-29T19:04:35:084
68,000000	0,000000	997,000000	0,000000	2020-10-29T19:04:35:123
68,000000	0,000000	997,000000	0,000000	2020-10-29T19:04:35:165
68,000000	0,000000	997,000000	0,000000	2020-10-29T19:04:35:203
68,000000	0,000000	997,000000	0,000000	2020-10-29T19:04:35:244
69,000000	0,000000	997,000000	0,000000	2020-10-29T19:04:35:284
69,000000	0,000000	997,000000	0,000000	2020-10-29T19:04:35:324
69,000000	0,000000	997,000000	0,000000	2020-10-29T19:04:35:364
69,000000	0,000000	997,000000	0,000000	2020-10-29T19:04:35:404
69,000000	0,000000	997,000000	0,000000	2020-10-29T19:04:35:444
69,000000	0,000000	997,000000	0,000000	2020-10-29T19:04:35:485
69,000000	0,000000	997,000000	0,000000	2020-10-29T19:04:35:523
69,000000	0,000000	997,000000	0,000000	2020-10-29T19:04:35:565
69,000000	0,000000	997,000000	0,000000	2020-10-29T19:04:35:603
69,000000	0,000000	997,000000	0,000000	2020-10-29T19:04:35:645
69,000000	0,000000	997,000000	0,000000	2020-10-29T19:04:35:684
69,000000	0,000000	997,000000	0,000000	2020-10-29T19:04:35:725
69,000000	0,000000	997,000000	0,000000	2020-10-29T19:04:35:764
69,000000	0,000000	997,000000	0,000000	2020-10-29T19:04:35:805
69,000000	0,000000	997,000000	0,000000	2020-10-29T19:04:35:844
69,000000	0,000000	997,000000	0,000000	2020-10-29T19:04:35:885
69,000000	0,000000	997,000000	0,000000	2020-10-29T19:04:35:924
69,000000	0,000000	997,000000	0,000000	2020-10-29T19:04:35:965
69,000000	0,000000	997,000000	0,000000	2020-10-29T19:04:36:004
69,000000	0,000000	997,000000	0,000000	2020-10-29T19:04:36:045
69,000000	0,000000	997,000000	0,000000	2020-10-29T19:04:36:084
69,000000	0,000000	997,000000	0,000000	2020-10-29T19:04:36:125
69,000000	0,000000	997,000000	0,000000	2020-10-29T19:04:36:165
70,000000	0,000000	997,000000	0,000000	2020-10-29T19:04:36:205
70,000000	0,000000	997,000000	0,000000	2020-10-29T19:04:36:244
69,000000	0,000000	997,000000	0,000000	2020-10-29T19:04:36:286
70,000000	0,000000	997,000000	0,000000	2020-10-29T19:04:36:324
70,000000	0,000000	997,000000	0,000000	2020-10-29T19:04:36:365
70,000000	0,000000	997,000000	0,000000	2020-10-29T19:04:36:405
70,000000	0,000000	997,000000	0,000000	2020-10-29T19:04:36:444
70,000000	0,000000	997,000000	0,000000	2020-10-29T19:04:36:485
70,000000	0,000000	997,000000	0,000000	2020-10-29T19:04:36:525
70,000000	0,000000	997,000000	0,000000	2020-10-29T19:04:36:565
70,000000	0,000000	997,000000	0,000000	2020-10-29T19:04:36:605
70,000000	0,000000	997,000000	0,000000	2020-10-29T19:04:36:645
70,000000	0,000000	997,000000	0,000000	2020-10-29T19:04:36:686
70,000000	0,000000	997,000000	0,000000	2020-10-29T19:04:36:725
70,000000	0,000000	997,000000	0,000000	2020-10-29T19:04:36:767
70,000000	0,000000	997,000000	0,000000	2020-10-29T19:04:36:804
70,000000	0,000000	997,000000	0,000000	2020-10-29T19:04:36:846
70,000000	0,000000	997,000000	0,000000	2020-10-29T19:04:36:885
70,000000	0,000000	997,000000	0,000000	2020-10-29T19:04:36:926
70,000000	0,000000	997,000000	0,000000	2020-10-29T19:04:36:965
70,000000	0,000000	997,000000	0,000000	2020-10-29T19:04:37:006
70,000000	0,000000	997,000000	0,000000	2020-10-29T19:04:37:044
70,000000	0,000000	997,000000	0,000000	2020-10-29T19:04:37:086
70,000000	0,000000	997,000000	0,000000	2020-10-29T19:04:37:125
70,000000	0,000000	997,000000	0,000000	2020-10-29T19:04:37:167
71,000000	0,000000	997,000000	0,000000	2020-10-29T19:04:37:205
71,000000	0,000000	997,000000	0,000000	2020-10-29T19:04:37:246
71,000000	0,000000	997,000000	0,000000	2020-10-29T19:04:37:285
70,000000	0,000000	997,000000	0,000000	2020-10-29T19:04:37:326
70,000000	0,000000	997,000000	0,000000	2020-10-29T19:04:37:366
70,000000	0,000000	997,000000	0,000000	2020-10-29T19:04:37:406
70,000000	0,000000	997,000000	0,000000	2020-10-29T19:04:37:448
70,000000	0,000000	997,000000	0,000000	2020-10-29T19:04:37:486
70,000000	0,000000	767,000000	0,000000	2020-10-29T19:04:37:525
70,000000	0,000000	767,000000	0,000000	2020-10-29T19:04:37:571
70,000000	0,000000	767,000000	0,000000	2020-10-29T19:04:37:605
71,000000	0,000000	767,000000	0,000000	2020-10-29T19:04:37:646
71,000000	0,000000	767,000000	0,000000	2020-10-29T19:04:37:685
71,000000	0,000000	767,000000	0,000000	2020-10-29T19:04:37:727
71,000000	0,000000	767,000000	0,000000	2020-10-29T19:04:37:766
70,000000	0,000000	767,000000	0,000000	2020-10-29T19:04:37:807
71,000000	0,000000	767,000000	0,000000	2020-10-29T19:04:37:846
71,000000	0,000000	767,000000	0,000000	2020-10-29T19:04:37:887
71,000000	0,000000	767,000000	0,000000	2020-10-29T19:04:37:926
71,000000	0,000000	767,000000	0,000000	2020-10-29T19:04:37:967
70,000000	0,000000	767,000000	0,000000	2020-10-29T19:04:38:005
70,000000	0,000000	767,000000	0,000000	2020-10-29T19:04:38:047
70,000000	0,000000	767,000000	0,000000	2020-10-29T19:04:38:087
70,000000	0,000000	767,000000	0,000000	2020-10-29T19:04:38:127
70,000000	0,000000	767,000000	0,000000	2020-10-29T19:04:38:166
70,000000	0,000000	767,000000	0,000000	2020-10-29T19:04:38:207
70,000000	0,000000	767,000000	0,000000	2020-10-29T19:04:38:246
70,000000	0,000000	767,000000	0,000000	2020-10-29T19:04:38:287
70,000000	0,000000	767,000000	0,000000	2020-10-29T19:04:38:326
70,000000	0,000000	963,000000	0,000000	2020-10-29T19:04:38:367
70,000000	0,000000	963,000000	0,000000	2020-10-29T19:04:38:406
70,000000	0,000000	963,000000	0,000000	2020-10-29T19:04:38:447
70,000000	0,000000	963,000000	0,000000	2020-10-29T19:04:38:486
70,000000	0,000000	963,000000	0,000000	2020-10-29T19:04:38:527
70,000000	0,000000	963,000000	0,000000	2020-10-29T19:04:38:567
70,000000	0,000000	963,000000	0,000000	2020-10-29T19:04:38:607
70,000000	0,000000	963,000000	0,000000	2020-10-29T19:04:38:647
70,000000	0,000000	963,000000	0,000000	2020-10-29T19:04:38:688
70,000000	0,000000	963,000000	0,000000	2020-10-29T19:04:38:726
70,000000	0,000000	963,000000	0,000000	2020-10-29T19:04:38:768
70,000000	0,000000	963,000000	0,000000	2020-10-29T19:04:38:807
70,000000	0,000000	963,000000	0,000000	2020-10-29T19:04:38:846
70,000000	0,000000	963,000000	0,000000	2020-10-29T19:04:38:888
70,000000	0,000000	963,000000	0,000000	2020-10-29T19:04:38:927
70,000000	0,000000	963,000000	0,000000	2020-10-29T19:04:38:967
70,000000	0,000000	963,000000	0,000000	2020-10-29T19:04:39:008
69,000000	0,000000	963,000000	0,000000	2020-10-29T19:04:39:046
69,000000	0,000000	963,000000	0,000000	2020-10-29T19:04:39:088
69,000000	0,000000	963,000000	0,000000	2020-10-29T19:04:39:127
69,000000	0,000000	963,000000	0,000000	2020-10-29T19:04:39:168
69,000000	0,000000	963,000000	0,000000	2020-10-29T19:04:39:207
69,000000	0,000000	963,000000	0,000000	2020-10-29T19:04:39:248
69,000000	0,000000	963,000000	0,000000	2020-10-29T19:04:39:287
69,000000	0,000000	963,000000	0,000000	2020-10-29T19:04:39:328
69,000000	0,000000	963,000000	0,000000	2020-10-29T19:04:39:368
69,000000	0,000000	963,000000	0,000000	2020-10-29T19:04:39:409
69,000000	0,000000	963,000000	0,000000	2020-10-29T19:04:39:447
69,000000	0,000000	998,000000	0,000000	2020-10-29T19:04:39:488
69,000000	0,000000	998,000000	0,000000	2020-10-29T19:04:39:530
69,000000	0,000000	998,000000	0,000000	2020-10-29T19:04:39:568
69,000000	0,000000	998,000000	0,000000	2020-10-29T19:04:39:607
69,000000	0,000000	998,000000	0,000000	2020-10-29T19:04:39:649
69,000000	0,000000	998,000000	0,000000	2020-10-29T19:04:39:688
69,000000	0,000000	998,000000	0,000000	2020-10-29T19:04:39:728
69,000000	0,000000	998,000000	0,000000	2020-10-29T19:04:39:769
69,000000	0,000000	998,000000	0,000000	2020-10-29T19:04:39:809
69,000000	0,000000	998,000000	0,000000	2020-10-29T19:04:39:848
69,000000	0,000000	998,000000	0,000000	2020-10-29T19:04:39:889
69,000000	0,000000	998,000000	0,000000	2020-10-29T19:04:39:927
69,000000	0,000000	998,000000	0,000000	2020-10-29T19:04:39:971
68,000000	0,000000	998,000000	0,000000	2020-10-29T19:04:40:008
68,000000	0,000000	998,000000	0,000000	2020-10-29T19:04:40:056
68,000000	0,000000	998,000000	0,000000	2020-10-29T19:04:40:088
69,000000	0,000000	998,000000	0,000000	2020-10-29T19:04:40:131
69,000000	0,000000	998,000000	0,000000	2020-10-29T19:04:40:169
68,000000	0,000000	998,000000	0,000000	2020-10-29T19:04:40:211
68,000000	0,000000	998,000000	0,000000	2020-10-29T19:04:40:249
68,000000	0,000000	998,000000	0,000000	2020-10-29T19:04:40:290
69,000000	0,000000	1008,000000	0,000000	2020-10-29T19:04:40:329
68,000000	0,000000	1008,000000	0,000000	2020-10-29T19:04:40:370
68,000000	0,000000	1008,000000	0,000000	2020-10-29T19:04:40:408
68,000000	0,000000	1008,000000	0,000000	2020-10-29T19:04:40:450
68,000000	0,000000	1008,000000	0,000000	2020-10-29T19:04:40:489
68,000000	0,000000	1008,000000	0,000000	2020-10-29T19:04:40:528
68,000000	0,000000	1008,000000	0,000000	2020-10-29T19:04:40:569
68,000000	0,000000	1008,000000	0,000000	2020-10-29T19:04:40:609
68,000000	0,000000	1008,000000	0,000000	2020-10-29T19:04:40:649
68,000000	0,000000	1008,000000	0,000000	2020-10-29T19:04:40:690
68,000000	0,000000	1008,000000	0,000000	2020-10-29T19:04:40:729
68,000000	0,000000	1008,000000	0,000000	2020-10-29T19:04:40:771
68,000000	0,000000	1008,000000	0,000000	2020-10-29T19:04:40:808
68,000000	0,000000	1008,000000	0,000000	2020-10-29T19:04:40:850
68,000000	0,000000	1008,000000	0,000000	2020-10-29T19:04:40:889
68,000000	0,000000	1008,000000	0,000000	2020-10-29T19:04:40:930
68,000000	0,000000	1008,000000	0,000000	2020-10-29T19:04:40:969
68,000000	0,000000	1008,000000	0,000000	2020-10-29T19:04:41:010
68,000000	0,000000	1008,000000	0,000000	2020-10-29T19:04:41:049
68,000000	0,000000	1008,000000	0,000000	2020-10-29T19:04:41:090
68,000000	0,000000	1008,000000	0,000000	2020-10-29T19:04:41:129
68,000000	0,000000	985,000000	0,000000	2020-10-29T19:04:41:171
68,000000	0,000000	985,000000	0,000000	2020-10-29T19:04:41:209
68,000000	0,000000	985,000000	0,000000	2020-10-29T19:04:41:250
68,000000	0,000000	985,000000	0,000000	2020-10-29T19:04:41:289
68,000000	0,000000	985,000000	0,000000	2020-10-29T19:04:41:330
67,000000	0,000000	985,000000	0,000000	2020-10-29T19:04:41:369
68,000000	0,000000	985,000000	0,000000	2020-10-29T19:04:41:410
68,000000	0,000000	985,000000	0,000000	2020-10-29T19:04:41:449
68,000000	0,000000	985,000000	0,000000	2020-10-29T19:04:41:490
68,000000	0,000000	985,000000	0,000000	2020-10-29T19:04:41:529
68,000000	0,000000	985,000000	0,000000	2020-10-29T19:04:41:571
68,000000	0,000000	985,000000	0,000000	2020-10-29T19:04:41:609
68,000000	0,000000	985,000000	0,000000	2020-10-29T19:04:41:651
68,000000	0,000000	985,000000	0,000000	2020-10-29T19:04:41:690
68,000000	0,000000	985,000000	0,000000	2020-10-29T19:04:41:731
67,000000	0,000000	985,000000	0,000000	2020-10-29T19:04:41:771
67,000000	0,000000	985,000000	0,000000	2020-10-29T19:04:41:811
67,000000	0,000000	985,000000	0,000000	2020-10-29T19:04:41:850
68,000000	0,000000	985,000000	0,000000	2020-10-29T19:04:41:891
68,000000	0,000000	985,000000	0,000000	2020-10-29T19:04:41:930
68,000000	0,000000	985,000000	0,000000	2020-10-29T19:04:41:971
67,000000	0,000000	783,000000	0,000000	2020-10-29T19:04:42:010
67,000000	0,000000	783,000000	0,000000	2020-10-29T19:04:42:051
68,000000	0,000000	783,000000	0,000000	2020-10-29T19:04:42:090
68,000000	0,000000	783,000000	0,000000	2020-10-29T19:04:42:131
67,000000	0,000000	783,000000	0,000000	2020-10-29T19:04:42:171
67,000000	0,000000	783,000000	0,000000	2020-10-29T19:04:42:211
67,000000	0,000000	783,000000	0,000000	2020-10-29T19:04:42:250
67,000000	0,000000	783,000000	0,000000	2020-10-29T19:04:42:292
68,000000	0,000000	783,000000	0,000000	2020-10-29T19:04:42:330
68,000000	0,000000	783,000000	0,000000	2020-10-29T19:04:42:372
68,000000	0,000000	783,000000	0,000000	2020-10-29T19:04:42:410
67,000000	0,000000	783,000000	0,000000	2020-10-29T19:04:42:453
67,000000	0,000000	783,000000	0,000000	2020-10-29T19:04:42:491
67,000000	0,000000	783,000000	0,000000	2020-10-29T19:04:42:530
68,000000	0,000000	783,000000	0,000000	2020-10-29T19:04:42:571
67,000000	0,000000	783,000000	0,000000	2020-10-29T19:04:42:611
67,000000	0,000000	783,000000	0,000000	2020-10-29T19:04:42:651
67,000000	0,000000	783,000000	0,000000	2020-10-29T19:04:42:692
68,000000	0,000000	783,000000	0,000000	2020-10-29T19:04:42:731
68,000000	0,000000	783,000000	0,000000	2020-10-29T19:04:42:772
68,000000	0,000000	783,000000	0,000000	2020-10-29T19:04:42:811
68,000000	0,000000	882,000000	0,000000	2020-10-29T19:04:42:852
68,000000	0,000000	882,000000	0,000000	2020-10-29T19:04:42:891
68,000000	0,000000	882,000000	0,000000	2020-10-29T19:04:42:931
68,000000	0,000000	882,000000	0,000000	2020-10-29T19:04:42:971
68,000000	0,000000	882,000000	0,000000	2020-10-29T19:04:43:012
68,000000	0,000000	882,000000	0,000000	2020-10-29T19:04:43:051
68,000000	0,000000	882,000000	0,000000	2020-10-29T19:04:43:092
68,000000	0,000000	882,000000	0,000000	2020-10-29T19:04:43:132
68,000000	0,000000	882,000000	0,000000	2020-10-29T19:04:43:172
68,000000	0,000000	882,000000	0,000000	2020-10-29T19:04:43:211
68,000000	0,000000	882,000000	0,000000	2020-10-29T19:04:43:252
68,000000	0,000000	882,000000	0,000000	2020-10-29T19:04:43:291
68,000000	0,000000	882,000000	0,000000	2020-10-29T19:04:43:332
68,000000	0,000000	882,000000	0,000000	2020-10-29T19:04:43:372
68,000000	0,000000	882,000000	0,000000	2020-10-29T19:04:43:412
68,000000	0,000000	882,000000	0,000000	2020-10-29T19:04:43:451
68,000000	0,000000	882,000000	0,000000	2020-10-29T19:04:43:491
68,000000	0,000000	882,000000	0,000000	2020-10-29T19:04:43:531
68,000000	0,000000	882,000000	0,000000	2020-10-29T19:04:43:572
68,000000	0,000000	882,000000	0,000000	2020-10-29T19:04:43:611
68,000000	0,000000	882,000000	0,000000	2020-10-29T19:04:43:652
68,000000	0,000000	882,000000	0,000000	2020-10-29T19:04:43:692
69,000000	0,000000	882,000000	0,000000	2020-10-29T19:04:43:733
69,000000	0,000000	882,000000	0,000000	2020-10-29T19:04:43:771
68,000000	0,000000	882,000000	0,000000	2020-10-29T19:04:43:812
68,000000	0,000000	882,000000	0,000000	2020-10-29T19:04:43:851
69,000000	0,000000	882,000000	0,000000	2020-10-29T19:04:43:893
69,000000	0,000000	882,000000	0,000000	2020-10-29T19:04:43:932
69,000000	0,000000	882,000000	0,000000	2020-10-29T19:04:43:973
69,000000	0,000000	882,000000	0,000000	2020-10-29T19:04:44:012
69,000000	0,000000	882,000000	0,000000	2020-10-29T19:04:44:053
69,000000	0,000000	882,000000	0,000000	2020-10-29T19:04:44:092
69,000000	0,000000	882,000000	0,000000	2020-10-29T19:04:44:133
69,000000	0,000000	882,000000	0,000000	2020-10-29T19:04:44:172
69,000000	0,000000	882,000000	0,000000	2020-10-29T19:04:44:213
69,000000	0,000000	755,000000	0,000000	2020-10-29T19:04:44:252
69,000000	0,000000	755,000000	0,000000	2020-10-29T19:04:44:293
69,000000	0,000000	755,000000	0,000000	2020-10-29T19:04:44:333
69,000000	0,000000	755,000000	0,000000	2020-10-29T19:04:44:373
69,000000	0,000000	755,000000	0,000000	2020-10-29T19:04:44:412
69,000000	0,000000	755,000000	0,000000	2020-10-29T19:04:44:453
69,000000	0,000000	755,000000	0,000000	2020-10-29T19:04:44:492
69,000000	0,000000	755,000000	0,000000	2020-10-29T19:04:44:533
69,000000	0,000000	755,000000	0,000000	2020-10-29T19:04:44:573
69,000000	0,000000	755,000000	0,000000	2020-10-29T19:04:44:613
69,000000	0,000000	755,000000	0,000000	2020-10-29T19:04:44:653
69,000000	0,000000	755,000000	0,000000	2020-10-29T19:04:44:694
69,000000	0,000000	755,000000	0,000000	2020-10-29T19:04:44:733
69,000000	0,000000	755,000000	0,000000	2020-10-29T19:04:44:775
69,000000	0,000000	755,000000	0,000000	2020-10-29T19:04:44:813
69,000000	0,000000	755,000000	0,000000	2020-10-29T19:04:44:853
69,000000	0,000000	755,000000	0,000000	2020-10-29T19:04:44:893
69,000000	0,000000	755,000000	0,000000	2020-10-29T19:04:44:933
69,000000	0,000000	755,000000	0,000000	2020-10-29T19:04:44:973
69,000000	0,000000	755,000000	0,000000	2020-10-29T19:04:45:013
69,000000	0,000000	755,000000	0,000000	2020-10-29T19:04:45:053
69,000000	0,000000	755,000000	0,000000	2020-10-29T19:04:45:094
69,000000	0,000000	755,000000	0,000000	2020-10-29T19:04:45:133
69,000000	0,000000	755,000000	0,000000	2020-10-29T19:04:45:174
69,000000	0,000000	755,000000	0,000000	2020-10-29T19:04:45:213
69,000000	0,000000	755,000000	0,000000	2020-10-29T19:04:45:254
69,000000	0,000000	755,000000	0,000000	2020-10-29T19:04:45:293
70,000000	0,000000	755,000000	0,000000	2020-10-29T19:04:45:333
69,000000	0,000000	755,000000	0,000000	2020-10-29T19:04:45:373
69,000000	0,000000	755,000000	0,000000	2020-10-29T19:04:45:414
70,000000	0,000000	755,000000	0,000000	2020-10-29T19:04:45:453
70,000000	0,000000	755,000000	0,000000	2020-10-29T19:04:45:494
70,000000	0,000000	755,000000	0,000000	2020-10-29T19:04:45:533
70,000000	0,000000	755,000000	0,000000	2020-10-29T19:04:45:574
70,000000	0,000000	755,000000	0,000000	2020-10-29T19:04:45:613
70,000000	0,000000	755,000000	0,000000	2020-10-29T19:04:45:654
70,000000	0,000000	755,000000	0,000000	2020-10-29T19:04:45:693
70,000000	0,000000	755,000000	0,000000	2020-10-29T19:04:45:734
70,000000	0,000000	755,000000	0,000000	2020-10-29T19:04:45:774
70,000000	0,000000	755,000000	0,000000	2020-10-29T19:04:45:814
70,000000	0,000000	755,000000	0,000000	2020-10-29T19:04:45:854
70,000000	0,000000	755,000000	0,000000	2020-10-29T19:04:45:895
70,000000	0,000000	755,000000	0,000000	2020-10-29T19:04:45:933
70,000000	0,000000	755,000000	0,000000	2020-10-29T19:04:45:975
70,000000	0,000000	755,000000	0,000000	2020-10-29T19:04:46:013
70,000000	0,000000	755,000000	0,000000	2020-10-29T19:04:46:054
70,000000	0,000000	755,000000	0,000000	2020-10-29T19:04:46:094
70,000000	0,000000	755,000000	0,000000	2020-10-29T19:04:46:134
70,000000	0,000000	755,000000	0,000000	2020-10-29T19:04:46:174
70,000000	0,000000	755,000000	0,000000	2020-10-29T19:04:46:215
70,000000	0,000000	755,000000	0,000000	2020-10-29T19:04:46:254
70,000000	0,000000	755,000000	0,000000	2020-10-29T19:04:46:295
70,000000	0,000000	755,000000	0,000000	2020-10-29T19:04:46:334
70,000000	0,000000	755,000000	0,000000	2020-10-29T19:04:46:375
70,000000	0,000000	755,000000	0,000000	2020-10-29T19:04:46:414
70,000000	0,000000	755,000000	0,000000	2020-10-29T19:04:46:454
69,000000	0,000000	755,000000	0,000000	2020-10-29T19:04:46:494
70,000000	0,000000	755,000000	0,000000	2020-10-29T19:04:46:535
70,000000	0,000000	755,000000	0,000000	2020-10-29T19:04:46:575
70,000000	0,000000	755,000000	0,000000	2020-10-29T19:04:46:615
70,000000	0,000000	755,000000	0,000000	2020-10-29T19:04:46:654
70,000000	0,000000	755,000000	0,000000	2020-10-29T19:04:46:696
70,000000	0,000000	755,000000	0,000000	2020-10-29T19:04:46:734
70,000000	0,000000	842,000000	0,000000	2020-10-29T19:04:46:777
70,000000	0,000000	842,000000	0,000000	2020-10-29T19:04:46:815
70,000000	0,000000	842,000000	0,000000	2020-10-29T19:04:46:855
70,000000	0,000000	842,000000	0,000000	2020-10-29T19:04:46:895
69,000000	0,000000	842,000000	0,000000	2020-10-29T19:04:46:935
69,000000	0,000000	842,000000	0,000000	2020-10-29T19:04:46:975
69,000000	0,000000	842,000000	0,000000	2020-10-29T19:04:47:015
70,000000	0,000000	842,000000	0,000000	2020-10-29T19:04:47:055
70,000000	0,000000	842,000000	0,000000	2020-10-29T19:04:47:096
69,000000	0,000000	842,000000	0,000000	2020-10-29T19:04:47:134
69,000000	0,000000	842,000000	0,000000	2020-10-29T19:04:47:176
69,000000	0,000000	842,000000	0,000000	2020-10-29T19:04:47:215
69,000000	0,000000	842,000000	0,000000	2020-10-29T19:04:47:256
70,000000	0,000000	842,000000	0,000000	2020-10-29T19:04:47:295
70,000000	0,000000	842,000000	0,000000	2020-10-29T19:04:47:336
70,000000	0,000000	842,000000	0,000000	2020-10-29T19:04:47:375
69,000000	0,000000	842,000000	0,000000	2020-10-29T19:04:47:416
69,000000	0,000000	842,000000	0,000000	2020-10-29T19:04:47:457
69,000000	0,000000	842,000000	0,000000	2020-10-29T19:04:47:496
69,000000	0,000000	842,000000	0,000000	2020-10-29T19:04:47:535
69,000000	0,000000	842,000000	0,000000	2020-10-29T19:04:47:577
69,000000	0,000000	842,000000	0,000000	2020-10-29T19:04:47:615
69,000000	0,000000	842,000000	0,000000	2020-10-29T19:04:47:664
69,000000	0,000000	842,000000	0,000000	2020-10-29T19:04:47:696
69,000000	0,000000	842,000000	0,000000	2020-10-29T19:04:47:736
69,000000	0,000000	842,000000	0,000000	2020-10-29T19:04:47:776
69,000000	0,000000	842,000000	0,000000	2020-10-29T19:04:47:816
69,000000	0,000000	842,000000	0,000000	2020-10-29T19:04:47:856
69,000000	0,000000	1030,000000	0,000000	2020-10-29T19:04:47:897
68,000000	0,000000	1030,000000	0,000000	2020-10-29T19:04:47:936
68,000000	0,000000	1030,000000	0,000000	2020-10-29T19:04:47:977
68,000000	0,000000	1030,000000	0,000000	2020-10-29T19:04:48:016
69,000000	0,000000	1030,000000	0,000000	2020-10-29T19:04:48:056
69,000000	0,000000	1030,000000	0,000000	2020-10-29T19:04:48:095
68,000000	0,000000	1030,000000	0,000000	2020-10-29T19:04:48:137
68,000000	0,000000	1030,000000	0,000000	2020-10-29T19:04:48:177
69,000000	0,000000	1030,000000	0,000000	2020-10-29T19:04:48:217
69,000000	0,000000	1030,000000	0,000000	2020-10-29T19:04:48:256
69,000000	0,000000	1030,000000	0,000000	2020-10-29T19:04:48:297
69,000000	0,000000	1030,000000	0,000000	2020-10-29T19:04:48:335
69,000000	0,000000	1030,000000	0,000000	2020-10-29T19:04:48:379
69,000000	0,000000	1030,000000	0,000000	2020-10-29T19:04:48:416
68,000000	0,000000	1030,000000	0,000000	2020-10-29T19:04:48:457
68,000000	0,000000	1030,000000	0,000000	2020-10-29T19:04:48:496
68,000000	0,000000	1030,000000	0,000000	2020-10-29T19:04:48:538
68,000000	0,000000	1030,000000	0,000000	2020-10-29T19:04:48:577
68,000000	0,000000	1030,000000	0,000000	2020-10-29T19:04:48:617
68,000000	0,000000	1030,000000	0,000000	2020-10-29T19:04:48:656
68,000000	0,000000	1030,000000	0,000000	2020-10-29T19:04:48:697
68,000000	0,000000	1030,000000	0,000000	2020-10-29T19:04:48:736
68,000000	0,000000	1030,000000	0,000000	2020-10-29T19:04:48:778
68,000000	0,000000	1030,000000	0,000000	2020-10-29T19:04:48:815
68,000000	0,000000	1030,000000	0,000000	2020-10-29T19:04:48:858
68,000000	0,000000	1030,000000	0,000000	2020-10-29T19:04:48:897
68,000000	0,000000	1030,000000	0,000000	2020-10-29T19:04:48:937
67,000000	0,000000	1030,000000	0,000000	2020-10-29T19:04:48:977
68,000000	0,000000	1030,000000	0,000000	2020-10-29T19:04:49:017
68,000000	0,000000	1030,000000	0,000000	2020-10-29T19:04:49:057
68,000000	0,000000	1030,000000	0,000000	2020-10-29T19:04:49:098
68,000000	0,000000	1030,000000	0,000000	2020-10-29T19:04:49:137
68,000000	0,000000	1030,000000	0,000000	2020-10-29T19:04:49:178
68,000000	0,000000	1030,000000	0,000000	2020-10-29T19:04:49:217
68,000000	0,000000	1030,000000	0,000000	2020-10-29T19:04:49:258
68,000000	0,000000	1030,000000	0,000000	2020-10-29T19:04:49:297
68,000000	0,000000	1030,000000	0,000000	2020-10-29T19:04:49:338
68,000000	0,000000	1030,000000	0,000000	2020-10-29T19:04:49:377
67,000000	0,000000	1030,000000	0,000000	2020-10-29T19:04:49:418
67,000000	0,000000	1030,000000	0,000000	2020-10-29T19:04:49:457
67,000000	0,000000	1030,000000	0,000000	2020-10-29T19:04:49:498
67,000000	0,000000	1030,000000	0,000000	2020-10-29T19:04:49:547
67,000000	0,000000	1030,000000	0,000000	2020-10-29T19:04:49:579
67,000000	0,000000	1030,000000	0,000000	2020-10-29T19:04:49:616
67,000000	0,000000	1030,000000	0,000000	2020-10-29T19:04:49:658
67,000000	0,000000	1030,000000	0,000000	2020-10-29T19:04:49:698
67,000000	0,000000	1030,000000	0,000000	2020-10-29T19:04:49:739
67,000000	0,000000	1030,000000	0,000000	2020-10-29T19:04:49:777
67,000000	0,000000	1030,000000	0,000000	2020-10-29T19:04:49:818
67,000000	0,000000	914,000000	0,000000	2020-10-29T19:04:49:857
67,000000	0,000000	914,000000	0,000000	2020-10-29T19:04:49:898
67,000000	0,000000	914,000000	0,000000	2020-10-29T19:04:49:937
67,000000	0,000000	914,000000	0,000000	2020-10-29T19:04:49:977
67,000000	0,000000	914,000000	0,000000	2020-10-29T19:04:50:017
67,000000	0,000000	914,000000	0,000000	2020-10-29T19:04:50:058
67,000000	0,000000	914,000000	0,000000	2020-10-29T19:04:50:098
67,000000	0,000000	914,000000	0,000000	2020-10-29T19:04:50:138
67,000000	0,000000	914,000000	0,000000	2020-10-29T19:04:50:178
67,000000	0,000000	914,000000	0,000000	2020-10-29T19:04:50:219
67,000000	0,000000	914,000000	0,000000	2020-10-29T19:04:50:258
67,000000	0,000000	914,000000	0,000000	2020-10-29T19:04:50:299
67,000000	0,000000	914,000000	0,000000	2020-10-29T19:04:50:338
66,000000	0,000000	914,000000	0,000000	2020-10-29T19:04:50:378
66,000000	0,000000	914,000000	0,000000	2020-10-29T19:04:50:418
66,000000	0,000000	914,000000	0,000000	2020-10-29T19:04:50:459
67,000000	0,000000	914,000000	0,000000	2020-10-29T19:04:50:498
67,000000	0,000000	914,000000	0,000000	2020-10-29T19:04:50:539
67,000000	0,000000	914,000000	0,000000	2020-10-29T19:04:50:579
66,000000	0,000000	914,000000	0,000000	2020-10-29T19:04:50:618
66,000000	0,000000	914,000000	0,000000	2020-10-29T19:04:50:658
67,000000	0,000000	922,000000	0,000000	2020-10-29T19:04:50:699
67,000000	0,000000	922,000000	0,000000	2020-10-29T19:04:50:738
66,000000	0,000000	922,000000	0,000000	2020-10-29T19:04:50:780
66,000000	0,000000	922,000000	0,000000	2020-10-29T19:04:50:818
66,000000	0,000000	922,000000	0,000000	2020-10-29T19:04:50:859
66,000000	0,000000	922,000000	0,000000	2020-10-29T19:04:50:899
66,000000	0,000000	922,000000	0,000000	2020-10-29T19:04:50:939
66,000000	0,000000	922,000000	0,000000	2020-10-29T19:04:50:978
66,000000	0,000000	922,000000	0,000000	2020-10-29T19:04:51:019
66,000000	0,000000	922,000000	0,000000	2020-10-29T19:04:51:059
66,000000	0,000000	922,000000	0,000000	2020-10-29T19:04:51:100
66,000000	0,000000	922,000000	0,000000	2020-10-29T19:04:51:138
66,000000	0,000000	922,000000	0,000000	2020-10-29T19:04:51:180
66,000000	0,000000	922,000000	0,000000	2020-10-29T19:04:51:219
66,000000	0,000000	922,000000	0,000000	2020-10-29T19:04:51:260
66,000000	0,000000	922,000000	0,000000	2020-10-29T19:04:51:299
66,000000	0,000000	922,000000	0,000000	2020-10-29T19:04:51:339
66,000000	0,000000	922,000000	0,000000	2020-10-29T19:04:51:379
66,000000	0,000000	922,000000	0,000000	2020-10-29T19:04:51:420
66,000000	0,000000	922,000000	0,000000	2020-10-29T19:04:51:459
66,000000	0,000000	922,000000	0,000000	2020-10-29T19:04:51:500
66,000000	0,000000	935,000000	0,000000	2020-10-29T19:04:51:539
66,000000	0,000000	935,000000	0,000000	2020-10-29T19:04:51:580
66,000000	0,000000	935,000000	0,000000	2020-10-29T19:04:51:619
66,000000	0,000000	935,000000	0,000000	2020-10-29T19:04:51:660
66,000000	0,000000	935,000000	0,000000	2020-10-29T19:04:51:699
66,000000	0,000000	935,000000	0,000000	2020-10-29T19:04:51:740
66,000000	0,000000	935,000000	0,000000	2020-10-29T19:04:51:781
66,000000	0,000000	935,000000	0,000000	2020-10-29T19:04:51:820
66,000000	0,000000	935,000000	0,000000	2020-10-29T19:04:51:859
66,000000	0,000000	935,000000	0,000000	2020-10-29T19:04:51:901
66,000000	0,000000	935,000000	0,000000	2020-10-29T19:04:51:940
66,000000	0,000000	935,000000	0,000000	2020-10-29T19:04:51:981
66,000000	0,000000	935,000000	0,000000	2020-10-29T19:04:52:019
66,000000	0,000000	935,000000	0,000000	2020-10-29T19:04:52:060
66,000000	0,000000	935,000000	0,000000	2020-10-29T19:04:52:100
66,000000	0,000000	935,000000	0,000000	2020-10-29T19:04:52:141
66,000000	0,000000	935,000000	0,000000	2020-10-29T19:04:52:180
67,000000	0,000000	935,000000	0,000000	2020-10-29T19:04:52:221
67,000000	0,000000	935,000000	0,000000	2020-10-29T19:04:52:260
67,000000	0,000000	935,000000	0,000000	2020-10-29T19:04:52:301
66,000000	0,000000	935,000000	0,000000	2020-10-29T19:04:52:340
66,000000	0,000000	935,000000	0,000000	2020-10-29T19:04:52:381
66,000000	0,000000	935,000000	0,000000	2020-10-29T19:04:52:420
67,000000	0,000000	935,000000	0,000000	2020-10-29T19:04:52:464
67,000000	0,000000	935,000000	0,000000	2020-10-29T19:04:52:501
66,000000	0,000000	935,000000	0,000000	2020-10-29T19:04:52:541
67,000000	0,000000	935,000000	0,000000	2020-10-29T19:04:52:581
67,000000	0,000000	935,000000	0,000000	2020-10-29T19:04:52:621
67,000000	0,000000	935,000000	0,000000	2020-10-29T19:04:52:660
67,000000	0,000000	935,000000	0,000000	2020-10-29T19:04:52:701
67,000000	0,000000	935,000000	0,000000	2020-10-29T19:04:52:740
67,000000	0,000000	935,000000	0,000000	2020-10-29T19:04:52:782
68,000000	0,000000	935,000000	0,000000	2020-10-29T19:04:52:820
68,000000	0,000000	935,000000	0,000000	2020-10-29T19:04:52:861
67,000000	0,000000	935,000000	0,000000	2020-10-29T19:04:52:909
68,000000	0,000000	817,000000	0,000000	2020-10-29T19:04:52:965
68,000000	0,000000	817,000000	0,000000	2020-10-29T19:04:52:982
68,000000	0,000000	817,000000	0,000000	2020-10-29T19:04:53:020
68,000000	0,000000	817,000000	0,000000	2020-10-29T19:04:53:061
68,000000	0,000000	817,000000	0,000000	2020-10-29T19:04:53:102
68,000000	0,000000	817,000000	0,000000	2020-10-29T19:04:53:141
68,000000	0,000000	817,000000	0,000000	2020-10-29T19:04:53:182
68,000000	0,000000	817,000000	0,000000	2020-10-29T19:04:53:221
68,000000	0,000000	817,000000	0,000000	2020-10-29T19:04:53:261
68,000000	0,000000	817,000000	0,000000	2020-10-29T19:04:53:301
68,000000	0,000000	817,000000	0,000000	2020-10-29T19:04:53:341
68,000000	0,000000	817,000000	0,000000	2020-10-29T19:04:53:381
68,000000	0,000000	817,000000	0,000000	2020-10-29T19:04:53:422
69,000000	0,000000	817,000000	0,000000	2020-10-29T19:04:53:461
68,000000	0,000000	817,000000	0,000000	2020-10-29T19:04:53:501
68,000000	0,000000	817,000000	0,000000	2020-10-29T19:04:53:541
69,000000	0,000000	817,000000	0,000000	2020-10-29T19:04:53:582
69,000000	0,000000	817,000000	0,000000	2020-10-29T19:04:53:621
69,000000	0,000000	817,000000	0,000000	2020-10-29T19:04:53:662
69,000000	0,000000	817,000000	0,000000	2020-10-29T19:04:53:701
69,000000	0,000000	817,000000	0,000000	2020-10-29T19:04:53:742
69,000000	0,000000	817,000000	0,000000	2020-10-29T19:04:53:781
69,000000	0,000000	817,000000	0,000000	2020-10-29T19:04:53:823
69,000000	0,000000	817,000000	0,000000	2020-10-29T19:04:53:861
69,000000	0,000000	817,000000	0,000000	2020-10-29T19:04:53:903
69,000000	0,000000	817,000000	0,000000	2020-10-29T19:04:53:941
69,000000	0,000000	817,000000	0,000000	2020-10-29T19:04:53:983
69,000000	0,000000	817,000000	0,000000	2020-10-29T19:04:54:022
69,000000	0,000000	817,000000	0,000000	2020-10-29T19:04:54:063
69,000000	0,000000	817,000000	0,000000	2020-10-29T19:04:54:102
69,000000	0,000000	817,000000	0,000000	2020-10-29T19:04:54:143
69,000000	0,000000	817,000000	0,000000	2020-10-29T19:04:54:182
69,000000	0,000000	817,000000	0,000000	2020-10-29T19:04:54:223
69,000000	0,000000	817,000000	0,000000	2020-10-29T19:04:54:262
69,000000	0,000000	817,000000	0,000000	2020-10-29T19:04:54:303
69,000000	0,000000	817,000000	0,000000	2020-10-29T19:04:54:342
69,000000	0,000000	817,000000	0,000000	2020-10-29T19:04:54:383
69,000000	0,000000	817,000000	0,000000	2020-10-29T19:04:54:422
69,000000	0,000000	817,000000	0,000000	2020-10-29T19:04:54:463
69,000000	0,000000	817,000000	0,000000	2020-10-29T19:04:54:502
69,000000	0,000000	817,000000	0,000000	2020-10-29T19:04:54:543
69,000000	0,000000	817,000000	0,000000	2020-10-29T19:04:54:583
69,000000	0,000000	817,000000	0,000000	2020-10-29T19:04:54:623
69,000000	0,000000	817,000000	0,000000	2020-10-29T19:04:54:662
69,000000	0,000000	817,000000	0,000000	2020-10-29T19:04:54:703
69,000000	0,000000	817,000000	0,000000	2020-10-29T19:04:54:742
69,000000	0,000000	817,000000	0,000000	2020-10-29T19:04:54:784
69,000000	0,000000	817,000000	0,000000	2020-10-29T19:04:54:822
69,000000	0,000000	817,000000	0,000000	2020-10-29T19:04:54:863
69,000000	0,000000	839,000000	0,000000	2020-10-29T19:04:54:903
69,000000	0,000000	839,000000	0,000000	2020-10-29T19:04:54:943
69,000000	0,000000	839,000000	0,000000	2020-10-29T19:04:54:983
69,000000	0,000000	839,000000	0,000000	2020-10-29T19:04:55:023
70,000000	0,000000	839,000000	0,000000	2020-10-29T19:04:55:063
70,000000	0,000000	839,000000	0,000000	2020-10-29T19:04:55:104
70,000000	0,000000	839,000000	0,000000	2020-10-29T19:04:55:142
69,000000	0,000000	839,000000	0,000000	2020-10-29T19:04:55:184
69,000000	0,000000	839,000000	0,000000	2020-10-29T19:04:55:223
69,000000	0,000000	839,000000	0,000000	2020-10-29T19:04:55:263
69,000000	0,000000	839,000000	0,000000	2020-10-29T19:04:55:303
69,000000	0,000000	839,000000	0,000000	2020-10-29T19:04:55:343
69,000000	0,000000	839,000000	0,000000	2020-10-29T19:04:55:383
69,000000	0,000000	839,000000	0,000000	2020-10-29T19:04:55:423
69,000000	0,000000	839,000000	0,000000	2020-10-29T19:04:55:463
69,000000	0,000000	839,000000	0,000000	2020-10-29T19:04:55:504
69,000000	0,000000	839,000000	0,000000	2020-10-29T19:04:55:543
69,000000	0,000000	839,000000	0,000000	2020-10-29T19:04:55:584
69,000000	0,000000	839,000000	0,000000	2020-10-29T19:04:55:623
69,000000	0,000000	839,000000	0,000000	2020-10-29T19:04:55:663
69,000000	0,000000	839,000000	0,000000	2020-10-29T19:04:55:703
69,000000	0,000000	974,000000	0,000000	2020-10-29T19:04:55:744
69,000000	0,000000	974,000000	0,000000	2020-10-29T19:04:55:783
69,000000	0,000000	974,000000	0,000000	2020-10-29T19:04:55:824
69,000000	0,000000	974,000000	0,000000	2020-10-29T19:04:55:864
69,000000	0,000000	974,000000	0,000000	2020-10-29T19:04:55:904
69,000000	0,000000	974,000000	0,000000	2020-10-29T19:04:55:943
69,000000	0,000000	974,000000	0,000000	2020-10-29T19:04:55:985
69,000000	0,000000	974,000000	0,000000	2020-10-29T19:04:56:023
69,000000	0,000000	974,000000	0,000000	2020-10-29T19:04:56:065
69,000000	0,000000	974,000000	0,000000	2020-10-29T19:04:56:104
69,000000	0,000000	974,000000	0,000000	2020-10-29T19:04:56:144
69,000000	0,000000	974,000000	0,000000	2020-10-29T19:04:56:184
69,000000	0,000000	974,000000	0,000000	2020-10-29T19:04:56:224
69,000000	0,000000	974,000000	0,000000	2020-10-29T19:04:56:264
69,000000	0,000000	974,000000	0,000000	2020-10-29T19:04:56:305
69,000000	0,000000	974,000000	0,000000	2020-10-29T19:04:56:344
69,000000	0,000000	974,000000	0,000000	2020-10-29T19:04:56:385
69,000000	0,000000	974,000000	0,000000	2020-10-29T19:04:56:424
69,000000	0,000000	974,000000	0,000000	2020-10-29T19:04:56:465
69,000000	0,000000	974,000000	0,000000	2020-10-29T19:04:56:503
69,000000	0,000000	974,000000	0,000000	2020-10-29T19:04:56:545
69,000000	0,000000	974,000000	0,000000	2020-10-29T19:04:56:585
69,000000	0,000000	974,000000	0,000000	2020-10-29T19:04:56:625
69,000000	0,000000	974,000000	0,000000	2020-10-29T19:04:56:664
69,000000	0,000000	974,000000	0,000000	2020-10-29T19:04:56:705
69,000000	0,000000	974,000000	0,000000	2020-10-29T19:04:56:744
69,000000	0,000000	974,000000	0,000000	2020-10-29T19:04:56:787
69,000000	0,000000	974,000000	0,000000	2020-10-29T19:04:56:824
69,000000	0,000000	1015,000000	0,000000	2020-10-29T19:04:56:865
68,000000	0,000000	1015,000000	0,000000	2020-10-29T19:04:56:905
68,000000	0,000000	1015,000000	0,000000	2020-10-29T19:04:56:945
68,000000	0,000000	1015,000000	0,000000	2020-10-29T19:04:56:984
69,000000	0,000000	1015,000000	0,000000	2020-10-29T19:04:57:025
69,000000	0,000000	1015,000000	0,000000	2020-10-29T19:04:57:064
68,000000	0,000000	1015,000000	0,000000	2020-10-29T19:04:57:105
68,000000	0,000000	1015,000000	0,000000	2020-10-29T19:04:57:144
68,000000	0,000000	1015,000000	0,000000	2020-10-29T19:04:57:186
68,000000	0,000000	1015,000000	0,000000	2020-10-29T19:04:57:224
68,000000	0,000000	1015,000000	0,000000	2020-10-29T19:04:57:266
68,000000	0,000000	1015,000000	0,000000	2020-10-29T19:04:57:305
68,000000	0,000000	1015,000000	0,000000	2020-10-29T19:04:57:345
68,000000	0,000000	1015,000000	0,000000	2020-10-29T19:04:57:385
68,000000	0,000000	1015,000000	0,000000	2020-10-29T19:04:57:425
68,000000	0,000000	1015,000000	0,000000	2020-10-29T19:04:57:466
68,000000	0,000000	1015,000000	0,000000	2020-10-29T19:04:57:506
68,000000	0,000000	1015,000000	0,000000	2020-10-29T19:04:57:545
68,000000	0,000000	1015,000000	0,000000	2020-10-29T19:04:57:586
68,000000	0,000000	1015,000000	0,000000	2020-10-29T19:04:57:625
68,000000	0,000000	1015,000000	0,000000	2020-10-29T19:04:57:666
68,000000	0,000000	948,000000	0,000000	2020-10-29T19:04:57:705
68,000000	0,000000	948,000000	0,000000	2020-10-29T19:04:57:746
68,000000	0,000000	948,000000	0,000000	2020-10-29T19:04:57:785
68,000000	0,000000	948,000000	0,000000	2020-10-29T19:04:57:826
68,000000	0,000000	948,000000	0,000000	2020-10-29T19:04:57:864
68,000000	0,000000	948,000000	0,000000	2020-10-29T19:04:57:908
68,000000	0,000000	948,000000	0,000000	2020-10-29T19:04:57:945
68,000000	0,000000	948,000000	0,000000	2020-10-29T19:04:57:987
68,000000	0,000000	948,000000	0,000000	2020-10-29T19:04:58:024
68,000000	0,000000	948,000000	0,000000	2020-10-29T19:04:58:066
68,000000	0,000000	948,000000	0,000000	2020-10-29T19:04:58:105
68,000000	0,000000	948,000000	0,000000	2020-10-29T19:04:58:145
68,000000	0,000000	948,000000	0,000000	2020-10-29T19:04:58:186
68,000000	0,000000	948,000000	0,000000	2020-10-29T19:04:58:227
68,000000	0,000000	948,000000	0,000000	2020-10-29T19:04:58:266
67,000000	0,000000	948,000000	0,000000	2020-10-29T19:04:58:308
67,000000	0,000000	948,000000	0,000000	2020-10-29T19:04:58:347
68,000000	0,000000	948,000000	0,000000	2020-10-29T19:04:58:388
68,000000	0,000000	948,000000	0,000000	2020-10-29T19:04:58:426
68,000000	0,000000	948,000000	0,000000	2020-10-29T19:04:58:467
68,000000	0,000000	948,000000	0,000000	2020-10-29T19:04:58:506
68,000000	0,000000	924,000000	0,000000	2020-10-29T19:04:58:547
68,000000	0,000000	924,000000	0,000000	2020-10-29T19:04:58:587
68,000000	0,000000	924,000000	0,000000	2020-10-29T19:04:58:628
68,000000	0,000000	924,000000	0,000000	2020-10-29T19:04:58:666
68,000000	0,000000	924,000000	0,000000	2020-10-29T19:04:58:708
68,000000	0,000000	924,000000	0,000000	2020-10-29T19:04:58:747
67,000000	0,000000	924,000000	0,000000	2020-10-29T19:04:58:788
67,000000	0,000000	924,000000	0,000000	2020-10-29T19:04:58:827
67,000000	0,000000	924,000000	0,000000	2020-10-29T19:04:58:868
67,000000	0,000000	924,000000	0,000000	2020-10-29T19:04:58:907
67,000000	0,000000	924,000000	0,000000	2020-10-29T19:04:58:948
67,000000	0,000000	924,000000	0,000000	2020-10-29T19:04:58:987
67,000000	0,000000	924,000000	0,000000	2020-10-29T19:04:59:027
67,000000	0,000000	924,000000	0,000000	2020-10-29T19:04:59:067
67,000000	0,000000	924,000000	0,000000	2020-10-29T19:04:59:109
67,000000	0,000000	924,000000	0,000000	2020-10-29T19:04:59:147
67,000000	0,000000	924,000000	0,000000	2020-10-29T19:04:59:190
67,000000	0,000000	924,000000	0,000000	2020-10-29T19:04:59:227
67,000000	0,000000	924,000000	0,000000	2020-10-29T19:04:59:268
67,000000	0,000000	924,000000	0,000000	2020-10-29T19:04:59:307
67,000000	0,000000	924,000000	0,000000	2020-10-29T19:04:59:350
67,000000	0,000000	925,000000	0,000000	2020-10-29T19:04:59:389
67,000000	0,000000	925,000000	0,000000	2020-10-29T19:04:59:430
67,000000	0,000000	925,000000	0,000000	2020-10-29T19:04:59:469
67,000000	0,000000	925,000000	0,000000	2020-10-29T19:04:59:513
67,000000	0,000000	925,000000	0,000000	2020-10-29T19:04:59:549
67,000000	0,000000	925,000000	0,000000	2020-10-29T19:04:59:590
67,000000	0,000000	925,000000	0,000000	2020-10-29T19:04:59:628
67,000000	0,000000	925,000000	0,000000	2020-10-29T19:04:59:670
67,000000	0,000000	925,000000	0,000000	2020-10-29T19:04:59:709
67,000000	0,000000	925,000000	0,000000	2020-10-29T19:04:59:750
67,000000	0,000000	925,000000	0,000000	2020-10-29T19:04:59:789
67,000000	0,000000	925,000000	0,000000	2020-10-29T19:04:59:829
67,000000	0,000000	925,000000	0,000000	2020-10-29T19:04:59:868
67,000000	0,000000	925,000000	0,000000	2020-10-29T19:04:59:910
67,000000	0,000000	925,000000	0,000000	2020-10-29T19:04:59:949
67,000000	0,000000	925,000000	0,000000	2020-10-29T19:04:59:990
67,000000	0,000000	925,000000	0,000000	2020-10-29T19:05:00:029
67,000000	0,000000	925,000000	0,000000	2020-10-29T19:05:00:070
66,000000	0,000000	925,000000	0,000000	2020-10-29T19:05:00:109
67,000000	0,000000	925,000000	0,000000	2020-10-29T19:05:00:149
67,000000	0,000000	925,000000	0,000000	2020-10-29T19:05:00:189
67,000000	0,000000	844,000000	0,000000	2020-10-29T19:05:00:230
67,000000	0,000000	844,000000	0,000000	2020-10-29T19:05:00:269
67,000000	0,000000	844,000000	0,000000	2020-10-29T19:05:00:310
67,000000	0,000000	844,000000	0,000000	2020-10-29T19:05:00:348
67,000000	0,000000	844,000000	0,000000	2020-10-29T19:05:00:390
67,000000	0,000000	844,000000	0,000000	2020-10-29T19:05:00:428
67,000000	0,000000	844,000000	0,000000	2020-10-29T19:05:00:469
67,000000	0,000000	844,000000	0,000000	2020-10-29T19:05:00:509
67,000000	0,000000	844,000000	0,000000	2020-10-29T19:05:00:550
67,000000	0,000000	844,000000	0,000000	2020-10-29T19:05:00:590
68,000000	0,000000	844,000000	0,000000	2020-10-29T19:05:00:630
68,000000	0,000000	844,000000	0,000000	2020-10-29T19:05:00:669
67,000000	0,000000	844,000000	0,000000	2020-10-29T19:05:00:711
67,000000	0,000000	844,000000	0,000000	2020-10-29T19:05:00:749
68,000000	0,000000	844,000000	0,000000	2020-10-29T19:05:00:791
68,000000	0,000000	844,000000	0,000000	2020-10-29T19:05:00:829
68,000000	0,000000	844,000000	0,000000	2020-10-29T19:05:00:870
68,000000	0,000000	844,000000	0,000000	2020-10-29T19:05:00:910
68,000000	0,000000	844,000000	0,000000	2020-10-29T19:05:00:950
68,000000	0,000000	844,000000	0,000000	2020-10-29T19:05:00:990
68,000000	0,000000	844,000000	0,000000	2020-10-29T19:05:01:030
68,000000	0,000000	844,000000	0,000000	2020-10-29T19:05:01:069
68,000000	0,000000	844,000000	0,000000	2020-10-29T19:05:01:111
68,000000	0,000000	844,000000	0,000000	2020-10-29T19:05:01:149
69,000000	0,000000	844,000000	0,000000	2020-10-29T19:05:01:191
69,000000	0,000000	844,000000	0,000000	2020-10-29T19:05:01:229
68,000000	0,000000	844,000000	0,000000	2020-10-29T19:05:01:270
68,000000	0,000000	844,000000	0,000000	2020-10-29T19:05:01:310
69,000000	0,000000	844,000000	0,000000	2020-10-29T19:05:01:351
69,000000	0,000000	844,000000	0,000000	2020-10-29T19:05:01:390
69,000000	0,000000	844,000000	0,000000	2020-10-29T19:05:01:431
69,000000	0,000000	844,000000	0,000000	2020-10-29T19:05:01:470
70,000000	0,000000	844,000000	0,000000	2020-10-29T19:05:01:513
69,000000	0,000000	844,000000	0,000000	2020-10-29T19:05:01:549
69,000000	0,000000	844,000000	0,000000	2020-10-29T19:05:01:591
69,000000	0,000000	753,000000	0,000000	2020-10-29T19:05:01:630
69,000000	0,000000	753,000000	0,000000	2020-10-29T19:05:01:671
69,000000	0,000000	753,000000	0,000000	2020-10-29T19:05:01:711
69,000000	0,000000	753,000000	0,000000	2020-10-29T19:05:01:751
69,000000	0,000000	753,000000	0,000000	2020-10-29T19:05:01:791
69,000000	0,000000	753,000000	0,000000	2020-10-29T19:05:01:830
70,000000	0,000000	753,000000	0,000000	2020-10-29T19:05:01:869
70,000000	0,000000	753,000000	0,000000	2020-10-29T19:05:01:911
69,000000	0,000000	753,000000	0,000000	2020-10-29T19:05:01:949
69,000000	0,000000	753,000000	0,000000	2020-10-29T19:05:01:991
69,000000	0,000000	753,000000	0,000000	2020-10-29T19:05:02:029
70,000000	0,000000	753,000000	0,000000	2020-10-29T19:05:02:070
70,000000	0,000000	753,000000	0,000000	2020-10-29T19:05:02:110
70,000000	0,000000	753,000000	0,000000	2020-10-29T19:05:02:150
70,000000	0,000000	753,000000	0,000000	2020-10-29T19:05:02:190
70,000000	0,000000	753,000000	0,000000	2020-10-29T19:05:02:231
70,000000	0,000000	753,000000	0,000000	2020-10-29T19:05:02:269
70,000000	0,000000	753,000000	0,000000	2020-10-29T19:05:02:311
70,000000	0,000000	753,000000	0,000000	2020-10-29T19:05:02:350
70,000000	0,000000	753,000000	0,000000	2020-10-29T19:05:02:391
70,000000	0,000000	753,000000	0,000000	2020-10-29T19:05:02:430
70,000000	0,000000	753,000000	0,000000	2020-10-29T19:05:02:470
70,000000	0,000000	753,000000	0,000000	2020-10-29T19:05:02:510
70,000000	0,000000	753,000000	0,000000	2020-10-29T19:05:02:551
70,000000	0,000000	753,000000	0,000000	2020-10-29T19:05:02:591
70,000000	0,000000	753,000000	0,000000	2020-10-29T19:05:02:631
70,000000	0,000000	753,000000	0,000000	2020-10-29T19:05:02:670
70,000000	0,000000	753,000000	0,000000	2020-10-29T19:05:02:711
70,000000	0,000000	753,000000	0,000000	2020-10-29T19:05:02:750
70,000000	0,000000	753,000000	0,000000	2020-10-29T19:05:02:791
70,000000	0,000000	753,000000	0,000000	2020-10-29T19:05:02:830
70,000000	0,000000	753,000000	0,000000	2020-10-29T19:05:02:871
70,000000	0,000000	753,000000	0,000000	2020-10-29T19:05:02:911
70,000000	0,000000	753,000000	0,000000	2020-10-29T19:05:02:950
70,000000	0,000000	753,000000	0,000000	2020-10-29T19:05:02:991
70,000000	0,000000	753,000000	0,000000	2020-10-29T19:05:03:031
70,000000	0,000000	753,000000	0,000000	2020-10-29T19:05:03:071
70,000000	0,000000	753,000000	0,000000	2020-10-29T19:05:03:111
70,000000	0,000000	753,000000	0,000000	2020-10-29T19:05:03:150
70,000000	0,000000	753,000000	0,000000	2020-10-29T19:05:03:192
70,000000	0,000000	753,000000	0,000000	2020-10-29T19:05:03:230
70,000000	0,000000	753,000000	0,000000	2020-10-29T19:05:03:272
70,000000	0,000000	756,000000	0,000000	2020-10-29T19:05:03:311
70,000000	0,000000	756,000000	0,000000	2020-10-29T19:05:03:352
70,000000	0,000000	756,000000	0,000000	2020-10-29T19:05:03:391
70,000000	0,000000	756,000000	0,000000	2020-10-29T19:05:03:432
70,000000	0,000000	756,000000	0,000000	2020-10-29T19:05:03:470
70,000000	0,000000	756,000000	0,000000	2020-10-29T19:05:03:512
70,000000	0,000000	756,000000	0,000000	2020-10-29T19:05:03:551
70,000000	0,000000	756,000000	0,000000	2020-10-29T19:05:03:592
70,000000	0,000000	756,000000	0,000000	2020-10-29T19:05:03:631
70,000000	0,000000	756,000000	0,000000	2020-10-29T19:05:03:672
70,000000	0,000000	756,000000	0,000000	2020-10-29T19:05:03:711
70,000000	0,000000	756,000000	0,000000	2020-10-29T19:05:03:752
70,000000	0,000000	756,000000	0,000000	2020-10-29T19:05:03:791
70,000000	0,000000	756,000000	0,000000	2020-10-29T19:05:03:832
70,000000	0,000000	756,000000	0,000000	2020-10-29T19:05:03:871
70,000000	0,000000	756,000000	0,000000	2020-10-29T19:05:03:913
70,000000	0,000000	756,000000	0,000000	2020-10-29T19:05:03:951
70,000000	0,000000	756,000000	0,000000	2020-10-29T19:05:03:993
70,000000	0,000000	756,000000	0,000000	2020-10-29T19:05:04:032
70,000000	0,000000	756,000000	0,000000	2020-10-29T19:05:04:072
70,000000	0,000000	756,000000	0,000000	2020-10-29T19:05:04:111
70,000000	0,000000	756,000000	0,000000	2020-10-29T19:05:04:152
70,000000	0,000000	756,000000	0,000000	2020-10-29T19:05:04:192
70,000000	0,000000	756,000000	0,000000	2020-10-29T19:05:04:232
70,000000	0,000000	756,000000	0,000000	2020-10-29T19:05:04:271
70,000000	0,000000	756,000000	0,000000	2020-10-29T19:05:04:313
70,000000	0,000000	756,000000	0,000000	2020-10-29T19:05:04:352
70,000000	0,000000	756,000000	0,000000	2020-10-29T19:05:04:393
70,000000	0,000000	895,000000	0,000000	2020-10-29T19:05:04:431
70,000000	0,000000	895,000000	0,000000	2020-10-29T19:05:04:472
70,000000	0,000000	895,000000	0,000000	2020-10-29T19:05:04:512
70,000000	0,000000	895,000000	0,000000	2020-10-29T19:05:04:553
70,000000	0,000000	895,000000	0,000000	2020-10-29T19:05:04:593
70,000000	0,000000	895,000000	0,000000	2020-10-29T19:05:04:633
70,000000	0,000000	895,000000	0,000000	2020-10-29T19:05:04:672
70,000000	0,000000	895,000000	0,000000	2020-10-29T19:05:04:713
70,000000	0,000000	895,000000	0,000000	2020-10-29T19:05:04:752
70,000000	0,000000	895,000000	0,000000	2020-10-29T19:05:04:793
70,000000	0,000000	895,000000	0,000000	2020-10-29T19:05:04:832
70,000000	0,000000	895,000000	0,000000	2020-10-29T19:05:04:873
70,000000	0,000000	895,000000	0,000000	2020-10-29T19:05:04:913
69,000000	0,000000	895,000000	0,000000	2020-10-29T19:05:04:953
70,000000	0,000000	895,000000	0,000000	2020-10-29T19:05:04:993
70,000000	0,000000	895,000000	0,000000	2020-10-29T19:05:05:033
70,000000	0,000000	895,000000	0,000000	2020-10-29T19:05:05:073
70,000000	0,000000	895,000000	0,000000	2020-10-29T19:05:05:113
70,000000	0,000000	895,000000	0,000000	2020-10-29T19:05:05:152
70,000000	0,000000	895,000000	0,000000	2020-10-29T19:05:05:194
70,000000	0,000000	895,000000	0,000000	2020-10-29T19:05:05:233
70,000000	0,000000	964,000000	0,000000	2020-10-29T19:05:05:273
70,000000	0,000000	964,000000	0,000000	2020-10-29T19:05:05:313
69,000000	0,000000	964,000000	0,000000	2020-10-29T19:05:05:354
69,000000	0,000000	964,000000	0,000000	2020-10-29T19:05:05:392
69,000000	0,000000	964,000000	0,000000	2020-10-29T19:05:05:434
70,000000	0,000000	964,000000	0,000000	2020-10-29T19:05:05:473
70,000000	0,000000	964,000000	0,000000	2020-10-29T19:05:05:513
69,000000	0,000000	964,000000	0,000000	2020-10-29T19:05:05:553
69,000000	0,000000	964,000000	0,000000	2020-10-29T19:05:05:594
69,000000	0,000000	964,000000	0,000000	2020-10-29T19:05:05:633
69,000000	0,000000	964,000000	0,000000	2020-10-29T19:05:05:674
69,000000	0,000000	964,000000	0,000000	2020-10-29T19:05:05:713
69,000000	0,000000	964,000000	0,000000	2020-10-29T19:05:05:754
69,000000	0,000000	964,000000	0,000000	2020-10-29T19:05:05:793
69,000000	0,000000	964,000000	0,000000	2020-10-29T19:05:05:833
69,000000	0,000000	964,000000	0,000000	2020-10-29T19:05:05:874
69,000000	0,000000	964,000000	0,000000	2020-10-29T19:05:05:915
69,000000	0,000000	964,000000	0,000000	2020-10-29T19:05:05:953
69,000000	0,000000	964,000000	0,000000	2020-10-29T19:05:05:995
69,000000	0,000000	964,000000	0,000000	2020-10-29T19:05:06:033
69,000000	0,000000	964,000000	0,000000	2020-10-29T19:05:06:075
69,000000	0,000000	960,000000	0,000000	2020-10-29T19:05:06:113
69,000000	0,000000	960,000000	0,000000	2020-10-29T19:05:06:155
69,000000	0,000000	960,000000	0,000000	2020-10-29T19:05:06:194
69,000000	0,000000	960,000000	0,000000	2020-10-29T19:05:06:235
69,000000	0,000000	960,000000	0,000000	2020-10-29T19:05:06:274
69,000000	0,000000	960,000000	0,000000	2020-10-29T19:05:06:315
69,000000	0,000000	960,000000	0,000000	2020-10-29T19:05:06:354
69,000000	0,000000	960,000000	0,000000	2020-10-29T19:05:06:395
69,000000	0,000000	960,000000	0,000000	2020-10-29T19:05:06:434
69,000000	0,000000	960,000000	0,000000	2020-10-29T19:05:06:475
69,000000	0,000000	960,000000	0,000000	2020-10-29T19:05:06:514
69,000000	0,000000	960,000000	0,000000	2020-10-29T19:05:06:555
69,000000	0,000000	960,000000	0,000000	2020-10-29T19:05:06:594
69,000000	0,000000	960,000000	0,000000	2020-10-29T19:05:06:635
69,000000	0,000000	960,000000	0,000000	2020-10-29T19:05:06:674
69,000000	0,000000	960,000000	0,000000	2020-10-29T19:05:06:715
68,000000	0,000000	960,000000	0,000000	2020-10-29T19:05:06:754
68,000000	0,000000	960,000000	0,000000	2020-10-29T19:05:06:797
68,000000	0,000000	960,000000	0,000000	2020-10-29T19:05:06:834
69,000000	0,000000	960,000000	0,000000	2020-10-29T19:05:06:875
69,000000	0,000000	960,000000	0,000000	2020-10-29T19:05:06:915
68,000000	0,000000	913,000000	0,000000	2020-10-29T19:05:06:955
68,000000	0,000000	913,000000	0,000000	2020-10-29T19:05:06:994
68,000000	0,000000	913,000000	0,000000	2020-10-29T19:05:07:035
69,000000	0,000000	913,000000	0,000000	2020-10-29T19:05:07:074
69,000000	0,000000	913,000000	0,000000	2020-10-29T19:05:07:115
68,000000	0,000000	913,000000	0,000000	2020-10-29T19:05:07:154
68,000000	0,000000	913,000000	0,000000	2020-10-29T19:05:07:196
68,000000	0,000000	913,000000	0,000000	2020-10-29T19:05:07:234
68,000000	0,000000	913,000000	0,000000	2020-10-29T19:05:07:276
68,000000	0,000000	913,000000	0,000000	2020-10-29T19:05:07:314
68,000000	0,000000	913,000000	0,000000	2020-10-29T19:05:07:356
68,000000	0,000000	913,000000	0,000000	2020-10-29T19:05:07:395
68,000000	0,000000	913,000000	0,000000	2020-10-29T19:05:07:435
68,000000	0,000000	913,000000	0,000000	2020-10-29T19:05:07:478
68,000000	0,000000	913,000000	0,000000	2020-10-29T19:05:07:516
68,000000	0,000000	913,000000	0,000000	2020-10-29T19:05:07:555
68,000000	0,000000	913,000000	0,000000	2020-10-29T19:05:07:596
68,000000	0,000000	913,000000	0,000000	2020-10-29T19:05:07:634
68,000000	0,000000	913,000000	0,000000	2020-10-29T19:05:07:676
68,000000	0,000000	913,000000	0,000000	2020-10-29T19:05:07:715
68,000000	0,000000	913,000000	0,000000	2020-10-29T19:05:07:756
68,000000	0,000000	913,000000	0,000000	2020-10-29T19:05:07:795
68,000000	0,000000	913,000000	0,000000	2020-10-29T19:05:07:835
68,000000	0,000000	913,000000	0,000000	2020-10-29T19:05:07:875
68,000000	0,000000	913,000000	0,000000	2020-10-29T19:05:07:917
68,000000	0,000000	913,000000	0,000000	2020-10-29T19:05:07:955
68,000000	0,000000	913,000000	0,000000	2020-10-29T19:05:07:996
68,000000	0,000000	913,000000	0,000000	2020-10-29T19:05:08:037
68,000000	0,000000	875,000000	0,000000	2020-10-29T19:05:08:076
68,000000	0,000000	875,000000	0,000000	2020-10-29T19:05:08:116
68,000000	0,000000	875,000000	0,000000	2020-10-29T19:05:08:156
68,000000	0,000000	875,000000	0,000000	2020-10-29T19:05:08:196
68,000000	0,000000	875,000000	0,000000	2020-10-29T19:05:08:236
68,000000	0,000000	875,000000	0,000000	2020-10-29T19:05:08:275
68,000000	0,000000	875,000000	0,000000	2020-10-29T19:05:08:317
68,000000	0,000000	875,000000	0,000000	2020-10-29T19:05:08:356
68,000000	0,000000	875,000000	0,000000	2020-10-29T19:05:08:397
68,000000	0,000000	875,000000	0,000000	2020-10-29T19:05:08:435
68,000000	0,000000	875,000000	0,000000	2020-10-29T19:05:08:476
68,000000	0,000000	875,000000	0,000000	2020-10-29T19:05:08:516
68,000000	0,000000	875,000000	0,000000	2020-10-29T19:05:08:556
68,000000	0,000000	875,000000	0,000000	2020-10-29T19:05:08:596
68,000000	0,000000	875,000000	0,000000	2020-10-29T19:05:08:637
68,000000	0,000000	875,000000	0,000000	2020-10-29T19:05:08:676
68,000000	0,000000	875,000000	0,000000	2020-10-29T19:05:08:717
68,000000	0,000000	875,000000	0,000000	2020-10-29T19:05:08:756
68,000000	0,000000	875,000000	0,000000	2020-10-29T19:05:08:797
68,000000	0,000000	875,000000	0,000000	2020-10-29T19:05:08:836
68,000000	0,000000	875,000000	0,000000	2020-10-29T19:05:08:877
68,000000	0,000000	875,000000	0,000000	2020-10-29T19:05:08:917
68,000000	0,000000	875,000000	0,000000	2020-10-29T19:05:08:957
68,000000	0,000000	875,000000	0,000000	2020-10-29T19:05:08:996
68,000000	0,000000	875,000000	0,000000	2020-10-29T19:05:09:037
68,000000	0,000000	875,000000	0,000000	2020-10-29T19:05:09:076
68,000000	0,000000	875,000000	0,000000	2020-10-29T19:05:09:118
68,000000	0,000000	875,000000	0,000000	2020-10-29T19:05:09:156
69,000000	0,000000	875,000000	0,000000	2020-10-29T19:05:09:198
68,000000	0,000000	875,000000	0,000000	2020-10-29T19:05:09:236
68,000000	0,000000	875,000000	0,000000	2020-10-29T19:05:09:278
68,000000	0,000000	875,000000	0,000000	2020-10-29T19:05:09:317
69,000000	0,000000	875,000000	0,000000	2020-10-29T19:05:09:357
69,000000	0,000000	875,000000	0,000000	2020-10-29T19:05:09:397
69,000000	0,000000	875,000000	0,000000	2020-10-29T19:05:09:438
69,000000	0,000000	853,000000	0,000000	2020-10-29T19:05:09:477
69,000000	0,000000	853,000000	0,000000	2020-10-29T19:05:09:521
69,000000	0,000000	853,000000	0,000000	2020-10-29T19:05:09:557
69,000000	0,000000	853,000000	0,000000	2020-10-29T19:05:09:598
69,000000	0,000000	853,000000	0,000000	2020-10-29T19:05:09:637
69,000000	0,000000	853,000000	0,000000	2020-10-29T19:05:09:678
69,000000	0,000000	853,000000	0,000000	2020-10-29T19:05:09:717
69,000000	0,000000	853,000000	0,000000	2020-10-29T19:05:09:758
69,000000	0,000000	853,000000	0,000000	2020-10-29T19:05:09:797
69,000000	0,000000	853,000000	0,000000	2020-10-29T19:05:09:838
69,000000	0,000000	853,000000	0,000000	2020-10-29T19:05:09:877
69,000000	0,000000	853,000000	0,000000	2020-10-29T19:05:09:919
69,000000	0,000000	853,000000	0,000000	2020-10-29T19:05:09:957
69,000000	0,000000	853,000000	0,000000	2020-10-29T19:05:09:998
69,000000	0,000000	853,000000	0,000000	2020-10-29T19:05:10:037
69,000000	0,000000	853,000000	0,000000	2020-10-29T19:05:10:099
69,000000	0,000000	853,000000	0,000000	2020-10-29T19:05:10:136
69,000000	0,000000	853,000000	0,000000	2020-10-29T19:05:10:162
69,000000	0,000000	853,000000	0,000000	2020-10-29T19:05:10:198
69,000000	0,000000	853,000000	0,000000	2020-10-29T19:05:10:237
69,000000	0,000000	853,000000	0,000000	2020-10-29T19:05:10:279
69,000000	0,000000	853,000000	0,000000	2020-10-29T19:05:10:319
69,000000	0,000000	853,000000	0,000000	2020-10-29T19:05:10:357
69,000000	0,000000	853,000000	0,000000	2020-10-29T19:05:10:400
67,000000	0,000000	897,000000	0,000000	2020-10-29T19:05:16:140
67,000000	0,000000	897,000000	0,000000	2020-10-29T19:05:16:149
67,000000	0,000000	897,000000	0,000000	2020-10-29T19:05:16:185
67,000000	0,000000	897,000000	0,000000	2020-10-29T19:05:16:226
67,000000	0,000000	897,000000	0,000000	2020-10-29T19:05:16:266
67,000000	0,000000	897,000000	0,000000	2020-10-29T19:05:16:305
67,000000	0,000000	897,000000	0,000000	2020-10-29T19:05:16:349
67,000000	0,000000	897,000000	0,000000	2020-10-29T19:05:16:385
67,000000	0,000000	897,000000	0,000000	2020-10-29T19:05:16:426
68,000000	0,000000	897,000000	0,000000	2020-10-29T19:05:16:466
67,000000	0,000000	897,000000	0,000000	2020-10-29T19:05:16:507
67,000000	0,000000	897,000000	0,000000	2020-10-29T19:05:16:547
67,000000	0,000000	849,000000	0,000000	2020-10-29T19:05:16:587
67,000000	0,000000	849,000000	0,000000	2020-10-29T19:05:16:627
67,000000	0,000000	849,000000	0,000000	2020-10-29T19:05:16:667
67,000000	0,000000	849,000000	0,000000	2020-10-29T19:05:16:705
67,000000	0,000000	849,000000	0,000000	2020-10-29T19:05:16:747
67,000000	0,000000	849,000000	0,000000	2020-10-29T19:05:16:786
67,000000	0,000000	849,000000	0,000000	2020-10-29T19:05:16:828
68,000000	0,000000	849,000000	0,000000	2020-10-29T19:05:16:866
68,000000	0,000000	849,000000	0,000000	2020-10-29T19:05:16:908
67,000000	0,000000	849,000000	0,000000	2020-10-29T19:05:16:946
67,000000	0,000000	849,000000	0,000000	2020-10-29T19:05:16:987
67,000000	0,000000	849,000000	0,000000	2020-10-29T19:05:17:027
68,000000	0,000000	849,000000	0,000000	2020-10-29T19:05:17:067
68,000000	0,000000	849,000000	0,000000	2020-10-29T19:05:17:106
67,000000	0,000000	849,000000	0,000000	2020-10-29T19:05:17:148
67,000000	0,000000	849,000000	0,000000	2020-10-29T19:05:17:187
68,000000	0,000000	849,000000	0,000000	2020-10-29T19:05:17:228
68,000000	0,000000	849,000000	0,000000	2020-10-29T19:05:17:266
68,000000	0,000000	849,000000	0,000000	2020-10-29T19:05:17:308
68,000000	0,000000	849,000000	0,000000	2020-10-29T19:05:17:347
68,000000	0,000000	849,000000	0,000000	2020-10-29T19:05:17:387
68,000000	0,000000	849,000000	0,000000	2020-10-29T19:05:17:427
68,000000	0,000000	849,000000	0,000000	2020-10-29T19:05:17:468
68,000000	0,000000	849,000000	0,000000	2020-10-29T19:05:17:506
68,000000	0,000000	849,000000	0,000000	2020-10-29T19:05:17:548
68,000000	0,000000	849,000000	0,000000	2020-10-29T19:05:17:586
68,000000	0,000000	849,000000	0,000000	2020-10-29T19:05:17:628
68,000000	0,000000	849,000000	0,000000	2020-10-29T19:05:17:667
68,000000	0,000000	849,000000	0,000000	2020-10-29T19:05:17:708
68,000000	0,000000	849,000000	0,000000	2020-10-29T19:05:17:748
69,000000	0,000000	849,000000	0,000000	2020-10-29T19:05:17:788
69,000000	0,000000	849,000000	0,000000	2020-10-29T19:05:17:827
68,000000	0,000000	849,000000	0,000000	2020-10-29T19:05:17:868
68,000000	0,000000	849,000000	0,000000	2020-10-29T19:05:17:907
68,000000	0,000000	849,000000	0,000000	2020-10-29T19:05:17:948
68,000000	0,000000	807,000000	0,000000	2020-10-29T19:05:17:988
68,000000	0,000000	807,000000	0,000000	2020-10-29T19:05:18:029
69,000000	0,000000	807,000000	0,000000	2020-10-29T19:05:18:067
69,000000	0,000000	807,000000	0,000000	2020-10-29T19:05:18:109
69,000000	0,000000	807,000000	0,000000	2020-10-29T19:05:18:149
