x	y	z	ts
-0,070000	-0,070000	-0,070000	2020-10-29T19:03:51:286
-0,070000	-0,070000	-0,070000	2020-10-29T19:03:51:286
-3,220000	-42,420002	-9,730000	2020-10-29T19:03:51:286
4,270000	-10,850000	-12,950000	2020-10-29T19:03:51:287
0,420000	-10,150000	-12,320000	2020-10-29T19:03:51:287
-5,530000	-8,120000	-10,640000	2020-10-29T19:03:51:311
-10,500000	-6,720000	-7,490000	2020-10-29T19:03:51:320
-14,070000	-8,540000	-3,920000	2020-10-29T19:03:51:338
-16,100000	-11,060000	-3,990000	2020-10-29T19:03:51:359
-43,259998	-3,780000	-3,500000	2020-10-29T19:03:51:380
-47,950001	1,190000	-4,550000	2020-10-29T19:03:51:399
-46,689999	6,090000	-3,920000	2020-10-29T19:03:51:418
-39,970001	5,950000	-2,800000	2020-10-29T19:03:51:439
-29,540001	4,200000	-1,050000	2020-10-29T19:03:51:461
-20,299999	1,610000	0,700000	2020-10-29T19:03:51:479
-9,100000	-2,030000	2,030000	2020-10-29T19:03:51:500
-11,900000	-1,680000	2,590000	2020-10-29T19:03:51:520
-13,860000	0,140000	3,920000	2020-10-29T19:03:51:540
-13,370000	1,680000	4,480000	2020-10-29T19:03:51:559
-9,030000	3,430000	7,770000	2020-10-29T19:03:51:580
-4,060000	0,770000	8,400000	2020-10-29T19:03:51:599
0,210000	-0,700000	7,210000	2020-10-29T19:03:51:621
-4,620000	-0,630000	13,930000	2020-10-29T19:03:51:639
-2,870000	-1,470000	17,850000	2020-10-29T19:03:51:660
-0,700000	-2,940000	17,150000	2020-10-29T19:03:51:679
1,890000	-2,450000	17,150000	2020-10-29T19:03:51:701
2,590000	-1,260000	15,190001	2020-10-29T19:03:51:719
-0,840000	-2,660000	10,640000	2020-10-29T19:03:51:740
-23,660000	4,970000	16,730000	2020-10-29T19:03:51:759
-27,020000	-1,960000	8,050000	2020-10-29T19:03:51:780
-27,020000	-0,700000	3,080000	2020-10-29T19:03:51:799
-35,910000	4,830000	2,030000	2020-10-29T19:03:51:820
-38,639999	2,660000	2,660000	2020-10-29T19:03:51:839
-31,080000	0,490000	1,750000	2020-10-29T19:03:51:860
-23,100000	0,140000	1,750000	2020-10-29T19:03:51:880
-17,290001	-0,770000	1,750000	2020-10-29T19:03:51:900
-16,520000	-1,610000	2,100000	2020-10-29T19:03:51:919
-12,320000	1,400000	2,870000	2020-10-29T19:03:51:940
-7,210000	5,530000	2,660000	2020-10-29T19:03:51:959
-5,250000	2,240000	5,950000	2020-10-29T19:03:51:979
-22,260000	11,550000	8,260000	2020-10-29T19:03:52:999
-7,070000	1,540000	1,330000	2020-10-29T19:03:52:019
-6,160000	4,760000	1,470000	2020-10-29T19:03:52:039
-5,740000	3,080000	4,130000	2020-10-29T19:03:52:060
-3,360000	1,540000	2,450000	2020-10-29T19:03:52:080
-1,470000	1,260000	4,480000	2020-10-29T19:03:52:099
0,070000	1,960000	4,060000	2020-10-29T19:03:52:120
-2,730000	3,570000	6,510000	2020-10-29T19:03:52:139
-15,470000	7,350000	6,090000	2020-10-29T19:03:52:160
-8,260000	4,340000	7,280000	2020-10-29T19:03:52:180
-17,639999	6,440000	8,330000	2020-10-29T19:03:52:200
-26,460001	5,390000	10,850000	2020-10-29T19:03:52:219
-23,450001	8,470000	9,870000	2020-10-29T19:03:52:240
-17,570000	9,380000	13,930000	2020-10-29T19:03:52:264
-10,360000	6,300000	14,910000	2020-10-29T19:03:52:280
1,750000	-3,150000	8,470000	2020-10-29T19:03:52:300
-9,030000	-2,030000	7,840000	2020-10-29T19:03:52:321
-17,010000	4,340000	8,190000	2020-10-29T19:03:52:339
-19,250000	4,200000	7,840000	2020-10-29T19:03:52:361
-18,200001	2,590000	6,790000	2020-10-29T19:03:52:379
-19,530001	3,710000	7,490000	2020-10-29T19:03:52:402
-21,210001	19,040001	7,700000	2020-10-29T19:03:52:423
-16,870001	5,530000	5,950000	2020-10-29T19:03:52:443
-21,490000	4,130000	6,930000	2020-10-29T19:03:52:462
-16,799999	7,280000	8,680000	2020-10-29T19:03:52:484
-4,410000	10,990000	9,730000	2020-10-29T19:03:52:502
1,400000	6,720000	9,800000	2020-10-29T19:03:52:523
-4,480000	3,780000	12,040000	2020-10-29T19:03:52:542
-1,820000	4,760000	7,910000	2020-10-29T19:03:52:563
-1,120000	6,300000	7,070000	2020-10-29T19:03:52:582
-5,530000	8,540000	9,380000	2020-10-29T19:03:52:604
-5,950000	7,000000	4,760000	2020-10-29T19:03:52:622
-4,760000	5,390000	3,290000	2020-10-29T19:03:52:643
-10,150000	6,090000	5,460000	2020-10-29T19:03:52:663
-16,799999	7,490000	11,900000	2020-10-29T19:03:52:684
4,060000	5,040000	6,440000	2020-10-29T19:03:52:702
9,380000	6,510000	9,730000	2020-10-29T19:03:52:724
-1,050000	7,140000	10,850000	2020-10-29T19:03:52:742
5,530000	3,500000	5,110000	2020-10-29T19:03:52:764
-6,930000	3,710000	2,310000	2020-10-29T19:03:52:783
-14,910000	5,110000	4,270000	2020-10-29T19:03:52:804
-10,290000	2,590000	3,500000	2020-10-29T19:03:52:822
-2,660000	1,400000	3,850000	2020-10-29T19:03:52:844
0,350000	0,910000	2,030000	2020-10-29T19:03:52:862
-3,570000	1,610000	2,030000	2020-10-29T19:03:52:884
-2,800000	1,680000	1,820000	2020-10-29T19:03:52:902
1,680000	0,700000	0,490000	2020-10-29T19:03:52:924
-3,780000	3,150000	1,330000	2020-10-29T19:03:52:942
-1,960000	1,890000	0,770000	2020-10-29T19:03:52:963
-2,310000	1,540000	0,560000	2020-10-29T19:03:52:982
-2,170000	1,610000	0,490000	2020-10-29T19:03:53:004
-2,170000	1,960000	0,280000	2020-10-29T19:03:53:022
-1,680000	3,220000	0,140000	2020-10-29T19:03:53:044
-3,990000	2,380000	1,330000	2020-10-29T19:03:53:062
-13,860000	4,060000	10,080000	2020-10-29T19:03:53:084
20,580000	2,870000	-3,990000	2020-10-29T19:03:53:103
-10,500000	3,990000	9,310000	2020-10-29T19:03:53:124
7,000000	4,620000	-5,530000	2020-10-29T19:03:53:143
8,330000	0,630000	-5,530000	2020-10-29T19:03:53:165
-3,500000	4,270000	-1,680000	2020-10-29T19:03:53:182
-4,760000	1,260000	0,490000	2020-10-29T19:03:53:206
-2,870000	0,770000	-0,490000	2020-10-29T19:03:53:223
-0,910000	1,120000	0,910000	2020-10-29T19:03:53:243
0,350000	1,400000	-0,700000	2020-10-29T19:03:53:263
-4,130000	1,190000	-1,260000	2020-10-29T19:03:53:284
-7,210000	0,420000	-2,100000	2020-10-29T19:03:53:303
-4,060000	1,400000	-2,100000	2020-10-29T19:03:53:325
-0,910000	1,540000	-0,560000	2020-10-29T19:03:53:342
-3,010000	3,850000	1,820000	2020-10-29T19:03:53:365
-0,210000	-0,140000	1,680000	2020-10-29T19:03:53:383
3,780000	5,600000	-2,240000	2020-10-29T19:03:53:405
12,670000	1,960000	-2,100000	2020-10-29T19:03:53:422
2,590000	2,520000	-4,410000	2020-10-29T19:03:53:445
-3,710000	2,450000	-0,420000	2020-10-29T19:03:53:463
2,940000	0,490000	-0,210000	2020-10-29T19:03:53:484
4,270000	-0,350000	0,070000	2020-10-29T19:03:53:503
0,280000	-0,630000	0,630000	2020-10-29T19:03:53:525
-1,960000	-0,350000	0,630000	2020-10-29T19:03:53:542
-3,360000	0,070000	0,490000	2020-10-29T19:03:53:565
-3,850000	-0,910000	0,910000	2020-10-29T19:03:53:583
-6,230000	-1,820000	1,190000	2020-10-29T19:03:53:605
-1,540000	0,210000	1,190000	2020-10-29T19:03:53:624
0,910000	1,540000	0,490000	2020-10-29T19:03:53:645
-2,240000	2,310000	0,210000	2020-10-29T19:03:53:662
-2,170000	3,010000	0,070000	2020-10-29T19:03:53:685
-1,680000	3,710000	1,050000	2020-10-29T19:03:53:703
1,400000	3,500000	0,700000	2020-10-29T19:03:53:725
0,910000	3,220000	0,840000	2020-10-29T19:03:53:743
-1,680000	3,150000	0,840000	2020-10-29T19:03:53:764
-2,520000	2,870000	1,050000	2020-10-29T19:03:53:783
-2,590000	2,590000	1,190000	2020-10-29T19:03:53:804
-1,120000	2,310000	0,910000	2020-10-29T19:03:53:823
-1,260000	2,100000	0,630000	2020-10-29T19:03:53:845
-1,960000	2,310000	0,840000	2020-10-29T19:03:53:863
-1,470000	2,310000	0,700000	2020-10-29T19:03:53:886
-1,260000	2,520000	0,280000	2020-10-29T19:03:53:903
-1,330000	2,310000	0,280000	2020-10-29T19:03:53:925
-1,890000	2,240000	0,070000	2020-10-29T19:03:53:943
-1,260000	2,380000	-0,070000	2020-10-29T19:03:53:965
-2,310000	2,520000	0,140000	2020-10-29T19:03:53:985
-1,750000	2,310000	-0,070000	2020-10-29T19:03:54:005
-0,630000	2,240000	0,350000	2020-10-29T19:03:54:023
-1,960000	2,590000	0,280000	2020-10-29T19:03:54:044
-1,680000	2,240000	0,490000	2020-10-29T19:03:54:063
-0,560000	1,540000	0,140000	2020-10-29T19:03:54:086
-1,470000	1,680000	0,280000	2020-10-29T19:03:54:105
1,400000	1,820000	0,140000	2020-10-29T19:03:54:125
2,100000	1,260000	0,140000	2020-10-29T19:03:54:143
-0,490000	1,260000	0,490000	2020-10-29T19:03:54:165
-0,140000	0,910000	0,630000	2020-10-29T19:03:54:183
-0,420000	0,980000	0,140000	2020-10-29T19:03:54:205
-1,610000	1,120000	0,350000	2020-10-29T19:03:54:223
0,420000	1,050000	0,280000	2020-10-29T19:03:54:246
0,910000	0,910000	0,280000	2020-10-29T19:03:54:263
0,490000	1,260000	0,280000	2020-10-29T19:03:54:286
-0,560000	1,190000	0,140000	2020-10-29T19:03:54:303
0,070000	1,540000	0,140000	2020-10-29T19:03:54:326
0,210000	1,260000	0,070000	2020-10-29T19:03:54:345
-0,560000	1,470000	0,140000	2020-10-29T19:03:54:365
0,420000	1,540000	0,140000	2020-10-29T19:03:54:384
-0,420000	1,400000	0,210000	2020-10-29T19:03:54:407
-1,540000	1,050000	0,210000	2020-10-29T19:03:54:424
-1,190000	1,400000	-0,070000	2020-10-29T19:03:54:446
-0,420000	1,540000	-0,210000	2020-10-29T19:03:54:464
-1,050000	1,750000	-0,210000	2020-10-29T19:03:54:486
-1,260000	1,400000	-0,210000	2020-10-29T19:03:54:504
-1,120000	1,680000	-0,140000	2020-10-29T19:03:54:526
-0,910000	1,400000	-0,210000	2020-10-29T19:03:54:544
-1,400000	1,610000	-0,070000	2020-10-29T19:03:54:566
-1,050000	1,400000	-0,140000	2020-10-29T19:03:54:585
-1,540000	1,260000	-0,210000	2020-10-29T19:03:54:606
-1,750000	1,120000	-0,140000	2020-10-29T19:03:54:624
-1,610000	1,190000	-0,140000	2020-10-29T19:03:54:646
-1,890000	1,190000	-0,280000	2020-10-29T19:03:54:664
-1,330000	1,400000	-0,210000	2020-10-29T19:03:54:686
-0,980000	1,330000	-0,210000	2020-10-29T19:03:54:704
-1,050000	1,610000	-0,210000	2020-10-29T19:03:54:726
-0,350000	1,330000	-0,350000	2020-10-29T19:03:54:744
-0,700000	1,400000	-0,210000	2020-10-29T19:03:54:766
-0,560000	1,330000	-0,140000	2020-10-29T19:03:54:784
-0,840000	1,260000	-0,280000	2020-10-29T19:03:54:806
-0,630000	1,190000	-0,210000	2020-10-29T19:03:54:825
0,070000	1,610000	-0,070000	2020-10-29T19:03:54:846
0,070000	1,330000	-0,280000	2020-10-29T19:03:54:864
-0,840000	1,470000	-0,280000	2020-10-29T19:03:54:887
-0,140000	1,400000	-0,280000	2020-10-29T19:03:54:904
0,630000	1,260000	0,140000	2020-10-29T19:03:54:926
-0,280000	1,400000	0,210000	2020-10-29T19:03:54:944
-1,050000	1,050000	0,140000	2020-10-29T19:03:54:967
-0,840000	1,540000	0,140000	2020-10-29T19:03:54:984
0,420000	1,400000	0,140000	2020-10-29T19:03:55:007
0,490000	1,260000	-0,140000	2020-10-29T19:03:55:024
-0,770000	1,750000	-0,280000	2020-10-29T19:03:55:047
-0,280000	1,400000	-0,140000	2020-10-29T19:03:55:065
-0,070000	1,470000	-0,070000	2020-10-29T19:03:55:087
-0,840000	1,540000	-0,070000	2020-10-29T19:03:55:105
-0,140000	1,470000	-0,140000	2020-10-29T19:03:55:126
-1,050000	1,540000	-0,140000	2020-10-29T19:03:55:144
-0,840000	1,260000	-0,140000	2020-10-29T19:03:55:167
-1,260000	1,330000	-0,140000	2020-10-29T19:03:55:185
-1,190000	1,470000	-0,070000	2020-10-29T19:03:55:207
-0,070000	1,400000	-0,070000	2020-10-29T19:03:55:224
-0,560000	1,400000	-0,070000	2020-10-29T19:03:55:247
-0,910000	1,540000	-0,070000	2020-10-29T19:03:55:264
-0,840000	1,330000	-0,070000	2020-10-29T19:03:55:287
-0,490000	1,190000	-0,070000	2020-10-29T19:03:55:306
-0,770000	1,400000	-0,070000	2020-10-29T19:03:55:327
-0,350000	1,470000	-0,070000	2020-10-29T19:03:55:344
-0,210000	1,330000	-0,070000	2020-10-29T19:03:55:367
-0,140000	1,260000	-0,280000	2020-10-29T19:03:55:385
-0,560000	1,750000	-0,280000	2020-10-29T19:03:55:408
-0,420000	1,400000	-0,280000	2020-10-29T19:03:55:425
-0,980000	1,470000	-0,280000	2020-10-29T19:03:55:447
-0,770000	1,400000	-0,350000	2020-10-29T19:03:55:464
-0,140000	1,050000	-0,280000	2020-10-29T19:03:55:488
-0,490000	1,330000	-0,140000	2020-10-29T19:03:55:505
-1,470000	1,190000	-0,140000	2020-10-29T19:03:55:527
-0,420000	1,610000	-0,140000	2020-10-29T19:03:55:546
-0,070000	1,260000	-0,070000	2020-10-29T19:03:55:567
-0,350000	1,190000	-0,140000	2020-10-29T19:03:55:585
-0,630000	1,190000	-0,280000	2020-10-29T19:03:55:608
-1,680000	1,120000	-0,350000	2020-10-29T19:03:55:625
-0,980000	1,120000	-0,280000	2020-10-29T19:03:55:647
-0,560000	1,050000	-0,210000	2020-10-29T19:03:55:667
-0,770000	1,190000	-0,210000	2020-10-29T19:03:55:688
-0,980000	1,190000	-0,280000	2020-10-29T19:03:55:705
-1,120000	1,190000	-0,210000	2020-10-29T19:03:55:728
-1,190000	1,330000	-0,140000	2020-10-29T19:03:55:745
-0,280000	1,120000	-0,140000	2020-10-29T19:03:55:768
-0,070000	1,050000	-0,280000	2020-10-29T19:03:55:786
-1,050000	1,470000	-0,280000	2020-10-29T19:03:55:808
-0,840000	1,470000	-0,070000	2020-10-29T19:03:55:825
-0,210000	1,260000	-0,070000	2020-10-29T19:03:55:848
-0,630000	1,750000	0,070000	2020-10-29T19:03:55:865
-0,630000	1,470000	0,070000	2020-10-29T19:03:55:888
-0,770000	1,610000	0,140000	2020-10-29T19:03:55:906
-0,700000	1,540000	0,140000	2020-10-29T19:03:55:928
-1,190000	1,260000	0,140000	2020-10-29T19:03:55:945
-0,630000	1,190000	-0,140000	2020-10-29T19:03:55:968
-0,070000	1,190000	-0,280000	2020-10-29T19:03:55:986
-0,770000	1,540000	-0,350000	2020-10-29T19:03:56:008
-0,560000	1,540000	-0,350000	2020-10-29T19:03:56:026
-0,070000	1,330000	-0,350000	2020-10-29T19:03:56:048
-0,910000	1,330000	-0,280000	2020-10-29T19:03:56:065
-1,330000	1,050000	-0,210000	2020-10-29T19:03:56:089
-1,050000	0,910000	-0,140000	2020-10-29T19:03:56:105
-1,260000	1,330000	-0,140000	2020-10-29T19:03:56:128
-1,050000	1,330000	0,070000	2020-10-29T19:03:56:145
-0,910000	1,260000	-0,070000	2020-10-29T19:03:56:169
-1,120000	1,260000	-0,070000	2020-10-29T19:03:56:185
-0,840000	1,330000	-0,070000	2020-10-29T19:03:56:208
-1,260000	1,330000	0,070000	2020-10-29T19:03:56:225
-0,910000	1,260000	0,280000	2020-10-29T19:03:56:247
-1,120000	1,190000	0,210000	2020-10-29T19:03:56:266
-1,960000	1,190000	0,490000	2020-10-29T19:03:56:290
-1,680000	1,120000	0,490000	2020-10-29T19:03:56:305
-1,050000	1,400000	0,560000	2020-10-29T19:03:56:329
-1,120000	1,190000	0,490000	2020-10-29T19:03:56:346
-1,610000	1,330000	0,490000	2020-10-29T19:03:56:368
-1,610000	1,400000	0,350000	2020-10-29T19:03:56:386
-1,190000	1,470000	0,210000	2020-10-29T19:03:56:409
-1,120000	1,260000	0,070000	2020-10-29T19:03:56:425
-0,910000	1,610000	0,070000	2020-10-29T19:03:56:449
-0,490000	1,330000	0,070000	2020-10-29T19:03:56:466
-0,910000	1,400000	-0,070000	2020-10-29T19:03:56:488
-1,050000	1,260000	0,070000	2020-10-29T19:03:56:507
-0,420000	1,260000	-0,070000	2020-10-29T19:03:56:529
-0,910000	1,470000	0,070000	2020-10-29T19:03:56:545
-1,120000	1,330000	-0,070000	2020-10-29T19:03:56:569
-1,190000	1,400000	-0,140000	2020-10-29T19:03:56:586
-0,630000	1,050000	-0,070000	2020-10-29T19:03:56:609
-0,490000	1,190000	-0,140000	2020-10-29T19:03:56:626
-0,210000	1,470000	-0,210000	2020-10-29T19:03:56:649
0,070000	1,610000	-0,210000	2020-10-29T19:03:56:665
-0,350000	1,330000	-0,210000	2020-10-29T19:03:56:689
-1,050000	1,050000	-0,140000	2020-10-29T19:03:56:706
-2,380000	1,050000	-0,210000	2020-10-29T19:03:56:728
-0,770000	1,050000	-0,210000	2020-10-29T19:03:56:747
0,560000	1,050000	0,420000	2020-10-29T19:03:56:769
0,140000	1,540000	0,560000	2020-10-29T19:03:56:786
-0,280000	1,470000	0,560000	2020-10-29T19:03:56:809
-1,330000	1,400000	0,490000	2020-10-29T19:03:56:826
-1,190000	1,190000	0,560000	2020-10-29T19:03:56:848
-0,490000	1,120000	0,420000	2020-10-29T19:03:56:865
-0,140000	1,330000	0,280000	2020-10-29T19:03:56:889
-0,840000	1,330000	0,140000	2020-10-29T19:03:56:906
-1,750000	0,770000	0,140000	2020-10-29T19:03:56:929
-1,120000	0,840000	-0,070000	2020-10-29T19:03:56:946
-0,770000	1,050000	-0,070000	2020-10-29T19:03:56:969
-0,910000	1,190000	-0,070000	2020-10-29T19:03:56:988
-1,680000	0,840000	-0,280000	2020-10-29T19:03:57:009
-1,470000	0,840000	-0,490000	2020-10-29T19:03:57:026
-1,330000	1,050000	-0,350000	2020-10-29T19:03:57:049
-0,910000	0,910000	-0,350000	2020-10-29T19:03:57:066
-1,470000	0,980000	-0,350000	2020-10-29T19:03:57:089
-0,980000	0,980000	-0,210000	2020-10-29T19:03:57:106
-1,050000	0,980000	-0,210000	2020-10-29T19:03:57:129
-1,400000	0,770000	-0,070000	2020-10-29T19:03:57:146
-0,420000	1,400000	-0,140000	2020-10-29T19:03:57:169
-0,700000	1,190000	-0,140000	2020-10-29T19:03:57:187
-1,050000	1,190000	-0,140000	2020-10-29T19:03:57:209
-0,700000	1,120000	-0,140000	2020-10-29T19:03:57:227
-1,330000	1,260000	-0,140000	2020-10-29T19:03:57:249
-0,980000	1,190000	-0,140000	2020-10-29T19:03:57:266
-0,840000	1,540000	-0,070000	2020-10-29T19:03:57:290
-0,560000	1,470000	0,070000	2020-10-29T19:03:57:307
-0,910000	1,120000	-0,070000	2020-10-29T19:03:57:329
-1,050000	1,540000	-0,140000	2020-10-29T19:03:57:347
-0,910000	1,610000	-0,140000	2020-10-29T19:03:57:369
-0,980000	1,330000	-0,140000	2020-10-29T19:03:57:386
-0,770000	1,470000	-0,140000	2020-10-29T19:03:57:411
-1,470000	1,190000	-0,140000	2020-10-29T19:03:57:426
-1,260000	1,330000	-0,140000	2020-10-29T19:03:57:449
-0,910000	1,470000	0,070000	2020-10-29T19:03:57:468
-0,490000	1,540000	0,210000	2020-10-29T19:03:57:491
-0,840000	1,260000	0,210000	2020-10-29T19:03:57:506
-0,770000	1,470000	0,070000	2020-10-29T19:03:57:530
-0,770000	1,330000	0,140000	2020-10-29T19:03:57:547
-0,560000	1,330000	0,350000	2020-10-29T19:03:57:570
-0,700000	1,120000	0,350000	2020-10-29T19:03:57:587
-0,700000	1,470000	0,140000	2020-10-29T19:03:57:609
0,070000	1,330000	0,140000	2020-10-29T19:03:57:627
-0,840000	1,330000	0,140000	2020-10-29T19:03:57:650
-1,400000	1,400000	-0,070000	2020-10-29T19:03:57:666
-0,980000	1,190000	-0,070000	2020-10-29T19:03:57:690
-0,840000	1,610000	0,070000	2020-10-29T19:03:57:708
-0,420000	1,260000	-0,070000	2020-10-29T19:03:57:730
-1,260000	1,190000	-0,070000	2020-10-29T19:03:57:747
-0,420000	1,470000	0,070000	2020-10-29T19:03:57:769
-0,490000	1,470000	0,070000	2020-10-29T19:03:57:787
-0,490000	1,540000	0,070000	2020-10-29T19:03:57:811
-0,700000	1,400000	-0,070000	2020-10-29T19:03:57:827
-0,770000	1,400000	-0,140000	2020-10-29T19:03:57:850
-0,840000	1,190000	-0,210000	2020-10-29T19:03:57:866
-0,070000	1,470000	-0,210000	2020-10-29T19:03:57:891
-0,420000	1,540000	-0,210000	2020-10-29T19:03:57:907
-0,420000	1,400000	-0,210000	2020-10-29T19:03:57:930
-0,770000	1,120000	-0,070000	2020-10-29T19:03:57:948
-1,260000	1,330000	-0,280000	2020-10-29T19:03:57:971
-1,120000	1,400000	-0,140000	2020-10-29T19:03:57:987
-0,350000	1,540000	-0,070000	2020-10-29T19:03:58:010
-0,350000	1,260000	-0,140000	2020-10-29T19:03:58:028
-1,470000	1,330000	-0,140000	2020-10-29T19:03:58:051
-1,050000	1,400000	-0,140000	2020-10-29T19:03:58:068
-1,050000	1,330000	0,070000	2020-10-29T19:03:58:091
-1,050000	1,400000	0,070000	2020-10-29T19:03:58:107
-0,980000	1,470000	0,070000	2020-10-29T19:03:58:131
-0,980000	1,190000	0,070000	2020-10-29T19:03:58:147
-0,140000	1,330000	0,070000	2020-10-29T19:03:58:171
-0,630000	1,330000	-0,070000	2020-10-29T19:03:58:188
-1,050000	1,260000	-0,140000	2020-10-29T19:03:58:219
-1,190000	1,400000	-0,070000	2020-10-29T19:03:58:241
-0,630000	1,260000	-0,140000	2020-10-29T19:03:58:250
-0,700000	1,330000	-0,210000	2020-10-29T19:03:58:268
-0,490000	1,400000	-0,140000	2020-10-29T19:03:58:293
-0,210000	1,400000	-0,210000	2020-10-29T19:03:58:307
-0,490000	1,330000	-0,210000	2020-10-29T19:03:58:330
-1,050000	1,470000	-0,210000	2020-10-29T19:03:58:347
-0,630000	1,540000	-0,140000	2020-10-29T19:03:58:371
0,140000	1,540000	-0,210000	2020-10-29T19:03:58:387
-0,420000	1,330000	0,070000	2020-10-29T19:03:58:411
-0,630000	1,330000	-0,210000	2020-10-29T19:03:58:428
-0,910000	1,540000	0,070000	2020-10-29T19:03:58:451
-0,980000	1,400000	0,070000	2020-10-29T19:03:58:467
-0,980000	1,470000	-0,140000	2020-10-29T19:03:58:491
-0,350000	1,330000	0,070000	2020-10-29T19:03:58:507
-0,700000	1,470000	0,070000	2020-10-29T19:03:58:531
-1,400000	1,470000	0,070000	2020-10-29T19:03:58:547
-0,840000	1,470000	-0,070000	2020-10-29T19:03:58:570
-0,770000	1,260000	0,070000	2020-10-29T19:03:58:588
-0,560000	1,190000	0,070000	2020-10-29T19:03:58:611
-0,840000	1,330000	-0,070000	2020-10-29T19:03:58:627
-0,770000	1,400000	-0,140000	2020-10-29T19:03:58:650
-0,560000	1,190000	-0,140000	2020-10-29T19:03:58:669
-0,910000	1,260000	-0,140000	2020-10-29T19:03:58:692
-0,350000	1,330000	-0,140000	2020-10-29T19:03:58:708
-0,350000	1,470000	-0,140000	2020-10-29T19:03:58:731
-0,280000	1,470000	-0,210000	2020-10-29T19:03:58:747
0,070000	1,470000	-0,070000	2020-10-29T19:03:58:771
-0,140000	1,330000	-0,210000	2020-10-29T19:03:58:788
-0,420000	1,190000	-0,280000	2020-10-29T19:03:58:811
-0,070000	1,400000	-0,210000	2020-10-29T19:03:58:828
-0,280000	1,330000	-0,140000	2020-10-29T19:03:58:851
-0,700000	1,260000	-0,210000	2020-10-29T19:03:58:867
-0,560000	1,400000	-0,210000	2020-10-29T19:03:58:891
-0,700000	1,330000	0,070000	2020-10-29T19:03:58:909
-0,770000	1,330000	0,070000	2020-10-29T19:03:58:931
-0,980000	1,260000	0,140000	2020-10-29T19:03:58:948
0,560000	1,540000	0,210000	2020-10-29T19:03:58:971
-0,070000	1,470000	0,070000	2020-10-29T19:03:58:988
-0,560000	1,610000	0,070000	2020-10-29T19:03:59:011
-0,560000	1,540000	-0,070000	2020-10-29T19:03:59:028
-0,490000	1,260000	-0,140000	2020-10-29T19:03:59:051
-0,630000	1,750000	-0,070000	2020-10-29T19:03:59:068
-0,980000	1,120000	-0,140000	2020-10-29T19:03:59:095
-0,210000	1,260000	-0,140000	2020-10-29T19:03:59:108
-0,700000	1,330000	-0,210000	2020-10-29T19:03:59:131
-0,910000	1,400000	-0,420000	2020-10-29T19:03:59:150
-0,770000	1,610000	-0,210000	2020-10-29T19:03:59:172
-0,560000	1,050000	-0,140000	2020-10-29T19:03:59:188
-1,120000	1,260000	-0,140000	2020-10-29T19:03:59:211
-0,560000	1,400000	-0,140000	2020-10-29T19:03:59:228
-1,050000	1,260000	-0,140000	2020-10-29T19:03:59:252
-0,700000	1,260000	-0,140000	2020-10-29T19:03:59:268
-0,630000	0,980000	-0,210000	2020-10-29T19:03:59:291
-0,630000	1,330000	-0,140000	2020-10-29T19:03:59:308
-0,700000	1,470000	-0,140000	2020-10-29T19:03:59:332
-0,630000	1,330000	-0,140000	2020-10-29T19:03:59:349
-1,120000	1,470000	-0,140000	2020-10-29T19:03:59:372
-0,840000	1,330000	-0,070000	2020-10-29T19:03:59:390
-0,490000	1,330000	-0,070000	2020-10-29T19:03:59:413
-0,350000	1,610000	-0,140000	2020-10-29T19:03:59:428
-0,350000	1,470000	-0,280000	2020-10-29T19:03:59:453
-1,260000	1,260000	-0,210000	2020-10-29T19:03:59:470
-1,190000	1,190000	-0,140000	2020-10-29T19:03:59:492
-0,490000	1,540000	-0,140000	2020-10-29T19:03:59:509
0,070000	1,400000	-0,070000	2020-10-29T19:03:59:531
-0,560000	1,400000	-0,140000	2020-10-29T19:03:59:548
-1,050000	1,400000	-0,140000	2020-10-29T19:03:59:572
-0,560000	1,330000	-0,140000	2020-10-29T19:03:59:589
-0,560000	1,400000	0,070000	2020-10-29T19:03:59:611
-0,560000	1,260000	0,070000	2020-10-29T19:03:59:630
-1,120000	1,260000	-0,140000	2020-10-29T19:03:59:652
-0,770000	1,330000	-0,140000	2020-10-29T19:03:59:669
-0,350000	1,190000	-0,210000	2020-10-29T19:03:59:693
-0,840000	1,330000	-0,210000	2020-10-29T19:03:59:709
-1,050000	1,120000	-0,280000	2020-10-29T19:03:59:731
-1,190000	1,330000	-0,280000	2020-10-29T19:03:59:748
-0,420000	1,190000	-0,350000	2020-10-29T19:03:59:771
-0,280000	1,330000	-0,280000	2020-10-29T19:03:59:788
-0,630000	1,260000	-0,210000	2020-10-29T19:03:59:812
-0,840000	1,470000	-0,140000	2020-10-29T19:03:59:828
0,140000	1,260000	-0,070000	2020-10-29T19:03:59:851
-0,420000	1,190000	-0,070000	2020-10-29T19:03:59:869
-1,400000	1,190000	-0,280000	2020-10-29T19:03:59:892
-1,680000	1,190000	-0,140000	2020-10-29T19:03:59:908
-1,190000	0,980000	-0,140000	2020-10-29T19:03:59:931
-1,050000	1,330000	-0,070000	2020-10-29T19:03:59:948
-1,680000	1,120000	-0,070000	2020-10-29T19:03:59:972
-1,960000	0,980000	-0,070000	2020-10-29T19:03:59:989
-1,260000	1,050000	-0,210000	2020-10-29T19:04:00:011
-1,400000	1,050000	-0,140000	2020-10-29T19:04:00:028
-1,120000	1,120000	-0,350000	2020-10-29T19:04:00:052
-1,820000	1,190000	-0,210000	2020-10-29T19:04:00:068
-1,680000	1,050000	-0,210000	2020-10-29T19:04:00:092
-1,680000	1,190000	-0,350000	2020-10-29T19:04:00:109
-1,190000	1,120000	-0,420000	2020-10-29T19:04:00:132
-1,750000	0,980000	-0,350000	2020-10-29T19:04:00:148
-2,030000	1,050000	-0,280000	2020-10-29T19:04:00:172
-2,030000	0,980000	-0,140000	2020-10-29T19:04:00:189
-1,050000	1,400000	-0,280000	2020-10-29T19:04:00:213
-0,490000	1,050000	-0,140000	2020-10-29T19:04:00:228
-1,260000	1,050000	-0,140000	2020-10-29T19:04:00:251
-1,750000	1,190000	-0,350000	2020-10-29T19:04:00:268
-2,310000	0,700000	-0,280000	2020-10-29T19:04:00:292
-1,960000	1,120000	-0,280000	2020-10-29T19:04:00:309
-1,820000	0,980000	-0,210000	2020-10-29T19:04:00:331
-0,840000	1,400000	-0,210000	2020-10-29T19:04:00:349
-0,350000	1,260000	0,070000	2020-10-29T19:04:00:372
-1,540000	1,120000	0,280000	2020-10-29T19:04:00:389
-0,980000	1,540000	-0,070000	2020-10-29T19:04:00:412
-0,700000	1,260000	-0,070000	2020-10-29T19:04:00:429
-1,470000	1,260000	-0,070000	2020-10-29T19:04:00:452
-2,800000	0,980000	-0,070000	2020-10-29T19:04:00:469
-2,380000	1,050000	-0,070000	2020-10-29T19:04:00:492
-0,910000	1,050000	0,070000	2020-10-29T19:04:00:509
-1,330000	0,560000	0,140000	2020-10-29T19:04:00:533
-1,680000	0,770000	0,210000	2020-10-29T19:04:00:549
-2,030000	1,330000	0,140000	2020-10-29T19:04:00:571
-1,050000	1,330000	0,140000	2020-10-29T19:04:00:590
-0,210000	0,910000	0,070000	2020-10-29T19:04:00:613
-1,120000	1,190000	0,070000	2020-10-29T19:04:00:629
-1,470000	1,260000	-0,070000	2020-10-29T19:04:00:652
-1,260000	1,120000	-0,140000	2020-10-29T19:04:00:669
-0,630000	1,330000	-0,140000	2020-10-29T19:04:00:693
0,420000	1,260000	-0,350000	2020-10-29T19:04:00:709
-1,260000	1,330000	-0,210000	2020-10-29T19:04:00:731
-1,330000	1,330000	-0,140000	2020-10-29T19:04:00:748
-1,050000	1,400000	-0,140000	2020-10-29T19:04:00:772
-0,280000	1,330000	-0,140000	2020-10-29T19:04:00:789
-1,120000	0,910000	-0,070000	2020-10-29T19:04:00:811
-1,470000	1,120000	-0,140000	2020-10-29T19:04:00:830
-1,190000	1,330000	-0,070000	2020-10-29T19:04:00:852
-0,490000	1,190000	-0,070000	2020-10-29T19:04:00:869
-1,050000	1,260000	-0,070000	2020-10-29T19:04:00:891
-0,910000	1,330000	-0,070000	2020-10-29T19:04:00:909
-0,560000	0,980000	-0,140000	2020-10-29T19:04:00:932
-0,630000	1,470000	-0,140000	2020-10-29T19:04:00:949
-0,210000	1,330000	-0,140000	2020-10-29T19:04:00:972
-0,560000	1,540000	-0,070000	2020-10-29T19:04:00:989
-0,980000	1,120000	-0,210000	2020-10-29T19:04:01:012
-1,260000	1,190000	-0,210000	2020-10-29T19:04:01:029
-1,050000	1,330000	-0,210000	2020-10-29T19:04:01:052
-1,400000	1,120000	-0,070000	2020-10-29T19:04:01:071
-1,820000	1,260000	-0,140000	2020-10-29T19:04:01:093
0,210000	1,540000	-0,210000	2020-10-29T19:04:01:109
0,490000	1,540000	-0,070000	2020-10-29T19:04:01:132
-0,350000	1,470000	-0,070000	2020-10-29T19:04:01:149
-0,910000	1,330000	-0,280000	2020-10-29T19:04:01:173
-0,910000	1,470000	-0,280000	2020-10-29T19:04:01:189
-0,630000	1,330000	-0,140000	2020-10-29T19:04:01:212
-1,190000	1,400000	0,140000	2020-10-29T19:04:01:229
-1,050000	1,190000	0,070000	2020-10-29T19:04:01:252
-1,470000	1,050000	0,070000	2020-10-29T19:04:01:269
-0,350000	1,680000	0,070000	2020-10-29T19:04:01:293
0,070000	1,330000	-0,140000	2020-10-29T19:04:01:310
-0,560000	1,400000	-0,210000	2020-10-29T19:04:01:332
-0,700000	1,330000	-0,210000	2020-10-29T19:04:01:349
-0,630000	1,750000	-0,210000	2020-10-29T19:04:01:373
-0,490000	1,120000	-0,140000	2020-10-29T19:04:01:390
-0,910000	0,980000	-0,070000	2020-10-29T19:04:01:412
-0,910000	1,050000	-0,070000	2020-10-29T19:04:01:429
-0,910000	1,050000	-0,070000	2020-10-29T19:04:01:452
-0,420000	1,330000	-0,070000	2020-10-29T19:04:01:469
-0,350000	1,470000	-0,070000	2020-10-29T19:04:01:494
-0,350000	1,400000	-0,070000	2020-10-29T19:04:01:509
-1,400000	1,540000	-0,070000	2020-10-29T19:04:01:532
-0,630000	1,260000	-0,070000	2020-10-29T19:04:01:550
-0,630000	1,330000	-0,070000	2020-10-29T19:04:01:572
-0,770000	1,330000	-0,070000	2020-10-29T19:04:01:590
-0,490000	1,330000	-0,070000	2020-10-29T19:04:01:614
-0,980000	1,400000	-0,070000	2020-10-29T19:04:01:629
-0,840000	1,400000	-0,070000	2020-10-29T19:04:01:653
-0,770000	1,400000	-0,070000	2020-10-29T19:04:01:671
-0,910000	1,400000	-0,070000	2020-10-29T19:04:01:694
-1,050000	1,050000	-0,070000	2020-10-29T19:04:01:710
-0,700000	1,400000	-0,070000	2020-10-29T19:04:01:732
-0,840000	1,400000	-0,070000	2020-10-29T19:04:01:750
-0,140000	1,400000	-0,070000	2020-10-29T19:04:01:773
-0,560000	1,470000	-0,070000	2020-10-29T19:04:01:791
-0,420000	1,470000	-0,070000	2020-10-29T19:04:01:813
-0,630000	1,470000	-0,070000	2020-10-29T19:04:01:829
-0,420000	1,330000	-0,210000	2020-10-29T19:04:01:853
-0,490000	1,610000	-0,280000	2020-10-29T19:04:01:870
-0,140000	1,680000	-0,280000	2020-10-29T19:04:01:892
0,420000	1,680000	-0,210000	2020-10-29T19:04:01:910
-0,280000	1,190000	-0,210000	2020-10-29T19:04:01:933
-0,210000	1,400000	0,140000	2020-10-29T19:04:01:950
-0,700000	1,540000	0,070000	2020-10-29T19:04:01:973
-1,260000	1,610000	0,070000	2020-10-29T19:04:01:990
-0,070000	1,400000	-0,140000	2020-10-29T19:04:02:012
-0,420000	1,260000	-0,140000	2020-10-29T19:04:02:031
-0,420000	1,400000	-0,140000	2020-10-29T19:04:02:053
-0,490000	1,330000	-0,070000	2020-10-29T19:04:02:070
-0,700000	1,400000	-0,070000	2020-10-29T19:04:02:093
-0,910000	1,470000	-0,070000	2020-10-29T19:04:02:110
-0,770000	1,470000	-0,070000	2020-10-29T19:04:02:133
-0,280000	1,330000	-0,140000	2020-10-29T19:04:02:151
-1,680000	1,330000	-0,140000	2020-10-29T19:04:02:173
-0,840000	1,330000	-0,210000	2020-10-29T19:04:02:190
-0,350000	1,470000	-0,280000	2020-10-29T19:04:02:213
0,420000	1,260000	-0,350000	2020-10-29T19:04:02:230
-0,140000	1,610000	-0,210000	2020-10-29T19:04:02:252
0,140000	1,330000	-0,350000	2020-10-29T19:04:02:271
-0,630000	1,610000	-0,420000	2020-10-29T19:04:02:293
-0,280000	1,400000	-0,350000	2020-10-29T19:04:02:310
-0,280000	1,610000	-0,140000	2020-10-29T19:04:02:334
-0,140000	1,330000	-0,070000	2020-10-29T19:04:02:350
-0,630000	0,980000	-0,140000	2020-10-29T19:04:02:373
-1,120000	1,470000	-0,210000	2020-10-29T19:04:02:391
-0,420000	1,610000	-0,140000	2020-10-29T19:04:02:413
-0,840000	1,400000	-0,070000	2020-10-29T19:04:02:430
-0,980000	1,260000	-0,140000	2020-10-29T19:04:02:453
-0,980000	1,400000	-0,420000	2020-10-29T19:04:02:470
-1,330000	1,400000	-0,560000	2020-10-29T19:04:02:493
-0,910000	1,400000	-0,700000	2020-10-29T19:04:02:512
-0,770000	1,400000	-0,630000	2020-10-29T19:04:02:533
-0,210000	1,400000	-0,770000	2020-10-29T19:04:02:551
-0,630000	1,750000	-0,560000	2020-10-29T19:04:02:574
-0,980000	1,890000	-0,420000	2020-10-29T19:04:02:591
-1,120000	1,540000	-0,140000	2020-10-29T19:04:02:613
-0,560000	1,540000	0,140000	2020-10-29T19:04:02:631
-0,560000	1,750000	0,140000	2020-10-29T19:04:02:652
-0,910000	1,190000	0,210000	2020-10-29T19:04:02:671
-1,610000	1,470000	0,070000	2020-10-29T19:04:02:694
-0,350000	1,050000	0,070000	2020-10-29T19:04:02:711
-0,630000	1,400000	0,140000	2020-10-29T19:04:02:733
-0,770000	1,050000	0,140000	2020-10-29T19:04:02:752
-0,910000	1,400000	-0,070000	2020-10-29T19:04:02:773
-0,840000	1,400000	-0,140000	2020-10-29T19:04:02:791
-0,630000	1,400000	-0,210000	2020-10-29T19:04:02:813
-0,910000	1,260000	-0,210000	2020-10-29T19:04:02:831
-0,280000	1,540000	-0,560000	2020-10-29T19:04:02:853
-0,840000	1,120000	-0,700000	2020-10-29T19:04:02:871
-0,560000	1,260000	-0,770000	2020-10-29T19:04:02:893
-1,330000	1,260000	-0,140000	2020-10-29T19:04:02:911
-1,330000	1,330000	0,140000	2020-10-29T19:04:02:934
-1,470000	1,330000	0,210000	2020-10-29T19:04:02:951
-0,280000	1,470000	0,070000	2020-10-29T19:04:02:974
-0,280000	1,400000	-0,140000	2020-10-29T19:04:02:991
-0,490000	1,470000	-0,210000	2020-10-29T19:04:03:013
-1,120000	1,470000	-0,420000	2020-10-29T19:04:03:031
-0,630000	1,330000	-0,350000	2020-10-29T19:04:03:054
-0,490000	1,120000	-0,280000	2020-10-29T19:04:03:071
-1,260000	1,540000	-0,350000	2020-10-29T19:04:03:093
-0,770000	1,330000	-0,140000	2020-10-29T19:04:03:111
-1,470000	1,260000	-0,140000	2020-10-29T19:04:03:134
-1,330000	1,120000	-0,070000	2020-10-29T19:04:03:151
-1,120000	1,400000	-0,140000	2020-10-29T19:04:03:174
-0,910000	1,330000	-0,140000	2020-10-29T19:04:03:191
-0,980000	1,260000	-0,280000	2020-10-29T19:04:03:214
-0,980000	1,260000	-0,280000	2020-10-29T19:04:03:234
-0,910000	1,190000	-0,140000	2020-10-29T19:04:03:253
-1,260000	1,120000	-0,140000	2020-10-29T19:04:03:271
-1,400000	1,260000	-0,140000	2020-10-29T19:04:03:294
-0,420000	1,050000	-0,070000	2020-10-29T19:04:03:311
-0,350000	1,470000	-0,140000	2020-10-29T19:04:03:334
-0,910000	1,470000	-0,210000	2020-10-29T19:04:03:351
-0,700000	1,120000	-0,140000	2020-10-29T19:04:03:374
-0,210000	1,190000	-0,280000	2020-10-29T19:04:03:391
-0,840000	1,260000	-0,210000	2020-10-29T19:04:03:414
-0,700000	1,260000	-0,210000	2020-10-29T19:04:03:431
-0,420000	1,470000	-0,070000	2020-10-29T19:04:03:454
-0,350000	1,050000	-0,070000	2020-10-29T19:04:03:472
-0,420000	1,260000	-0,070000	2020-10-29T19:04:03:494
-1,400000	1,470000	-0,140000	2020-10-29T19:04:03:511
-0,840000	1,400000	-0,140000	2020-10-29T19:04:03:534
-0,490000	1,260000	0,070000	2020-10-29T19:04:03:551
-0,280000	1,120000	-0,070000	2020-10-29T19:04:03:574
-1,120000	1,260000	-0,140000	2020-10-29T19:04:03:591
-0,840000	1,470000	-0,140000	2020-10-29T19:04:03:614
-0,770000	1,260000	-0,070000	2020-10-29T19:04:03:631
-0,770000	1,190000	-0,070000	2020-10-29T19:04:03:654
-0,840000	1,120000	-0,210000	2020-10-29T19:04:03:672
-0,910000	1,470000	-0,070000	2020-10-29T19:04:03:694
-0,210000	1,540000	-0,280000	2020-10-29T19:04:03:713
-0,700000	1,330000	-0,140000	2020-10-29T19:04:03:734
-0,840000	1,260000	-0,140000	2020-10-29T19:04:03:751
-1,120000	1,260000	0,140000	2020-10-29T19:04:03:774
-0,840000	1,400000	0,140000	2020-10-29T19:04:03:792
-0,770000	1,120000	0,070000	2020-10-29T19:04:03:813
-0,560000	1,190000	-0,070000	2020-10-29T19:04:03:832
-0,280000	1,400000	-0,140000	2020-10-29T19:04:03:854
-0,350000	1,400000	-0,140000	2020-10-29T19:04:03:871
-0,840000	1,120000	-0,280000	2020-10-29T19:04:03:895
-1,540000	1,330000	-0,350000	2020-10-29T19:04:03:912
-2,170000	1,260000	-0,420000	2020-10-29T19:04:03:934
-1,120000	1,400000	-0,490000	2020-10-29T19:04:03:953
-0,560000	1,540000	-0,070000	2020-10-29T19:04:03:974
-0,560000	1,400000	-0,070000	2020-10-29T19:04:03:992
-0,560000	1,190000	-0,070000	2020-10-29T19:04:04:015
-0,700000	1,470000	-0,070000	2020-10-29T19:04:04:032
-0,980000	1,190000	-0,070000	2020-10-29T19:04:04:053
-0,700000	1,050000	-0,210000	2020-10-29T19:04:04:072
-0,770000	1,330000	-0,210000	2020-10-29T19:04:04:095
-0,490000	1,260000	-0,210000	2020-10-29T19:04:04:112
-0,560000	1,400000	-0,210000	2020-10-29T19:04:04:134
-0,630000	0,910000	-0,210000	2020-10-29T19:04:04:152
-0,770000	1,190000	-0,280000	2020-10-29T19:04:04:175
-0,700000	1,330000	-0,070000	2020-10-29T19:04:04:193
-0,490000	1,190000	-0,140000	2020-10-29T19:04:04:215
-0,770000	1,190000	-0,140000	2020-10-29T19:04:04:232
-0,630000	1,260000	-0,070000	2020-10-29T19:04:04:255
-0,980000	1,260000	-0,210000	2020-10-29T19:04:04:272
-0,770000	1,050000	-0,140000	2020-10-29T19:04:04:295
-1,120000	1,260000	0,070000	2020-10-29T19:04:04:312
-0,630000	1,190000	-0,140000	2020-10-29T19:04:04:335
-0,280000	1,470000	-0,070000	2020-10-29T19:04:04:352
-1,120000	1,190000	-0,140000	2020-10-29T19:04:04:374
-1,120000	1,400000	-0,140000	2020-10-29T19:04:04:393
-0,630000	1,260000	-0,210000	2020-10-29T19:04:04:415
-0,560000	1,470000	-0,140000	2020-10-29T19:04:04:433
-0,840000	1,330000	-0,140000	2020-10-29T19:04:04:455
-0,840000	1,120000	-0,280000	2020-10-29T19:04:04:472
-1,190000	1,050000	-0,140000	2020-10-29T19:04:04:495
-1,120000	1,470000	-0,070000	2020-10-29T19:04:04:512
-0,140000	1,190000	-0,070000	2020-10-29T19:04:04:535
-0,700000	1,120000	-0,070000	2020-10-29T19:04:04:553
-1,260000	1,400000	0,070000	2020-10-29T19:04:04:575
-1,400000	1,260000	-0,070000	2020-10-29T19:04:04:593
-1,330000	0,980000	-0,070000	2020-10-29T19:04:04:616
-0,770000	1,470000	-0,070000	2020-10-29T19:04:04:633
-0,560000	1,470000	-0,070000	2020-10-29T19:04:04:655
-0,560000	1,260000	-0,070000	2020-10-29T19:04:04:674
-0,350000	1,190000	-0,070000	2020-10-29T19:04:04:695
-1,050000	1,470000	-0,070000	2020-10-29T19:04:04:713
-0,980000	1,120000	-0,070000	2020-10-29T19:04:04:735
-0,910000	1,330000	-0,070000	2020-10-29T19:04:04:753
-0,630000	1,120000	-0,140000	2020-10-29T19:04:04:775
-0,770000	1,470000	-0,070000	2020-10-29T19:04:04:793
-0,770000	1,540000	-0,210000	2020-10-29T19:04:04:815
-0,630000	1,190000	-0,210000	2020-10-29T19:04:04:833
-1,120000	0,980000	-0,210000	2020-10-29T19:04:04:855
-1,050000	1,120000	-0,070000	2020-10-29T19:04:04:873
-0,210000	1,330000	-0,140000	2020-10-29T19:04:04:896
-0,420000	1,260000	-0,070000	2020-10-29T19:04:04:914
-1,050000	1,050000	-0,070000	2020-10-29T19:04:04:935
-0,910000	1,330000	-0,070000	2020-10-29T19:04:04:953
-0,840000	1,470000	-0,140000	2020-10-29T19:04:04:976
-0,910000	1,120000	-0,140000	2020-10-29T19:04:05:015
-0,700000	1,120000	-0,070000	2020-10-29T19:04:05:246
-0,980000	1,330000	-0,140000	2020-10-29T19:04:05:247
-0,770000	1,260000	-0,210000	2020-10-29T19:04:05:247
-0,840000	1,260000	-0,070000	2020-10-29T19:04:05:248
-0,420000	1,190000	-0,070000	2020-10-29T19:04:05:253
-1,190000	1,330000	-0,070000	2020-10-29T19:04:05:254
-1,190000	1,260000	-0,070000	2020-10-29T19:04:05:255
-1,610000	1,190000	0,140000	2020-10-29T19:04:05:264
-0,980000	1,120000	0,210000	2020-10-29T19:04:05:264
-0,210000	1,330000	0,140000	2020-10-29T19:04:05:265
-0,210000	1,260000	0,140000	2020-10-29T19:04:05:265
-1,120000	1,400000	-0,140000	2020-10-29T19:04:05:266
-1,050000	1,190000	-0,140000	2020-10-29T19:04:05:267
-0,070000	1,330000	-0,070000	2020-10-29T19:04:05:278
-0,490000	1,400000	-0,070000	2020-10-29T19:04:05:294
-0,700000	1,330000	0,140000	2020-10-29T19:04:05:311
-0,350000	1,190000	0,070000	2020-10-29T19:04:05:335
-0,770000	1,190000	0,070000	2020-10-29T19:04:05:353
-1,190000	1,260000	-0,070000	2020-10-29T19:04:05:375
-0,560000	1,400000	-0,070000	2020-10-29T19:04:05:395
-0,700000	1,260000	-0,140000	2020-10-29T19:04:05:416
-0,840000	1,190000	-0,210000	2020-10-29T19:04:05:433
-0,980000	1,260000	-0,140000	2020-10-29T19:04:05:456
-1,050000	1,400000	-0,070000	2020-10-29T19:04:05:475
-0,630000	1,330000	-0,070000	2020-10-29T19:04:05:496
-0,420000	1,190000	0,070000	2020-10-29T19:04:05:513
-0,910000	1,190000	-0,070000	2020-10-29T19:04:05:536
-1,120000	1,260000	-0,140000	2020-10-29T19:04:05:553
-0,490000	1,330000	-0,140000	2020-10-29T19:04:05:576
-0,420000	1,260000	-0,210000	2020-10-29T19:04:05:595
-0,560000	1,330000	-0,140000	2020-10-29T19:04:05:648
-0,560000	1,260000	-0,140000	2020-10-29T19:04:05:649
-0,910000	1,400000	-0,140000	2020-10-29T19:04:05:668
-0,770000	1,330000	-0,140000	2020-10-29T19:04:05:689
-0,490000	1,330000	-0,140000	2020-10-29T19:04:05:698
-0,420000	1,260000	-0,140000	2020-10-29T19:04:05:736
-0,700000	1,260000	-0,070000	2020-10-29T19:04:05:816
-0,420000	1,330000	-0,140000	2020-10-29T19:04:05:833
-0,280000	1,330000	-0,210000	2020-10-29T19:04:05:855
-1,050000	1,260000	-0,070000	2020-10-29T19:04:05:874
-0,700000	1,330000	-0,140000	2020-10-29T19:04:05:902
-0,700000	1,330000	-0,070000	2020-10-29T19:04:05:913
-1,190000	1,120000	-0,070000	2020-10-29T19:04:05:937
-1,540000	1,260000	-0,070000	2020-10-29T19:04:05:954
-0,980000	1,260000	-0,070000	2020-10-29T19:04:05:977
-0,490000	1,400000	-0,070000	2020-10-29T19:04:05:994
-0,560000	1,190000	-0,070000	2020-10-29T19:04:06:017
-0,840000	1,400000	-0,140000	2020-10-29T19:04:06:034
-0,630000	1,260000	-0,070000	2020-10-29T19:04:06:057
-0,490000	1,330000	-0,070000	2020-10-29T19:04:06:085
-0,700000	1,330000	-0,350000	2020-10-29T19:04:10:141
-0,910000	1,330000	-0,420000	2020-10-29T19:04:10:142
0,070000	1,470000	-0,420000	2020-10-29T19:04:10:143
0,140000	1,330000	-0,070000	2020-10-29T19:04:10:158
-0,700000	1,260000	-0,070000	2020-10-29T19:04:10:183
-1,330000	1,330000	0,070000	2020-10-29T19:04:10:197
-1,190000	1,260000	0,140000	2020-10-29T19:04:10:219
-0,280000	1,400000	0,140000	2020-10-29T19:04:10:235
-0,350000	1,260000	0,140000	2020-10-29T19:04:10:258
-0,770000	1,470000	-0,140000	2020-10-29T19:04:10:276
-0,420000	1,260000	-0,420000	2020-10-29T19:04:10:299
-0,490000	1,190000	-0,350000	2020-10-29T19:04:10:316
-0,840000	1,260000	-0,350000	2020-10-29T19:04:10:339
-1,050000	1,540000	-0,140000	2020-10-29T19:04:10:357
0,070000	1,330000	-0,140000	2020-10-29T19:04:10:379
-0,700000	1,260000	-0,140000	2020-10-29T19:04:10:403
-0,770000	1,260000	-0,210000	2020-10-29T19:04:10:419
-0,700000	1,330000	-0,140000	2020-10-29T19:04:10:436
-0,350000	1,260000	-0,070000	2020-10-29T19:04:10:458
-0,770000	1,190000	-0,070000	2020-10-29T19:04:10:477
-1,050000	1,260000	-0,070000	2020-10-29T19:04:10:500
-0,490000	1,330000	-0,070000	2020-10-29T19:04:10:516
-0,490000	1,260000	-0,070000	2020-10-29T19:04:10:539
-0,770000	1,260000	-0,070000	2020-10-29T19:04:10:556
-1,120000	1,330000	-0,070000	2020-10-29T19:04:10:579
-0,490000	1,260000	-0,140000	2020-10-29T19:04:10:596
-0,700000	1,330000	-0,070000	2020-10-29T19:04:10:619
-0,770000	1,190000	-0,210000	2020-10-29T19:04:10:638
-0,770000	1,260000	-0,210000	2020-10-29T19:04:10:659
-0,140000	1,470000	-0,140000	2020-10-29T19:04:10:676
-0,560000	1,260000	-0,070000	2020-10-29T19:04:10:699
-0,350000	1,470000	-0,070000	2020-10-29T19:04:10:716
-1,190000	1,190000	-0,070000	2020-10-29T19:04:10:739
-1,050000	1,260000	-0,070000	2020-10-29T19:04:10:756
-0,560000	1,190000	-0,140000	2020-10-29T19:04:10:779
-1,120000	1,330000	-0,140000	2020-10-29T19:04:10:796
-0,910000	1,120000	-0,140000	2020-10-29T19:04:10:818
-0,420000	1,470000	-0,070000	2020-10-29T19:04:10:837
-0,420000	1,330000	-0,140000	2020-10-29T19:04:10:859
-0,700000	1,260000	-0,140000	2020-10-29T19:04:10:878
-0,490000	1,330000	-0,140000	2020-10-29T19:04:10:899
-0,420000	1,260000	-0,210000	2020-10-29T19:04:10:916
-0,770000	1,190000	-0,140000	2020-10-29T19:04:10:940
-0,770000	1,330000	-0,210000	2020-10-29T19:04:10:957
-0,840000	1,260000	-0,140000	2020-10-29T19:04:10:979
-0,910000	1,260000	-0,140000	2020-10-29T19:04:10:997
-0,770000	1,190000	-0,140000	2020-10-29T19:04:11:020
-0,420000	1,470000	-0,140000	2020-10-29T19:04:11:037
0,070000	1,330000	-0,210000	2020-10-29T19:04:11:059
-0,980000	1,470000	-0,140000	2020-10-29T19:04:11:077
-0,630000	1,260000	-0,140000	2020-10-29T19:04:11:099
-0,350000	1,190000	-0,070000	2020-10-29T19:04:11:118
-0,350000	1,540000	-0,070000	2020-10-29T19:04:11:140
-0,420000	1,470000	-0,070000	2020-10-29T19:04:11:157
-0,490000	1,400000	-0,070000	2020-10-29T19:04:11:180
-0,700000	1,330000	-0,140000	2020-10-29T19:04:11:197
-1,120000	1,260000	-0,140000	2020-10-29T19:04:11:218
-0,910000	1,260000	-0,210000	2020-10-29T19:04:11:237
-1,190000	1,400000	-0,140000	2020-10-29T19:04:11:260
-0,420000	1,330000	-0,140000	2020-10-29T19:04:11:277
-0,770000	1,120000	-0,140000	2020-10-29T19:04:11:298
-0,840000	1,190000	-0,140000	2020-10-29T19:04:11:317
-0,910000	1,190000	-0,070000	2020-10-29T19:04:11:340
-0,840000	1,190000	-0,140000	2020-10-29T19:04:11:358
-0,280000	1,400000	-0,070000	2020-10-29T19:04:11:379
-0,630000	1,400000	-0,140000	2020-10-29T19:04:11:397
-0,770000	1,260000	-0,070000	2020-10-29T19:04:11:420
-0,910000	1,400000	-0,070000	2020-10-29T19:04:11:439
-0,420000	1,330000	-0,070000	2020-10-29T19:04:11:460
0,280000	1,470000	-0,140000	2020-10-29T19:04:11:479
-0,210000	1,400000	-0,210000	2020-10-29T19:04:11:500
-0,350000	1,610000	-0,070000	2020-10-29T19:04:11:518
-0,350000	1,400000	-0,140000	2020-10-29T19:04:11:540
0,210000	1,330000	-0,070000	2020-10-29T19:04:11:558
0,420000	1,610000	-0,210000	2020-10-29T19:04:11:580
-0,490000	1,330000	-0,210000	2020-10-29T19:04:11:600
-0,770000	1,330000	-0,140000	2020-10-29T19:04:11:620
-0,420000	1,400000	-0,070000	2020-10-29T19:04:11:638
-0,490000	1,260000	-0,070000	2020-10-29T19:04:11:660
-0,630000	1,470000	-0,210000	2020-10-29T19:04:11:679
-0,350000	1,330000	-0,070000	2020-10-29T19:04:11:700
-0,560000	1,330000	-0,140000	2020-10-29T19:04:11:718
-0,840000	1,190000	-0,140000	2020-10-29T19:04:11:742
-0,630000	1,330000	-0,070000	2020-10-29T19:04:11:758
-0,350000	1,330000	-0,070000	2020-10-29T19:04:11:780
-0,980000	1,190000	-0,070000	2020-10-29T19:04:11:798
-0,980000	1,400000	-0,070000	2020-10-29T19:04:11:820
-0,140000	1,330000	0,070000	2020-10-29T19:04:11:839
-0,490000	1,260000	-0,070000	2020-10-29T19:04:11:860
-0,910000	1,330000	-0,070000	2020-10-29T19:04:11:878
-1,470000	1,400000	-0,070000	2020-10-29T19:04:11:900
-0,700000	1,190000	0,070000	2020-10-29T19:04:11:918
-0,140000	1,260000	-0,070000	2020-10-29T19:04:11:942
-0,280000	1,330000	-0,140000	2020-10-29T19:04:11:958
-0,770000	1,330000	-0,210000	2020-10-29T19:04:11:981
-1,050000	1,330000	-0,140000	2020-10-29T19:04:11:998
-1,190000	1,120000	-0,070000	2020-10-29T19:04:12:020
-1,120000	1,190000	-0,070000	2020-10-29T19:04:12:038
-0,980000	1,260000	-0,070000	2020-10-29T19:04:12:059
-0,280000	1,470000	-0,140000	2020-10-29T19:04:12:079
-0,140000	1,330000	-0,210000	2020-10-29T19:04:12:100
-0,490000	1,260000	-0,210000	2020-10-29T19:04:12:118
-0,350000	1,540000	-0,140000	2020-10-29T19:04:12:142
-0,490000	1,400000	-0,140000	2020-10-29T19:04:12:158
-0,700000	1,330000	-0,070000	2020-10-29T19:04:12:181
-0,490000	1,400000	-0,070000	2020-10-29T19:04:12:198
-0,280000	1,470000	-0,070000	2020-10-29T19:04:12:221
0,070000	1,400000	-0,140000	2020-10-29T19:04:12:238
-0,630000	1,330000	-0,140000	2020-10-29T19:04:12:260
-0,840000	1,190000	-0,140000	2020-10-29T19:04:12:278
-0,490000	1,470000	-0,140000	2020-10-29T19:04:12:301
0,210000	1,260000	-0,210000	2020-10-29T19:04:12:319
-0,490000	1,470000	-0,210000	2020-10-29T19:04:12:341
-0,350000	1,330000	-0,210000	2020-10-29T19:04:12:358
-0,210000	1,400000	-0,070000	2020-10-29T19:04:12:381
-0,210000	1,190000	-0,140000	2020-10-29T19:04:12:398
-0,560000	1,400000	-0,140000	2020-10-29T19:04:12:420
-0,700000	1,260000	-0,070000	2020-10-29T19:04:12:439
-0,350000	1,260000	-0,070000	2020-10-29T19:04:12:461
-0,210000	1,330000	-0,140000	2020-10-29T19:04:12:478
-0,420000	1,400000	-0,140000	2020-10-29T19:04:12:500
-0,140000	1,330000	-0,210000	2020-10-29T19:04:12:519
-0,280000	1,330000	-0,210000	2020-10-29T19:04:12:542
-0,350000	1,330000	-0,140000	2020-10-29T19:04:12:559
-0,770000	1,190000	-0,070000	2020-10-29T19:04:12:581
-0,910000	1,260000	-0,070000	2020-10-29T19:04:12:598
-0,420000	1,330000	-0,140000	2020-10-29T19:04:12:621
-0,700000	1,330000	-0,070000	2020-10-29T19:04:12:639
-0,700000	1,260000	-0,070000	2020-10-29T19:04:12:660
-0,630000	1,330000	-0,070000	2020-10-29T19:04:12:679
-0,490000	1,260000	-0,070000	2020-10-29T19:04:12:701
-0,770000	1,260000	-0,070000	2020-10-29T19:04:12:718
-0,700000	1,540000	-0,070000	2020-10-29T19:04:12:742
-0,630000	1,470000	-0,070000	2020-10-29T19:04:12:758
-0,700000	1,260000	-0,070000	2020-10-29T19:04:12:781
-0,840000	1,260000	-0,140000	2020-10-29T19:04:12:800
-0,770000	1,470000	-0,140000	2020-10-29T19:04:12:821
-0,350000	1,260000	-0,140000	2020-10-29T19:04:12:839
-0,700000	1,260000	-0,140000	2020-10-29T19:04:12:862
-0,770000	1,400000	-0,140000	2020-10-29T19:04:12:879
-0,910000	1,330000	-0,210000	2020-10-29T19:04:12:901
-0,840000	1,260000	-0,140000	2020-10-29T19:04:12:919
-0,070000	1,330000	-0,070000	2020-10-29T19:04:12:941
-0,490000	1,330000	-0,140000	2020-10-29T19:04:12:958
-0,840000	1,260000	-0,280000	2020-10-29T19:04:12:981
-0,840000	1,330000	-0,070000	2020-10-29T19:04:12:999
-0,490000	1,120000	-0,070000	2020-10-29T19:04:13:021
-1,190000	1,260000	0,140000	2020-10-29T19:04:13:040
-0,770000	1,190000	0,070000	2020-10-29T19:04:13:061
-0,210000	1,260000	0,210000	2020-10-29T19:04:13:079
-0,280000	1,190000	0,280000	2020-10-29T19:04:13:101
-0,980000	1,400000	-0,070000	2020-10-29T19:04:13:119
-0,840000	1,470000	-0,070000	2020-10-29T19:04:13:142
-0,560000	1,190000	-0,140000	2020-10-29T19:04:13:159
-0,210000	1,330000	-0,140000	2020-10-29T19:04:13:181
-0,560000	1,330000	-0,140000	2020-10-29T19:04:13:199
-0,840000	1,330000	-0,070000	2020-10-29T19:04:13:221
-0,910000	1,400000	-0,070000	2020-10-29T19:04:13:239
-0,350000	1,330000	-0,070000	2020-10-29T19:04:13:261
-0,490000	1,330000	-0,210000	2020-10-29T19:04:13:280
-1,190000	1,400000	-0,210000	2020-10-29T19:04:13:301
-1,190000	1,190000	-0,210000	2020-10-29T19:04:13:319
-1,120000	1,470000	-0,140000	2020-10-29T19:04:13:342
0,070000	1,540000	-0,070000	2020-10-29T19:04:13:359
-0,350000	1,400000	-0,070000	2020-10-29T19:04:13:382
-0,910000	1,260000	-0,070000	2020-10-29T19:04:13:399
-1,260000	1,190000	-0,140000	2020-10-29T19:04:13:421
-0,840000	1,260000	-0,070000	2020-10-29T19:04:13:439
-0,420000	1,260000	-0,140000	2020-10-29T19:04:13:461
-0,350000	1,330000	-0,280000	2020-10-29T19:04:13:479
-0,280000	1,540000	-0,210000	2020-10-29T19:04:13:501
0,140000	1,260000	-0,280000	2020-10-29T19:04:13:521
-0,350000	1,400000	-0,280000	2020-10-29T19:04:13:542
0,210000	1,610000	-0,350000	2020-10-29T19:04:13:559
0,140000	1,470000	-0,490000	2020-10-29T19:04:13:582
-0,560000	1,400000	-0,280000	2020-10-29T19:04:13:599
-0,630000	1,330000	-0,070000	2020-10-29T19:04:13:621
-0,630000	1,260000	0,070000	2020-10-29T19:04:13:640
-0,770000	1,190000	0,070000	2020-10-29T19:04:13:662
-0,910000	1,330000	-0,070000	2020-10-29T19:04:13:679
-1,050000	1,260000	-0,070000	2020-10-29T19:04:13:702
-0,630000	1,330000	-0,070000	2020-10-29T19:04:13:719
-0,840000	1,120000	-0,070000	2020-10-29T19:04:13:742
-0,770000	1,260000	-0,210000	2020-10-29T19:04:13:760
-0,630000	1,260000	0,070000	2020-10-29T19:04:13:782
-0,420000	1,330000	-0,070000	2020-10-29T19:04:13:799
-0,490000	1,260000	-0,070000	2020-10-29T19:04:13:821
-1,190000	1,190000	-0,070000	2020-10-29T19:04:13:840
-0,980000	1,400000	-0,070000	2020-10-29T19:04:13:862
-0,280000	1,260000	-0,140000	2020-10-29T19:04:13:880
-0,770000	1,330000	-0,210000	2020-10-29T19:04:13:902
-1,050000	1,400000	-0,210000	2020-10-29T19:04:13:919
-0,420000	1,190000	-0,140000	2020-10-29T19:04:13:943
-0,560000	1,260000	-0,070000	2020-10-29T19:04:13:960
-1,050000	1,260000	-0,070000	2020-10-29T19:04:13:982
-1,260000	1,190000	-0,140000	2020-10-29T19:04:14:001
-0,700000	1,190000	-0,280000	2020-10-29T19:04:14:022
-0,560000	1,470000	-0,210000	2020-10-29T19:04:14:040
-0,350000	1,330000	-0,210000	2020-10-29T19:04:14:061
-0,490000	1,400000	-0,140000	2020-10-29T19:04:14:080
-1,190000	1,190000	-0,140000	2020-10-29T19:04:14:102
-0,560000	1,330000	-0,140000	2020-10-29T19:04:14:120
-0,280000	1,260000	-0,070000	2020-10-29T19:04:14:143
-0,560000	1,330000	-0,140000	2020-10-29T19:04:14:160
-0,980000	1,260000	-0,140000	2020-10-29T19:04:14:182
-0,770000	1,470000	-0,070000	2020-10-29T19:04:14:200
-0,630000	1,190000	-0,070000	2020-10-29T19:04:14:222
-0,490000	1,330000	-0,070000	2020-10-29T19:04:14:241
-0,700000	1,260000	-0,070000	2020-10-29T19:04:14:262
-1,260000	1,330000	-0,140000	2020-10-29T19:04:14:280
-0,420000	1,260000	-0,070000	2020-10-29T19:04:14:302
-0,490000	1,260000	-0,070000	2020-10-29T19:04:14:320
-0,560000	1,330000	-0,210000	2020-10-29T19:04:14:342
-0,700000	1,260000	-0,140000	2020-10-29T19:04:14:360
-0,560000	1,330000	-0,140000	2020-10-29T19:04:14:383
-0,490000	1,330000	-0,210000	2020-10-29T19:04:14:400
-0,350000	1,330000	-0,140000	2020-10-29T19:04:14:422
-0,840000	1,260000	-0,140000	2020-10-29T19:04:14:440
-0,700000	1,260000	-0,070000	2020-10-29T19:04:14:463
-0,280000	1,330000	-0,140000	2020-10-29T19:04:14:481
-0,840000	1,260000	-0,140000	2020-10-29T19:04:14:503
-1,050000	1,260000	-0,070000	2020-10-29T19:04:14:520
-0,980000	1,190000	-0,070000	2020-10-29T19:04:14:543
-0,630000	1,260000	-0,070000	2020-10-29T19:04:14:560
-0,980000	1,190000	-0,070000	2020-10-29T19:04:14:583
-1,190000	1,190000	-0,070000	2020-10-29T19:04:14:600
-0,910000	1,120000	-0,070000	2020-10-29T19:04:14:622
-0,840000	1,400000	-0,140000	2020-10-29T19:04:14:640
-0,770000	1,190000	-0,140000	2020-10-29T19:04:14:663
-0,770000	1,120000	-0,070000	2020-10-29T19:04:14:681
-0,420000	1,260000	-0,070000	2020-10-29T19:04:14:703
-0,420000	1,330000	-0,140000	2020-10-29T19:04:14:721
-0,770000	1,260000	-0,210000	2020-10-29T19:04:14:743
-0,630000	1,260000	-0,280000	2020-10-29T19:04:14:760
-0,490000	1,260000	-0,210000	2020-10-29T19:04:14:783
-0,350000	1,330000	-0,210000	2020-10-29T19:04:14:801
-0,420000	1,260000	-0,210000	2020-10-29T19:04:14:824
-0,140000	1,260000	-0,210000	2020-10-29T19:04:14:841
-1,050000	1,400000	-0,140000	2020-10-29T19:04:14:863
-0,910000	1,190000	-0,070000	2020-10-29T19:04:14:880
-1,050000	1,120000	-0,140000	2020-10-29T19:04:14:904
-0,630000	1,330000	-0,420000	2020-10-29T19:04:14:921
-0,280000	1,260000	-0,280000	2020-10-29T19:04:14:942
-0,770000	1,190000	-0,210000	2020-10-29T19:04:14:962
-0,700000	1,190000	-0,210000	2020-10-29T19:04:14:985
-1,050000	1,260000	-0,140000	2020-10-29T19:04:15:000
-1,190000	1,190000	-0,140000	2020-10-29T19:04:15:023
-1,260000	1,190000	-0,070000	2020-10-29T19:04:15:041
-0,980000	1,050000	-0,070000	2020-10-29T19:04:15:064
-1,190000	1,400000	-0,140000	2020-10-29T19:04:15:081
-1,120000	1,190000	-0,140000	2020-10-29T19:04:15:104
-0,980000	1,120000	-0,070000	2020-10-29T19:04:15:121
-0,910000	1,260000	-0,070000	2020-10-29T19:04:15:147
-0,980000	1,260000	-0,070000	2020-10-29T19:04:15:161
-1,190000	1,260000	-0,070000	2020-10-29T19:04:15:183
-1,260000	1,190000	-0,070000	2020-10-29T19:04:15:202
-0,840000	1,190000	-0,070000	2020-10-29T19:04:15:224
-1,050000	1,260000	-0,070000	2020-10-29T19:04:15:241
-0,910000	1,260000	-0,070000	2020-10-29T19:04:15:263
-0,910000	1,120000	-0,070000	2020-10-29T19:04:15:281
-0,910000	1,400000	-0,140000	2020-10-29T19:04:15:304
-0,770000	1,120000	-0,070000	2020-10-29T19:04:15:321
-1,260000	1,190000	-0,070000	2020-10-29T19:04:15:344
-1,260000	0,980000	-0,140000	2020-10-29T19:04:15:361
-1,610000	1,260000	-0,210000	2020-10-29T19:04:15:384
-1,120000	1,260000	-0,140000	2020-10-29T19:04:15:401
-0,420000	1,330000	-0,140000	2020-10-29T19:04:15:423
-0,630000	1,260000	-0,140000	2020-10-29T19:04:15:443
-1,120000	1,330000	-0,070000	2020-10-29T19:04:15:465
-1,470000	1,120000	-0,140000	2020-10-29T19:04:15:481
-1,470000	1,050000	-0,140000	2020-10-29T19:04:15:503
-1,050000	1,120000	0,070000	2020-10-29T19:04:15:521
-0,980000	1,330000	-0,140000	2020-10-29T19:04:15:545
-1,330000	1,400000	-0,140000	2020-10-29T19:04:15:561
-1,050000	1,120000	-0,140000	2020-10-29T19:04:15:584
-0,770000	1,330000	-0,140000	2020-10-29T19:04:15:601
-0,490000	1,330000	-0,210000	2020-10-29T19:04:15:625
-1,120000	1,190000	-0,140000	2020-10-29T19:04:15:642
-1,330000	1,050000	-0,070000	2020-10-29T19:04:15:664
-1,190000	1,330000	-0,070000	2020-10-29T19:04:15:683
-0,560000	1,470000	0,070000	2020-10-29T19:04:15:705
-0,490000	1,330000	0,140000	2020-10-29T19:04:15:721
-0,910000	1,190000	-0,070000	2020-10-29T19:04:15:744
-1,470000	1,260000	-0,140000	2020-10-29T19:04:15:761
-0,840000	1,260000	-0,140000	2020-10-29T19:04:15:784
-0,700000	1,330000	-0,140000	2020-10-29T19:04:15:801
-0,840000	1,260000	-0,070000	2020-10-29T19:04:15:824
-1,400000	1,330000	-0,070000	2020-10-29T19:04:15:842
-0,630000	1,260000	-0,070000	2020-10-29T19:04:15:865
-0,700000	1,330000	-0,070000	2020-10-29T19:04:15:882
-1,610000	1,050000	-0,140000	2020-10-29T19:04:15:903
-1,680000	1,260000	-0,210000	2020-10-29T19:04:15:923
-0,280000	1,400000	-0,140000	2020-10-29T19:04:15:946
-0,490000	1,260000	-0,140000	2020-10-29T19:04:15:961
-1,400000	1,120000	-0,140000	2020-10-29T19:04:15:984
-2,450000	1,190000	0,070000	2020-10-29T19:04:16:001
-1,470000	1,050000	-0,070000	2020-10-29T19:04:16:025
-1,120000	1,260000	-0,070000	2020-10-29T19:04:16:042
-1,960000	1,260000	-0,140000	2020-10-29T19:04:16:064
-1,540000	1,120000	-0,070000	2020-10-29T19:04:16:082
-0,910000	1,050000	0,070000	2020-10-29T19:04:16:105
-0,770000	1,400000	0,070000	2020-10-29T19:04:16:122
-0,700000	1,190000	0,070000	2020-10-29T19:04:16:145
-1,470000	1,330000	-0,070000	2020-10-29T19:04:16:163
-0,980000	1,190000	-0,210000	2020-10-29T19:04:16:185
-0,840000	1,260000	-0,140000	2020-10-29T19:04:16:201
-0,490000	1,330000	-0,140000	2020-10-29T19:04:16:224
-0,700000	1,120000	-0,070000	2020-10-29T19:04:16:242
-1,610000	1,330000	-0,070000	2020-10-29T19:04:16:264
-1,540000	1,190000	-0,070000	2020-10-29T19:04:16:282
-1,190000	1,330000	-0,070000	2020-10-29T19:04:16:304
-0,210000	1,120000	-0,070000	2020-10-29T19:04:16:322
-1,260000	1,400000	-0,140000	2020-10-29T19:04:16:345
-1,470000	1,120000	-0,140000	2020-10-29T19:04:16:362
-1,820000	1,120000	0,070000	2020-10-29T19:04:16:384
-1,190000	1,120000	0,070000	2020-10-29T19:04:16:403
-0,490000	1,260000	0,070000	2020-10-29T19:04:16:426
-0,630000	1,330000	0,070000	2020-10-29T19:04:16:442
-0,840000	1,330000	-0,070000	2020-10-29T19:04:16:465
-0,630000	1,330000	0,070000	2020-10-29T19:04:16:482
-0,350000	1,190000	0,210000	2020-10-29T19:04:16:505
-1,470000	1,330000	0,280000	2020-10-29T19:04:16:522
-1,400000	1,260000	0,350000	2020-10-29T19:04:16:559
-1,120000	1,120000	0,210000	2020-10-29T19:04:16:564
-1,050000	1,400000	0,210000	2020-10-29T19:04:16:587
-0,140000	1,470000	0,210000	2020-10-29T19:04:16:602
-0,140000	1,260000	0,210000	2020-10-29T19:04:16:625
-0,980000	1,330000	0,210000	2020-10-29T19:04:16:643
-1,120000	1,330000	-0,140000	2020-10-29T19:04:16:666
-0,770000	1,330000	-0,210000	2020-10-29T19:04:16:683
-1,190000	1,120000	-0,210000	2020-10-29T19:04:16:705
-0,560000	1,260000	-0,070000	2020-10-29T19:04:16:722
-0,770000	1,330000	-0,070000	2020-10-29T19:04:16:748
-0,350000	1,400000	-0,210000	2020-10-29T19:04:16:763
-0,630000	1,260000	-0,140000	2020-10-29T19:04:16:786
-0,910000	1,400000	-0,210000	2020-10-29T19:04:16:802
-0,420000	1,330000	-0,210000	2020-10-29T19:04:16:827
-0,630000	1,330000	-0,140000	2020-10-29T19:04:16:842
-0,630000	1,400000	-0,210000	2020-10-29T19:04:16:865
-0,490000	1,400000	-0,210000	2020-10-29T19:04:16:884
-0,490000	1,260000	-0,210000	2020-10-29T19:04:16:906
-0,980000	1,260000	-0,210000	2020-10-29T19:04:16:922
-0,770000	1,260000	-0,210000	2020-10-29T19:04:16:946
-0,490000	1,330000	-0,070000	2020-10-29T19:04:16:963
-0,490000	1,190000	-0,070000	2020-10-29T19:04:16:987
-0,980000	1,190000	0,280000	2020-10-29T19:04:17:003
-1,330000	1,190000	0,560000	2020-10-29T19:04:17:025
-1,540000	1,190000	0,490000	2020-10-29T19:04:17:043
-0,980000	1,260000	0,280000	2020-10-29T19:04:17:066
-0,840000	1,330000	0,140000	2020-10-29T19:04:17:083
-0,560000	1,400000	-0,070000	2020-10-29T19:04:17:105
0,420000	1,260000	-0,210000	2020-10-29T19:04:17:124
-0,630000	1,400000	-0,210000	2020-10-29T19:04:17:147
-1,470000	1,330000	-0,350000	2020-10-29T19:04:17:163
-0,350000	1,190000	-0,490000	2020-10-29T19:04:17:186
-0,140000	1,120000	-0,350000	2020-10-29T19:04:17:203
-1,050000	1,260000	-0,070000	2020-10-29T19:04:17:229
-1,260000	1,120000	0,210000	2020-10-29T19:04:17:249
-1,050000	1,050000	0,420000	2020-10-29T19:04:17:265
-1,190000	0,980000	0,420000	2020-10-29T19:04:17:283
-0,630000	1,260000	0,280000	2020-10-29T19:04:17:306
-0,420000	1,260000	0,070000	2020-10-29T19:04:17:323
-0,420000	1,330000	-0,070000	2020-10-29T19:04:17:346
-0,070000	1,260000	-0,140000	2020-10-29T19:04:17:364
-0,980000	1,260000	-0,070000	2020-10-29T19:04:17:386
-0,910000	1,330000	0,070000	2020-10-29T19:04:17:403
-0,700000	1,260000	0,140000	2020-10-29T19:04:17:425
-0,630000	1,330000	0,140000	2020-10-29T19:04:17:444
-0,280000	1,400000	-0,210000	2020-10-29T19:04:17:466
-0,840000	1,330000	-0,140000	2020-10-29T19:04:17:485
-0,630000	1,190000	-0,140000	2020-10-29T19:04:17:506
-0,910000	1,190000	-0,070000	2020-10-29T19:04:17:523
-1,820000	1,120000	-0,070000	2020-10-29T19:04:17:547
-2,380000	1,050000	-0,070000	2020-10-29T19:04:17:563
-2,590000	1,050000	-0,070000	2020-10-29T19:04:17:586
-1,190000	1,400000	-0,140000	2020-10-29T19:04:17:604
-0,490000	1,120000	-0,140000	2020-10-29T19:04:17:627
-0,700000	1,050000	-0,210000	2020-10-29T19:04:17:644
-0,700000	1,540000	-0,280000	2020-10-29T19:04:17:666
-0,630000	1,400000	-0,140000	2020-10-29T19:04:17:684
-0,280000	1,400000	-0,210000	2020-10-29T19:04:17:707
-0,280000	1,330000	-0,210000	2020-10-29T19:04:17:724
-0,490000	1,540000	-0,140000	2020-10-29T19:04:17:747
-0,420000	1,400000	-0,210000	2020-10-29T19:04:17:763
-0,490000	1,470000	-0,070000	2020-10-29T19:04:17:787
-0,350000	1,190000	-0,210000	2020-10-29T19:04:17:804
-0,840000	1,190000	-0,210000	2020-10-29T19:04:17:826
-0,560000	1,400000	-0,140000	2020-10-29T19:04:17:845
-0,280000	1,330000	-0,070000	2020-10-29T19:04:17:867
-0,070000	1,330000	-0,070000	2020-10-29T19:04:17:884
-0,700000	1,470000	-0,070000	2020-10-29T19:04:17:906
-0,280000	1,330000	-0,210000	2020-10-29T19:04:17:924
-0,350000	1,330000	-0,140000	2020-10-29T19:04:17:947
-0,490000	1,330000	-0,140000	2020-10-29T19:04:17:964
-0,840000	1,330000	-0,140000	2020-10-29T19:04:17:987
-0,770000	1,260000	0,070000	2020-10-29T19:04:18:003
-0,980000	1,330000	0,070000	2020-10-29T19:04:18:027
-0,420000	1,260000	-0,140000	2020-10-29T19:04:18:044
-0,350000	1,330000	-0,140000	2020-10-29T19:04:18:066
-0,420000	1,190000	-0,210000	2020-10-29T19:04:18:085
-1,050000	1,330000	-0,210000	2020-10-29T19:04:18:107
-0,840000	1,260000	-0,210000	2020-10-29T19:04:18:124
-0,630000	1,330000	-0,070000	2020-10-29T19:04:18:147
-0,420000	1,330000	-0,070000	2020-10-29T19:04:18:164
-0,490000	1,330000	-0,070000	2020-10-29T19:04:18:187
-0,490000	1,400000	-0,140000	2020-10-29T19:04:18:204
-0,420000	1,330000	-0,280000	2020-10-29T19:04:18:226
-0,420000	1,260000	-0,350000	2020-10-29T19:04:18:245
-0,560000	1,330000	-0,280000	2020-10-29T19:04:18:267
-0,700000	1,260000	-0,280000	2020-10-29T19:04:18:284
-0,420000	1,400000	-0,210000	2020-10-29T19:04:18:305
-0,840000	1,260000	-0,210000	2020-10-29T19:04:18:325
-0,770000	1,330000	-0,140000	2020-10-29T19:04:18:347
-0,490000	1,190000	-0,140000	2020-10-29T19:04:18:364
-0,700000	1,260000	-0,070000	2020-10-29T19:04:18:387
-0,980000	1,470000	-0,140000	2020-10-29T19:04:18:404
-0,630000	1,330000	-0,070000	2020-10-29T19:04:18:426
-0,840000	1,190000	0,070000	2020-10-29T19:04:18:445
-0,630000	1,260000	0,070000	2020-10-29T19:04:18:466
-0,630000	1,470000	-0,070000	2020-10-29T19:04:18:484
-1,050000	1,190000	-0,070000	2020-10-29T19:04:18:507
-1,260000	1,190000	-0,070000	2020-10-29T19:04:18:528
-0,700000	1,190000	-0,070000	2020-10-29T19:04:18:547
-0,560000	1,330000	0,070000	2020-10-29T19:04:18:565
-0,560000	1,400000	-0,070000	2020-10-29T19:04:18:588
-0,560000	1,260000	-0,070000	2020-10-29T19:04:18:604
-0,420000	1,260000	-0,210000	2020-10-29T19:04:18:627
-0,560000	1,400000	-0,280000	2020-10-29T19:04:18:645
-0,280000	1,400000	-0,140000	2020-10-29T19:04:18:667
-0,490000	1,330000	-0,210000	2020-10-29T19:04:18:685
-0,560000	1,330000	-0,070000	2020-10-29T19:04:18:707
-0,630000	1,330000	-0,140000	2020-10-29T19:04:18:724
-0,700000	1,330000	-0,210000	2020-10-29T19:04:18:747
-0,140000	1,330000	-0,210000	2020-10-29T19:04:18:764
-0,630000	1,260000	0,280000	2020-10-29T19:04:18:787
-0,840000	1,330000	-0,070000	2020-10-29T19:04:18:806
-1,400000	1,260000	-0,210000	2020-10-29T19:04:18:828
-0,280000	1,260000	-0,210000	2020-10-29T19:04:18:845
-0,280000	1,330000	-0,210000	2020-10-29T19:04:18:867
-0,770000	1,330000	0,070000	2020-10-29T19:04:18:885
-1,120000	1,330000	0,070000	2020-10-29T19:04:18:908
-0,560000	1,260000	0,070000	2020-10-29T19:04:18:925
-0,840000	1,190000	0,070000	2020-10-29T19:04:18:947
-0,350000	1,330000	-0,070000	2020-10-29T19:04:18:964
-0,840000	1,400000	-0,210000	2020-10-29T19:04:18:988
-0,350000	1,400000	-0,140000	2020-10-29T19:04:19:005
-0,560000	1,190000	-0,140000	2020-10-29T19:04:19:027
-0,770000	1,330000	-0,070000	2020-10-29T19:04:19:046
-0,560000	1,330000	-0,070000	2020-10-29T19:04:19:068
-0,560000	1,470000	-0,070000	2020-10-29T19:04:19:085
-0,070000	1,330000	0,070000	2020-10-29T19:04:19:107
-0,210000	1,400000	0,140000	2020-10-29T19:04:19:125
-0,280000	1,400000	-0,140000	2020-10-29T19:04:19:148
-0,560000	1,400000	-0,140000	2020-10-29T19:04:19:165
-0,420000	1,400000	-0,210000	2020-10-29T19:04:19:187
-0,420000	1,400000	-0,210000	2020-10-29T19:04:19:205
-0,630000	1,260000	-0,210000	2020-10-29T19:04:19:229
-0,560000	1,260000	-0,070000	2020-10-29T19:04:19:245
-0,840000	1,260000	0,070000	2020-10-29T19:04:19:267
0,280000	1,400000	-0,070000	2020-10-29T19:04:19:286
-0,840000	1,260000	-0,070000	2020-10-29T19:04:19:309
-0,980000	1,190000	-0,070000	2020-10-29T19:04:19:325
-0,910000	1,260000	-0,070000	2020-10-29T19:04:19:348
-0,140000	1,400000	-0,070000	2020-10-29T19:04:19:365
-0,070000	1,330000	-0,070000	2020-10-29T19:04:19:388
-0,420000	1,330000	0,070000	2020-10-29T19:04:19:405
-0,630000	1,330000	-0,070000	2020-10-29T19:04:19:427
-0,280000	1,260000	-0,070000	2020-10-29T19:04:19:445
-0,070000	1,330000	-0,210000	2020-10-29T19:04:19:468
-0,910000	1,330000	-0,210000	2020-10-29T19:04:19:486
-0,560000	1,330000	-0,140000	2020-10-29T19:04:19:509
-0,630000	1,330000	-0,140000	2020-10-29T19:04:19:532
-0,070000	1,260000	-0,070000	2020-10-29T19:04:19:549
-0,770000	1,400000	-0,140000	2020-10-29T19:04:19:565
-0,980000	1,330000	-0,070000	2020-10-29T19:04:19:588
-0,490000	1,260000	-0,070000	2020-10-29T19:04:19:605
-0,560000	1,470000	-0,140000	2020-10-29T19:04:19:629
-0,280000	1,330000	-0,280000	2020-10-29T19:04:19:646
-0,770000	1,400000	-0,070000	2020-10-29T19:04:19:668
-0,070000	1,260000	-0,210000	2020-10-29T19:04:19:685
-1,190000	1,330000	-0,210000	2020-10-29T19:04:19:709
-0,630000	1,120000	-0,280000	2020-10-29T19:04:19:725
-1,050000	1,120000	-0,140000	2020-10-29T19:04:19:748
-1,400000	1,190000	-0,140000	2020-10-29T19:04:19:769
-0,630000	1,260000	-0,140000	2020-10-29T19:04:19:789
-0,350000	1,400000	0,140000	2020-10-29T19:04:19:805
-0,070000	1,260000	0,070000	2020-10-29T19:04:19:828
-0,700000	1,470000	-0,070000	2020-10-29T19:04:19:846
-0,770000	1,470000	-0,210000	2020-10-29T19:04:19:869
-0,210000	1,330000	-0,210000	2020-10-29T19:04:19:886
-0,070000	1,470000	-0,210000	2020-10-29T19:04:19:908
-0,350000	1,470000	-0,280000	2020-10-29T19:04:19:925
-0,070000	1,330000	-0,070000	2020-10-29T19:04:19:949
-0,210000	1,330000	-0,210000	2020-10-29T19:04:19:967
-0,490000	1,400000	-0,070000	2020-10-29T19:04:19:988
-0,280000	1,260000	0,140000	2020-10-29T19:04:20:007
-0,280000	1,260000	-0,140000	2020-10-29T19:04:20:029
-0,490000	1,470000	-0,070000	2020-10-29T19:04:20:046
-0,840000	1,470000	-0,210000	2020-10-29T19:04:20:068
-0,910000	1,190000	-0,070000	2020-10-29T19:04:20:086
-0,700000	1,330000	-0,070000	2020-10-29T19:04:20:109
-0,350000	1,330000	-0,070000	2020-10-29T19:04:20:126
-0,420000	1,400000	0,070000	2020-10-29T19:04:20:151
0,280000	1,470000	-0,140000	2020-10-29T19:04:20:166
-0,350000	1,400000	-0,140000	2020-10-29T19:04:20:190
-0,350000	1,260000	-0,070000	2020-10-29T19:04:20:205
-0,350000	1,190000	-0,140000	2020-10-29T19:04:20:227
-0,700000	1,400000	-0,070000	2020-10-29T19:04:20:247
-0,630000	1,330000	-0,210000	2020-10-29T19:04:20:269
-1,120000	1,330000	-0,280000	2020-10-29T19:04:20:286
-0,840000	1,400000	-0,490000	2020-10-29T19:04:20:308
-0,070000	1,260000	-0,490000	2020-10-29T19:04:20:326
-0,210000	1,470000	-0,350000	2020-10-29T19:04:20:349
-0,140000	1,330000	-0,420000	2020-10-29T19:04:20:366
-0,700000	1,400000	-0,280000	2020-10-29T19:04:20:389
-0,910000	1,470000	-0,350000	2020-10-29T19:04:20:406
-0,700000	1,260000	-0,210000	2020-10-29T19:04:20:430
-0,840000	1,260000	-0,070000	2020-10-29T19:04:20:446
-0,210000	1,330000	-0,140000	2020-10-29T19:04:20:468
-0,420000	1,400000	-0,140000	2020-10-29T19:04:20:487
-0,770000	1,260000	-0,210000	2020-10-29T19:04:20:511
-1,120000	1,260000	-0,210000	2020-10-29T19:04:20:526
-0,700000	1,470000	-0,210000	2020-10-29T19:04:20:548
-0,700000	1,400000	-0,140000	2020-10-29T19:04:20:566
-0,140000	1,190000	-0,140000	2020-10-29T19:04:20:590
-0,980000	1,330000	-0,140000	2020-10-29T19:04:20:606
-0,770000	1,260000	-0,140000	2020-10-29T19:04:20:629
-0,840000	1,330000	-0,140000	2020-10-29T19:04:20:646
-0,280000	1,260000	-0,140000	2020-10-29T19:04:20:670
-0,210000	1,610000	-0,070000	2020-10-29T19:04:20:687
-0,350000	1,400000	-0,070000	2020-10-29T19:04:20:708
0,070000	1,470000	-0,140000	2020-10-29T19:04:20:727
-0,280000	1,260000	-0,210000	2020-10-29T19:04:20:750
-0,910000	1,330000	-0,070000	2020-10-29T19:04:20:766
-0,560000	1,400000	-0,070000	2020-10-29T19:04:20:789
-0,070000	1,470000	-0,210000	2020-10-29T19:04:20:807
-0,840000	1,330000	-0,210000	2020-10-29T19:04:20:829
-1,120000	1,330000	-0,140000	2020-10-29T19:04:20:847
-0,770000	1,120000	-0,140000	2020-10-29T19:04:20:869
-0,770000	1,190000	0,070000	2020-10-29T19:04:20:887
-0,980000	1,190000	0,070000	2020-10-29T19:04:20:910
-0,770000	1,330000	-0,070000	2020-10-29T19:04:20:927
-0,700000	1,470000	-0,070000	2020-10-29T19:04:20:950
-0,910000	1,260000	-0,140000	2020-10-29T19:04:20:967
-1,260000	1,330000	-0,140000	2020-10-29T19:04:20:990
-0,980000	1,190000	-0,210000	2020-10-29T19:04:21:006
0,350000	1,470000	-0,210000	2020-10-29T19:04:21:030
-0,350000	1,330000	-0,210000	2020-10-29T19:04:21:047
-1,120000	1,400000	-0,280000	2020-10-29T19:04:21:071
-0,910000	1,330000	-0,140000	2020-10-29T19:04:21:086
-0,420000	1,260000	-0,280000	2020-10-29T19:04:21:110
-0,560000	1,260000	-0,350000	2020-10-29T19:04:21:126
-0,770000	1,330000	-0,350000	2020-10-29T19:04:21:152
-0,490000	1,470000	-0,070000	2020-10-29T19:04:21:167
-0,210000	1,330000	-0,140000	2020-10-29T19:04:21:190
-1,190000	1,330000	-0,140000	2020-10-29T19:04:21:207
-1,050000	1,260000	-0,070000	2020-10-29T19:04:21:231
-0,210000	1,470000	-0,070000	2020-10-29T19:04:21:247
-0,420000	1,400000	-0,210000	2020-10-29T19:04:21:269
-0,560000	1,400000	-0,280000	2020-10-29T19:04:21:287
-0,420000	1,470000	-0,280000	2020-10-29T19:04:21:311
-0,140000	1,400000	-0,210000	2020-10-29T19:04:21:327
-0,140000	1,470000	-0,140000	2020-10-29T19:04:21:350
-0,560000	1,330000	-0,070000	2020-10-29T19:04:21:366
-0,280000	1,330000	-0,070000	2020-10-29T19:04:21:391
-0,420000	1,330000	-0,070000	2020-10-29T19:04:21:407
-0,350000	1,400000	-0,070000	2020-10-29T19:04:21:430
-0,490000	1,400000	-0,070000	2020-10-29T19:04:21:448
-0,630000	1,260000	-0,070000	2020-10-29T19:04:21:471
-0,700000	1,400000	-0,070000	2020-10-29T19:04:21:487
-0,280000	1,330000	-0,070000	2020-10-29T19:04:21:512
-0,280000	1,330000	-0,140000	2020-10-29T19:04:21:527
-0,700000	1,330000	-0,140000	2020-10-29T19:04:21:551
-1,120000	1,190000	-0,140000	2020-10-29T19:04:21:567
-0,910000	1,330000	-0,210000	2020-10-29T19:04:21:590
-0,560000	1,260000	-0,140000	2020-10-29T19:04:21:607
-0,630000	1,330000	-0,070000	2020-10-29T19:04:21:631
-0,910000	1,330000	-0,070000	2020-10-29T19:04:21:647
-0,630000	1,260000	-0,070000	2020-10-29T19:04:21:669
-0,280000	1,400000	-0,140000	2020-10-29T19:04:21:688
-0,490000	1,260000	-0,140000	2020-10-29T19:04:21:711
-0,770000	1,400000	-0,140000	2020-10-29T19:04:21:727
-0,630000	1,330000	-0,140000	2020-10-29T19:04:21:751
-0,560000	1,330000	-0,140000	2020-10-29T19:04:21:767
-0,490000	1,260000	-0,140000	2020-10-29T19:04:21:791
-0,630000	1,330000	-0,140000	2020-10-29T19:04:21:808
-0,560000	1,400000	-0,140000	2020-10-29T19:04:21:831
-0,350000	1,330000	-0,140000	2020-10-29T19:04:21:847
-0,280000	1,260000	-0,210000	2020-10-29T19:04:21:871
-0,630000	1,330000	-0,070000	2020-10-29T19:04:21:888
-0,490000	1,470000	-0,070000	2020-10-29T19:04:21:910
-0,630000	1,260000	-0,070000	2020-10-29T19:04:21:927
-1,050000	1,190000	-0,140000	2020-10-29T19:04:21:950
-0,980000	1,190000	-0,140000	2020-10-29T19:04:21:967
-0,770000	1,400000	-0,140000	2020-10-29T19:04:21:990
-0,560000	1,400000	-0,070000	2020-10-29T19:04:22:007
-0,280000	1,330000	-0,070000	2020-10-29T19:04:22:031
-0,420000	1,330000	0,140000	2020-10-29T19:04:22:048
-0,700000	1,330000	0,140000	2020-10-29T19:04:22:070
-0,980000	1,400000	-0,070000	2020-10-29T19:04:22:088
-0,490000	1,260000	-0,070000	2020-10-29T19:04:22:111
-0,140000	1,260000	-0,140000	2020-10-29T19:04:22:128
-0,980000	1,400000	-0,140000	2020-10-29T19:04:22:151
-1,190000	1,260000	-0,280000	2020-10-29T19:04:22:168
-0,700000	1,470000	-0,280000	2020-10-29T19:04:22:192
-0,280000	1,330000	-0,280000	2020-10-29T19:04:22:207
-1,120000	1,050000	-0,140000	2020-10-29T19:04:22:230
-1,890000	0,980000	-0,140000	2020-10-29T19:04:22:248
-1,680000	1,190000	-0,140000	2020-10-29T19:04:22:271
-0,700000	1,260000	-0,070000	2020-10-29T19:04:22:288
-0,700000	1,190000	-0,140000	2020-10-29T19:04:22:310
-1,120000	1,190000	-0,210000	2020-10-29T19:04:22:328
-1,540000	1,120000	-0,210000	2020-10-29T19:04:22:351
-0,630000	1,260000	-0,210000	2020-10-29T19:04:22:368
-0,210000	1,400000	-0,280000	2020-10-29T19:04:22:391
-0,980000	1,330000	-0,210000	2020-10-29T19:04:22:409
-0,980000	1,120000	-0,210000	2020-10-29T19:04:22:431
-1,120000	1,260000	-0,140000	2020-10-29T19:04:22:448
-0,700000	1,400000	-0,140000	2020-10-29T19:04:22:470
-0,770000	1,330000	-0,070000	2020-10-29T19:04:22:488
-1,120000	1,190000	-0,140000	2020-10-29T19:04:22:511
-0,560000	1,400000	-0,140000	2020-10-29T19:04:22:528
-0,280000	1,330000	-0,280000	2020-10-29T19:04:22:550
-0,980000	1,190000	-0,140000	2020-10-29T19:04:22:568
-0,770000	1,190000	-0,210000	2020-10-29T19:04:22:592
-0,420000	1,190000	-0,280000	2020-10-29T19:04:22:608
-0,490000	1,260000	-0,350000	2020-10-29T19:04:22:631
-0,420000	1,190000	-0,280000	2020-10-29T19:04:22:649
-0,210000	1,260000	-0,140000	2020-10-29T19:04:22:671
-0,420000	1,260000	-0,140000	2020-10-29T19:04:22:688
-1,190000	1,260000	-0,140000	2020-10-29T19:04:22:711
-1,260000	1,330000	-0,140000	2020-10-29T19:04:22:728
-0,700000	1,260000	-0,140000	2020-10-29T19:04:22:752
-0,770000	1,330000	0,070000	2020-10-29T19:04:22:768
-1,050000	1,260000	0,070000	2020-10-29T19:04:22:791
-0,700000	1,400000	-0,070000	2020-10-29T19:04:22:808
-0,420000	1,190000	-0,140000	2020-10-29T19:04:22:832
-0,840000	1,260000	-0,070000	2020-10-29T19:04:22:849
-0,980000	1,330000	-0,070000	2020-10-29T19:04:22:871
-0,560000	1,120000	-0,140000	2020-10-29T19:04:22:889
-0,630000	1,400000	-0,140000	2020-10-29T19:04:22:912
-0,910000	1,470000	-0,140000	2020-10-29T19:04:22:928
-1,470000	1,120000	-0,280000	2020-10-29T19:04:22:952
-0,700000	1,050000	-0,210000	2020-10-29T19:04:22:968
-1,050000	1,330000	-0,140000	2020-10-29T19:04:22:992
-0,630000	1,540000	-0,210000	2020-10-29T19:04:23:008
-0,350000	1,400000	-0,140000	2020-10-29T19:04:23:031
-0,280000	1,190000	-0,140000	2020-10-29T19:04:23:049
-0,490000	1,330000	-0,210000	2020-10-29T19:04:23:072
-0,630000	1,330000	-0,280000	2020-10-29T19:04:23:089
-0,560000	1,400000	-0,070000	2020-10-29T19:04:23:111
-0,770000	1,190000	-0,070000	2020-10-29T19:04:23:129
-0,700000	1,260000	-0,070000	2020-10-29T19:04:23:152
-0,980000	1,190000	-0,070000	2020-10-29T19:04:23:168
-0,840000	1,190000	-0,070000	2020-10-29T19:04:23:191
-1,190000	1,190000	0,140000	2020-10-29T19:04:23:209
-0,770000	1,260000	0,140000	2020-10-29T19:04:23:231
-0,980000	1,190000	0,140000	2020-10-29T19:04:23:249
-1,120000	1,260000	0,140000	2020-10-29T19:04:23:271
-0,980000	1,190000	0,140000	2020-10-29T19:04:23:289
-0,280000	1,330000	-0,070000	2020-10-29T19:04:23:312
-0,560000	1,400000	-0,070000	2020-10-29T19:04:23:329
-0,980000	1,190000	-0,070000	2020-10-29T19:04:23:351
-0,980000	1,400000	-0,070000	2020-10-29T19:04:23:370
-0,280000	1,190000	-0,280000	2020-10-29T19:04:23:392
-0,630000	1,190000	-0,210000	2020-10-29T19:04:23:408
-0,910000	1,190000	-0,210000	2020-10-29T19:04:23:431
-1,470000	1,260000	-0,140000	2020-10-29T19:04:23:449
-0,840000	1,190000	-0,280000	2020-10-29T19:04:23:471
-0,630000	1,400000	-0,350000	2020-10-29T19:04:23:489
-0,490000	1,190000	-0,210000	2020-10-29T19:04:23:511
-0,910000	1,190000	0,280000	2020-10-29T19:04:23:528
-0,700000	1,120000	0,070000	2020-10-29T19:04:23:553
-0,980000	1,330000	0,070000	2020-10-29T19:04:23:569
-0,840000	1,190000	0,070000	2020-10-29T19:04:23:592
-0,840000	1,120000	0,070000	2020-10-29T19:04:23:610
-0,700000	1,260000	-0,140000	2020-10-29T19:04:23:633
-0,770000	1,260000	-0,140000	2020-10-29T19:04:23:649
-0,560000	1,400000	-0,140000	2020-10-29T19:04:23:670
-0,560000	1,260000	-0,210000	2020-10-29T19:04:23:689
-0,910000	1,470000	-0,140000	2020-10-29T19:04:23:713
-0,350000	1,400000	-0,490000	2020-10-29T19:04:23:729
-0,560000	1,190000	-0,490000	2020-10-29T19:04:23:752
-1,470000	1,260000	-0,070000	2020-10-29T19:04:23:769
-1,400000	1,120000	0,070000	2020-10-29T19:04:23:792
-0,700000	1,260000	0,070000	2020-10-29T19:04:23:809
-0,420000	1,120000	-0,070000	2020-10-29T19:04:23:832
-0,630000	1,330000	-0,070000	2020-10-29T19:04:23:851
-1,400000	1,260000	-0,070000	2020-10-29T19:04:23:873
-1,050000	1,400000	-0,420000	2020-10-29T19:04:23:889
-0,420000	1,120000	-0,210000	2020-10-29T19:04:23:912
-0,490000	1,260000	-0,210000	2020-10-29T19:04:23:929
-1,400000	1,330000	-0,210000	2020-10-29T19:04:23:953
-0,910000	1,260000	-0,070000	2020-10-29T19:04:23:969
-0,560000	1,120000	-0,070000	2020-10-29T19:04:23:992
-0,910000	1,260000	-0,070000	2020-10-29T19:04:24:009
-1,190000	1,190000	-0,140000	2020-10-29T19:04:24:033
-0,910000	1,260000	-0,070000	2020-10-29T19:04:24:050
-0,630000	1,190000	-0,140000	2020-10-29T19:04:24:072
-0,700000	1,260000	-0,070000	2020-10-29T19:04:24:091
-0,980000	1,330000	-0,210000	2020-10-29T19:04:24:113
-0,980000	1,260000	-0,070000	2020-10-29T19:04:24:129
-0,840000	1,120000	-0,070000	2020-10-29T19:04:24:153
-0,630000	1,190000	-0,070000	2020-10-29T19:04:24:170
-0,770000	1,330000	-0,070000	2020-10-29T19:04:24:194
-0,770000	1,260000	-0,070000	2020-10-29T19:04:24:210
-1,120000	1,190000	-0,070000	2020-10-29T19:04:24:232
-1,190000	1,330000	-0,070000	2020-10-29T19:04:24:250
-0,700000	1,190000	-0,070000	2020-10-29T19:04:24:273
-0,630000	1,260000	-0,070000	2020-10-29T19:04:24:290
-1,050000	1,120000	-0,070000	2020-10-29T19:04:24:312
-1,050000	1,330000	-0,140000	2020-10-29T19:04:24:331
-0,700000	1,190000	-0,140000	2020-10-29T19:04:24:353
-0,700000	1,330000	-0,210000	2020-10-29T19:04:24:369
-1,260000	1,190000	-0,210000	2020-10-29T19:04:24:393
-1,540000	1,330000	-0,210000	2020-10-29T19:04:24:410
-1,120000	1,050000	-0,140000	2020-10-29T19:04:24:433
-1,890000	1,120000	-0,070000	2020-10-29T19:04:24:450
-1,680000	0,980000	-0,070000	2020-10-29T19:04:24:472
-2,240000	0,840000	0,070000	2020-10-29T19:04:24:490
-3,080000	0,630000	0,070000	2020-10-29T19:04:24:513
-3,570000	0,700000	0,210000	2020-10-29T19:04:24:530
-2,660000	1,190000	0,070000	2020-10-29T19:04:24:553
-0,490000	0,980000	0,140000	2020-10-29T19:04:24:571
-0,630000	1,120000	-0,070000	2020-10-29T19:04:24:593
-0,910000	1,610000	-0,070000	2020-10-29T19:04:24:610
-1,050000	1,330000	-0,070000	2020-10-29T19:04:24:633
-0,840000	1,190000	-0,070000	2020-10-29T19:04:24:651
-0,980000	1,190000	-0,070000	2020-10-29T19:04:24:673
-1,260000	1,400000	-0,140000	2020-10-29T19:04:24:690
-0,910000	1,190000	-0,140000	2020-10-29T19:04:24:713
-1,680000	1,120000	-0,280000	2020-10-29T19:04:24:730
-1,890000	1,260000	-0,420000	2020-10-29T19:04:24:754
-1,960000	1,120000	-0,140000	2020-10-29T19:04:24:770
-1,120000	1,400000	0,210000	2020-10-29T19:04:24:793
0,490000	1,330000	0,350000	2020-10-29T19:04:24:811
0,280000	1,540000	0,210000	2020-10-29T19:04:24:834
-1,120000	1,610000	0,140000	2020-10-29T19:04:24:851
-0,630000	1,470000	0,140000	2020-10-29T19:04:24:873
-0,420000	1,120000	-0,140000	2020-10-29T19:04:24:891
-0,910000	1,330000	-0,140000	2020-10-29T19:04:24:914
-0,490000	1,400000	-0,140000	2020-10-29T19:04:24:931
-0,420000	1,190000	-0,140000	2020-10-29T19:04:24:954
-1,610000	1,120000	0,140000	2020-10-29T19:04:24:970
-2,520000	0,910000	0,350000	2020-10-29T19:04:24:995
-3,570000	0,840000	0,280000	2020-10-29T19:04:25:011
-3,990000	0,630000	0,210000	2020-10-29T19:04:25:033
-3,430000	0,630000	0,280000	2020-10-29T19:04:25:052
-0,350000	1,400000	-0,210000	2020-10-29T19:04:25:074
-0,420000	1,050000	-0,070000	2020-10-29T19:04:25:091
-0,630000	1,260000	-0,140000	2020-10-29T19:04:25:112
-1,120000	1,470000	-0,280000	2020-10-29T19:04:25:131
-1,470000	1,260000	-0,350000	2020-10-29T19:04:25:156
-0,840000	1,190000	-0,280000	2020-10-29T19:04:25:172
-1,750000	1,190000	-0,350000	2020-10-29T19:04:25:194
-1,960000	1,260000	-0,350000	2020-10-29T19:04:25:210
-1,260000	1,260000	-0,350000	2020-10-29T19:04:25:234
-1,190000	1,400000	-0,560000	2020-10-29T19:04:25:251
-1,400000	1,120000	-0,560000	2020-10-29T19:04:25:273
-1,820000	1,120000	-0,350000	2020-10-29T19:04:25:292
-1,960000	1,190000	-0,560000	2020-10-29T19:04:25:315
-2,240000	1,120000	-0,280000	2020-10-29T19:04:25:331
-1,540000	0,980000	-0,140000	2020-10-29T19:04:25:354
-2,100000	0,980000	-0,070000	2020-10-29T19:04:25:371
-2,170000	1,120000	-0,140000	2020-10-29T19:04:25:395
-2,380000	1,120000	-0,140000	2020-10-29T19:04:25:411
-1,610000	1,050000	-0,140000	2020-10-29T19:04:25:434
-1,540000	1,120000	-0,140000	2020-10-29T19:04:25:451
-2,380000	1,190000	-0,280000	2020-10-29T19:04:25:475
-2,380000	1,260000	-0,490000	2020-10-29T19:04:25:492
-1,960000	0,910000	-0,560000	2020-10-29T19:04:25:513
-1,750000	0,980000	-0,350000	2020-10-29T19:04:25:532
-1,960000	1,190000	-0,490000	2020-10-29T19:04:25:555
-1,540000	1,190000	-0,490000	2020-10-29T19:04:25:571
-1,190000	1,120000	-0,490000	2020-10-29T19:04:25:593
-0,350000	1,400000	-0,350000	2020-10-29T19:04:25:611
-0,210000	1,330000	-0,420000	2020-10-29T19:04:25:635
-0,560000	1,400000	-0,210000	2020-10-29T19:04:25:652
-0,700000	1,260000	-0,140000	2020-10-29T19:04:25:674
-0,630000	1,330000	-0,210000	2020-10-29T19:04:25:691
-0,210000	1,330000	-0,140000	2020-10-29T19:04:25:715
-0,210000	1,330000	0,210000	2020-10-29T19:04:25:731
-0,070000	1,260000	0,210000	2020-10-29T19:04:25:754
-0,210000	1,400000	-0,070000	2020-10-29T19:04:25:772
-0,070000	1,120000	-0,070000	2020-10-29T19:04:25:795
-0,140000	1,400000	-0,280000	2020-10-29T19:04:25:811
-0,560000	1,400000	-0,140000	2020-10-29T19:04:25:834
-0,630000	1,260000	-0,140000	2020-10-29T19:04:25:852
-0,770000	1,330000	-0,070000	2020-10-29T19:04:25:875
-0,770000	1,330000	-0,070000	2020-10-29T19:04:25:892
-0,700000	1,260000	0,070000	2020-10-29T19:04:25:914
-0,560000	1,260000	-0,070000	2020-10-29T19:04:25:931
-0,770000	1,330000	-0,140000	2020-10-29T19:04:25:955
-0,840000	1,260000	-0,070000	2020-10-29T19:04:25:971
-0,910000	1,260000	-0,070000	2020-10-29T19:04:25:994
-1,330000	1,120000	-0,070000	2020-10-29T19:04:26:015
-1,540000	1,330000	-0,210000	2020-10-29T19:04:26:075
-1,050000	1,050000	-0,140000	2020-10-29T19:04:26:076
-0,490000	1,260000	-0,210000	2020-10-29T19:04:26:077
-0,910000	1,330000	-0,280000	2020-10-29T19:04:26:093
-1,190000	1,260000	-0,350000	2020-10-29T19:04:26:116
-1,400000	1,190000	-0,070000	2020-10-29T19:04:26:179
-0,350000	1,260000	-0,070000	2020-10-29T19:04:26:180
-0,140000	1,190000	-0,140000	2020-10-29T19:04:26:181
-1,190000	1,400000	-0,140000	2020-10-29T19:04:26:195
-1,330000	1,330000	-0,070000	2020-10-29T19:04:26:211
-0,560000	1,120000	-0,140000	2020-10-29T19:04:26:233
-0,980000	0,980000	-0,140000	2020-10-29T19:04:26:317
-1,330000	1,330000	-0,070000	2020-10-29T19:04:26:318
-0,280000	1,330000	0,070000	2020-10-29T19:04:26:318
-0,350000	1,400000	0,070000	2020-10-29T19:04:26:319
-0,770000	1,330000	-0,070000	2020-10-29T19:04:26:330
-0,630000	1,400000	-0,140000	2020-10-29T19:04:26:355
-0,490000	1,330000	-0,140000	2020-10-29T19:04:26:373
-0,420000	1,330000	-0,140000	2020-10-29T19:04:26:392
-0,770000	1,260000	-0,070000	2020-10-29T19:04:26:411
-0,840000	1,260000	-0,070000	2020-10-29T19:04:26:434
-0,770000	1,120000	-0,070000	2020-10-29T19:04:26:451
-0,980000	1,400000	-0,140000	2020-10-29T19:04:26:473
-0,490000	1,260000	-0,070000	2020-10-29T19:04:26:493
0,070000	1,330000	-0,210000	2020-10-29T19:04:26:515
-0,280000	1,330000	-0,210000	2020-10-29T19:04:26:532
-0,490000	1,400000	-0,280000	2020-10-29T19:04:26:555
0,210000	1,540000	-0,140000	2020-10-29T19:04:26:572
0,070000	1,330000	-0,070000	2020-10-29T19:04:26:595
-0,910000	1,190000	-0,070000	2020-10-29T19:04:26:612
-1,190000	1,330000	-0,070000	2020-10-29T19:04:26:636
-0,560000	1,190000	-0,070000	2020-10-29T19:04:26:653
-0,630000	1,260000	-0,140000	2020-10-29T19:04:26:675
-0,980000	1,260000	-0,140000	2020-10-29T19:04:26:692
-0,770000	1,330000	-0,210000	2020-10-29T19:04:26:714
-0,350000	1,260000	-0,210000	2020-10-29T19:04:26:734
-0,420000	1,330000	-0,210000	2020-10-29T19:04:26:757
-0,840000	1,330000	-0,140000	2020-10-29T19:04:26:772
-0,980000	1,330000	-0,070000	2020-10-29T19:04:26:795
0,070000	1,260000	-0,070000	2020-10-29T19:04:26:812
-0,210000	1,330000	-0,070000	2020-10-29T19:04:26:835
-0,630000	1,330000	-0,070000	2020-10-29T19:04:26:853
-0,770000	1,330000	-0,070000	2020-10-29T19:04:26:875
-0,560000	1,260000	-0,140000	2020-10-29T19:04:26:892
-0,630000	1,260000	-0,210000	2020-10-29T19:04:26:915
-0,630000	1,330000	-0,070000	2020-10-29T19:04:26:932
-0,560000	1,260000	-0,070000	2020-10-29T19:04:26:956
-0,560000	1,260000	-0,070000	2020-10-29T19:04:26:991
-0,490000	1,400000	-0,140000	2020-10-29T19:04:27:440
-0,420000	1,260000	-0,070000	2020-10-29T19:04:27:455
-0,560000	1,400000	-0,070000	2020-10-29T19:04:27:482
-0,490000	1,330000	-0,070000	2020-10-29T19:04:27:494
-0,630000	1,260000	-0,070000	2020-10-29T19:04:27:516
-0,770000	1,330000	-0,140000	2020-10-29T19:04:27:534
-0,980000	1,260000	-0,070000	2020-10-29T19:04:27:559
-0,350000	1,260000	-0,070000	2020-10-29T19:04:27:573
-0,560000	1,330000	-0,070000	2020-10-29T19:04:27:596
-0,770000	1,260000	-0,070000	2020-10-29T19:04:27:613
-0,700000	1,400000	-0,070000	2020-10-29T19:04:27:636
-0,140000	1,330000	-0,140000	2020-10-29T19:04:27:653
-0,630000	1,260000	-0,070000	2020-10-29T19:04:27:676
-0,910000	1,330000	-0,070000	2020-10-29T19:04:27:695
-0,490000	1,330000	-0,070000	2020-10-29T19:04:27:717
-0,070000	1,260000	-0,140000	2020-10-29T19:04:27:733
-0,490000	1,330000	-0,070000	2020-10-29T19:04:27:757
-0,280000	1,400000	-0,070000	2020-10-29T19:04:27:773
-0,560000	1,400000	-0,210000	2020-10-29T19:04:27:797
-0,280000	1,190000	-0,070000	2020-10-29T19:04:27:813
-0,210000	1,400000	-0,140000	2020-10-29T19:04:27:836
-0,280000	1,470000	-0,070000	2020-10-29T19:04:27:853
-0,630000	1,400000	-0,140000	2020-10-29T19:04:27:877
-0,630000	1,400000	-0,140000	2020-10-29T19:04:27:893
-0,630000	1,190000	-0,140000	2020-10-29T19:04:27:914
-0,420000	1,470000	-0,210000	2020-10-29T19:04:27:934
-0,840000	1,260000	-0,140000	2020-10-29T19:04:27:957
-0,350000	1,260000	0,070000	2020-10-29T19:04:27:973
0,210000	1,190000	0,070000	2020-10-29T19:04:27:997
-0,700000	1,470000	0,210000	2020-10-29T19:04:28:013
-0,770000	1,260000	0,210000	2020-10-29T19:04:28:037
-0,560000	1,260000	-0,140000	2020-10-29T19:04:28:054
-0,490000	1,260000	-0,210000	2020-10-29T19:04:28:077
-0,420000	1,610000	-0,070000	2020-10-29T19:04:28:093
-0,420000	1,470000	-0,210000	2020-10-29T19:04:28:117
0,070000	1,260000	-0,070000	2020-10-29T19:04:28:133
0,070000	1,470000	0,070000	2020-10-29T19:04:28:156
0,700000	1,610000	0,140000	2020-10-29T19:04:28:175
0,210000	1,470000	-0,070000	2020-10-29T19:04:28:197
-0,350000	1,330000	-0,070000	2020-10-29T19:04:28:213
-0,490000	1,260000	-0,070000	2020-10-29T19:04:28:236
-0,700000	1,470000	0,140000	2020-10-29T19:04:28:254
-0,280000	1,400000	0,140000	2020-10-29T19:04:28:278
-0,210000	1,330000	0,140000	2020-10-29T19:04:28:294
-0,210000	1,190000	-0,070000	2020-10-29T19:04:28:317
-0,490000	1,330000	-0,070000	2020-10-29T19:04:28:333
-0,490000	1,330000	0,140000	2020-10-29T19:04:28:358
-0,490000	1,400000	0,070000	2020-10-29T19:04:28:374
-0,420000	1,470000	0,070000	2020-10-29T19:04:28:396
-0,210000	1,330000	0,070000	2020-10-29T19:04:28:415
0,070000	1,400000	0,070000	2020-10-29T19:04:28:438
0,140000	1,470000	0,070000	2020-10-29T19:04:28:454
-0,140000	1,330000	0,070000	2020-10-29T19:04:28:477
-0,560000	1,400000	0,070000	2020-10-29T19:04:28:494
-0,630000	1,330000	0,070000	2020-10-29T19:04:28:517
-0,560000	1,260000	0,070000	2020-10-29T19:04:28:534
-0,350000	1,190000	0,070000	2020-10-29T19:04:28:557
-0,070000	1,400000	0,070000	2020-10-29T19:04:28:574
0,210000	1,330000	-0,070000	2020-10-29T19:04:28:598
-0,630000	1,260000	-0,070000	2020-10-29T19:04:28:614
-0,350000	1,400000	-0,140000	2020-10-29T19:04:28:637
-0,350000	1,610000	-0,140000	2020-10-29T19:04:28:655
0,630000	1,400000	-0,210000	2020-10-29T19:04:28:678
0,420000	1,610000	-0,210000	2020-10-29T19:04:28:694
-0,070000	1,400000	-0,210000	2020-10-29T19:04:28:717
-0,560000	1,470000	-0,210000	2020-10-29T19:04:28:734
0,210000	1,400000	-0,140000	2020-10-29T19:04:28:758
1,190000	1,470000	-0,070000	2020-10-29T19:04:28:774
0,560000	1,610000	-0,070000	2020-10-29T19:04:28:797
0,560000	1,540000	-0,070000	2020-10-29T19:04:28:814
0,140000	1,470000	-0,140000	2020-10-29T19:04:28:838
0,630000	1,610000	-0,140000	2020-10-29T19:04:28:855
0,770000	1,610000	-0,210000	2020-10-29T19:04:28:877
0,140000	1,540000	-0,210000	2020-10-29T19:04:28:895
-0,070000	1,540000	-0,490000	2020-10-29T19:04:28:918
-0,420000	1,540000	-0,350000	2020-10-29T19:04:28:934
-0,420000	1,540000	0,070000	2020-10-29T19:04:28:957
0,210000	1,190000	0,350000	2020-10-29T19:04:28:976
0,490000	1,330000	0,560000	2020-10-29T19:04:28:998
-0,420000	1,470000	0,350000	2020-10-29T19:04:29:014
-1,610000	1,330000	-0,070000	2020-10-29T19:04:29:037
-1,190000	1,400000	-0,070000	2020-10-29T19:04:29:054
-0,140000	1,470000	-0,140000	2020-10-29T19:04:29:078
-0,210000	1,260000	-0,280000	2020-10-29T19:04:29:095
-0,980000	1,330000	-0,280000	2020-10-29T19:04:29:117
-0,280000	1,470000	-0,280000	2020-10-29T19:04:29:135
0,420000	1,680000	-0,210000	2020-10-29T19:04:29:158
1,190000	1,750000	-0,280000	2020-10-29T19:04:29:175
1,050000	1,680000	-0,490000	2020-10-29T19:04:29:196
-0,070000	1,680000	-0,560000	2020-10-29T19:04:29:214
-0,630000	1,330000	-0,350000	2020-10-29T19:04:29:238
-0,700000	1,260000	-0,070000	2020-10-29T19:04:29:255
-0,630000	1,400000	-0,070000	2020-10-29T19:04:29:277
-1,050000	1,400000	-0,210000	2020-10-29T19:04:29:294
-0,280000	1,400000	-0,140000	2020-10-29T19:04:29:317
-0,210000	1,330000	-0,140000	2020-10-29T19:04:29:335
-0,700000	1,470000	-0,140000	2020-10-29T19:04:29:357
-0,630000	1,330000	-0,070000	2020-10-29T19:04:29:376
-0,210000	1,260000	-0,140000	2020-10-29T19:04:29:398
-0,350000	1,260000	-0,350000	2020-10-29T19:04:29:414
-0,350000	1,400000	-0,350000	2020-10-29T19:04:29:437
-0,350000	1,330000	-0,280000	2020-10-29T19:04:29:455
0,070000	1,330000	-0,350000	2020-10-29T19:04:29:478
-0,070000	1,330000	-0,280000	2020-10-29T19:04:29:495
-0,350000	1,470000	-0,280000	2020-10-29T19:04:29:516
-0,280000	1,400000	-0,210000	2020-10-29T19:04:29:539
-0,210000	1,400000	-0,280000	2020-10-29T19:04:29:560
-0,210000	1,400000	-0,210000	2020-10-29T19:04:29:575
-0,560000	1,400000	-0,140000	2020-10-29T19:04:29:598
-0,840000	1,260000	0,070000	2020-10-29T19:04:29:616
-0,770000	1,330000	0,140000	2020-10-29T19:04:29:639
-1,050000	1,190000	0,070000	2020-10-29T19:04:29:656
-1,050000	1,190000	0,070000	2020-10-29T19:04:29:679
-0,910000	1,260000	-0,140000	2020-10-29T19:04:29:695
-0,980000	1,190000	-0,420000	2020-10-29T19:04:29:719
-0,350000	1,400000	-0,280000	2020-10-29T19:04:29:735
-0,350000	1,260000	-0,210000	2020-10-29T19:04:29:758
-0,420000	1,190000	-0,140000	2020-10-29T19:04:29:775
-0,630000	1,120000	-0,280000	2020-10-29T19:04:29:799
-0,980000	1,190000	-0,280000	2020-10-29T19:04:29:815
-0,350000	1,400000	-0,280000	2020-10-29T19:04:29:838
0,070000	1,470000	-0,280000	2020-10-29T19:04:29:857
-0,350000	1,400000	0,070000	2020-10-29T19:04:29:880
-0,490000	1,330000	0,280000	2020-10-29T19:04:29:895
-0,630000	1,260000	0,280000	2020-10-29T19:04:29:918
-0,910000	1,470000	0,140000	2020-10-29T19:04:29:935
-0,700000	1,400000	-0,070000	2020-10-29T19:04:29:959
-0,420000	1,330000	-0,140000	2020-10-29T19:04:29:976
-0,140000	1,120000	-0,140000	2020-10-29T19:04:29:998
-1,050000	1,260000	0,070000	2020-10-29T19:04:30:015
-1,330000	1,120000	0,140000	2020-10-29T19:04:30:039
-1,470000	1,190000	0,140000	2020-10-29T19:04:30:056
-0,980000	1,050000	-0,140000	2020-10-29T19:04:30:078
-0,840000	1,260000	-0,350000	2020-10-29T19:04:30:096
-1,260000	1,190000	-0,350000	2020-10-29T19:04:30:119
-1,750000	1,120000	-0,280000	2020-10-29T19:04:30:135
-1,050000	1,330000	-0,350000	2020-10-29T19:04:30:159
-1,050000	1,400000	-0,350000	2020-10-29T19:04:30:176
-1,050000	1,260000	-0,350000	2020-10-29T19:04:30:199
-0,980000	1,330000	-0,280000	2020-10-29T19:04:30:216
-0,980000	1,470000	-0,210000	2020-10-29T19:04:30:239
-0,140000	1,400000	-0,070000	2020-10-29T19:04:30:256
-0,140000	1,400000	-0,070000	2020-10-29T19:04:30:280
-0,490000	1,400000	0,070000	2020-10-29T19:04:30:296
-0,490000	1,400000	0,070000	2020-10-29T19:04:30:318
-0,770000	1,260000	-0,140000	2020-10-29T19:04:30:337
-1,120000	1,330000	-0,210000	2020-10-29T19:04:30:360
-0,770000	1,260000	-0,210000	2020-10-29T19:04:30:376
-0,420000	1,330000	-0,280000	2020-10-29T19:04:30:398
-0,560000	1,330000	-0,350000	2020-10-29T19:04:30:416
-0,980000	1,330000	-0,210000	2020-10-29T19:04:30:440
-0,980000	1,260000	-0,140000	2020-10-29T19:04:30:457
-0,700000	1,260000	-0,140000	2020-10-29T19:04:30:478
-0,700000	1,190000	-0,140000	2020-10-29T19:04:30:497
-0,980000	1,400000	-0,140000	2020-10-29T19:04:30:519
-1,190000	1,190000	-0,070000	2020-10-29T19:04:30:537
-1,190000	1,120000	-0,070000	2020-10-29T19:04:30:560
-0,840000	1,330000	0,140000	2020-10-29T19:04:30:579
-0,350000	1,400000	-0,070000	2020-10-29T19:04:30:599
-0,350000	1,330000	-0,070000	2020-10-29T19:04:30:617
-0,490000	1,330000	-0,140000	2020-10-29T19:04:30:638
-0,490000	1,330000	-0,070000	2020-10-29T19:04:30:657
-0,210000	1,400000	-0,070000	2020-10-29T19:04:30:680
-0,630000	1,330000	0,070000	2020-10-29T19:04:30:697
-0,490000	1,260000	-0,070000	2020-10-29T19:04:30:718
-1,120000	1,330000	-0,070000	2020-10-29T19:04:30:736
-1,050000	1,260000	-0,070000	2020-10-29T19:04:30:759
-1,190000	1,330000	-0,070000	2020-10-29T19:04:30:777
-0,700000	1,190000	-0,140000	2020-10-29T19:04:30:799
-0,560000	1,190000	-0,070000	2020-10-29T19:04:30:818
-1,120000	1,190000	-0,280000	2020-10-29T19:04:30:840
-1,120000	1,330000	-0,210000	2020-10-29T19:04:30:857
-0,560000	1,190000	-0,210000	2020-10-29T19:04:30:879
-0,840000	1,330000	-0,070000	2020-10-29T19:04:30:898
-1,050000	1,260000	-0,210000	2020-10-29T19:04:30:920
-0,700000	1,400000	-0,210000	2020-10-29T19:04:30:937
-0,630000	1,260000	-0,140000	2020-10-29T19:04:30:959
-0,350000	1,330000	-0,280000	2020-10-29T19:04:30:976
-0,560000	1,400000	-0,280000	2020-10-29T19:04:30:999
-0,700000	1,470000	-0,210000	2020-10-29T19:04:31:016
0,070000	1,330000	-0,280000	2020-10-29T19:04:31:039
-0,490000	1,260000	-0,140000	2020-10-29T19:04:31:058
-1,260000	1,190000	-0,070000	2020-10-29T19:04:31:080
-0,840000	1,400000	-0,070000	2020-10-29T19:04:31:096
-0,840000	1,330000	-0,070000	2020-10-29T19:04:31:118
-0,630000	1,330000	-0,140000	2020-10-29T19:04:31:136
-1,050000	1,190000	-0,140000	2020-10-29T19:04:31:159
-0,560000	1,260000	0,140000	2020-10-29T19:04:31:177
-0,350000	1,330000	0,070000	2020-10-29T19:04:31:199
-0,490000	1,400000	0,140000	2020-10-29T19:04:31:216
-0,700000	1,330000	0,070000	2020-10-29T19:04:31:240
-0,980000	1,190000	0,140000	2020-10-29T19:04:31:257
-0,630000	1,190000	0,140000	2020-10-29T19:04:31:279
-0,910000	1,190000	0,070000	2020-10-29T19:04:31:298
-1,260000	1,400000	-0,070000	2020-10-29T19:04:31:320
-0,560000	1,400000	-0,210000	2020-10-29T19:04:31:337
-0,280000	1,260000	-0,490000	2020-10-29T19:04:31:360
-0,630000	1,260000	-0,560000	2020-10-29T19:04:31:377
-0,700000	1,330000	-0,630000	2020-10-29T19:04:31:400
-0,280000	1,190000	-0,560000	2020-10-29T19:04:31:417
-0,210000	1,330000	-0,350000	2020-10-29T19:04:31:439
-0,980000	1,330000	-0,070000	2020-10-29T19:04:31:457
-1,190000	1,330000	0,140000	2020-10-29T19:04:31:481
-0,980000	1,260000	0,210000	2020-10-29T19:04:31:497
-1,050000	1,120000	0,070000	2020-10-29T19:04:31:519
-1,400000	1,330000	0,070000	2020-10-29T19:04:31:538
-0,560000	1,260000	-0,210000	2020-10-29T19:04:31:561
-0,630000	1,120000	-0,280000	2020-10-29T19:04:31:577
-1,050000	1,120000	-0,420000	2020-10-29T19:04:31:599
-0,770000	1,470000	-0,350000	2020-10-29T19:04:31:617
0,140000	1,260000	-0,210000	2020-10-29T19:04:31:641
-0,490000	1,190000	-0,140000	2020-10-29T19:04:31:657
-0,840000	1,260000	-0,140000	2020-10-29T19:04:31:679
-1,260000	1,190000	0,070000	2020-10-29T19:04:31:697
-0,980000	1,260000	0,070000	2020-10-29T19:04:31:721
-1,120000	1,260000	0,070000	2020-10-29T19:04:31:737
-0,910000	1,400000	0,070000	2020-10-29T19:04:31:761
-0,420000	1,260000	0,070000	2020-10-29T19:04:31:779
-0,490000	1,260000	-0,070000	2020-10-29T19:04:31:801
-0,770000	1,260000	-0,070000	2020-10-29T19:04:31:817
-0,840000	1,330000	-0,070000	2020-10-29T19:04:31:840
-0,910000	1,190000	-0,140000	2020-10-29T19:04:31:858
-1,120000	1,260000	-0,140000	2020-10-29T19:04:31:881
-0,980000	1,120000	-0,210000	2020-10-29T19:04:31:897
-0,910000	1,120000	-0,140000	2020-10-29T19:04:31:919
-0,910000	1,330000	-0,140000	2020-10-29T19:04:31:937
-0,840000	1,190000	0,070000	2020-10-29T19:04:31:962
-1,330000	1,330000	0,070000	2020-10-29T19:04:31:977
-0,910000	1,120000	0,070000	2020-10-29T19:04:31:999
-0,980000	1,330000	0,070000	2020-10-29T19:04:32:018
-0,770000	1,260000	0,070000	2020-10-29T19:04:32:041
-1,330000	1,190000	0,140000	2020-10-29T19:04:32:057
-1,330000	1,190000	0,070000	2020-10-29T19:04:32:080
-1,330000	1,190000	0,070000	2020-10-29T19:04:32:097
-0,910000	1,050000	0,070000	2020-10-29T19:04:32:121
-0,840000	1,120000	-0,140000	2020-10-29T19:04:32:137
-0,980000	1,400000	-0,140000	2020-10-29T19:04:32:161
-0,770000	1,330000	-0,140000	2020-10-29T19:04:32:177
-0,910000	1,260000	-0,070000	2020-10-29T19:04:32:201
-0,770000	1,190000	-0,210000	2020-10-29T19:04:32:218
-1,890000	1,400000	0,210000	2020-10-29T19:04:32:240
-0,560000	1,120000	-0,070000	2020-10-29T19:04:32:259
-1,190000	1,330000	-0,210000	2020-10-29T19:04:32:281
-0,980000	1,400000	-0,140000	2020-10-29T19:04:32:297
-1,260000	1,120000	-0,350000	2020-10-29T19:04:32:320
-1,050000	1,050000	-0,280000	2020-10-29T19:04:32:338
-1,190000	1,190000	-0,140000	2020-10-29T19:04:32:361
-0,280000	1,120000	-0,070000	2020-10-29T19:04:32:378
-0,770000	1,190000	-0,070000	2020-10-29T19:04:32:400
-1,330000	1,260000	-0,140000	2020-10-29T19:04:32:417
-0,420000	1,260000	-0,280000	2020-10-29T19:04:32:440
-0,630000	1,330000	-0,210000	2020-10-29T19:04:32:458
-0,980000	1,190000	-0,070000	2020-10-29T19:04:32:481
-0,910000	1,260000	-0,140000	2020-10-29T19:04:32:499
-0,770000	1,260000	-0,140000	2020-10-29T19:04:32:521
-0,910000	1,260000	-0,140000	2020-10-29T19:04:32:538
-0,630000	1,260000	-0,140000	2020-10-29T19:04:32:561
-0,980000	1,260000	-0,070000	2020-10-29T19:04:32:578
-0,560000	1,260000	-0,140000	2020-10-29T19:04:32:601
-0,700000	1,330000	-0,070000	2020-10-29T19:04:32:618
-0,560000	1,190000	-0,070000	2020-10-29T19:04:32:640
-1,120000	1,190000	0,140000	2020-10-29T19:04:32:658
-0,980000	1,260000	0,140000	2020-10-29T19:04:32:682
-0,770000	1,260000	-0,070000	2020-10-29T19:04:32:698
-0,630000	1,260000	-0,140000	2020-10-29T19:04:32:720
-0,700000	1,260000	-0,140000	2020-10-29T19:04:32:739
-0,840000	1,190000	-0,210000	2020-10-29T19:04:32:762
-0,910000	1,330000	-0,210000	2020-10-29T19:04:32:778
-0,700000	1,330000	-0,280000	2020-10-29T19:04:32:801
-0,350000	1,400000	-0,350000	2020-10-29T19:04:32:819
-0,630000	1,120000	-0,280000	2020-10-29T19:04:32:842
-1,190000	1,120000	-0,210000	2020-10-29T19:04:32:860
-1,260000	1,190000	-0,210000	2020-10-29T19:04:32:881
-0,980000	1,260000	-0,070000	2020-10-29T19:04:32:898
-1,050000	1,260000	-0,070000	2020-10-29T19:04:32:922
-0,980000	1,190000	-0,140000	2020-10-29T19:04:32:939
-1,190000	1,120000	-0,140000	2020-10-29T19:04:32:961
-1,330000	1,190000	-0,210000	2020-10-29T19:04:32:979
-1,050000	1,260000	-0,210000	2020-10-29T19:04:33:002
-0,630000	1,190000	-0,210000	2020-10-29T19:04:33:018
-0,910000	1,260000	-0,210000	2020-10-29T19:04:33:041
-0,140000	1,260000	-0,350000	2020-10-29T19:04:33:059
-0,350000	1,470000	-0,140000	2020-10-29T19:04:33:082
-0,840000	1,330000	-0,070000	2020-10-29T19:04:33:098
-1,400000	1,050000	-0,140000	2020-10-29T19:04:33:121
-1,540000	1,190000	-0,140000	2020-10-29T19:04:33:138
-1,470000	1,260000	-0,070000	2020-10-29T19:04:33:162
-0,910000	1,260000	-0,140000	2020-10-29T19:04:33:179
-0,840000	1,260000	-0,140000	2020-10-29T19:04:33:201
-1,190000	1,260000	-0,280000	2020-10-29T19:04:33:218
-1,190000	1,400000	-0,070000	2020-10-29T19:04:33:242
-0,350000	1,190000	-0,210000	2020-10-29T19:04:33:259
-1,400000	1,330000	-0,140000	2020-10-29T19:04:33:281
-1,680000	1,120000	-0,140000	2020-10-29T19:04:33:299
-1,190000	1,330000	-0,210000	2020-10-29T19:04:33:322
-0,490000	1,260000	0,070000	2020-10-29T19:04:33:339
-1,120000	1,120000	0,070000	2020-10-29T19:04:33:361
-1,750000	1,190000	0,070000	2020-10-29T19:04:33:378
-1,330000	1,190000	0,070000	2020-10-29T19:04:33:402
-0,350000	1,260000	-0,070000	2020-10-29T19:04:33:419
-1,050000	1,190000	-0,070000	2020-10-29T19:04:33:441
-1,470000	1,120000	-0,070000	2020-10-29T19:04:33:460
-0,840000	1,260000	-0,070000	2020-10-29T19:04:33:482
-0,140000	1,190000	-0,140000	2020-10-29T19:04:33:499
-0,770000	1,260000	-0,210000	2020-10-29T19:04:33:521
-1,330000	1,190000	-0,140000	2020-10-29T19:04:33:539
-1,330000	1,330000	-0,140000	2020-10-29T19:04:33:562
-0,700000	1,050000	-0,140000	2020-10-29T19:04:33:580
-1,120000	1,330000	-0,070000	2020-10-29T19:04:33:601
-1,120000	1,190000	-0,070000	2020-10-29T19:04:33:619
-1,330000	1,120000	-0,070000	2020-10-29T19:04:33:642
-1,120000	1,260000	-0,070000	2020-10-29T19:04:33:660
-0,630000	1,190000	-0,140000	2020-10-29T19:04:33:682
-0,910000	1,330000	-0,070000	2020-10-29T19:04:33:700
-0,350000	1,400000	-0,070000	2020-10-29T19:04:33:723
-0,280000	1,400000	-0,070000	2020-10-29T19:04:33:739
-0,840000	1,190000	-0,070000	2020-10-29T19:04:33:762
-1,190000	1,330000	-0,210000	2020-10-29T19:04:33:779
-0,770000	1,190000	-0,140000	2020-10-29T19:04:33:802
-0,910000	1,190000	-0,140000	2020-10-29T19:04:33:819
-1,190000	1,190000	-0,140000	2020-10-29T19:04:33:842
-1,050000	1,540000	-0,070000	2020-10-29T19:04:33:860
-0,210000	1,330000	-0,140000	2020-10-29T19:04:33:883
-0,910000	1,260000	-0,140000	2020-10-29T19:04:33:899
-0,980000	1,190000	-0,210000	2020-10-29T19:04:33:922
-0,560000	1,400000	-0,210000	2020-10-29T19:04:33:940
-0,070000	1,260000	-0,210000	2020-10-29T19:04:33:963
-0,840000	1,260000	-0,140000	2020-10-29T19:04:33:979
-1,190000	1,330000	-0,210000	2020-10-29T19:04:34:002
-0,560000	1,470000	-0,140000	2020-10-29T19:04:34:020
-0,280000	1,400000	-0,140000	2020-10-29T19:04:34:043
-0,630000	1,330000	-0,140000	2020-10-29T19:04:34:060
-0,630000	1,470000	-0,140000	2020-10-29T19:04:34:082
-0,630000	1,190000	-0,140000	2020-10-29T19:04:34:099
-1,050000	1,400000	-0,140000	2020-10-29T19:04:34:123
-0,630000	1,260000	-0,140000	2020-10-29T19:04:34:140
-0,560000	1,330000	-0,070000	2020-10-29T19:04:34:162
-0,770000	1,330000	-0,070000	2020-10-29T19:04:34:181
-0,980000	1,190000	-0,070000	2020-10-29T19:04:34:203
-0,910000	1,260000	-0,070000	2020-10-29T19:04:34:220
-1,190000	1,120000	-0,070000	2020-10-29T19:04:34:242
-0,910000	1,330000	-0,070000	2020-10-29T19:04:34:260
-0,420000	1,260000	-0,210000	2020-10-29T19:04:34:283
-0,770000	1,190000	-0,070000	2020-10-29T19:04:34:300
-0,770000	1,190000	-0,070000	2020-10-29T19:04:34:322
-1,050000	1,260000	-0,070000	2020-10-29T19:04:34:340
-0,700000	1,260000	-0,140000	2020-10-29T19:04:34:363
-0,700000	1,400000	-0,140000	2020-10-29T19:04:34:380
-0,350000	1,400000	-0,140000	2020-10-29T19:04:34:402
-0,280000	1,330000	-0,070000	2020-10-29T19:04:34:422
-0,700000	1,190000	-0,070000	2020-10-29T19:04:34:443
-0,980000	1,330000	-0,280000	2020-10-29T19:04:34:460
-0,420000	1,260000	-0,280000	2020-10-29T19:04:34:483
-0,700000	1,260000	-0,280000	2020-10-29T19:04:34:500
-1,120000	1,260000	-0,140000	2020-10-29T19:04:34:523
-0,560000	1,400000	-0,140000	2020-10-29T19:04:34:540
-0,420000	1,400000	0,140000	2020-10-29T19:04:34:563
-0,910000	1,260000	0,070000	2020-10-29T19:04:34:580
-1,120000	1,330000	0,070000	2020-10-29T19:04:34:604
-0,910000	1,260000	-0,070000	2020-10-29T19:04:34:620
-0,280000	1,260000	-0,070000	2020-10-29T19:04:34:643
-0,840000	1,190000	-0,070000	2020-10-29T19:04:34:662
-1,190000	1,260000	-0,070000	2020-10-29T19:04:34:682
-0,840000	1,190000	0,070000	2020-10-29T19:04:34:700
-0,350000	1,330000	0,070000	2020-10-29T19:04:34:723
-0,560000	1,260000	-0,070000	2020-10-29T19:04:34:741
-0,980000	1,400000	-0,070000	2020-10-29T19:04:34:764
-0,070000	1,260000	-0,140000	2020-10-29T19:04:34:780
-0,280000	1,330000	-0,210000	2020-10-29T19:04:34:803
-0,630000	1,190000	-0,140000	2020-10-29T19:04:34:820
-0,980000	1,400000	-0,210000	2020-10-29T19:04:34:844
-0,770000	1,190000	-0,210000	2020-10-29T19:04:34:861
-0,350000	1,330000	-0,210000	2020-10-29T19:04:34:883
-0,490000	1,330000	-0,280000	2020-10-29T19:04:34:901
-0,910000	1,260000	-0,210000	2020-10-29T19:04:34:924
-0,700000	1,120000	-0,280000	2020-10-29T19:04:34:940
-0,700000	1,260000	-0,280000	2020-10-29T19:04:34:963
-0,630000	1,470000	-0,140000	2020-10-29T19:04:34:981
-0,350000	1,330000	-0,070000	2020-10-29T19:04:35:004
-0,490000	1,470000	-0,070000	2020-10-29T19:04:35:020
-0,910000	1,190000	0,070000	2020-10-29T19:04:35:043
-1,050000	1,330000	0,210000	2020-10-29T19:04:35:060
-0,910000	1,260000	0,140000	2020-10-29T19:04:35:084
-0,630000	1,190000	0,140000	2020-10-29T19:04:35:100
-0,980000	1,190000	0,140000	2020-10-29T19:04:35:123
-0,980000	1,330000	0,070000	2020-10-29T19:04:35:141
-0,840000	1,330000	-0,210000	2020-10-29T19:04:35:164
-0,630000	1,190000	-0,140000	2020-10-29T19:04:35:180
-0,700000	1,330000	-0,210000	2020-10-29T19:04:35:203
-0,700000	1,610000	-0,280000	2020-10-29T19:04:35:221
-0,210000	1,330000	-0,490000	2020-10-29T19:04:35:244
-0,210000	1,190000	-0,420000	2020-10-29T19:04:35:261
-0,980000	1,400000	-0,280000	2020-10-29T19:04:35:283
-0,770000	1,470000	-0,070000	2020-10-29T19:04:35:300
-0,490000	1,330000	0,140000	2020-10-29T19:04:35:324
-0,700000	1,330000	0,140000	2020-10-29T19:04:35:341
-0,560000	1,260000	0,070000	2020-10-29T19:04:35:363
-0,630000	1,400000	0,070000	2020-10-29T19:04:35:382
-0,490000	1,190000	-0,070000	2020-10-29T19:04:35:404
-0,560000	1,330000	-0,140000	2020-10-29T19:04:35:420
-0,840000	1,190000	-0,140000	2020-10-29T19:04:35:443
-0,770000	1,260000	-0,070000	2020-10-29T19:04:35:461
-0,420000	1,260000	-0,070000	2020-10-29T19:04:35:484
-0,910000	1,400000	-0,070000	2020-10-29T19:04:35:501
-0,420000	1,400000	-0,070000	2020-10-29T19:04:35:523
-0,420000	1,260000	-0,070000	2020-10-29T19:04:35:541
-0,700000	1,260000	-0,140000	2020-10-29T19:04:35:565
-1,050000	1,330000	-0,140000	2020-10-29T19:04:35:581
-0,490000	1,330000	-0,070000	2020-10-29T19:04:35:603
-0,210000	1,260000	-0,070000	2020-10-29T19:04:35:622
-0,770000	1,260000	-0,140000	2020-10-29T19:04:35:644
-0,910000	1,470000	-0,070000	2020-10-29T19:04:35:661
-0,350000	1,260000	-0,210000	2020-10-29T19:04:35:684
-0,490000	1,260000	-0,280000	2020-10-29T19:04:35:701
-0,980000	1,190000	-0,210000	2020-10-29T19:04:35:724
-0,630000	1,260000	-0,140000	2020-10-29T19:04:35:741
-0,560000	1,260000	-0,070000	2020-10-29T19:04:35:764
-0,980000	1,190000	-0,070000	2020-10-29T19:04:35:781
-0,840000	1,260000	-0,070000	2020-10-29T19:04:35:804
-0,700000	1,330000	-0,140000	2020-10-29T19:04:35:821
-0,350000	1,400000	-0,070000	2020-10-29T19:04:35:844
-0,280000	1,260000	-0,070000	2020-10-29T19:04:35:863
-0,840000	1,330000	-0,070000	2020-10-29T19:04:35:885
-0,840000	1,260000	-0,070000	2020-10-29T19:04:35:901
-0,490000	1,330000	-0,070000	2020-10-29T19:04:35:924
-0,490000	1,260000	-0,070000	2020-10-29T19:04:35:941
-0,700000	1,260000	-0,070000	2020-10-29T19:04:35:965
-0,840000	1,330000	-0,140000	2020-10-29T19:04:35:981
-0,560000	1,260000	-0,070000	2020-10-29T19:04:36:004
-0,630000	1,260000	-0,070000	2020-10-29T19:04:36:021
-0,560000	1,330000	-0,070000	2020-10-29T19:04:36:045
-0,910000	1,330000	-0,070000	2020-10-29T19:04:36:062
-0,770000	1,330000	-0,070000	2020-10-29T19:04:36:084
-0,280000	1,190000	-0,070000	2020-10-29T19:04:36:103
-0,490000	1,330000	0,070000	2020-10-29T19:04:36:125
-1,120000	1,330000	0,070000	2020-10-29T19:04:36:142
-0,840000	1,260000	-0,210000	2020-10-29T19:04:36:165
-0,420000	1,120000	-0,210000	2020-10-29T19:04:36:182
-0,910000	1,260000	-0,210000	2020-10-29T19:04:36:205
-0,910000	1,470000	-0,210000	2020-10-29T19:04:36:221
-0,280000	1,330000	-0,070000	2020-10-29T19:04:36:244
-0,420000	1,330000	-0,070000	2020-10-29T19:04:36:262
-0,280000	1,400000	-0,070000	2020-10-29T19:04:36:285
-0,350000	1,260000	-0,140000	2020-10-29T19:04:36:302
-0,350000	1,400000	-0,140000	2020-10-29T19:04:36:324
-0,490000	1,190000	-0,140000	2020-10-29T19:04:36:343
-0,630000	1,330000	-0,070000	2020-10-29T19:04:36:366
-0,630000	1,400000	-0,070000	2020-10-29T19:04:36:382
-0,560000	1,400000	-0,070000	2020-10-29T19:04:36:404
-0,420000	1,260000	0,070000	2020-10-29T19:04:36:422
-0,280000	1,330000	0,070000	2020-10-29T19:04:36:444
-0,350000	1,330000	0,070000	2020-10-29T19:04:36:462
-0,560000	1,400000	0,070000	2020-10-29T19:04:36:485
-0,700000	1,260000	0,070000	2020-10-29T19:04:36:501
-0,630000	1,330000	0,070000	2020-10-29T19:04:36:525
-0,560000	1,190000	0,070000	2020-10-29T19:04:36:542
-0,700000	1,330000	0,070000	2020-10-29T19:04:36:565
-1,190000	1,190000	0,070000	2020-10-29T19:04:36:583
-0,420000	1,190000	0,070000	2020-10-29T19:04:36:605
-0,140000	1,190000	-0,070000	2020-10-29T19:04:36:622
-0,350000	1,260000	-0,280000	2020-10-29T19:04:36:645
-0,910000	1,400000	-0,280000	2020-10-29T19:04:36:662
-0,280000	1,330000	-0,070000	2020-10-29T19:04:36:686
-0,070000	1,260000	-0,140000	2020-10-29T19:04:36:702
-0,700000	1,330000	-0,140000	2020-10-29T19:04:36:725
-0,770000	1,400000	-0,070000	2020-10-29T19:04:36:742
-0,350000	1,330000	-0,210000	2020-10-29T19:04:36:767
-0,070000	1,330000	-0,280000	2020-10-29T19:04:36:783
-0,490000	1,400000	-0,280000	2020-10-29T19:04:36:804
-0,350000	1,470000	-0,210000	2020-10-29T19:04:36:823
-0,350000	1,400000	-0,210000	2020-10-29T19:04:36:845
-0,630000	1,330000	0,280000	2020-10-29T19:04:36:863
-1,120000	1,190000	0,280000	2020-10-29T19:04:36:885
-1,330000	1,260000	0,280000	2020-10-29T19:04:36:902
-0,560000	1,260000	0,210000	2020-10-29T19:04:36:926
-0,490000	1,330000	0,070000	2020-10-29T19:04:36:942
-0,840000	1,330000	-0,140000	2020-10-29T19:04:36:965
-0,700000	1,400000	-0,210000	2020-10-29T19:04:36:982
-0,700000	1,330000	-0,140000	2020-10-29T19:04:37:006
-0,350000	1,120000	-0,210000	2020-10-29T19:04:37:022
-0,210000	1,400000	-0,280000	2020-10-29T19:04:37:044
-0,700000	1,470000	-0,140000	2020-10-29T19:04:37:064
-0,910000	1,330000	-0,140000	2020-10-29T19:04:37:086
-0,420000	1,260000	-0,140000	2020-10-29T19:04:37:102
-0,560000	1,190000	0,070000	2020-10-29T19:04:37:125
-1,190000	1,400000	-0,070000	2020-10-29T19:04:37:142
-0,840000	1,190000	-0,070000	2020-10-29T19:04:37:166
-0,630000	1,400000	-0,140000	2020-10-29T19:04:37:182
-0,210000	1,540000	-0,280000	2020-10-29T19:04:37:205
-0,210000	1,400000	-0,210000	2020-10-29T19:04:37:222
-0,630000	1,260000	-0,140000	2020-10-29T19:04:37:246
-1,120000	1,330000	0,070000	2020-10-29T19:04:37:263
-0,350000	1,190000	-0,210000	2020-10-29T19:04:37:285
-0,280000	1,400000	-0,210000	2020-10-29T19:04:37:303
-0,140000	1,330000	-0,280000	2020-10-29T19:04:37:326
-0,490000	1,330000	-0,210000	2020-10-29T19:04:37:343
-0,420000	1,400000	-0,210000	2020-10-29T19:04:37:366
-0,630000	1,260000	-0,070000	2020-10-29T19:04:37:383
-0,630000	1,330000	-0,070000	2020-10-29T19:04:37:406
-0,630000	1,260000	-0,070000	2020-10-29T19:04:37:427
-0,700000	1,260000	-0,070000	2020-10-29T19:04:37:448
-0,070000	1,330000	-0,140000	2020-10-29T19:04:37:462
-0,700000	1,330000	-0,140000	2020-10-29T19:04:37:485
-0,980000	1,190000	-0,140000	2020-10-29T19:04:37:503
-1,120000	1,190000	-0,140000	2020-10-29T19:04:37:525
0,210000	1,190000	-0,210000	2020-10-29T19:04:37:544
0,070000	1,540000	0,070000	2020-10-29T19:04:37:570
-0,280000	1,400000	0,140000	2020-10-29T19:04:37:583
-0,980000	1,400000	0,070000	2020-10-29T19:04:37:605
-0,560000	1,190000	0,140000	2020-10-29T19:04:37:623
-0,280000	1,260000	0,140000	2020-10-29T19:04:37:646
-1,260000	1,190000	-0,140000	2020-10-29T19:04:37:663
-0,490000	1,260000	-0,210000	2020-10-29T19:04:37:685
-0,280000	1,330000	-0,350000	2020-10-29T19:04:37:703
-0,350000	1,470000	-0,280000	2020-10-29T19:04:37:727
-0,140000	1,400000	-0,280000	2020-10-29T19:04:37:743
-0,560000	1,330000	-0,140000	2020-10-29T19:04:37:766
-0,350000	1,260000	-0,070000	2020-10-29T19:04:37:784
-0,630000	1,190000	-0,140000	2020-10-29T19:04:37:806
-0,840000	1,330000	-0,140000	2020-10-29T19:04:37:823
-0,420000	1,400000	-0,280000	2020-10-29T19:04:37:846
-0,350000	1,330000	-0,280000	2020-10-29T19:04:37:863
-0,280000	1,330000	-0,280000	2020-10-29T19:04:37:887
-0,420000	1,400000	-0,280000	2020-10-29T19:04:37:903
-0,280000	1,330000	-0,210000	2020-10-29T19:04:37:925
-0,210000	1,400000	-0,070000	2020-10-29T19:04:37:943
-0,210000	1,330000	-0,070000	2020-10-29T19:04:37:967
-0,560000	1,400000	-0,140000	2020-10-29T19:04:37:984
-0,420000	1,260000	-0,210000	2020-10-29T19:04:38:005
-0,210000	1,330000	-0,210000	2020-10-29T19:04:38:024
-0,560000	1,330000	-0,210000	2020-10-29T19:04:38:047
-0,980000	1,190000	-0,070000	2020-10-29T19:04:38:063
-0,770000	1,260000	-0,070000	2020-10-29T19:04:38:087
-0,280000	1,330000	0,070000	2020-10-29T19:04:38:103
-0,210000	1,400000	-0,140000	2020-10-29T19:04:38:127
-0,700000	1,330000	-0,140000	2020-10-29T19:04:38:143
-1,190000	1,330000	-0,070000	2020-10-29T19:04:38:166
-0,490000	1,260000	-0,070000	2020-10-29T19:04:38:183
-0,490000	1,470000	-0,070000	2020-10-29T19:04:38:207
-0,490000	1,330000	-0,140000	2020-10-29T19:04:38:223
-0,700000	1,330000	-0,140000	2020-10-29T19:04:38:246
-1,190000	1,260000	-0,140000	2020-10-29T19:04:38:265
-1,400000	1,120000	-0,140000	2020-10-29T19:04:38:287
-2,310000	0,770000	-0,070000	2020-10-29T19:04:38:303
-4,270000	0,490000	-0,070000	2020-10-29T19:04:38:326
-4,480000	0,980000	-0,140000	2020-10-29T19:04:38:343
-0,840000	1,330000	-0,280000	2020-10-29T19:04:38:367
0,840000	1,050000	-0,140000	2020-10-29T19:04:38:384
0,280000	1,470000	-0,210000	2020-10-29T19:04:38:406
0,070000	1,400000	-0,070000	2020-10-29T19:04:38:423
-0,210000	1,330000	-0,070000	2020-10-29T19:04:38:447
-0,280000	1,190000	-0,070000	2020-10-29T19:04:38:464
-0,350000	1,610000	-0,070000	2020-10-29T19:04:38:486
0,420000	1,400000	-0,140000	2020-10-29T19:04:38:505
-0,070000	1,330000	-0,070000	2020-10-29T19:04:38:527
-0,490000	1,330000	-0,070000	2020-10-29T19:04:38:543
-1,120000	1,470000	-0,070000	2020-10-29T19:04:38:567
-0,490000	1,330000	-0,070000	2020-10-29T19:04:38:584
0,210000	1,260000	-0,140000	2020-10-29T19:04:38:607
-0,630000	1,330000	-0,210000	2020-10-29T19:04:38:624
-0,700000	1,330000	-0,140000	2020-10-29T19:04:38:646
-0,630000	1,260000	-0,070000	2020-10-29T19:04:38:664
-0,560000	1,190000	-0,070000	2020-10-29T19:04:38:688
-0,770000	1,260000	-0,070000	2020-10-29T19:04:38:704
-0,700000	1,260000	-0,210000	2020-10-29T19:04:38:726
-0,560000	1,330000	-0,070000	2020-10-29T19:04:38:745
-0,490000	1,260000	-0,210000	2020-10-29T19:04:38:768
-0,980000	1,260000	-0,140000	2020-10-29T19:04:38:784
-0,280000	1,400000	-0,140000	2020-10-29T19:04:38:806
-0,210000	1,260000	-0,140000	2020-10-29T19:04:38:824
-0,560000	1,260000	-0,140000	2020-10-29T19:04:38:848
-0,840000	1,260000	-0,070000	2020-10-29T19:04:38:865
-0,070000	1,330000	-0,280000	2020-10-29T19:04:38:888
-0,210000	1,330000	-0,280000	2020-10-29T19:04:38:904
-0,560000	1,260000	-0,350000	2020-10-29T19:04:38:927
-0,420000	1,470000	-0,350000	2020-10-29T19:04:38:944
-0,350000	1,330000	-0,210000	2020-10-29T19:04:38:967
-0,350000	1,260000	-0,210000	2020-10-29T19:04:38:986
-0,980000	1,400000	-0,070000	2020-10-29T19:04:39:008
-0,490000	1,260000	-0,070000	2020-10-29T19:04:39:024
-0,840000	1,260000	-0,070000	2020-10-29T19:04:39:046
-0,980000	1,330000	-0,070000	2020-10-29T19:04:39:064
-0,840000	1,330000	-0,070000	2020-10-29T19:04:39:088
-0,630000	1,260000	-0,070000	2020-10-29T19:04:39:104
-1,050000	1,400000	-0,140000	2020-10-29T19:04:39:127
-0,770000	1,540000	-0,070000	2020-10-29T19:04:39:144
-0,490000	1,680000	-0,070000	2020-10-29T19:04:39:168
-0,910000	1,470000	-0,140000	2020-10-29T19:04:39:184
-1,470000	1,400000	0,070000	2020-10-29T19:04:39:207
-0,700000	1,190000	0,070000	2020-10-29T19:04:39:226
-0,490000	1,190000	-0,070000	2020-10-29T19:04:39:248
-0,630000	1,260000	-0,140000	2020-10-29T19:04:39:264
-0,700000	1,330000	-0,210000	2020-10-29T19:04:39:287
-0,490000	1,260000	-0,210000	2020-10-29T19:04:39:305
-0,630000	1,260000	-0,140000	2020-10-29T19:04:39:328
-0,630000	1,260000	-0,070000	2020-10-29T19:04:39:344
-0,350000	1,330000	-0,210000	2020-10-29T19:04:39:367
-0,140000	1,260000	-0,140000	2020-10-29T19:04:39:384
-0,700000	1,190000	-0,070000	2020-10-29T19:04:39:408
-0,980000	1,190000	-0,140000	2020-10-29T19:04:39:425
-0,700000	1,190000	-0,140000	2020-10-29T19:04:39:447
-0,350000	1,400000	-0,210000	2020-10-29T19:04:39:466
-0,700000	1,330000	-0,210000	2020-10-29T19:04:39:488
-0,560000	1,330000	-0,140000	2020-10-29T19:04:39:504
-0,560000	1,190000	-0,070000	2020-10-29T19:04:39:530
-0,630000	1,400000	-0,070000	2020-10-29T19:04:39:544
-0,910000	1,190000	-0,070000	2020-10-29T19:04:39:568
-1,260000	1,260000	-0,070000	2020-10-29T19:04:39:585
-0,700000	1,330000	-0,070000	2020-10-29T19:04:39:607
-0,490000	1,330000	-0,070000	2020-10-29T19:04:39:624
-0,910000	1,260000	-0,070000	2020-10-29T19:04:39:648
-1,610000	1,260000	-0,070000	2020-10-29T19:04:39:665
-0,980000	1,260000	-0,070000	2020-10-29T19:04:39:687
-0,210000	1,260000	-0,070000	2020-10-29T19:04:39:706
-0,350000	1,120000	-0,070000	2020-10-29T19:04:39:728
-1,120000	1,400000	-0,070000	2020-10-29T19:04:39:745
-0,700000	1,260000	-0,140000	2020-10-29T19:04:39:769
-0,420000	1,190000	-0,140000	2020-10-29T19:04:39:785
-0,280000	1,330000	-0,070000	2020-10-29T19:04:39:808
-0,210000	1,330000	-0,280000	2020-10-29T19:04:39:825
-0,560000	1,330000	-0,280000	2020-10-29T19:04:39:847
-0,770000	1,330000	-0,140000	2020-10-29T19:04:39:865
-0,700000	1,260000	-0,070000	2020-10-29T19:04:39:889
-0,910000	1,330000	-0,210000	2020-10-29T19:04:39:905
-0,560000	1,260000	-0,070000	2020-10-29T19:04:39:927
-0,630000	1,330000	-0,070000	2020-10-29T19:04:39:946
-1,190000	1,260000	-0,070000	2020-10-29T19:04:39:971
-0,980000	1,190000	-0,070000	2020-10-29T19:04:39:985
-0,840000	1,260000	-0,070000	2020-10-29T19:04:40:007
-0,910000	1,260000	-0,070000	2020-10-29T19:04:40:025
-0,980000	1,400000	-0,140000	2020-10-29T19:04:40:056
-0,560000	1,330000	-0,140000	2020-10-29T19:04:40:066
-0,490000	1,260000	-0,140000	2020-10-29T19:04:40:088
-0,770000	1,260000	-0,140000	2020-10-29T19:04:40:105
-1,050000	1,330000	-0,140000	2020-10-29T19:04:40:130
-0,490000	1,260000	-0,070000	2020-10-29T19:04:40:145
-0,630000	1,260000	-0,070000	2020-10-29T19:04:40:169
-0,840000	1,400000	-0,140000	2020-10-29T19:04:40:187
-1,050000	1,190000	-0,140000	2020-10-29T19:04:40:211
-0,490000	1,260000	0,070000	2020-10-29T19:04:40:225
-0,140000	1,400000	-0,070000	2020-10-29T19:04:40:249
-0,560000	1,330000	-0,070000	2020-10-29T19:04:40:266
-0,560000	1,260000	-0,140000	2020-10-29T19:04:40:290
-0,770000	1,330000	-0,140000	2020-10-29T19:04:40:305
-0,630000	1,260000	-0,140000	2020-10-29T19:04:40:329
-0,700000	1,260000	-0,210000	2020-10-29T19:04:40:345
-0,210000	1,330000	-0,140000	2020-10-29T19:04:40:370
-0,490000	1,260000	-0,210000	2020-10-29T19:04:40:386
-0,700000	1,330000	-0,140000	2020-10-29T19:04:40:408
-0,630000	1,330000	-0,070000	2020-10-29T19:04:40:427
-0,700000	1,260000	-0,140000	2020-10-29T19:04:40:450
-1,120000	1,190000	-0,140000	2020-10-29T19:04:40:466
-0,770000	1,260000	-0,070000	2020-10-29T19:04:40:488
-0,700000	1,190000	-0,070000	2020-10-29T19:04:40:506
-0,910000	1,120000	-0,070000	2020-10-29T19:04:40:531
-0,910000	1,330000	-0,140000	2020-10-29T19:04:40:547
-0,560000	1,260000	-0,070000	2020-10-29T19:04:40:569
-0,560000	1,260000	-0,070000	2020-10-29T19:04:40:585
-0,560000	1,260000	-0,070000	2020-10-29T19:04:40:609
-0,350000	1,400000	-0,140000	2020-10-29T19:04:40:626
-0,700000	1,260000	-0,070000	2020-10-29T19:04:40:648
-0,910000	1,330000	-0,070000	2020-10-29T19:04:40:667
-0,700000	1,260000	-0,070000	2020-10-29T19:04:40:690
-0,210000	1,400000	-0,070000	2020-10-29T19:04:40:705
-0,560000	1,120000	-0,070000	2020-10-29T19:04:40:729
-0,840000	1,260000	-0,070000	2020-10-29T19:04:40:746
-0,700000	1,260000	-0,070000	2020-10-29T19:04:40:771
-0,770000	1,190000	-0,070000	2020-10-29T19:04:40:786
-0,630000	1,190000	-0,070000	2020-10-29T19:04:40:808
-0,490000	1,260000	-0,070000	2020-10-29T19:04:40:825
-0,560000	1,260000	-0,070000	2020-10-29T19:04:40:850
-0,910000	1,260000	-0,140000	2020-10-29T19:04:40:867
-0,560000	1,330000	-0,210000	2020-10-29T19:04:40:889
-1,050000	1,190000	-0,140000	2020-10-29T19:04:40:907
-0,840000	1,190000	-0,210000	2020-10-29T19:04:40:930
-0,560000	1,330000	-0,280000	2020-10-29T19:04:40:946
-0,350000	1,260000	-0,210000	2020-10-29T19:04:40:969
-0,490000	1,330000	-0,070000	2020-10-29T19:04:40:986
-0,630000	1,190000	-0,280000	2020-10-29T19:04:41:010
-1,890000	1,260000	-0,070000	2020-10-29T19:04:41:026
0,140000	1,260000	-0,140000	2020-10-29T19:04:41:049
-0,700000	1,190000	-0,070000	2020-10-29T19:04:41:066
-0,630000	1,260000	-0,070000	2020-10-29T19:04:41:090
-0,910000	1,260000	-0,070000	2020-10-29T19:04:41:107
-1,120000	1,260000	0,070000	2020-10-29T19:04:41:129
-0,490000	1,260000	0,070000	2020-10-29T19:04:41:147
-0,770000	1,190000	0,070000	2020-10-29T19:04:41:170
-0,910000	1,190000	0,070000	2020-10-29T19:04:41:187
-1,400000	1,190000	0,070000	2020-10-29T19:04:41:209
