x	y	z	ts
-3,990000	1,330000	-5,110000	2020-10-29T19:30:38:301
-3,990000	1,330000	-5,110000	2020-10-29T19:30:38:301
-16,590000	-32,619999	-21,000000	2020-10-29T19:30:38:301
-5,320000	3,430000	-35,770000	2020-10-29T19:30:38:302
-3,430000	6,160000	-35,349998	2020-10-29T19:30:38:302
-9,240000	6,650000	-41,020000	2020-10-29T19:30:38:316
-10,990000	6,510000	-44,869999	2020-10-29T19:30:38:356
-11,410000	8,470000	-53,619999	2020-10-29T19:30:38:360
-2,660000	11,970000	-62,650002	2020-10-29T19:30:38:376
5,460000	10,010000	-58,520000	2020-10-29T19:30:38:396
11,200000	12,810000	-65,309998	2020-10-29T19:30:38:415
14,350000	13,930000	-74,410004	2020-10-29T19:30:38:436
12,390000	14,770000	-78,400002	2020-10-29T19:30:38:455
9,450000	14,000000	-76,790001	2020-10-29T19:30:38:477
4,480000	14,910000	-73,080002	2020-10-29T19:30:38:496
13,510000	14,560000	-69,230003	2020-10-29T19:30:38:516
14,000000	14,490000	-67,830002	2020-10-29T19:30:38:536
14,420000	11,550000	-75,669998	2020-10-29T19:30:38:556
19,460001	8,470000	-80,570000	2020-10-29T19:30:38:576
10,640000	5,600000	-89,949997	2020-10-29T19:30:38:596
12,250000	2,240000	-90,160004	2020-10-29T19:30:38:615
20,790001	1,050000	-86,660004	2020-10-29T19:30:38:636
14,910000	0,560000	-81,760002	2020-10-29T19:30:38:656
2,030000	2,520000	-82,180000	2020-10-29T19:30:38:677
-14,420000	5,390000	-79,800003	2020-10-29T19:30:38:695
-21,070000	12,250000	-73,570000	2020-10-29T19:30:38:718
-26,530001	17,990000	-80,709999	2020-10-29T19:30:38:736
-7,490000	13,510000	-94,360001	2020-10-29T19:30:38:756
11,270000	17,150000	-98,559998	2020-10-29T19:30:38:776
21,070000	21,139999	-103,110001	2020-10-29T19:30:38:796
27,790001	19,460001	-108,360001	2020-10-29T19:30:38:816
31,150000	21,490000	-105,209999	2020-10-29T19:30:38:837
12,880000	48,090000	-87,570000	2020-10-29T19:30:38:856
-10,850000	43,470001	-126,980003	2020-10-29T19:30:38:876
-26,180000	30,870001	-148,119995	2020-10-29T19:30:38:896
-47,529999	44,450001	-173,529999	2020-10-29T19:30:38:918
-76,019997	50,540001	-201,039993	2020-10-29T19:30:38:936
-112,699997	54,740002	-230,160004	2020-10-29T19:30:38:957
-150,710007	58,660000	-256,410004	2020-10-29T19:30:38:976
-179,970001	55,090000	-279,160004	2020-10-29T19:30:38:996
-189,210007	49,139999	-284,899994	2020-10-29T19:30:39:016
-158,830002	34,930000	-282,660004	2020-10-29T19:30:39:037
-123,129997	15,190001	-289,799988	2020-10-29T19:30:39:056
-135,309998	-1,750000	-300,649994	2020-10-29T19:30:39:077
-165,270004	-11,410000	-312,829987	2020-10-29T19:30:39:096
-199,360001	-16,799999	-325,429993	2020-10-29T19:30:39:121
-228,479996	-13,860000	-331,589996	2020-10-29T19:30:39:157
-248,290009	-8,470000	-339,079987	2020-10-29T19:30:39:158
-260,049988	9,520000	-346,010010	2020-10-29T19:30:39:185
-279,860016	25,620001	-343,000000	2020-10-29T19:30:39:200
-296,239990	29,750000	-345,100006	2020-10-29T19:30:39:232
-296,730011	31,290001	-329,839996	2020-10-29T19:30:39:258
-295,399994	42,700001	-311,500000	2020-10-29T19:30:39:260
-269,779999	60,830002	-286,720001	2020-10-29T19:30:39:277
-234,570007	68,529999	-270,480011	2020-10-29T19:30:39:296
-181,649994	60,200001	-247,660004	2020-10-29T19:30:39:317
-127,540001	44,099998	-229,809998	2020-10-29T19:30:39:336
-106,540001	35,209999	-211,470001	2020-10-29T19:30:39:358
-89,180000	26,600000	-190,050003	2020-10-29T19:30:39:377
-99,190002	23,240000	-169,610001	2020-10-29T19:30:39:398
-123,129997	24,010000	-148,470001	2020-10-29T19:30:39:418
-187,110001	25,059999	-121,029999	2020-10-29T19:30:39:438
-227,430008	26,250000	-102,760002	2020-10-29T19:30:39:456
-263,619995	23,309999	-86,169998	2020-10-29T19:30:39:479
-282,660004	15,680000	-73,989998	2020-10-29T19:30:39:497
-297,360016	6,160000	-62,020000	2020-10-29T19:30:39:519
-300,860016	5,040000	-57,260002	2020-10-29T19:30:39:536
-304,640015	7,700000	-51,240002	2020-10-29T19:30:39:558
-301,700012	5,880000	-48,160000	2020-10-29T19:30:39:577
-258,230011	-5,460000	-42,910000	2020-10-29T19:30:39:598
-214,059998	-16,660000	-30,240000	2020-10-29T19:30:39:617
-157,850006	-16,030001	-21,280001	2020-10-29T19:30:39:639
-121,239998	-14,980000	-16,030001	2020-10-29T19:30:39:656
-97,090004	-15,750000	-14,420000	2020-10-29T19:30:39:687
-64,750000	-16,730000	-11,620000	2020-10-29T19:30:39:696
-22,889999	-21,559999	-4,550000	2020-10-29T19:30:39:726
11,410000	-28,840000	1,540000	2020-10-29T19:30:39:736
50,820000	-29,049999	3,150000	2020-10-29T19:30:39:760
85,330002	-28,210001	5,040000	2020-10-29T19:30:39:777
113,889999	-27,719999	7,840000	2020-10-29T19:30:39:798
127,540001	-20,160000	9,030000	2020-10-29T19:30:39:818
119,279999	-12,740000	11,620000	2020-10-29T19:30:39:840
105,910004	-1,540000	16,660000	2020-10-29T19:30:39:858
83,300003	9,730000	16,799999	2020-10-29T19:30:39:881
57,610001	21,770000	17,080000	2020-10-29T19:30:39:899
60,760002	15,260000	23,520000	2020-10-29T19:30:39:921
97,160004	14,140000	20,650000	2020-10-29T19:30:39:939
122,570000	16,590000	23,799999	2020-10-29T19:30:39:961
114,730003	27,020000	29,330000	2020-10-29T19:30:39:979
80,919998	25,760000	37,730000	2020-10-29T19:30:40:001
18,129999	22,260000	47,389999	2020-10-29T19:30:40:019
-35,070000	15,330000	58,029999	2020-10-29T19:30:40:041
95,900002	-18,059999	58,520000	2020-10-29T19:30:50:130
76,090004	-12,740000	60,480000	2020-10-29T19:30:50:131
59,220001	-7,700000	63,770000	2020-10-29T19:30:50:132
41,509998	-1,260000	67,269997	2020-10-29T19:30:50:132
21,770000	5,040000	72,590004	2020-10-29T19:30:50:160
8,960000	9,660000	76,580002	2020-10-29T19:30:50:168
2,940000	16,590000	81,550003	2020-10-29T19:30:50:183
5,180000	25,200001	86,169998	2020-10-29T19:30:50:205
5,530000	37,029999	87,430000	2020-10-29T19:30:50:223
-5,180000	44,939999	82,389999	2020-10-29T19:30:50:247
-24,430000	49,560001	74,199997	2020-10-29T19:30:50:263
-35,420002	51,380001	66,570000	2020-10-29T19:30:50:288
-30,730000	52,639999	61,529999	2020-10-29T19:30:50:305
-28,139999	54,599998	57,119999	2020-10-29T19:30:50:327
-28,630001	58,099998	51,660000	2020-10-29T19:30:50:343
-33,040001	59,990002	43,959999	2020-10-29T19:30:50:367
-35,490002	61,040001	35,700001	2020-10-29T19:30:50:383
-34,720001	59,150002	28,910000	2020-10-29T19:30:50:407
-34,720001	55,230000	22,190001	2020-10-29T19:30:50:424
-33,250000	51,450001	14,910000	2020-10-29T19:30:50:447
-31,150000	48,020000	6,580000	2020-10-29T19:30:50:463
-31,920000	44,450001	-3,220000	2020-10-29T19:30:50:488
-32,270000	42,070000	-14,700000	2020-10-29T19:30:50:504
-29,049999	40,320000	-27,930000	2020-10-29T19:30:50:526
-22,260000	38,779999	-40,740002	2020-10-29T19:30:50:547
-12,320000	38,639999	-54,599998	2020-10-29T19:30:50:568
-7,210000	41,230000	-68,599998	2020-10-29T19:30:50:584
-4,690000	42,139999	-81,199997	2020-10-29T19:30:50:608
-4,480000	42,980000	-91,489998	2020-10-29T19:30:50:624
-8,610000	39,549999	-103,879997	2020-10-29T19:30:50:648
-17,150000	34,230000	-122,430000	2020-10-29T19:30:50:664
-24,920000	43,540001	-135,729996	2020-10-29T19:30:50:688
-30,590000	48,860001	-145,460007	2020-10-29T19:30:50:704
-47,110001	52,360001	-148,050003	2020-10-29T19:30:50:728
-69,230003	51,099998	-139,649994	2020-10-29T19:30:50:744
-83,650002	42,910000	-124,180000	2020-10-29T19:30:50:767
-81,340004	31,219999	-108,080002	2020-10-29T19:30:50:784
-62,230000	17,639999	-93,940002	2020-10-29T19:30:50:808
-32,410000	5,250000	-81,690002	2020-10-29T19:30:50:824
-2,800000	-1,400000	-72,029999	2020-10-29T19:30:50:848
15,260000	-3,290000	-63,700001	2020-10-29T19:30:50:864
-4,200000	1,050000	-57,680000	2020-10-29T19:30:50:888
-57,959999	23,799999	-52,360001	2020-10-29T19:30:50:904
-123,550003	41,090000	-49,700001	2020-10-29T19:30:50:927
-185,220001	54,950001	-49,420002	2020-10-29T19:30:50:944
-228,759995	61,950001	-46,759998	2020-10-29T19:30:50:968
-243,669998	63,490002	-40,180000	2020-10-29T19:30:50:984
-222,600006	54,320000	-35,279999	2020-10-29T19:30:51:007
-185,149994	43,820000	-31,990000	2020-10-29T19:30:51:024
-150,220001	34,439999	-29,190001	2020-10-29T19:30:51:047
-120,889999	26,880001	-29,540001	2020-10-29T19:30:51:064
-102,410004	21,559999	-32,340000	2020-10-29T19:30:51:088
-93,169998	15,820000	-33,529999	2020-10-29T19:30:51:104
-86,379997	16,030001	-34,439999	2020-10-29T19:30:51:128
-82,389999	14,980000	-32,340000	2020-10-29T19:30:51:144
-79,379997	13,860000	-29,330000	2020-10-29T19:30:51:167
-74,550003	12,180000	-25,270000	2020-10-29T19:30:51:184
-69,930000	15,680000	-16,660000	2020-10-29T19:30:51:208
-75,599998	24,080000	-10,500000	2020-10-29T19:30:51:224
-84,559998	25,760000	-7,490000	2020-10-29T19:30:51:247
-101,220001	31,990000	-7,350000	2020-10-29T19:30:51:265
-106,470001	33,040001	-4,830000	2020-10-29T19:30:51:288
-104,930000	36,189999	-2,730000	2020-10-29T19:30:51:304
-92,820000	36,750000	-0,280000	2020-10-29T19:30:51:329
-73,290001	35,209999	-0,770000	2020-10-29T19:30:51:344
-46,060001	31,290001	-1,820000	2020-10-29T19:30:51:368
-24,639999	28,210001	-4,690000	2020-10-29T19:30:51:385
-9,870000	21,420000	-8,190000	2020-10-29T19:30:51:407
-3,290000	16,309999	-12,320000	2020-10-29T19:30:51:424
-2,730000	9,660000	-19,110001	2020-10-29T19:30:51:448
5,530000	5,530000	-27,370001	2020-10-29T19:30:51:465
24,500000	-3,640000	-36,400002	2020-10-29T19:30:51:488
44,450001	-14,490000	-41,369999	2020-10-29T19:30:51:505
62,230000	-17,570000	-46,270000	2020-10-29T19:30:51:529
73,779999	-19,809999	-35,070000	2020-10-29T19:30:51:545
105,489998	-27,299999	-22,960001	2020-10-29T19:30:51:569
111,930000	-32,619999	-17,850000	2020-10-29T19:30:51:585
99,050003	-34,090000	-14,770000	2020-10-29T19:30:51:608
85,540001	-30,940001	-11,060000	2020-10-29T19:30:51:624
80,010002	-24,570000	-9,590000	2020-10-29T19:30:51:648
69,300003	-16,870001	-8,050000	2020-10-29T19:30:51:665
55,160000	-10,990000	-7,210000	2020-10-29T19:30:51:689
45,639999	-4,550000	-4,900000	2020-10-29T19:30:51:705
47,389999	-5,180000	0,560000	2020-10-29T19:30:51:728
55,439999	-8,750000	2,870000	2020-10-29T19:30:51:745
51,240002	-9,100000	7,700000	2020-10-29T19:30:51:768
46,130001	-13,020000	14,350000	2020-10-29T19:30:51:785
62,439999	-19,670000	24,570000	2020-10-29T19:30:51:808
91,910004	-25,200001	33,599998	2020-10-29T19:30:51:824
113,190002	-23,940001	37,380001	2020-10-29T19:30:51:848
115,989998	-14,980000	35,840000	2020-10-29T19:30:51:865
101,360001	-1,540000	31,430000	2020-10-29T19:30:51:888
78,540001	10,010000	25,129999	2020-10-29T19:30:51:905
55,510002	18,480000	19,809999	2020-10-29T19:30:51:929
31,430000	28,559999	18,690001	2020-10-29T19:30:51:945
8,400000	37,099998	25,270000	2020-10-29T19:30:51:968
-21,840000	41,790001	32,270000	2020-10-29T19:30:51:986
-36,820000	40,670002	39,549999	2020-10-29T19:30:52:009
-36,259998	34,439999	48,439999	2020-10-29T19:30:52:025
-30,450001	29,120001	56,980000	2020-10-29T19:30:52:048
-13,720000	20,650000	63,630001	2020-10-29T19:30:52:065
9,240000	12,530000	67,410004	2020-10-29T19:30:52:089
26,880001	4,900000	68,040001	2020-10-29T19:30:52:105
39,130001	-0,420000	65,870003	2020-10-29T19:30:52:128
49,349998	-3,780000	61,180000	2020-10-29T19:30:52:145
55,580002	-5,320000	55,369999	2020-10-29T19:30:52:170
56,630001	-8,820000	45,990002	2020-10-29T19:30:52:186
59,779999	-19,250000	28,910000	2020-10-29T19:30:52:209
72,519997	-19,530001	13,860000	2020-10-29T19:30:52:225
94,290001	-15,890000	11,690000	2020-10-29T19:30:52:249
106,820000	-17,780001	10,010000	2020-10-29T19:30:52:265
92,050003	-16,799999	9,940000	2020-10-29T19:30:52:291
65,449997	-16,309999	11,270000	2020-10-29T19:30:52:305
52,500000	-20,230000	10,570000	2020-10-29T19:30:52:329
53,270000	-23,030001	7,840000	2020-10-29T19:30:52:345
65,029999	-21,770000	1,960000	2020-10-29T19:30:52:368
76,370003	-16,660000	-3,430000	2020-10-29T19:30:52:385
79,449997	-11,270000	-7,280000	2020-10-29T19:30:52:408
71,470001	-4,200000	-7,910000	2020-10-29T19:30:52:425
54,389999	0,980000	-9,310000	2020-10-29T19:30:52:448
30,940001	4,620000	-11,830000	2020-10-29T19:30:52:466
9,590000	7,210000	-15,120000	2020-10-29T19:30:52:491
-2,100000	6,300000	-16,590000	2020-10-29T19:30:52:505
1,120000	1,820000	-17,500000	2020-10-29T19:30:52:531
23,450001	-7,000000	-16,240000	2020-10-29T19:30:52:545
54,110001	-17,219999	-10,360000	2020-10-29T19:30:52:571
91,279999	-27,790001	-3,080000	2020-10-29T19:30:52:586
116,059998	-34,020000	2,590000	2020-10-29T19:30:52:610
125,020004	-34,509998	8,260000	2020-10-29T19:30:52:625
125,090004	-32,549999	13,300000	2020-10-29T19:30:52:651
120,540001	-28,840000	18,760000	2020-10-29T19:30:52:667
115,570000	-24,920000	24,290001	2020-10-29T19:30:52:689
105,629997	-21,559999	30,170000	2020-10-29T19:30:52:706
88,900002	-19,389999	35,630001	2020-10-29T19:30:52:730
71,120003	-18,059999	38,849998	2020-10-29T19:30:52:745
61,740002	-16,940001	42,420002	2020-10-29T19:30:52:770
59,639999	-15,120000	46,270000	2020-10-29T19:30:52:786
63,279999	-14,980000	50,330002	2020-10-29T19:30:52:810
66,150002	-15,890000	54,180000	2020-10-29T19:30:52:826
67,970001	-18,340000	57,260002	2020-10-29T19:30:52:850
70,279999	-20,370001	60,270000	2020-10-29T19:30:52:866
72,099998	-22,049999	62,720001	2020-10-29T19:30:52:890
73,080002	-23,940001	64,610001	2020-10-29T19:30:52:906
73,779999	-26,180000	66,639999	2020-10-29T19:30:52:929
74,340004	-29,750000	69,580002	2020-10-29T19:30:52:946
75,320000	-33,389999	72,660004	2020-10-29T19:30:52:970
78,120003	-38,990002	75,320000	2020-10-29T19:30:52:986
85,400002	-43,400002	77,419998	2020-10-29T19:30:53:010
93,730003	-45,709999	80,500000	2020-10-29T19:30:53:026
99,610001	-48,299999	83,440002	2020-10-29T19:30:53:049
111,860001	-66,639999	74,199997	2020-10-29T19:30:53:066
125,860001	-69,440002	58,939999	2020-10-29T19:30:53:090
135,729996	-52,430000	49,139999	2020-10-29T19:30:53:106
132,300003	-39,619999	42,840000	2020-10-29T19:30:53:130
111,930000	-35,560001	35,980000	2020-10-29T19:30:53:145
93,169998	-36,959999	33,110001	2020-10-29T19:30:53:170
86,730003	-40,810001	28,139999	2020-10-29T19:30:53:187
84,419998	-41,230000	18,340000	2020-10-29T19:30:53:210
80,150002	-35,000000	8,120000	2020-10-29T19:30:53:226
69,440002	-25,900000	-0,420000	2020-10-29T19:30:53:251
58,170002	-21,210001	-3,850000	2020-10-29T19:30:53:266
51,029999	-23,450001	-3,150000	2020-10-29T19:30:53:290
49,139999	-25,830000	2,520000	2020-10-29T19:30:53:306
53,270000	-30,730000	11,830000	2020-10-29T19:30:53:330
56,490002	-35,139999	20,650000	2020-10-29T19:30:53:347
60,689999	-39,480000	27,860001	2020-10-29T19:30:53:370
70,070000	-43,540001	32,060001	2020-10-29T19:30:53:386
82,879997	-45,570000	34,720001	2020-10-29T19:30:53:410
93,940002	-46,410000	34,580002	2020-10-29T19:30:53:426
96,529999	-45,080002	32,270000	2020-10-29T19:30:53:451
92,260002	-44,099998	28,420000	2020-10-29T19:30:53:467
84,910004	-41,720001	23,870001	2020-10-29T19:30:53:491
73,849998	-38,220001	20,440001	2020-10-29T19:30:53:506
62,510002	-35,770000	18,969999	2020-10-29T19:30:53:531
55,090000	-34,439999	20,860001	2020-10-29T19:30:53:546
53,410000	-34,790001	24,430000	2020-10-29T19:30:53:570
54,599998	-35,349998	29,889999	2020-10-29T19:30:53:587
56,279999	-34,580002	36,259998	2020-10-29T19:30:53:611
59,360001	-33,740002	42,420002	2020-10-29T19:30:53:626
61,180000	-33,459999	47,810001	2020-10-29T19:30:53:650
60,689999	-33,459999	51,029999	2020-10-29T19:30:53:667
58,450001	-31,010000	52,570000	2020-10-29T19:30:53:691
53,619999	-27,090000	53,619999	2020-10-29T19:30:53:706
47,180000	-24,080000	53,340000	2020-10-29T19:30:53:731
42,000000	-22,400000	51,450001	2020-10-29T19:30:53:746
45,779999	-21,490000	49,630001	2020-10-29T19:30:53:771
52,639999	-20,650000	48,650002	2020-10-29T19:30:53:787
58,939999	-16,240000	48,369999	2020-10-29T19:30:53:810
62,439999	-14,420000	48,090000	2020-10-29T19:30:53:826
65,379997	-13,650000	47,810001	2020-10-29T19:30:53:851
74,269997	-11,900000	47,250000	2020-10-29T19:30:53:867
80,080002	-14,910000	45,360001	2020-10-29T19:30:53:891
81,269997	-2,450000	50,680000	2020-10-29T19:30:53:907
80,779999	8,960000	51,939999	2020-10-29T19:30:53:931
73,080002	13,930000	58,520000	2020-10-29T19:30:53:947
65,309998	18,760000	57,820000	2020-10-29T19:30:53:971
56,560001	18,969999	55,230000	2020-10-29T19:30:53:987
57,330002	25,480000	59,360001	2020-10-29T19:30:54:010
59,849998	37,240002	64,889999	2020-10-29T19:30:54:027
47,810001	46,480000	68,040001	2020-10-29T19:30:54:050
38,430000	52,639999	71,889999	2020-10-29T19:30:54:067
53,830002	60,200001	77,769997	2020-10-29T19:30:54:091
87,779999	70,559998	102,550003	2020-10-29T19:30:54:107
135,520004	72,590004	116,410004	2020-10-29T19:30:54:130
161,699997	79,800003	114,309998	2020-10-29T19:30:54:147
125,720001	90,650002	101,220001	2020-10-29T19:30:54:171
81,129997	98,769997	85,260002	2020-10-29T19:30:54:188
43,750000	102,900002	72,239998	2020-10-29T19:30:54:211
-26,880001	121,029999	33,389999	2020-10-29T19:30:54:227
-115,360001	133,350006	-2,870000	2020-10-29T19:30:54:251
-161,210007	130,130005	6,440000	2020-10-29T19:30:54:267
-157,850006	128,449997	22,750000	2020-10-29T19:30:54:291
-121,309998	136,570007	46,900002	2020-10-29T19:30:54:307
-76,300003	129,570007	65,730003	2020-10-29T19:30:54:332
-28,210001	108,080002	70,699997	2020-10-29T19:30:54:347
13,300000	86,800003	61,389999	2020-10-29T19:30:54:370
36,610001	70,000000	44,099998	2020-10-29T19:30:54:388
43,119999	58,450001	26,600000	2020-10-29T19:30:54:411
39,970001	46,549999	9,940000	2020-10-29T19:30:54:427
37,380001	36,470001	-7,700000	2020-10-29T19:30:54:451
38,709999	28,559999	-24,920000	2020-10-29T19:30:54:467
43,540001	22,330000	-32,900002	2020-10-29T19:30:54:491
61,599998	17,219999	-32,130001	2020-10-29T19:30:54:507
97,370003	6,790000	-21,770000	2020-10-29T19:30:54:530
125,300003	-10,990000	-14,980000	2020-10-29T19:30:54:547
134,050003	-30,240000	-14,140000	2020-10-29T19:30:54:571
115,919998	-36,889999	-26,180000	2020-10-29T19:30:54:588
70,980003	-34,020000	-32,970001	2020-10-29T19:30:54:610
40,320000	-25,129999	-34,720001	2020-10-29T19:30:54:628
20,860001	-13,440001	-39,060001	2020-10-29T19:30:54:651
-4,340000	0,140000	-39,549999	2020-10-29T19:30:54:668
-14,280000	14,770000	-33,670002	2020-10-29T19:30:54:692
-5,320000	25,549999	-25,549999	2020-10-29T19:30:54:707
11,480000	23,170000	-24,990000	2020-10-29T19:30:54:731
27,299999	14,000000	-21,840000	2020-10-29T19:30:54:748
3,220000	24,850000	-24,080000	2020-10-29T19:30:54:771
-37,170002	38,990002	-18,830000	2020-10-29T19:30:54:788
-46,689999	44,170002	-10,850000	2020-10-29T19:30:54:812
-42,770000	46,619999	-9,310000	2020-10-29T19:30:54:828
-42,139999	50,189999	-3,150000	2020-10-29T19:30:54:850
-28,210001	49,209999	2,450000	2020-10-29T19:30:54:868
-11,480000	42,840000	5,110000	2020-10-29T19:30:54:892
-4,130000	35,209999	5,810000	2020-10-29T19:30:54:907
0,980000	28,420000	1,890000	2020-10-29T19:30:54:932
-2,730000	24,150000	-2,380000	2020-10-29T19:30:54:948
-8,890000	22,610001	-3,780000	2020-10-29T19:30:54:971
-7,490000	21,210001	-3,290000	2020-10-29T19:30:54:989
-6,580000	20,580000	-1,470000	2020-10-29T19:30:55:010
-10,430000	20,860001	0,560000	2020-10-29T19:30:55:028
-16,660000	21,490000	1,260000	2020-10-29T19:30:55:052
-24,639999	21,559999	3,080000	2020-10-29T19:30:55:069
-28,070000	20,790001	5,390000	2020-10-29T19:30:55:093
-15,540000	17,219999	7,840000	2020-10-29T19:30:55:108
2,450000	11,270000	10,080000	2020-10-29T19:30:55:135
14,630000	5,530000	11,970000	2020-10-29T19:30:55:148
25,340000	1,050000	12,880000	2020-10-29T19:30:55:172
22,960001	0,840000	13,930000	2020-10-29T19:30:55:188
14,000000	2,940000	13,230000	2020-10-29T19:30:55:211
14,350000	3,500000	12,460000	2020-10-29T19:30:55:228
16,940001	3,290000	11,690000	2020-10-29T19:30:55:251
5,110000	4,620000	11,270000	2020-10-29T19:30:55:268
-0,420000	6,720000	9,100000	2020-10-29T19:30:55:292
-0,070000	7,350000	9,870000	2020-10-29T19:30:55:308
-3,920000	7,560000	8,470000	2020-10-29T19:30:55:331
-9,660000	7,770000	7,070000	2020-10-29T19:30:55:348
-9,800000	6,230000	7,000000	2020-10-29T19:30:55:372
-4,130000	2,240000	6,510000	2020-10-29T19:30:55:388
1,680000	-1,820000	5,110000	2020-10-29T19:30:55:412
5,670000	-4,830000	5,110000	2020-10-29T19:30:55:428
8,050000	-4,620000	8,120000	2020-10-29T19:30:55:452
7,070000	-3,920000	10,500000	2020-10-29T19:30:55:468
8,960000	-2,870000	13,440001	2020-10-29T19:30:55:491
11,060000	-0,980000	14,910000	2020-10-29T19:30:55:508
6,160000	1,890000	14,770000	2020-10-29T19:30:55:531
-2,730000	5,740000	13,720000	2020-10-29T19:30:55:548
-11,060000	8,610000	13,440001	2020-10-29T19:30:55:572
-13,930000	9,240000	13,370000	2020-10-29T19:30:55:588
-11,620000	9,240000	12,880000	2020-10-29T19:30:55:612
-6,860000	9,100000	11,690000	2020-10-29T19:30:55:628
-6,370000	9,030000	9,030000	2020-10-29T19:30:55:652
-9,730000	10,500000	8,610000	2020-10-29T19:30:55:669
-12,390000	11,270000	8,540000	2020-10-29T19:30:55:692
-15,960000	11,550000	11,060000	2020-10-29T19:30:55:708
-21,700001	11,830000	14,560000	2020-10-29T19:30:55:730
-32,619999	16,240000	20,650000	2020-10-29T19:30:55:748
-44,029999	16,030001	21,280001	2020-10-29T19:30:55:772
-54,250000	16,030001	23,450001	2020-10-29T19:30:55:789
-54,250000	13,370000	24,500000	2020-10-29T19:30:55:810
-40,810001	13,090000	22,540001	2020-10-29T19:30:55:829
-27,510000	13,860000	18,200001	2020-10-29T19:30:55:852
-23,379999	15,400000	12,670000	2020-10-29T19:30:55:869
-28,980000	18,830000	7,910000	2020-10-29T19:30:55:891
-39,830002	22,750000	5,250000	2020-10-29T19:30:55:910
-46,830002	26,460001	4,340000	2020-10-29T19:30:55:932
-47,880001	28,210001	3,080000	2020-10-29T19:30:55:949
-44,520000	28,630001	3,220000	2020-10-29T19:30:55:972
-39,410000	27,580000	5,320000	2020-10-29T19:30:55:989
-38,290001	25,900000	8,190000	2020-10-29T19:30:56:013
-44,799999	24,850000	9,590000	2020-10-29T19:30:56:028
-55,650002	24,850000	11,410000	2020-10-29T19:30:56:051
-64,540001	27,510000	15,820000	2020-10-29T19:30:56:069
-63,560001	27,090000	20,299999	2020-10-29T19:30:56:092
-50,750000	20,160000	22,260000	2020-10-29T19:30:56:108
-44,730000	12,530000	21,629999	2020-10-29T19:30:56:132
-44,869999	11,060000	20,650000	2020-10-29T19:30:56:149
-44,170002	9,030000	17,990000	2020-10-29T19:30:56:172
-45,990002	6,650000	13,230000	2020-10-29T19:30:56:189
-49,770000	5,950000	5,880000	2020-10-29T19:30:56:212
-52,430000	5,740000	-2,800000	2020-10-29T19:30:56:229
-54,389999	3,010000	-11,200000	2020-10-29T19:30:56:253
-54,950001	4,550000	-6,230000	2020-10-29T19:30:56:269
-46,619999	4,130000	-3,360000	2020-10-29T19:30:56:292
-48,720001	3,010000	-2,240000	2020-10-29T19:30:56:309
-35,139999	-0,700000	-2,520000	2020-10-29T19:30:56:333
-24,219999	-5,320000	-9,240000	2020-10-29T19:30:56:349
-9,030000	-13,790000	-28,070000	2020-10-29T19:30:56:373
-6,580000	-23,520000	-39,410000	2020-10-29T19:30:56:389
-14,070000	-34,369999	-47,250000	2020-10-29T19:30:56:413
-38,150002	-44,029999	-54,389999	2020-10-29T19:30:56:429
-59,010002	-52,779999	-57,959999	2020-10-29T19:30:56:452
-80,919998	-59,920002	-53,549999	2020-10-29T19:30:56:469
-98,349998	-68,459999	-46,130001	2020-10-29T19:30:56:493
-112,629997	-75,110001	-48,790001	2020-10-29T19:30:56:509
-119,419998	-73,779999	-63,000000	2020-10-29T19:30:56:532
-97,370003	-70,559998	-76,930000	2020-10-29T19:30:56:549
-45,150002	-69,440002	-87,849998	2020-10-29T19:30:56:573
9,660000	-70,840004	-98,840004	2020-10-29T19:30:56:589
38,360001	-71,190002	-103,669998	2020-10-29T19:30:56:613
39,900002	-71,120003	-106,330002	2020-10-29T19:30:56:629
41,580002	-75,110001	-107,800003	2020-10-29T19:30:56:653
53,760002	-83,230003	-106,470001	2020-10-29T19:30:56:669
59,570000	-95,900002	-101,989998	2020-10-29T19:30:56:692
53,270000	-105,419998	-98,699997	2020-10-29T19:30:56:709
43,820000	-110,459999	-94,360001	2020-10-29T19:30:56:736
43,400002	-115,989998	-92,540001	2020-10-29T19:30:56:751
47,670002	-126,419998	-90,930000	2020-10-29T19:30:56:773
42,910000	-134,889999	-94,500000	2020-10-29T19:30:56:790
23,870001	-141,119995	-103,739998	2020-10-29T19:30:56:813
40,389999	-149,240005	-115,080002	2020-10-29T19:30:56:829
109,970001	-153,300003	-146,089996	2020-10-29T19:30:56:853
112,139999	-147,070007	-159,600006	2020-10-29T19:30:56:870
59,709999	-135,940002	-155,119995	2020-10-29T19:30:56:893
20,160000	-126,489998	-152,669998	2020-10-29T19:30:56:910
21,210001	-121,730003	-153,369995	2020-10-29T19:30:56:932
40,740002	-123,690002	-156,800003	2020-10-29T19:30:56:949
77,840004	-126,000000	-152,460007	2020-10-29T19:30:56:973
97,720001	-103,180000	-134,610001	2020-10-29T19:30:56:990
88,340004	-76,510002	-96,949997	2020-10-29T19:30:57:012
101,360001	-61,250000	-53,760002	2020-10-29T19:30:57:030
120,050003	-45,639999	-21,280001	2020-10-29T19:30:57:053
105,279999	-26,880001	7,980000	2020-10-29T19:30:57:070
45,570000	-10,990000	23,799999	2020-10-29T19:30:57:094
7,910000	4,900000	30,590000	2020-10-29T19:30:57:110
-10,640000	2,590000	40,040001	2020-10-29T19:30:57:133
-22,540001	15,050000	37,520000	2020-10-29T19:30:57:150
-15,260000	14,070000	48,299999	2020-10-29T19:30:57:173
-4,270000	12,950000	45,430000	2020-10-29T19:30:57:190
0,420000	9,240000	44,869999	2020-10-29T19:30:57:213
3,360000	8,540000	45,150002	2020-10-29T19:30:57:230
21,980000	8,890000	45,290001	2020-10-29T19:30:57:253
50,959999	3,080000	43,119999	2020-10-29T19:30:57:270
74,690002	-2,100000	36,889999	2020-10-29T19:30:57:294
88,620003	-5,670000	31,639999	2020-10-29T19:30:57:311
99,610001	-5,670000	26,180000	2020-10-29T19:30:57:334
103,599998	0,420000	22,330000	2020-10-29T19:30:57:350
85,889999	-6,440000	17,710001	2020-10-29T19:30:57:374
54,599998	3,920000	-0,210000	2020-10-29T19:30:57:391
-24,150000	-3,640000	-39,410000	2020-10-29T19:30:57:413
-88,480003	4,060000	-56,770000	2020-10-29T19:30:57:429
-127,680000	10,710000	-62,930000	2020-10-29T19:30:57:453
-119,980003	7,560000	-64,820000	2020-10-29T19:30:57:470
-85,959999	2,240000	-60,060001	2020-10-29T19:30:57:493
-39,900002	-4,900000	-52,500000	2020-10-29T19:30:57:510
2,730000	-14,280000	-45,220001	2020-10-29T19:30:57:534
42,910000	-23,799999	-40,320000	2020-10-29T19:30:57:550
73,919998	-30,660000	-38,009998	2020-10-29T19:30:57:573
89,040001	-34,020000	-34,930000	2020-10-29T19:30:57:590
89,809998	-38,849998	-34,020000	2020-10-29T19:30:57:614
74,199997	-38,430000	-32,689999	2020-10-29T19:30:57:630
48,439999	-33,040001	-34,650002	2020-10-29T19:30:57:653
27,719999	-29,260000	-35,139999	2020-10-29T19:30:57:670
10,220000	-26,110001	-38,080002	2020-10-29T19:30:57:694
-1,330000	-23,240000	-38,920002	2020-10-29T19:30:57:710
-7,490000	-16,450001	-36,889999	2020-10-29T19:30:57:733
-11,200000	-11,270000	-35,420002	2020-10-29T19:30:57:750
-18,830000	-8,190000	-33,529999	2020-10-29T19:30:57:774
-26,389999	-1,680000	-33,040001	2020-10-29T19:30:57:790
-37,730000	3,290000	-29,889999	2020-10-29T19:30:57:813
-49,349998	7,770000	-26,040001	2020-10-29T19:30:57:830
-59,990002	10,570000	-23,799999	2020-10-29T19:30:57:853
-69,650002	9,940000	-25,549999	2020-10-29T19:30:57:871
-75,040001	11,970000	-28,490000	2020-10-29T19:30:57:893
-70,489998	14,490000	-30,240000	2020-10-29T19:30:57:910
-56,770000	16,100000	-30,590000	2020-10-29T19:30:57:934
-43,330002	18,410000	-27,790001	2020-10-29T19:30:57:950
-33,880001	16,870001	-20,580000	2020-10-29T19:30:57:973
-27,860001	16,030001	-7,980000	2020-10-29T19:30:57:990
-22,120001	12,530000	5,670000	2020-10-29T19:30:58:014
-18,690001	15,400000	22,540001	2020-10-29T19:30:58:030
-11,340000	14,280000	38,709999	2020-10-29T19:30:58:055
3,990000	11,830000	51,869999	2020-10-29T19:30:58:071
41,720001	4,060000	57,959999	2020-10-29T19:30:58:094
96,879997	-5,250000	54,110001	2020-10-29T19:30:58:111
140,070007	-3,290000	50,750000	2020-10-29T19:30:58:135
128,380005	10,080000	50,820000	2020-10-29T19:30:58:151
73,430000	24,920000	48,860001	2020-10-29T19:30:58:175
0,840000	42,000000	50,889999	2020-10-29T19:30:58:191
-57,750000	48,509998	62,090000	2020-10-29T19:30:58:213
-89,879997	46,410000	75,669998	2020-10-29T19:30:58:231
-92,330002	38,849998	95,970001	2020-10-29T19:30:58:255
-62,790001	26,180000	119,209999	2020-10-29T19:30:58:271
-36,750000	11,830000	134,680008	2020-10-29T19:30:58:296
-45,080002	-0,350000	136,919998	2020-10-29T19:30:58:311
-73,220001	-16,799999	144,619995	2020-10-29T19:30:58:334
-29,820000	-31,150000	155,399994	2020-10-29T19:30:58:351
43,119999	-39,410000	155,889999	2020-10-29T19:30:58:374
85,190002	-38,009998	150,080002	2020-10-29T19:30:58:392
96,250000	-32,900002	142,380005	2020-10-29T19:30:58:415
97,580002	-28,000000	131,600006	2020-10-29T19:30:58:431
102,059998	-24,360001	119,139999	2020-10-29T19:30:58:454
99,540001	-20,299999	105,209999	2020-10-29T19:30:58:472
72,800003	-11,690000	81,129997	2020-10-29T19:30:58:495
55,369999	-6,790000	63,980000	2020-10-29T19:30:58:511
44,799999	-6,930000	46,689999	2020-10-29T19:30:58:536
34,230000	-6,230000	30,590000	2020-10-29T19:30:58:551
19,879999	-7,070000	17,570000	2020-10-29T19:30:58:576
1,330000	-9,310000	3,990000	2020-10-29T19:30:58:592
-18,900000	-10,850000	-12,110000	2020-10-29T19:30:58:614
-34,509998	-11,480000	-26,880001	2020-10-29T19:30:58:632
-40,040001	-10,290000	-40,320000	2020-10-29T19:30:58:655
-36,540001	-10,290000	-51,450001	2020-10-29T19:30:58:672
-30,799999	-14,560000	-63,000000	2020-10-29T19:30:58:695
-21,210001	-19,389999	-78,680000	2020-10-29T19:30:58:712
-7,070000	-22,400000	-95,129997	2020-10-29T19:30:58:737
1,330000	-18,270000	-109,059998	2020-10-29T19:30:58:751
-3,360000	-12,670000	-122,360001	2020-10-29T19:30:58:776
-17,920000	-10,430000	-135,520004	2020-10-29T19:30:58:792
-20,860001	-5,390000	-141,960007	2020-10-29T19:30:58:816
-10,570000	-2,380000	-137,130005	2020-10-29T19:30:58:832
-1,470000	-2,590000	-129,990005	2020-10-29T19:30:58:855
-19,040001	3,080000	-125,580002	2020-10-29T19:30:58:872
-31,710001	9,030000	-107,590004	2020-10-29T19:30:58:896
-0,070000	3,850000	-94,500000	2020-10-29T19:30:58:912
15,190001	-0,700000	-88,760002	2020-10-29T19:30:58:936
6,230000	0,280000	-82,250000	2020-10-29T19:30:58:952
4,130000	2,170000	-79,169998	2020-10-29T19:30:58:976
7,700000	5,880000	-77,699997	2020-10-29T19:30:58:992
4,340000	6,440000	-75,879997	2020-10-29T19:30:59:015
-4,830000	7,490000	-73,500000	2020-10-29T19:30:59:032
-21,559999	8,470000	-70,000000	2020-10-29T19:30:59:056
-38,779999	7,980000	-64,680000	2020-10-29T19:30:59:072
-46,410000	4,200000	-58,799999	2020-10-29T19:30:59:095
-43,119999	4,200000	-51,799999	2020-10-29T19:30:59:112
-27,930000	-7,140000	-43,259998	2020-10-29T19:30:59:136
0,350000	-17,710001	-34,020000	2020-10-29T19:30:59:152
18,549999	-26,600000	-28,070000	2020-10-29T19:30:59:175
26,320000	-28,980000	-20,020000	2020-10-29T19:30:59:192
37,450001	-30,799999	-12,180000	2020-10-29T19:30:59:216
41,369999	-27,440001	-5,460000	2020-10-29T19:30:59:232
30,590000	-22,610001	1,050000	2020-10-29T19:30:59:256
25,549999	-19,670000	7,630000	2020-10-29T19:30:59:272
22,049999	-13,160000	6,370000	2020-10-29T19:30:59:296
14,700000	-7,490000	18,200001	2020-10-29T19:30:59:312
22,820000	-1,820000	26,180000	2020-10-29T19:30:59:335
39,970001	-2,660000	35,630001	2020-10-29T19:30:59:352
47,110001	-0,350000	43,119999	2020-10-29T19:30:59:376
75,040001	2,940000	48,299999	2020-10-29T19:30:59:392
113,820000	1,260000	52,990002	2020-10-29T19:30:59:415
152,880005	1,330000	62,650002	2020-10-29T19:30:59:432
192,289993	4,480000	66,919998	2020-10-29T19:30:59:456
217,770004	4,060000	67,550003	2020-10-29T19:30:59:472
197,470001	13,300000	62,020000	2020-10-29T19:30:59:495
154,979996	20,719999	57,820000	2020-10-29T19:30:59:512
88,690002	31,219999	49,209999	2020-10-29T19:30:59:536
16,240000	37,730000	36,400002	2020-10-29T19:30:59:552
-54,389999	46,830002	22,120001	2020-10-29T19:30:59:575
-64,959999	57,189999	16,100000	2020-10-29T19:30:59:593
-53,200001	59,220001	12,390000	2020-10-29T19:30:59:615
-38,920002	67,550003	15,750000	2020-10-29T19:30:59:632
-21,700001	72,169998	25,830000	2020-10-29T19:30:59:655
-4,130000	67,970001	38,920002	2020-10-29T19:30:59:673
14,840000	56,420002	51,380001	2020-10-29T19:30:59:738
25,969999	47,040001	58,450001	2020-10-29T19:30:59:739
28,139999	41,509998	61,320000	2020-10-29T19:30:59:740
30,450001	37,310001	59,010002	2020-10-29T19:30:59:752
28,139999	36,889999	54,110001	2020-10-29T19:30:59:776
15,260000	38,709999	51,799999	2020-10-29T19:30:59:794
0,910000	39,480000	49,980000	2020-10-29T19:30:59:815
-7,350000	37,099998	50,330002	2020-10-29T19:30:59:833
-17,219999	32,340000	50,259998	2020-10-29T19:30:59:857
-26,389999	24,150000	49,070000	2020-10-29T19:30:59:874
-34,299999	13,580000	45,290001	2020-10-29T19:30:59:896
-37,240002	0,350000	38,220001	2020-10-29T19:30:59:913
-36,189999	-13,370000	29,889999	2020-10-29T19:30:59:937
-27,370001	-27,790001	20,650000	2020-10-29T19:30:59:953
-10,360000	-41,720001	12,040000	2020-10-29T19:30:59:977
9,660000	-54,459999	5,600000	2020-10-29T19:30:59:993
35,279999	-66,849998	-0,140000	2020-10-29T19:31:00:020
60,619999	-77,769997	-6,790000	2020-10-29T19:31:00:034
80,080002	-86,940002	-13,580000	2020-10-29T19:31:00:076
96,879997	-93,940002	-19,320000	2020-10-29T19:31:00:077
113,260002	-99,260002	-22,400000	2020-10-29T19:31:00:101
126,419998	-102,760002	-23,100000	2020-10-29T19:31:00:114
135,309998	-101,919998	-23,870001	2020-10-29T19:31:00:315
102,480003	-92,820000	-26,389999	2020-10-29T19:31:00:316
-42,139999	-58,099998	-44,450001	2020-10-29T19:31:00:316
-201,529999	-7,980000	-51,660000	2020-10-29T19:31:00:317
-210,559998	5,880000	-44,939999	2020-10-29T19:31:00:317
-104,090004	-6,790000	-37,799999	2020-10-29T19:31:00:318
-15,260000	-20,299999	-24,780001	2020-10-29T19:31:00:318
41,439999	-26,950001	-16,100000	2020-10-29T19:31:00:319
90,090004	-31,639999	-7,770000	2020-10-29T19:31:00:320
141,259995	-38,990002	0,420000	2020-10-29T19:31:00:321
174,369995	-48,930000	8,330000	2020-10-29T19:31:00:366
181,160004	-63,770000	7,280000	2020-10-29T19:31:00:371
171,710007	-71,959999	-0,910000	2020-10-29T19:31:00:389
147,070007	-57,189999	-13,300000	2020-10-29T19:31:00:417
112,139999	-40,810001	-20,230000	2020-10-29T19:31:00:419
73,849998	-27,930000	-21,000000	2020-10-29T19:31:00:436
48,509998	-20,370001	-11,690000	2020-10-29T19:31:00:467
48,650002	-24,710001	2,520000	2020-10-29T19:31:00:471
71,959999	-31,990000	17,639999	2020-10-29T19:31:00:495
105,629997	-33,810001	31,500000	2020-10-29T19:31:00:512
139,860001	-34,860001	43,400002	2020-10-29T19:31:00:535
165,130005	-33,320000	52,290001	2020-10-29T19:31:00:551
176,119995	-28,350000	57,540001	2020-10-29T19:31:00:577
171,570007	-20,370001	62,720001	2020-10-29T19:31:00:594
151,550003	-10,570000	68,529999	2020-10-29T19:31:00:616
122,570000	-1,890000	72,660004	2020-10-29T19:31:00:633
90,650002	5,740000	71,120003	2020-10-29T19:31:00:657
47,880001	15,190001	65,940002	2020-10-29T19:31:00:674
33,810001	20,299999	59,500000	2020-10-29T19:31:00:697
32,900002	23,730000	52,290001	2020-10-29T19:31:00:714
36,680000	28,700001	45,080002	2020-10-29T19:31:00:740
37,730000	33,529999	39,970001	2020-10-29T19:31:00:785
33,180000	36,889999	36,330002	2020-10-29T19:31:00:786
28,350000	39,060001	35,000000	2020-10-29T19:31:00:794
19,879999	40,599998	34,299999	2020-10-29T19:31:00:817
8,960000	42,630001	34,860001	2020-10-29T19:31:00:834
-8,470000	42,420002	33,320000	2020-10-29T19:31:00:855
-24,850000	42,279999	30,520000	2020-10-29T19:31:00:874
-37,099998	41,369999	27,370001	2020-10-29T19:31:00:898
-45,430000	39,200001	26,180000	2020-10-29T19:31:00:914
-48,230000	34,509998	24,990000	2020-10-29T19:31:00:938
-42,700001	27,020000	23,940001	2020-10-29T19:31:00:953
-28,700001	17,430000	22,400000	2020-10-29T19:31:00:976
-13,580000	8,470000	20,020000	2020-10-29T19:31:00:994
-0,490000	-0,420000	16,240000	2020-10-29T19:31:01:017
9,730000	-7,350000	10,360000	2020-10-29T19:31:01:034
14,910000	-11,830000	5,110000	2020-10-29T19:31:01:058
17,990000	-18,549999	-7,630000	2020-10-29T19:31:01:086
-143,850006	58,170002	-17,150000	2020-10-29T19:31:09:142
-146,440002	50,400002	-17,780001	2020-10-29T19:31:09:143
-146,440002	43,119999	-19,040001	2020-10-29T19:31:09:144
-156,729996	39,689999	-20,440001	2020-10-29T19:31:09:149
-164,779999	36,610001	-22,820000	2020-10-29T19:31:09:158
-160,440002	34,580002	-25,690001	2020-10-29T19:31:09:180
-147,000000	31,990000	-33,670002	2020-10-29T19:31:09:196
-155,960007	32,900002	-40,250000	2020-10-29T19:31:09:222
-182,210007	38,990002	-51,450001	2020-10-29T19:31:09:243
-194,320007	43,540001	-61,599998	2020-10-29T19:31:09:260
-168,979996	43,259998	-68,389999	2020-10-29T19:31:09:277
-124,389999	37,869999	-82,599998	2020-10-29T19:31:09:302
-84,769997	24,219999	-89,040001	2020-10-29T19:31:09:316
-47,180000	12,810000	-93,870003	2020-10-29T19:31:09:340
11,900000	-6,650000	-92,260002	2020-10-29T19:31:09:359
66,989998	-23,590000	-91,489998	2020-10-29T19:31:09:380
97,090004	-35,490002	-88,620003	2020-10-29T19:31:09:397
110,250000	-44,520000	-85,120003	2020-10-29T19:31:09:420
111,230003	-50,610001	-79,800003	2020-10-29T19:31:09:437
110,180000	-53,900002	-71,470001	2020-10-29T19:31:09:461
106,120003	-55,580002	-60,060001	2020-10-29T19:31:09:477
92,050003	-53,619999	-48,230000	2020-10-29T19:31:09:501
72,660004	-49,000000	-36,680000	2020-10-29T19:31:09:517
54,389999	-43,259998	-25,480000	2020-10-29T19:31:09:543
45,360001	-37,170002	-17,150000	2020-10-29T19:31:09:558
41,090000	-25,410000	-9,310000	2020-10-29T19:31:09:580
34,020000	-11,340000	-0,630000	2020-10-29T19:31:09:597
24,710001	-0,770000	10,080000	2020-10-29T19:31:09:620
23,170000	7,000000	22,469999	2020-10-29T19:31:09:637
27,230000	12,250000	36,959999	2020-10-29T19:31:09:661
32,759998	16,450001	50,820000	2020-10-29T19:31:09:678
42,980000	19,950001	60,830002	2020-10-29T19:31:09:700
65,099998	24,219999	64,470001	2020-10-29T19:31:09:717
117,949997	18,129999	69,650002	2020-10-29T19:31:09:740
162,680008	14,070000	74,900002	2020-10-29T19:31:09:759
174,580002	16,590000	71,330002	2020-10-29T19:31:09:781
136,779999	21,770000	58,799999	2020-10-29T19:31:09:798
75,320000	34,160000	47,529999	2020-10-29T19:31:09:820
24,639999	44,869999	40,320000	2020-10-29T19:31:09:838
-7,560000	48,580002	34,299999	2020-10-29T19:31:09:862
-31,710001	48,930000	30,450001	2020-10-29T19:31:09:877
-48,580002	50,189999	31,850000	2020-10-29T19:31:09:902
-44,310001	47,110001	36,330002	2020-10-29T19:31:09:917
-22,610001	38,849998	40,389999	2020-10-29T19:31:09:942
2,590000	27,020000	44,450001	2020-10-29T19:31:09:958
21,980000	16,030001	47,040001	2020-10-29T19:31:09:982
40,180000	3,780000	47,389999	2020-10-29T19:31:09:997
57,820000	-5,250000	46,549999	2020-10-29T19:31:10:022
70,209999	-13,370000	45,639999	2020-10-29T19:31:10:038
76,510002	-20,510000	44,310001	2020-10-29T19:31:10:062
78,470001	-25,270000	42,560001	2020-10-29T19:31:10:077
79,099998	-29,680000	41,299999	2020-10-29T19:31:10:102
77,910004	-32,619999	40,810001	2020-10-29T19:31:10:118
77,840004	-34,160000	40,320000	2020-10-29T19:31:10:142
75,180000	-34,650002	39,830002	2020-10-29T19:31:10:158
71,610001	-35,139999	38,709999	2020-10-29T19:31:10:182
66,639999	-34,369999	36,680000	2020-10-29T19:31:10:198
61,810001	-33,110001	33,110001	2020-10-29T19:31:10:222
52,709999	-30,660000	28,139999	2020-10-29T19:31:10:238
37,520000	-25,340000	21,770000	2020-10-29T19:31:10:262
20,650000	-20,299999	13,020000	2020-10-29T19:31:10:278
0,770000	-17,639999	1,610000	2020-10-29T19:31:10:301
-17,219999	-16,870001	-13,510000	2020-10-29T19:31:10:318
-31,639999	-9,170000	-24,920000	2020-10-29T19:31:10:342
-45,639999	-1,400000	-31,710001	2020-10-29T19:31:10:358
-57,189999	1,680000	-35,490002	2020-10-29T19:31:10:381
-68,180000	9,450000	-30,170000	2020-10-29T19:31:10:398
-56,910000	8,540000	-18,690001	2020-10-29T19:31:10:421
-31,570000	6,440000	-1,820000	2020-10-29T19:31:10:439
-1,680000	4,410000	14,700000	2020-10-29T19:31:10:462
20,160000	3,010000	30,730000	2020-10-29T19:31:10:478
27,650000	7,630000	39,549999	2020-10-29T19:31:10:502
4,340000	18,059999	44,450001	2020-10-29T19:31:10:518
-31,990000	31,500000	44,590000	2020-10-29T19:31:10:541
-71,610001	48,790001	42,420002	2020-10-29T19:31:10:559
-87,430000	58,099998	34,020000	2020-10-29T19:31:10:582
-95,690002	62,160000	29,330000	2020-10-29T19:31:10:598
-102,550003	60,340000	21,910000	2020-10-29T19:31:10:622
-110,389999	52,500000	10,710000	2020-10-29T19:31:10:638
-121,520004	42,279999	3,570000	2020-10-29T19:31:10:662
-122,290001	30,170000	-2,100000	2020-10-29T19:31:10:679
-119,770004	19,389999	-6,160000	2020-10-29T19:31:10:702
-119,070000	9,940000	-5,530000	2020-10-29T19:31:10:719
-116,410004	4,340000	-4,340000	2020-10-29T19:31:10:743
-99,680000	1,610000	-1,890000	2020-10-29T19:31:10:759
-92,959999	6,510000	4,830000	2020-10-29T19:31:10:782
-100,870003	15,610000	16,730000	2020-10-29T19:31:10:799
-84,000000	24,150000	17,639999	2020-10-29T19:31:10:822
-81,269997	28,559999	12,600000	2020-10-29T19:31:10:839
-115,500000	33,740002	10,080000	2020-10-29T19:31:10:863
-149,660004	35,840000	6,160000	2020-10-29T19:31:10:879
-153,020004	32,410000	4,410000	2020-10-29T19:31:10:902
-147,350006	24,219999	6,160000	2020-10-29T19:31:10:919
-128,589996	15,890000	7,070000	2020-10-29T19:31:10:942
-100,449997	9,170000	5,950000	2020-10-29T19:31:10:959
-73,430000	1,190000	4,970000	2020-10-29T19:31:10:982
-52,080002	-3,080000	4,410000	2020-10-29T19:31:10:998
-40,670002	-7,700000	5,250000	2020-10-29T19:31:11:022
-37,029999	-13,440001	4,620000	2020-10-29T19:31:11:039
-31,920000	-15,190001	2,800000	2020-10-29T19:31:11:062
-20,930000	-11,060000	-1,750000	2020-10-29T19:31:11:079
-11,970000	-3,290000	-8,330000	2020-10-29T19:31:11:101
-2,730000	5,740000	-14,840000	2020-10-29T19:31:11:118
-3,850000	13,370000	-14,560000	2020-10-29T19:31:11:142
-15,120000	22,820000	-7,350000	2020-10-29T19:31:11:159
-19,180000	27,719999	0,350000	2020-10-29T19:31:11:182
-17,430000	33,180000	5,460000	2020-10-29T19:31:11:199
-14,630000	37,029999	8,260000	2020-10-29T19:31:11:222
-8,050000	41,160000	7,840000	2020-10-29T19:31:11:239
-4,830000	51,450001	7,630000	2020-10-29T19:31:11:262
-18,620001	62,650002	10,920000	2020-10-29T19:31:11:280
-42,279999	72,800003	16,240000	2020-10-29T19:31:11:302
-63,000000	77,209999	22,120001	2020-10-29T19:31:11:319
-72,940002	73,360001	26,250000	2020-10-29T19:31:11:341
-75,529999	70,699997	26,110001	2020-10-29T19:31:11:360
-68,320000	65,169998	22,820000	2020-10-29T19:31:11:381
-53,549999	61,880001	18,830000	2020-10-29T19:31:11:399
-38,990002	61,389999	15,820000	2020-10-29T19:31:11:422
-29,400000	60,480000	12,530000	2020-10-29T19:31:11:439
-24,010000	60,480000	9,310000	2020-10-29T19:31:11:465
-30,240000	64,330002	2,450000	2020-10-29T19:31:11:479
-47,740002	70,840004	-2,030000	2020-10-29T19:31:11:502
-68,669998	77,419998	-7,140000	2020-10-29T19:31:11:519
-86,029999	79,800003	-13,720000	2020-10-29T19:31:11:542
-97,370003	78,750000	-19,670000	2020-10-29T19:31:11:560
-100,870003	78,050003	-23,240000	2020-10-29T19:31:11:583
-100,940002	75,110001	-23,799999	2020-10-29T19:31:11:599
-98,559998	69,230003	-22,610001	2020-10-29T19:31:11:621
-88,760002	62,020000	-21,770000	2020-10-29T19:31:11:639
-75,529999	55,020000	-22,680000	2020-10-29T19:31:11:663
-62,160000	51,450001	-24,219999	2020-10-29T19:31:11:679
-51,450001	46,830002	-26,880001	2020-10-29T19:31:11:703
-45,360001	43,119999	-30,590000	2020-10-29T19:31:11:719
-39,200001	42,630001	-34,090000	2020-10-29T19:31:11:742
-36,330002	45,220001	-38,360001	2020-10-29T19:31:11:760
-37,520000	50,820000	-42,279999	2020-10-29T19:31:11:782
-40,740002	54,670002	-46,200001	2020-10-29T19:31:11:799
-44,869999	57,680000	-49,700001	2020-10-29T19:31:11:822
-49,070000	59,290001	-62,790001	2020-10-29T19:31:11:840
-55,369999	63,840000	-78,330002	2020-10-29T19:31:11:863
-59,360001	72,519997	-92,050003	2020-10-29T19:31:11:879
-70,419998	79,029999	-101,500000	2020-10-29T19:31:11:903
-87,290001	78,120003	-101,010002	2020-10-29T19:31:11:920
-91,279999	66,150002	-90,300003	2020-10-29T19:31:11:944
-79,029999	49,000000	-74,480003	2020-10-29T19:31:11:960
-58,939999	29,680000	-61,880001	2020-10-29T19:31:11:982
-31,500000	10,710000	-53,480000	2020-10-29T19:31:12:000
-0,140000	-1,260000	-45,080002	2020-10-29T19:31:12:023
29,049999	-4,410000	-33,880001	2020-10-29T19:31:12:040
40,320000	-2,520000	-20,790001	2020-10-29T19:31:12:064
24,219999	5,670000	-5,180000	2020-10-29T19:31:12:079
-19,460001	18,830000	7,770000	2020-10-29T19:31:12:103
-54,320000	26,460001	19,530001	2020-10-29T19:31:12:120
-64,400002	23,240000	29,680000	2020-10-29T19:31:12:143
-55,439999	14,840000	35,000000	2020-10-29T19:31:12:160
-36,680000	4,410000	35,630001	2020-10-29T19:31:12:184
-13,160000	-7,140000	33,529999	2020-10-29T19:31:12:200
15,540000	-19,460001	29,540001	2020-10-29T19:31:12:223
38,150002	-27,510000	26,250000	2020-10-29T19:31:12:240
55,369999	-32,200001	23,450001	2020-10-29T19:31:12:264
66,989998	-34,790001	22,120001	2020-10-29T19:31:12:280
73,639999	-35,910000	21,840000	2020-10-29T19:31:12:303
77,629997	-35,910000	20,790001	2020-10-29T19:31:12:320
81,830002	-36,889999	20,719999	2020-10-29T19:31:12:343
86,239998	-38,990002	21,700001	2020-10-29T19:31:12:361
93,169998	-41,509998	22,120001	2020-10-29T19:31:12:383
103,250000	-44,310001	21,139999	2020-10-29T19:31:12:400
113,680000	-47,529999	18,410000	2020-10-29T19:31:12:424
121,800003	-50,049999	14,560000	2020-10-29T19:31:12:440
127,889999	-50,400002	10,220000	2020-10-29T19:31:12:464
132,720001	-51,590000	6,510000	2020-10-29T19:31:12:480
138,529999	-51,520000	4,200000	2020-10-29T19:31:12:503
146,300003	-50,959999	2,310000	2020-10-29T19:31:12:520
150,779999	-50,959999	2,240000	2020-10-29T19:31:12:543
147,770004	-49,980000	5,250000	2020-10-29T19:31:12:561
138,669998	-49,490002	8,120000	2020-10-29T19:31:12:583
126,559998	-47,880001	11,830000	2020-10-29T19:31:12:601
115,639999	-46,480000	17,430000	2020-10-29T19:31:12:623
108,360001	-49,070000	21,139999	2020-10-29T19:31:12:642
103,739998	-56,420002	18,620001	2020-10-29T19:31:12:665
108,919998	-52,920002	12,810000	2020-10-29T19:31:12:680
118,860001	-43,750000	9,240000	2020-10-29T19:31:12:703
118,510002	-37,939999	9,030000	2020-10-29T19:31:12:720
111,930000	-40,180000	10,500000	2020-10-29T19:31:12:743
115,010002	-45,639999	14,210000	2020-10-29T19:31:12:761
128,029999	-50,610001	17,500000	2020-10-29T19:31:12:784
136,990005	-52,430000	17,570000	2020-10-29T19:31:12:800
142,589996	-53,200001	17,080000	2020-10-29T19:31:12:823
151,550003	-56,070000	16,520000	2020-10-29T19:31:12:841
159,529999	-58,799999	16,100000	2020-10-29T19:31:12:864
161,699997	-61,040001	16,100000	2020-10-29T19:31:12:881
156,589996	-62,860001	16,450001	2020-10-29T19:31:12:905
149,449997	-64,889999	16,450001	2020-10-29T19:31:12:920
147,699997	-67,410004	15,330000	2020-10-29T19:31:12:943
153,020004	-69,860001	12,670000	2020-10-29T19:31:12:961
160,369995	-70,419998	8,330000	2020-10-29T19:31:12:984
166,389999	-69,720001	3,220000	2020-10-29T19:31:13:000
170,029999	-67,690002	-1,960000	2020-10-29T19:31:13:024
172,059998	-64,750000	-6,580000	2020-10-29T19:31:13:041
169,399994	-61,250000	-10,430000	2020-10-29T19:31:13:064
160,509995	-58,730000	-12,390000	2020-10-29T19:31:13:080
148,820007	-54,810001	-10,780000	2020-10-29T19:31:13:104
136,639999	-52,080002	-6,160000	2020-10-29T19:31:13:121
123,830002	-51,660000	-0,140000	2020-10-29T19:31:13:145
112,910004	-49,490002	4,130000	2020-10-29T19:31:13:161
104,300003	-46,060001	2,590000	2020-10-29T19:31:13:184
87,150002	-36,330002	-7,140000	2020-10-29T19:31:13:201
60,200001	-20,440001	-19,250000	2020-10-29T19:31:13:224
33,459999	-9,100000	-20,440001	2020-10-29T19:31:13:240
40,180000	-3,850000	-21,420000	2020-10-29T19:31:13:264
58,029999	-3,780000	-19,180000	2020-10-29T19:31:13:281
67,199997	-4,620000	-16,730000	2020-10-29T19:31:13:304
67,760002	-6,020000	-14,140000	2020-10-29T19:31:13:321
68,389999	-11,200000	-13,090000	2020-10-29T19:31:13:344
65,449997	-17,500000	-13,230000	2020-10-29T19:31:13:361
61,180000	-18,620001	-13,930000	2020-10-29T19:31:13:384
55,369999	-17,639999	-17,850000	2020-10-29T19:31:13:402
54,950001	-18,830000	-24,150000	2020-10-29T19:31:13:424
68,389999	-23,240000	-27,860001	2020-10-29T19:31:13:441
75,110001	-22,960001	-33,950001	2020-10-29T19:31:13:465
70,139999	-13,580000	-33,389999	2020-10-29T19:31:13:481
81,970001	-10,710000	-35,070000	2020-10-29T19:31:13:504
93,940002	-5,740000	-34,369999	2020-10-29T19:31:13:521
101,360001	2,590000	-32,340000	2020-10-29T19:31:13:544
138,250000	4,060000	-23,240000	2020-10-29T19:31:13:562
171,710007	4,830000	-16,450001	2020-10-29T19:31:13:584
169,539993	8,680000	-12,600000	2020-10-29T19:31:13:601
138,949997	9,100000	-11,620000	2020-10-29T19:31:13:625
113,330002	8,820000	0,490000	2020-10-29T19:31:13:641
59,849998	32,200001	22,260000	2020-10-29T19:31:13:665
16,730000	49,209999	39,970001	2020-10-29T19:31:13:681
-28,210001	54,670002	46,900002	2020-10-29T19:31:13:705
-62,720001	59,080002	54,740002	2020-10-29T19:31:13:721
-39,410000	64,400002	73,010002	2020-10-29T19:31:13:744
10,850000	68,320000	82,669998	2020-10-29T19:31:13:762
18,900000	75,110001	90,160004	2020-10-29T19:31:13:784
7,350000	79,940002	100,449997	2020-10-29T19:31:13:801
18,480000	81,480003	104,580002	2020-10-29T19:31:13:824
28,350000	84,489998	109,620003	2020-10-29T19:31:13:841
25,900000	92,260002	115,010002	2020-10-29T19:31:13:866
3,710000	99,330002	116,970001	2020-10-29T19:31:13:881
-33,320000	105,349998	117,180000	2020-10-29T19:31:13:905
-48,930000	107,449997	115,709999	2020-10-29T19:31:13:921
-44,869999	110,250000	116,970001	2020-10-29T19:31:13:948
-37,450001	114,029999	120,120003	2020-10-29T19:31:13:962
-29,120001	118,860001	123,059998	2020-10-29T19:31:13:985
-7,490000	116,690002	116,129997	2020-10-29T19:31:14:002
7,560000	114,520004	103,879997	2020-10-29T19:31:14:028
6,580000	115,150002	90,790001	2020-10-29T19:31:14:041
10,920000	114,449997	79,730003	2020-10-29T19:31:14:065
26,950001	107,730003	69,019997	2020-10-29T19:31:14:081
27,299999	98,559998	59,990002	2020-10-29T19:31:14:104
11,200000	91,070000	49,770000	2020-10-29T19:31:14:121
-2,310000	80,010002	37,450001	2020-10-29T19:31:14:147
-17,080000	70,769997	23,590000	2020-10-29T19:31:14:162
-30,309999	63,560001	13,790000	2020-10-29T19:31:14:185
-28,210001	51,450001	9,030000	2020-10-29T19:31:14:202
-7,840000	34,860001	10,570000	2020-10-29T19:31:14:225
24,570000	16,590000	13,510000	2020-10-29T19:31:14:242
59,360001	4,060000	21,910000	2020-10-29T19:31:14:265
88,129997	3,220000	32,759998	2020-10-29T19:31:14:282
98,419998	6,020000	39,480000	2020-10-29T19:31:14:305
91,559998	7,490000	42,420002	2020-10-29T19:31:14:322
83,019997	7,910000	43,400002	2020-10-29T19:31:14:346
80,989998	11,620000	44,590000	2020-10-29T19:31:14:362
79,379997	28,980000	50,820000	2020-10-29T19:31:14:384
72,029999	44,240002	46,619999	2020-10-29T19:31:14:402
41,860001	57,260002	36,889999	2020-10-29T19:31:14:425
9,590000	59,990002	23,799999	2020-10-29T19:31:14:442
-24,010000	60,270000	19,530001	2020-10-29T19:31:14:466
-8,470000	50,540001	24,150000	2020-10-29T19:31:14:482
29,680000	42,700001	21,840000	2020-10-29T19:31:14:505
29,820000	43,049999	17,430000	2020-10-29T19:31:14:523
7,980000	50,259998	9,520000	2020-10-29T19:31:14:545
-6,160000	51,240002	2,030000	2020-10-29T19:31:14:563
-11,830000	49,630001	-5,530000	2020-10-29T19:31:14:588
-11,900000	46,970001	-9,590000	2020-10-29T19:31:14:602
-8,260000	38,290001	-11,410000	2020-10-29T19:31:14:626
1,540000	31,990000	-11,690000	2020-10-29T19:31:14:643
6,370000	27,020000	-13,300000	2020-10-29T19:31:14:666
-2,100000	26,530001	-14,140000	2020-10-29T19:31:14:682
-14,770000	27,860001	-15,120000	2020-10-29T19:31:14:706
-21,490000	28,630001	-11,690000	2020-10-29T19:31:14:723
-9,030000	29,049999	-5,530000	2020-10-29T19:31:14:745
0,980000	28,210001	-6,860000	2020-10-29T19:31:14:764
-9,310000	25,690001	-9,870000	2020-10-29T19:31:14:786
-19,670000	24,290001	-14,630000	2020-10-29T19:31:14:802
-19,670000	21,420000	-14,210000	2020-10-29T19:31:14:826
-22,469999	16,520000	-13,160000	2020-10-29T19:31:14:845
-20,930000	9,590000	-15,750000	2020-10-29T19:31:14:867
-27,370001	8,960000	-19,670000	2020-10-29T19:31:14:883
-17,710001	4,270000	-14,630000	2020-10-29T19:31:14:906
-7,490000	1,120000	-9,240000	2020-10-29T19:31:14:923
-6,790000	2,170000	-1,190000	2020-10-29T19:31:14:946
25,620001	1,610000	5,530000	2020-10-29T19:31:14:963
37,029999	7,910000	8,890000	2020-10-29T19:31:14:985
21,629999	13,930000	17,360001	2020-10-29T19:31:15:003
22,330000	13,370000	28,000000	2020-10-29T19:31:15:026
42,209999	5,950000	26,600000	2020-10-29T19:31:15:043
65,379997	-0,630000	19,530001	2020-10-29T19:31:15:068
67,269997	-5,110000	10,780000	2020-10-29T19:31:15:082
17,150000	1,610000	-0,350000	2020-10-29T19:31:15:106
-18,690001	10,220000	-1,050000	2020-10-29T19:31:15:123
-12,810000	10,850000	-0,070000	2020-10-29T19:31:15:146
-24,150000	15,120000	1,120000	2020-10-29T19:31:15:163
-32,759998	18,760000	3,220000	2020-10-29T19:31:15:186
-39,480000	22,049999	4,130000	2020-10-29T19:31:15:203
-37,170002	23,309999	5,040000	2020-10-29T19:31:15:225
-38,220001	24,290001	5,250000	2020-10-29T19:31:15:243
-39,689999	23,309999	3,430000	2020-10-29T19:31:15:266
-38,150002	20,790001	2,450000	2020-10-29T19:31:15:282
-29,750000	17,430000	2,870000	2020-10-29T19:31:15:307
-16,309999	13,720000	3,430000	2020-10-29T19:31:15:323
-6,090000	10,430000	5,180000	2020-10-29T19:31:15:346
-5,110000	9,170000	5,250000	2020-10-29T19:31:15:364
-6,230000	8,400000	4,690000	2020-10-29T19:31:15:386
-4,200000	7,840000	4,620000	2020-10-29T19:31:15:403
0,700000	5,950000	4,690000	2020-10-29T19:31:15:426
1,190000	5,810000	4,620000	2020-10-29T19:31:15:443
0,910000	5,320000	4,830000	2020-10-29T19:31:15:467
-0,910000	5,390000	4,340000	2020-10-29T19:31:15:483
-3,850000	5,460000	4,060000	2020-10-29T19:31:15:506
-7,280000	5,530000	3,990000	2020-10-29T19:31:15:523
-12,110000	5,600000	4,270000	2020-10-29T19:31:15:546
-13,860000	5,320000	4,270000	2020-10-29T19:31:15:564
-11,830000	4,970000	3,570000	2020-10-29T19:31:15:586
-10,150000	4,410000	3,220000	2020-10-29T19:31:15:604
-10,500000	4,270000	2,660000	2020-10-29T19:31:15:625
-9,170000	4,060000	2,030000	2020-10-29T19:31:15:643
-7,770000	3,920000	1,330000	2020-10-29T19:31:15:667
-7,350000	4,130000	1,260000	2020-10-29T19:31:15:683
-5,530000	4,270000	1,330000	2020-10-29T19:31:15:706
-5,390000	4,200000	0,980000	2020-10-29T19:31:15:724
-7,070000	3,990000	0,560000	2020-10-29T19:31:15:746
-6,440000	3,570000	0,210000	2020-10-29T19:31:15:764
-3,990000	2,590000	0,280000	2020-10-29T19:31:15:787
-0,700000	1,680000	0,280000	2020-10-29T19:31:15:803
2,170000	1,050000	0,280000	2020-10-29T19:31:15:826
2,520000	0,840000	0,210000	2020-10-29T19:31:15:844
2,660000	0,560000	0,350000	2020-10-29T19:31:15:867
1,260000	1,120000	0,490000	2020-10-29T19:31:15:883
0,070000	1,750000	0,910000	2020-10-29T19:31:15:906
-1,050000	2,380000	1,190000	2020-10-29T19:31:15:924
-1,680000	2,520000	1,610000	2020-10-29T19:31:15:946
-2,520000	2,520000	1,680000	2020-10-29T19:31:15:964
-2,730000	2,240000	1,820000	2020-10-29T19:31:15:987
-3,290000	2,240000	1,400000	2020-10-29T19:31:16:004
-3,850000	2,450000	0,490000	2020-10-29T19:31:16:028
-4,340000	2,450000	-0,210000	2020-10-29T19:31:16:043
-4,130000	2,380000	-0,490000	2020-10-29T19:31:16:066
-4,620000	2,590000	-0,560000	2020-10-29T19:31:16:083
-4,550000	2,450000	-0,490000	2020-10-29T19:31:16:107
-4,550000	2,170000	-0,770000	2020-10-29T19:31:16:124
-4,550000	2,240000	-1,120000	2020-10-29T19:31:16:147
-3,220000	1,820000	-0,910000	2020-10-29T19:31:16:165
-1,680000	1,610000	-0,630000	2020-10-29T19:31:16:186
-1,820000	1,890000	0,210000	2020-10-29T19:31:16:204
-8,400000	5,740000	-0,070000	2020-10-29T19:31:16:227
-22,469999	10,500000	-1,400000	2020-10-29T19:31:16:244
-31,010000	11,620000	0,420000	2020-10-29T19:31:16:269
-28,139999	10,290000	7,000000	2020-10-29T19:31:16:284
-12,670000	5,740000	12,810000	2020-10-29T19:31:16:307
-2,450000	2,660000	15,890000	2020-10-29T19:31:16:324
-3,220000	3,990000	16,590000	2020-10-29T19:31:16:346
-13,510000	8,470000	12,390000	2020-10-29T19:31:16:364
-23,030001	10,640000	6,020000	2020-10-29T19:31:16:388
-23,030001	8,890000	0,700000	2020-10-29T19:31:16:404
-12,670000	3,570000	-2,870000	2020-10-29T19:31:16:426
-4,620000	-0,070000	-6,510000	2020-10-29T19:31:16:444
-8,120000	0,770000	-8,890000	2020-10-29T19:31:16:468
-14,980000	3,150000	-9,870000	2020-10-29T19:31:16:484
-19,320000	1,120000	-9,870000	2020-10-29T19:31:16:508
-10,290000	-5,250000	-8,400000	2020-10-29T19:31:16:524
10,220000	-9,450000	-4,130000	2020-10-29T19:31:16:547
24,990000	-10,220000	-0,070000	2020-10-29T19:31:16:566
24,570000	-9,170000	0,420000	2020-10-29T19:31:16:587
12,810000	-8,680000	-2,380000	2020-10-29T19:31:16:604
6,020000	-9,240000	-3,010000	2020-10-29T19:31:16:627
3,220000	-9,730000	-3,640000	2020-10-29T19:31:16:644
-0,560000	-13,860000	-7,980000	2020-10-29T19:31:16:667
2,940000	-21,000000	-12,180000	2020-10-29T19:31:16:684
14,280000	-24,500000	-11,830000	2020-10-29T19:31:16:707
20,160000	-27,510000	-12,810000	2020-10-29T19:31:16:724
9,100000	-27,440001	-15,400000	2020-10-29T19:31:16:748
-2,800000	-33,389999	-17,850000	2020-10-29T19:31:16:775
0,910000	-38,360001	-17,920000	2020-10-29T19:31:16:787
9,730000	-41,299999	-14,140000	2020-10-29T19:31:16:805
25,620001	-45,360001	-8,750000	2020-10-29T19:31:16:828
41,720001	-49,070000	-4,970000	2020-10-29T19:31:16:845
40,110001	-53,270000	-5,110000	2020-10-29T19:31:16:869
20,580000	-54,459999	-8,120000	2020-10-29T19:31:16:884
17,850000	-55,369999	-10,640000	2020-10-29T19:31:16:907
31,639999	-53,130001	-9,030000	2020-10-29T19:31:16:924
38,430000	-53,270000	-4,830000	2020-10-29T19:31:16:948
32,340000	-55,090000	-3,080000	2020-10-29T19:31:16:965
19,530001	-54,670002	-3,430000	2020-10-29T19:31:16:989
21,000000	-56,070000	-4,270000	2020-10-29T19:31:17:004
24,710001	-54,740002	-2,380000	2020-10-29T19:31:17:027
20,719999	-51,869999	0,770000	2020-10-29T19:31:17:045
13,440001	-52,290001	2,450000	2020-10-29T19:31:17:069
20,160000	-54,459999	3,430000	2020-10-29T19:31:17:084
31,500000	-52,500000	4,130000	2020-10-29T19:31:17:108
26,950001	-45,920002	6,160000	2020-10-29T19:31:17:125
13,720000	-33,180000	6,370000	2020-10-29T19:31:17:148
-0,210000	-24,570000	8,330000	2020-10-29T19:31:17:165
-10,850000	-20,790001	8,960000	2020-10-29T19:31:17:187
-14,840000	-18,410000	7,700000	2020-10-29T19:31:17:205
-15,540000	-17,080000	7,980000	2020-10-29T19:31:17:229
-12,110000	-16,590000	9,240000	2020-10-29T19:31:17:244
-9,800000	-17,010000	9,590000	2020-10-29T19:31:17:268
-7,910000	-19,460001	9,100000	2020-10-29T19:31:17:285
-3,430000	-21,770000	7,840000	2020-10-29T19:31:17:308
2,240000	-24,500000	7,700000	2020-10-29T19:31:17:325
7,630000	-28,280001	8,540000	2020-10-29T19:31:17:347
14,280000	-31,639999	10,150000	2020-10-29T19:31:17:366
20,440001	-34,369999	12,740000	2020-10-29T19:31:17:388
29,330000	-40,250000	14,350000	2020-10-29T19:31:17:405
33,599998	-38,500000	14,210000	2020-10-29T19:31:17:428
40,040001	-33,529999	17,639999	2020-10-29T19:31:17:445
33,670002	-30,100000	19,250000	2020-10-29T19:31:17:470
17,639999	-27,650000	18,690001	2020-10-29T19:31:17:485
15,050000	-28,350000	21,070000	2020-10-29T19:31:17:508
19,320000	-29,820000	20,230000	2020-10-29T19:31:17:525
24,219999	-31,570000	17,570000	2020-10-29T19:31:17:548
27,719999	-31,850000	12,600000	2020-10-29T19:31:17:566
31,430000	-25,760000	5,600000	2020-10-29T19:31:17:588
34,020000	-23,520000	0,770000	2020-10-29T19:31:17:605
38,290001	-14,840000	-3,710000	2020-10-29T19:31:17:628
48,790001	-9,100000	-2,940000	2020-10-29T19:31:17:645
49,700001	-6,720000	-11,270000	2020-10-29T19:31:17:669
21,700001	-1,540000	-12,180000	2020-10-29T19:31:17:685
-0,840000	-0,350000	-13,720000	2020-10-29T19:31:17:710
-15,050000	1,750000	-12,740000	2020-10-29T19:31:17:725
-6,510000	0,700000	-9,100000	2020-10-29T19:31:17:748
10,360000	-4,970000	-8,470000	2020-10-29T19:31:17:766
1,820000	-8,400000	-6,090000	2020-10-29T19:31:17:789
-25,690001	-10,430000	-5,320000	2020-10-29T19:31:17:805
-61,250000	-16,170000	-8,260000	2020-10-29T19:31:17:829
-95,059998	-21,490000	-10,570000	2020-10-29T19:31:17:846
-79,590004	-21,840000	-7,770000	2020-10-29T19:31:17:869
-21,070000	-31,080000	-4,060000	2020-10-29T19:31:17:886
-1,120000	-35,630001	-1,330000	2020-10-29T19:31:17:909
-6,020000	-34,020000	-0,070000	2020-10-29T19:31:17:925
-11,200000	-37,310001	1,050000	2020-10-29T19:31:17:949
-19,180000	-42,840000	0,210000	2020-10-29T19:31:17:966
-30,170000	-48,580002	-7,350000	2020-10-29T19:31:17:988
-45,779999	-59,430000	-10,080000	2020-10-29T19:31:18:006
-39,200001	-72,449997	-13,090000	2020-10-29T19:31:18:029
-30,309999	-84,489998	-19,180000	2020-10-29T19:31:18:046
-30,309999	-93,870003	-28,350000	2020-10-29T19:31:18:069
-34,369999	-106,470001	-39,200001	2020-10-29T19:31:18:085
-30,100000	-114,449997	-45,150002	2020-10-29T19:31:18:110
-20,510000	-118,510002	-54,670002	2020-10-29T19:31:18:126
-4,690000	-121,870003	-62,860001	2020-10-29T19:31:18:149
-8,050000	-124,180000	-63,770000	2020-10-29T19:31:18:166
-3,220000	-111,720001	-59,990002	2020-10-29T19:31:18:191
-8,540000	-110,250000	-57,610001	2020-10-29T19:31:18:205
-24,360001	-113,400002	-56,910000	2020-10-29T19:31:18:229
-19,250000	-112,840004	-57,330002	2020-10-29T19:31:18:246
-30,030001	-101,989998	-61,110001	2020-10-29T19:31:18:270
-39,970001	-103,389999	-66,360001	2020-10-29T19:31:18:286
-36,330002	-102,059998	-62,860001	2020-10-29T19:31:18:309
-24,290001	-104,230003	-63,910000	2020-10-29T19:31:18:326
-34,930000	-106,889999	-70,209999	2020-10-29T19:31:18:350
-31,010000	-106,540001	-74,269997	2020-10-29T19:31:18:368
-26,040001	-102,340004	-71,330002	2020-10-29T19:31:18:389
-28,070000	-102,830002	-65,730003	2020-10-29T19:31:18:406
-16,309999	-109,059998	-65,660004	2020-10-29T19:31:18:432
-11,480000	-112,279999	-71,470001	2020-10-29T19:31:18:446
-2,240000	-117,110001	-75,250000	2020-10-29T19:31:18:470
0,910000	-118,790001	-84,489998	2020-10-29T19:31:18:486
23,799999	-124,250000	-96,389999	2020-10-29T19:31:18:509
45,080002	-126,209999	-100,870003	2020-10-29T19:31:18:527
61,180000	-125,930000	-101,360001	2020-10-29T19:31:18:549
81,340004	-117,110001	-94,919998	2020-10-29T19:31:18:568
85,610001	-89,110001	-75,809998	2020-10-29T19:31:18:589
87,430000	-53,549999	-50,049999	2020-10-29T19:31:18:608
63,139999	-13,090000	-28,000000	2020-10-29T19:31:18:629
22,469999	25,059999	-12,180000	2020-10-29T19:31:18:647
39,830002	29,120001	16,240000	2020-10-29T19:31:18:672
107,590004	18,969999	26,460001	2020-10-29T19:31:18:687
129,570007	27,790001	19,600000	2020-10-29T19:31:18:709
111,230003	42,980000	-6,720000	2020-10-29T19:31:18:727
65,730003	56,000000	-7,630000	2020-10-29T19:31:18:749
54,110001	64,610001	-3,710000	2020-10-29T19:31:18:790
44,799999	63,770000	0,840000	2020-10-29T19:31:18:793
-16,590000	72,800003	-3,290000	2020-10-29T19:31:18:807
-103,879997	97,860001	-10,360000	2020-10-29T19:31:18:830
-121,870003	90,440002	-6,650000	2020-10-29T19:31:18:848
-97,790001	81,550003	-12,740000	2020-10-29T19:31:18:870
-61,529999	82,320000	-11,060000	2020-10-29T19:31:18:888
39,410000	62,230000	-0,070000	2020-10-29T19:31:18:911
122,849998	46,689999	3,850000	2020-10-29T19:31:18:927
138,669998	43,889999	7,350000	2020-10-29T19:31:18:949
113,120003	48,090000	11,200000	2020-10-29T19:31:18:967
73,919998	51,029999	16,940001	2020-10-29T19:31:18:992
34,160000	54,740002	26,389999	2020-10-29T19:31:19:007
-0,210000	56,000000	36,540001	2020-10-29T19:31:19:030
-27,650000	57,049999	44,170002	2020-10-29T19:31:19:047
-39,200001	52,009998	49,910000	2020-10-29T19:31:19:071
-17,920000	41,580002	59,990002	2020-10-29T19:31:19:086
7,420000	35,980000	69,930000	2020-10-29T19:31:19:109
30,030001	30,030001	77,419998	2020-10-29T19:31:19:127
45,779999	23,940001	83,160004	2020-10-29T19:31:19:153
66,500000	14,840000	89,389999	2020-10-29T19:31:19:167
92,750000	6,720000	91,070000	2020-10-29T19:31:19:190
99,400002	-0,140000	84,769997	2020-10-29T19:31:19:207
78,610001	-1,960000	71,330002	2020-10-29T19:31:19:230
48,020000	-0,980000	52,360001	2020-10-29T19:31:19:247
22,400000	-0,490000	37,660000	2020-10-29T19:31:19:270
6,650000	-2,030000	29,540001	2020-10-29T19:31:19:287
2,730000	-4,550000	27,930000	2020-10-29T19:31:19:310
9,030000	-10,430000	31,780001	2020-10-29T19:31:19:327
25,690001	-16,379999	40,599998	2020-10-29T19:31:19:349
48,930000	-19,040001	54,529999	2020-10-29T19:31:19:368
69,370003	-19,740000	70,559998	2020-10-29T19:31:19:391
84,070000	-19,320000	84,489998	2020-10-29T19:31:19:407
96,320000	-17,430000	95,620003	2020-10-29T19:31:19:430
105,000000	-13,720000	102,760002	2020-10-29T19:31:19:447
104,580002	-8,960000	103,949997	2020-10-29T19:31:19:471
91,910004	-0,560000	99,400002	2020-10-29T19:31:19:487
67,340004	9,240000	90,720001	2020-10-29T19:31:19:510
43,680000	20,370001	77,910004	2020-10-29T19:31:19:527
17,639999	28,910000	63,070000	2020-10-29T19:31:19:550
-9,380000	33,740002	45,290001	2020-10-29T19:31:19:568
-27,440001	38,570000	27,230000	2020-10-29T19:31:19:590
-40,459999	40,250000	8,610000	2020-10-29T19:31:19:607
-50,540001	38,920002	-7,350000	2020-10-29T19:31:19:632
-54,950001	37,099998	-17,639999	2020-10-29T19:31:19:647
-64,610001	29,750000	-23,660000	2020-10-29T19:31:19:670
-78,820000	22,190001	-28,910000	2020-10-29T19:31:19:687
-82,879997	10,850000	-35,070000	2020-10-29T19:31:19:711
-76,790001	-0,910000	-43,330002	2020-10-29T19:31:19:727
-62,930000	-9,520000	-56,000000	2020-10-29T19:31:19:750
-60,130001	-11,340000	-73,150002	2020-10-29T19:31:19:768
-59,220001	-5,390000	-89,599998	2020-10-29T19:31:19:791
-61,599998	2,730000	-100,029999	2020-10-29T19:31:19:808
-63,490002	2,030000	-109,410004	2020-10-29T19:31:19:830
-75,110001	3,710000	-118,860001	2020-10-29T19:31:19:848
-98,000000	11,270000	-122,360001	2020-10-29T19:31:19:873
-122,989998	12,740000	-124,669998	2020-10-29T19:31:19:887
-152,389999	13,650000	-123,760002	2020-10-29T19:31:19:910
-183,470001	23,309999	-111,230003	2020-10-29T19:31:19:928
-197,330002	31,780001	-96,879997	2020-10-29T19:31:19:952
-178,149994	28,000000	-80,500000	2020-10-29T19:31:19:968
-138,039993	14,630000	-66,080002	2020-10-29T19:31:19:990
-98,070000	1,750000	-52,220001	2020-10-29T19:31:20:009
-78,680000	-4,480000	-40,110001	2020-10-29T19:31:20:031
-70,980003	-9,170000	-30,030001	2020-10-29T19:31:20:047
-60,130001	-12,880000	-21,559999	2020-10-29T19:31:20:071
-51,520000	-16,030001	-14,350000	2020-10-29T19:31:20:087
-46,900002	-19,040001	-9,030000	2020-10-29T19:31:20:112
-43,820000	-19,879999	-4,760000	2020-10-29T19:31:20:128
-44,869999	-17,710001	0,910000	2020-10-29T19:31:20:151
-54,459999	-13,860000	7,140000	2020-10-29T19:31:20:168
-63,700001	-17,639999	10,220000	2020-10-29T19:31:20:192
-62,860001	-14,980000	15,960000	2020-10-29T19:31:20:208
-58,730000	-11,690000	16,309999	2020-10-29T19:31:20:230
-60,200001	-7,000000	8,890000	2020-10-29T19:31:20:248
-65,940002	-2,380000	0,140000	2020-10-29T19:31:20:272
-65,099998	-1,190000	-7,210000	2020-10-29T19:31:20:288
-50,820000	-2,380000	-11,340000	2020-10-29T19:31:20:311
-27,719999	-4,270000	-16,940001	2020-10-29T19:31:20:329
-7,000000	-5,740000	-20,719999	2020-10-29T19:31:20:352
2,310000	-3,920000	-23,379999	2020-10-29T19:31:20:368
1,680000	-0,910000	-22,260000	2020-10-29T19:31:20:391
-0,350000	-1,050000	-21,770000	2020-10-29T19:31:20:408
1,260000	-1,330000	-20,160000	2020-10-29T19:31:20:431
2,660000	1,470000	-20,299999	2020-10-29T19:31:20:448
-1,190000	0,630000	-21,280001	2020-10-29T19:31:20:471
-0,980000	9,590000	-16,940001	2020-10-29T19:31:20:488
10,710000	12,670000	-10,430000	2020-10-29T19:31:20:511
24,780001	7,210000	-3,080000	2020-10-29T19:31:20:528
37,240002	2,730000	6,650000	2020-10-29T19:31:20:551
57,400002	-4,690000	16,030001	2020-10-29T19:31:20:569
81,760002	-12,530000	25,549999	2020-10-29T19:31:20:593
103,529999	-13,160000	31,290001	2020-10-29T19:31:20:608
116,970001	-12,670000	38,150002	2020-10-29T19:31:20:631
140,699997	-15,820000	40,389999	2020-10-29T19:31:20:648
159,389999	-19,460001	38,009998	2020-10-29T19:31:20:672
150,009995	-20,299999	37,939999	2020-10-29T19:31:20:688
148,680008	-16,870001	38,150002	2020-10-29T19:31:20:712
153,369995	-10,990000	36,889999	2020-10-29T19:31:20:728
150,500000	-4,340000	37,799999	2020-10-29T19:31:20:752
141,889999	3,780000	38,709999	2020-10-29T19:31:20:769
139,440002	6,650000	41,230000	2020-10-29T19:31:20:791
138,669998	8,680000	42,840000	2020-10-29T19:31:20:808
133,770004	12,600000	45,639999	2020-10-29T19:31:20:833
125,090004	13,020000	44,590000	2020-10-29T19:31:20:848
113,889999	22,889999	45,639999	2020-10-29T19:31:20:872
101,080002	30,240000	47,250000	2020-10-29T19:31:20:888
82,180000	30,730000	48,720001	2020-10-29T19:31:20:912
53,549999	34,299999	49,349998	2020-10-29T19:31:20:928
26,670000	34,230000	49,070000	2020-10-29T19:31:20:951
14,770000	31,150000	48,020000	2020-10-29T19:31:20:969
10,780000	27,790001	47,040001	2020-10-29T19:31:20:992
13,300000	21,840000	46,759998	2020-10-29T19:31:21:009
11,060000	17,360001	46,410000	2020-10-29T19:31:21:031
13,930000	10,290000	46,270000	2020-10-29T19:31:21:048
27,650000	1,680000	46,549999	2020-10-29T19:31:21:074
33,810001	-5,320000	45,500000	2020-10-29T19:31:21:088
40,810001	-12,390000	43,959999	2020-10-29T19:31:21:111
49,770000	-17,150000	43,119999	2020-10-29T19:31:21:128
55,930000	-21,420000	40,599998	2020-10-29T19:31:21:152
56,700001	-23,590000	37,170002	2020-10-29T19:31:21:169
53,689999	-22,820000	33,670002	2020-10-29T19:31:21:192
48,720001	-22,750000	29,820000	2020-10-29T19:31:21:209
43,540001	-23,799999	26,110001	2020-10-29T19:31:21:232
36,959999	-25,129999	19,530001	2020-10-29T19:31:21:249
35,700001	-27,230000	9,660000	2020-10-29T19:31:21:272
36,540001	-20,580000	-0,210000	2020-10-29T19:31:21:289
35,700001	-15,680000	-11,200000	2020-10-29T19:31:21:313
30,380001	-13,720000	-25,059999	2020-10-29T19:31:21:329
21,070000	-5,810000	-33,810001	2020-10-29T19:31:21:351
11,830000	-1,960000	-38,570000	2020-10-29T19:31:21:370
10,080000	-2,940000	-39,200001	2020-10-29T19:31:21:392
13,160000	-6,790000	-38,430000	2020-10-29T19:31:21:409
16,450001	-14,280000	-37,869999	2020-10-29T19:31:21:432
21,280001	-18,480000	-37,170002	2020-10-29T19:31:21:449
28,070000	-15,540000	-38,360001	2020-10-29T19:31:21:473
27,719999	-11,060000	-41,299999	2020-10-29T19:31:21:489
21,350000	-7,770000	-47,389999	2020-10-29T19:31:21:512
10,780000	-5,950000	-52,009998	2020-10-29T19:31:21:529
-0,350000	-5,040000	-53,480000	2020-10-29T19:31:21:554
-7,420000	-7,000000	-51,869999	2020-10-29T19:31:21:570
-5,670000	-12,110000	-48,439999	2020-10-29T19:31:21:592
5,530000	-19,040001	-44,170002	2020-10-29T19:31:21:609
20,860001	-26,389999	-39,060001	2020-10-29T19:31:21:632
38,500000	-35,070000	-33,810001	2020-10-29T19:31:21:649
52,570000	-40,599998	-28,210001	2020-10-29T19:31:21:673
56,560001	-41,930000	-22,960001	2020-10-29T19:31:21:689
53,549999	-42,349998	-17,710001	2020-10-29T19:31:21:713
50,889999	-43,189999	-12,040000	2020-10-29T19:31:21:729
50,680000	-42,560001	-6,650000	2020-10-29T19:31:21:752
51,799999	-42,070000	-1,190000	2020-10-29T19:31:21:770
53,830002	-41,020000	4,900000	2020-10-29T19:31:21:794
56,139999	-39,200001	11,060000	2020-10-29T19:31:21:809
58,240002	-37,240002	17,080000	2020-10-29T19:31:21:832
59,150002	-34,439999	22,540001	2020-10-29T19:31:21:850
57,470001	-30,309999	28,210001	2020-10-29T19:31:21:874
54,740002	-26,460001	33,389999	2020-10-29T19:31:21:889
52,080002	-24,990000	37,730000	2020-10-29T19:31:21:912
49,279999	-24,430000	41,650002	2020-10-29T19:31:21:929
49,980000	-25,760000	44,240002	2020-10-29T19:31:21:953
51,380001	-25,690001	46,410000	2020-10-29T19:31:21:970
46,130001	-21,000000	47,950001	2020-10-29T19:31:21:991
33,670002	-16,309999	47,110001	2020-10-29T19:31:22:010
23,240000	-17,780001	41,299999	2020-10-29T19:31:22:034
14,210000	-9,310000	35,840000	2020-10-29T19:31:22:050
6,650000	4,200000	32,830002	2020-10-29T19:31:22:073
0,070000	3,920000	30,730000	2020-10-29T19:31:22:089
-5,880000	3,570000	30,100000	2020-10-29T19:31:22:113
1,260000	4,130000	33,670002	2020-10-29T19:31:22:129
17,780001	0,840000	38,150002	2020-10-29T19:31:22:152
32,970001	-4,480000	41,439999	2020-10-29T19:31:22:170
48,160000	-11,620000	43,959999	2020-10-29T19:31:22:193
66,220001	-13,860000	46,619999	2020-10-29T19:31:22:210
80,080002	-12,460000	49,349998	2020-10-29T19:31:22:232
81,900002	-10,990000	51,310001	2020-10-29T19:31:22:250
76,370003	-10,150000	53,549999	2020-10-29T19:31:22:275
71,680000	-10,500000	56,420002	2020-10-29T19:31:22:289
69,580002	-10,850000	59,010002	2020-10-29T19:31:22:312
65,029999	-7,070000	62,230000	2020-10-29T19:31:22:330
52,570000	-3,500000	62,299999	2020-10-29T19:31:22:354
51,869999	-2,520000	61,670002	2020-10-29T19:31:22:371
54,950001	-0,490000	59,709999	2020-10-29T19:31:22:393
56,209999	2,520000	56,139999	2020-10-29T19:31:22:410
54,459999	5,810000	49,910000	2020-10-29T19:31:22:434
51,310001	9,520000	42,840000	2020-10-29T19:31:22:450
48,160000	13,510000	35,770000	2020-10-29T19:31:22:473
43,750000	17,500000	30,730000	2020-10-29T19:31:22:490
34,720001	22,190001	27,440001	2020-10-29T19:31:22:515
22,750000	24,360001	26,460001	2020-10-29T19:31:22:530
8,820000	24,780001	25,900000	2020-10-29T19:31:22:552
-9,100000	23,799999	26,250000	2020-10-29T19:31:22:571
-19,460001	20,090000	26,809999	2020-10-29T19:31:22:594
-31,080000	15,820000	26,180000	2020-10-29T19:31:22:610
-35,279999	10,780000	23,170000	2020-10-29T19:31:22:633
-32,830002	4,060000	17,219999	2020-10-29T19:31:22:650
-23,450001	-2,730000	9,310000	2020-10-29T19:31:22:674
-11,690000	-5,600000	1,750000	2020-10-29T19:31:22:690
-4,480000	-7,210000	-8,120000	2020-10-29T19:31:22:713
1,610000	-8,190000	-17,920000	2020-10-29T19:31:22:730
4,970000	-13,720000	-33,740002	2020-10-29T19:31:22:755
6,510000	-16,730000	-52,990002	2020-10-29T19:31:22:771
7,210000	-6,230000	-68,320000	2020-10-29T19:31:22:793
4,900000	-2,730000	-85,680000	2020-10-29T19:31:22:810
-13,090000	7,210000	-96,529999	2020-10-29T19:31:22:834
-34,790001	19,600000	-95,550003	2020-10-29T19:31:22:851
-45,709999	20,790001	-86,590004	2020-10-29T19:31:22:874
-49,209999	16,520000	-74,760002	2020-10-29T19:31:22:890
-51,730000	11,340000	-61,950001	2020-10-29T19:31:22:914
-52,220001	7,420000	-52,920002	2020-10-29T19:31:22:931
-45,920002	8,120000	-48,509998	2020-10-29T19:31:22:953
-38,080002	14,140000	-46,270000	2020-10-29T19:31:22:971
-42,630001	24,150000	-47,389999	2020-10-29T19:31:22:996
-63,910000	38,290001	-50,259998	2020-10-29T19:31:23:010
-101,010002	52,290001	-52,920002	2020-10-29T19:31:23:033
-138,809998	59,639999	-53,340000	2020-10-29T19:31:23:051
-165,899994	63,279999	-52,430000	2020-10-29T19:31:23:075
-180,809998	62,090000	-51,380001	2020-10-29T19:31:23:090
-182,770004	55,160000	-50,959999	2020-10-29T19:31:23:113
-165,479996	46,340000	-50,400002	2020-10-29T19:31:23:131
-136,779999	37,730000	-50,820000	2020-10-29T19:31:23:153
-109,900002	29,680000	-52,430000	2020-10-29T19:31:23:171
-89,669998	22,960001	-55,930000	2020-10-29T19:31:23:193
-79,029999	16,940001	-59,709999	2020-10-29T19:31:23:211
-70,000000	10,360000	-62,580002	2020-10-29T19:31:23:236
-61,740002	6,090000	-63,349998	2020-10-29T19:31:23:251
-58,380001	3,150000	-62,299999	2020-10-29T19:31:23:274
-57,330002	0,070000	-60,480000	2020-10-29T19:31:23:291
-54,880001	-3,010000	-59,010002	2020-10-29T19:31:23:314
-52,570000	-5,880000	-56,910000	2020-10-29T19:31:23:330
-51,310001	-8,260000	-55,160000	2020-10-29T19:31:23:354
-52,009998	-7,560000	-52,920002	2020-10-29T19:31:23:371
-50,889999	-8,120000	-50,119999	2020-10-29T19:31:23:394
-46,549999	-9,520000	-46,619999	2020-10-29T19:31:23:411
-39,759998	-10,780000	-39,060001	2020-10-29T19:31:23:434
-36,259998	-11,340000	-32,689999	2020-10-29T19:31:23:451
-31,920000	-13,370000	-24,080000	2020-10-29T19:31:23:477
-26,320000	-17,010000	-13,510000	2020-10-29T19:31:23:491
-20,719999	-20,160000	-3,710000	2020-10-29T19:31:23:514
-17,150000	-14,420000	2,450000	2020-10-29T19:31:23:531
-18,059999	-6,160000	2,730000	2020-10-29T19:31:23:554
-25,969999	4,130000	-0,490000	2020-10-29T19:31:23:572
-35,560001	11,060000	0,560000	2020-10-29T19:31:23:593
-36,189999	16,030001	5,600000	2020-10-29T19:31:23:611
-33,950001	18,059999	15,120000	2020-10-29T19:31:23:635
-30,030001	15,190001	25,830000	2020-10-29T19:31:23:651
-20,090000	13,790000	35,279999	2020-10-29T19:31:23:674
-13,650000	18,620001	46,900002	2020-10-29T19:31:23:691
-21,629999	28,070000	59,990002	2020-10-29T19:31:23:716
-42,349998	31,360001	68,389999	2020-10-29T19:31:23:731
-69,930000	35,840000	76,650002	2020-10-29T19:31:23:754
-92,680000	36,049999	85,190002	2020-10-29T19:31:23:772
-98,980003	31,710001	92,750000	2020-10-29T19:31:23:795
-94,709999	30,520000	99,190002	2020-10-29T19:31:23:811
-80,989998	31,990000	103,110001	2020-10-29T19:31:23:834
-57,820000	26,040001	101,080002	2020-10-29T19:31:23:852
-32,200001	19,740000	93,660004	2020-10-29T19:31:23:875
-12,600000	27,790001	84,769997	2020-10-29T19:31:23:891
-9,380000	43,610001	76,510002	2020-10-29T19:31:23:915
-18,760000	52,920002	64,750000	2020-10-29T19:31:23:931
-31,639999	56,490002	49,840000	2020-10-29T19:31:23:957
-47,950001	60,060001	38,990002	2020-10-29T19:31:23:972
-65,800003	65,519997	31,850000	2020-10-29T19:31:23:994
-79,239998	65,449997	25,900000	2020-10-29T19:31:24:014
-72,169998	60,200001	21,420000	2020-10-29T19:31:24:036
-49,700001	54,670002	17,290001	2020-10-29T19:31:24:051
-25,480000	49,420002	7,490000	2020-10-29T19:31:24:075
-12,250000	48,020000	-4,060000	2020-10-29T19:31:24:091
-29,820000	53,060001	-23,450001	2020-10-29T19:31:24:115
-55,160000	67,410004	-40,950001	2020-10-29T19:31:24:132
-79,660004	79,730003	-55,930000	2020-10-29T19:31:24:158
-107,239998	86,800003	-68,110001	2020-10-29T19:31:24:172
-132,440002	99,540001	-73,080002	2020-10-29T19:31:24:196
-151,339996	105,769997	-72,590004	2020-10-29T19:31:24:212
-161,630005	105,769997	-71,750000	2020-10-29T19:31:24:234
-163,029999	100,800003	-68,949997	2020-10-29T19:31:24:253
-157,779999	94,500000	-64,750000	2020-10-29T19:31:24:276
-150,850006	86,660004	-62,580002	2020-10-29T19:31:24:292
-145,880005	77,629997	-61,110001	2020-10-29T19:31:24:315
-135,309998	67,830002	-58,029999	2020-10-29T19:31:24:332
-113,750000	56,349998	-55,580002	2020-10-29T19:31:24:355
-89,809998	44,240002	-53,689999	2020-10-29T19:31:24:372
-63,420002	32,970001	-52,220001	2020-10-29T19:31:24:395
-36,259998	23,450001	-50,189999	2020-10-29T19:31:24:412
-13,230000	15,610000	-47,389999	2020-10-29T19:31:24:437
1,890000	10,290000	-41,860001	2020-10-29T19:31:24:452
5,460000	8,050000	-35,700001	2020-10-29T19:31:24:475
-8,680000	10,290000	-28,210001	2020-10-29T19:31:24:492
-19,110001	16,660000	-17,080000	2020-10-29T19:31:24:515
0,210000	24,639999	-5,180000	2020-10-29T19:31:24:532
6,440000	23,240000	0,350000	2020-10-29T19:31:24:554
-28,770000	27,230000	3,290000	2020-10-29T19:31:24:572
-58,450001	29,680000	3,150000	2020-10-29T19:31:24:595
-67,970001	24,290001	-1,890000	2020-10-29T19:31:24:612
-49,770000	9,660000	-4,410000	2020-10-29T19:31:24:635
-19,460001	2,310000	-1,190000	2020-10-29T19:31:24:652
10,430000	-7,280000	0,910000	2020-10-29T19:31:24:676
33,529999	-15,050000	-2,590000	2020-10-29T19:31:24:692
35,560001	-20,719999	-5,460000	2020-10-29T19:31:24:715
27,230000	-15,610000	-8,330000	2020-10-29T19:31:24:732
7,630000	-13,860000	-1,120000	2020-10-29T19:31:24:755
-9,030000	-16,450001	9,520000	2020-10-29T19:31:24:773
14,770000	-23,170000	13,230000	2020-10-29T19:31:24:794
54,670002	-28,910000	15,540000	2020-10-29T19:31:24:812
87,290001	-32,619999	18,900000	2020-10-29T19:31:24:836
100,099998	-34,020000	17,570000	2020-10-29T19:31:24:854
81,550003	-28,280001	10,360000	2020-10-29T19:31:24:876
59,150002	-21,700001	6,090000	2020-10-29T19:31:24:892
27,160000	-7,420000	1,960000	2020-10-29T19:31:24:918
2,450000	3,710000	1,400000	2020-10-29T19:31:24:932
-28,000000	9,870000	5,320000	2020-10-29T19:31:24:955
-37,170002	6,020000	2,590000	2020-10-29T19:31:24:973
-34,650002	2,310000	2,380000	2020-10-29T19:31:24:996
-33,810001	1,190000	2,520000	2020-10-29T19:31:25:012
-49,139999	3,010000	1,750000	2020-10-29T19:31:25:036
-73,779999	1,330000	-0,070000	2020-10-29T19:31:25:052
-97,580002	4,830000	1,960000	2020-10-29T19:31:25:077
-96,669998	10,920000	6,580000	2020-10-29T19:31:25:092
-49,209999	13,440001	14,420000	2020-10-29T19:31:25:115
-15,820000	18,480000	22,540001	2020-10-29T19:31:25:132
-44,799999	34,790001	22,120001	2020-10-29T19:31:25:159
-79,940002	43,610001	22,120001	2020-10-29T19:31:25:173
-92,750000	42,980000	23,590000	2020-10-29T19:31:25:196
-87,919998	43,189999	25,830000	2020-10-29T19:31:25:213
-61,810001	39,130001	29,330000	2020-10-29T19:31:25:237
-23,660000	34,860001	32,830002	2020-10-29T19:31:25:253
11,900000	31,010000	35,630001	2020-10-29T19:31:25:276
41,090000	23,100000	39,759998	2020-10-29T19:31:25:293
54,880001	22,049999	42,700001	2020-10-29T19:31:25:316
73,639999	27,790001	47,040001	2020-10-29T19:31:25:333
74,269997	35,349998	48,230000	2020-10-29T19:31:25:356
49,209999	46,270000	48,509998	2020-10-29T19:31:25:373
17,360001	55,090000	44,799999	2020-10-29T19:31:25:398
-11,480000	62,230000	43,820000	2020-10-29T19:31:25:413
-27,719999	64,540001	40,320000	2020-10-29T19:31:25:436
-29,820000	61,320000	42,980000	2020-10-29T19:31:25:453
0,770000	53,480000	50,540001	2020-10-29T19:31:25:478
37,029999	43,400002	49,910000	2020-10-29T19:31:25:493
49,490002	40,040001	51,240002	2020-10-29T19:31:25:516
13,650000	49,279999	51,450001	2020-10-29T19:31:25:533
-46,480000	77,840004	54,110001	2020-10-29T19:31:25:557
-31,639999	84,699997	56,349998	2020-10-29T19:31:25:574
-59,990002	77,840004	32,619999	2020-10-29T19:31:25:596
-80,220001	79,239998	30,870001	2020-10-29T19:31:25:613
-75,320000	80,639999	39,759998	2020-10-29T19:31:25:638
-49,840000	71,400002	47,599998	2020-10-29T19:31:25:654
-38,570000	57,189999	43,470001	2020-10-29T19:31:25:677
-28,350000	52,009998	50,820000	2020-10-29T19:31:25:694
-16,730000	51,869999	60,270000	2020-10-29T19:31:25:717
-0,700000	50,119999	57,540001	2020-10-29T19:31:25:733
13,580000	52,360001	53,270000	2020-10-29T19:31:25:756
23,379999	54,599998	50,959999	2020-10-29T19:31:25:774
24,639999	52,920002	45,500000	2020-10-29T19:31:25:797
23,100000	51,869999	41,439999	2020-10-29T19:31:25:813
14,840000	50,119999	34,930000	2020-10-29T19:31:25:836
11,970000	45,360001	31,219999	2020-10-29T19:31:25:853
25,410000	38,709999	29,610001	2020-10-29T19:31:25:878
37,799999	34,930000	30,450001	2020-10-29T19:31:25:893
38,709999	32,830002	28,770000	2020-10-29T19:31:25:916
34,090000	29,260000	23,379999	2020-10-29T19:31:25:934
24,150000	26,040001	18,059999	2020-10-29T19:31:25:957
16,379999	16,730000	6,510000	2020-10-29T19:31:25:974
11,900000	5,740000	-5,110000	2020-10-29T19:31:25:996
11,970000	-6,230000	-15,820000	2020-10-29T19:31:26:013
18,340000	-10,290000	-16,450001	2020-10-29T19:31:26:036
25,830000	-14,770000	-17,990000	2020-10-29T19:31:26:054
31,500000	-17,360001	-17,080000	2020-10-29T19:31:26:077
34,020000	-20,510000	-17,570000	2020-10-29T19:31:26:093
34,090000	-22,960001	-13,720000	2020-10-29T19:31:26:117
46,689999	-27,719999	-7,000000	2020-10-29T19:31:26:133
64,260002	-32,340000	-2,100000	2020-10-29T19:31:26:156
80,919998	-33,110001	-1,750000	2020-10-29T19:31:26:174
80,010002	-29,330000	-4,830000	2020-10-29T19:31:26:197
58,869999	-24,430000	-8,960000	2020-10-29T19:31:26:213
40,880001	-20,370001	-10,780000	2020-10-29T19:31:26:236
38,570000	-17,710001	-11,130000	2020-10-29T19:31:26:254
36,889999	-15,540000	-11,340000	2020-10-29T19:31:26:278
33,880001	-12,600000	-9,730000	2020-10-29T19:31:26:294
33,810001	-9,590000	-7,210000	2020-10-29T19:31:26:317
33,529999	-5,600000	-5,320000	2020-10-29T19:31:26:333
31,150000	-2,240000	-4,130000	2020-10-29T19:31:26:358
27,230000	0,420000	-3,710000	2020-10-29T19:31:26:374
18,760000	2,940000	-4,200000	2020-10-29T19:31:26:397
8,120000	6,300000	-3,990000	2020-10-29T19:31:26:414
-0,770000	8,890000	-3,080000	2020-10-29T19:31:26:438
-6,440000	10,150000	-1,820000	2020-10-29T19:31:26:454
-13,020000	10,780000	-0,700000	2020-10-29T19:31:26:477
-18,549999	10,430000	0,350000	2020-10-29T19:31:26:494
-19,250000	10,360000	1,540000	2020-10-29T19:31:26:518
-15,330000	10,150000	3,360000	2020-10-29T19:31:26:534
-11,620000	9,800000	4,410000	2020-10-29T19:31:26:557
-9,380000	8,750000	5,530000	2020-10-29T19:31:26:575
-9,730000	7,840000	5,250000	2020-10-29T19:31:26:599
-12,810000	7,700000	4,410000	2020-10-29T19:31:26:614
-14,840000	7,280000	4,200000	2020-10-29T19:31:26:637
-12,040000	5,950000	4,200000	2020-10-29T19:31:26:654
-8,260000	4,900000	5,600000	2020-10-29T19:31:26:678
-5,040000	5,390000	6,090000	2020-10-29T19:31:26:694
-12,250000	8,960000	0,840000	2020-10-29T19:31:26:717
-34,720001	10,080000	0,560000	2020-10-29T19:31:26:734
-39,619999	10,360000	2,520000	2020-10-29T19:31:26:758
-34,930000	11,060000	5,180000	2020-10-29T19:31:26:775
-37,170002	14,280000	7,350000	2020-10-29T19:31:26:797
-37,660000	16,660000	10,150000	2020-10-29T19:31:26:814
-32,270000	16,170000	13,580000	2020-10-29T19:31:26:839
-22,820000	13,720000	17,920000	2020-10-29T19:31:26:855
-8,050000	11,130000	22,610001	2020-10-29T19:31:26:879
2,940000	10,220000	25,969999	2020-10-29T19:31:26:895
4,550000	10,780000	27,580000	2020-10-29T19:31:26:918
-2,240000	12,320000	26,530001	2020-10-29T19:31:26:935
-14,350000	14,840000	23,100000	2020-10-29T19:31:26:957
-19,040001	15,610000	20,860001	2020-10-29T19:31:26:975
-12,950000	13,510000	20,440001	2020-10-29T19:31:26:998
-9,450000	10,430000	18,129999	2020-10-29T19:31:27:015
-8,610000	10,710000	13,720000	2020-10-29T19:31:27:038
-15,400000	12,320000	9,800000	2020-10-29T19:31:27:054
-23,590000	14,980000	5,460000	2020-10-29T19:31:27:082
-20,510000	14,490000	4,900000	2020-10-29T19:31:27:094
-13,300000	13,300000	6,930000	2020-10-29T19:31:27:117
-14,420000	14,560000	5,460000	2020-10-29T19:31:27:135
-25,969999	16,799999	-1,400000	2020-10-29T19:31:27:160
-39,480000	17,920000	-6,510000	2020-10-29T19:31:27:175
-34,860001	17,570000	-8,890000	2020-10-29T19:31:27:199
-19,950001	13,300000	-11,270000	2020-10-29T19:31:27:215
-4,550000	7,700000	-14,560000	2020-10-29T19:31:27:239
1,330000	13,790000	-22,190001	2020-10-29T19:31:27:255
-17,780001	20,160000	-28,910000	2020-10-29T19:31:27:279
-32,970001	13,720000	-32,549999	2020-10-29T19:31:27:295
-26,880001	-2,590000	-34,720001	2020-10-29T19:31:27:321
-14,490000	-20,230000	-35,630001	2020-10-29T19:31:27:335
-2,450000	-34,020000	-37,939999	2020-10-29T19:31:27:358
6,440000	-43,889999	-35,980000	2020-10-29T19:31:27:375
-8,260000	-43,119999	-34,930000	2020-10-29T19:31:27:399
-36,119999	-33,599998	-34,720001	2020-10-29T19:31:27:415
-41,580002	-27,930000	-38,990002	2020-10-29T19:31:27:439
-37,730000	-25,830000	-39,060001	2020-10-29T19:31:27:455
-28,910000	-29,400000	-45,639999	2020-10-29T19:31:27:479
-5,110000	-36,680000	-50,049999	2020-10-29T19:31:27:495
17,920000	-44,310001	-47,599998	2020-10-29T19:31:27:518
22,330000	-47,599998	-47,320000	2020-10-29T19:31:27:535
9,940000	-44,869999	-50,119999	2020-10-29T19:31:27:560
-19,040001	-42,279999	-51,869999	2020-10-29T19:31:27:575
-27,719999	-43,470001	-54,670002	2020-10-29T19:31:27:598
-29,049999	-45,360001	-61,950001	2020-10-29T19:31:27:615
-30,030001	-48,790001	-66,500000	2020-10-29T19:31:27:639
-30,590000	-53,340000	-67,340004	2020-10-29T19:31:27:655
-32,130001	-57,330002	-66,500000	2020-10-29T19:31:27:679
-34,860001	-62,580002	-68,459999	2020-10-29T19:31:27:695
-28,559999	-68,459999	-72,730003	2020-10-29T19:31:27:720
-16,100000	-89,669998	-87,570000	2020-10-29T19:31:27:735
4,060000	-105,910004	-98,209999	2020-10-29T19:31:27:758
4,060000	-109,620003	-115,709999	2020-10-29T19:31:27:776
-8,190000	-100,660004	-123,270004	2020-10-29T19:31:27:800
-8,260000	-96,180000	-130,970001	2020-10-29T19:31:27:815
-10,430000	-85,260002	-132,509995	2020-10-29T19:31:27:838
-0,980000	-79,099998	-130,970001	2020-10-29T19:31:27:856
-26,110001	-48,790001	-123,480003	2020-10-29T19:31:27:879
-83,650002	-21,629999	-103,599998	2020-10-29T19:31:27:895
-97,090004	-2,870000	-86,309998	2020-10-29T19:31:27:918
-81,970001	-5,740000	-70,209999	2020-10-29T19:31:27:935
-70,769997	-0,910000	-53,130001	2020-10-29T19:31:27:959
-47,459999	-0,910000	-37,170002	2020-10-29T19:31:27:976
-21,420000	-3,780000	-23,309999	2020-10-29T19:31:27:999
6,650000	-8,260000	-15,470000	2020-10-29T19:31:28:017
11,900000	-1,050000	-9,940000	2020-10-29T19:31:28:040
32,900002	-7,000000	5,880000	2020-10-29T19:31:28:055
62,580002	-3,990000	3,990000	2020-10-29T19:31:28:078
39,619999	-1,050000	2,240000	2020-10-29T19:31:28:095
-1,190000	10,570000	-3,430000	2020-10-29T19:31:28:120
-11,060000	16,309999	-5,740000	2020-10-29T19:31:28:135
-21,770000	20,790001	-5,250000	2020-10-29T19:31:28:158
-33,950001	28,000000	-4,200000	2020-10-29T19:31:28:176
-39,410000	32,340000	-1,470000	2020-10-29T19:31:28:199
-37,099998	34,439999	0,350000	2020-10-29T19:31:28:215
-46,060001	35,209999	-1,260000	2020-10-29T19:31:28:238
-62,580002	37,869999	-4,970000	2020-10-29T19:31:28:256
-81,269997	42,700001	-8,260000	2020-10-29T19:31:28:281
-99,400002	44,240002	-11,760000	2020-10-29T19:31:28:295
-116,970001	45,360001	-14,070000	2020-10-29T19:31:28:318
-126,419998	43,259998	-13,930000	2020-10-29T19:31:28:336
-128,449997	38,500000	-10,430000	2020-10-29T19:31:28:359
-113,680000	32,480000	-4,830000	2020-10-29T19:31:28:376
-102,480003	28,840000	0,980000	2020-10-29T19:31:28:399
-107,169998	29,190001	7,910000	2020-10-29T19:31:28:416
-108,290001	31,010000	14,630000	2020-10-29T19:31:28:440
-103,040001	32,480000	19,670000	2020-10-29T19:31:28:456
-93,379997	31,780001	23,660000	2020-10-29T19:31:28:479
-77,489998	27,440001	24,430000	2020-10-29T19:31:28:496
-56,490002	24,500000	23,590000	2020-10-29T19:31:28:522
-38,009998	21,280001	20,160000	2020-10-29T19:31:28:536
-18,900000	17,010000	13,370000	2020-10-29T19:31:28:559
-1,960000	9,800000	3,010000	2020-10-29T19:31:28:576
13,020000	14,070000	-14,210000	2020-10-29T19:31:28:600
10,150000	16,940001	-28,700001	2020-10-29T19:31:28:616
2,100000	20,719999	-40,459999	2020-10-29T19:31:28:639
1,960000	19,180000	-48,930000	2020-10-29T19:31:28:656
3,920000	19,250000	-54,389999	2020-10-29T19:31:28:680
5,950000	19,040001	-52,290001	2020-10-29T19:31:28:696
10,640000	15,750000	-44,660000	2020-10-29T19:31:28:719
20,510000	9,870000	-34,369999	2020-10-29T19:31:28:736
31,920000	3,080000	-24,710001	2020-10-29T19:31:28:761
39,130001	-2,870000	-16,309999	2020-10-29T19:31:28:776
41,369999	-5,320000	-11,830000	2020-10-29T19:31:28:799
39,900002	-6,020000	-11,690000	2020-10-29T19:31:28:816
33,950001	-4,690000	-13,790000	2020-10-29T19:31:28:840
18,690001	0,980000	-17,080000	2020-10-29T19:31:28:856
5,880000	5,670000	-18,340000	2020-10-29T19:31:28:880
-4,690000	9,100000	-18,059999	2020-10-29T19:31:28:896
-9,660000	10,780000	-15,750000	2020-10-29T19:31:28:920
-8,050000	11,830000	-11,200000	2020-10-29T19:31:28:936
-5,040000	12,670000	-5,110000	2020-10-29T19:31:28:959
-4,410000	14,560000	1,470000	2020-10-29T19:31:28:977
-5,880000	16,240000	7,420000	2020-10-29T19:31:29:004
-8,260000	17,150000	13,300000	2020-10-29T19:31:29:017
-11,830000	17,990000	18,129999	2020-10-29T19:31:29:040
-13,510000	18,760000	21,629999	2020-10-29T19:31:29:056
-13,720000	19,250000	23,590000	2020-10-29T19:31:29:081
-12,950000	19,460001	23,799999	2020-10-29T19:31:29:096
-11,550000	19,250000	22,330000	2020-10-29T19:31:29:119
-9,170000	18,620001	18,760000	2020-10-29T19:31:29:136
-9,590000	19,670000	14,280000	2020-10-29T19:31:29:160
-8,120000	19,110001	10,990000	2020-10-29T19:31:29:186
-9,800000	21,629999	8,190000	2020-10-29T19:31:29:199
-10,430000	22,820000	6,930000	2020-10-29T19:31:29:216
-5,950000	24,010000	7,140000	2020-10-29T19:31:29:242
-2,520000	22,469999	6,790000	2020-10-29T19:31:29:256
-1,610000	18,969999	1,190000	2020-10-29T19:31:29:279
-0,980000	22,400000	-2,660000	2020-10-29T19:31:29:297
-5,950000	29,120001	-4,900000	2020-10-29T19:31:29:321
-20,299999	34,930000	-4,410000	2020-10-29T19:31:29:337
-35,560001	40,040001	-1,540000	2020-10-29T19:31:29:360
-43,540001	38,290001	6,720000	2020-10-29T19:31:29:377
-38,220001	29,540001	14,070000	2020-10-29T19:31:29:400
-29,889999	19,460001	12,600000	2020-10-29T19:31:29:417
-26,320000	14,070000	8,610000	2020-10-29T19:31:29:440
-27,580000	16,170000	2,870000	2020-10-29T19:31:29:457
-34,439999	25,340000	-3,290000	2020-10-29T19:31:29:483
-50,959999	36,540001	-9,730000	2020-10-29T19:31:29:497
-69,440002	39,549999	-15,120000	2020-10-29T19:31:29:519
-77,980003	34,580002	-18,969999	2020-10-29T19:31:29:537
-82,110001	27,160000	-21,629999	2020-10-29T19:31:29:560
-78,820000	17,570000	-24,430000	2020-10-29T19:31:29:577
-65,800003	8,120000	-26,950001	2020-10-29T19:31:29:600
-45,570000	-0,420000	-28,770000	2020-10-29T19:31:29:617
-24,430000	-8,960000	-29,540001	2020-10-29T19:31:29:640
-15,120000	-14,770000	-33,740002	2020-10-29T19:31:29:657
-40,459999	-14,140000	-39,900002	2020-10-29T19:31:29:680
-78,889999	-7,980000	-46,410000	2020-10-29T19:31:29:697
-86,660004	-5,530000	-48,439999	2020-10-29T19:31:29:721
-41,650002	-12,740000	-46,340000	2020-10-29T19:31:29:737
21,490000	-22,960001	-43,750000	2020-10-29T19:31:29:760
58,240002	-29,610001	-41,160000	2020-10-29T19:31:29:778
60,900002	-31,500000	-37,170002	2020-10-29T19:31:29:801
49,770000	-31,290001	-32,480000	2020-10-29T19:31:29:817
38,500000	-28,770000	-28,350000	2020-10-29T19:31:29:840
28,770000	-25,900000	-25,200001	2020-10-29T19:31:29:857
19,320000	-22,540001	-22,680000	2020-10-29T19:31:29:881
5,460000	-17,219999	-19,530001	2020-10-29T19:31:29:897
-10,290000	-11,200000	-15,260000	2020-10-29T19:31:29:919
-21,770000	-7,980000	-8,470000	2020-10-29T19:31:29:937
-28,420000	-3,500000	-3,570000	2020-10-29T19:31:29:962
-36,330002	0,630000	-3,570000	2020-10-29T19:31:29:978
-37,590000	3,640000	3,640000	2020-10-29T19:31:30:000
-27,719999	3,780000	6,510000	2020-10-29T19:31:30:018
-11,900000	1,750000	6,300000	2020-10-29T19:31:30:040
-0,140000	2,310000	5,320000	2020-10-29T19:31:30:057
8,890000	7,420000	3,570000	2020-10-29T19:31:30:081
12,670000	9,170000	3,500000	2020-10-29T19:31:30:097
4,900000	12,530000	3,570000	2020-10-29T19:31:30:120
-2,310000	16,309999	6,930000	2020-10-29T19:31:30:137
3,080000	15,400000	12,460000	2020-10-29T19:31:30:160
10,920000	13,370000	18,549999	2020-10-29T19:31:30:178
15,820000	12,950000	24,500000	2020-10-29T19:31:30:202
18,340000	11,480000	29,680000	2020-10-29T19:31:30:219
18,480000	12,670000	33,950001	2020-10-29T19:31:30:240
11,970000	10,150000	37,380001	2020-10-29T19:31:30:258
1,190000	11,410000	36,889999	2020-10-29T19:31:30:281
-0,280000	13,580000	34,930000	2020-10-29T19:31:30:297
11,970000	12,740000	34,509998	2020-10-29T19:31:30:320
26,389999	8,050000	35,980000	2020-10-29T19:31:30:337
34,860001	6,860000	39,270000	2020-10-29T19:31:30:361
36,119999	4,620000	45,080002	2020-10-29T19:31:30:378
38,009998	0,490000	49,980000	2020-10-29T19:31:30:401
42,490002	-3,500000	54,320000	2020-10-29T19:31:30:418
44,520000	-7,490000	57,470001	2020-10-29T19:31:30:445
44,240002	-8,610000	59,430000	2020-10-29T19:31:30:458
46,410000	-11,270000	61,180000	2020-10-29T19:31:30:481
53,060001	-14,210000	62,090000	2020-10-29T19:31:30:498
62,369999	-18,690001	61,529999	2020-10-29T19:31:30:521
71,050003	-22,400000	59,080002	2020-10-29T19:31:30:537
77,910004	-23,379999	55,160000	2020-10-29T19:31:30:561
81,199997	-23,590000	50,330002	2020-10-29T19:31:30:579
79,800003	-23,799999	44,869999	2020-10-29T19:31:30:601
74,340004	-22,820000	37,170002	2020-10-29T19:31:30:618
67,690002	-22,680000	28,420000	2020-10-29T19:31:30:642
61,180000	-22,540001	20,160000	2020-10-29T19:31:30:658
57,049999	-21,840000	12,110000	2020-10-29T19:31:30:683
56,910000	-21,770000	5,250000	2020-10-29T19:31:30:698
58,240002	-20,440001	0,070000	2020-10-29T19:31:30:721
58,590000	-19,460001	-3,990000	2020-10-29T19:31:30:738
57,260002	-18,340000	-8,890000	2020-10-29T19:31:30:762
49,000000	-18,690001	-13,580000	2020-10-29T19:31:30:778
37,170002	-19,879999	-19,530001	2020-10-29T19:31:30:801
29,889999	-20,790001	-24,920000	2020-10-29T19:31:30:818
23,730000	-23,379999	-29,120001	2020-10-29T19:31:30:842
19,600000	-33,529999	-38,779999	2020-10-29T19:31:30:858
12,670000	-33,529999	-52,290001	2020-10-29T19:31:30:882
1,540000	-25,059999	-61,670002	2020-10-29T19:31:30:898
-10,220000	-21,559999	-68,949997	2020-10-29T19:31:30:923
-20,160000	-21,840000	-74,059998	2020-10-29T19:31:30:938
-25,059999	-18,340000	-70,139999	2020-10-29T19:31:30:961
-23,450001	-18,129999	-63,070000	2020-10-29T19:31:30:979
-24,920000	-22,330000	-57,260002	2020-10-29T19:31:31:002
-26,530001	-22,260000	-45,290001	2020-10-29T19:31:31:018
-11,480000	-16,379999	-35,420002	2020-10-29T19:31:31:041
-6,510000	-11,690000	-26,110001	2020-10-29T19:31:31:058
-22,190001	-3,430000	-19,809999	2020-10-29T19:31:31:083
-48,650002	4,200000	-14,350000	2020-10-29T19:31:31:098
-75,739998	10,010000	-8,960000	2020-10-29T19:31:31:122
-96,040001	11,620000	-4,550000	2020-10-29T19:31:31:140
-111,020004	10,710000	-1,470000	2020-10-29T19:31:31:163
-119,419998	8,260000	1,400000	2020-10-29T19:31:31:179
-115,010002	4,550000	3,430000	2020-10-29T19:31:31:201
-107,099998	1,260000	1,330000	2020-10-29T19:31:31:219
-111,090004	0,770000	-0,910000	2020-10-29T19:31:31:242
-121,730003	1,960000	-3,850000	2020-10-29T19:31:31:258
-132,229996	4,830000	-8,190000	2020-10-29T19:31:31:282
-138,180008	6,300000	-11,550000	2020-10-29T19:31:31:298
-138,250000	7,700000	-12,740000	2020-10-29T19:31:31:322
-138,180008	9,030000	-12,810000	2020-10-29T19:31:31:339
-145,880005	9,940000	-12,180000	2020-10-29T19:31:31:362
-162,330002	12,460000	-11,270000	2020-10-29T19:31:31:379
-165,690002	11,620000	-9,030000	2020-10-29T19:31:31:403
-148,119995	7,630000	-7,630000	2020-10-29T19:31:31:418
-126,209999	3,220000	-6,370000	2020-10-29T19:31:31:442
-110,250000	-0,350000	-6,160000	2020-10-29T19:31:31:459
-105,489998	-1,470000	-7,910000	2020-10-29T19:31:31:483
-105,559998	-2,240000	-10,010000	2020-10-29T19:31:31:499
-109,550003	-1,890000	-10,710000	2020-10-29T19:31:31:522
-112,699997	-0,910000	-10,220000	2020-10-29T19:31:31:539
-110,040001	-3,990000	-11,900000	2020-10-29T19:31:31:562
-108,220001	-4,130000	-15,190001	2020-10-29T19:31:31:579
-105,419998	3,710000	-16,870001	2020-10-29T19:31:31:601
-98,559998	5,950000	-18,480000	2020-10-29T19:31:31:619
-93,870003	12,320000	-17,920000	2020-10-29T19:31:31:644
-93,870003	19,320000	-15,470000	2020-10-29T19:31:31:659
-91,349998	25,129999	-10,150000	2020-10-29T19:31:31:682
-81,620003	27,580000	-2,870000	2020-10-29T19:31:31:699
-60,689999	24,430000	2,100000	2020-10-29T19:31:31:723
-43,330002	21,490000	6,580000	2020-10-29T19:31:31:738
-29,680000	22,330000	11,340000	2020-10-29T19:31:31:762
-15,750000	25,270000	14,070000	2020-10-29T19:31:31:780
-22,960001	28,139999	18,200001	2020-10-29T19:31:31:802
-50,470001	32,130001	24,219999	2020-10-29T19:31:31:819
-74,480003	34,650002	30,870001	2020-10-29T19:31:31:843
-79,309998	31,639999	37,170002	2020-10-29T19:31:31:859
-69,440002	26,460001	46,270000	2020-10-29T19:31:31:885
-51,029999	22,120001	54,250000	2020-10-29T19:31:31:899
-40,810001	22,190001	60,689999	2020-10-29T19:31:31:921
-39,060001	27,370001	64,610001	2020-10-29T19:31:31:939
-38,009998	29,820000	63,490002	2020-10-29T19:31:31:963
-36,259998	28,490000	62,650002	2020-10-29T19:31:31:980
-34,439999	30,030001	63,980000	2020-10-29T19:31:32:001
-27,719999	27,650000	64,260002	2020-10-29T19:31:32:019
-22,610001	25,760000	64,889999	2020-10-29T19:31:32:043
-14,000000	23,520000	63,910000	2020-10-29T19:31:32:059
-9,310000	24,010000	59,500000	2020-10-29T19:31:32:083
-2,520000	22,049999	52,570000	2020-10-29T19:31:32:099
8,190000	20,580000	39,200001	2020-10-29T19:31:32:123
14,560000	20,160000	31,360001	2020-10-29T19:31:32:139
19,600000	19,110001	23,590000	2020-10-29T19:31:32:162
21,350000	17,500000	15,820000	2020-10-29T19:31:32:180
21,910000	16,730000	8,260000	2020-10-29T19:31:32:203
20,160000	15,960000	1,260000	2020-10-29T19:31:32:219
15,820000	15,680000	-4,550000	2020-10-29T19:31:32:243
11,410000	14,980000	-10,500000	2020-10-29T19:31:32:259
10,780000	14,840000	-15,540000	2020-10-29T19:31:32:284
11,130000	15,470000	-20,790001	2020-10-29T19:31:32:300
12,530000	14,980000	-26,950001	2020-10-29T19:31:32:323
12,950000	15,960000	-33,110001	2020-10-29T19:31:32:340
9,170000	18,760000	-38,639999	2020-10-29T19:31:32:364
3,850000	19,250000	-45,779999	2020-10-29T19:31:32:380
3,150000	13,160000	-59,570000	2020-10-29T19:31:32:403
9,170000	18,830000	-71,050003	2020-10-29T19:31:32:420
10,990000	27,790001	-78,120003	2020-10-29T19:31:32:444
9,030000	33,670002	-81,129997	2020-10-29T19:31:32:460
-3,150000	37,939999	-73,080002	2020-10-29T19:31:32:483
-18,200001	38,290001	-56,349998	2020-10-29T19:31:32:500
-25,969999	34,020000	-36,259998	2020-10-29T19:31:32:524
-29,330000	28,840000	-21,350000	2020-10-29T19:31:32:540
-38,430000	23,660000	-11,550000	2020-10-29T19:31:32:562
-50,049999	23,240000	-6,370000	2020-10-29T19:31:32:581
-55,790001	27,580000	-5,740000	2020-10-29T19:31:32:604
-66,080002	32,970001	-7,420000	2020-10-29T19:31:32:620
-81,059998	39,270000	-10,640000	2020-10-29T19:31:32:643
-93,800003	40,529999	-12,600000	2020-10-29T19:31:32:660
-99,820000	37,869999	-13,650000	2020-10-29T19:31:32:685
-100,239998	31,850000	-13,300000	2020-10-29T19:31:32:700
-93,940002	23,660000	-12,530000	2020-10-29T19:31:32:723
-81,550003	13,300000	-11,620000	2020-10-29T19:31:32:740
-65,519997	4,200000	-11,060000	2020-10-29T19:31:32:764
-48,230000	-3,640000	-10,430000	2020-10-29T19:31:32:781
-25,900000	-12,040000	-12,110000	2020-10-29T19:31:32:803
-9,940000	-19,180000	-13,930000	2020-10-29T19:31:32:820
3,080000	-24,150000	-17,150000	2020-10-29T19:31:32:845
14,700000	-26,809999	-20,299999	2020-10-29T19:31:32:860
24,219999	-28,910000	-23,660000	2020-10-29T19:31:32:884
26,320000	-30,100000	-25,549999	2020-10-29T19:31:32:900
24,150000	-30,240000	-24,500000	2020-10-29T19:31:32:924
25,480000	-31,639999	-21,070000	2020-10-29T19:31:32:940
28,910000	-32,830002	-16,379999	2020-10-29T19:31:32:963
36,330002	-34,160000	-10,710000	2020-10-29T19:31:32:981
47,110001	-35,770000	-5,460000	2020-10-29T19:31:33:004
57,049999	-36,889999	-0,700000	2020-10-29T19:31:33:020
63,209999	-36,750000	2,870000	2020-10-29T19:31:33:043
65,870003	-35,630001	5,320000	2020-10-29T19:31:33:060
67,199997	-33,599998	6,510000	2020-10-29T19:31:33:086
68,529999	-30,660000	5,810000	2020-10-29T19:31:33:100
68,739998	-26,600000	4,060000	2020-10-29T19:31:33:123
69,300003	-23,730000	3,360000	2020-10-29T19:31:33:140
72,029999	-21,070000	5,670000	2020-10-29T19:31:33:164
76,790001	-21,700001	11,130000	2020-10-29T19:31:33:181
71,889999	-23,240000	22,680000	2020-10-29T19:31:33:203
73,220001	-31,430000	29,400000	2020-10-29T19:31:33:221
76,930000	-45,779999	26,530001	2020-10-29T19:31:33:244
86,449997	-43,889999	21,559999	2020-10-29T19:31:33:260
99,330002	-38,779999	15,260000	2020-10-29T19:31:33:284
110,739998	-33,250000	10,220000	2020-10-29T19:31:33:300
115,779999	-30,240000	8,610000	2020-10-29T19:31:33:325
129,430008	-31,639999	13,370000	2020-10-29T19:31:33:340
150,500000	-35,840000	20,930000	2020-10-29T19:31:33:363
164,500000	-38,500000	28,350000	2020-10-29T19:31:33:381
165,690002	-38,150002	32,759998	2020-10-29T19:31:33:404
162,680008	-36,259998	35,209999	2020-10-29T19:31:33:420
159,250000	-32,900002	39,970001	2020-10-29T19:31:33:444
155,399994	-29,400000	46,340000	2020-10-29T19:31:33:461
147,000000	-30,380001	53,689999	2020-10-29T19:31:33:486
140,000000	-34,720001	59,779999	2020-10-29T19:31:33:501
136,149994	-38,709999	62,510002	2020-10-29T19:31:33:524
133,490005	-41,299999	61,950001	2020-10-29T19:31:33:541
131,740005	-45,570000	57,119999	2020-10-29T19:31:33:567
131,949997	-48,720001	48,650002	2020-10-29T19:31:33:581
138,039993	-51,730000	38,709999	2020-10-29T19:31:33:604
145,949997	-54,180000	26,250000	2020-10-29T19:31:33:621
145,880005	-53,340000	14,210000	2020-10-29T19:31:33:644
158,199997	-57,119999	10,150000	2020-10-29T19:31:33:661
172,619995	-62,230000	8,680000	2020-10-29T19:31:33:684
174,440002	-64,959999	7,070000	2020-10-29T19:31:33:701
167,300003	-64,959999	9,800000	2020-10-29T19:31:33:724
167,300003	-66,709999	12,950000	2020-10-29T19:31:33:741
165,830002	-65,449997	14,770000	2020-10-29T19:31:33:764
157,080002	-63,910000	15,470000	2020-10-29T19:31:33:782
147,559998	-62,439999	16,240000	2020-10-29T19:31:33:805
142,100006	-61,320000	17,010000	2020-10-29T19:31:33:821
138,460007	-59,150002	17,780001	2020-10-29T19:31:33:844
135,240005	-56,630001	20,370001	2020-10-29T19:31:33:861
134,680008	-56,420002	25,129999	2020-10-29T19:31:33:885
127,400002	-54,459999	30,309999	2020-10-29T19:31:33:901
120,959999	-51,310001	39,689999	2020-10-29T19:31:33:925
119,489998	-48,439999	50,680000	2020-10-29T19:31:33:941
119,489998	-51,590000	61,670002	2020-10-29T19:31:33:965
116,270004	-52,009998	70,910004	2020-10-29T19:31:33:982
141,889999	-55,580002	74,620003	2020-10-29T19:31:34:004
155,889999	-54,950001	73,709999	2020-10-29T19:31:34:030
153,160004	-54,529999	73,430000	2020-10-29T19:31:34:046
138,600006	-53,760002	69,790001	2020-10-29T19:31:34:061
117,599998	-45,290001	63,910000	2020-10-29T19:31:34:084
97,090004	-39,200001	58,310001	2020-10-29T19:31:34:101
70,699997	-33,529999	48,160000	2020-10-29T19:31:34:125
49,070000	-28,420000	37,099998	2020-10-29T19:31:34:141
45,150002	-25,969999	28,350000	2020-10-29T19:31:34:166
53,410000	-25,129999	22,540001	2020-10-29T19:31:34:182
66,080002	-20,719999	16,799999	2020-10-29T19:31:34:204
75,320000	-17,080000	14,420000	2020-10-29T19:31:34:222
87,080002	-12,110000	12,110000	2020-10-29T19:31:34:244
91,840004	-7,350000	11,060000	2020-10-29T19:31:34:261
84,139999	-0,630000	13,160000	2020-10-29T19:31:34:287
65,449997	16,170000	14,140000	2020-10-29T19:31:34:301
45,709999	26,180000	16,660000	2020-10-29T19:31:34:324
38,220001	37,310001	20,650000	2020-10-29T19:31:34:341
30,100000	46,410000	24,010000	2020-10-29T19:31:34:366
9,380000	57,400002	25,129999	2020-10-29T19:31:34:382
-19,110001	66,360001	25,690001	2020-10-29T19:31:34:404
-33,950001	72,870003	33,880001	2020-10-29T19:31:34:421
-14,280000	73,500000	35,139999	2020-10-29T19:31:34:445
2,240000	72,590004	38,009998	2020-10-29T19:31:34:461
10,500000	69,160004	43,189999	2020-10-29T19:31:34:485
26,950001	62,580002	47,459999	2020-10-29T19:31:34:502
46,759998	61,670002	49,139999	2020-10-29T19:31:34:527
71,470001	59,779999	53,340000	2020-10-29T19:31:34:542
114,309998	61,950001	54,599998	2020-10-29T19:31:34:564
149,100006	52,639999	53,830002	2020-10-29T19:31:34:582
135,869995	47,110001	53,900002	2020-10-29T19:31:34:606
97,580002	47,459999	57,610001	2020-10-29T19:31:34:622
32,619999	56,209999	64,470001	2020-10-29T19:31:34:644
-41,439999	76,230003	54,180000	2020-10-29T19:31:34:662
-75,250000	93,730003	57,330002	2020-10-29T19:31:34:686
-66,150002	114,449997	70,000000	2020-10-29T19:31:34:702
1,890000	114,730003	80,500000	2020-10-29T19:31:34:725
29,820000	101,500000	63,980000	2020-10-29T19:31:34:742
-2,870000	103,459999	70,699997	2020-10-29T19:31:34:767
-19,530001	112,559998	70,489998	2020-10-29T19:31:34:783
-22,120001	117,529999	67,900002	2020-10-29T19:31:34:805
-15,610000	118,300003	66,989998	2020-10-29T19:31:34:822
-3,850000	107,730003	69,090004	2020-10-29T19:31:34:846
17,360001	97,230003	64,889999	2020-10-29T19:31:34:862
26,040001	87,989998	58,520000	2020-10-29T19:31:34:886
20,299999	81,830002	50,820000	2020-10-29T19:31:34:902
25,830000	71,330002	44,170002	2020-10-29T19:31:34:926
29,680000	52,990002	39,689999	2020-10-29T19:31:34:942
22,469999	39,689999	29,889999	2020-10-29T19:31:34:965
11,690000	25,969999	16,799999	2020-10-29T19:31:34:982
-3,080000	15,190001	5,110000	2020-10-29T19:31:35:009
-15,400000	9,380000	-0,280000	2020-10-29T19:31:35:022
-17,219999	3,290000	-11,130000	2020-10-29T19:31:35:044
-10,010000	-2,520000	-19,180000	2020-10-29T19:31:35:062
-10,570000	-5,740000	-21,000000	2020-10-29T19:31:35:086
-11,480000	-11,340000	-17,360001	2020-10-29T19:31:35:102
-4,620000	-18,340000	-15,960000	2020-10-29T19:31:35:126
0,630000	-21,139999	-10,360000	2020-10-29T19:31:35:142
19,320000	-25,059999	-2,450000	2020-10-29T19:31:35:166
42,770000	-31,780001	3,710000	2020-10-29T19:31:35:183
60,830002	-34,930000	6,230000	2020-10-29T19:31:35:205
64,959999	-33,250000	3,570000	2020-10-29T19:31:35:223
51,730000	-26,320000	-1,050000	2020-10-29T19:31:35:247
33,880001	-16,660000	-6,160000	2020-10-29T19:31:35:262
15,330000	-6,720000	-11,480000	2020-10-29T19:31:35:286
2,940000	3,150000	-13,300000	2020-10-29T19:31:35:302
-2,590000	10,150000	-12,460000	2020-10-29T19:31:35:326
-8,680000	15,190001	-10,220000	2020-10-29T19:31:35:342
-14,140000	20,020000	-5,810000	2020-10-29T19:31:35:366
-22,469999	28,210001	-3,710000	2020-10-29T19:31:35:383
-38,709999	33,250000	-1,610000	2020-10-29T19:31:35:406
-49,560001	33,599998	1,820000	2020-10-29T19:31:35:423
-43,750000	29,680000	4,900000	2020-10-29T19:31:35:446
-25,270000	23,170000	7,980000	2020-10-29T19:31:35:462
-12,110000	17,990000	7,770000	2020-10-29T19:31:35:488
-12,460000	17,639999	4,550000	2020-10-29T19:31:35:503
-19,809999	16,870001	2,450000	2020-10-29T19:31:35:526
-27,020000	13,510000	0,490000	2020-10-29T19:31:35:543
-31,850000	9,170000	3,570000	2020-10-29T19:31:35:566
-16,799999	11,270000	8,050000	2020-10-29T19:31:35:583
-3,080000	17,430000	8,820000	2020-10-29T19:31:35:606
-15,120000	19,250000	7,070000	2020-10-29T19:31:35:623
-24,500000	17,710001	6,720000	2020-10-29T19:31:35:646
-26,110001	16,940001	5,740000	2020-10-29T19:31:35:663
-26,110001	15,050000	7,770000	2020-10-29T19:31:35:686
-21,490000	11,620000	12,950000	2020-10-29T19:31:35:704
-15,820000	8,610000	14,910000	2020-10-29T19:31:35:728
-14,490000	7,420000	14,910000	2020-10-29T19:31:35:744
-12,320000	8,890000	12,320000	2020-10-29T19:31:35:765
-13,930000	12,110000	7,070000	2020-10-29T19:31:35:784
-19,389999	13,370000	2,100000	2020-10-29T19:31:35:807
-18,690001	11,690000	-1,050000	2020-10-29T19:31:35:824
-11,900000	8,400000	-2,660000	2020-10-29T19:31:35:845
-3,920000	4,620000	-3,010000	2020-10-29T19:31:35:865
-0,700000	2,870000	-2,660000	2020-10-29T19:31:35:888
-2,380000	2,450000	-1,890000	2020-10-29T19:31:35:904
-5,880000	2,590000	-1,120000	2020-10-29T19:31:35:926
-8,960000	3,640000	-0,490000	2020-10-29T19:31:35:944
-11,340000	4,830000	0,350000	2020-10-29T19:31:35:966
-10,570000	5,390000	1,330000	2020-10-29T19:31:35:984
-9,940000	6,510000	2,030000	2020-10-29T19:31:36:006
-9,870000	7,280000	2,590000	2020-10-29T19:31:36:025
-6,510000	7,350000	3,640000	2020-10-29T19:31:36:047
-1,680000	6,720000	5,250000	2020-10-29T19:31:36:064
0,280000	6,020000	5,320000	2020-10-29T19:31:36:086
2,310000	3,710000	4,620000	2020-10-29T19:31:36:103
4,060000	0,490000	4,060000	2020-10-29T19:31:36:127
5,880000	-3,220000	4,270000	2020-10-29T19:31:36:143
7,980000	-7,210000	4,900000	2020-10-29T19:31:36:166
11,410000	-10,430000	4,200000	2020-10-29T19:31:36:184
18,620001	-12,810000	1,750000	2020-10-29T19:31:36:208
16,170000	-12,040000	-1,820000	2020-10-29T19:31:36:224
12,670000	-12,600000	-5,950000	2020-10-29T19:31:36:246
5,110000	-11,550000	-10,290000	2020-10-29T19:31:36:264
-14,000000	-5,740000	-13,860000	2020-10-29T19:31:36:288
-12,320000	1,330000	-17,570000	2020-10-29T19:31:36:304
11,270000	4,200000	-18,059999	2020-10-29T19:31:36:327
29,330000	2,240000	-18,760000	2020-10-29T19:31:36:344
26,320000	3,290000	-22,540001	2020-10-29T19:31:36:367
13,580000	4,550000	-25,549999	2020-10-29T19:31:36:385
-2,030000	6,300000	-29,469999	2020-10-29T19:31:36:406
-14,980000	10,850000	-29,049999	2020-10-29T19:31:36:424
-13,790000	13,370000	-28,980000	2020-10-29T19:31:36:449
12,110000	14,700000	-29,750000	2020-10-29T19:31:36:463
36,610001	13,930000	-29,820000	2020-10-29T19:31:36:487
45,150002	12,530000	-31,639999	2020-10-29T19:31:36:504
40,040001	15,680000	-40,950001	2020-10-29T19:31:36:528
39,130001	18,270000	-49,000000	2020-10-29T19:31:36:544
60,410000	18,200001	-57,330002	2020-10-29T19:31:36:567
94,779999	15,050000	-65,590004	2020-10-29T19:31:36:584
118,440002	11,550000	-73,709999	2020-10-29T19:31:36:607
127,260002	3,150000	-85,400002	2020-10-29T19:31:36:624
112,279999	-1,190000	-99,470001	2020-10-29T19:31:36:647
83,790001	-2,730000	-108,779999	2020-10-29T19:31:36:664
59,430000	-1,680000	-117,529999	2020-10-29T19:31:36:689
46,759998	1,330000	-127,889999	2020-10-29T19:31:36:703
44,029999	2,870000	-138,529999	2020-10-29T19:31:36:727
36,259998	1,960000	-150,500000	2020-10-29T19:31:36:744
30,520000	-3,780000	-163,589996	2020-10-29T19:31:36:768
18,830000	-12,040000	-175,979996	2020-10-29T19:31:36:784
-2,310000	-21,629999	-186,619995	2020-10-29T19:31:36:807
-27,510000	-24,780001	-198,869995	2020-10-29T19:31:36:824
-48,230000	-29,120001	-205,869995	2020-10-29T19:31:36:848
-74,690002	-31,219999	-206,639999	2020-10-29T19:31:36:864
-93,099998	-26,530001	-190,190002	2020-10-29T19:31:36:888
-53,270000	-35,490002	-180,039993	2020-10-29T19:31:36:904
-15,330000	-49,700001	-169,399994	2020-10-29T19:31:36:929
-61,040001	-54,040001	-160,160004	2020-10-29T19:31:36:944
-145,110001	-49,700001	-164,220001	2020-10-29T19:31:36:967
-213,430008	-43,259998	-158,199997	2020-10-29T19:31:36:985
-235,339996	-33,389999	-147,770004	2020-10-29T19:31:37:008
-177,029999	-31,150000	-134,190002	2020-10-29T19:31:37:024
-68,110001	-35,349998	-93,870003	2020-10-29T19:31:37:047
19,250000	-42,070000	-27,860001	2020-10-29T19:31:37:064
15,190001	-25,690001	-8,120000	2020-10-29T19:31:37:088
-28,700001	-6,860000	2,380000	2020-10-29T19:31:37:104
-88,269997	7,000000	6,650000	2020-10-29T19:31:37:127
-95,620003	9,590000	8,610000	2020-10-29T19:31:37:144
-69,720001	9,100000	6,230000	2020-10-29T19:31:37:169
-39,130001	0,630000	-8,820000	2020-10-29T19:31:37:185
-9,730000	-5,110000	-20,719999	2020-10-29T19:31:37:208
-8,400000	-14,700000	-22,680000	2020-10-29T19:31:37:225
-15,190001	-14,140000	-23,940001	2020-10-29T19:31:37:248
4,830000	-19,670000	-24,710001	2020-10-29T19:31:37:264
14,770000	-20,860001	-21,280001	2020-10-29T19:31:37:288
10,150000	-28,070000	-18,830000	2020-10-29T19:31:37:304
5,950000	-35,630001	-15,190001	2020-10-29T19:31:37:328
9,170000	-38,220001	-8,260000	2020-10-29T19:31:37:345
20,370001	-37,590000	2,310000	2020-10-29T19:31:37:367
65,239998	-37,590000	17,990000	2020-10-29T19:31:37:385
75,879997	-42,070000	28,280001	2020-10-29T19:31:37:411
44,590000	-38,779999	34,650002	2020-10-29T19:31:37:425
-7,980000	-43,400002	46,270000	2020-10-29T19:31:37:447
-30,309999	-39,689999	50,959999	2020-10-29T19:31:37:465
-22,049999	-29,120001	58,730000	2020-10-29T19:31:37:489
-15,330000	-14,840000	69,720001	2020-10-29T19:31:37:505
-17,639999	-2,310000	81,690002	2020-10-29T19:31:37:527
-34,299999	10,150000	93,730003	2020-10-29T19:31:37:545
-27,370001	17,710001	99,400002	2020-10-29T19:31:37:568
5,740000	18,830000	98,489998	2020-10-29T19:31:37:586
37,170002	16,100000	107,449997	2020-10-29T19:31:37:608
62,020000	2,590000	107,099998	2020-10-29T19:31:37:625
63,209999	-13,930000	111,860001	2020-10-29T19:31:37:650
86,309998	-25,480000	106,610001	2020-10-29T19:31:37:665
77,489998	-23,030001	106,610001	2020-10-29T19:31:37:688
84,699997	-34,509998	104,650002	2020-10-29T19:31:37:705
83,790001	-46,060001	106,260002	2020-10-29T19:31:37:728
119,279999	-62,720001	102,199997	2020-10-29T19:31:37:745
156,240005	-73,360001	99,889999	2020-10-29T19:31:37:767
141,680008	-72,519997	102,760002	2020-10-29T19:31:37:786
125,580002	-74,550003	111,440002	2020-10-29T19:31:37:808
104,090004	-80,849998	114,169998	2020-10-29T19:31:37:825
84,980003	-80,500000	113,330002	2020-10-29T19:31:37:847
71,750000	-76,720001	115,989998	2020-10-29T19:31:37:865
51,869999	-82,739998	112,489998	2020-10-29T19:31:37:890
22,049999	-104,790001	113,330002	2020-10-29T19:31:37:905
65,309998	-135,589996	114,940002	2020-10-29T19:31:37:928
186,690002	-136,360001	46,410000	2020-10-29T19:31:37:945
91,209999	-67,129997	29,540001	2020-10-29T19:31:37:968
-13,230000	-25,059999	34,720001	2020-10-29T19:31:37:985
-31,360001	-31,080000	17,639999	2020-10-29T19:31:38:009
4,900000	-35,349998	17,500000	2020-10-29T19:31:38:025
81,760002	-53,480000	26,389999	2020-10-29T19:31:38:049
124,110001	-61,670002	26,740000	2020-10-29T19:31:38:066
143,570007	-59,010002	17,780001	2020-10-29T19:31:38:089
131,600006	-49,630001	1,820000	2020-10-29T19:31:38:105
82,389999	-48,020000	-15,120000	2020-10-29T19:31:38:130
31,290001	-46,970001	-28,980000	2020-10-29T19:31:38:145
10,010000	-59,220001	-55,299999	2020-10-29T19:31:38:168
10,220000	-83,090004	-78,820000	2020-10-29T19:31:38:186
-13,020000	-96,389999	-67,199997	2020-10-29T19:31:38:209
-29,260000	-84,489998	-41,090000	2020-10-29T19:31:38:226
-21,910000	-69,370003	-31,920000	2020-10-29T19:31:38:248
-72,590004	-57,400002	-35,840000	2020-10-29T19:31:38:265
-81,199997	-59,010002	-34,720001	2020-10-29T19:31:38:289
-54,320000	-66,989998	-34,509998	2020-10-29T19:31:38:305
-39,970001	-72,449997	-35,630001	2020-10-29T19:31:38:328
-38,080002	-75,389999	-40,670002	2020-10-29T19:31:38:345
-38,920002	-77,629997	-49,420002	2020-10-29T19:31:38:370
-49,139999	-78,470001	-53,689999	2020-10-29T19:31:38:386
-45,639999	-78,820000	-54,250000	2020-10-29T19:31:38:407
-41,369999	-78,470001	-56,420002	2020-10-29T19:31:38:426
-35,000000	-81,340004	-56,209999	2020-10-29T19:31:38:448
-29,330000	-83,230003	-44,730000	2020-10-29T19:31:38:465
-26,320000	-84,559998	-31,710001	2020-10-29T19:31:38:489
-22,750000	-83,370003	-23,520000	2020-10-29T19:31:38:506
-19,740000	-81,690002	-17,570000	2020-10-29T19:31:38:529
-18,270000	-81,340004	-18,129999	2020-10-29T19:31:38:546
-8,260000	-80,570000	-18,900000	2020-10-29T19:31:38:568
-11,550000	-75,739998	-17,710001	2020-10-29T19:31:38:586
-12,110000	-74,199997	-23,940001	2020-10-29T19:31:38:610
-9,310000	-71,820000	-29,680000	2020-10-29T19:31:38:626
-15,680000	-64,610001	-33,950001	2020-10-29T19:31:38:649
-13,860000	-65,239998	-37,450001	2020-10-29T19:31:38:667
-12,390000	-67,550003	-45,709999	2020-10-29T19:31:38:690
-13,160000	-68,669998	-50,680000	2020-10-29T19:31:38:706
-10,780000	-69,230003	-55,230000	2020-10-29T19:31:38:728
-11,480000	-73,849998	-63,000000	2020-10-29T19:31:38:746
-1,960000	-80,150002	-77,699997	2020-10-29T19:31:38:770
3,080000	-84,139999	-88,550003	2020-10-29T19:31:38:787
21,559999	-90,720001	-101,080002	2020-10-29T19:31:38:808
35,630001	-94,010002	-104,930000	2020-10-29T19:31:38:826
52,290001	-98,699997	-106,120003	2020-10-29T19:31:38:850
68,389999	-96,599998	-101,639999	2020-10-29T19:31:38:866
76,160004	-81,410004	-89,739998	2020-10-29T19:31:38:889
79,660004	-57,820000	-71,820000	2020-10-29T19:31:38:906
77,840004	-28,139999	-45,290001	2020-10-29T19:31:38:931
47,810001	5,740000	-15,820000	2020-10-29T19:31:38:946
-29,680000	49,560001	9,450000	2020-10-29T19:31:38:969
-57,470001	79,660004	38,779999	2020-10-29T19:31:38:987
-10,640000	82,389999	55,230000	2020-10-29T19:31:39:010
65,940002	66,570000	36,610001	2020-10-29T19:31:39:026
115,150002	50,959999	22,820000	2020-10-29T19:31:39:051
94,220001	59,430000	6,930000	2020-10-29T19:31:39:070
49,070000	70,980003	3,360000	2020-10-29T19:31:39:091
-11,480000	74,970001	1,330000	2020-10-29T19:31:39:106
-53,200001	83,019997	-2,730000	2020-10-29T19:31:39:129
-48,439999	76,930000	-2,310000	2020-10-29T19:31:39:146
-37,240002	73,290001	-2,730000	2020-10-29T19:31:39:172
-42,630001	72,800003	-4,200000	2020-10-29T19:31:39:187
-43,540001	72,590004	2,450000	2020-10-29T19:31:39:209
-41,650002	69,019997	3,990000	2020-10-29T19:31:39:227
-51,590000	69,790001	7,700000	2020-10-29T19:31:39:252
-46,689999	65,870003	14,000000	2020-10-29T19:31:39:268
-26,530001	58,099998	19,740000	2020-10-29T19:31:39:290
-15,470000	54,180000	23,940001	2020-10-29T19:31:39:306
-18,270000	54,040001	25,059999	2020-10-29T19:31:39:331
-27,650000	54,040001	28,280001	2020-10-29T19:31:39:346
-37,520000	53,970001	31,570000	2020-10-29T19:31:39:369
-41,020000	51,590000	34,090000	2020-10-29T19:31:39:387
-41,860001	46,759998	37,590000	2020-10-29T19:31:39:409
-39,410000	41,930000	42,490002	2020-10-29T19:31:39:426
-37,029999	39,759998	47,810001	2020-10-29T19:31:39:449
-32,480000	34,790001	50,820000	2020-10-29T19:31:39:466
-34,230000	30,590000	48,790001	2020-10-29T19:31:39:491
-42,840000	28,139999	47,880001	2020-10-29T19:31:39:509
-48,090000	25,549999	49,770000	2020-10-29T19:31:39:530
-40,040001	19,670000	52,570000	2020-10-29T19:31:39:547
-20,860001	10,570000	55,510002	2020-10-29T19:31:39:570
-0,770000	2,590000	56,560001	2020-10-29T19:31:39:587
16,799999	-4,550000	57,889999	2020-10-29T19:31:39:609
37,730000	-8,890000	59,010002	2020-10-29T19:31:39:627
59,080002	-13,510000	59,220001	2020-10-29T19:31:39:651
72,519997	-15,890000	58,029999	2020-10-29T19:31:39:667
78,750000	-15,050000	56,840000	2020-10-29T19:31:39:690
79,029999	-15,120000	57,540001	2020-10-29T19:31:39:707
71,400002	-19,879999	58,450001	2020-10-29T19:31:39:730
60,689999	-22,540001	58,310001	2020-10-29T19:31:39:747
48,580002	-23,660000	58,939999	2020-10-29T19:31:39:770
38,220001	-25,410000	57,330002	2020-10-29T19:31:39:788
33,740002	-28,350000	54,880001	2020-10-29T19:31:39:811
35,349998	-30,799999	51,170002	2020-10-29T19:31:39:827
