x	y	z	ts
0,348220	-0,993200	9,750010	2020-10-29T19:30:38:300
0,350557	-0,983287	9,750930	2020-10-29T19:30:38:301
0,410723	-1,103667	9,735687	2020-10-29T19:30:38:301
0,400284	-1,063851	9,740553	2020-10-29T19:30:38:302
0,385394	-1,019371	9,745909	2020-10-29T19:30:38:302
0,372512	-0,998924	9,748527	2020-10-29T19:30:38:315
0,386919	-0,994263	9,748442	2020-10-29T19:30:38:356
0,389541	-0,992999	9,748466	2020-10-29T19:30:38:359
0,382399	-0,976260	9,750440	2020-10-29T19:30:38:375
0,400869	-0,977939	9,749530	2020-10-29T19:30:38:396
0,411947	-0,955077	9,751334	2020-10-29T19:30:38:415
0,405539	-0,915401	9,755407	2020-10-29T19:30:38:436
0,383599	-0,877427	9,759783	2020-10-29T19:30:38:455
0,368925	-0,858683	9,762015	2020-10-29T19:30:38:477
0,358489	-0,857314	9,762525	2020-10-29T19:30:38:496
0,334664	-0,826792	9,766003	2020-10-29T19:30:38:516
0,297419	-0,754938	9,773024	2020-10-29T19:30:38:536
0,287693	-0,673882	9,779238	2020-10-29T19:30:38:556
0,286561	-0,605611	9,783736	2020-10-29T19:30:38:575
0,283063	-0,589735	9,784808	2020-10-29T19:30:38:596
0,296743	-0,596268	9,784007	2020-10-29T19:30:38:615
0,296468	-0,572601	9,785429	2020-10-29T19:30:38:636
0,308043	-0,551398	9,786289	2020-10-29T19:30:38:656
0,335390	-0,553459	9,785274	2020-10-29T19:30:38:676
0,389385	-0,595899	9,780781	2020-10-29T19:30:38:695
0,431712	-0,662600	9,774711	2020-10-29T19:30:38:717
0,453102	-0,753662	9,767142	2020-10-29T19:30:38:736
0,480561	-0,804214	9,761797	2020-10-29T19:30:38:755
0,484891	-0,802645	9,761712	2020-10-29T19:30:38:776
0,450097	-0,753338	9,767306	2020-10-29T19:30:38:796
0,418069	-0,689166	9,773467	2020-10-29T19:30:38:815
0,413370	-0,596020	9,779789	2020-10-29T19:30:38:836
0,334220	-0,534120	9,786388	2020-10-29T19:30:38:855
0,286547	-0,526811	9,788297	2020-10-29T19:30:38:876
0,407191	-0,593986	9,780171	2020-10-29T19:30:38:896
0,606530	-0,706038	9,762378	2020-10-29T19:30:38:917
0,943991	-0,868771	9,722371	2020-10-29T19:30:38:936
1,581956	-1,126754	9,612399	2020-10-29T19:30:38:956
2,510312	-1,432681	9,371027	2020-10-29T19:30:38:976
3,423012	-1,690635	9,033002	2020-10-29T19:30:38:996
4,071687	-1,993058	8,695946	2020-10-29T19:30:39:016
4,489193	-2,100143	8,462088	2020-10-29T19:30:39:037
4,847192	-2,177368	8,242220	2020-10-29T19:30:39:056
5,264323	-2,189447	7,978948	2020-10-29T19:30:39:077
5,678978	-2,159700	7,697746	2020-10-29T19:30:39:096
6,000485	-2,033804	7,485199	2020-10-29T19:30:39:120
6,265927	-1,885737	7,304282	2020-10-29T19:30:39:157
6,507690	-1,671405	7,143301	2020-10-29T19:30:39:157
6,690449	-1,376392	7,036606	2020-10-29T19:30:39:184
6,806466	-1,015062	6,986563	2020-10-29T19:30:39:200
6,860442	-0,517959	6,988307	2020-10-29T19:30:39:231
6,788578	0,140845	7,075716	2020-10-29T19:30:39:258
6,584004	0,915662	7,209913	2020-10-29T19:30:39:259
6,283820	1,745028	7,323856	2020-10-29T19:30:39:277
5,874385	2,601922	7,408913	2020-10-29T19:30:39:296
5,399508	3,533358	7,384516	2020-10-29T19:30:39:317
4,931261	4,485936	7,192317	2020-10-29T19:30:39:336
4,428689	5,464315	6,833619	2020-10-29T19:30:39:358
3,921348	6,380949	6,330632	2020-10-29T19:30:39:377
3,419800	7,140364	5,787103	2020-10-29T19:30:39:398
2,908739	7,748927	5,259635	2020-10-29T19:30:39:417
2,120059	8,371354	4,647167	2020-10-29T19:30:39:439
1,839100	8,521572	4,491203	2020-10-29T19:30:39:456
1,294168	8,728685	4,278500	2020-10-29T19:30:39:478
0,793219	8,857751	4,132970	2020-10-29T19:30:39:496
0,330409	8,915450	4,071360	2020-10-29T19:30:39:518
-0,117474	8,920823	4,071303	2020-10-29T19:30:39:536
-0,540688	8,878716	4,128733	2020-10-29T19:30:39:558
-0,936836	8,813913	4,196148	2020-10-29T19:30:39:577
-1,261116	8,748079	4,248657	2020-10-29T19:30:39:598
-1,486366	8,663407	4,348157	2020-10-29T19:30:39:617
-1,415440	8,539781	4,608586	2020-10-29T19:30:39:639
-1,151322	8,374622	4,970970	2020-10-29T19:30:39:656
-1,130333	8,310594	5,082004	2020-10-29T19:30:39:686
-1,086229	8,287159	5,129667	2020-10-29T19:30:39:696
-0,623267	8,228007	5,299228	2020-10-29T19:30:39:725
0,003855	8,176801	5,413899	2020-10-29T19:30:39:736
0,807317	8,120987	5,437665	2020-10-29T19:30:39:759
1,679555	8,081635	5,294965	2020-10-29T19:30:39:780
2,032808	8,052209	5,215363	2020-10-29T19:30:39:798
3,202554	7,813863	4,985737	2020-10-29T19:30:39:817
4,432641	7,378846	4,698373	2020-10-29T19:30:39:840
5,655624	6,706213	4,383037	2020-10-29T19:30:39:858
6,711067	5,877088	4,073303	2020-10-29T19:30:39:881
7,284228	5,269466	3,917031	2020-10-29T19:30:39:898
8,065247	4,223215	3,645084	2020-10-29T19:30:39:923
8,317539	3,810948	3,530665	2020-10-29T19:30:39:938
8,762924	2,914510	3,299573	2020-10-29T19:30:39:961
9,176002	1,699283	3,013936	2020-10-29T19:30:39:979
9,321583	0,961303	2,890393	2020-10-29T19:30:40:001
9,386854	0,364297	2,815075	2020-10-29T19:30:40:019
9,409788	-0,177525	2,755858	2020-10-29T19:30:40:040
9,424573	-0,758877	2,602290	2020-10-29T19:30:50:128
9,397591	-1,381682	2,438571	2020-10-29T19:30:50:131
9,338736	-1,907984	2,306079	2020-10-29T19:30:50:131
9,256505	-2,364393	2,212950	2020-10-29T19:30:50:132
9,153417	-2,791740	2,142785	2020-10-29T19:30:50:159
9,033504	-3,187586	2,098929	2020-10-29T19:30:50:168
8,899782	-3,558255	2,074387	2020-10-29T19:30:50:182
8,782523	-3,831195	2,087969	2020-10-29T19:30:50:204
8,636752	-4,142873	2,100831	2020-10-29T19:30:50:222
8,491513	-4,433935	2,098764	2020-10-29T19:30:50:247
8,336002	-4,725772	2,085311	2020-10-29T19:30:50:263
8,173397	-5,001896	2,084947	2020-10-29T19:30:50:288
8,022925	-5,227380	2,116020	2020-10-29T19:30:50:304
7,885209	-5,419041	2,151249	2020-10-29T19:30:50:327
7,756504	-5,593226	2,173215	2020-10-29T19:30:50:343
7,631697	-5,759649	2,180373	2020-10-29T19:30:50:367
7,513899	-5,910236	2,186508	2020-10-29T19:30:50:383
7,411743	-6,033003	2,199848	2020-10-29T19:30:50:407
7,319467	-6,140968	2,210046	2020-10-29T19:30:50:423
7,240691	-6,232775	2,212530	2020-10-29T19:30:50:446
7,178603	-6,305099	2,209928	2020-10-29T19:30:50:463
7,134531	-6,357314	2,203046	2020-10-29T19:30:50:487
7,108699	-6,388078	2,197554	2020-10-29T19:30:50:504
7,105018	-6,393469	2,193778	2020-10-29T19:30:50:526
7,124981	-6,369322	2,199267	2020-10-29T19:30:50:544
7,174386	-6,315156	2,194853	2020-10-29T19:30:50:567
7,245928	-6,229449	2,204739	2020-10-29T19:30:50:584
7,331659	-6,120755	2,225652	2020-10-29T19:30:50:608
7,431435	-5,989930	2,250535	2020-10-29T19:30:50:623
7,549921	-5,824958	2,288875	2020-10-29T19:30:50:648
7,691173	-5,628282	2,310559	2020-10-29T19:30:50:664
7,830060	-5,419571	2,342816	2020-10-29T19:30:50:688
7,966579	-5,198866	2,382392	2020-10-29T19:30:50:703
8,088037	-4,990203	2,419070	2020-10-29T19:30:50:727
8,168595	-4,855998	2,421512	2020-10-29T19:30:50:744
8,236594	-4,738282	2,424372	2020-10-29T19:30:50:766
8,289469	-4,649801	2,415458	2020-10-29T19:30:50:784
8,314025	-4,622431	2,383382	2020-10-29T19:30:50:807
8,346009	-4,590577	2,332618	2020-10-29T19:30:50:823
8,407538	-4,489089	2,309058	2020-10-29T19:30:50:848
8,476353	-4,367704	2,290196	2020-10-29T19:30:50:864
8,532739	-4,271111	2,262820	2020-10-29T19:30:50:888
8,547556	-4,272882	2,202760	2020-10-29T19:30:50:904
8,518385	-4,407853	2,044096	2020-10-29T19:30:50:926
8,466977	-4,594427	1,836279	2020-10-29T19:30:50:943
8,420697	-4,761062	1,610756	2020-10-29T19:30:50:968
8,381244	-4,901422	1,378843	2020-10-29T19:30:50:984
8,344540	-5,014847	1,179132	2020-10-29T19:30:51:007
8,300665	-5,124703	1,003378	2020-10-29T19:30:51:024
8,212904	-5,300447	0,789849	2020-10-29T19:30:51:048
8,177344	-5,364009	0,727205	2020-10-29T19:30:51:064
8,107478	-5,480325	0,636570	2020-10-29T19:30:51:088
8,037567	-5,589932	0,566173	2020-10-29T19:30:51:103
7,966609	-5,695090	0,519112	2020-10-29T19:30:51:128
7,969469	-5,694353	0,481965	2020-10-29T19:30:51:144
7,966911	-5,701019	0,443963	2020-10-29T19:30:51:167
7,948673	-5,728423	0,417309	2020-10-29T19:30:51:184
7,913887	-5,777657	0,399325	2020-10-29T19:30:51:208
7,814599	-5,911508	0,395603	2020-10-29T19:30:51:224
7,776748	-5,964095	0,349497	2020-10-29T19:30:51:247
7,729521	-6,028218	0,292360	2020-10-29T19:30:51:264
7,649409	-6,133490	0,192946	2020-10-29T19:30:51:289
7,614611	-6,177588	0,159643	2020-10-29T19:30:51:304
7,448902	-6,377193	0,125139	2020-10-29T19:30:51:329
7,365618	-6,473665	0,098569	2020-10-29T19:30:51:344
7,210777	-6,645170	0,129593	2020-10-29T19:30:51:368
7,082225	-6,780764	0,183606	2020-10-29T19:30:51:384
6,996467	-6,866951	0,254581	2020-10-29T19:30:51:407
6,938982	-6,922106	0,324587	2020-10-29T19:30:51:424
6,944155	-6,914498	0,372578	2020-10-29T19:30:51:448
6,968807	-6,886552	0,426052	2020-10-29T19:30:51:464
7,012607	-6,836566	0,505065	2020-10-29T19:30:51:488
7,072815	-6,766317	0,602179	2020-10-29T19:30:51:504
7,137130	-6,686793	0,720110	2020-10-29T19:30:51:529
7,155653	-6,649541	0,866378	2020-10-29T19:30:51:544
7,227579	-6,547016	1,033959	2020-10-29T19:30:51:568
7,363377	-6,368446	1,180659	2020-10-29T19:30:51:584
7,510690	-6,170666	1,297230	2020-10-29T19:30:51:608
7,665265	-5,960158	1,374997	2020-10-29T19:30:51:624
7,832634	-5,723538	1,435735	2020-10-29T19:30:51:647
7,977101	-5,514872	1,456858	2020-10-29T19:30:51:664
8,117612	-5,295778	1,493153	2020-10-29T19:30:51:688
8,231434	-5,107731	1,524785	2020-10-29T19:30:51:704
8,328065	-4,943779	1,540378	2020-10-29T19:30:51:727
8,442815	-4,740887	1,553464	2020-10-29T19:30:51:744
8,572721	-4,500152	1,558040	2020-10-29T19:30:51:769
8,601748	-4,443870	1,559597	2020-10-29T19:30:51:785
8,680147	-4,283013	1,575190	2020-10-29T19:30:51:810
8,722123	-4,194969	1,580251	2020-10-29T19:30:51:824
8,811563	-4,004325	1,578642	2020-10-29T19:30:51:848
8,878138	-3,846163	1,598776	2020-10-29T19:30:51:865
8,923879	-3,714839	1,653707	2020-10-29T19:30:51:889
8,926937	-3,695686	1,679904	2020-10-29T19:30:51:904
8,920171	-3,679742	1,749408	2020-10-29T19:30:51:928
8,892061	-3,702936	1,841164	2020-10-29T19:30:51:945
8,842778	-3,771999	1,935892	2020-10-29T19:30:51:968
8,773073	-3,893498	2,011031	2020-10-29T19:30:51:985
8,686877	-4,049026	2,077002	2020-10-29T19:30:52:008
8,598111	-4,211347	2,123068	2020-10-29T19:30:52:025
8,457293	-4,462393	2,175231	2020-10-29T19:30:52:050
8,412587	-4,538242	2,191602	2020-10-29T19:30:52:065
8,358245	-4,621851	2,224550	2020-10-29T19:30:52:089
8,325748	-4,661981	2,262349	2020-10-29T19:30:52:105
8,308889	-4,674884	2,297432	2020-10-29T19:30:52:128
8,307135	-4,658637	2,336452	2020-10-29T19:30:52:145
8,317832	-4,615057	2,384387	2020-10-29T19:30:52:169
8,323906	-4,585277	2,420372	2020-10-29T19:30:52:185
8,360590	-4,516171	2,423863	2020-10-29T19:30:52:208
8,407753	-4,418797	2,440144	2020-10-29T19:30:52:225
8,437755	-4,330399	2,494461	2020-10-29T19:30:52:249
8,473245	-4,209093	2,580319	2020-10-29T19:30:52:265
8,498529	-4,112811	2,651447	2020-10-29T19:30:52:289
8,511708	-4,043986	2,714291	2020-10-29T19:30:52:305
8,523693	-3,992308	2,752910	2020-10-29T19:30:52:329
8,542043	-3,937832	2,774414	2020-10-29T19:30:52:345
8,571346	-3,866878	2,783823	2020-10-29T19:30:52:368
8,604188	-3,783152	2,797515	2020-10-29T19:30:52:385
8,656013	-3,652674	2,811013	2020-10-29T19:30:52:410
8,665602	-3,616916	2,827659	2020-10-29T19:30:52:425
8,684598	-3,555374	2,847359	2020-10-29T19:30:52:448
8,711035	-3,495677	2,840509	2020-10-29T19:30:52:465
8,739539	-3,447944	2,811141	2020-10-29T19:30:52:490
8,765340	-3,422150	2,761900	2020-10-29T19:30:52:505
8,781074	-3,409718	2,727077	2020-10-29T19:30:52:531
8,774840	-3,409576	2,747243	2020-10-29T19:30:52:545
8,737385	-3,433803	2,835047	2020-10-29T19:30:52:570
8,702501	-3,433849	2,940331	2020-10-29T19:30:52:585
8,698043	-3,372007	3,023905	2020-10-29T19:30:52:609
8,689978	-3,318394	3,105309	2020-10-29T19:30:52:625
8,671863	-3,270654	3,204996	2020-10-29T19:30:52:650
8,646432	-3,242125	3,301247	2020-10-29T19:30:52:666
8,587081	-3,234240	3,460076	2020-10-29T19:30:52:690
8,568441	-3,233472	3,506687	2020-10-29T19:30:52:705
8,528736	-3,248287	3,588827	2020-10-29T19:30:52:730
8,494781	-3,272081	3,647270	2020-10-29T19:30:52:745
8,431082	-3,337489	3,734757	2020-10-29T19:30:52:771
8,406626	-3,363281	3,766613	2020-10-29T19:30:52:786
8,352098	-3,423524	3,833059	2020-10-29T19:30:52:810
8,304668	-3,480785	3,884198	2020-10-29T19:30:52:825
8,258124	-3,544278	3,925795	2020-10-29T19:30:52:849
8,217621	-3,603819	3,956460	2020-10-29T19:30:52:866
8,180560	-3,658387	3,983093	2020-10-29T19:30:52:890
8,150245	-3,707855	3,999462	2020-10-29T19:30:52:905
8,119503	-3,764606	4,008965	2020-10-29T19:30:52:929
8,096502	-3,819993	4,003084	2020-10-29T19:30:52:945
8,070277	-3,885844	3,992646	2020-10-29T19:30:52:970
8,049607	-3,952652	3,968722	2020-10-29T19:30:52:985
8,030177	-4,011250	3,949242	2020-10-29T19:30:53:010
7,988315	-4,056977	3,987247	2020-10-29T19:30:53:026
7,971941	-4,131218	3,943549	2020-10-29T19:30:53:050
7,968318	-4,138979	3,942733	2020-10-29T19:30:53:066
7,976835	-4,118216	3,947251	2020-10-29T19:30:53:089
7,970992	-4,077483	4,000976	2020-10-29T19:30:53:106
7,987245	-4,036659	4,009948	2020-10-29T19:30:53:130
8,035952	-4,002507	3,946367	2020-10-29T19:30:53:146
8,061764	-3,994549	3,901530	2020-10-29T19:30:53:170
8,085770	-3,970346	3,876477	2020-10-29T19:30:53:186
8,114758	-3,934157	3,852724	2020-10-29T19:30:53:210
8,144857	-3,890642	3,833353	2020-10-29T19:30:53:226
8,174396	-3,850744	3,810696	2020-10-29T19:30:53:251
8,218868	-3,834286	3,730796	2020-10-29T19:30:53:266
8,264035	-3,821001	3,643633	2020-10-29T19:30:53:290
8,297152	-3,815508	3,573452	2020-10-29T19:30:53:306
8,320048	-3,827099	3,507207	2020-10-29T19:30:53:329
8,335989	-3,849432	3,444350	2020-10-29T19:30:53:346
8,339682	-3,887140	3,392674	2020-10-29T19:30:53:370
8,338224	-3,927930	3,348996	2020-10-29T19:30:53:386
8,334112	-3,963771	3,316848	2020-10-29T19:30:53:409
8,334423	-3,986805	3,288338	2020-10-29T19:30:53:426
8,336975	-3,999938	3,265843	2020-10-29T19:30:53:450
8,350311	-4,001654	3,229464	2020-10-29T19:30:53:466
8,371416	-3,994142	3,183805	2020-10-29T19:30:53:490
8,394557	-3,986714	3,131759	2020-10-29T19:30:53:506
8,405179	-3,982976	3,107932	2020-10-29T19:30:53:530
1,480216	-7,673119	5,924744	2020-10-29T19:30:53:546
1,433577	-7,685731	5,919862	2020-10-29T19:30:53:570
1,366587	-7,700022	5,917135	2020-10-29T19:30:53:586
1,279512	-7,719233	5,911572	2020-10-29T19:30:53:610
1,173904	-7,735347	5,912422	2020-10-29T19:30:53:626
1,056383	-7,751073	5,913993	2020-10-29T19:30:53:650
0,937580	-7,765478	5,915123	2020-10-29T19:30:53:666
0,825455	-7,779019	5,914040	2020-10-29T19:30:53:691
0,722837	-7,794935	5,906511	2020-10-29T19:30:53:706
0,631199	-7,816929	5,887919	2020-10-29T19:30:53:731
0,553629	-7,840025	5,864971	2020-10-29T19:30:53:746
0,466330	-7,851123	5,857711	2020-10-29T19:30:53:770
0,496155	-7,882947	5,812345	2020-10-29T19:30:53:787
0,523770	-7,907619	5,776298	2020-10-29T19:30:53:810
0,549230	-7,920577	5,756144	2020-10-29T19:30:53:826
0,582268	-7,926067	5,745329	2020-10-29T19:30:53:851
8,124553	-4,424518	3,253562	2020-10-29T19:30:53:867
8,089596	-4,419137	3,346647	2020-10-29T19:30:53:890
8,034009	-4,422304	3,473948	2020-10-29T19:30:53:906
7,962644	-4,408430	3,651361	2020-10-29T19:30:53:931
7,881229	-4,427651	3,801646	2020-10-29T19:30:53:946
7,802472	-4,449075	3,936693	2020-10-29T19:30:53:971
7,727729	-4,468712	4,059951	2020-10-29T19:30:53:987
7,637456	-4,490771	4,203883	2020-10-29T19:30:54:010
7,528859	-4,512448	4,373156	2020-10-29T19:30:54:027
7,350373	-4,564945	4,615591	2020-10-29T19:30:54:051
7,275374	-4,598629	4,700205	2020-10-29T19:30:54:066
7,103487	-4,662949	4,895688	2020-10-29T19:30:54:091
6,906385	-4,714944	5,122649	2020-10-29T19:30:54:106
6,698696	-4,715210	5,391164	2020-10-29T19:30:54:130
6,505201	-4,653239	5,674514	2020-10-29T19:30:54:146
6,340321	-4,599060	5,900794	2020-10-29T19:30:54:171
6,174374	-4,572286	6,094398	2020-10-29T19:30:54:187
6,048608	-4,520751	6,256799	2020-10-29T19:30:54:211
5,871649	-4,543204	6,407294	2020-10-29T19:30:54:226
5,679974	-4,675205	6,484654	2020-10-29T19:30:54:251
5,481582	-4,896536	6,492040	2020-10-29T19:30:54:267
5,279379	-5,146521	6,466209	2020-10-29T19:30:54:290
5,031037	-5,390051	6,465786	2020-10-29T19:30:54:307
4,706494	-5,665867	6,474353	2020-10-29T19:30:54:331
4,375314	-5,884462	6,511538	2020-10-29T19:30:54:347
4,042052	-6,026927	6,596086	2020-10-29T19:30:54:370
3,744120	-6,091372	6,711716	2020-10-29T19:30:54:387
3,548559	-6,073041	6,833468	2020-10-29T19:30:54:410
3,390039	-6,032390	6,948978	2020-10-29T19:30:54:427
3,198343	-5,997576	7,068951	2020-10-29T19:30:54:451
3,056763	-5,937451	7,181452	2020-10-29T19:30:54:467
3,007838	-5,838570	7,282472	2020-10-29T19:30:54:491
2,956756	-5,718541	7,397720	2020-10-29T19:30:54:507
2,797979	-5,592163	7,554430	2020-10-29T19:30:54:530
2,656901	-5,434122	7,718911	2020-10-29T19:30:54:547
2,659414	-5,205828	7,873833	2020-10-29T19:30:54:571
2,699822	-4,945065	8,026686	2020-10-29T19:30:54:587
2,732716	-4,712032	8,154716	2020-10-29T19:30:54:610
2,750518	-4,545894	8,242565	2020-10-29T19:30:54:627
2,757020	-4,405510	8,316291	2020-10-29T19:30:54:651
2,775299	-4,350838	8,338964	2020-10-29T19:30:54:667
2,749531	-4,332526	8,357014	2020-10-29T19:30:54:692
2,682965	-4,312376	8,389010	2020-10-29T19:30:54:707
2,584891	-4,260997	8,445865	2020-10-29T19:30:54:731
2,517464	-4,141021	8,525533	2020-10-29T19:30:54:747
2,431098	-4,026782	8,604950	2020-10-29T19:30:54:770
2,302294	-4,036189	8,635914	2020-10-29T19:30:54:788
2,180707	-4,088051	8,643075	2020-10-29T19:30:54:811
2,066110	-4,132955	8,649870	2020-10-29T19:30:54:827
1,880367	-4,205743	8,657155	2020-10-29T19:30:54:851
1,799307	-4,214114	8,670301	2020-10-29T19:30:54:867
1,680665	-4,179376	8,710831	2020-10-29T19:30:54:891
1,584085	-4,142401	8,746518	2020-10-29T19:30:54:907
1,502429	-4,098258	8,781650	2020-10-29T19:30:54:931
1,438289	-4,070452	8,805290	2020-10-29T19:30:54:948
1,342539	-4,078761	8,816557	2020-10-29T19:30:54:971
1,244761	-4,085309	8,827866	2020-10-29T19:30:54:988
1,140726	-4,075384	8,846490	2020-10-29T19:30:55:010
1,036001	-4,063427	8,864855	2020-10-29T19:30:55:028
0,925927	-4,050341	8,883005	2020-10-29T19:30:55:051
0,811725	-4,038474	8,899563	2020-10-29T19:30:55:068
0,690262	-4,008483	8,923340	2020-10-29T19:30:55:093
0,571575	-3,937920	8,963061	2020-10-29T19:30:55:108
0,455107	-3,811751	9,024069	2020-10-29T19:30:55:131
0,354789	-3,661149	9,090682	2020-10-29T19:30:55:147
0,275963	-3,505271	9,154633	2020-10-29T19:30:55:171
0,220650	-3,374240	9,205227	2020-10-29T19:30:55:188
0,165591	-3,230079	9,257945	2020-10-29T19:30:55:211
0,132042	-3,129666	9,292909	2020-10-29T19:30:55:228
0,080492	-2,906247	9,365769	2020-10-29T19:30:55:250
0,030049	-2,633550	9,446369	2020-10-29T19:30:55:268
-0,023936	-2,232369	9,549154	2020-10-29T19:30:55:292
-0,077916	-1,650553	9,666436	2020-10-29T19:30:55:307
-0,121208	-1,014158	9,753316	2020-10-29T19:30:55:330
-0,159391	-0,344192	9,799312	2020-10-29T19:30:55:348
-0,194170	0,168653	9,803277	2020-10-29T19:30:55:372
-0,160114	-7,117038	6,744814	2020-10-29T19:30:55:388
-0,199489	-6,748236	7,112798	2020-10-29T19:30:55:411
-0,223828	-6,434731	7,396926	2020-10-29T19:30:55:428
-0,258701	-6,035310	7,725185	2020-10-29T19:30:55:451
-0,277905	-5,759510	7,932289	2020-10-29T19:30:55:468
-0,293080	-5,507565	8,108712	2020-10-29T19:30:55:491
-0,306170	-5,289764	8,251972	2020-10-29T19:30:55:508
-0,326346	-5,063364	8,392034	2020-10-29T19:30:55:532
-0,339197	-5,020233	8,417398	2020-10-29T19:30:55:548
-0,375510	-4,992139	8,432551	2020-10-29T19:30:55:572
-0,409265	-4,996404	8,428454	2020-10-29T19:30:55:588
-0,442383	-5,000785	8,424181	2020-10-29T19:30:55:612
-0,470762	-4,995554	8,425747	2020-10-29T19:30:55:628
-0,501242	-4,998312	8,422352	2020-10-29T19:30:55:652
-0,533283	-5,015253	8,410305	2020-10-29T19:30:55:668
-0,562822	-5,046957	8,389389	2020-10-29T19:30:55:692
-0,586308	-5,090741	8,361279	2020-10-29T19:30:55:708
-0,628992	-5,147334	8,323443	2020-10-29T19:30:55:732
-0,659043	-5,164707	8,310346	2020-10-29T19:30:55:748
-0,734597	-5,207456	8,277267	2020-10-29T19:30:55:772
-0,814263	-5,295384	8,213785	2020-10-29T19:30:55:788
-0,904294	-5,438641	8,110106	2020-10-29T19:30:55:811
-0,935927	-5,479690	8,078826	2020-10-29T19:30:55:828
-0,999009	-5,533993	8,034133	2020-10-29T19:30:55:852
-1,063828	-5,585324	7,990170	2020-10-29T19:30:55:868
-1,150368	-5,697554	7,898412	2020-10-29T19:30:55:894
-1,183675	-5,756965	7,850265	2020-10-29T19:30:55:909
-1,257448	-5,904279	7,728435	2020-10-29T19:30:55:932
-1,332683	-6,063163	7,591600	2020-10-29T19:30:55:948
-1,407360	-6,211762	7,456791	2020-10-29T19:30:55:971
-1,485469	-6,337549	7,334796	2020-10-29T19:30:55:989
-1,562963	-6,431528	7,236227	2020-10-29T19:30:56:012
-1,639401	-6,520521	7,139016	2020-10-29T19:30:56:028
-1,710169	-6,638497	7,012565	2020-10-29T19:30:56:051
-1,779162	-6,766551	6,871590	2020-10-29T19:30:56:068
-1,865694	-6,888214	6,726223	2020-10-29T19:30:56:092
-1,961901	-6,962673	6,621368	2020-10-29T19:30:56:108
-2,036999	-7,027788	6,529259	2020-10-29T19:30:56:132
-2,108796	-7,087130	6,441736	2020-10-29T19:30:56:148
-2,203351	-7,136179	6,355358	2020-10-29T19:30:56:172
-2,282696	-7,175331	6,282858	2020-10-29T19:30:56:189
-2,341179	-7,237523	6,189307	2020-10-29T19:30:56:211
-2,376457	-7,314509	6,084471	2020-10-29T19:30:56:228
-2,371207	-7,418280	5,959604	2020-10-29T19:30:56:252
-2,389890	-7,509622	5,836471	2020-10-29T19:30:56:269
-2,412723	-7,597872	5,711523	2020-10-29T19:30:56:292
-2,437639	-7,693873	5,570693	2020-10-29T19:30:56:308
-2,488533	-7,787640	5,415741	2020-10-29T19:30:56:333
-2,527846	-7,849929	5,306505	2020-10-29T19:30:56:348
-2,560761	-7,889902	5,230902	2020-10-29T19:30:56:373
-2,573021	-7,925765	5,170318	2020-10-29T19:30:56:389
-2,580986	-7,972795	5,093471	2020-10-29T19:30:56:412
-2,556375	-8,050563	4,982346	2020-10-29T19:30:56:429
-2,490437	-8,166035	4,825348	2020-10-29T19:30:56:452
-2,402696	-8,299102	4,639218	2020-10-29T19:30:56:469
-2,271662	-8,434858	4,456804	2020-10-29T19:30:56:493
-2,084969	-8,580426	4,266097	2020-10-29T19:30:56:509
-1,853853	-8,749586	4,022233	2020-10-29T19:30:56:531
-1,592199	-8,903395	3,790098	2020-10-29T19:30:56:549
-1,304634	-9,019485	3,621767	2020-10-29T19:30:56:573
-1,009070	-9,105800	3,498082	2020-10-29T19:30:56:589
-0,710767	-9,200217	3,319820	2020-10-29T19:30:56:612
-0,347890	-9,368139	2,878772	2020-10-29T19:30:56:628
-0,254978	-6,712341	7,144917	2020-10-29T19:30:56:652
0,116303	-6,471141	7,367577	2020-10-29T19:30:56:669
0,568487	-7,684151	6,066385	2020-10-29T19:30:56:692
0,952881	-8,069210	5,490925	2020-10-29T19:30:56:709
1,320993	-8,209733	5,198619	2020-10-29T19:30:56:736
1,672229	-8,240367	5,046820	2020-10-29T19:30:56:750
2,047886	-8,207085	4,961886	2020-10-29T19:30:56:772
2,454978	-8,127128	4,908488	2020-10-29T19:30:56:789
2,904214	-8,029704	4,822839	2020-10-29T19:30:56:813
3,310452	-7,901985	4,771785	2020-10-29T19:30:56:829
3,809705	-7,645052	4,817645	2020-10-29T19:30:56:853
4,351890	-7,334667	4,840878	2020-10-29T19:30:56:869
4,842900	-7,074683	4,760837	2020-10-29T19:30:56:893
5,281268	-6,852067	4,618201	2020-10-29T19:30:56:909
5,719522	-6,589960	4,475475	2020-10-29T19:30:56:932
6,154972	-6,284378	4,335124	2020-10-29T19:30:56:949
6,602838	-5,904062	4,208914	2020-10-29T19:30:56:973
6,973765	-5,526257	4,122799	2020-10-29T19:30:56:990
7,223049	-5,257667	4,044116	2020-10-29T19:30:57:012
7,398776	-5,043216	3,999310	2020-10-29T19:30:57:029
7,577483	-4,826952	3,930990	2020-10-29T19:30:57:053
7,673811	-4,682528	3,918793	2020-10-29T19:30:57:069
7,731296	-4,619720	3,880159	2020-10-29T19:30:57:094
7,750628	-4,596448	3,869214	2020-10-29T19:30:57:109
7,781308	-4,576602	3,830973	2020-10-29T19:30:57:133
7,784463	-4,595331	3,802033	2020-10-29T19:30:57:149
7,769992	-4,646185	3,769691	2020-10-29T19:30:57:173
7,732998	-4,705449	3,772251	2020-10-29T19:30:57:190
7,700767	-4,763938	3,764766	2020-10-29T19:30:57:213
7,651538	-4,838568	3,769962	2020-10-29T19:30:57:229
7,590029	-4,907559	3,804959	2020-10-29T19:30:57:252
7,541091	-4,941423	3,858064	2020-10-29T19:30:57:270
7,515571	-4,931555	3,919994	2020-10-29T19:30:57:294
7,506049	-4,888916	3,991005	2020-10-29T19:30:57:311
7,505702	-4,816439	4,078815	2020-10-29T19:30:57:334
7,513798	-4,718653	4,177026	2020-10-29T19:30:57:349
7,561042	-4,640724	4,179079	2020-10-29T19:30:57:373
7,650369	-4,576974	4,085774	2020-10-29T19:30:57:390
7,798926	-4,467778	3,922511	2020-10-29T19:30:57:413
7,929421	-4,430820	3,696281	2020-10-29T19:30:57:429
8,040988	-4,459737	3,409346	2020-10-29T19:30:57:454
8,071089	-4,474291	3,317925	2020-10-29T19:30:57:469
8,133367	-4,493108	3,135397	2020-10-29T19:30:57:493
8,213298	-4,454733	2,977829	2020-10-29T19:30:57:510
8,309646	-4,366317	2,838212	2020-10-29T19:30:57:533
8,414898	-4,236255	2,722868	2020-10-29T19:30:57:550
8,580979	-3,980241	2,587443	2020-10-29T19:30:57:585
8,635358	-3,886226	2,549161	2020-10-29T19:30:57:590
8,730581	-3,705389	2,493475	2020-10-29T19:30:57:613
8,816398	-3,539905	2,431171	2020-10-29T19:30:57:630
8,892178	-3,396371	2,358860	2020-10-29T19:30:57:653
8,958887	-3,264375	2,291851	2020-10-29T19:30:57:670
9,048437	-3,081214	2,191413	2020-10-29T19:30:57:695
9,074412	-3,031599	2,152865	2020-10-29T19:30:57:710
9,114598	-2,957539	2,085053	2020-10-29T19:30:57:732
9,152731	-2,884466	2,019346	2020-10-29T19:30:57:750
9,189977	-2,816943	1,944106	2020-10-29T19:30:57:774
9,217072	-2,759275	1,897990	2020-10-29T19:30:57:790
9,233515	-2,719794	1,874917	2020-10-29T19:30:57:816
9,233367	-2,722147	1,872226	2020-10-29T19:30:57:829
9,226599	-2,761308	1,848092	2020-10-29T19:30:57:854
9,225187	-2,773884	1,836264	2020-10-29T19:30:57:870
9,213101	-2,828089	1,814125	2020-10-29T19:30:57:894
9,205213	-2,854395	1,812973	2020-10-29T19:30:57:910
9,186996	-2,904099	1,826385	2020-10-29T19:30:57:934
9,148302	-2,995046	1,873139	2020-10-29T19:30:57:950
9,106375	-3,088946	1,924247	2020-10-29T19:30:57:973
9,059270	-3,193330	1,975516	2020-10-29T19:30:57:990
9,025023	-3,272153	2,003092	2020-10-29T19:30:58:014
8,970367	-3,395386	2,043095	2020-10-29T19:30:58:030
8,916082	-3,511639	2,083809	2020-10-29T19:30:58:054
8,852942	-3,656350	2,104022	2020-10-29T19:30:58:070
8,799986	-3,759085	2,144740	2020-10-29T19:30:58:095
8,802946	-3,729146	2,184489	2020-10-29T19:30:58:111
8,836154	-3,582755	2,292733	2020-10-29T19:30:58:135
8,855891	-3,459056	2,403852	2020-10-29T19:30:58:151
8,846720	-3,422863	2,487960	2020-10-29T19:30:58:175
8,793882	-3,527523	2,528755	2020-10-29T19:30:58:191
8,663679	-3,840268	2,522577	2020-10-29T19:30:58:214
8,601995	-3,982715	2,512778	2020-10-29T19:30:58:230
8,439805	-4,311347	2,520390	2020-10-29T19:30:58:255
8,265193	-4,641727	2,512237	2020-10-29T19:30:58:271
8,147065	-4,889328	2,426970	2020-10-29T19:30:58:296
8,020887	-5,144751	2,316741	2020-10-29T19:30:58:311
7,712413	-5,647554	2,189564	2020-10-29T19:30:58:335
7,612707	-5,794124	2,155272	2020-10-29T19:30:58:351
7,495903	-5,945490	2,152435	2020-10-29T19:30:58:374
7,447798	-5,991041	2,192742	2020-10-29T19:30:58:391
7,399675	-6,022939	2,267025	2020-10-29T19:30:58:415
7,339603	-6,056098	2,371557	2020-10-29T19:30:58:431
7,282676	-6,076226	2,492487	2020-10-29T19:30:58:454
7,218376	-6,108663	2,598014	2020-10-29T19:30:58:471
7,167845	-6,133914	2,677215	2020-10-29T19:30:58:495
7,130664	-6,147152	2,745274	2020-10-29T19:30:58:511
7,117918	-6,137299	2,799855	2020-10-29T19:30:58:536
7,120143	-6,111457	2,850270	2020-10-29T19:30:58:551
7,138352	-6,076060	2,880244	2020-10-29T19:30:58:575
7,208790	-5,995782	2,873035	2020-10-29T19:30:58:592
7,290958	-5,907845	2,847749	2020-10-29T19:30:58:614
7,373290	-5,827262	2,801429	2020-10-29T19:30:58:631
7,450899	-5,748995	2,757453	2020-10-29T19:30:58:655
7,531127	-5,657995	2,727562	2020-10-29T19:30:58:671
7,634615	-5,532537	2,697050	2020-10-29T19:30:58:694
7,758419	-5,382123	2,647654	2020-10-29T19:30:58:711
7,909329	-5,183798	2,596370	2020-10-29T19:30:58:736
8,066339	-4,961628	2,546921	2020-10-29T19:30:58:751
8,234268	-4,714325	2,478375	2020-10-29T19:30:58:775
8,401319	-4,461364	2,384209	2020-10-29T19:30:58:791
8,556182	-4,208230	2,291927	2020-10-29T19:30:58:815
8,695054	-3,957877	2,213961	2020-10-29T19:30:58:831
8,827506	-3,706460	2,123128	2020-10-29T19:30:58:854
8,930505	-3,507767	2,027814	2020-10-29T19:30:58:872
8,990625	-3,382275	1,974655	2020-10-29T19:30:58:895
9,049446	-3,265405	1,901324	2020-10-29T19:30:58:911
9,128044	-3,096174	1,806347	2020-10-29T19:30:58:935
9,191909	-2,943396	1,736553	2020-10-29T19:30:58:952
9,247168	-2,805861	1,669554	2020-10-29T19:30:58:976
9,294325	-2,681646	1,610804	2020-10-29T19:30:58:992
9,336822	-2,566056	1,552260	2020-10-29T19:30:59:015
9,373759	-2,463520	1,494687	2020-10-29T19:30:59:032
9,394146	-2,427122	1,424601	2020-10-29T19:30:59:055
9,399263	-2,441037	1,365862	2020-10-29T19:30:59:072
9,396399	-2,484492	1,305895	2020-10-29T19:30:59:094
9,383401	-2,555329	1,261932	2020-10-29T19:30:59:111
9,371502	-2,618834	1,219444	2020-10-29T19:30:59:135
9,379352	-2,617858	1,159727	2020-10-29T19:30:59:152
9,403546	-2,558449	1,094547	2020-10-29T19:30:59:175
9,419543	-2,512413	1,063187	2020-10-29T19:30:59:192
9,430220	-2,475466	1,055186	2020-10-29T19:30:59:215
9,436341	-2,450156	1,059522	2020-10-29T19:30:59:232
9,432627	-2,457433	1,075621	2020-10-29T19:30:59:256
9,418633	-2,500327	1,099135	2020-10-29T19:30:59:272
9,400999	-2,545300	1,145887	2020-10-29T19:30:59:296
9,380508	-2,605178	1,178769	2020-10-29T19:30:59:312
9,330172	-2,739614	1,269960	2020-10-29T19:30:59:335
9,287322	-2,844452	1,350975	2020-10-29T19:30:59:351
9,232376	-2,966394	1,460863	2020-10-29T19:30:59:377
9,211770	-3,004355	1,512457	2020-10-29T19:30:59:392
9,175548	-3,052733	1,631110	2020-10-29T19:30:59:414
9,134465	-3,093355	1,778505	2020-10-29T19:30:59:432
9,084732	-3,127115	1,964478	2020-10-29T19:30:59:455
9,040574	-3,111867	2,180526	2020-10-29T19:30:59:472
8,969630	-3,048800	2,533956	2020-10-29T19:30:59:497
8,943191	-3,019529	2,659356	2020-10-29T19:30:59:512
8,893925	-2,999058	2,841503	2020-10-29T19:30:59:536
8,835071	-3,053356	2,964613	2020-10-29T19:30:59:552
8,779998	-3,151103	3,025322	2020-10-29T19:30:59:575
8,714110	-3,269509	3,089494	2020-10-29T19:30:59:592
8,614142	-3,437154	3,186362	2020-10-29T19:30:59:616
8,567319	-3,509024	3,233910	2020-10-29T19:30:59:632
8,463040	-3,648925	3,351520	2020-10-29T19:30:59:655
8,351912	-3,777004	3,485712	2020-10-29T19:30:59:673
8,248995	-3,886320	3,608461	2020-10-29T19:30:59:720
8,179266	-3,962576	3,683473	2020-10-29T19:30:59:739
8,106665	-4,042848	3,756028	2020-10-29T19:30:59:740
8,043076	-4,116303	3,812528	2020-10-29T19:30:59:752
7,989392	-4,174749	3,861536	2020-10-29T19:30:59:776
7,937735	-4,241849	3,894799	2020-10-29T19:30:59:793
7,868206	-4,357243	3,908473	2020-10-29T19:30:59:816
7,848678	-4,398184	3,901874	2020-10-29T19:30:59:832
7,786747	-4,501067	3,908624	2020-10-29T19:30:59:856
7,734796	-4,608655	3,886338	2020-10-29T19:30:59:873
7,696265	-4,712774	3,837662	2020-10-29T19:30:59:896
7,707400	-4,788563	3,719681	2020-10-29T19:30:59:912
7,735432	-4,843273	3,588340	2020-10-29T19:30:59:936
7,778870	-4,865570	3,462052	2020-10-29T19:30:59:952
7,844964	-4,846985	3,336716	2020-10-29T19:30:59:976
7,916500	-4,798397	3,236480	2020-10-29T19:30:59:993
8,006176	-4,713267	3,139530	2020-10-29T19:31:00:019
8,117684	-4,580290	3,048692	2020-10-29T19:31:00:034
8,251637	-4,406169	2,943898	2020-10-29T19:31:00:064
8,370738	-4,239269	2,851269	2020-10-29T19:31:00:077
8,492362	-4,053398	2,760459	2020-10-29T19:31:00:100
8,600946	-3,875363	2,678744	2020-10-29T19:31:00:113
8,726845	-3,662059	2,569414	2020-10-29T19:31:00:315
8,824496	-3,423909	2,564274	2020-10-29T19:31:00:316
8,930794	-3,242041	2,429090	2020-10-29T19:31:00:316
8,965429	-3,232097	2,311926	2020-10-29T19:31:00:316
8,969126	-3,303887	2,193058	2020-10-29T19:31:00:317
8,963896	-3,350957	2,142438	2020-10-29T19:31:00:318
8,960323	-3,366591	2,132851	2020-10-29T19:31:00:318
8,926955	-3,416419	2,192700	2020-10-29T19:31:00:319
8,901927	-3,437943	2,259786	2020-10-29T19:31:00:320
8,890927	-3,431062	2,312922	2020-10-29T19:31:00:321
8,904432	-3,381874	2,333324	2020-10-29T19:31:00:366
8,943604	-3,279043	2,330284	2020-10-29T19:31:00:369
8,993232	-3,159303	2,304555	2020-10-29T19:31:00:389
9,032089	-3,046686	2,304224	2020-10-29T19:31:00:417
9,058856	-2,956539	2,316549	2020-10-29T19:31:00:419
9,071880	-2,907183	2,328016	2020-10-29T19:31:00:436
9,072611	-2,916295	2,313727	2020-10-29T19:31:00:467
9,068589	-2,932956	2,308428	2020-10-29T19:31:00:471
9,057252	-2,953365	2,326845	2020-10-29T19:31:00:495
9,030504	-2,984577	2,390121	2020-10-29T19:31:00:511
8,989235	-3,024540	2,493229	2020-10-29T19:31:00:534
8,936583	-3,064517	2,629946	2020-10-29T19:31:00:551
8,873042	-3,098984	2,799251	2020-10-29T19:31:00:577
8,804143	-3,127814	2,978966	2020-10-29T19:31:00:593
8,750201	-3,162718	3,098642	2020-10-29T19:31:00:616
8,698709	-3,207218	3,196343	2020-10-29T19:31:00:633
8,650145	-3,271437	3,262373	2020-10-29T19:31:00:657
8,608463	-3,358180	3,284414	2020-10-29T19:31:00:673
8,548839	-3,495534	3,296814	2020-10-29T19:31:00:699
8,528294	-3,538566	3,304110	2020-10-29T19:31:00:713
8,487974	-3,612908	3,327399	2020-10-29T19:31:00:740
8,447487	-3,678084	3,358876	2020-10-29T19:31:00:784
8,407063	-3,737537	3,394482	2020-10-29T19:31:00:786
8,370601	-3,783852	3,433059	2020-10-29T19:31:00:793
8,345301	-3,822234	3,452083	2020-10-29T19:31:00:817
8,329743	-3,860152	3,447461	2020-10-29T19:31:00:833
8,321988	-3,920319	3,397940	2020-10-29T19:31:00:857
8,318230	-3,948154	3,374837	2020-10-29T19:31:00:874
8,309965	-4,003433	3,329773	2020-10-29T19:31:00:897
8,300385	-4,063087	3,281057	2020-10-29T19:31:00:913
8,286442	-4,129772	3,232686	2020-10-29T19:31:00:938
8,266473	-4,195135	3,199477	2020-10-29T19:31:00:953
8,242793	-4,269477	3,162011	2020-10-29T19:31:00:978
8,238169	-4,284324	3,153972	2020-10-29T19:31:00:994
8,233205	-4,296762	3,150009	2020-10-29T19:31:01:017
8,240986	-4,284949	3,145750	2020-10-29T19:31:01:033
8,268333	-4,235520	3,140925	2020-10-29T19:31:01:057
8,323556	-4,148336	3,111287	2020-10-29T19:31:01:073
8,327594	-4,211390	3,014260	2020-10-29T19:31:09:129
8,330095	-4,292874	2,889830	2020-10-29T19:31:09:143
8,307362	-4,396074	2,798688	2020-10-29T19:31:09:144
8,290618	-4,500665	2,679563	2020-10-29T19:31:09:149
8,242933	-4,651242	2,567175	2020-10-29T19:31:09:158
8,172549	-4,817568	2,484121	2020-10-29T19:31:09:180
8,095657	-4,986619	2,400903	2020-10-29T19:31:09:196
7,999002	-5,174644	2,325813	2020-10-29T19:31:09:221
7,862797	-5,413743	2,244592	2020-10-29T19:31:09:243
7,673719	-5,714136	2,152458	2020-10-29T19:31:09:260
7,534375	-5,922239	2,081024	2020-10-29T19:31:09:276
7,473905	-6,019534	2,018998	2020-10-29T19:31:09:301
7,476285	-6,034004	1,966302	2020-10-29T19:31:09:316
7,517209	-5,993538	1,933765	2020-10-29T19:31:09:340
7,659667	-5,803918	1,953057	2020-10-29T19:31:09:359
7,873472	-5,490739	2,007639	2020-10-29T19:31:09:380
8,124340	-5,090607	2,061846	2020-10-29T19:31:09:397
8,371419	-4,658648	2,094453	2020-10-29T19:31:09:419
8,599121	-4,221874	2,097923	2020-10-29T19:31:09:437
8,792972	-3,813827	2,075756	2020-10-29T19:31:09:460
8,943463	-3,468344	2,038491	2020-10-29T19:31:09:477
9,057403	-3,187639	1,993189	2020-10-29T19:31:09:500
9,140445	-2,972369	1,946194	2020-10-29T19:31:09:517
9,197644	-2,819466	1,903771	2020-10-29T19:31:09:542
9,238738	-2,705531	1,869816	2020-10-29T19:31:09:557
9,258307	-2,642241	1,863513	2020-10-29T19:31:09:580
9,258259	-2,626608	1,885726	2020-10-29T19:31:09:597
9,238756	-2,662541	1,930452	2020-10-29T19:31:09:620
9,201430	-2,738633	2,000990	2020-10-29T19:31:09:637
9,134825	-2,869473	2,119312	2020-10-29T19:31:09:660
9,060114	-3,012215	2,238590	2020-10-29T19:31:09:677
8,977283	-3,157111	2,368846	2020-10-29T19:31:09:700
8,894830	-3,301244	2,480762	2020-10-29T19:31:09:717
8,820109	-3,392575	2,620399	2020-10-29T19:31:09:740
8,758789	-3,438262	2,762671	2020-10-29T19:31:09:758
8,720025	-3,449504	2,869228	2020-10-29T19:31:09:781
8,673075	-3,465672	2,989529	2020-10-29T19:31:09:797
8,623145	-3,517922	3,071805	2020-10-29T19:31:09:820
8,566885	-3,603907	3,129014	2020-10-29T19:31:09:838
8,508111	-3,718400	3,155303	2020-10-29T19:31:09:862
8,457445	-3,832824	3,154593	2020-10-29T19:31:09:877
8,385089	-3,997532	3,143312	2020-10-29T19:31:09:902
8,325733	-4,168153	3,078806	2020-10-29T19:31:09:917
8,261234	-4,343025	3,010070	2020-10-29T19:31:09:941
8,216244	-4,469772	2,947009	2020-10-29T19:31:09:958
8,183224	-4,581717	2,865849	2020-10-29T19:31:09:981
8,174537	-4,646632	2,784985	2020-10-29T19:31:09:997
8,181221	-4,684190	2,701179	2020-10-29T19:31:10:022
8,200154	-4,689755	2,633259	2020-10-29T19:31:10:038
8,232641	-4,674389	2,558143	2020-10-29T19:31:10:062
8,269527	-4,646316	2,489388	2020-10-29T19:31:10:077
8,315196	-4,602691	2,417258	2020-10-29T19:31:10:101
8,352439	-4,561402	2,366593	2020-10-29T19:31:10:117
8,387999	-4,514513	2,330459	2020-10-29T19:31:10:141
8,415826	-4,475212	2,305804	2020-10-29T19:31:10:158
8,440394	-4,436109	2,291521	2020-10-29T19:31:10:182
8,461396	-4,402572	2,278709	2020-10-29T19:31:10:198
8,487388	-4,360207	2,263455	2020-10-29T19:31:10:221
8,518671	-4,307485	2,246822	2020-10-29T19:31:10:237
8,564368	-4,230134	2,219899	2020-10-29T19:31:10:264
8,580951	-4,202228	2,208833	2020-10-29T19:31:10:277
8,614790	-4,154053	2,167861	2020-10-29T19:31:10:301
8,659180	-4,091304	2,109555	2020-10-29T19:31:10:318
8,704750	-4,020434	2,057624	2020-10-29T19:31:10:341
8,742826	-3,954719	2,023260	2020-10-29T19:31:10:358
8,772101	-3,902201	1,998360	2020-10-29T19:31:10:381
8,764383	-3,895433	2,044888	2020-10-29T19:31:10:398
8,726548	-3,932421	2,133964	2020-10-29T19:31:10:421
8,665438	-3,997067	2,259209	2020-10-29T19:31:10:438
8,606541	-4,039557	2,404127	2020-10-29T19:31:10:462
8,569056	-4,050978	2,516199	2020-10-29T19:31:10:478
8,561043	-4,011844	2,604618	2020-10-29T19:31:10:502
8,537548	-4,017166	2,672645	2020-10-29T19:31:10:517
8,482584	-4,080264	2,750927	2020-10-29T19:31:10:541
8,383283	-4,232634	2,824141	2020-10-29T19:31:10:558
8,286539	-4,386026	2,875141	2020-10-29T19:31:10:581
8,181315	-4,567267	2,894224	2020-10-29T19:31:10:598
8,068202	-4,763865	2,894838	2020-10-29T19:31:10:621
7,968717	-4,948489	2,860489	2020-10-29T19:31:10:638
7,868512	-5,145108	2,790118	2020-10-29T19:31:10:662
7,778583	-5,327069	2,699327	2020-10-29T19:31:10:678
7,685053	-5,513426	2,590844	2020-10-29T19:31:10:701
7,585028	-5,708138	2,460671	2020-10-29T19:31:10:718
7,484140	-5,892574	2,331439	2020-10-29T19:31:10:742
7,407442	-6,032511	2,215626	2020-10-29T19:31:10:759
7,316335	-6,174187	2,126274	2020-10-29T19:31:10:781
7,147329	-6,398456	2,036133	2020-10-29T19:31:10:798
6,983569	-6,594065	1,979507	2020-10-29T19:31:10:821
6,844772	-6,760293	1,902084	2020-10-29T19:31:10:839
6,633066	-7,010955	1,737621	2020-10-29T19:31:10:862
6,335071	-7,333808	1,500841	2020-10-29T19:31:10:878
5,977299	-7,678367	1,218590	2020-10-29T19:31:10:902
5,606283	-7,992123	0,930561	2020-10-29T19:31:10:918
5,269750	-8,242878	0,674597	2020-10-29T19:31:10:941
4,991050	-8,428906	0,461897	2020-10-29T19:31:10:959
4,789340	-8,552079	0,307468	2020-10-29T19:31:10:982
4,629529	-8,642997	0,190951	2020-10-29T19:31:10:998
4,496694	-8,714361	0,100163	2020-10-29T19:31:11:021
4,394171	-8,767041	0,025325	2020-10-29T19:31:11:038
4,305445	-8,810904	-0,038896	2020-10-29T19:31:11:062
4,263589	-8,831008	-0,074097	2020-10-29T19:31:11:078
4,269600	-8,828002	-0,085301	2020-10-29T19:31:11:102
4,293993	-8,816244	-0,076414	2020-10-29T19:31:11:118
4,348737	-8,789530	-0,055160	2020-10-29T19:31:11:141
4,412051	-8,758081	-0,013859	2020-10-29T19:31:11:159
4,465162	-8,731099	0,025092	2020-10-29T19:31:11:182
4,504322	-8,710814	0,056630	2020-10-29T19:31:11:199
4,539867	-8,692162	0,079478	2020-10-29T19:31:11:223
4,547771	-8,687977	0,084961	2020-10-29T19:31:11:238
4,563255	-8,679795	0,090759	2020-10-29T19:31:11:262
4,537479	-8,693543	0,063006	2020-10-29T19:31:11:279
4,452881	-8,737315	-0,039443	2020-10-29T19:31:11:301
4,358944	-8,783484	-0,142818	2020-10-29T19:31:11:319
4,229649	-8,842860	-0,290313	2020-10-29T19:31:11:342
4,193484	-8,858717	-0,328942	2020-10-29T19:31:11:359
4,129189	-8,886542	-0,386715	2020-10-29T19:31:11:382
4,119525	-8,890807	-0,391718	2020-10-29T19:31:11:399
4,112689	-8,893946	-0,392295	2020-10-29T19:31:11:422
4,098803	-8,899656	-0,407818	2020-10-29T19:31:11:439
4,099932	-8,898570	-0,419990	2020-10-29T19:31:11:464
4,113960	-8,891065	-0,441227	2020-10-29T19:31:11:479
4,112050	-8,889131	-0,494755	2020-10-29T19:31:11:502
4,079762	-8,898549	-0,584591	2020-10-29T19:31:11:519
4,030901	-8,912713	-0,696972	2020-10-29T19:31:11:542
3,988098	-8,921918	-0,815380	2020-10-29T19:31:11:560
3,942402	-8,930564	-0,934279	2020-10-29T19:31:11:583
3,893849	-8,938471	-1,054545	2020-10-29T19:31:11:599
3,820904	-8,949719	-1,213914	2020-10-29T19:31:11:622
3,803450	-8,951551	-1,254547	2020-10-29T19:31:11:639
3,784889	-8,952266	-1,304581	2020-10-29T19:31:11:662
3,776756	-8,952626	-1,325514	2020-10-29T19:31:11:678
3,783254	-8,949512	-1,328009	2020-10-29T19:31:11:702
3,819300	-8,937661	-1,304432	2020-10-29T19:31:11:719
3,882823	-8,916370	-1,261907	2020-10-29T19:31:11:742
3,977193	-8,882223	-1,207655	2020-10-29T19:31:11:760
4,078905	-8,842273	-1,160664	2020-10-29T19:31:11:782
4,199527	-8,792187	-1,109871	2020-10-29T19:31:11:799
4,343940	-8,725289	-1,081614	2020-10-29T19:31:11:822
4,527407	-8,635075	-1,052835	2020-10-29T19:31:11:839
4,753369	-8,517490	-1,014016	2020-10-29T19:31:11:862
4,994844	-8,384336	-0,961669	2020-10-29T19:31:11:879
5,257188	-8,228663	-0,906336	2020-10-29T19:31:11:902
5,454308	-8,105811	-0,846608	2020-10-29T19:31:11:919
5,584596	-8,021776	-0,796104	2020-10-29T19:31:11:943
5,715918	-7,931343	-0,769719	2020-10-29T19:31:11:960
5,808831	-7,866601	-0,737870	2020-10-29T19:31:11:982
5,832405	-7,856406	-0,655989	2020-10-29T19:31:11:999
5,842012	-7,857441	-0,549445	2020-10-29T19:31:12:022
5,849762	-7,859860	-0,416262	2020-10-29T19:31:12:039
5,868793	-7,852311	-0,262427	2020-10-29T19:31:12:064
5,880480	-7,846547	-0,148472	2020-10-29T19:31:12:079
5,871416	-7,854160	-0,095044	2020-10-29T19:31:12:102
5,807199	-7,901748	-0,095916	2020-10-29T19:31:12:120
5,696000	-7,981763	-0,132017	2020-10-29T19:31:12:143
5,564948	-8,072959	-0,170546	2020-10-29T19:31:12:160
5,386570	-8,192522	-0,194478	2020-10-29T19:31:12:185
5,334963	-8,226408	-0,186461	2020-10-29T19:31:12:199
5,286508	-8,258911	-0,116594	2020-10-29T19:31:12:222
5,294435	-8,254656	0,000415	2020-10-29T19:31:12:240
5,370248	-8,204011	0,158225	2020-10-29T19:31:12:263
5,457643	-8,142974	0,276599	2020-10-29T19:31:12:280
5,639912	-8,010871	0,433273	2020-10-29T19:31:12:303
5,878632	-7,827957	0,578929	2020-10-29T19:31:12:320
6,172836	-7,586927	0,710639	2020-10-29T19:31:12:343
6,531002	-7,268060	0,831689	2020-10-29T19:31:12:360
6,912469	-6,893808	0,929282	2020-10-29T19:31:12:383
7,315103	-6,453946	1,003112	2020-10-29T19:31:12:400
7,700270	-5,981914	1,045430	2020-10-29T19:31:12:423
8,026226	-5,534572	1,057632	2020-10-29T19:31:12:440
8,287000	-5,136490	1,054751	2020-10-29T19:31:12:464
8,474391	-4,825394	1,034727	2020-10-29T19:31:12:480
8,622965	-4,560996	1,006075	2020-10-29T19:31:12:503
8,736412	-4,346939	0,974478	2020-10-29T19:31:12:520
8,821548	-4,178106	0,945568	2020-10-29T19:31:12:543
8,882758	-4,052895	0,917078	2020-10-29T19:31:12:560
4,378306	-8,559985	1,930667	2020-10-29T19:31:12:583
4,223669	-8,617065	2,019204	2020-10-29T19:31:12:600
4,007086	-8,695099	2,123416	2020-10-29T19:31:12:624
3,945985	-8,718249	2,142829	2020-10-29T19:31:12:641
3,826038	-8,748534	2,234943	2020-10-29T19:31:12:665
3,751538	-8,754487	2,335659	2020-10-29T19:31:12:680
3,702868	-8,743686	2,450942	2020-10-29T19:31:12:703
3,669997	-8,729667	2,548417	2020-10-29T19:31:12:720
3,634700	-8,719578	2,632168	2020-10-29T19:31:12:743
3,586061	-8,710450	2,727380	2020-10-29T19:31:12:761
3,531411	-8,696751	2,840080	2020-10-29T19:31:12:783
3,477262	-8,676203	2,966908	2020-10-29T19:31:12:800
3,418318	-8,651960	3,103073	2020-10-29T19:31:12:823
3,366425	-8,618202	3,250256	2020-10-29T19:31:12:840
3,403237	-8,591135	3,283406	2020-10-29T19:31:12:864
3,448641	-8,560741	3,315263	2020-10-29T19:31:12:880
3,502835	-8,531342	3,334179	2020-10-29T19:31:12:904
3,559280	-8,508747	3,332137	2020-10-29T19:31:12:920
3,638754	-8,480227	3,318978	2020-10-29T19:31:12:944
3,670009	-8,466956	3,318445	2020-10-29T19:31:12:961
3,742359	-8,432199	3,326131	2020-10-29T19:31:12:983
3,829511	-8,388138	3,338319	2020-10-29T19:31:13:000
3,931782	-8,334338	3,354145	2020-10-29T19:31:13:023
4,056259	-8,270165	3,364745	2020-10-29T19:31:13:041
4,209203	-8,194283	3,362545	2020-10-29T19:31:13:064
4,366243	-8,121765	3,338149	2020-10-29T19:31:13:080
4,524576	-8,055137	3,288368	2020-10-29T19:31:13:104
4,675337	-7,999649	3,212045	2020-10-29T19:31:13:120
4,822288	-7,953297	3,108215	2020-10-29T19:31:13:145
4,975154	-7,906879	2,983200	2020-10-29T19:31:13:161
5,164123	-7,827359	2,869612	2020-10-29T19:31:13:183
5,334055	-7,563282	3,242686	2020-10-29T19:31:13:200
5,555273	-7,272199	3,524833	2020-10-29T19:31:13:223
5,813244	-7,162349	3,328264	2020-10-29T19:31:13:240
6,045460	-7,000337	3,258541	2020-10-29T19:31:13:264
6,174170	-6,866717	3,301242	2020-10-29T19:31:13:280
6,302907	-6,708323	3,382625	2020-10-29T19:31:13:303
6,418385	-6,564437	3,447158	2020-10-29T19:31:13:320
6,533190	-6,453863	3,440271	2020-10-29T19:31:13:343
6,673766	-6,362149	3,339804	2020-10-29T19:31:13:361
6,884060	-6,210840	3,194613	2020-10-29T19:31:13:386
6,952625	-6,086301	3,284559	2020-10-29T19:31:13:401
7,096956	-5,902272	3,311614	2020-10-29T19:31:13:424
7,235106	-5,748418	3,283186	2020-10-29T19:31:13:440
7,488979	-5,510646	3,117426	2020-10-29T19:31:13:464
7,661383	-5,230022	3,181268	2020-10-29T19:31:13:480
7,841614	-4,878919	3,297820	2020-10-29T19:31:13:504
8,002769	-4,498550	3,448061	2020-10-29T19:31:13:521
8,101377	-4,198968	3,592595	2020-10-29T19:31:13:543
8,099218	-4,073580	3,738849	2020-10-29T19:31:13:561
8,092690	-3,787761	4,041239	2020-10-29T19:31:13:584
7,858774	-3,330794	4,828650	2020-10-29T19:31:13:601
7,544211	-3,040018	5,478462	2020-10-29T19:31:13:625
6,935383	-2,777629	6,352608	2020-10-29T19:31:13:640
6,056044	-2,600744	7,261601	2020-10-29T19:31:13:664
5,153399	-2,509552	7,957073	2020-10-29T19:31:13:681
4,664785	-2,534445	8,245408	2020-10-29T19:31:13:704
5,303580	-2,937292	7,708096	2020-10-29T19:31:13:721
5,380704	-3,325547	7,493941	2020-10-29T19:31:13:744
4,975148	-3,583096	7,653738	2020-10-29T19:31:13:761
9,155440	-1,525216	3,165756	2020-10-29T19:31:13:784
9,026755	-1,701281	3,434198	2020-10-29T19:31:13:801
8,870816	-1,871966	3,738280	2020-10-29T19:31:13:824
8,690704	-2,032969	4,063137	2020-10-29T19:31:13:841
8,491371	-2,193482	4,388125	2020-10-29T19:31:13:866
8,308588	-2,347581	4,650443	2020-10-29T19:31:13:881
8,139959	-2,553343	4,836516	2020-10-29T19:31:13:904
7,967378	-2,777235	4,997823	2020-10-29T19:31:13:921
7,760213	-2,999925	5,191332	2020-10-29T19:31:13:948
7,500694	-3,228956	5,429901	2020-10-29T19:31:13:962
7,211500	-3,454750	5,677090	2020-10-29T19:31:13:984
6,915847	-3,643814	5,921492	2020-10-29T19:31:14:001
6,639273	-3,800096	6,135936	2020-10-29T19:31:14:028
6,370215	-3,936790	6,331858	2020-10-29T19:31:14:041
6,081983	-4,052734	6,538748	2020-10-29T19:31:14:065
5,824595	-4,112618	6,732818	2020-10-29T19:31:14:081
5,481990	-4,164830	6,983721	2020-10-29T19:31:14:107
5,379791	-4,186646	7,049839	2020-10-29T19:31:14:121
5,212307	-4,237635	7,144557	2020-10-29T19:31:14:144
5,070280	-4,301098	7,208551	2020-10-29T19:31:14:162
4,926674	-4,429914	7,230084	2020-10-29T19:31:14:184
4,765825	-4,580472	7,244072	2020-10-29T19:31:14:201
4,601271	-4,719111	7,261451	2020-10-29T19:31:14:224
4,443386	-4,814153	7,297304	2020-10-29T19:31:14:241
4,270837	-4,843924	7,380158	2020-10-29T19:31:14:265
4,112471	-4,824140	7,482355	2020-10-29T19:31:14:282
3,998009	-4,747790	7,592417	2020-10-29T19:31:14:305
3,886856	-4,690639	7,685092	2020-10-29T19:31:14:322
3,766733	-4,639843	7,775215	2020-10-29T19:31:14:346
3,585792	-4,579109	7,895837	2020-10-29T19:31:14:362
3,332341	-4,466943	8,069220	2020-10-29T19:31:14:385
3,255850	-4,421692	8,125175	2020-10-29T19:31:14:402
3,088337	-4,365842	8,220218	2020-10-29T19:31:14:425
2,929106	-4,336099	8,293911	2020-10-29T19:31:14:442
2,768927	-4,387685	8,321757	2020-10-29T19:31:14:465
2,599321	-4,451890	8,342338	2020-10-29T19:31:14:482
2,440185	-4,418530	8,407882	2020-10-29T19:31:14:504
2,293379	-4,360822	8,479034	2020-10-29T19:31:14:522
2,126720	-4,309369	8,548496	2020-10-29T19:31:14:545
1,970987	-4,264660	8,608035	2020-10-29T19:31:14:562
1,827833	-4,219109	8,661901	2020-10-29T19:31:14:585
1,642825	-4,177467	8,718961	2020-10-29T19:31:14:601
1,485612	-4,125774	8,771621	2020-10-29T19:31:14:626
1,346423	-4,042788	8,832520	2020-10-29T19:31:14:643
1,229887	-3,936019	8,897501	2020-10-29T19:31:14:666
1,126231	-3,853893	8,947039	2020-10-29T19:31:14:682
1,014027	-3,802926	8,982199	2020-10-29T19:31:14:705
0,895134	-3,762198	9,011935	2020-10-29T19:31:14:722
0,781515	-3,689296	9,052553	2020-10-29T19:31:14:745
0,650568	-3,554600	9,116576	2020-10-29T19:31:14:763
0,573197	-3,431549	9,168768	2020-10-29T19:31:14:785
0,476179	-3,316686	9,216465	2020-10-29T19:31:14:802
0,397375	-3,186679	9,265935	2020-10-29T19:31:14:826
0,314703	-3,050526	9,314808	2020-10-29T19:31:14:845
0,244666	-2,925688	9,356862	2020-10-29T19:31:14:866
0,173592	-2,787987	9,400393	2020-10-29T19:31:14:882
0,030284	-2,394676	9,509731	2020-10-29T19:31:14:905
-0,048631	-2,100127	9,579013	2020-10-29T19:31:14:922
-0,122927	-1,769871	9,644835	2020-10-29T19:31:14:945
-0,192457	-1,302618	9,717846	2020-10-29T19:31:14:963
-0,260789	-0,733920	9,775671	2020-10-29T19:31:14:985
-0,325866	-0,108679	9,800632	2020-10-29T19:31:15:002
-0,373036	0,493179	9,787134	2020-10-29T19:31:15:025
-0,385539	0,881814	9,759311	2020-10-29T19:31:15:042
-0,304819	-6,669595	7,182895	2020-10-29T19:31:15:067
-0,310115	-6,426982	7,400548	2020-10-29T19:31:15:082
-0,315937	-6,321002	7,491028	2020-10-29T19:31:15:105
-0,341190	-6,256571	7,543825	2020-10-29T19:31:15:122
-0,377929	-6,115564	7,656856	2020-10-29T19:31:15:145
-0,420118	-6,030211	7,722075	2020-10-29T19:31:15:163
-0,477186	-5,944857	7,784687	2020-10-29T19:31:15:185
-0,535233	-5,933343	7,789695	2020-10-29T19:31:15:202
-0,615459	-5,951807	7,769658	2020-10-29T19:31:15:226
-0,649756	-5,954911	7,764485	2020-10-29T19:31:15:242
-0,722521	-5,966909	7,748828	2020-10-29T19:31:15:266
-0,791912	-5,980678	7,731413	2020-10-29T19:31:15:282
-0,852329	-6,007596	7,704072	2020-10-29T19:31:15:306
-0,907835	-6,007043	7,698159	2020-10-29T19:31:15:322
-0,958851	-5,966948	7,723116	2020-10-29T19:31:15:346
-1,007527	-5,920331	7,752739	2020-10-29T19:31:15:364
-1,049628	-5,877968	7,779342	2020-10-29T19:31:15:386
-1,090322	-5,839723	7,802514	2020-10-29T19:31:15:402
-1,131549	-5,774931	7,844753	2020-10-29T19:31:15:425
-1,171544	-5,712936	7,884176	2020-10-29T19:31:15:443
-1,212568	-5,649483	7,923598	2020-10-29T19:31:15:466
-1,256777	-5,596467	7,954273	2020-10-29T19:31:15:483
-1,305007	-5,556223	7,974693	2020-10-29T19:31:15:506
-1,349041	-5,531434	7,984592	2020-10-29T19:31:15:523
-1,414169	-5,524056	7,978428	2020-10-29T19:31:15:549
-1,434042	-5,528120	7,972064	2020-10-29T19:31:15:563
-1,460895	-5,537602	7,960598	2020-10-29T19:31:15:586
-1,481107	-5,544829	7,951828	2020-10-29T19:31:15:603
-1,504047	-5,561907	7,935579	2020-10-29T19:31:15:627
-1,512123	-5,567063	7,930427	2020-10-29T19:31:15:643
-1,533202	-5,570594	7,923898	2020-10-29T19:31:15:667
-1,557297	-5,571280	7,918715	2020-10-29T19:31:15:683
-1,591756	-5,565110	7,916202	2020-10-29T19:31:15:706
-1,621745	-5,564448	7,910578	2020-10-29T19:31:15:723
-1,646091	-5,574661	7,898350	2020-10-29T19:31:15:746
-1,664864	-5,588543	7,884592	2020-10-29T19:31:15:764
-1,674477	-5,599274	7,874938	2020-10-29T19:31:15:786
-1,685047	-5,597541	7,873915	2020-10-29T19:31:15:803
-1,696110	-5,585345	7,880198	2020-10-29T19:31:15:826
-1,711305	-5,564988	7,891307	2020-10-29T19:31:15:844
-1,726646	-5,541524	7,904466	2020-10-29T19:31:15:867
-1,743090	-5,525700	7,911932	2020-10-29T19:31:15:883
-1,756965	-5,512952	7,917753	2020-10-29T19:31:15:906
-1,767619	-5,505950	7,920254	2020-10-29T19:31:15:923
-1,780314	-5,504776	7,918226	2020-10-29T19:31:15:946
-1,792813	-5,501080	7,917975	2020-10-29T19:31:15:964
-1,801056	-5,495343	7,920087	2020-10-29T19:31:15:986
-1,807028	-5,491621	7,921309	2020-10-29T19:31:16:003
-1,814470	-5,487293	7,922607	2020-10-29T19:31:16:027
-1,822189	-5,492346	7,917332	2020-10-29T19:31:16:043
-1,828229	-5,503080	7,908481	2020-10-29T19:31:16:068
-1,832670	-5,507432	7,904423	2020-10-29T19:31:16:083
-1,848284	-5,516143	7,894707	2020-10-29T19:31:16:106
-1,853200	-5,526707	7,886162	2020-10-29T19:31:16:123
-1,860414	-5,540817	7,874553	2020-10-29T19:31:16:146
-1,864296	-5,545855	7,870088	2020-10-29T19:31:16:165
-1,876054	-5,542197	7,869870	2020-10-29T19:31:16:187
-1,880555	-5,532806	7,875402	2020-10-29T19:31:16:203
-1,898855	-5,525792	7,875936	2020-10-29T19:31:16:226
-1,920867	-5,573633	7,836790	2020-10-29T19:31:16:243
-1,950520	-5,656420	7,769863	2020-10-29T19:31:16:268
-1,986372	-5,720615	7,713577	2020-10-29T19:31:16:283
-2,017600	-5,742101	7,689470	2020-10-29T19:31:16:306
-2,061069	-5,713304	7,699385	2020-10-29T19:31:16:324
-2,131788	-5,667751	7,713784	2020-10-29T19:31:16:347
-2,162919	-5,672909	7,701316	2020-10-29T19:31:16:364
-2,214183	-5,725121	7,647925	2020-10-29T19:31:16:388
-2,256474	-5,790426	7,586151	2020-10-29T19:31:16:404
-2,279958	-5,855369	7,529066	2020-10-29T19:31:16:427
-2,285060	-5,856863	7,526357	2020-10-29T19:31:16:444
-2,295335	-5,863475	7,518077	2020-10-29T19:31:16:468
-2,309065	-5,897084	7,487524	2020-10-29T19:31:16:484
-2,327430	-5,934658	7,452066	2020-10-29T19:31:16:508
-2,325414	-5,950325	7,440193	2020-10-29T19:31:16:524
-2,317606	-5,922384	7,464881	2020-10-29T19:31:16:546
-2,317544	-5,854421	7,518320	2020-10-29T19:31:16:565
-2,325544	-5,798326	7,559210	2020-10-29T19:31:16:587
-2,328832	-5,764732	7,583851	2020-10-29T19:31:16:604
-2,341211	-5,738132	7,600194	2020-10-29T19:31:16:627
-2,368062	-5,718073	7,606990	2020-10-29T19:31:16:644
-2,380697	-5,728417	7,595255	2020-10-29T19:31:16:667
-2,370681	-5,752467	7,580197	2020-10-29T19:31:16:684
-2,357166	-5,747805	7,587944	2020-10-29T19:31:16:707
-2,335261	-5,718771	7,616601	2020-10-29T19:31:16:724
-2,294946	-5,705075	7,639092	2020-10-29T19:31:16:747
-2,223882	-5,729393	7,641910	2020-10-29T19:31:16:775
-2,119314	-5,737367	7,665606	2020-10-29T19:31:16:787
-2,005413	-5,705100	7,720139	2020-10-29T19:31:16:804
-1,891154	-5,604109	7,822268	2020-10-29T19:31:16:827
-1,769958	-5,448859	7,959119	2020-10-29T19:31:16:844
-1,628600	-5,273089	8,106330	2020-10-29T19:31:16:868
-1,456890	-5,139769	8,223784	2020-10-29T19:31:16:884
-1,268946	-4,981719	8,351206	2020-10-29T19:31:16:907
-1,103928	-4,770435	8,496745	2020-10-29T19:31:16:924
-0,958839	-4,519226	8,650295	2020-10-29T19:31:16:947
-0,795816	-4,235762	8,808824	2020-10-29T19:31:16:965
-0,581277	-3,913548	8,973106	2020-10-29T19:31:16:988
-0,339041	-3,461804	9,169043	2020-10-29T19:31:17:004
-0,106285	-2,885330	9,371978	2020-10-29T19:31:17:027
0,090386	-2,273026	9,539160	2020-10-29T19:31:17:044
0,296001	-1,544495	9,679737	2020-10-29T19:31:17:069
0,500196	-0,745433	9,765476	2020-10-29T19:31:17:084
0,671294	-0,033439	9,783590	2020-10-29T19:31:17:108
0,791426	0,397166	9,766590	2020-10-29T19:31:17:124
0,603218	-7,128417	6,707622	2020-10-29T19:31:17:147
0,772749	-6,854284	6,970799	2020-10-29T19:31:17:165
0,982077	-6,567054	7,216628	2020-10-29T19:31:17:188
1,044090	-6,485836	7,281085	2020-10-29T19:31:17:204
1,138428	-6,365733	7,372368	2020-10-29T19:31:17:229
1,211071	-6,283620	7,431003	2020-10-29T19:31:17:244
1,281644	-6,222951	7,470117	2020-10-29T19:31:17:268
1,348286	-6,191034	7,484892	2020-10-29T19:31:17:285
1,418423	-6,159036	7,498316	2020-10-29T19:31:17:308
1,490325	-6,135758	7,503452	2020-10-29T19:31:17:325
1,612163	-6,110264	7,499066	2020-10-29T19:31:17:348
1,655951	-6,096514	7,500715	2020-10-29T19:31:17:365
1,726918	-6,055317	7,518064	2020-10-29T19:31:17:387
1,824935	-5,968277	7,564368	2020-10-29T19:31:17:405
1,894630	-5,915784	7,588429	2020-10-29T19:31:17:428
1,976011	-5,781708	7,670568	2020-10-29T19:31:17:444
2,049009	-5,651634	7,747966	2020-10-29T19:31:17:470
2,107834	-5,560994	7,797613	2020-10-29T19:31:17:484
2,172831	-5,471406	7,843017	2020-10-29T19:31:17:508
2,247940	-5,367535	7,893460	2020-10-29T19:31:17:525
2,329221	-5,276206	7,931378	2020-10-29T19:31:17:548
2,431556	-5,183253	7,961897	2020-10-29T19:31:17:565
2,529657	-5,046603	8,018916	2020-10-29T19:31:17:588
2,632724	-4,884336	8,085939	2020-10-29T19:31:17:605
2,710402	-4,738957	8,146557	2020-10-29T19:31:17:628
2,785891	-4,591073	8,205563	2020-10-29T19:31:17:645
2,869725	-4,359071	8,302624	2020-10-29T19:31:17:669
2,935413	-4,191506	8,365705	2020-10-29T19:31:17:685
3,001469	-4,076298	8,399129	2020-10-29T19:31:17:709
3,056856	-4,047244	8,393202	2020-10-29T19:31:17:725
3,101660	-4,071883	8,364799	2020-10-29T19:31:17:748
3,125713	-4,037126	8,372689	2020-10-29T19:31:17:766
3,134875	-4,027589	8,373857	2020-10-29T19:31:17:788
3,152343	-4,088224	8,337838	2020-10-29T19:31:17:805
3,190694	-4,216519	8,258985	2020-10-29T19:31:17:829
3,226662	-4,455610	8,118287	2020-10-29T19:31:17:845
3,263076	-4,665343	7,984816	2020-10-29T19:31:17:868
3,296211	-4,737419	7,928571	2020-10-29T19:31:17:885
3,357778	-4,740447	7,900878	2020-10-29T19:31:17:908
3,435203	-4,703302	7,889785	2020-10-29T19:31:17:925
3,540463	-4,660813	7,868439	2020-10-29T19:31:17:949
3,662169	-4,633430	7,828808	2020-10-29T19:31:17:965
3,788814	-4,586247	7,796256	2020-10-29T19:31:17:988
3,925808	-4,648925	7,690638	2020-10-29T19:31:18:005
4,078871	-4,723272	7,564648	2020-10-29T19:31:18:028
4,266482	-4,760161	7,436961	2020-10-29T19:31:18:045
4,507021	-4,798755	7,268363	2020-10-29T19:31:18:069
4,775046	-4,844841	7,063769	2020-10-29T19:31:18:085
5,037825	-4,900985	6,838937	2020-10-29T19:31:18:109
5,288391	-4,909622	6,640701	2020-10-29T19:31:18:126
5,549547	-4,817215	6,493639	2020-10-29T19:31:18:148
5,888962	-4,790785	6,207970	2020-10-29T19:31:18:166
6,214089	-4,683468	5,968300	2020-10-29T19:31:18:190
6,537091	-4,540752	5,728734	2020-10-29T19:31:18:205
6,791103	-4,484042	5,472173	2020-10-29T19:31:18:228
7,037093	-4,333728	5,279064	2020-10-29T19:31:18:246
7,311357	-4,191871	5,014245	2020-10-29T19:31:18:270
7,558262	-4,091323	4,722724	2020-10-29T19:31:18:285
7,786222	-3,992321	4,427922	2020-10-29T19:31:18:309
8,033721	-3,840106	4,108928	2020-10-29T19:31:18:326
8,269585	-3,632007	3,820063	2020-10-29T19:31:18:350
8,489044	-3,458438	3,485071	2020-10-29T19:31:18:368
8,671719	-3,307387	3,167471	2020-10-29T19:31:18:389
8,853330	-3,127946	2,829292	2020-10-29T19:31:18:406
9,024480	-2,912697	2,499068	2020-10-29T19:31:18:431
9,177655	-2,685121	2,175122	2020-10-29T19:31:18:446
9,331802	-2,401116	1,822771	2020-10-29T19:31:18:469
9,455442	-2,125304	1,499355	2020-10-29T19:31:18:485
9,618388	-1,649046	0,968320	2020-10-29T19:31:18:510
9,670928	-1,439882	0,755165	2020-10-29T19:31:18:527
8,909888	-3,686348	1,787488	2020-10-29T19:31:18:548
9,090178	-3,351898	1,517838	2020-10-29T19:31:18:567
9,268462	-2,949109	1,252499	2020-10-29T19:31:18:590
9,315790	-2,829875	1,173986	2020-10-29T19:31:18:607
9,386292	-2,608298	1,124581	2020-10-29T19:31:18:629
9,445211	-2,392840	1,110259	2020-10-29T19:31:18:647
9,416573	-2,453689	1,215709	2020-10-29T19:31:18:672
9,352840	-2,592117	1,405593	2020-10-29T19:31:18:686
9,346601	-2,552417	1,515455	2020-10-29T19:31:18:709
9,451200	-2,186048	1,437500	2020-10-29T19:31:18:727
9,576740	-1,693660	1,260136	2020-10-29T19:31:18:750
9,634027	-1,438606	1,134161	2020-10-29T19:31:18:790
9,691778	-1,093591	1,021700	2020-10-29T19:31:18:792
9,732679	-0,821145	0,878101	2020-10-29T19:31:18:807
9,795667	-0,263490	0,381925	2020-10-29T19:31:18:830
9,788334	-0,307006	0,514438	2020-10-29T19:31:18:847
9,781513	-0,369731	0,596391	2020-10-29T19:31:18:870
9,762575	-0,525301	0,765875	2020-10-29T19:31:18:887
9,729692	-0,741154	0,976815	2020-10-29T19:31:18:913
9,721207	-0,787520	1,023885	2020-10-29T19:31:18:926
9,706380	-0,836232	1,121293	2020-10-29T19:31:18:949
9,686758	-0,905674	1,231611	2020-10-29T19:31:18:967
9,663814	-0,993277	1,339587	2020-10-29T19:31:18:991
9,631279	-1,126055	1,463166	2020-10-29T19:31:19:007
9,592559	-1,290213	1,577516	2020-10-29T19:31:19:029
9,539342	-1,503470	1,706141	2020-10-29T19:31:19:047
9,471785	-1,750978	1,841129	2020-10-29T19:31:19:070
9,398229	-1,997358	1,963223	2020-10-29T19:31:19:086
9,316763	-2,245749	2,079644	2020-10-29T19:31:19:109
9,234936	-2,481137	2,174926	2020-10-29T19:31:19:126
9,151297	-2,704493	2,260504	2020-10-29T19:31:19:152
9,058600	-2,927211	2,354481	2020-10-29T19:31:19:167
8,977907	-3,099141	2,441904	2020-10-29T19:31:19:189
8,918090	-3,225094	2,497363	2020-10-29T19:31:19:207
8,875465	-3,321952	2,522128	2020-10-29T19:31:19:230
8,861258	-3,404894	2,460732	2020-10-29T19:31:19:246
8,849852	-3,477519	2,399452	2020-10-29T19:31:19:270
8,838236	-3,535962	2,356469	2020-10-29T19:31:19:286
8,821872	-3,593871	2,330034	2020-10-29T19:31:19:310
8,804593	-3,645927	2,314463	2020-10-29T19:31:19:326
8,773238	-3,718943	2,317355	2020-10-29T19:31:19:350
8,755387	-3,749829	2,335028	2020-10-29T19:31:19:367
8,716095	-3,810460	2,383372	2020-10-29T19:31:19:391
8,666653	-3,882355	2,446802	2020-10-29T19:31:19:406
8,608971	-3,963572	2,519149	2020-10-29T19:31:19:429
8,544727	-4,043288	2,609566	2020-10-29T19:31:19:446
8,479593	-4,112320	2,712138	2020-10-29T19:31:19:471
8,421992	-4,163459	2,811768	2020-10-29T19:31:19:486
8,361695	-4,215691	2,912111	2020-10-29T19:31:19:510
8,304124	-4,262431	3,007256	2020-10-29T19:31:19:527
8,252297	-4,296714	3,099713	2020-10-29T19:31:19:550
8,210620	-4,324539	3,170878	2020-10-29T19:31:19:568
8,183149	-4,344449	3,214377	2020-10-29T19:31:19:590
8,182580	-4,344712	3,215469	2020-10-29T19:31:19:606
8,180289	-4,354527	3,208013	2020-10-29T19:31:19:631
8,195453	-4,353250	3,170829	2020-10-29T19:31:19:647
8,228402	-4,340855	3,101736	2020-10-29T19:31:19:670
8,266395	-4,324262	3,022890	2020-10-29T19:31:19:687
8,334154	-4,266373	2,917246	2020-10-29T19:31:19:711
8,409994	-4,184407	2,816581	2020-10-29T19:31:19:726
8,497125	-4,074574	2,714240	2020-10-29T19:31:19:750
8,594282	-3,960709	2,573225	2020-10-29T19:31:19:768
8,690615	-3,843940	2,422340	2020-10-29T19:31:19:791
8,778274	-3,726114	2,286564	2020-10-29T19:31:19:807
8,867558	-3,592417	2,152054	2020-10-29T19:31:19:830
8,963657	-3,458279	1,965589	2020-10-29T19:31:19:847
9,032771	-3,364922	1,804643	2020-10-29T19:31:19:872
9,075603	-3,331807	1,644047	2020-10-29T19:31:19:887
9,070832	-3,433566	1,449489	2020-10-29T19:31:19:911
9,026000	-3,567458	1,405333	2020-10-29T19:31:19:927
8,861930	-3,986200	1,321659	2020-10-29T19:31:19:951
8,664645	-4,422510	1,239239	2020-10-29T19:31:19:968
8,528305	-4,698212	1,168418	2020-10-29T19:31:19:990
8,450427	-4,851205	1,107466	2020-10-29T19:31:20:008
8,409442	-4,929485	1,073238	2020-10-29T19:31:20:031
8,363888	-5,013607	1,038997	2020-10-29T19:31:20:047
8,326083	-5,082081	1,009543	2020-10-29T19:31:20:070
8,292757	-5,142806	0,975765	2020-10-29T19:31:20:087
8,263165	-5,196981	0,939084	2020-10-29T19:31:20:112
8,215377	-5,280971	0,888434	2020-10-29T19:31:20:127
8,154062	-5,384975	0,826861	2020-10-29T19:31:20:151
8,072731	-5,514504	0,769179	2020-10-29T19:31:20:168
7,990568	-5,638634	0,725958	2020-10-29T19:31:20:191
7,856259	-5,831859	0,662578	2020-10-29T19:31:20:207
7,884985	-5,791401	0,676069	2020-10-29T19:31:20:230
7,985622	-5,645577	0,726418	2020-10-29T19:31:20:248
8,089874	-5,486068	0,792072	2020-10-29T19:31:20:272
8,151998	-5,385936	0,840839	2020-10-29T19:31:20:288
8,216599	-5,279273	0,887219	2020-10-29T19:31:20:311
8,332782	-5,082859	0,948518	2020-10-29T19:31:20:329
8,485500	-4,809421	1,017913	2020-10-29T19:31:20:352
8,615568	-4,561495	1,065428	2020-10-29T19:31:20:368
8,668707	-4,459481	1,066274	2020-10-29T19:31:20:390
8,703801	-4,392010	1,060417	2020-10-29T19:31:20:408
8,733741	-4,333072	1,056718	2020-10-29T19:31:20:431
8,760468	-4,281001	1,047675	2020-10-29T19:31:20:447
8,776805	-4,252867	1,025280	2020-10-29T19:31:20:471
8,773110	-4,261790	1,019833	2020-10-29T19:31:20:488
8,777183	-4,250944	1,030015	2020-10-29T19:31:20:512
8,789399	-4,225322	1,031258	2020-10-29T19:31:20:528
8,831481	-4,134310	1,040581	2020-10-29T19:31:20:550
8,901028	-3,981510	1,043873	2020-10-29T19:31:20:568
8,990210	-3,773299	1,052963	2020-10-29T19:31:20:592
9,080791	-3,550660	1,049968	2020-10-29T19:31:20:608
9,148133	-3,371808	1,054964	2020-10-29T19:31:20:631
9,212404	-3,198960	1,033755	2020-10-29T19:31:20:648
9,304080	-2,945413	0,963857	2020-10-29T19:31:20:673
9,324313	-2,888233	0,941110	2020-10-29T19:31:20:688
9,352254	-2,808815	0,903484	2020-10-29T19:31:20:711
9,365647	-2,761996	0,909073	2020-10-29T19:31:20:728
9,367299	-2,750920	0,925495	2020-10-29T19:31:20:751
9,364786	-2,765598	0,906988	2020-10-29T19:31:20:769
9,351162	-2,808717	0,915021	2020-10-29T19:31:20:791
9,329505	-2,869298	0,947548	2020-10-29T19:31:20:808
9,304767	-2,938431	0,978431	2020-10-29T19:31:20:832
9,275043	-3,007732	1,047620	2020-10-29T19:31:20:848
9,234118	-3,098842	1,139580	2020-10-29T19:31:20:871
9,192922	-3,194554	1,206399	2020-10-29T19:31:20:888
9,149490	-3,294269	1,266886	2020-10-29T19:31:20:912
9,103749	-3,400605	1,314540	2020-10-29T19:31:20:928
9,052761	-3,521701	1,347415	2020-10-29T19:31:20:951
8,997637	-3,650970	1,372345	2020-10-29T19:31:20:969
8,943910	-3,772963	1,393414	2020-10-29T19:31:20:992
8,898355	-3,877415	1,398324	2020-10-29T19:31:21:009
8,854981	-3,974142	1,402102	2020-10-29T19:31:21:031
8,812374	-4,067291	1,403425	2020-10-29T19:31:21:048
8,787852	-4,123241	1,393888	2020-10-29T19:31:21:073
8,770416	-4,162060	1,388322	2020-10-29T19:31:21:088
8,762407	-4,181204	1,381353	2020-10-29T19:31:21:111
8,756845	-4,189693	1,390875	2020-10-29T19:31:21:128
8,760913	-4,178955	1,397545	2020-10-29T19:31:21:152
8,770727	-4,154837	1,407860	2020-10-29T19:31:21:168
8,780070	-4,130897	1,420014	2020-10-29T19:31:21:191
8,786579	-4,107943	1,446107	2020-10-29T19:31:21:208
8,793544	-4,083820	1,471863	2020-10-29T19:31:21:232
8,805218	-4,055304	1,480890	2020-10-29T19:31:21:248
8,829222	-4,001400	1,484597	2020-10-29T19:31:21:272
8,852932	-3,942312	1,501386	2020-10-29T19:31:21:288
8,892802	-3,818641	1,583170	2020-10-29T19:31:21:314
8,913329	-3,759904	1,608126	2020-10-29T19:31:21:328
8,947304	-3,653463	1,663835	2020-10-29T19:31:21:351
8,980101	-3,559361	1,690894	2020-10-29T19:31:21:369
9,009047	-3,470620	1,721121	2020-10-29T19:31:21:392
9,041193	-3,373781	1,744940	2020-10-29T19:31:21:409
9,083714	-3,264325	1,732256	2020-10-29T19:31:21:431
9,134460	-3,135185	1,703709	2020-10-29T19:31:21:448
9,188857	-2,993893	1,664902	2020-10-29T19:31:21:473
9,240509	-2,857237	1,618511	2020-10-29T19:31:21:489
9,292598	-2,713416	1,566967	2020-10-29T19:31:21:511
9,339062	-2,577578	1,519345	2020-10-29T19:31:21:528
9,375830	-2,465868	1,477731	2020-10-29T19:31:21:554
9,403025	-2,379052	1,446935	2020-10-29T19:31:21:569
9,423685	-2,313009	1,419340	2020-10-29T19:31:21:591
9,442726	-2,252064	1,390511	2020-10-29T19:31:21:608
9,468971	-2,172022	1,338389	2020-10-29T19:31:21:633
9,479144	-2,141879	1,314749	2020-10-29T19:31:21:648
9,499166	-2,080601	1,267801	2020-10-29T19:31:21:672
9,523373	-2,001895	1,211684	2020-10-29T19:31:21:689
9,542475	-1,939832	1,161296	2020-10-29T19:31:21:712
9,556661	-1,896097	1,115988	2020-10-29T19:31:21:729
9,552686	-1,912440	1,122121	2020-10-29T19:31:21:752
9,543478	-1,945090	1,144132	2020-10-29T19:31:21:769
9,529087	-1,995450	1,176888	2020-10-29T19:31:21:794
9,506467	-2,070153	1,229606	2020-10-29T19:31:21:809
9,481630	-2,149809	1,283505	2020-10-29T19:31:21:832
9,454443	-2,232938	1,340851	2020-10-29T19:31:21:849
9,422455	-2,327234	1,404173	2020-10-29T19:31:21:874
9,389366	-2,423234	1,462235	2020-10-29T19:31:21:889
9,353539	-2,529384	1,511266	2020-10-29T19:31:21:912
9,316204	-2,641821	1,549034	2020-10-29T19:31:21:929
9,281224	-2,745327	1,578748	2020-10-29T19:31:21:952
9,251474	-2,835525	1,593867	2020-10-29T19:31:21:970
9,214666	-2,948967	1,601219	2020-10-29T19:31:21:993
9,201777	-2,987777	1,603393	2020-10-29T19:31:22:009
9,187560	-3,043969	1,579042	2020-10-29T19:31:22:034
9,172936	-3,097946	1,558956	2020-10-29T19:31:22:049
9,151168	-3,162284	1,557713	2020-10-29T19:31:22:072
9,134410	-3,216710	1,544576	2020-10-29T19:31:22:089
9,108145	-3,302269	1,518917	2020-10-29T19:31:22:114
9,094111	-3,340109	1,520262	2020-10-29T19:31:22:129
9,068462	-3,413615	1,510171	2020-10-29T19:31:22:152
9,045124	-3,481253	1,495660	2020-10-29T19:31:22:170
9,023463	-3,534594	1,501381	2020-10-29T19:31:22:193
9,000530	-3,585780	1,517570	2020-10-29T19:31:22:210
8,975764	-3,633646	1,550053	2020-10-29T19:31:22:232
8,947849	-3,685034	1,589622	2020-10-29T19:31:22:249
8,929820	-3,725334	1,597052	2020-10-29T19:31:22:275
8,912404	-3,766053	1,598834	2020-10-29T19:31:22:289
8,892202	-3,810694	1,605531	2020-10-29T19:31:22:312
8,861148	-3,870353	1,634261	2020-10-29T19:31:22:330
8,823773	-3,941169	1,666913	2020-10-29T19:31:22:353
8,782564	-4,018547	1,699479	2020-10-29T19:31:22:370
8,750173	-4,078798	1,722866	2020-10-29T19:31:22:392
8,719257	-4,133694	1,748575	2020-10-29T19:31:22:410
8,693117	-4,178715	1,771562	2020-10-29T19:31:22:433
8,669051	-4,216094	1,800691	2020-10-29T19:31:22:450
8,648747	-4,241994	1,837128	2020-10-29T19:31:22:473
8,632133	-4,260731	1,871584	2020-10-29T19:31:22:490
8,613818	-4,279494	1,912707	2020-10-29T19:31:22:514
8,596118	-4,301957	1,941726	2020-10-29T19:31:22:529
8,581536	-4,320614	1,964665	2020-10-29T19:31:22:552
8,556374	-4,360587	1,985985	2020-10-29T19:31:22:570
8,536171	-4,398592	1,989111	2020-10-29T19:31:22:593
8,516606	-4,441657	1,977243	2020-10-29T19:31:22:610
8,494685	-4,487612	1,967751	2020-10-29T19:31:22:632
8,481773	-4,518375	1,952993	2020-10-29T19:31:22:650
8,477634	-4,532505	1,938171	2020-10-29T19:31:22:674
8,486881	-4,514984	1,938596	2020-10-29T19:31:22:690
8,503838	-4,479718	1,946087	2020-10-29T19:31:22:713
8,532177	-4,421889	1,954288	2020-10-29T19:31:22:730
8,592172	-4,319161	1,920892	2020-10-29T19:31:22:754
8,680731	-4,166076	1,859867	2020-10-29T19:31:22:770
8,764559	-4,008027	1,813456	2020-10-29T19:31:22:793
8,862652	-3,811260	1,760138	2020-10-29T19:31:22:810
8,950201	-3,622298	1,715586	2020-10-29T19:31:22:834
9,003255	-3,486319	1,719698	2020-10-29T19:31:22:850
9,039268	-3,390337	1,722682	2020-10-29T19:31:22:874
9,064132	-3,320991	1,727111	2020-10-29T19:31:22:890
9,086744	-3,265443	1,714157	2020-10-29T19:31:22:914
9,104448	-3,232934	1,681529	2020-10-29T19:31:22:930
9,118306	-3,214548	1,641207	2020-10-29T19:31:22:953
9,131300	-3,198825	1,599146	2020-10-29T19:31:22:971
9,135680	-3,194264	1,583163	2020-10-29T19:31:22:995
9,127571	-3,234746	1,547337	2020-10-29T19:31:23:010
9,079309	-3,382087	1,515922	2020-10-29T19:31:23:032
8,971865	-3,673768	1,476297	2020-10-29T19:31:23:050
8,787253	-4,114265	1,423860	2020-10-29T19:31:23:074
8,538270	-4,632360	1,345199	2020-10-29T19:31:23:090
8,251273	-5,154202	1,233318	2020-10-29T19:31:23:113
7,999442	-5,562604	1,112090	2020-10-29T19:31:23:131
7,776879	-5,894835	0,970291	2020-10-29T19:31:23:154
7,731069	-5,961239	0,929837	2020-10-29T19:31:23:171
7,704223	-6,002609	0,885444	2020-10-29T19:31:23:193
7,709103	-5,999653	0,862721	2020-10-29T19:31:23:210
7,732183	-5,971105	0,854196	2020-10-29T19:31:23:235
7,769197	-5,922401	0,857390	2020-10-29T19:31:23:250
7,811987	-5,863565	0,872835	2020-10-29T19:31:23:273
7,847219	-5,814214	0,886823	2020-10-29T19:31:23:290
7,878650	-5,770000	0,896862	2020-10-29T19:31:23:314
7,908042	-5,728962	0,901248	2020-10-29T19:31:23:330
7,932898	-5,695408	0,895456	2020-10-29T19:31:23:353
7,954666	-5,664280	0,899780	2020-10-29T19:31:23:371
7,975540	-5,633173	0,910229	2020-10-29T19:31:23:394
7,999286	-5,597311	0,922991	2020-10-29T19:31:23:410
8,026034	-5,556395	0,937889	2020-10-29T19:31:23:433
8,050488	-5,518897	0,949627	2020-10-29T19:31:23:450
8,076150	-5,477211	0,972798	2020-10-29T19:31:23:476
8,089121	-5,458213	0,971817	2020-10-29T19:31:23:491
8,103156	-5,438394	0,965980	2020-10-29T19:31:23:513
8,126909	-5,402124	0,969942	2020-10-29T19:31:23:531
8,161324	-5,347200	0,985207	2020-10-29T19:31:23:554
8,241839	-5,211658	1,039756	2020-10-29T19:31:23:571
8,319192	-5,069751	1,122074	2020-10-29T19:31:23:594
8,353676	-5,003022	1,164585	2020-10-29T19:31:23:611
8,411586	-4,883863	1,250395	2020-10-29T19:31:23:634
8,445872	-4,811059	1,300517	2020-10-29T19:31:23:650
8,409269	-4,873654	1,304633	2020-10-29T19:31:23:674
8,364848	-4,948069	1,310080	2020-10-29T19:31:23:691
8,288272	-5,073372	1,317508	2020-10-29T19:31:23:716
8,265018	-5,099413	1,362296	2020-10-29T19:31:23:731
8,180789	-5,225833	1,391311	2020-10-29T19:31:23:753
8,108344	-5,330975	1,416283	2020-10-29T19:31:23:772
7,961790	-5,551548	1,400216	2020-10-29T19:31:23:795
7,778900	-5,812648	1,368293	2020-10-29T19:31:23:810
7,557746	-6,108770	1,316732	2020-10-29T19:31:23:834
7,335914	-6,388733	1,240504	2020-10-29T19:31:23:851
7,133037	-6,624975	1,183164	2020-10-29T19:31:23:875
6,973266	-6,798884	1,148532	2020-10-29T19:31:23:891
6,834589	-6,939023	1,144001	2020-10-29T19:31:23:915
6,703623	-7,071990	1,103978	2020-10-29T19:31:23:931
6,588480	-7,185679	1,062225	2020-10-29T19:31:23:956
6,492590	-7,276909	1,031142	2020-10-29T19:31:23:971
6,415576	-7,348258	1,006915	2020-10-29T19:31:23:993
6,354790	-7,401744	1,000603	2020-10-29T19:31:24:014
6,310963	-7,437737	1,011040	2020-10-29T19:31:24:036
6,332541	-7,410914	1,071294	2020-10-29T19:31:24:051
6,424214	-7,316921	1,167273	2020-10-29T19:31:24:075
6,560236	-7,177106	1,273902	2020-10-29T19:31:24:091
6,661595	-7,071339	1,337799	2020-10-29T19:31:24:115
6,707972	-7,022929	1,360868	2020-10-29T19:31:24:131
6,708608	-7,027356	1,334629	2020-10-29T19:31:24:155
6,679862	-7,068002	1,262211	2020-10-29T19:31:24:172
6,638088	-7,122452	1,173389	2020-10-29T19:31:24:196
6,589084	-7,187160	1,048369	2020-10-29T19:31:24:211
6,553800	-7,238651	0,905550	2020-10-29T19:31:24:234
6,537922	-7,269171	0,764925	2020-10-29T19:31:24:253
6,532251	-7,286664	0,636084	2020-10-29T19:31:24:276
6,532146	-7,295979	0,519757	2020-10-29T19:31:24:291
6,536970	-7,298469	0,413231	2020-10-29T19:31:24:314
6,535514	-7,303853	0,333421	2020-10-29T19:31:24:331
6,534395	-7,306991	0,282776	2020-10-29T19:31:24:355
6,530387	-7,311964	0,244172	2020-10-29T19:31:24:372
6,527553	-7,314825	0,234042	2020-10-29T19:31:24:394
6,530125	-7,311661	0,259739	2020-10-29T19:31:24:411
6,540541	-7,300122	0,316117	2020-10-29T19:31:24:436
6,554959	-7,283332	0,394933	2020-10-29T19:31:24:451
6,580341	-7,255649	0,474401	2020-10-29T19:31:24:475
6,591995	-7,240019	0,546004	2020-10-29T19:31:24:492
6,581858	-7,238824	0,670042	2020-10-29T19:31:24:517
6,578528	-7,234193	0,748199	2020-10-29T19:31:24:532
6,620741	-7,172498	0,944166	2020-10-29T19:31:24:554
6,625119	-7,146981	1,094922	2020-10-29T19:31:24:572
6,591356	-7,161682	1,197798	2020-10-29T19:31:24:595
6,563555	-7,169297	1,300503	2020-10-29T19:31:24:612
6,555279	-7,158639	1,397349	2020-10-29T19:31:24:634
6,562739	-7,131937	1,495431	2020-10-29T19:31:24:652
6,612047	-7,058667	1,620628	2020-10-29T19:31:24:678
6,653920	-7,008519	1,666251	2020-10-29T19:31:24:692
6,740291	-6,913878	1,713813	2020-10-29T19:31:24:714
6,818020	-6,831738	1,735609	2020-10-29T19:31:24:732
6,840820	-6,813306	1,718264	2020-10-29T19:31:24:755
6,823945	-6,835453	1,697279	2020-10-29T19:31:24:773
6,896671	-6,743577	1,769315	2020-10-29T19:31:24:796
6,966491	-6,655859	1,827000	2020-10-29T19:31:24:812
7,146961	-6,427649	1,943366	2020-10-29T19:31:24:835
7,337082	-6,191059	2,002096	2020-10-29T19:31:24:853
7,485472	-6,011803	1,999078	2020-10-29T19:31:24:875
7,622608	-5,844135	1,977960	2020-10-29T19:31:24:892
7,699998	-5,742794	1,975026	2020-10-29T19:31:24:917
7,749411	-5,674600	1,978873	2020-10-29T19:31:24:932
7,747488	-5,690989	1,938934	2020-10-29T19:31:24:955
7,715680	-5,751621	1,886139	2020-10-29T19:31:24:973
7,704358	-5,778904	1,848657	2020-10-29T19:31:24:996
7,697953	-5,796739	1,819263	2020-10-29T19:31:25:012
7,653099	-5,870106	1,772660	2020-10-29T19:31:25:036
7,614511	-5,937480	1,713459	2020-10-29T19:31:25:052
7,496273	-6,107325	1,636115	2020-10-29T19:31:25:076
7,345567	-6,298248	1,595339	2020-10-29T19:31:25:092
7,271336	-6,370247	1,648640	2020-10-29T19:31:25:115
7,267738	-6,352772	1,729932	2020-10-29T19:31:25:132
7,170522	-6,456491	1,751490	2020-10-29T19:31:25:158
6,981669	-6,666957	1,725794	2020-10-29T19:31:25:173
6,787306	-6,878962	1,668154	2020-10-29T19:31:25:195
6,570377	-7,104767	1,588334	2020-10-29T19:31:25:212
6,378225	-7,294453	1,509833	2020-10-29T19:31:25:236
6,255888	-7,405012	1,483254	2020-10-29T19:31:25:252
6,211871	-7,435636	1,514716	2020-10-29T19:31:25:276
6,234221	-7,405443	1,569804	2020-10-29T19:31:25:292
6,313232	-7,310493	1,694159	2020-10-29T19:31:25:316
6,422169	-7,172081	1,867457	2020-10-29T19:31:25:332
6,525114	-7,033703	2,029853	2020-10-29T19:31:25:356
6,574220	-6,940886	2,184975	2020-10-29T19:31:25:373
6,574713	-6,897753	2,316147	2020-10-29T19:31:25:397
6,505759	-6,944237	2,371299	2020-10-29T19:31:25:413
6,377114	-7,049015	2,411263	2020-10-29T19:31:25:436
6,255763	-7,130836	2,487368	2020-10-29T19:31:25:453
6,159519	-7,172976	2,603674	2020-10-29T19:31:25:477
6,098676	-7,183479	2,715543	2020-10-29T19:31:25:492
6,037927	-7,178675	2,860149	2020-10-29T19:31:25:516
5,936396	-7,227640	2,948019	2020-10-29T19:31:25:533
5,838650	-7,289564	2,990451	2020-10-29T19:31:25:556
5,688162	-7,393678	3,024687	2020-10-29T19:31:25:573
5,547865	-7,503236	3,015464	2020-10-29T19:31:25:596
5,372415	-7,653718	2,954345	2020-10-29T19:31:25:613
5,180453	-7,810416	2,886292	2020-10-29T19:31:25:638
5,004955	-7,938837	2,845292	2020-10-29T19:31:25:653
4,851690	-8,049813	2,798569	2020-10-29T19:31:25:676
4,688126	-8,153523	2,777035	2020-10-29T19:31:25:693
4,516860	-8,250476	2,774529	2020-10-29T19:31:25:717
4,371445	-8,313253	2,819694	2020-10-29T19:31:25:733
4,176363	-8,359531	2,974325	2020-10-29T19:31:25:757
4,099815	-8,367840	3,056332	2020-10-29T19:31:25:774
3,971050	-8,373699	3,206603	2020-10-29T19:31:25:797
3,829478	-8,377754	3,364331	2020-10-29T19:31:25:813
3,625036	-8,397451	3,537273	2020-10-29T19:31:25:837
3,548999	-8,407159	3,590916	2020-10-29T19:31:25:853
3,365484	-8,399877	3,779679	2020-10-29T19:31:25:879
3,301476	-8,388715	3,860066	2020-10-29T19:31:25:892
3,168290	-8,364822	4,020207	2020-10-29T19:31:25:916
3,052438	-8,339453	4,160113	2020-10-29T19:31:25:933
2,946776	-8,322983	4,267886	2020-10-29T19:31:25:957
2,890654	-8,304085	4,342427	2020-10-29T19:31:25:974
2,866834	-8,280065	4,403655	2020-10-29T19:31:25:996
2,852458	-8,253803	4,461906	2020-10-29T19:31:26:013
2,830739	-8,204402	4,565642	2020-10-29T19:31:26:037
2,822528	-8,182334	4,610112	2020-10-29T19:31:26:053
2,816298	-8,135545	4,695930	2020-10-29T19:31:26:077
2,817327	-8,089352	4,774458	2020-10-29T19:31:26:093
2,817635	-8,015522	4,897215	2020-10-29T19:31:26:119
2,831808	-7,977829	4,950301	2020-10-29T19:31:26:133
2,881728	-7,878970	5,078174	2020-10-29T19:31:26:156
2,953251	-7,750989	5,231717	2020-10-29T19:31:26:174
3,038214	-7,625054	5,366395	2020-10-29T19:31:26:197
3,127404	-7,514914	5,469533	2020-10-29T19:31:26:213
3,248481	-7,390515	5,567588	2020-10-29T19:31:26:237
3,290675	-7,348886	5,597832	2020-10-29T19:31:26:253
3,363161	-7,266253	5,662253	2020-10-29T19:31:26:278
3,397593	-7,199517	5,726579	2020-10-29T19:31:26:294
3,401709	-7,127462	5,813608	2020-10-29T19:31:26:316
3,395178	-7,050097	5,910946	2020-10-29T19:31:26:333
3,386378	-6,968658	6,011707	2020-10-29T19:31:26:358
3,378676	-6,885824	6,110676	2020-10-29T19:31:26:374
3,365187	-6,811561	6,200688	2020-10-29T19:31:26:396
3,351004	-6,748806	6,276525	2020-10-29T19:31:26:414
3,334401	-6,707615	6,329301	2020-10-29T19:31:26:437
3,316540	-6,683715	6,363874	2020-10-29T19:31:26:454
3,301467	-6,681269	6,374272	2020-10-29T19:31:26:477
3,282646	-6,688555	6,376351	2020-10-29T19:31:26:494
3,257245	-6,703581	6,373597	2020-10-29T19:31:26:517
3,230298	-6,720520	6,369472	2020-10-29T19:31:26:534
3,205796	-6,730841	6,370953	2020-10-29T19:31:26:556
3,180120	-6,739857	6,374288	2020-10-29T19:31:26:574
3,153036	-6,747320	6,379845	2020-10-29T19:31:26:598
3,114609	-6,759814	6,385492	2020-10-29T19:31:26:613
3,074234	-6,776027	6,387874	2020-10-29T19:31:26:636
3,043189	-6,787296	6,390775	2020-10-29T19:31:26:654
3,018326	-6,792652	6,396873	2020-10-29T19:31:26:678
3,009434	-6,774343	6,420433	2020-10-29T19:31:26:694
3,009028	-6,716802	6,480795	2020-10-29T19:31:26:718
3,004624	-6,731020	6,468074	2020-10-29T19:31:26:734
2,982929	-6,789637	6,416646	2020-10-29T19:31:26:757
2,960383	-6,844831	6,368265	2020-10-29T19:31:26:775
2,938715	-6,906754	6,311188	2020-10-29T19:31:26:797
2,900505	-6,986349	6,240865	2020-10-29T19:31:26:814
2,846967	-7,067957	6,173261	2020-10-29T19:31:26:839
2,788926	-7,138888	6,117887	2020-10-29T19:31:26:854
2,709350	-7,215800	6,063170	2020-10-29T19:31:26:878
2,687621	-7,227725	6,058637	2020-10-29T19:31:26:894
2,649863	-7,240523	6,059987	2020-10-29T19:31:26:918
2,611989	-7,253903	6,060428	2020-10-29T19:31:26:934
2,559781	-7,273090	6,059708	2020-10-29T19:31:26:957
2,496356	-7,300136	6,053644	2020-10-29T19:31:26:975
2,421455	-7,329460	6,048633	2020-10-29T19:31:26:998
2,354594	-7,352880	6,046604	2020-10-29T19:31:27:015
2,306743	-7,368941	6,045497	2020-10-29T19:31:27:037
2,280734	-7,388706	6,031223	2020-10-29T19:31:27:054
2,242869	-7,430462	5,994010	2020-10-29T19:31:27:081
2,192925	-7,457025	5,979486	2020-10-29T19:31:27:094
2,137092	-7,473370	5,979294	2020-10-29T19:31:27:117
2,091717	-7,495995	5,967006	2020-10-29T19:31:27:134
2,053962	-7,540739	5,923587	2020-10-29T19:31:27:159
2,020758	-7,597435	5,862244	2020-10-29T19:31:27:175
1,995580	-7,632562	5,825121	2020-10-29T19:31:27:198
1,982790	-7,644562	5,813742	2020-10-29T19:31:27:214
2,011424	-7,650494	5,796076	2020-10-29T19:31:27:239
2,032214	-7,601110	5,853513	2020-10-29T19:31:27:254
1,983824	-7,568795	5,911698	2020-10-29T19:31:27:279
1,907742	-7,568773	5,936715	2020-10-29T19:31:27:295
1,831952	-7,567398	5,962284	2020-10-29T19:31:27:321
1,806978	-7,571749	5,964380	2020-10-29T19:31:27:334
1,856052	-7,569476	5,952184	2020-10-29T19:31:27:358
1,914510	-7,581977	5,917656	2020-10-29T19:31:27:375
2,003736	-7,595119	5,871080	2020-10-29T19:31:27:399
2,078672	-7,651368	5,771142	2020-10-29T19:31:27:414
2,161764	-7,731943	5,631538	2020-10-29T19:31:27:438
2,245086	-7,803944	5,498040	2020-10-29T19:31:27:454
2,404446	-7,876338	5,324689	2020-10-29T19:31:27:480
2,461347	-7,869680	5,308512	2020-10-29T19:31:27:495
2,708199	-7,792827	5,301688	2020-10-29T19:31:27:519
2,810678	-7,744811	5,318682	2020-10-29T19:31:27:534
3,033591	-7,633785	5,356588	2020-10-29T19:31:27:560
3,336725	-7,568491	5,268264	2020-10-29T19:31:27:576
3,423452	-7,555277	5,231458	2020-10-29T19:31:27:598
3,612201	-7,525699	5,146479	2020-10-29T19:31:27:615
3,809707	-7,495305	5,047467	2020-10-29T19:31:27:639
4,004216	-7,464938	4,940783	2020-10-29T19:31:27:655
4,247066	-7,436619	4,778024	2020-10-29T19:31:27:679
4,484862	-7,397486	4,618831	2020-10-29T19:31:27:695
4,692222	-7,347248	4,491257	2020-10-29T19:31:27:720
4,954506	-7,258948	4,350968	2020-10-29T19:31:27:735
5,272821	-7,112204	4,217144	2020-10-29T19:31:27:758
5,635160	-6,910953	4,080943	2020-10-29T19:31:27:775
5,976243	-6,704134	3,938210	2020-10-29T19:31:27:800
6,327413	-6,465315	3,786019	2020-10-29T19:31:27:815
6,658579	-6,224399	3,618089	2020-10-29T19:31:27:838
6,992311	-5,942846	3,458404	2020-10-29T19:31:27:855
7,279383	-5,679368	3,305413	2020-10-29T19:31:27:879
7,432274	-5,583042	3,124313	2020-10-29T19:31:27:894
7,543268	-5,524155	2,958581	2020-10-29T19:31:27:918
7,654328	-5,438569	2,829067	2020-10-29T19:31:27:935
7,741204	-5,364167	2,733103	2020-10-29T19:31:27:959
7,797808	-5,315303	2,666858	2020-10-29T19:31:27:975
7,870422	-5,244518	2,592656	2020-10-29T19:31:27:998
7,972615	-5,118877	2,530788	2020-10-29T19:31:28:017
8,029881	-5,039113	2,509731	2020-10-29T19:31:28:040
8,070049	-4,986195	2,486472	2020-10-29T19:31:28:055
8,175629	-4,805533	2,497263	2020-10-29T19:31:28:079
8,203681	-4,758209	2,495887	2020-10-29T19:31:28:094
8,209539	-4,761951	2,469346	2020-10-29T19:31:28:119
8,200482	-4,793204	2,438786	2020-10-29T19:31:28:135
8,176416	-4,843961	2,419221	2020-10-29T19:31:28:158
8,131056	-4,928500	2,401292	2020-10-29T19:31:28:176
8,074922	-5,032670	2,374501	2020-10-29T19:31:28:199
8,023308	-5,127908	2,345524	2020-10-29T19:31:28:215
7,970358	-5,225446	2,310518	2020-10-29T19:31:28:238
7,908446	-5,338376	2,264641	2020-10-29T19:31:28:255
7,784976	-5,549360	2,183835	2020-10-29T19:31:28:282
7,736160	-5,632416	2,144317	2020-10-29T19:31:28:295
7,611155	-5,838044	2,039108	2020-10-29T19:31:28:318
7,500148	-6,027583	1,893782	2020-10-29T19:31:28:335
7,379022	-6,218684	1,745961	2020-10-29T19:31:28:359
7,277044	-6,372819	1,613132	2020-10-29T19:31:28:376
7,194396	-6,492839	1,501361	2020-10-29T19:31:28:398
7,094377	-6,625235	1,395155	2020-10-29T19:31:28:415
6,988589	-6,756284	1,297163	2020-10-29T19:31:28:439
6,866373	-6,900774	1,184321	2020-10-29T19:31:28:455
6,717821	-7,066305	1,052903	2020-10-29T19:31:28:479
6,585333	-7,207085	0,928271	2020-10-29T19:31:28:495
6,460472	-7,333894	0,804171	2020-10-29T19:31:28:521
6,365036	-7,425984	0,715159	2020-10-29T19:31:28:535
6,324854	-7,462022	0,696303	2020-10-29T19:31:28:558
6,352407	-7,434195	0,741662	2020-10-29T19:31:28:576
6,470346	-7,320922	0,842082	2020-10-29T19:31:28:599
6,602548	-7,192082	0,922333	2020-10-29T19:31:28:616
6,745594	-7,046911	1,004188	2020-10-29T19:31:28:638
6,883414	-6,903477	1,063484	2020-10-29T19:31:28:655
7,009250	-6,767452	1,114623	2020-10-29T19:31:28:680
7,136034	-6,625216	1,163578	2020-10-29T19:31:28:695
7,260047	-6,479268	1,217039	2020-10-29T19:31:28:718
7,394747	-6,311493	1,285748	2020-10-29T19:31:28:736
7,551528	-6,105687	1,365796	2020-10-29T19:31:28:761
7,725700	-5,865028	1,444089	2020-10-29T19:31:28:776
7,882765	-5,635522	1,507743	2020-10-29T19:31:28:799
7,998740	-5,458497	1,547693	2020-10-29T19:31:28:816
8,099192	-5,299993	1,575930	2020-10-29T19:31:28:840
8,170363	-5,183769	1,595016	2020-10-29T19:31:28:856
8,235829	-5,074418	1,609900	2020-10-29T19:31:28:880
8,277152	-5,002227	1,623844	2020-10-29T19:31:28:896
8,314207	-4,931593	1,650374	2020-10-29T19:31:28:921
8,323770	-4,910089	1,666213	2020-10-29T19:31:28:936
8,340996	-4,868693	1,701179	2020-10-29T19:31:28:959
8,351452	-4,837708	1,737880	2020-10-29T19:31:28:976
8,353184	-4,821237	1,774932	2020-10-29T19:31:29:003
8,345395	-4,819165	1,816705	2020-10-29T19:31:29:016
8,327834	-4,831279	1,864486	2020-10-29T19:31:29:040
8,303936	-4,855124	1,908611	2020-10-29T19:31:29:056
8,277097	-4,882380	1,955102	2020-10-29T19:31:29:081
8,252851	-4,905725	1,998670	2020-10-29T19:31:29:096
8,230840	-4,926784	2,037269	2020-10-29T19:31:29:119
8,217320	-4,935803	2,069753	2020-10-29T19:31:29:136
8,206192	-4,931895	2,122547	2020-10-29T19:31:29:185
8,209165	-4,918290	2,142527	2020-10-29T19:31:29:186
8,213717	-4,890711	2,187737	2020-10-29T19:31:29:199
8,213626	-4,866671	2,241036	2020-10-29T19:31:29:216
8,220464	-4,828453	2,297911	2020-10-29T19:31:29:241
8,212566	-4,824414	2,334347	2020-10-29T19:31:29:256
8,221465	-4,789702	2,374163	2020-10-29T19:31:29:280
8,226328	-4,772684	2,391527	2020-10-29T19:31:29:296
8,233420	-4,736027	2,439512	2020-10-29T19:31:29:320
8,262253	-4,650841	2,505043	2020-10-29T19:31:29:336
8,236944	-4,660770	2,569117	2020-10-29T19:31:29:359
8,196543	-4,696614	2,632278	2020-10-29T19:31:29:377
8,170303	-4,716817	2,677341	2020-10-29T19:31:29:400
8,169150	-4,707341	2,697464	2020-10-29T19:31:29:417
8,214311	-4,636939	2,682215	2020-10-29T19:31:29:439
8,258300	-4,582120	2,641032	2020-10-29T19:31:29:456
8,294409	-4,544400	2,592605	2020-10-29T19:31:29:482
8,314878	-4,526483	2,558152	2020-10-29T19:31:29:496
8,309724	-4,561199	2,512835	2020-10-29T19:31:29:519
8,306215	-4,593137	2,465820	2020-10-29T19:31:29:536
8,301693	-4,624729	2,421602	2020-10-29T19:31:29:560
8,300817	-4,644425	2,386657	2020-10-29T19:31:29:577
8,306808	-4,648780	2,357155	2020-10-29T19:31:29:600
8,333131	-4,612424	2,335564	2020-10-29T19:31:29:616
8,388088	-4,520641	2,318225	2020-10-29T19:31:29:640
8,479136	-4,355607	2,302896	2020-10-29T19:31:29:657
8,601912	-4,129261	2,264218	2020-10-29T19:31:29:682
8,617188	-4,109141	2,242638	2020-10-29T19:31:29:696
8,600894	-4,168102	2,195889	2020-10-29T19:31:29:721
8,617561	-4,154807	2,155365	2020-10-29T19:31:29:736
8,677482	-4,027391	2,156807	2020-10-29T19:31:29:759
8,776900	-3,799264	2,168410	2020-10-29T19:31:29:778
8,866044	-3,582881	2,174076	2020-10-29T19:31:29:801
8,942144	-3,391671	2,169103	2020-10-29T19:31:29:816
9,003192	-3,234592	2,156461	2020-10-29T19:31:29:840
9,049238	-3,115291	2,139307	2020-10-29T19:31:29:857
9,086520	-3,018262	2,120290	2020-10-29T19:31:29:881
9,106815	-2,961118	2,113783	2020-10-29T19:31:29:897
9,106926	-2,947974	2,131603	2020-10-29T19:31:29:920
9,102038	-2,954021	2,144070	2020-10-29T19:31:29:937
9,085134	-2,983442	2,174812	2020-10-29T19:31:29:962
9,057538	-3,040540	2,210544	2020-10-29T19:31:29:977
9,019157	-3,124396	2,250185	2020-10-29T19:31:30:000
8,992770	-3,184540	2,271380	2020-10-29T19:31:30:017
8,969547	-3,233829	2,293460	2020-10-29T19:31:30:041
8,963985	-3,244035	2,300777	2020-10-29T19:31:30:057
8,953360	-3,254999	2,326524	2020-10-29T19:31:30:081
8,947588	-3,255637	2,347741	2020-10-29T19:31:30:097
8,933517	-3,271666	2,378838	2020-10-29T19:31:30:122
8,923168	-3,288514	2,394395	2020-10-29T19:31:30:137
8,902733	-3,319107	2,428015	2020-10-29T19:31:30:160
8,881603	-3,349471	2,463443	2020-10-29T19:31:30:178
8,855417	-3,392249	2,498925	2020-10-29T19:31:30:202
8,826048	-3,445372	2,529954	2020-10-29T19:31:30:218
8,797347	-3,500496	2,554132	2020-10-29T19:31:30:240
8,766610	-3,576724	2,554209	2020-10-29T19:31:30:258
8,711794	-3,723749	2,531545	2020-10-29T19:31:30:282
8,695017	-3,771480	2,518532	2020-10-29T19:31:30:297
8,663308	-3,864765	2,486176	2020-10-29T19:31:30:320
8,645083	-3,928076	2,450130	2020-10-29T19:31:30:337
8,626534	-3,995066	2,406810	2020-10-29T19:31:30:361
8,590294	-4,074976	2,402457	2020-10-29T19:31:30:378
8,551289	-4,157269	2,400615	2020-10-29T19:31:30:400
8,512527	-4,251634	2,372948	2020-10-29T19:31:30:417
8,476523	-4,332702	2,355128	2020-10-29T19:31:30:443
8,442607	-4,405596	2,341688	2020-10-29T19:31:30:457
8,409475	-4,476109	2,327137	2020-10-29T19:31:30:481
8,381940	-4,535640	2,311156	2020-10-29T19:31:30:498
8,366761	-4,578044	2,282366	2020-10-29T19:31:30:521
8,364763	-4,598081	2,249171	2020-10-29T19:31:30:537
8,371899	-4,599354	2,219829	2020-10-29T19:31:30:560
8,385974	-4,584197	2,197944	2020-10-29T19:31:30:578
8,406170	-4,557586	2,176028	2020-10-29T19:31:30:601
8,432609	-4,517271	2,157723	2020-10-29T19:31:30:617
8,462578	-4,468202	2,142506	2020-10-29T19:31:30:642
8,494791	-4,413065	2,129264	2020-10-29T19:31:30:658
8,530052	-4,347552	2,123060	2020-10-29T19:31:30:683
8,565239	-4,277267	2,124157	2020-10-29T19:31:30:697
8,602499	-4,198976	2,129788	2020-10-29T19:31:30:721
8,642507	-4,115335	2,131076	2020-10-29T19:31:30:737
8,693241	-4,017416	2,111472	2020-10-29T19:31:30:761
8,754854	-3,903538	2,070098	2020-10-29T19:31:30:778
8,816782	-3,787558	2,022163	2020-10-29T19:31:30:800
8,877350	-3,661351	1,989361	2020-10-29T19:31:30:817
8,941367	-3,528563	1,942058	2020-10-29T19:31:30:841
9,018060	-3,380493	1,848579	2020-10-29T19:31:30:858
9,103621	-3,205128	1,738284	2020-10-29T19:31:30:881
9,178180	-3,037539	1,644614	2020-10-29T19:31:30:897
9,252100	-2,859483	1,546734	2020-10-29T19:31:30:923
9,319280	-2,682221	1,458455	2020-10-29T19:31:30:937
9,373553	-2,525312	1,389126	2020-10-29T19:31:30:960
9,427280	-2,365058	1,305096	2020-10-29T19:31:30:978
9,470992	-2,222624	1,237187	2020-10-29T19:31:31:002
9,499595	-2,131583	1,176623	2020-10-29T19:31:31:018
9,522982	-2,051601	1,128780	2020-10-29T19:31:31:041
9,546990	-1,963930	1,080900	2020-10-29T19:31:31:058
9,565491	-1,890154	1,048377	2020-10-29T19:31:31:082
9,573875	-1,857557	1,029938	2020-10-29T19:31:31:098
9,573030	-1,866454	1,021688	2020-10-29T19:31:31:121
9,567806	-1,897237	1,013883	2020-10-29T19:31:31:139
9,556168	-1,959148	1,005871	2020-10-29T19:31:31:163
9,537030	-2,053184	0,999934	2020-10-29T19:31:31:178
9,513908	-2,156948	1,001748	2020-10-29T19:31:31:201
9,496477	-2,229632	1,007996	2020-10-29T19:31:31:218
9,477917	-2,303618	1,016275	2020-10-29T19:31:31:241
9,453639	-2,397516	1,025184	2020-10-29T19:31:31:258
9,421499	-2,517572	1,033230	2020-10-29T19:31:31:282
9,380899	-2,661590	1,041658	2020-10-29T19:31:31:298
9,326097	-2,842970	1,054423	2020-10-29T19:31:31:322
9,261780	-3,041264	1,067958	2020-10-29T19:31:31:338
9,178848	-3,284577	1,063339	2020-10-29T19:31:31:361
9,034616	-3,670897	1,034698	2020-10-29T19:31:31:378
8,820543	-4,174245	0,971635	2020-10-29T19:31:31:403
8,551980	-4,717117	0,884774	2020-10-29T19:31:31:418
8,266371	-5,217880	0,781808	2020-10-29T19:31:31:441
7,988789	-5,648059	0,670119	2020-10-29T19:31:31:458
7,693352	-6,057077	0,542717	2020-10-29T19:31:31:483
7,424457	-6,393667	0,410914	2020-10-29T19:31:31:498
7,194888	-6,658154	0,270088	2020-10-29T19:31:31:521
7,044315	-6,821489	0,123638	2020-10-29T19:31:31:538
7,028966	-6,838418	-0,007868	2020-10-29T19:31:31:562
7,096893	-6,766889	-0,117103	2020-10-29T19:31:31:579
7,223651	-6,628176	-0,237779	2020-10-29T19:31:31:602
7,275753	-6,569515	-0,274370	2020-10-29T19:31:31:618
7,358220	-6,474331	-0,331677	2020-10-29T19:31:31:643
7,418468	-6,402752	-0,376145	2020-10-29T19:31:31:659
7,397397	-6,426547	-0,385230	2020-10-29T19:31:31:682
7,328286	-6,506248	-0,367900	2020-10-29T19:31:31:699
7,251237	-6,594564	-0,318855	2020-10-29T19:31:31:722
7,180944	-6,674213	-0,243508	2020-10-29T19:31:31:738
7,108161	-6,754605	-0,140508	2020-10-29T19:31:31:761
7,068378	-6,797086	-0,089613	2020-10-29T19:31:31:779
7,052428	-6,813745	-0,080834	2020-10-29T19:31:31:802
7,035243	-6,830840	-0,123984	2020-10-29T19:31:31:818
6,977349	-6,889147	-0,163215	2020-10-29T19:31:31:842
6,885207	-6,980387	-0,196243	2020-10-29T19:31:31:859
6,742238	-7,117368	-0,235976	2020-10-29T19:31:31:884
6,590623	-7,257760	-0,242865	2020-10-29T19:31:31:898
6,351057	-7,468740	-0,228873	2020-10-29T19:31:31:922
6,262346	-7,543026	-0,236989	2020-10-29T19:31:31:939
6,079820	-7,689981	-0,265254	2020-10-29T19:31:31:962
5,903286	-7,825380	-0,291570	2020-10-29T19:31:31:979
5,662193	-8,001473	-0,293899	2020-10-29T19:31:32:002
5,590133	-8,052485	-0,279770	2020-10-29T19:31:32:019
5,462320	-8,140990	-0,240263	2020-10-29T19:31:32:042
5,365897	-8,206315	-0,184199	2020-10-29T19:31:32:059
5,292153	-8,255279	-0,117788	2020-10-29T19:31:32:082
5,258490	-8,277465	-0,047439	2020-10-29T19:31:32:098
5,296185	-8,253105	0,084067	2020-10-29T19:31:32:125
5,335381	-8,227097	0,137752	2020-10-29T19:31:32:139
5,463348	-8,139812	0,256280	2020-10-29T19:31:32:162
5,641932	-8,011889	0,385512	2020-10-29T19:31:32:179
5,850852	-7,853269	0,513881	2020-10-29T19:31:32:203
6,086830	-7,661834	0,645904	2020-10-29T19:31:32:219
6,326371	-7,453279	0,772038	2020-10-29T19:31:32:242
6,539746	-7,254695	0,878353	2020-10-29T19:31:32:259
6,754272	-7,041880	0,980874	2020-10-29T19:31:32:284
6,942734	-6,842420	1,072432	2020-10-29T19:31:32:299
7,146424	-6,612461	1,172336	2020-10-29T19:31:32:322
7,337572	-6,381500	1,267626	2020-10-29T19:31:32:339
7,509137	-6,158810	1,360995	2020-10-29T19:31:32:364
7,663769	-5,946565	1,440621	2020-10-29T19:31:32:380
7,780762	-5,782194	1,482015	2020-10-29T19:31:32:402
7,912555	-5,586996	1,532100	2020-10-29T19:31:32:419
8,038671	-5,386037	1,593972	2020-10-29T19:31:32:443
8,147553	-5,200618	1,655698	2020-10-29T19:31:32:459
8,218222	-5,069839	1,711126	2020-10-29T19:31:32:483
8,267559	-4,972702	1,757863	2020-10-29T19:31:32:499
8,283146	-4,933342	1,794995	2020-10-29T19:31:32:524
8,296008	-4,902787	1,819149	2020-10-29T19:31:32:539
8,274876	-4,944920	1,801274	2020-10-29T19:31:32:562
8,223070	-5,058191	1,722271	2020-10-29T19:31:32:581
8,148803	-5,204002	1,638828	2020-10-29T19:31:32:604
8,047679	-5,386207	1,547260	2020-10-29T19:31:32:619
7,922532	-5,593076	1,456491	2020-10-29T19:31:32:642
7,785679	-5,804949	1,362409	2020-10-29T19:31:32:660
7,652304	-6,000090	1,269465	2020-10-29T19:31:32:684
7,524118	-6,175985	1,189635	2020-10-29T19:31:32:699
7,414448	-6,321128	1,113408	2020-10-29T19:31:32:723
7,331747	-6,428106	1,046576	2020-10-29T19:31:32:740
7,269204	-6,508156	0,986389	2020-10-29T19:31:32:763
7,236948	-6,546560	0,969292	2020-10-29T19:31:32:780
7,254669	-6,525537	0,978542	2020-10-29T19:31:32:803
7,308346	-6,461945	1,000862	2020-10-29T19:31:32:820
7,410316	-6,338186	1,041640	2020-10-29T19:31:32:844
7,517954	-6,205674	1,067880	2020-10-29T19:31:32:860
7,662826	-6,019314	1,104244	2020-10-29T19:31:32:883
7,817681	-5,809930	1,139718	2020-10-29T19:31:32:900
8,011045	-5,526723	1,203689	2020-10-29T19:31:32:923
8,194333	-5,236891	1,264224	2020-10-29T19:31:32:940
8,355904	-4,962019	1,314393	2020-10-29T19:31:32:963
8,497614	-4,704130	1,353554	2020-10-29T19:31:32:981
8,623117	-4,461441	1,381223	2020-10-29T19:31:33:004
8,732133	-4,238392	1,398669	2020-10-29T19:31:33:020
8,825081	-4,037451	1,409723	2020-10-29T19:31:33:043
8,895762	-3,876988	1,415897	2020-10-29T19:31:33:060
8,952989	-3,741644	1,419327	2020-10-29T19:31:33:085
8,996642	-3,634363	1,422045	2020-10-29T19:31:33:099
9,040684	-3,526232	1,414958	2020-10-29T19:31:33:123
9,073835	-3,442362	1,409271	2020-10-29T19:31:33:140
9,099037	-3,378475	1,401362	2020-10-29T19:31:33:164
9,111527	-3,354398	1,377846	2020-10-29T19:31:33:180
9,111330	-3,364445	1,354458	2020-10-29T19:31:33:203
9,119124	-3,360429	1,311289	2020-10-29T19:31:33:220
9,149892	-3,297349	1,255923	2020-10-29T19:31:33:244
9,176943	-3,237814	1,212709	2020-10-29T19:31:33:260
9,200933	-3,180209	1,183002	2020-10-29T19:31:33:284
9,220886	-3,130476	1,160067	2020-10-29T19:31:33:300
9,239684	-3,083792	1,135274	2020-10-29T19:31:33:325
9,258493	-3,049072	1,074175	2020-10-29T19:31:33:340
9,278351	-3,010583	1,009443	2020-10-29T19:31:33:363
5,927548	-7,406633	2,485224	2020-10-29T19:31:33:381
5,724780	-7,535297	2,572270	2020-10-29T19:31:33:404
5,491571	-7,640954	2,762035	2020-10-29T19:31:33:420
5,250985	-7,736385	2,957344	2020-10-29T19:31:33:443
5,042573	-7,848284	3,024447	2020-10-29T19:31:33:460
4,809464	-7,974958	3,072372	2020-10-29T19:31:33:485
4,581262	-8,096950	3,101907	2020-10-29T19:31:33:500
4,357348	-8,212768	3,119990	2020-10-29T19:31:33:524
4,145804	-8,317513	3,130761	2020-10-29T19:31:33:540
3,959192	-8,408727	3,128657	2020-10-29T19:31:33:566
3,800008	-8,483519	3,124137	2020-10-29T19:31:33:581
3,682132	-8,535762	3,122988	2020-10-29T19:31:33:604
3,622784	-8,563166	3,117373	2020-10-29T19:31:33:620
3,591215	-8,578435	3,111914	2020-10-29T19:31:33:644
3,585702	-8,578037	3,119360	2020-10-29T19:31:33:660
3,621843	-8,555449	3,139575	2020-10-29T19:31:33:684
3,674961	-8,526699	3,156017	2020-10-29T19:31:33:700
3,703732	-8,507531	3,174061	2020-10-29T19:31:33:724
3,749348	-8,483294	3,185356	2020-10-29T19:31:33:741
3,802253	-8,456766	3,193175	2020-10-29T19:31:33:764
3,850406	-8,436477	3,189141	2020-10-29T19:31:33:781
3,905979	-8,419565	3,166169	2020-10-29T19:31:33:806
3,931107	-8,412785	3,153068	2020-10-29T19:31:33:820
3,986765	-8,396962	3,125239	2020-10-29T19:31:33:843
4,016043	-8,386450	3,115967	2020-10-29T19:31:33:861
3,944690	-8,364099	3,263689	2020-10-29T19:31:33:885
3,863623	-8,350111	3,393883	2020-10-29T19:31:33:900
3,841197	-8,368567	3,373820	2020-10-29T19:31:33:925
3,799202	-8,394422	3,357102	2020-10-29T19:31:33:940
3,724127	-8,428015	3,357056	2020-10-29T19:31:33:964
3,571591	-8,468982	3,419132	2020-10-29T19:31:33:981
3,405159	-8,483514	3,550390	2020-10-29T19:31:34:004
3,155857	-8,455324	3,836463	2020-10-29T19:31:34:028
2,906810	-8,418361	4,105124	2020-10-29T19:31:34:046
2,805021	-8,409960	4,192234	2020-10-29T19:31:34:060
2,533789	-8,360724	4,455175	2020-10-29T19:31:34:085
2,472594	-8,350119	4,509121	2020-10-29T19:31:34:100
2,418035	-8,344887	4,548225	2020-10-29T19:31:34:125
2,401668	-8,346353	4,554204	2020-10-29T19:31:34:141
2,397221	-8,346930	4,555490	2020-10-29T19:31:34:164
2,394151	-8,335309	4,578323	2020-10-29T19:31:34:181
2,380288	-8,294858	4,658321	2020-10-29T19:31:34:205
2,408060	-8,289541	4,653509	2020-10-29T19:31:34:221
2,476794	-8,209130	4,758788	2020-10-29T19:31:34:245
2,493764	-8,173409	4,811122	2020-10-29T19:31:34:261
2,519689	-8,094766	4,929130	2020-10-29T19:31:34:286
2,542190	-8,035338	5,014079	2020-10-29T19:31:34:301
2,492133	-7,996632	5,100347	2020-10-29T19:31:34:324
2,434580	-7,979197	5,155156	2020-10-29T19:31:34:341
2,386403	-7,969559	5,192456	2020-10-29T19:31:34:365
2,451874	-7,981771	5,142959	2020-10-29T19:31:34:381
2,455419	-8,028037	5,068719	2020-10-29T19:31:34:404
2,439052	-8,095237	4,968757	2020-10-29T19:31:34:421
2,409707	-8,122346	4,938744	2020-10-29T19:31:34:445
2,352632	-8,137475	4,941357	2020-10-29T19:31:34:461
8,491732	-4,165101	2,590912	2020-10-29T19:31:34:484
8,365283	-4,276662	2,811153	2020-10-29T19:31:34:501
8,224365	-4,376093	3,062679	2020-10-29T19:31:34:527
8,078697	-4,456895	3,322820	2020-10-29T19:31:34:541
7,918072	-4,513629	3,619624	2020-10-29T19:31:34:564
7,773026	-4,530047	3,902452	2020-10-29T19:31:34:582
7,640193	-4,530051	4,156497	2020-10-29T19:31:34:605
7,491694	-4,536357	4,412071	2020-10-29T19:31:34:621
7,292416	-4,618222	4,654362	2020-10-29T19:31:34:645
7,212426	-4,681427	4,715458	2020-10-29T19:31:34:661
6,997244	-4,863927	4,852955	2020-10-29T19:31:34:686
6,754029	-5,065056	4,989859	2020-10-29T19:31:34:701
6,484330	-5,252837	5,150879	2020-10-29T19:31:34:724
6,245987	-5,326715	5,365085	2020-10-29T19:31:34:741
6,005062	-5,419438	5,544304	2020-10-29T19:31:34:766
5,740501	-5,528315	5,714435	2020-10-29T19:31:34:783
5,441553	-5,666933	5,869051	2020-10-29T19:31:34:804
5,067095	-5,859046	6,013860	2020-10-29T19:31:34:821
4,658690	-6,025852	6,177062	2020-10-29T19:31:34:845
4,255236	-6,139978	6,353269	2020-10-29T19:31:34:862
3,835288	-6,223536	6,536708	2020-10-29T19:31:34:885
3,418501	-6,313670	6,679956	2020-10-29T19:31:34:901
2,986957	-6,395354	6,807931	2020-10-29T19:31:34:925
2,630482	-6,455556	6,897590	2020-10-29T19:31:34:942
2,424618	-6,484732	6,945493	2020-10-29T19:31:34:964
2,251357	-6,523856	6,967143	2020-10-29T19:31:34:982
2,129445	-6,571768	6,960439	2020-10-29T19:31:35:007
2,013804	-6,641140	6,928942	2020-10-29T19:31:35:021
1,878170	-6,726412	6,884638	2020-10-29T19:31:35:045
1,842364	-6,743134	6,877953	2020-10-29T19:31:35:062
1,775107	-6,776610	6,862720	2020-10-29T19:31:35:086
1,719237	-6,817291	6,836604	2020-10-29T19:31:35:101
1,666475	-6,854591	6,812329	2020-10-29T19:31:35:125
1,606844	-6,900665	6,780063	2020-10-29T19:31:35:142
1,455474	-6,982899	6,729867	2020-10-29T19:31:35:166
1,312921	-7,049010	6,690148	2020-10-29T19:31:35:183
1,275897	-7,032862	6,714262	2020-10-29T19:31:35:205
1,276506	-6,956844	6,792882	2020-10-29T19:31:35:222
1,313913	-6,833766	6,909679	2020-10-29T19:31:35:247
1,366361	-6,701103	7,028419	2020-10-29T19:31:35:262
1,419375	-6,583344	7,128488	2020-10-29T19:31:35:285
1,454985	-6,499563	7,197853	2020-10-29T19:31:35:302
1,481661	-6,422387	7,261405	2020-10-29T19:31:35:326
1,501644	-6,340861	7,328638	2020-10-29T19:31:35:342
1,492743	-6,273990	7,387771	2020-10-29T19:31:35:365
1,452811	-6,225925	7,436234	2020-10-29T19:31:35:383
1,370164	-6,242066	7,438390	2020-10-29T19:31:35:406
1,261848	-6,310735	7,399509	2020-10-29T19:31:35:422
1,133668	-6,391612	7,350679	2020-10-29T19:31:35:445
0,994304	-6,454862	7,315498	2020-10-29T19:31:35:462
0,855298	-6,501653	7,291595	2020-10-29T19:31:35:488
0,724437	-6,547359	7,264824	2020-10-29T19:31:35:502
0,601808	-6,601460	7,226959	2020-10-29T19:31:35:525
0,492621	-6,668796	7,173205	2020-10-29T19:31:35:542
0,436234	-6,738074	7,111852	2020-10-29T19:31:35:566
0,389124	-6,782297	7,072441	2020-10-29T19:31:35:583
0,333104	-6,756202	7,100223	2020-10-29T19:31:35:605
0,284125	-6,701670	7,153829	2020-10-29T19:31:35:622
0,257146	-6,629224	7,222025	2020-10-29T19:31:35:646
0,239972	-6,531093	7,311472	2020-10-29T19:31:35:662
0,206362	-6,453078	7,381435	2020-10-29T19:31:35:687
0,190413	-6,477575	7,360376	2020-10-29T19:31:35:704
0,142416	-6,609048	7,243658	2020-10-29T19:31:35:727
0,078665	-6,968633	6,899446	2020-10-29T19:31:35:744
0,016541	-8,115623	5,505159	2020-10-29T19:31:35:765
-0,049336	-6,070712	7,701585	2020-10-29T19:31:35:784
-0,111535	-6,697365	7,162628	2020-10-29T19:31:35:806
-0,170639	-6,977553	6,888760	2020-10-29T19:31:35:824
-0,230564	-7,141838	6,716500	2020-10-29T19:31:35:846
-0,250039	-7,168128	6,687736	2020-10-29T19:31:35:864
-0,278224	-7,182148	6,671560	2020-10-29T19:31:35:888
-0,305219	-7,188459	6,663579	2020-10-29T19:31:35:904
-0,336798	-7,183576	6,667322	2020-10-29T19:31:35:925
-0,370984	-7,195757	6,652355	2020-10-29T19:31:35:943
-0,421821	-7,231004	6,610978	2020-10-29T19:31:35:968
-0,439233	-7,245974	6,593430	2020-10-29T19:31:35:984
-0,468196	-7,271898	6,562825	2020-10-29T19:31:36:005
-0,497410	-7,298306	6,531285	2020-10-29T19:31:36:024
-0,523985	-7,305892	6,520718	2020-10-29T19:31:36:046
-0,552085	-7,292177	6,533739	2020-10-29T19:31:36:063
-0,574092	-7,266648	6,560231	2020-10-29T19:31:36:086
-0,592282	-7,227582	6,601640	2020-10-29T19:31:36:103
-0,608089	-7,175501	6,656785	2020-10-29T19:31:36:127
-0,625674	-7,091121	6,744992	2020-10-29T19:31:36:143
-0,643597	-6,976707	6,861613	2020-10-29T19:31:36:166
-0,658811	-6,829988	7,006255	2020-10-29T19:31:36:184
-0,643111	-6,706039	7,126418	2020-10-29T19:31:36:208
-0,603827	-6,600223	7,227921	2020-10-29T19:31:36:223
-0,547123	-6,515459	7,308887	2020-10-29T19:31:36:246
-0,480722	-6,478113	7,346655	2020-10-29T19:31:36:263
-0,423147	-6,537742	7,297209	2020-10-29T19:31:36:287
-0,379856	-6,687800	7,162362	2020-10-29T19:31:36:303
-0,343792	-6,856210	7,003183	2020-10-29T19:31:36:326
-0,306115	-7,011841	6,849144	2020-10-29T19:31:36:343
-0,263926	-7,247833	6,600730	2020-10-29T19:31:36:366
-0,204377	-7,632976	6,153559	2020-10-29T19:31:36:385
-0,141030	-8,094696	5,534111	2020-10-29T19:31:36:406
-0,185961	-2,070709	9,583735	2020-10-29T19:31:36:423
-0,140227	-2,499174	9,481816	2020-10-29T19:31:36:448
-0,077916	-3,098168	9,304068	2020-10-29T19:31:36:463
0,001852	-3,579796	9,129920	2020-10-29T19:31:36:487
0,123040	-4,024740	8,941852	2020-10-29T19:31:36:504
0,247596	-4,240773	8,838831	2020-10-29T19:31:36:527
0,381620	-4,345693	8,782921	2020-10-29T19:31:36:544
0,517802	-4,359577	8,769056	2020-10-29T19:31:36:567
0,665851	-4,281349	8,797561	2020-10-29T19:31:36:584
0,809332	-4,132766	8,856388	2020-10-29T19:31:36:607
0,980304	-3,946520	8,923809	2020-10-29T19:31:36:623
1,170451	-3,790311	8,968499	2020-10-29T19:31:36:646
1,383910	-3,695933	8,977486	2020-10-29T19:31:36:663
1,525413	-3,570303	9,005356	2020-10-29T19:31:36:689
1,661698	-3,476043	9,018107	2020-10-29T19:31:36:703
1,801009	-3,386034	9,025603	2020-10-29T19:31:36:726
2,023032	-3,373954	8,982993	2020-10-29T19:31:36:744
2,261732	-3,360502	8,930956	2020-10-29T19:31:36:767
2,515409	-3,348884	8,867248	2020-10-29T19:31:36:784
2,797256	-3,390300	8,766505	2020-10-29T19:31:36:806
3,110939	-3,470572	8,628301	2020-10-29T19:31:36:824
3,425574	-3,568220	8,467800	2020-10-29T19:31:36:847
3,751993	-3,643035	8,295856	2020-10-29T19:31:36:864
4,046786	-3,750779	8,107130	2020-10-29T19:31:36:887
4,281555	-3,793193	7,965574	2020-10-29T19:31:36:904
4,430314	-3,838770	7,861714	2020-10-29T19:31:36:928
4,667925	-3,849310	7,717751	2020-10-29T19:31:36:944
4,916436	-3,959467	7,504776	2020-10-29T19:31:36:966
5,085442	-4,251756	7,227118	2020-10-29T19:31:36:984
5,296612	-4,493700	6,922640	2020-10-29T19:31:37:008
5,444901	-4,668909	6,687654	2020-10-29T19:31:37:024
5,497591	-4,740394	6,593599	2020-10-29T19:31:37:047
5,479125	-4,766867	6,589883	2020-10-29T19:31:37:064
5,445555	-4,777260	6,610151	2020-10-29T19:31:37:088
5,447454	-4,773269	6,611470	2020-10-29T19:31:37:104
5,493334	-4,824437	6,535937	2020-10-29T19:31:37:127
5,551005	-4,857842	6,462050	2020-10-29T19:31:37:144
5,636262	-4,794785	6,435291	2020-10-29T19:31:37:168
5,725673	-4,740877	6,396182	2020-10-29T19:31:37:185
5,866198	-4,599108	6,372309	2020-10-29T19:31:37:207
5,944621	-4,559232	6,328133	2020-10-29T19:31:37:224
5,977264	-4,566507	6,292036	2020-10-29T19:31:37:248
6,021574	-4,554395	6,258476	2020-10-29T19:31:37:264
6,072921	-4,532884	6,224386	2020-10-29T19:31:37:288
6,142695	-4,502659	6,177681	2020-10-29T19:31:37:304
6,223062	-4,456037	6,130875	2020-10-29T19:31:37:328
6,299210	-4,412947	6,084097	2020-10-29T19:31:37:344
6,359138	-4,392293	6,036514	2020-10-29T19:31:37:367
6,386562	-4,352733	6,036218	2020-10-29T19:31:37:385
6,436640	-4,333083	5,997036	2020-10-29T19:31:37:410
6,460348	-4,382345	5,935432	2020-10-29T19:31:37:424
6,516622	-4,733413	5,594535	2020-10-29T19:31:37:448
6,496687	-4,873869	5,496256	2020-10-29T19:31:37:464
6,370624	-5,118296	5,421124	2020-10-29T19:31:37:489
6,213472	-5,358287	5,371397	2020-10-29T19:31:37:504
5,930438	-5,724700	5,313013	2020-10-29T19:31:37:528
5,815387	-5,850979	5,302613	2020-10-29T19:31:37:545
5,619977	-6,037363	5,304385	2020-10-29T19:31:37:568
5,447299	-6,120912	5,388113	2020-10-29T19:31:37:585
5,271023	-6,221378	5,448042	2020-10-29T19:31:37:607
5,072957	-6,329381	5,511302	2020-10-29T19:31:37:624
4,937658	-6,381480	5,573745	2020-10-29T19:31:37:649
4,857867	-6,354537	5,673744	2020-10-29T19:31:37:664
4,751878	-6,361666	5,754932	2020-10-29T19:31:37:688
4,698174	-6,341553	5,820846	2020-10-29T19:31:37:704
4,645630	-6,405093	5,793383	2020-10-29T19:31:37:728
4,648343	-6,394538	5,802860	2020-10-29T19:31:37:744
4,696766	-6,241561	5,929055	2020-10-29T19:31:37:768
4,687678	-6,209113	5,970174	2020-10-29T19:31:37:785
4,668797	-6,203852	5,990405	2020-10-29T19:31:37:808
4,713202	-6,253505	5,903370	2020-10-29T19:31:37:825
4,786739	-6,304469	5,788885	2020-10-29T19:31:37:848
4,812942	-6,312736	5,758067	2020-10-29T19:31:37:865
4,836445	-6,382572	5,660562	2020-10-29T19:31:37:890
4,924184	-6,502946	5,443757	2020-10-29T19:31:37:905
5,002904	-6,466007	5,415911	2020-10-29T19:31:37:928
5,206457	-6,154382	5,584512	2020-10-29T19:31:37:945
5,340706	-5,926226	5,703252	2020-10-29T19:31:37:968
5,363202	-5,936358	5,671517	2020-10-29T19:31:37:985
5,392155	-5,983163	5,594355	2020-10-29T19:31:38:008
5,405868	-6,026742	5,534018	2020-10-29T19:31:38:025
5,433874	-5,980680	5,556516	2020-10-29T19:31:38:048
5,481553	-5,854683	5,643195	2020-10-29T19:31:38:065
5,586826	-5,636964	5,760416	2020-10-29T19:31:38:088
5,700684	-5,408612	5,866814	2020-10-29T19:31:38:105
5,827809	-5,218301	5,914082	2020-10-29T19:31:38:130
5,944549	-5,109743	5,892643	2020-10-29T19:31:38:145
6,120506	-4,962224	5,838333	2020-10-29T19:31:38:168
6,262156	-4,874321	5,761665	2020-10-29T19:31:38:186
6,372491	-4,833984	5,674006	2020-10-29T19:31:38:209
6,422440	-4,855467	5,598847	2020-10-29T19:31:38:225
6,508292	-4,822319	5,527907	2020-10-29T19:31:38:249
6,557575	-4,828168	5,464191	2020-10-29T19:31:38:265
6,670955	-4,882107	5,275772	2020-10-29T19:31:38:289
6,820421	-4,888618	5,074806	2020-10-29T19:31:38:305
7,014653	-4,849475	4,842274	2020-10-29T19:31:38:328
7,227670	-4,745939	4,626794	2020-10-29T19:31:38:345
7,419809	-4,620244	4,446365	2020-10-29T19:31:38:370
7,603948	-4,516370	4,237070	2020-10-29T19:31:38:385
7,825058	-4,423667	3,920463	2020-10-29T19:31:38:409
7,903937	-4,387013	3,801615	2020-10-29T19:31:38:425
8,136935	-4,227547	3,476854	2020-10-29T19:31:38:450
8,221352	-4,158920	3,359039	2020-10-29T19:31:38:465
8,364177	-4,051042	3,130495	2020-10-29T19:31:38:489
8,477312	-3,966695	2,927611	2020-10-29T19:31:38:505
8,605521	-3,852883	2,696419	2020-10-29T19:31:38:529
8,707340	-3,771428	2,475669	2020-10-29T19:31:38:545
8,802155	-3,685391	2,260603	2020-10-29T19:31:38:568
8,935354	-3,536740	1,954812	2020-10-29T19:31:38:586
4,485542	-7,756564	3,985725	2020-10-29T19:31:38:612
4,597676	-7,739079	3,890811	2020-10-29T19:31:38:625
4,826316	-7,700427	3,685170	2020-10-29T19:31:38:648
5,154782	-7,611226	3,415822	2020-10-29T19:31:38:666
5,365279	-7,548356	3,225909	2020-10-29T19:31:38:690
5,627321	-7,452485	2,994013	2020-10-29T19:31:38:706
5,860118	-7,357563	2,774105	2020-10-29T19:31:38:728
6,115099	-7,223037	2,569766	2020-10-29T19:31:38:746
6,404295	-7,046679	2,345144	2020-10-29T19:31:38:769
6,705569	-6,840520	2,100716	2020-10-29T19:31:38:787
7,174568	-6,457485	1,731140	2020-10-29T19:31:38:809
7,343307	-6,300831	1,595542	2020-10-29T19:31:38:826
7,653730	-5,979435	1,355418	2020-10-29T19:31:38:850
7,951719	-5,624566	1,142282	2020-10-29T19:31:38:866
8,212324	-5,275735	0,945907	2020-10-29T19:31:38:889
8,397428	-5,000296	0,806623	2020-10-29T19:31:38:906
8,526442	-4,784742	0,759217	2020-10-29T19:31:38:930
8,659003	-4,534799	0,792246	2020-10-29T19:31:38:946
8,746038	-4,350942	0,863999	2020-10-29T19:31:38:969
8,826640	-4,147829	1,027779	2020-10-29T19:31:38:986
8,871400	-4,004637	1,196463	2020-10-29T19:31:39:010
8,941548	-3,799954	1,333957	2020-10-29T19:31:39:026
9,035641	-3,531865	1,433006	2020-10-29T19:31:39:051
9,150480	-3,218315	1,442757	2020-10-29T19:31:39:070
9,248619	-2,951631	1,386112	2020-10-29T19:31:39:091
9,328856	-2,738898	1,281120	2020-10-29T19:31:39:105
9,440396	-2,438853	1,049427	2020-10-29T19:31:39:129
9,548647	-2,072985	0,834540	2020-10-29T19:31:39:146
9,630277	-1,726530	0,668771	2020-10-29T19:31:39:170
9,675160	-1,487295	0,591271	2020-10-29T19:31:39:187
9,700170	-1,329820	0,555586	2020-10-29T19:31:39:209
9,724901	-1,149165	0,525451	2020-10-29T19:31:39:226
9,790627	-0,474871	0,297515	2020-10-29T19:31:39:252
9,776853	-0,621434	0,444247	2020-10-29T19:31:39:267
9,757625	-0,782988	0,588288	2020-10-29T19:31:39:289
9,735103	-0,940676	0,716440	2020-10-29T19:31:39:306
9,706941	-1,111028	0,843391	2020-10-29T19:31:39:331
9,673518	-1,291732	0,961694	2020-10-29T19:31:39:346
9,633624	-1,485932	1,075022	2020-10-29T19:31:39:369
9,584569	-1,702214	1,186965	2020-10-29T19:31:39:386
9,501473	-2,022748	1,341969	2020-10-29T19:31:39:411
9,466685	-2,144349	1,397862	2020-10-29T19:31:39:426
9,394301	-2,381340	1,498903	2020-10-29T19:31:39:449
9,324524	-2,593376	1,580518	2020-10-29T19:31:39:466
9,255318	-2,790964	1,649239	2020-10-29T19:31:39:490
9,183097	-2,986710	1,709001	2020-10-29T19:31:39:508
9,101823	-3,200458	1,756210	2020-10-29T19:31:39:530
9,017623	-3,410743	1,794350	2020-10-29T19:31:39:546
8,914490	-3,657888	1,822667	2020-10-29T19:31:39:572
8,885581	-3,729144	1,819426	2020-10-29T19:31:39:587
8,851206	-3,816956	1,804823	2020-10-29T19:31:39:609
8,827186	-3,876784	1,794918	2020-10-29T19:31:39:626
8,814648	-3,901667	1,802602	2020-10-29T19:31:39:650
8,809430	-3,906983	1,816538	2020-10-29T19:31:39:666
8,800065	-3,911505	1,851857	2020-10-29T19:31:39:691
8,798905	-3,908726	1,863198	2020-10-29T19:31:39:706
8,798756	-3,901147	1,879716	2020-10-29T19:31:39:730
8,797736	-3,897412	1,892196	2020-10-29T19:31:39:747
8,789858	-3,909539	1,903757	2020-10-29T19:31:39:769
8,778874	-3,930383	1,911503	2020-10-29T19:31:39:788
8,764128	-3,963512	1,910764	2020-10-29T19:31:39:813
8,760130	-3,973200	1,908978	2020-10-29T19:31:39:826
8,754801	-3,989461	1,899487	2020-10-29T19:31:39:851
8,754508	-3,997144	1,884626	2020-10-29T19:31:39:867
8,763161	-3,990301	1,858735	2020-10-29T19:31:39:891
8,775244	-3,977253	1,829463	2020-10-29T19:31:39:906
8,788749	-3,966544	1,787401	2020-10-29T19:31:39:929
8,802371	-3,955767	1,743720	2020-10-29T19:31:39:946
8,814441	-3,949616	1,696040	2020-10-29T19:31:39:970
8,829243	-3,941707	1,636397	2020-10-29T19:31:39:987
8,843998	-3,930593	1,582568	2020-10-29T19:31:40:010
8,853780	-3,926979	1,536163	2020-10-29T19:31:40:027
8,859485	-3,930323	1,494146	2020-10-29T19:31:40:053
8,860294	-3,929281	1,492084	2020-10-29T19:31:40:067
8,851704	-3,945103	1,501299	2020-10-29T19:31:40:090
8,848028	-3,958034	1,488875	2020-10-29T19:31:40:107
8,863184	-3,937283	1,453328	2020-10-29T19:31:40:130
8,876386	-3,916876	1,427674	2020-10-29T19:31:40:147
8,870794	-3,930359	1,425367	2020-10-29T19:31:40:170
8,864690	-3,943866	1,426037	2020-10-29T19:31:40:188
8,865640	-3,944912	1,417210	2020-10-29T19:31:40:212
8,882084	-3,913863	1,400227	2020-10-29T19:31:40:227
8,896887	-3,883056	1,391999	2020-10-29T19:31:40:250
8,899088	-3,872312	1,407771	2020-10-29T19:31:40:267
8,887045	-3,885055	1,448162	2020-10-29T19:31:40:292
8,858132	-3,921777	1,524315	2020-10-29T19:31:40:307
8,817601	-3,975615	1,617028	2020-10-29T19:31:40:330
8,777267	-4,025235	1,710980	2020-10-29T19:31:40:347
8,737918	-4,074269	1,794297	2020-10-29T19:31:40:371
8,706523	-4,111311	1,861173	2020-10-29T19:31:40:387
8,691155	-4,128120	1,895475	2020-10-29T19:31:40:410
8,669230	-4,158644	1,928865	2020-10-29T19:31:40:427
8,635420	-4,205776	1,977716	2020-10-29T19:31:40:451
8,592175	-4,269825	2,028178	2020-10-29T19:31:40:467
8,495234	-4,439758	2,071211	2020-10-29T19:31:40:492
8,447242	-4,527484	2,077588	2020-10-29T19:31:40:507
8,346708	-4,705674	2,087936	2020-10-29T19:31:40:532
8,257827	-4,842153	2,128905	2020-10-29T19:31:40:547
8,137032	-5,005089	2,215444	2020-10-29T19:31:40:571
8,100733	-5,054422	2,236366	2020-10-29T19:31:40:588
8,024547	-5,149287	2,293881	2020-10-29T19:31:40:611
7,965394	-5,218179	2,343817	2020-10-29T19:31:40:627
7,930806	-5,259656	2,368274	2020-10-29T19:31:40:651
7,906092	-5,285547	2,393134	2020-10-29T19:31:40:667
7,905935	-5,280279	2,405251	2020-10-29T19:31:40:692
7,919781	-5,255915	2,413051	2020-10-29T19:31:40:707
7,938075	-5,225400	2,419204	2020-10-29T19:31:40:730
7,961882	-5,188906	2,419520	2020-10-29T19:31:40:748
7,978540	-5,160535	2,425317	2020-10-29T19:31:40:774
7,983837	-5,153931	2,421925	2020-10-29T19:31:40:788
8,003987	-5,124357	2,418169	2020-10-29T19:31:40:810
8,036273	-5,073237	2,418875	2020-10-29T19:31:40:828
8,082237	-5,001927	2,414238	2020-10-29T19:31:40:852
8,134857	-4,923815	2,398025	2020-10-29T19:31:40:868
8,188400	-4,842485	2,381349	2020-10-29T19:31:40:891
8,235103	-4,769994	2,366564	2020-10-29T19:31:40:908
8,281867	-4,697215	2,348881	2020-10-29T19:31:40:932
8,332091	-4,621974	2,320343	2020-10-29T19:31:40:948
8,363843	-4,577756	2,293613	2020-10-29T19:31:40:971
8,367208	-4,586177	2,264331	2020-10-29T19:31:40:988
8,339535	-4,644989	2,246468	2020-10-29T19:31:41:012
8,332303	-4,669384	2,222601	2020-10-29T19:31:41:028
8,338332	-4,662244	2,214968	2020-10-29T19:31:41:050
8,350849	-4,623739	2,248274	2020-10-29T19:31:41:067
8,405084	-4,528253	2,240507	2020-10-29T19:31:41:092
8,452635	-4,432562	2,252939	2020-10-29T19:31:41:108
8,498879	-4,339724	2,259696	2020-10-29T19:31:41:132
8,510134	-4,313716	2,267126	2020-10-29T19:31:41:148
8,548422	-4,221128	2,297158	2020-10-29T19:31:41:171
8,593528	-4,108530	2,332734	2020-10-29T19:31:41:188
8,631875	-4,010829	2,361009	2020-10-29T19:31:41:211
8,669348	-3,916552	2,381895	2020-10-29T19:31:41:228
8,727327	-3,769648	2,407053	2020-10-29T19:31:41:255
8,750486	-3,709356	2,416618	2020-10-29T19:31:41:268
8,791419	-3,597629	2,436883	2020-10-29T19:31:41:291
8,826261	-3,493600	2,462166	2020-10-29T19:31:41:308
8,863312	-3,394949	2,467065	2020-10-29T19:31:41:332
8,896228	-3,309200	2,465097	2020-10-29T19:31:41:348
8,923849	-3,241430	2,455289	2020-10-29T19:31:41:371
8,940868	-3,203065	2,443691	2020-10-29T19:31:41:389
8,942730	-3,199860	2,441078	2020-10-29T19:31:41:412
8,939165	-3,213611	2,436065	2020-10-29T19:31:41:428
8,929475	-3,244972	2,430025	2020-10-29T19:31:41:452
8,915104	-3,276705	2,440186	2020-10-29T19:31:41:468
8,886438	-3,335303	2,465229	2020-10-29T19:31:41:496
8,874393	-3,363213	2,470698	2020-10-29T19:31:41:508
8,848729	-3,414456	2,492362	2020-10-29T19:31:41:531
8,819942	-3,467948	2,520389	2020-10-29T19:31:41:548
8,791084	-3,520363	2,548383	2020-10-29T19:31:41:572
8,757259	-3,579541	2,582184	2020-10-29T19:31:41:589
8,723971	-3,635578	2,616350	2020-10-29T19:31:41:611
8,691118	-3,689860	2,649487	2020-10-29T19:31:41:628
8,660979	-3,737264	2,681543	2020-10-29T19:31:41:652
8,630856	-3,779135	2,719715	2020-10-29T19:31:41:668
8,601722	-3,811703	2,766167	2020-10-29T19:31:41:692
8,580436	-3,829095	2,807941	2020-10-29T19:31:41:708
8,569762	-3,830010	2,839118	2020-10-29T19:31:41:734
8,561903	-3,823734	2,871109	2020-10-29T19:31:41:748
8,558948	-3,804441	2,905345	2020-10-29T19:31:41:772
8,555411	-3,782058	2,944716	2020-10-29T19:31:41:789
8,552835	-3,751756	2,990608	2020-10-29T19:31:41:812
8,557095	-3,725253	3,011478	2020-10-29T19:31:41:828
8,566959	-3,685782	3,031929	2020-10-29T19:31:41:852
8,573689	-3,633581	3,075604	2020-10-29T19:31:41:869
8,561281	-3,560440	3,193450	2020-10-29T19:31:41:894
8,539865	-3,546023	3,266006	2020-10-29T19:31:41:908
8,510522	-3,523313	3,365660	2020-10-29T19:31:41:931
8,489283	-3,492299	3,450553	2020-10-29T19:31:41:948
8,484237	-3,426031	3,528516	2020-10-29T19:31:41:983
8,470968	-3,371957	3,611508	2020-10-29T19:31:41:989
8,454394	-3,343218	3,676478	2020-10-29T19:31:42:011
8,444319	-3,325620	3,715389	2020-10-29T19:31:42:029
8,431026	-3,326612	3,744573	2020-10-29T19:31:42:052
8,422691	-3,332524	3,758051	2020-10-29T19:31:42:068
8,422688	-3,339221	3,752108	2020-10-29T19:31:42:092
8,415602	-3,356642	3,752465	2020-10-29T19:31:42:108
8,410101	-3,395009	3,730215	2020-10-29T19:31:42:132
8,414903	-3,459019	3,659917	2020-10-29T19:31:42:149
8,415746	-3,534984	3,584620	2020-10-29T19:31:42:171
8,422237	-3,610512	3,492922	2020-10-29T19:31:42:189
8,433437	-3,671787	3,400810	2020-10-29T19:31:42:214
8,448559	-3,717082	3,312935	2020-10-29T19:31:42:229
8,473748	-3,734821	3,227552	2020-10-29T19:31:42:251
8,511695	-3,724581	3,138300	2020-10-29T19:31:42:269
