v1	v2	v3	v4	ts
0,000000	0,000000	0,000000	0,000000	2020-10-29T19:30:38:360
0,000000	0,000000	0,000000	0,000000	2020-10-29T19:30:38:396
0,000000	0,000000	0,000000	0,000000	2020-10-29T19:30:38:436
0,000000	0,000000	0,000000	0,000000	2020-10-29T19:30:38:477
0,000000	0,000000	0,000000	0,000000	2020-10-29T19:30:38:516
0,000000	0,000000	0,000000	0,000000	2020-10-29T19:30:38:556
0,000000	0,000000	0,000000	0,000000	2020-10-29T19:30:38:596
0,000000	0,000000	0,000000	0,000000	2020-10-29T19:30:38:636
0,000000	0,000000	0,000000	0,000000	2020-10-29T19:30:38:677
0,000000	0,000000	0,000000	0,000000	2020-10-29T19:30:38:718
0,000000	0,000000	0,000000	0,000000	2020-10-29T19:30:38:756
0,000000	0,000000	0,000000	0,000000	2020-10-29T19:30:38:796
0,000000	0,000000	0,000000	0,000000	2020-10-29T19:30:38:837
0,000000	0,000000	0,000000	0,000000	2020-10-29T19:30:38:876
0,000000	0,000000	0,000000	0,000000	2020-10-29T19:30:38:918
0,000000	0,000000	0,000000	0,000000	2020-10-29T19:30:38:958
0,000000	0,000000	0,000000	0,000000	2020-10-29T19:30:38:996
0,000000	0,000000	0,000000	0,000000	2020-10-29T19:30:39:037
0,000000	0,000000	0,000000	0,000000	2020-10-29T19:30:39:077
0,000000	0,000000	0,000000	0,000000	2020-10-29T19:30:39:121
0,000000	0,000000	0,000000	0,000000	2020-10-29T19:30:39:158
0,000000	0,000000	0,000000	0,000000	2020-10-29T19:30:39:201
0,000000	0,000000	0,000000	0,000000	2020-10-29T19:30:39:259
0,000000	0,000000	0,000000	0,000000	2020-10-29T19:30:39:277
0,000000	0,000000	0,000000	0,000000	2020-10-29T19:30:39:317
0,000000	0,000000	0,000000	0,000000	2020-10-29T19:30:39:358
0,000000	0,000000	0,000000	0,000000	2020-10-29T19:30:39:398
0,000000	0,000000	0,000000	0,000000	2020-10-29T19:30:39:439
0,000000	0,000000	0,000000	0,000000	2020-10-29T19:30:39:480
0,000000	0,000000	0,000000	0,000000	2020-10-29T19:30:39:519
0,000000	0,000000	0,000000	0,000000	2020-10-29T19:30:39:559
0,000000	0,000000	0,000000	0,000000	2020-10-29T19:30:39:598
0,000000	0,000000	0,000000	0,000000	2020-10-29T19:30:39:638
0,000000	0,000000	0,000000	0,000000	2020-10-29T19:30:39:687
0,000000	0,000000	0,000000	0,000000	2020-10-29T19:30:39:726
0,000000	0,000000	0,000000	0,000000	2020-10-29T19:30:39:760
0,000000	0,000000	0,000000	0,000000	2020-10-29T19:30:39:798
0,000000	0,000000	0,000000	0,000000	2020-10-29T19:30:39:840
0,000000	0,000000	0,000000	0,000000	2020-10-29T19:30:39:881
0,000000	0,000000	0,000000	0,000000	2020-10-29T19:30:39:922
0,000000	0,000000	0,000000	0,000000	2020-10-29T19:30:39:961
0,000000	0,000000	0,000000	0,000000	2020-10-29T19:30:40:001
0,000000	0,000000	0,000000	0,000000	2020-10-29T19:30:40:041
0,000000	0,000000	0,000000	0,000000	2020-10-29T19:30:50:130
0,000000	0,000000	0,000000	0,000000	2020-10-29T19:30:50:133
0,000000	0,000000	0,000000	0,000000	2020-10-29T19:30:50:169
0,000000	0,000000	0,000000	0,000000	2020-10-29T19:30:50:205
0,000000	0,000000	0,000000	0,000000	2020-10-29T19:30:50:247
0,000000	0,000000	0,000000	0,000000	2020-10-29T19:30:50:288
0,000000	0,000000	0,000000	0,000000	2020-10-29T19:30:50:327
0,000000	0,000000	0,000000	0,000000	2020-10-29T19:30:50:368
0,000000	0,000000	0,000000	0,000000	2020-10-29T19:30:50:407
0,000000	0,000000	0,000000	0,000000	2020-10-29T19:30:50:447
0,000000	0,000000	0,000000	0,000000	2020-10-29T19:30:50:488
0,000000	0,000000	0,000000	0,000000	2020-10-29T19:30:50:527
0,000000	0,000000	0,000000	0,000000	2020-10-29T19:30:50:568
0,000000	0,000000	0,000000	0,000000	2020-10-29T19:30:50:609
0,000000	0,000000	0,000000	0,000000	2020-10-29T19:30:50:647
0,000000	0,000000	0,000000	0,000000	2020-10-29T19:30:50:688
0,000000	0,000000	0,000000	0,000000	2020-10-29T19:30:50:728
0,000000	0,000000	0,000000	0,000000	2020-10-29T19:30:50:767
0,000000	0,000000	0,000000	0,000000	2020-10-29T19:30:50:808
0,000000	0,000000	0,000000	0,000000	2020-10-29T19:30:50:849
0,000000	0,000000	0,000000	0,000000	2020-10-29T19:30:50:887
0,000000	0,000000	0,000000	0,000000	2020-10-29T19:30:50:927
0,000000	0,000000	0,000000	0,000000	2020-10-29T19:30:50:968
0,000000	0,000000	0,000000	0,000000	2020-10-29T19:30:51:007
0,000000	0,000000	0,000000	0,000000	2020-10-29T19:30:51:048
0,000000	0,000000	0,000000	0,000000	2020-10-29T19:30:51:089
0,000000	0,000000	0,000000	0,000000	2020-10-29T19:30:51:128
0,000000	0,000000	0,000000	0,000000	2020-10-29T19:30:51:168
0,000000	0,000000	0,000000	0,000000	2020-10-29T19:30:51:208
0,000000	0,000000	0,000000	0,000000	2020-10-29T19:30:51:247
0,000000	0,000000	0,000000	0,000000	2020-10-29T19:30:51:288
0,000000	0,000000	0,000000	0,000000	2020-10-29T19:30:51:330
0,000000	0,000000	0,000000	0,000000	2020-10-29T19:30:51:368
0,000000	0,000000	0,000000	0,000000	2020-10-29T19:30:51:408
0,000000	0,000000	0,000000	0,000000	2020-10-29T19:30:51:448
0,000000	0,000000	0,000000	0,000000	2020-10-29T19:30:51:488
0,000000	0,000000	0,000000	0,000000	2020-10-29T19:30:51:528
0,000000	0,000000	0,000000	0,000000	2020-10-29T19:30:51:570
0,000000	0,000000	0,000000	0,000000	2020-10-29T19:30:51:608
0,000000	0,000000	0,000000	0,000000	2020-10-29T19:30:51:648
0,000000	0,000000	0,000000	0,000000	2020-10-29T19:30:51:689
0,000000	0,000000	0,000000	0,000000	2020-10-29T19:30:51:728
0,000000	0,000000	0,000000	0,000000	2020-10-29T19:30:51:768
0,000000	0,000000	0,000000	0,000000	2020-10-29T19:30:51:810
0,000000	0,000000	0,000000	0,000000	2020-10-29T19:30:51:849
0,000000	0,000000	0,000000	0,000000	2020-10-29T19:30:51:888
0,000000	0,000000	0,000000	0,000000	2020-10-29T19:30:51:929
0,000000	0,000000	0,000000	0,000000	2020-10-29T19:30:51:968
0,000000	0,000000	0,000000	0,000000	2020-10-29T19:30:52:009
0,000000	0,000000	0,000000	0,000000	2020-10-29T19:30:52:049
0,000000	0,000000	0,000000	0,000000	2020-10-29T19:30:52:089
0,000000	0,000000	0,000000	0,000000	2020-10-29T19:30:52:128
0,000000	0,000000	0,000000	0,000000	2020-10-29T19:30:52:168
0,000000	0,000000	0,000000	0,000000	2020-10-29T19:30:52:207
0,000000	0,000000	0,000000	0,000000	2020-10-29T19:30:52:249
0,000000	0,000000	0,000000	0,000000	2020-10-29T19:30:52:292
0,000000	0,000000	0,000000	0,000000	2020-10-29T19:30:52:329
0,000000	0,000000	0,000000	0,000000	2020-10-29T19:30:52:369
0,000000	0,000000	0,000000	0,000000	2020-10-29T19:30:52:409
0,000000	0,000000	0,000000	0,000000	2020-10-29T19:30:52:449
0,000000	0,000000	0,000000	0,000000	2020-10-29T19:30:52:491
0,000000	0,000000	0,000000	0,000000	2020-10-29T19:30:52:532
0,000000	0,000000	0,000000	0,000000	2020-10-29T19:30:52:571
0,000000	0,000000	0,000000	0,000000	2020-10-29T19:30:52:610
0,000000	0,000000	0,000000	0,000000	2020-10-29T19:30:52:651
0,000000	0,000000	0,000000	0,000000	2020-10-29T19:30:52:690
0,000000	0,000000	0,000000	0,000000	2020-10-29T19:30:52:730
0,000000	0,000000	0,000000	0,000000	2020-10-29T19:30:52:771
0,000000	0,000000	0,000000	0,000000	2020-10-29T19:30:52:810
0,000000	0,000000	0,000000	0,000000	2020-10-29T19:30:52:850
0,000000	0,000000	0,000000	0,000000	2020-10-29T19:30:52:891
0,000000	0,000000	0,000000	0,000000	2020-10-29T19:30:52:929
0,000000	0,000000	0,000000	0,000000	2020-10-29T19:30:52:970
0,000000	0,000000	0,000000	0,000000	2020-10-29T19:30:53:011
0,000000	0,000000	0,000000	0,000000	2020-10-29T19:30:53:049
0,000000	0,000000	0,000000	0,000000	2020-10-29T19:30:53:090
0,000000	0,000000	0,000000	0,000000	2020-10-29T19:30:53:131
0,000000	0,000000	0,000000	0,000000	2020-10-29T19:30:53:169
0,000000	0,000000	0,000000	0,000000	2020-10-29T19:30:53:210
0,000000	0,000000	0,000000	0,000000	2020-10-29T19:30:53:252
0,000000	0,000000	0,000000	0,000000	2020-10-29T19:30:53:291
0,000000	0,000000	0,000000	0,000000	2020-10-29T19:30:53:330
0,000000	0,000000	0,000000	0,000000	2020-10-29T19:30:53:370
0,000000	0,000000	0,000000	0,000000	2020-10-29T19:30:53:410
0,000000	0,000000	0,000000	0,000000	2020-10-29T19:30:53:451
0,000000	0,000000	0,000000	0,000000	2020-10-29T19:30:53:491
0,000000	0,000000	0,000000	0,000000	2020-10-29T19:30:53:531
0,000000	0,000000	0,000000	0,000000	2020-10-29T19:30:53:570
0,000000	0,000000	0,000000	0,000000	2020-10-29T19:30:53:611
0,000000	0,000000	0,000000	0,000000	2020-10-29T19:30:53:650
0,000000	0,000000	0,000000	0,000000	2020-10-29T19:30:53:691
0,000000	0,000000	0,000000	0,000000	2020-10-29T19:30:53:732
0,000000	0,000000	0,000000	0,000000	2020-10-29T19:30:53:771
0,000000	0,000000	0,000000	0,000000	2020-10-29T19:30:53:809
0,000000	0,000000	0,000000	0,000000	2020-10-29T19:30:53:851
0,000000	0,000000	0,000000	0,000000	2020-10-29T19:30:53:891
0,000000	0,000000	0,000000	0,000000	2020-10-29T19:30:53:931
0,000000	0,000000	0,000000	0,000000	2020-10-29T19:30:53:972
0,000000	0,000000	0,000000	0,000000	2020-10-29T19:30:54:010
0,000000	0,000000	0,000000	0,000000	2020-10-29T19:30:54:050
0,000000	0,000000	0,000000	0,000000	2020-10-29T19:30:54:091
0,000000	0,000000	0,000000	0,000000	2020-10-29T19:30:54:130
0,000000	0,000000	0,000000	0,000000	2020-10-29T19:30:54:171
0,000000	0,000000	0,000000	0,000000	2020-10-29T19:30:54:212
0,000000	0,000000	0,000000	0,000000	2020-10-29T19:30:54:251
0,000000	0,000000	0,000000	0,000000	2020-10-29T19:30:54:291
0,000000	0,000000	0,000000	0,000000	2020-10-29T19:30:54:332
0,000000	0,000000	0,000000	0,000000	2020-10-29T19:30:54:370
0,000000	0,000000	0,000000	0,000000	2020-10-29T19:30:54:411
0,000000	0,000000	0,000000	0,000000	2020-10-29T19:30:54:453
0,000000	0,000000	0,000000	0,000000	2020-10-29T19:30:54:491
0,000000	0,000000	0,000000	0,000000	2020-10-29T19:30:54:530
0,000000	0,000000	0,000000	0,000000	2020-10-29T19:30:54:572
0,000000	0,000000	0,000000	0,000000	2020-10-29T19:30:54:610
0,000000	0,000000	0,000000	0,000000	2020-10-29T19:30:54:651
0,000000	0,000000	0,000000	0,000000	2020-10-29T19:30:54:693
0,000000	0,000000	0,000000	0,000000	2020-10-29T19:30:54:731
0,000000	0,000000	0,000000	0,000000	2020-10-29T19:30:54:771
0,000000	0,000000	0,000000	0,000000	2020-10-29T19:30:54:812
0,000000	0,000000	0,000000	0,000000	2020-10-29T19:30:54:850
0,000000	0,000000	0,000000	0,000000	2020-10-29T19:30:54:892
0,000000	0,000000	0,000000	0,000000	2020-10-29T19:30:54:933
0,000000	0,000000	0,000000	0,000000	2020-10-29T19:30:54:972
0,000000	0,000000	0,000000	0,000000	2020-10-29T19:30:55:010
0,000000	0,000000	0,000000	0,000000	2020-10-29T19:30:55:052
0,000000	0,000000	0,000000	0,000000	2020-10-29T19:30:55:093
0,000000	0,000000	0,000000	0,000000	2020-10-29T19:30:55:135
0,000000	0,000000	0,000000	0,000000	2020-10-29T19:30:55:173
0,000000	0,000000	0,000000	0,000000	2020-10-29T19:30:55:212
0,000000	0,000000	0,000000	0,000000	2020-10-29T19:30:55:251
0,000000	0,000000	0,000000	0,000000	2020-10-29T19:30:55:292
0,000000	0,000000	0,000000	0,000000	2020-10-29T19:30:55:331
0,000000	0,000000	0,000000	0,000000	2020-10-29T19:30:55:372
0,000000	0,000000	0,000000	0,000000	2020-10-29T19:30:55:412
0,000000	0,000000	0,000000	0,000000	2020-10-29T19:30:55:452
0,000000	0,000000	0,000000	0,000000	2020-10-29T19:30:55:492
0,000000	0,000000	0,000000	0,000000	2020-10-29T19:30:55:532
0,000000	0,000000	0,000000	0,000000	2020-10-29T19:30:55:571
0,000000	0,000000	0,000000	0,000000	2020-10-29T19:30:55:612
0,000000	0,000000	0,000000	0,000000	2020-10-29T19:30:55:653
0,000000	0,000000	0,000000	0,000000	2020-10-29T19:30:55:692
0,000000	0,000000	0,000000	0,000000	2020-10-29T19:30:55:730
0,000000	0,000000	0,000000	0,000000	2020-10-29T19:30:55:773
0,000000	0,000000	0,000000	0,000000	2020-10-29T19:30:55:811
0,000000	0,000000	0,000000	0,000000	2020-10-29T19:30:55:852
0,000000	0,000000	0,000000	0,000000	2020-10-29T19:30:55:892
0,000000	0,000000	0,000000	0,000000	2020-10-29T19:30:55:932
0,000000	0,000000	0,000000	0,000000	2020-10-29T19:30:55:972
0,000000	0,000000	0,000000	0,000000	2020-10-29T19:30:56:013
0,000000	0,000000	0,000000	0,000000	2020-10-29T19:30:56:052
0,000000	0,000000	0,000000	0,000000	2020-10-29T19:30:56:093
0,000000	0,000000	0,000000	0,000000	2020-10-29T19:30:56:133
0,000000	0,000000	0,000000	0,000000	2020-10-29T19:30:56:173
0,000000	0,000000	0,000000	0,000000	2020-10-29T19:30:56:212
0,000000	0,000000	0,000000	0,000000	2020-10-29T19:30:56:253
0,000000	0,000000	0,000000	0,000000	2020-10-29T19:30:56:292
0,000000	0,000000	0,000000	0,000000	2020-10-29T19:30:56:332
0,000000	0,000000	0,000000	0,000000	2020-10-29T19:30:56:374
0,000000	0,000000	0,000000	0,000000	2020-10-29T19:30:56:413
0,000000	0,000000	0,000000	0,000000	2020-10-29T19:30:56:452
0,000000	0,000000	0,000000	0,000000	2020-10-29T19:30:56:493
0,000000	0,000000	0,000000	0,000000	2020-10-29T19:30:56:532
0,000000	0,000000	0,000000	0,000000	2020-10-29T19:30:56:573
0,000000	0,000000	0,000000	0,000000	2020-10-29T19:30:56:614
0,000000	0,000000	0,000000	0,000000	2020-10-29T19:30:56:653
0,000000	0,000000	0,000000	0,000000	2020-10-29T19:30:56:693
0,000000	0,000000	0,000000	0,000000	2020-10-29T19:30:56:736
0,000000	0,000000	0,000000	0,000000	2020-10-29T19:30:56:773
0,000000	0,000000	0,000000	0,000000	2020-10-29T19:30:56:813
0,000000	0,000000	0,000000	0,000000	2020-10-29T19:30:56:854
0,000000	0,000000	0,000000	0,000000	2020-10-29T19:30:56:894
0,000000	0,000000	0,000000	0,000000	2020-10-29T19:30:56:933
0,000000	0,000000	0,000000	0,000000	2020-10-29T19:30:56:974
0,000000	0,000000	0,000000	0,000000	2020-10-29T19:30:57:013
0,000000	0,000000	0,000000	0,000000	2020-10-29T19:30:57:054
0,000000	0,000000	0,000000	0,000000	2020-10-29T19:30:57:104
0,000000	0,000000	0,000000	0,000000	2020-10-29T19:30:57:134
0,000000	0,000000	0,000000	0,000000	2020-10-29T19:30:57:173
0,000000	0,000000	0,000000	0,000000	2020-10-29T19:30:57:214
0,000000	0,000000	0,000000	0,000000	2020-10-29T19:30:57:253
0,000000	0,000000	0,000000	0,000000	2020-10-29T19:30:57:294
0,000000	0,000000	0,000000	0,000000	2020-10-29T19:30:57:335
0,000000	0,000000	0,000000	0,000000	2020-10-29T19:30:57:374
0,000000	0,000000	0,000000	0,000000	2020-10-29T19:30:57:413
0,000000	0,000000	0,000000	0,000000	2020-10-29T19:30:57:453
0,000000	0,000000	0,000000	0,000000	2020-10-29T19:30:57:493
0,000000	0,000000	0,000000	0,000000	2020-10-29T19:30:57:534
0,000000	0,000000	0,000000	0,000000	2020-10-29T19:30:57:574
0,000000	0,000000	0,000000	0,000000	2020-10-29T19:30:57:614
0,000000	0,000000	0,000000	0,000000	2020-10-29T19:30:57:653
0,000000	0,000000	0,000000	0,000000	2020-10-29T19:30:57:694
0,000000	0,000000	0,000000	0,000000	2020-10-29T19:30:57:733
0,000000	0,000000	0,000000	0,000000	2020-10-29T19:30:57:774
0,000000	0,000000	0,000000	0,000000	2020-10-29T19:30:57:813
0,000000	0,000000	0,000000	0,000000	2020-10-29T19:30:57:854
0,000000	0,000000	0,000000	0,000000	2020-10-29T19:30:57:893
0,000000	0,000000	0,000000	0,000000	2020-10-29T19:30:57:935
0,000000	0,000000	0,000000	0,000000	2020-10-29T19:30:57:974
0,000000	0,000000	0,000000	0,000000	2020-10-29T19:30:58:014
0,000000	0,000000	0,000000	0,000000	2020-10-29T19:30:58:055
0,000000	0,000000	0,000000	0,000000	2020-10-29T19:30:58:094
0,000000	0,000000	0,000000	0,000000	2020-10-29T19:30:58:134
0,000000	0,000000	0,000000	0,000000	2020-10-29T19:30:58:175
0,000000	0,000000	0,000000	0,000000	2020-10-29T19:30:58:214
0,000000	0,000000	0,000000	0,000000	2020-10-29T19:30:58:255
0,000000	0,000000	0,000000	0,000000	2020-10-29T19:30:58:297
0,000000	0,000000	0,000000	0,000000	2020-10-29T19:30:58:335
0,000000	0,000000	0,000000	0,000000	2020-10-29T19:30:58:374
0,000000	0,000000	0,000000	0,000000	2020-10-29T19:30:58:415
0,000000	0,000000	0,000000	0,000000	2020-10-29T19:30:58:454
0,000000	0,000000	0,000000	0,000000	2020-10-29T19:30:58:496
0,000000	0,000000	0,000000	0,000000	2020-10-29T19:30:58:536
0,000000	0,000000	0,000000	0,000000	2020-10-29T19:30:58:576
0,000000	0,000000	0,000000	0,000000	2020-10-29T19:30:58:615
0,000000	0,000000	0,000000	0,000000	2020-10-29T19:30:58:656
0,000000	0,000000	0,000000	0,000000	2020-10-29T19:30:58:695
0,000000	0,000000	0,000000	0,000000	2020-10-29T19:30:58:737
0,000000	0,000000	0,000000	0,000000	2020-10-29T19:30:58:777
0,000000	0,000000	0,000000	0,000000	2020-10-29T19:30:58:816
0,000000	0,000000	0,000000	0,000000	2020-10-29T19:30:58:855
0,000000	0,000000	0,000000	0,000000	2020-10-29T19:30:58:896
0,000000	0,000000	0,000000	0,000000	2020-10-29T19:30:58:936
0,000000	0,000000	0,000000	0,000000	2020-10-29T19:30:58:976
0,000000	0,000000	0,000000	0,000000	2020-10-29T19:30:59:016
0,000000	0,000000	0,000000	0,000000	2020-10-29T19:30:59:056
0,000000	0,000000	0,000000	0,000000	2020-10-29T19:30:59:095
0,000000	0,000000	0,000000	0,000000	2020-10-29T19:30:59:136
0,000000	0,000000	0,000000	0,000000	2020-10-29T19:30:59:175
0,000000	0,000000	0,000000	0,000000	2020-10-29T19:30:59:216
0,000000	0,000000	0,000000	0,000000	2020-10-29T19:30:59:257
0,000000	0,000000	0,000000	0,000000	2020-10-29T19:30:59:296
0,000000	0,000000	0,000000	0,000000	2020-10-29T19:30:59:335
0,000000	0,000000	0,000000	0,000000	2020-10-29T19:30:59:376
0,000000	0,000000	0,000000	0,000000	2020-10-29T19:30:59:415
0,000000	0,000000	0,000000	0,000000	2020-10-29T19:30:59:456
0,000000	0,000000	0,000000	0,000000	2020-10-29T19:30:59:496
0,000000	0,000000	0,000000	0,000000	2020-10-29T19:30:59:536
0,000000	0,000000	0,000000	0,000000	2020-10-29T19:30:59:576
0,000000	0,000000	0,000000	0,000000	2020-10-29T19:30:59:616
0,000000	0,000000	0,000000	0,000000	2020-10-29T19:30:59:656
0,000000	0,000000	0,000000	0,000000	2020-10-29T19:30:59:738
0,000000	0,000000	0,000000	0,000000	2020-10-29T19:30:59:740
0,000000	0,000000	0,000000	0,000000	2020-10-29T19:30:59:777
0,000000	0,000000	0,000000	0,000000	2020-10-29T19:30:59:815
0,000000	0,000000	0,000000	0,000000	2020-10-29T19:30:59:857
0,000000	0,000000	0,000000	0,000000	2020-10-29T19:30:59:896
0,000000	0,000000	0,000000	0,000000	2020-10-29T19:30:59:937
0,000000	0,000000	0,000000	0,000000	2020-10-29T19:30:59:978
0,000000	0,000000	0,000000	0,000000	2020-10-29T19:31:00:020
0,000000	0,000000	0,000000	0,000000	2020-10-29T19:31:00:076
0,000000	0,000000	0,000000	0,000000	2020-10-29T19:31:00:101
0,000000	0,000000	0,000000	0,000000	2020-10-29T19:31:00:315
0,000000	0,000000	0,000000	0,000000	2020-10-29T19:31:00:316
0,000000	0,000000	0,000000	0,000000	2020-10-29T19:31:00:317
0,000000	0,000000	0,000000	0,000000	2020-10-29T19:31:00:318
0,000000	0,000000	0,000000	0,000000	2020-10-29T19:31:00:320
0,000000	0,000000	0,000000	0,000000	2020-10-29T19:31:00:366
0,000000	0,000000	0,000000	0,000000	2020-10-29T19:31:00:389
0,000000	0,000000	0,000000	0,000000	2020-10-29T19:31:00:418
0,000000	0,000000	0,000000	0,000000	2020-10-29T19:31:00:467
0,000000	0,000000	0,000000	0,000000	2020-10-29T19:31:00:496
0,000000	0,000000	0,000000	0,000000	2020-10-29T19:31:00:535
0,000000	0,000000	0,000000	0,000000	2020-10-29T19:31:00:578
0,000000	0,000000	0,000000	0,000000	2020-10-29T19:31:00:617
0,000000	0,000000	0,000000	0,000000	2020-10-29T19:31:00:657
0,000000	0,000000	0,000000	0,000000	2020-10-29T19:31:00:697
0,000000	0,000000	0,000000	0,000000	2020-10-29T19:31:00:741
0,000000	0,000000	0,000000	0,000000	2020-10-29T19:31:00:786
0,000000	0,000000	0,000000	0,000000	2020-10-29T19:31:00:818
0,000000	0,000000	0,000000	0,000000	2020-10-29T19:31:00:856
0,000000	0,000000	0,000000	0,000000	2020-10-29T19:31:00:898
0,000000	0,000000	0,000000	0,000000	2020-10-29T19:31:00:939
0,000000	0,000000	0,000000	0,000000	2020-10-29T19:31:00:977
0,000000	0,000000	0,000000	0,000000	2020-10-29T19:31:01:017
0,000000	0,000000	0,000000	0,000000	2020-10-29T19:31:01:058
94,000000	0,000000	696,000000	0,000000	2020-10-29T19:31:09:143
94,000000	0,000000	696,000000	0,000000	2020-10-29T19:31:09:149
93,000000	0,000000	696,000000	0,000000	2020-10-29T19:31:09:179
93,000000	0,000000	696,000000	0,000000	2020-10-29T19:31:09:222
93,000000	0,000000	696,000000	0,000000	2020-10-29T19:31:09:261
94,000000	0,000000	696,000000	0,000000	2020-10-29T19:31:09:302
94,000000	0,000000	696,000000	0,000000	2020-10-29T19:31:09:340
94,000000	0,000000	696,000000	0,000000	2020-10-29T19:31:09:380
93,000000	0,000000	696,000000	0,000000	2020-10-29T19:31:09:420
94,000000	0,000000	696,000000	0,000000	2020-10-29T19:31:09:461
94,000000	0,000000	696,000000	0,000000	2020-10-29T19:31:09:502
94,000000	0,000000	696,000000	0,000000	2020-10-29T19:31:09:543
94,000000	0,000000	696,000000	0,000000	2020-10-29T19:31:09:580
94,000000	0,000000	696,000000	0,000000	2020-10-29T19:31:09:620
94,000000	0,000000	696,000000	0,000000	2020-10-29T19:31:09:661
94,000000	0,000000	696,000000	0,000000	2020-10-29T19:31:09:700
94,000000	0,000000	696,000000	0,000000	2020-10-29T19:31:09:740
94,000000	0,000000	696,000000	0,000000	2020-10-29T19:31:09:782
94,000000	0,000000	696,000000	0,000000	2020-10-29T19:31:09:820
94,000000	0,000000	696,000000	0,000000	2020-10-29T19:31:09:862
94,000000	0,000000	696,000000	0,000000	2020-10-29T19:31:09:902
94,000000	0,000000	696,000000	0,000000	2020-10-29T19:31:09:942
94,000000	0,000000	696,000000	0,000000	2020-10-29T19:31:09:982
94,000000	0,000000	696,000000	0,000000	2020-10-29T19:31:10:023
94,000000	0,000000	696,000000	0,000000	2020-10-29T19:31:10:062
94,000000	0,000000	696,000000	0,000000	2020-10-29T19:31:10:102
94,000000	0,000000	696,000000	0,000000	2020-10-29T19:31:10:142
94,000000	0,000000	696,000000	0,000000	2020-10-29T19:31:10:182
94,000000	0,000000	696,000000	0,000000	2020-10-29T19:31:10:222
94,000000	0,000000	696,000000	0,000000	2020-10-29T19:31:10:263
94,000000	0,000000	696,000000	0,000000	2020-10-29T19:31:10:302
94,000000	0,000000	696,000000	0,000000	2020-10-29T19:31:10:342
94,000000	0,000000	696,000000	0,000000	2020-10-29T19:31:10:382
94,000000	0,000000	696,000000	0,000000	2020-10-29T19:31:10:421
94,000000	0,000000	696,000000	0,000000	2020-10-29T19:31:10:461
94,000000	0,000000	696,000000	0,000000	2020-10-29T19:31:10:503
94,000000	0,000000	696,000000	0,000000	2020-10-29T19:31:10:542
94,000000	0,000000	696,000000	0,000000	2020-10-29T19:31:10:582
94,000000	0,000000	696,000000	0,000000	2020-10-29T19:31:10:622
94,000000	0,000000	696,000000	0,000000	2020-10-29T19:31:10:662
94,000000	0,000000	696,000000	0,000000	2020-10-29T19:31:10:702
94,000000	0,000000	696,000000	0,000000	2020-10-29T19:31:10:743
94,000000	0,000000	696,000000	0,000000	2020-10-29T19:31:10:782
93,000000	0,000000	696,000000	0,000000	2020-10-29T19:31:10:822
93,000000	0,000000	696,000000	0,000000	2020-10-29T19:31:10:863
94,000000	0,000000	696,000000	0,000000	2020-10-29T19:31:10:901
94,000000	0,000000	665,000000	0,000000	2020-10-29T19:31:10:942
93,000000	0,000000	665,000000	0,000000	2020-10-29T19:31:10:983
93,000000	0,000000	665,000000	0,000000	2020-10-29T19:31:11:022
93,000000	0,000000	665,000000	0,000000	2020-10-29T19:31:11:062
93,000000	0,000000	665,000000	0,000000	2020-10-29T19:31:11:102
93,000000	0,000000	665,000000	0,000000	2020-10-29T19:31:11:142
94,000000	0,000000	665,000000	0,000000	2020-10-29T19:31:11:182
94,000000	0,000000	665,000000	0,000000	2020-10-29T19:31:11:223
93,000000	0,000000	665,000000	0,000000	2020-10-29T19:31:11:262
93,000000	0,000000	665,000000	0,000000	2020-10-29T19:31:11:302
93,000000	0,000000	665,000000	0,000000	2020-10-29T19:31:11:342
93,000000	0,000000	665,000000	0,000000	2020-10-29T19:31:11:382
93,000000	0,000000	665,000000	0,000000	2020-10-29T19:31:11:422
93,000000	0,000000	665,000000	0,000000	2020-10-29T19:31:11:463
93,000000	0,000000	665,000000	0,000000	2020-10-29T19:31:11:502
93,000000	0,000000	719,000000	0,000000	2020-10-29T19:31:11:542
93,000000	0,000000	719,000000	0,000000	2020-10-29T19:31:11:584
93,000000	0,000000	719,000000	0,000000	2020-10-29T19:31:11:622
93,000000	0,000000	719,000000	0,000000	2020-10-29T19:31:11:663
93,000000	0,000000	719,000000	0,000000	2020-10-29T19:31:11:713
93,000000	0,000000	719,000000	0,000000	2020-10-29T19:31:11:742
93,000000	0,000000	719,000000	0,000000	2020-10-29T19:31:11:783
93,000000	0,000000	719,000000	0,000000	2020-10-29T19:31:11:823
93,000000	0,000000	719,000000	0,000000	2020-10-29T19:31:11:863
93,000000	0,000000	719,000000	0,000000	2020-10-29T19:31:11:903
93,000000	0,000000	719,000000	0,000000	2020-10-29T19:31:11:944
93,000000	0,000000	719,000000	0,000000	2020-10-29T19:31:11:982
93,000000	0,000000	719,000000	0,000000	2020-10-29T19:31:12:023
93,000000	0,000000	719,000000	0,000000	2020-10-29T19:31:12:063
93,000000	0,000000	719,000000	0,000000	2020-10-29T19:31:12:103
93,000000	0,000000	719,000000	0,000000	2020-10-29T19:31:12:143
93,000000	0,000000	719,000000	0,000000	2020-10-29T19:31:12:184
93,000000	0,000000	719,000000	0,000000	2020-10-29T19:31:12:223
93,000000	0,000000	719,000000	0,000000	2020-10-29T19:31:12:264
93,000000	0,000000	719,000000	0,000000	2020-10-29T19:31:12:303
93,000000	0,000000	719,000000	0,000000	2020-10-29T19:31:12:343
93,000000	0,000000	719,000000	0,000000	2020-10-29T19:31:12:383
93,000000	0,000000	719,000000	0,000000	2020-10-29T19:31:12:426
93,000000	0,000000	719,000000	0,000000	2020-10-29T19:31:12:463
93,000000	0,000000	719,000000	0,000000	2020-10-29T19:31:12:503
93,000000	0,000000	719,000000	0,000000	2020-10-29T19:31:12:543
93,000000	0,000000	719,000000	0,000000	2020-10-29T19:31:12:583
93,000000	0,000000	719,000000	0,000000	2020-10-29T19:31:12:624
93,000000	0,000000	719,000000	0,000000	2020-10-29T19:31:12:666
93,000000	0,000000	719,000000	0,000000	2020-10-29T19:31:12:704
93,000000	0,000000	719,000000	0,000000	2020-10-29T19:31:12:744
93,000000	0,000000	719,000000	0,000000	2020-10-29T19:31:12:784
93,000000	0,000000	719,000000	0,000000	2020-10-29T19:31:12:823
93,000000	0,000000	719,000000	0,000000	2020-10-29T19:31:12:864
93,000000	0,000000	719,000000	0,000000	2020-10-29T19:31:12:905
93,000000	0,000000	719,000000	0,000000	2020-10-29T19:31:12:943
93,000000	0,000000	719,000000	0,000000	2020-10-29T19:31:12:984
93,000000	0,000000	719,000000	0,000000	2020-10-29T19:31:13:024
93,000000	0,000000	719,000000	0,000000	2020-10-29T19:31:13:064
93,000000	0,000000	719,000000	0,000000	2020-10-29T19:31:13:104
93,000000	0,000000	719,000000	0,000000	2020-10-29T19:31:13:146
92,000000	0,000000	719,000000	0,000000	2020-10-29T19:31:13:184
92,000000	0,000000	719,000000	0,000000	2020-10-29T19:31:13:224
92,000000	0,000000	719,000000	0,000000	2020-10-29T19:31:13:265
92,000000	0,000000	719,000000	0,000000	2020-10-29T19:31:13:304
92,000000	0,000000	719,000000	0,000000	2020-10-29T19:31:13:344
92,000000	0,000000	719,000000	0,000000	2020-10-29T19:31:13:386
92,000000	0,000000	719,000000	0,000000	2020-10-29T19:31:13:423
92,000000	0,000000	719,000000	0,000000	2020-10-29T19:31:13:465
92,000000	0,000000	719,000000	0,000000	2020-10-29T19:31:13:505
92,000000	0,000000	719,000000	0,000000	2020-10-29T19:31:13:544
92,000000	0,000000	719,000000	0,000000	2020-10-29T19:31:13:584
92,000000	0,000000	719,000000	0,000000	2020-10-29T19:31:13:626
92,000000	0,000000	719,000000	0,000000	2020-10-29T19:31:13:665
92,000000	0,000000	719,000000	0,000000	2020-10-29T19:31:13:705
92,000000	0,000000	719,000000	0,000000	2020-10-29T19:31:13:744
92,000000	0,000000	719,000000	0,000000	2020-10-29T19:31:13:784
92,000000	0,000000	719,000000	0,000000	2020-10-29T19:31:13:825
92,000000	0,000000	719,000000	0,000000	2020-10-29T19:31:13:867
92,000000	0,000000	719,000000	0,000000	2020-10-29T19:31:13:905
92,000000	0,000000	719,000000	0,000000	2020-10-29T19:31:13:948
92,000000	0,000000	719,000000	0,000000	2020-10-29T19:31:13:985
92,000000	0,000000	719,000000	0,000000	2020-10-29T19:31:14:029
92,000000	0,000000	719,000000	0,000000	2020-10-29T19:31:14:066
92,000000	0,000000	719,000000	0,000000	2020-10-29T19:31:14:106
92,000000	0,000000	719,000000	0,000000	2020-10-29T19:31:14:147
92,000000	0,000000	719,000000	0,000000	2020-10-29T19:31:14:185
91,000000	0,000000	719,000000	0,000000	2020-10-29T19:31:14:225
91,000000	0,000000	719,000000	0,000000	2020-10-29T19:31:14:265
92,000000	0,000000	719,000000	0,000000	2020-10-29T19:31:14:305
92,000000	0,000000	719,000000	0,000000	2020-10-29T19:31:14:347
92,000000	0,000000	719,000000	0,000000	2020-10-29T19:31:14:385
92,000000	0,000000	719,000000	0,000000	2020-10-29T19:31:14:425
92,000000	0,000000	719,000000	0,000000	2020-10-29T19:31:14:466
91,000000	0,000000	719,000000	0,000000	2020-10-29T19:31:14:505
91,000000	0,000000	691,000000	0,000000	2020-10-29T19:31:14:545
91,000000	0,000000	691,000000	0,000000	2020-10-29T19:31:14:589
92,000000	0,000000	691,000000	0,000000	2020-10-29T19:31:14:624
92,000000	0,000000	691,000000	0,000000	2020-10-29T19:31:14:666
92,000000	0,000000	691,000000	0,000000	2020-10-29T19:31:14:706
91,000000	0,000000	691,000000	0,000000	2020-10-29T19:31:14:745
92,000000	0,000000	691,000000	0,000000	2020-10-29T19:31:14:786
92,000000	0,000000	691,000000	0,000000	2020-10-29T19:31:14:827
92,000000	0,000000	691,000000	0,000000	2020-10-29T19:31:14:865
92,000000	0,000000	691,000000	0,000000	2020-10-29T19:31:14:906
91,000000	0,000000	691,000000	0,000000	2020-10-29T19:31:14:946
91,000000	0,000000	691,000000	0,000000	2020-10-29T19:31:14:986
91,000000	0,000000	691,000000	0,000000	2020-10-29T19:31:15:026
91,000000	0,000000	691,000000	0,000000	2020-10-29T19:31:15:069
91,000000	0,000000	691,000000	0,000000	2020-10-29T19:31:15:106
91,000000	0,000000	691,000000	0,000000	2020-10-29T19:31:15:146
91,000000	0,000000	691,000000	0,000000	2020-10-29T19:31:15:186
91,000000	0,000000	691,000000	0,000000	2020-10-29T19:31:15:225
91,000000	0,000000	691,000000	0,000000	2020-10-29T19:31:15:266
91,000000	0,000000	691,000000	0,000000	2020-10-29T19:31:15:308
92,000000	0,000000	691,000000	0,000000	2020-10-29T19:31:15:346
92,000000	0,000000	691,000000	0,000000	2020-10-29T19:31:15:386
91,000000	0,000000	691,000000	0,000000	2020-10-29T19:31:15:426
91,000000	0,000000	691,000000	0,000000	2020-10-29T19:31:15:467
92,000000	0,000000	691,000000	0,000000	2020-10-29T19:31:15:506
92,000000	0,000000	691,000000	0,000000	2020-10-29T19:31:15:546
92,000000	0,000000	691,000000	0,000000	2020-10-29T19:31:15:586
92,000000	0,000000	691,000000	0,000000	2020-10-29T19:31:15:626
92,000000	0,000000	691,000000	0,000000	2020-10-29T19:31:15:667
92,000000	0,000000	691,000000	0,000000	2020-10-29T19:31:15:706
92,000000	0,000000	691,000000	0,000000	2020-10-29T19:31:15:747
92,000000	0,000000	691,000000	0,000000	2020-10-29T19:31:15:789
92,000000	0,000000	691,000000	0,000000	2020-10-29T19:31:15:826
93,000000	0,000000	691,000000	0,000000	2020-10-29T19:31:15:867
93,000000	0,000000	691,000000	0,000000	2020-10-29T19:31:15:907
92,000000	0,000000	691,000000	0,000000	2020-10-29T19:31:15:946
92,000000	0,000000	691,000000	0,000000	2020-10-29T19:31:15:987
92,000000	0,000000	691,000000	0,000000	2020-10-29T19:31:16:028
93,000000	0,000000	691,000000	0,000000	2020-10-29T19:31:16:067
93,000000	0,000000	691,000000	0,000000	2020-10-29T19:31:16:107
93,000000	0,000000	691,000000	0,000000	2020-10-29T19:31:16:147
93,000000	0,000000	691,000000	0,000000	2020-10-29T19:31:16:186
93,000000	0,000000	691,000000	0,000000	2020-10-29T19:31:16:227
93,000000	0,000000	691,000000	0,000000	2020-10-29T19:31:16:269
93,000000	0,000000	691,000000	0,000000	2020-10-29T19:31:16:307
93,000000	0,000000	691,000000	0,000000	2020-10-29T19:31:16:347
93,000000	0,000000	691,000000	0,000000	2020-10-29T19:31:16:387
93,000000	0,000000	691,000000	0,000000	2020-10-29T19:31:16:427
93,000000	0,000000	691,000000	0,000000	2020-10-29T19:31:16:468
93,000000	0,000000	691,000000	0,000000	2020-10-29T19:31:16:509
93,000000	0,000000	691,000000	0,000000	2020-10-29T19:31:16:547
93,000000	0,000000	691,000000	0,000000	2020-10-29T19:31:16:587
93,000000	0,000000	691,000000	0,000000	2020-10-29T19:31:16:628
93,000000	0,000000	691,000000	0,000000	2020-10-29T19:31:16:668
93,000000	0,000000	691,000000	0,000000	2020-10-29T19:31:16:707
93,000000	0,000000	691,000000	0,000000	2020-10-29T19:31:16:750
93,000000	0,000000	691,000000	0,000000	2020-10-29T19:31:16:788
93,000000	0,000000	691,000000	0,000000	2020-10-29T19:31:16:828
93,000000	0,000000	691,000000	0,000000	2020-10-29T19:31:16:869
93,000000	0,000000	691,000000	0,000000	2020-10-29T19:31:16:908
93,000000	0,000000	691,000000	0,000000	2020-10-29T19:31:16:948
93,000000	0,000000	691,000000	0,000000	2020-10-29T19:31:16:989
94,000000	0,000000	691,000000	0,000000	2020-10-29T19:31:17:028
94,000000	0,000000	691,000000	0,000000	2020-10-29T19:31:17:069
94,000000	0,000000	691,000000	0,000000	2020-10-29T19:31:17:108
94,000000	0,000000	691,000000	0,000000	2020-10-29T19:31:17:148
94,000000	0,000000	691,000000	0,000000	2020-10-29T19:31:17:188
94,000000	0,000000	691,000000	0,000000	2020-10-29T19:31:17:230
94,000000	0,000000	691,000000	0,000000	2020-10-29T19:31:17:269
95,000000	0,000000	691,000000	0,000000	2020-10-29T19:31:17:308
95,000000	0,000000	691,000000	0,000000	2020-10-29T19:31:17:348
94,000000	0,000000	691,000000	0,000000	2020-10-29T19:31:17:388
94,000000	0,000000	691,000000	0,000000	2020-10-29T19:31:17:428
95,000000	0,000000	691,000000	0,000000	2020-10-29T19:31:17:472
95,000000	0,000000	691,000000	0,000000	2020-10-29T19:31:17:508
95,000000	0,000000	691,000000	0,000000	2020-10-29T19:31:17:548
95,000000	0,000000	691,000000	0,000000	2020-10-29T19:31:17:588
95,000000	0,000000	691,000000	0,000000	2020-10-29T19:31:17:628
95,000000	0,000000	691,000000	0,000000	2020-10-29T19:31:17:669
95,000000	0,000000	691,000000	0,000000	2020-10-29T19:31:17:710
95,000000	0,000000	691,000000	0,000000	2020-10-29T19:31:17:748
95,000000	0,000000	691,000000	0,000000	2020-10-29T19:31:17:789
95,000000	0,000000	691,000000	0,000000	2020-10-29T19:31:17:828
95,000000	0,000000	691,000000	0,000000	2020-10-29T19:31:17:869
95,000000	0,000000	691,000000	0,000000	2020-10-29T19:31:17:909
95,000000	0,000000	691,000000	0,000000	2020-10-29T19:31:17:950
95,000000	0,000000	691,000000	0,000000	2020-10-29T19:31:17:989
95,000000	0,000000	691,000000	0,000000	2020-10-29T19:31:18:029
96,000000	0,000000	691,000000	0,000000	2020-10-29T19:31:18:070
96,000000	0,000000	691,000000	0,000000	2020-10-29T19:31:18:110
96,000000	0,000000	691,000000	0,000000	2020-10-29T19:31:18:149
96,000000	0,000000	691,000000	0,000000	2020-10-29T19:31:18:191
95,000000	0,000000	691,000000	0,000000	2020-10-29T19:31:18:229
96,000000	0,000000	691,000000	0,000000	2020-10-29T19:31:18:271
96,000000	0,000000	691,000000	0,000000	2020-10-29T19:31:18:309
95,000000	0,000000	605,000000	0,000000	2020-10-29T19:31:18:350
95,000000	0,000000	605,000000	0,000000	2020-10-29T19:31:18:389
95,000000	0,000000	605,000000	0,000000	2020-10-29T19:31:18:432
95,000000	0,000000	605,000000	0,000000	2020-10-29T19:31:18:470
95,000000	0,000000	605,000000	0,000000	2020-10-29T19:31:18:510
95,000000	0,000000	605,000000	0,000000	2020-10-29T19:31:18:549
95,000000	0,000000	605,000000	0,000000	2020-10-29T19:31:18:589
95,000000	0,000000	605,000000	0,000000	2020-10-29T19:31:18:629
95,000000	0,000000	605,000000	0,000000	2020-10-29T19:31:18:673
95,000000	0,000000	605,000000	0,000000	2020-10-29T19:31:18:709
94,000000	0,000000	605,000000	0,000000	2020-10-29T19:31:18:750
94,000000	0,000000	605,000000	0,000000	2020-10-29T19:31:18:791
94,000000	0,000000	605,000000	0,000000	2020-10-29T19:31:18:830
95,000000	0,000000	605,000000	0,000000	2020-10-29T19:31:18:870
95,000000	0,000000	605,000000	0,000000	2020-10-29T19:31:18:912
94,000000	0,000000	605,000000	0,000000	2020-10-29T19:31:18:950
94,000000	0,000000	605,000000	0,000000	2020-10-29T19:31:18:992
95,000000	0,000000	605,000000	0,000000	2020-10-29T19:31:19:030
-10,000000	0,000000	605,000000	0,000000	2020-10-29T19:31:19:071
94,000000	0,000000	605,000000	0,000000	2020-10-29T19:31:19:110
94,000000	0,000000	605,000000	0,000000	2020-10-29T19:31:19:154
94,000000	0,000000	605,000000	0,000000	2020-10-29T19:31:19:190
94,000000	0,000000	605,000000	0,000000	2020-10-29T19:31:19:230
94,000000	0,000000	605,000000	0,000000	2020-10-29T19:31:19:270
94,000000	0,000000	605,000000	0,000000	2020-10-29T19:31:19:311
94,000000	0,000000	605,000000	0,000000	2020-10-29T19:31:19:349
94,000000	0,000000	605,000000	0,000000	2020-10-29T19:31:19:393
94,000000	0,000000	605,000000	0,000000	2020-10-29T19:31:19:430
93,000000	0,000000	605,000000	0,000000	2020-10-29T19:31:19:471
93,000000	0,000000	605,000000	0,000000	2020-10-29T19:31:19:510
93,000000	0,000000	605,000000	0,000000	2020-10-29T19:31:19:550
93,000000	0,000000	605,000000	0,000000	2020-10-29T19:31:19:590
93,000000	0,000000	605,000000	0,000000	2020-10-29T19:31:19:633
93,000000	0,000000	605,000000	0,000000	2020-10-29T19:31:19:670
93,000000	0,000000	605,000000	0,000000	2020-10-29T19:31:19:711
93,000000	0,000000	605,000000	0,000000	2020-10-29T19:31:19:750
93,000000	0,000000	605,000000	0,000000	2020-10-29T19:31:19:791
92,000000	0,000000	605,000000	0,000000	2020-10-29T19:31:19:830
93,000000	0,000000	605,000000	0,000000	2020-10-29T19:31:19:874
93,000000	0,000000	605,000000	0,000000	2020-10-29T19:31:19:910
93,000000	0,000000	718,000000	0,000000	2020-10-29T19:31:19:952
93,000000	0,000000	718,000000	0,000000	2020-10-29T19:31:19:990
93,000000	0,000000	718,000000	0,000000	2020-10-29T19:31:20:032
93,000000	0,000000	718,000000	0,000000	2020-10-29T19:31:20:071
92,000000	0,000000	718,000000	0,000000	2020-10-29T19:31:20:113
92,000000	0,000000	718,000000	0,000000	2020-10-29T19:31:20:152
92,000000	0,000000	718,000000	0,000000	2020-10-29T19:31:20:192
93,000000	0,000000	718,000000	0,000000	2020-10-29T19:31:20:231
93,000000	0,000000	718,000000	0,000000	2020-10-29T19:31:20:272
92,000000	0,000000	718,000000	0,000000	2020-10-29T19:31:20:311
92,000000	0,000000	718,000000	0,000000	2020-10-29T19:31:20:353
92,000000	0,000000	718,000000	0,000000	2020-10-29T19:31:20:391
92,000000	0,000000	718,000000	0,000000	2020-10-29T19:31:20:431
92,000000	0,000000	718,000000	0,000000	2020-10-29T19:31:20:472
93,000000	0,000000	718,000000	0,000000	2020-10-29T19:31:20:511
93,000000	0,000000	718,000000	0,000000	2020-10-29T19:31:20:551
93,000000	0,000000	718,000000	0,000000	2020-10-29T19:31:20:593
93,000000	0,000000	718,000000	0,000000	2020-10-29T19:31:20:631
93,000000	0,000000	718,000000	0,000000	2020-10-29T19:31:20:672
93,000000	0,000000	718,000000	0,000000	2020-10-29T19:31:20:712
93,000000	0,000000	718,000000	0,000000	2020-10-29T19:31:20:752
94,000000	0,000000	718,000000	0,000000	2020-10-29T19:31:20:791
93,000000	0,000000	718,000000	0,000000	2020-10-29T19:31:20:834
93,000000	0,000000	718,000000	0,000000	2020-10-29T19:31:20:872
93,000000	0,000000	718,000000	0,000000	2020-10-29T19:31:20:912
93,000000	0,000000	718,000000	0,000000	2020-10-29T19:31:20:951
93,000000	0,000000	718,000000	0,000000	2020-10-29T19:31:20:992
93,000000	0,000000	718,000000	0,000000	2020-10-29T19:31:21:032
93,000000	0,000000	718,000000	0,000000	2020-10-29T19:31:21:075
93,000000	0,000000	718,000000	0,000000	2020-10-29T19:31:21:111
93,000000	0,000000	718,000000	0,000000	2020-10-29T19:31:21:152
93,000000	0,000000	718,000000	0,000000	2020-10-29T19:31:21:192
93,000000	0,000000	718,000000	0,000000	2020-10-29T19:31:21:232
93,000000	0,000000	718,000000	0,000000	2020-10-29T19:31:21:272
93,000000	0,000000	718,000000	0,000000	2020-10-29T19:31:21:314
93,000000	0,000000	718,000000	0,000000	2020-10-29T19:31:21:352
93,000000	0,000000	718,000000	0,000000	2020-10-29T19:31:21:393
93,000000	0,000000	718,000000	0,000000	2020-10-29T19:31:21:432
92,000000	0,000000	718,000000	0,000000	2020-10-29T19:31:21:474
92,000000	0,000000	718,000000	0,000000	2020-10-29T19:31:21:512
92,000000	0,000000	718,000000	0,000000	2020-10-29T19:31:21:555
92,000000	0,000000	718,000000	0,000000	2020-10-29T19:31:21:592
92,000000	0,000000	718,000000	0,000000	2020-10-29T19:31:21:632
92,000000	0,000000	718,000000	0,000000	2020-10-29T19:31:21:673
92,000000	0,000000	718,000000	0,000000	2020-10-29T19:31:21:713
92,000000	0,000000	718,000000	0,000000	2020-10-29T19:31:21:752
92,000000	0,000000	718,000000	0,000000	2020-10-29T19:31:21:795
92,000000	0,000000	718,000000	0,000000	2020-10-29T19:31:21:832
92,000000	0,000000	718,000000	0,000000	2020-10-29T19:31:21:873
92,000000	0,000000	718,000000	0,000000	2020-10-29T19:31:21:912
92,000000	0,000000	718,000000	0,000000	2020-10-29T19:31:21:953
92,000000	0,000000	718,000000	0,000000	2020-10-29T19:31:21:992
92,000000	0,000000	718,000000	0,000000	2020-10-29T19:31:22:035
92,000000	0,000000	718,000000	0,000000	2020-10-29T19:31:22:073
92,000000	0,000000	718,000000	0,000000	2020-10-29T19:31:22:113
92,000000	0,000000	718,000000	0,000000	2020-10-29T19:31:22:153
92,000000	0,000000	718,000000	0,000000	2020-10-29T19:31:22:194
92,000000	0,000000	718,000000	0,000000	2020-10-29T19:31:22:232
92,000000	0,000000	718,000000	0,000000	2020-10-29T19:31:22:276
92,000000	0,000000	718,000000	0,000000	2020-10-29T19:31:22:313
-10,000000	0,000000	718,000000	0,000000	2020-10-29T19:31:22:354
-10,000000	0,000000	718,000000	0,000000	2020-10-29T19:31:22:393
92,000000	0,000000	718,000000	0,000000	2020-10-29T19:31:22:434
92,000000	0,000000	718,000000	0,000000	2020-10-29T19:31:22:474
92,000000	0,000000	718,000000	0,000000	2020-10-29T19:31:22:515
92,000000	0,000000	718,000000	0,000000	2020-10-29T19:31:22:552
92,000000	0,000000	718,000000	0,000000	2020-10-29T19:31:22:594
92,000000	0,000000	718,000000	0,000000	2020-10-29T19:31:22:633
92,000000	0,000000	718,000000	0,000000	2020-10-29T19:31:22:674
92,000000	0,000000	718,000000	0,000000	2020-10-29T19:31:22:713
92,000000	0,000000	718,000000	0,000000	2020-10-29T19:31:22:756
92,000000	0,000000	718,000000	0,000000	2020-10-29T19:31:22:793
92,000000	0,000000	718,000000	0,000000	2020-10-29T19:31:22:834
92,000000	0,000000	718,000000	0,000000	2020-10-29T19:31:22:874
92,000000	0,000000	718,000000	0,000000	2020-10-29T19:31:22:914
92,000000	0,000000	718,000000	0,000000	2020-10-29T19:31:22:953
92,000000	0,000000	718,000000	0,000000	2020-10-29T19:31:22:996
92,000000	0,000000	718,000000	0,000000	2020-10-29T19:31:23:033
92,000000	0,000000	718,000000	0,000000	2020-10-29T19:31:23:075
92,000000	0,000000	718,000000	0,000000	2020-10-29T19:31:23:114
92,000000	0,000000	718,000000	0,000000	2020-10-29T19:31:23:154
92,000000	0,000000	718,000000	0,000000	2020-10-29T19:31:23:194
92,000000	0,000000	718,000000	0,000000	2020-10-29T19:31:23:235
92,000000	0,000000	718,000000	0,000000	2020-10-29T19:31:23:274
92,000000	0,000000	718,000000	0,000000	2020-10-29T19:31:23:314
92,000000	0,000000	718,000000	0,000000	2020-10-29T19:31:23:354
92,000000	0,000000	718,000000	0,000000	2020-10-29T19:31:23:394
92,000000	0,000000	718,000000	0,000000	2020-10-29T19:31:23:434
93,000000	0,000000	718,000000	0,000000	2020-10-29T19:31:23:478
92,000000	0,000000	718,000000	0,000000	2020-10-29T19:31:23:514
92,000000	0,000000	718,000000	0,000000	2020-10-29T19:31:23:555
92,000000	0,000000	718,000000	0,000000	2020-10-29T19:31:23:593
92,000000	0,000000	718,000000	0,000000	2020-10-29T19:31:23:635
92,000000	0,000000	718,000000	0,000000	2020-10-29T19:31:23:674
92,000000	0,000000	718,000000	0,000000	2020-10-29T19:31:23:717
93,000000	0,000000	718,000000	0,000000	2020-10-29T19:31:23:754
93,000000	0,000000	718,000000	0,000000	2020-10-29T19:31:23:795
93,000000	0,000000	718,000000	0,000000	2020-10-29T19:31:23:834
93,000000	0,000000	718,000000	0,000000	2020-10-29T19:31:23:876
93,000000	0,000000	718,000000	0,000000	2020-10-29T19:31:23:915
93,000000	0,000000	718,000000	0,000000	2020-10-29T19:31:23:957
93,000000	0,000000	718,000000	0,000000	2020-10-29T19:31:23:994
93,000000	0,000000	718,000000	0,000000	2020-10-29T19:31:24:037
93,000000	0,000000	718,000000	0,000000	2020-10-29T19:31:24:075
93,000000	0,000000	718,000000	0,000000	2020-10-29T19:31:24:116
93,000000	0,000000	718,000000	0,000000	2020-10-29T19:31:24:159
93,000000	0,000000	718,000000	0,000000	2020-10-29T19:31:24:197
93,000000	0,000000	718,000000	0,000000	2020-10-29T19:31:24:235
93,000000	0,000000	718,000000	0,000000	2020-10-29T19:31:24:276
93,000000	0,000000	718,000000	0,000000	2020-10-29T19:31:24:315
93,000000	0,000000	718,000000	0,000000	2020-10-29T19:31:24:354
93,000000	0,000000	718,000000	0,000000	2020-10-29T19:31:24:395
93,000000	0,000000	718,000000	0,000000	2020-10-29T19:31:24:437
93,000000	0,000000	718,000000	0,000000	2020-10-29T19:31:24:475
93,000000	0,000000	718,000000	0,000000	2020-10-29T19:31:24:516
93,000000	0,000000	718,000000	0,000000	2020-10-29T19:31:24:555
93,000000	0,000000	718,000000	0,000000	2020-10-29T19:31:24:596
93,000000	0,000000	718,000000	0,000000	2020-10-29T19:31:24:635
93,000000	0,000000	718,000000	0,000000	2020-10-29T19:31:24:677
93,000000	0,000000	718,000000	0,000000	2020-10-29T19:31:24:715
93,000000	0,000000	718,000000	0,000000	2020-10-29T19:31:24:756
93,000000	0,000000	718,000000	0,000000	2020-10-29T19:31:24:795
93,000000	0,000000	718,000000	0,000000	2020-10-29T19:31:24:836
93,000000	0,000000	718,000000	0,000000	2020-10-29T19:31:24:876
93,000000	0,000000	718,000000	0,000000	2020-10-29T19:31:24:918
93,000000	0,000000	718,000000	0,000000	2020-10-29T19:31:24:955
93,000000	0,000000	718,000000	0,000000	2020-10-29T19:31:24:996
93,000000	0,000000	718,000000	0,000000	2020-10-29T19:31:25:035
93,000000	0,000000	718,000000	0,000000	2020-10-29T19:31:25:077
93,000000	0,000000	718,000000	0,000000	2020-10-29T19:31:25:116
93,000000	0,000000	718,000000	0,000000	2020-10-29T19:31:25:159
93,000000	0,000000	718,000000	0,000000	2020-10-29T19:31:25:196
93,000000	0,000000	718,000000	0,000000	2020-10-29T19:31:25:237
93,000000	0,000000	718,000000	0,000000	2020-10-29T19:31:25:276
93,000000	0,000000	718,000000	0,000000	2020-10-29T19:31:25:317
92,000000	0,000000	718,000000	0,000000	2020-10-29T19:31:25:356
93,000000	0,000000	718,000000	0,000000	2020-10-29T19:31:25:399
93,000000	0,000000	718,000000	0,000000	2020-10-29T19:31:25:435
93,000000	0,000000	718,000000	0,000000	2020-10-29T19:31:25:478
93,000000	0,000000	718,000000	0,000000	2020-10-29T19:31:25:517
93,000000	0,000000	718,000000	0,000000	2020-10-29T19:31:25:557
93,000000	0,000000	718,000000	0,000000	2020-10-29T19:31:25:596
93,000000	0,000000	718,000000	0,000000	2020-10-29T19:31:25:639
93,000000	0,000000	718,000000	0,000000	2020-10-29T19:31:25:677
93,000000	0,000000	718,000000	0,000000	2020-10-29T19:31:25:718
93,000000	0,000000	718,000000	0,000000	2020-10-29T19:31:25:756
93,000000	0,000000	718,000000	0,000000	2020-10-29T19:31:25:797
93,000000	0,000000	718,000000	0,000000	2020-10-29T19:31:25:836
93,000000	0,000000	718,000000	0,000000	2020-10-29T19:31:25:878
93,000000	0,000000	718,000000	0,000000	2020-10-29T19:31:25:916
93,000000	0,000000	718,000000	0,000000	2020-10-29T19:31:25:957
93,000000	0,000000	718,000000	0,000000	2020-10-29T19:31:25:997
93,000000	0,000000	718,000000	0,000000	2020-10-29T19:31:26:037
93,000000	0,000000	718,000000	0,000000	2020-10-29T19:31:26:077
93,000000	0,000000	718,000000	0,000000	2020-10-29T19:31:26:118
93,000000	0,000000	718,000000	0,000000	2020-10-29T19:31:26:156
93,000000	0,000000	718,000000	0,000000	2020-10-29T19:31:26:198
93,000000	0,000000	718,000000	0,000000	2020-10-29T19:31:26:236
93,000000	0,000000	718,000000	0,000000	2020-10-29T19:31:26:279
93,000000	0,000000	718,000000	0,000000	2020-10-29T19:31:26:317
94,000000	0,000000	718,000000	0,000000	2020-10-29T19:31:26:359
94,000000	0,000000	718,000000	0,000000	2020-10-29T19:31:26:397
93,000000	0,000000	718,000000	0,000000	2020-10-29T19:31:26:438
93,000000	0,000000	718,000000	0,000000	2020-10-29T19:31:26:477
94,000000	0,000000	718,000000	0,000000	2020-10-29T19:31:26:518
94,000000	0,000000	718,000000	0,000000	2020-10-29T19:31:26:557
94,000000	0,000000	718,000000	0,000000	2020-10-29T19:31:26:600
94,000000	0,000000	718,000000	0,000000	2020-10-29T19:31:26:637
94,000000	0,000000	718,000000	0,000000	2020-10-29T19:31:26:678
94,000000	0,000000	718,000000	0,000000	2020-10-29T19:31:26:717
94,000000	0,000000	718,000000	0,000000	2020-10-29T19:31:26:758
94,000000	0,000000	718,000000	0,000000	2020-10-29T19:31:26:798
94,000000	0,000000	718,000000	0,000000	2020-10-29T19:31:26:840
93,000000	0,000000	718,000000	0,000000	2020-10-29T19:31:26:879
93,000000	0,000000	718,000000	0,000000	2020-10-29T19:31:26:918
93,000000	0,000000	718,000000	0,000000	2020-10-29T19:31:26:958
94,000000	0,000000	718,000000	0,000000	2020-10-29T19:31:26:998
93,000000	0,000000	718,000000	0,000000	2020-10-29T19:31:27:038
93,000000	0,000000	718,000000	0,000000	2020-10-29T19:31:27:082
93,000000	0,000000	718,000000	0,000000	2020-10-29T19:31:27:117
93,000000	0,000000	718,000000	0,000000	2020-10-29T19:31:27:160
94,000000	0,000000	718,000000	0,000000	2020-10-29T19:31:27:199
93,000000	0,000000	718,000000	0,000000	2020-10-29T19:31:27:240
93,000000	0,000000	718,000000	0,000000	2020-10-29T19:31:27:279
93,000000	0,000000	718,000000	0,000000	2020-10-29T19:31:27:319
93,000000	0,000000	718,000000	0,000000	2020-10-29T19:31:27:358
93,000000	0,000000	718,000000	0,000000	2020-10-29T19:31:27:400
93,000000	0,000000	718,000000	0,000000	2020-10-29T19:31:27:439
93,000000	0,000000	718,000000	0,000000	2020-10-29T19:31:27:479
93,000000	0,000000	718,000000	0,000000	2020-10-29T19:31:27:518
93,000000	0,000000	718,000000	0,000000	2020-10-29T19:31:27:561
93,000000	0,000000	718,000000	0,000000	2020-10-29T19:31:27:599
93,000000	0,000000	718,000000	0,000000	2020-10-29T19:31:27:639
93,000000	0,000000	718,000000	0,000000	2020-10-29T19:31:27:679
93,000000	0,000000	718,000000	0,000000	2020-10-29T19:31:27:719
93,000000	0,000000	718,000000	0,000000	2020-10-29T19:31:27:758
93,000000	0,000000	718,000000	0,000000	2020-10-29T19:31:27:801
93,000000	0,000000	718,000000	0,000000	2020-10-29T19:31:27:838
93,000000	0,000000	718,000000	0,000000	2020-10-29T19:31:27:880
93,000000	0,000000	718,000000	0,000000	2020-10-29T19:31:27:919
93,000000	0,000000	718,000000	0,000000	2020-10-29T19:31:27:959
93,000000	0,000000	718,000000	0,000000	2020-10-29T19:31:27:999
93,000000	0,000000	718,000000	0,000000	2020-10-29T19:31:28:041
93,000000	0,000000	718,000000	0,000000	2020-10-29T19:31:28:078
93,000000	0,000000	718,000000	0,000000	2020-10-29T19:31:28:120
93,000000	0,000000	718,000000	0,000000	2020-10-29T19:31:28:159
93,000000	0,000000	718,000000	0,000000	2020-10-29T19:31:28:199
93,000000	0,000000	718,000000	0,000000	2020-10-29T19:31:28:238
93,000000	0,000000	718,000000	0,000000	2020-10-29T19:31:28:282
93,000000	0,000000	718,000000	0,000000	2020-10-29T19:31:28:319
93,000000	0,000000	718,000000	0,000000	2020-10-29T19:31:28:360
93,000000	0,000000	718,000000	0,000000	2020-10-29T19:31:28:399
93,000000	0,000000	718,000000	0,000000	2020-10-29T19:31:28:440
93,000000	0,000000	718,000000	0,000000	2020-10-29T19:31:28:479
93,000000	0,000000	718,000000	0,000000	2020-10-29T19:31:28:523
93,000000	0,000000	718,000000	0,000000	2020-10-29T19:31:28:559
93,000000	0,000000	718,000000	0,000000	2020-10-29T19:31:28:600
93,000000	0,000000	718,000000	0,000000	2020-10-29T19:31:28:639
93,000000	0,000000	718,000000	0,000000	2020-10-29T19:31:28:681
93,000000	0,000000	718,000000	0,000000	2020-10-29T19:31:28:719
93,000000	0,000000	635,000000	0,000000	2020-10-29T19:31:28:760
93,000000	0,000000	635,000000	0,000000	2020-10-29T19:31:28:800
93,000000	0,000000	635,000000	0,000000	2020-10-29T19:31:28:840
93,000000	0,000000	635,000000	0,000000	2020-10-29T19:31:28:880
93,000000	0,000000	635,000000	0,000000	2020-10-29T19:31:28:920
93,000000	0,000000	635,000000	0,000000	2020-10-29T19:31:28:959
93,000000	0,000000	635,000000	0,000000	2020-10-29T19:31:29:012
93,000000	0,000000	635,000000	0,000000	2020-10-29T19:31:29:041
93,000000	0,000000	635,000000	0,000000	2020-10-29T19:31:29:081
93,000000	0,000000	635,000000	0,000000	2020-10-29T19:31:29:120
93,000000	0,000000	635,000000	0,000000	2020-10-29T19:31:29:160
93,000000	0,000000	635,000000	0,000000	2020-10-29T19:31:29:200
93,000000	0,000000	635,000000	0,000000	2020-10-29T19:31:29:243
93,000000	0,000000	635,000000	0,000000	2020-10-29T19:31:29:280
93,000000	0,000000	635,000000	0,000000	2020-10-29T19:31:29:321
93,000000	0,000000	635,000000	0,000000	2020-10-29T19:31:29:360
93,000000	0,000000	635,000000	0,000000	2020-10-29T19:31:29:401
92,000000	0,000000	635,000000	0,000000	2020-10-29T19:31:29:440
92,000000	0,000000	635,000000	0,000000	2020-10-29T19:31:29:484
92,000000	0,000000	635,000000	0,000000	2020-10-29T19:31:29:520
93,000000	0,000000	635,000000	0,000000	2020-10-29T19:31:29:561
92,000000	0,000000	635,000000	0,000000	2020-10-29T19:31:29:599
92,000000	0,000000	635,000000	0,000000	2020-10-29T19:31:29:640
92,000000	0,000000	635,000000	0,000000	2020-10-29T19:31:29:681
92,000000	0,000000	635,000000	0,000000	2020-10-29T19:31:29:722
92,000000	0,000000	635,000000	0,000000	2020-10-29T19:31:29:760
92,000000	0,000000	635,000000	0,000000	2020-10-29T19:31:29:800
92,000000	0,000000	635,000000	0,000000	2020-10-29T19:31:29:840
92,000000	0,000000	635,000000	0,000000	2020-10-29T19:31:29:881
92,000000	0,000000	635,000000	0,000000	2020-10-29T19:31:29:920
92,000000	0,000000	635,000000	0,000000	2020-10-29T19:31:29:963
92,000000	0,000000	635,000000	0,000000	2020-10-29T19:31:30:000
92,000000	0,000000	635,000000	0,000000	2020-10-29T19:31:30:041
92,000000	0,000000	635,000000	0,000000	2020-10-29T19:31:30:081
92,000000	0,000000	635,000000	0,000000	2020-10-29T19:31:30:121
92,000000	0,000000	635,000000	0,000000	2020-10-29T19:31:30:160
92,000000	0,000000	635,000000	0,000000	2020-10-29T19:31:30:203
93,000000	0,000000	635,000000	0,000000	2020-10-29T19:31:30:240
93,000000	0,000000	635,000000	0,000000	2020-10-29T19:31:30:281
92,000000	0,000000	635,000000	0,000000	2020-10-29T19:31:30:321
92,000000	0,000000	635,000000	0,000000	2020-10-29T19:31:30:361
93,000000	0,000000	635,000000	0,000000	2020-10-29T19:31:30:401
93,000000	0,000000	635,000000	0,000000	2020-10-29T19:31:30:446
93,000000	0,000000	635,000000	0,000000	2020-10-29T19:31:30:481
93,000000	0,000000	635,000000	0,000000	2020-10-29T19:31:30:522
93,000000	0,000000	635,000000	0,000000	2020-10-29T19:31:30:561
93,000000	0,000000	635,000000	0,000000	2020-10-29T19:31:30:602
93,000000	0,000000	635,000000	0,000000	2020-10-29T19:31:30:642
93,000000	0,000000	635,000000	0,000000	2020-10-29T19:31:30:684
93,000000	0,000000	635,000000	0,000000	2020-10-29T19:31:30:720
94,000000	0,000000	635,000000	0,000000	2020-10-29T19:31:30:762
93,000000	0,000000	635,000000	0,000000	2020-10-29T19:31:30:801
93,000000	0,000000	635,000000	0,000000	2020-10-29T19:31:30:842
93,000000	0,000000	635,000000	0,000000	2020-10-29T19:31:30:882
94,000000	0,000000	635,000000	0,000000	2020-10-29T19:31:30:924
93,000000	0,000000	635,000000	0,000000	2020-10-29T19:31:30:961
94,000000	0,000000	635,000000	0,000000	2020-10-29T19:31:31:003
94,000000	0,000000	635,000000	0,000000	2020-10-29T19:31:31:041
94,000000	0,000000	635,000000	0,000000	2020-10-29T19:31:31:083
94,000000	0,000000	635,000000	0,000000	2020-10-29T19:31:31:122
94,000000	0,000000	624,000000	0,000000	2020-10-29T19:31:31:164
94,000000	0,000000	624,000000	0,000000	2020-10-29T19:31:31:201
94,000000	0,000000	624,000000	0,000000	2020-10-29T19:31:31:242
94,000000	0,000000	624,000000	0,000000	2020-10-29T19:31:31:282
94,000000	0,000000	624,000000	0,000000	2020-10-29T19:31:31:322
94,000000	0,000000	624,000000	0,000000	2020-10-29T19:31:31:362
-10,000000	0,000000	624,000000	0,000000	2020-10-29T19:31:31:404
-10,000000	0,000000	624,000000	0,000000	2020-10-29T19:31:31:442
-10,000000	0,000000	624,000000	0,000000	2020-10-29T19:31:31:484
-10,000000	0,000000	624,000000	0,000000	2020-10-29T19:31:31:522
-10,000000	0,000000	624,000000	0,000000	2020-10-29T19:31:31:562
-10,000000	0,000000	624,000000	0,000000	2020-10-29T19:31:31:601
-10,000000	0,000000	624,000000	0,000000	2020-10-29T19:31:31:646
-10,000000	0,000000	624,000000	0,000000	2020-10-29T19:31:31:683
-10,000000	0,000000	624,000000	0,000000	2020-10-29T19:31:31:723
94,000000	0,000000	618,000000	0,000000	2020-10-29T19:31:31:762
-10,000000	0,000000	618,000000	0,000000	2020-10-29T19:31:31:802
-10,000000	0,000000	618,000000	0,000000	2020-10-29T19:31:31:843
-10,000000	0,000000	618,000000	0,000000	2020-10-29T19:31:31:885
-10,000000	0,000000	618,000000	0,000000	2020-10-29T19:31:31:922
-10,000000	0,000000	618,000000	0,000000	2020-10-29T19:31:31:963
-10,000000	0,000000	618,000000	0,000000	2020-10-29T19:31:32:002
-10,000000	0,000000	618,000000	0,000000	2020-10-29T19:31:32:043
94,000000	0,000000	618,000000	0,000000	2020-10-29T19:31:32:083
94,000000	0,000000	618,000000	0,000000	2020-10-29T19:31:32:123
-10,000000	0,000000	618,000000	0,000000	2020-10-29T19:31:32:162
94,000000	0,000000	618,000000	0,000000	2020-10-29T19:31:32:203
94,000000	0,000000	618,000000	0,000000	2020-10-29T19:31:32:243
94,000000	0,000000	618,000000	0,000000	2020-10-29T19:31:32:284
93,000000	0,000000	618,000000	0,000000	2020-10-29T19:31:32:323
93,000000	0,000000	618,000000	0,000000	2020-10-29T19:31:32:365
93,000000	0,000000	618,000000	0,000000	2020-10-29T19:31:32:403
93,000000	0,000000	618,000000	0,000000	2020-10-29T19:31:32:444
93,000000	0,000000	618,000000	0,000000	2020-10-29T19:31:32:484
93,000000	0,000000	618,000000	0,000000	2020-10-29T19:31:32:523
93,000000	0,000000	591,000000	0,000000	2020-10-29T19:31:32:563
93,000000	0,000000	591,000000	0,000000	2020-10-29T19:31:32:605
93,000000	0,000000	591,000000	0,000000	2020-10-29T19:31:32:643
94,000000	0,000000	591,000000	0,000000	2020-10-29T19:31:32:685
94,000000	0,000000	591,000000	0,000000	2020-10-29T19:31:32:723
94,000000	0,000000	591,000000	0,000000	2020-10-29T19:31:32:764
94,000000	0,000000	591,000000	0,000000	2020-10-29T19:31:32:803
94,000000	0,000000	591,000000	0,000000	2020-10-29T19:31:32:846
94,000000	0,000000	591,000000	0,000000	2020-10-29T19:31:32:884
94,000000	0,000000	591,000000	0,000000	2020-10-29T19:31:32:924
94,000000	0,000000	591,000000	0,000000	2020-10-29T19:31:32:963
94,000000	0,000000	591,000000	0,000000	2020-10-29T19:31:33:004
94,000000	0,000000	591,000000	0,000000	2020-10-29T19:31:33:043
94,000000	0,000000	591,000000	0,000000	2020-10-29T19:31:33:086
94,000000	0,000000	591,000000	0,000000	2020-10-29T19:31:33:123
94,000000	0,000000	591,000000	0,000000	2020-10-29T19:31:33:164
94,000000	0,000000	591,000000	0,000000	2020-10-29T19:31:33:204
94,000000	0,000000	591,000000	0,000000	2020-10-29T19:31:33:245
94,000000	0,000000	591,000000	0,000000	2020-10-29T19:31:33:284
94,000000	0,000000	591,000000	0,000000	2020-10-29T19:31:33:326
94,000000	0,000000	591,000000	0,000000	2020-10-29T19:31:33:363
94,000000	0,000000	591,000000	0,000000	2020-10-29T19:31:33:405
94,000000	0,000000	591,000000	0,000000	2020-10-29T19:31:33:444
94,000000	0,000000	591,000000	0,000000	2020-10-29T19:31:33:486
94,000000	0,000000	591,000000	0,000000	2020-10-29T19:31:33:524
94,000000	0,000000	591,000000	0,000000	2020-10-29T19:31:33:567
94,000000	0,000000	591,000000	0,000000	2020-10-29T19:31:33:603
94,000000	0,000000	591,000000	0,000000	2020-10-29T19:31:33:645
94,000000	0,000000	591,000000	0,000000	2020-10-29T19:31:33:685
94,000000	0,000000	591,000000	0,000000	2020-10-29T19:31:33:724
94,000000	0,000000	591,000000	0,000000	2020-10-29T19:31:33:764
94,000000	0,000000	591,000000	0,000000	2020-10-29T19:31:33:806
94,000000	0,000000	591,000000	0,000000	2020-10-29T19:31:33:844
94,000000	0,000000	591,000000	0,000000	2020-10-29T19:31:33:886
94,000000	0,000000	591,000000	0,000000	2020-10-29T19:31:33:925
94,000000	0,000000	591,000000	0,000000	2020-10-29T19:31:33:965
94,000000	0,000000	591,000000	0,000000	2020-10-29T19:31:34:004
94,000000	0,000000	591,000000	0,000000	2020-10-29T19:31:34:047
94,000000	0,000000	591,000000	0,000000	2020-10-29T19:31:34:084
95,000000	0,000000	591,000000	0,000000	2020-10-29T19:31:34:125
95,000000	0,000000	591,000000	0,000000	2020-10-29T19:31:34:167
95,000000	0,000000	591,000000	0,000000	2020-10-29T19:31:34:205
95,000000	0,000000	591,000000	0,000000	2020-10-29T19:31:34:244
95,000000	0,000000	591,000000	0,000000	2020-10-29T19:31:34:287
95,000000	0,000000	591,000000	0,000000	2020-10-29T19:31:34:324
95,000000	0,000000	591,000000	0,000000	2020-10-29T19:31:34:366
95,000000	0,000000	591,000000	0,000000	2020-10-29T19:31:34:405
95,000000	0,000000	591,000000	0,000000	2020-10-29T19:31:34:445
95,000000	0,000000	591,000000	0,000000	2020-10-29T19:31:34:485
95,000000	0,000000	591,000000	0,000000	2020-10-29T19:31:34:526
95,000000	0,000000	591,000000	0,000000	2020-10-29T19:31:34:565
95,000000	0,000000	591,000000	0,000000	2020-10-29T19:31:34:606
95,000000	0,000000	591,000000	0,000000	2020-10-29T19:31:34:644
95,000000	0,000000	591,000000	0,000000	2020-10-29T19:31:34:686
95,000000	0,000000	591,000000	0,000000	2020-10-29T19:31:34:725
95,000000	0,000000	591,000000	0,000000	2020-10-29T19:31:34:767
95,000000	0,000000	591,000000	0,000000	2020-10-29T19:31:34:805
95,000000	0,000000	591,000000	0,000000	2020-10-29T19:31:34:846
95,000000	0,000000	591,000000	0,000000	2020-10-29T19:31:34:886
95,000000	0,000000	591,000000	0,000000	2020-10-29T19:31:34:926
95,000000	0,000000	591,000000	0,000000	2020-10-29T19:31:34:965
95,000000	0,000000	591,000000	0,000000	2020-10-29T19:31:35:010
95,000000	0,000000	591,000000	0,000000	2020-10-29T19:31:35:044
95,000000	0,000000	591,000000	0,000000	2020-10-29T19:31:35:087
95,000000	0,000000	591,000000	0,000000	2020-10-29T19:31:35:126
95,000000	0,000000	591,000000	0,000000	2020-10-29T19:31:35:166
95,000000	0,000000	591,000000	0,000000	2020-10-29T19:31:35:206
-10,000000	0,000000	591,000000	0,000000	2020-10-29T19:31:35:248
-10,000000	0,000000	591,000000	0,000000	2020-10-29T19:31:35:286
-10,000000	0,000000	591,000000	0,000000	2020-10-29T19:31:35:326
-10,000000	0,000000	591,000000	0,000000	2020-10-29T19:31:35:366
-10,000000	0,000000	591,000000	0,000000	2020-10-29T19:31:35:406
-10,000000	0,000000	591,000000	0,000000	2020-10-29T19:31:35:446
-10,000000	0,000000	591,000000	0,000000	2020-10-29T19:31:35:489
-10,000000	0,000000	591,000000	0,000000	2020-10-29T19:31:35:526
-10,000000	0,000000	591,000000	0,000000	2020-10-29T19:31:35:566
-10,000000	0,000000	591,000000	0,000000	2020-10-29T19:31:35:606
-10,000000	0,000000	591,000000	0,000000	2020-10-29T19:31:35:646
-10,000000	0,000000	591,000000	0,000000	2020-10-29T19:31:35:686
-10,000000	0,000000	591,000000	0,000000	2020-10-29T19:31:35:729
-10,000000	0,000000	591,000000	0,000000	2020-10-29T19:31:35:766
-10,000000	0,000000	591,000000	0,000000	2020-10-29T19:31:35:807
-10,000000	0,000000	591,000000	0,000000	2020-10-29T19:31:35:845
-10,000000	0,000000	591,000000	0,000000	2020-10-29T19:31:35:888
-10,000000	0,000000	591,000000	0,000000	2020-10-29T19:31:35:926
-10,000000	0,000000	591,000000	0,000000	2020-10-29T19:31:35:967
-10,000000	0,000000	591,000000	0,000000	2020-10-29T19:31:36:006
-10,000000	0,000000	591,000000	0,000000	2020-10-29T19:31:36:047
-10,000000	0,000000	591,000000	0,000000	2020-10-29T19:31:36:087
-10,000000	0,000000	591,000000	0,000000	2020-10-29T19:31:36:127
95,000000	0,000000	531,000000	0,000000	2020-10-29T19:31:36:166
-10,000000	0,000000	531,000000	0,000000	2020-10-29T19:31:36:209
-10,000000	0,000000	531,000000	0,000000	2020-10-29T19:31:36:246
-10,000000	0,000000	531,000000	0,000000	2020-10-29T19:31:36:288
-10,000000	0,000000	531,000000	0,000000	2020-10-29T19:31:36:327
-10,000000	0,000000	531,000000	0,000000	2020-10-29T19:31:36:367
-10,000000	0,000000	531,000000	0,000000	2020-10-29T19:31:36:407
-10,000000	0,000000	531,000000	0,000000	2020-10-29T19:31:36:449
-10,000000	0,000000	531,000000	0,000000	2020-10-29T19:31:36:487
-10,000000	0,000000	531,000000	0,000000	2020-10-29T19:31:36:528
-10,000000	0,000000	531,000000	0,000000	2020-10-29T19:31:36:566
-10,000000	0,000000	531,000000	0,000000	2020-10-29T19:31:36:608
-10,000000	0,000000	531,000000	0,000000	2020-10-29T19:31:36:647
-10,000000	0,000000	531,000000	0,000000	2020-10-29T19:31:36:690
-10,000000	0,000000	531,000000	0,000000	2020-10-29T19:31:36:727
-10,000000	0,000000	531,000000	0,000000	2020-10-29T19:31:36:768
-10,000000	0,000000	531,000000	0,000000	2020-10-29T19:31:36:807
-10,000000	0,000000	531,000000	0,000000	2020-10-29T19:31:36:848
-10,000000	0,000000	531,000000	0,000000	2020-10-29T19:31:36:888
-10,000000	0,000000	531,000000	0,000000	2020-10-29T19:31:36:929
-10,000000	0,000000	531,000000	0,000000	2020-10-29T19:31:36:967
94,000000	0,000000	531,000000	0,000000	2020-10-29T19:31:37:009
94,000000	0,000000	531,000000	0,000000	2020-10-29T19:31:37:047
94,000000	0,000000	531,000000	0,000000	2020-10-29T19:31:37:089
94,000000	0,000000	531,000000	0,000000	2020-10-29T19:31:37:128
94,000000	0,000000	531,000000	0,000000	2020-10-29T19:31:37:171
94,000000	0,000000	531,000000	0,000000	2020-10-29T19:31:37:208
94,000000	0,000000	531,000000	0,000000	2020-10-29T19:31:37:248
-10,000000	0,000000	531,000000	0,000000	2020-10-29T19:31:37:288
-10,000000	0,000000	531,000000	0,000000	2020-10-29T19:31:37:328
-10,000000	0,000000	531,000000	0,000000	2020-10-29T19:31:37:368
-10,000000	0,000000	531,000000	0,000000	2020-10-29T19:31:37:411
-10,000000	0,000000	531,000000	0,000000	2020-10-29T19:31:37:447
-10,000000	0,000000	531,000000	0,000000	2020-10-29T19:31:37:490
-10,000000	0,000000	531,000000	0,000000	2020-10-29T19:31:37:527
-10,000000	0,000000	531,000000	0,000000	2020-10-29T19:31:37:568
-10,000000	0,000000	531,000000	0,000000	2020-10-29T19:31:37:608
-10,000000	0,000000	531,000000	0,000000	2020-10-29T19:31:37:650
-10,000000	0,000000	531,000000	0,000000	2020-10-29T19:31:37:688
-10,000000	0,000000	531,000000	0,000000	2020-10-29T19:31:37:729
-10,000000	0,000000	531,000000	0,000000	2020-10-29T19:31:37:767
-10,000000	0,000000	531,000000	0,000000	2020-10-29T19:31:37:808
-10,000000	0,000000	531,000000	0,000000	2020-10-29T19:31:37:847
-10,000000	0,000000	531,000000	0,000000	2020-10-29T19:31:37:891
-10,000000	0,000000	531,000000	0,000000	2020-10-29T19:31:37:928
-10,000000	0,000000	531,000000	0,000000	2020-10-29T19:31:37:969
-10,000000	0,000000	531,000000	0,000000	2020-10-29T19:31:38:009
-10,000000	0,000000	531,000000	0,000000	2020-10-29T19:31:38:049
-10,000000	0,000000	531,000000	0,000000	2020-10-29T19:31:38:089
-10,000000	0,000000	531,000000	0,000000	2020-10-29T19:31:38:131
-10,000000	0,000000	531,000000	0,000000	2020-10-29T19:31:38:168
-10,000000	0,000000	531,000000	0,000000	2020-10-29T19:31:38:209
-10,000000	0,000000	531,000000	0,000000	2020-10-29T19:31:38:248
-10,000000	0,000000	531,000000	0,000000	2020-10-29T19:31:38:290
-10,000000	0,000000	531,000000	0,000000	2020-10-29T19:31:38:328
-10,000000	0,000000	531,000000	0,000000	2020-10-29T19:31:38:371
-10,000000	0,000000	531,000000	0,000000	2020-10-29T19:31:38:408
-10,000000	0,000000	531,000000	0,000000	2020-10-29T19:31:38:449
-10,000000	0,000000	531,000000	0,000000	2020-10-29T19:31:38:489
-10,000000	0,000000	531,000000	0,000000	2020-10-29T19:31:38:529
-10,000000	0,000000	531,000000	0,000000	2020-10-29T19:31:38:569
-10,000000	0,000000	531,000000	0,000000	2020-10-29T19:31:38:611
-10,000000	0,000000	531,000000	0,000000	2020-10-29T19:31:38:649
-10,000000	0,000000	531,000000	0,000000	2020-10-29T19:31:38:690
-10,000000	0,000000	531,000000	0,000000	2020-10-29T19:31:38:729
-10,000000	0,000000	531,000000	0,000000	2020-10-29T19:31:38:770
-10,000000	0,000000	531,000000	0,000000	2020-10-29T19:31:38:809
-10,000000	0,000000	531,000000	0,000000	2020-10-29T19:31:38:851
-10,000000	0,000000	531,000000	0,000000	2020-10-29T19:31:38:890
-10,000000	0,000000	531,000000	0,000000	2020-10-29T19:31:38:931
-10,000000	0,000000	531,000000	0,000000	2020-10-29T19:31:38:969
-10,000000	0,000000	531,000000	0,000000	2020-10-29T19:31:39:010
-10,000000	0,000000	531,000000	0,000000	2020-10-29T19:31:39:051
-10,000000	0,000000	531,000000	0,000000	2020-10-29T19:31:39:092
-10,000000	0,000000	531,000000	0,000000	2020-10-29T19:31:39:130
-10,000000	0,000000	531,000000	0,000000	2020-10-29T19:31:39:172
-10,000000	0,000000	531,000000	0,000000	2020-10-29T19:31:39:210
-10,000000	0,000000	531,000000	0,000000	2020-10-29T19:31:39:253
-10,000000	0,000000	531,000000	0,000000	2020-10-29T19:31:39:290
-10,000000	0,000000	531,000000	0,000000	2020-10-29T19:31:39:332
93,000000	0,000000	658,000000	0,000000	2020-10-29T19:31:39:369
-10,000000	0,000000	658,000000	0,000000	2020-10-29T19:31:39:410
-10,000000	0,000000	658,000000	0,000000	2020-10-29T19:31:39:450
-10,000000	0,000000	658,000000	0,000000	2020-10-29T19:31:39:491
-10,000000	0,000000	658,000000	0,000000	2020-10-29T19:31:39:530
94,000000	0,000000	658,000000	0,000000	2020-10-29T19:31:39:571
94,000000	0,000000	658,000000	0,000000	2020-10-29T19:31:39:609
94,000000	0,000000	658,000000	0,000000	2020-10-29T19:31:39:651
94,000000	0,000000	658,000000	0,000000	2020-10-29T19:31:39:690
94,000000	0,000000	658,000000	0,000000	2020-10-29T19:31:39:731
94,000000	0,000000	658,000000	0,000000	2020-10-29T19:31:39:770
94,000000	0,000000	658,000000	0,000000	2020-10-29T19:31:39:811
94,000000	0,000000	658,000000	0,000000	2020-10-29T19:31:39:851
94,000000	0,000000	658,000000	0,000000	2020-10-29T19:31:39:891
94,000000	0,000000	658,000000	0,000000	2020-10-29T19:31:39:930
94,000000	0,000000	658,000000	0,000000	2020-10-29T19:31:39:971
94,000000	0,000000	658,000000	0,000000	2020-10-29T19:31:40:010
94,000000	0,000000	658,000000	0,000000	2020-10-29T19:31:40:052
94,000000	0,000000	658,000000	0,000000	2020-10-29T19:31:40:091
94,000000	0,000000	658,000000	0,000000	2020-10-29T19:31:40:131
94,000000	0,000000	658,000000	0,000000	2020-10-29T19:31:40:171
94,000000	0,000000	658,000000	0,000000	2020-10-29T19:31:40:210
94,000000	0,000000	658,000000	0,000000	2020-10-29T19:31:40:250
94,000000	0,000000	658,000000	0,000000	2020-10-29T19:31:40:294
94,000000	0,000000	658,000000	0,000000	2020-10-29T19:31:40:330
94,000000	0,000000	658,000000	0,000000	2020-10-29T19:31:40:372
94,000000	0,000000	658,000000	0,000000	2020-10-29T19:31:40:410
94,000000	0,000000	658,000000	0,000000	2020-10-29T19:31:40:451
94,000000	0,000000	658,000000	0,000000	2020-10-29T19:31:40:491
94,000000	0,000000	658,000000	0,000000	2020-10-29T19:31:40:533
94,000000	0,000000	658,000000	0,000000	2020-10-29T19:31:40:570
94,000000	0,000000	658,000000	0,000000	2020-10-29T19:31:40:612
94,000000	0,000000	658,000000	0,000000	2020-10-29T19:31:40:650
94,000000	0,000000	658,000000	0,000000	2020-10-29T19:31:40:693
94,000000	0,000000	658,000000	0,000000	2020-10-29T19:31:40:731
94,000000	0,000000	658,000000	0,000000	2020-10-29T19:31:40:773
94,000000	0,000000	658,000000	0,000000	2020-10-29T19:31:40:811
94,000000	0,000000	658,000000	0,000000	2020-10-29T19:31:40:852
94,000000	0,000000	658,000000	0,000000	2020-10-29T19:31:40:892
94,000000	0,000000	658,000000	0,000000	2020-10-29T19:31:40:932
94,000000	0,000000	658,000000	0,000000	2020-10-29T19:31:40:971
94,000000	0,000000	658,000000	0,000000	2020-10-29T19:31:41:014
94,000000	0,000000	658,000000	0,000000	2020-10-29T19:31:41:051
94,000000	0,000000	658,000000	0,000000	2020-10-29T19:31:41:093
94,000000	0,000000	658,000000	0,000000	2020-10-29T19:31:41:131
94,000000	0,000000	658,000000	0,000000	2020-10-29T19:31:41:172
94,000000	0,000000	658,000000	0,000000	2020-10-29T19:31:41:211
94,000000	0,000000	658,000000	0,000000	2020-10-29T19:31:41:253
94,000000	0,000000	658,000000	0,000000	2020-10-29T19:31:41:292
94,000000	0,000000	658,000000	0,000000	2020-10-29T19:31:41:332
94,000000	0,000000	658,000000	0,000000	2020-10-29T19:31:41:371
94,000000	0,000000	658,000000	0,000000	2020-10-29T19:31:41:412
94,000000	0,000000	658,000000	0,000000	2020-10-29T19:31:41:452
94,000000	0,000000	658,000000	0,000000	2020-10-29T19:31:41:494
94,000000	0,000000	658,000000	0,000000	2020-10-29T19:31:41:532
94,000000	0,000000	658,000000	0,000000	2020-10-29T19:31:41:573
94,000000	0,000000	658,000000	0,000000	2020-10-29T19:31:41:612
94,000000	0,000000	658,000000	0,000000	2020-10-29T19:31:41:653
94,000000	0,000000	658,000000	0,000000	2020-10-29T19:31:41:692
94,000000	0,000000	658,000000	0,000000	2020-10-29T19:31:41:735
94,000000	0,000000	658,000000	0,000000	2020-10-29T19:31:41:772
94,000000	0,000000	658,000000	0,000000	2020-10-29T19:31:41:813
94,000000	0,000000	658,000000	0,000000	2020-10-29T19:31:41:852
94,000000	0,000000	658,000000	0,000000	2020-10-29T19:31:41:893
94,000000	0,000000	658,000000	0,000000	2020-10-29T19:31:41:932
94,000000	0,000000	658,000000	0,000000	2020-10-29T19:31:41:985
-10,000000	0,000000	658,000000	0,000000	2020-10-29T19:31:42:012
-10,000000	0,000000	658,000000	0,000000	2020-10-29T19:31:42:053
-10,000000	0,000000	658,000000	0,000000	2020-10-29T19:31:42:093
94,000000	0,000000	658,000000	0,000000	2020-10-29T19:31:42:133
-10,000000	0,000000	658,000000	0,000000	2020-10-29T19:31:42:172
94,000000	0,000000	658,000000	0,000000	2020-10-29T19:31:42:215
94,000000	0,000000	658,000000	0,000000	2020-10-29T19:31:42:252
94,000000	0,000000	658,000000	0,000000	2020-10-29T19:31:42:294
94,000000	0,000000	658,000000	0,000000	2020-10-29T19:31:42:332
94,000000	0,000000	658,000000	0,000000	2020-10-29T19:31:42:373
94,000000	0,000000	658,000000	0,000000	2020-10-29T19:31:42:412
93,000000	0,000000	658,000000	0,000000	2020-10-29T19:31:42:455
94,000000	0,000000	658,000000	0,000000	2020-10-29T19:31:42:493
94,000000	0,000000	658,000000	0,000000	2020-10-29T19:31:42:534
94,000000	0,000000	658,000000	0,000000	2020-10-29T19:31:42:573
94,000000	0,000000	658,000000	0,000000	2020-10-29T19:31:42:614
94,000000	0,000000	658,000000	0,000000	2020-10-29T19:31:42:653
94,000000	0,000000	658,000000	0,000000	2020-10-29T19:31:42:696
94,000000	0,000000	658,000000	0,000000	2020-10-29T19:31:42:733
94,000000	0,000000	658,000000	0,000000	2020-10-29T19:31:42:774
94,000000	0,000000	658,000000	0,000000	2020-10-29T19:31:42:812
94,000000	0,000000	658,000000	0,000000	2020-10-29T19:31:42:854
94,000000	0,000000	658,000000	0,000000	2020-10-29T19:31:42:894
94,000000	0,000000	658,000000	0,000000	2020-10-29T19:31:42:936
94,000000	0,000000	658,000000	0,000000	2020-10-29T19:31:42:973
94,000000	0,000000	658,000000	0,000000	2020-10-29T19:31:43:014
94,000000	0,000000	658,000000	0,000000	2020-10-29T19:31:43:053
94,000000	0,000000	658,000000	0,000000	2020-10-29T19:31:43:095
93,000000	0,000000	658,000000	0,000000	2020-10-29T19:31:43:134
93,000000	0,000000	658,000000	0,000000	2020-10-29T19:31:43:176
93,000000	0,000000	658,000000	0,000000	2020-10-29T19:31:43:213
94,000000	0,000000	658,000000	0,000000	2020-10-29T19:31:43:253
93,000000	0,000000	658,000000	0,000000	2020-10-29T19:31:43:294
93,000000	0,000000	658,000000	0,000000	2020-10-29T19:31:43:334
93,000000	0,000000	658,000000	0,000000	2020-10-29T19:31:43:374
93,000000	0,000000	658,000000	0,000000	2020-10-29T19:31:43:416
93,000000	0,000000	658,000000	0,000000	2020-10-29T19:31:43:454
93,000000	0,000000	658,000000	0,000000	2020-10-29T19:31:43:496
93,000000	0,000000	658,000000	0,000000	2020-10-29T19:31:43:534
93,000000	0,000000	658,000000	0,000000	2020-10-29T19:31:43:574
93,000000	0,000000	658,000000	0,000000	2020-10-29T19:31:43:614
93,000000	0,000000	658,000000	0,000000	2020-10-29T19:31:43:657
93,000000	0,000000	658,000000	0,000000	2020-10-29T19:31:43:695
93,000000	0,000000	658,000000	0,000000	2020-10-29T19:31:43:735
93,000000	0,000000	658,000000	0,000000	2020-10-29T19:31:43:774
94,000000	0,000000	658,000000	0,000000	2020-10-29T19:31:43:815
94,000000	0,000000	658,000000	0,000000	2020-10-29T19:31:43:854
93,000000	0,000000	658,000000	0,000000	2020-10-29T19:31:43:898
93,000000	0,000000	658,000000	0,000000	2020-10-29T19:31:43:935
94,000000	0,000000	658,000000	0,000000	2020-10-29T19:31:43:975
94,000000	0,000000	658,000000	0,000000	2020-10-29T19:31:44:015
94,000000	0,000000	658,000000	0,000000	2020-10-29T19:31:44:055
94,000000	0,000000	658,000000	0,000000	2020-10-29T19:31:44:095
94,000000	0,000000	658,000000	0,000000	2020-10-29T19:31:44:137
94,000000	0,000000	658,000000	0,000000	2020-10-29T19:31:44:199
94,000000	0,000000	658,000000	0,000000	2020-10-29T19:31:44:215
94,000000	0,000000	658,000000	0,000000	2020-10-29T19:31:44:254
94,000000	0,000000	658,000000	0,000000	2020-10-29T19:31:44:296
94,000000	0,000000	658,000000	0,000000	2020-10-29T19:31:44:334
94,000000	0,000000	658,000000	0,000000	2020-10-29T19:31:44:378
93,000000	0,000000	658,000000	0,000000	2020-10-29T19:31:44:415
94,000000	0,000000	658,000000	0,000000	2020-10-29T19:31:44:457
94,000000	0,000000	658,000000	0,000000	2020-10-29T19:31:44:496
94,000000	0,000000	658,000000	0,000000	2020-10-29T19:31:44:536
94,000000	0,000000	658,000000	0,000000	2020-10-29T19:31:44:575
94,000000	0,000000	658,000000	0,000000	2020-10-29T19:31:44:618
94,000000	0,000000	658,000000	0,000000	2020-10-29T19:31:44:655
94,000000	0,000000	658,000000	0,000000	2020-10-29T19:31:44:696
94,000000	0,000000	658,000000	0,000000	2020-10-29T19:31:44:735
94,000000	0,000000	658,000000	0,000000	2020-10-29T19:31:44:776
94,000000	0,000000	658,000000	0,000000	2020-10-29T19:31:44:815
94,000000	0,000000	658,000000	0,000000	2020-10-29T19:31:44:858
94,000000	0,000000	658,000000	0,000000	2020-10-29T19:31:44:895
94,000000	0,000000	658,000000	0,000000	2020-10-29T19:31:44:935
94,000000	0,000000	658,000000	0,000000	2020-10-29T19:31:44:975
94,000000	0,000000	658,000000	0,000000	2020-10-29T19:31:45:016
94,000000	0,000000	658,000000	0,000000	2020-10-29T19:31:45:055
94,000000	0,000000	658,000000	0,000000	2020-10-29T19:31:45:099
94,000000	0,000000	658,000000	0,000000	2020-10-29T19:31:45:135
94,000000	0,000000	658,000000	0,000000	2020-10-29T19:31:45:176
94,000000	0,000000	658,000000	0,000000	2020-10-29T19:31:45:216
94,000000	0,000000	658,000000	0,000000	2020-10-29T19:31:45:256
94,000000	0,000000	658,000000	0,000000	2020-10-29T19:31:45:296
94,000000	0,000000	658,000000	0,000000	2020-10-29T19:31:45:338
94,000000	0,000000	658,000000	0,000000	2020-10-29T19:31:45:375
94,000000	0,000000	658,000000	0,000000	2020-10-29T19:31:45:416
95,000000	0,000000	658,000000	0,000000	2020-10-29T19:31:45:456
94,000000	0,000000	658,000000	0,000000	2020-10-29T19:31:45:497
94,000000	0,000000	658,000000	0,000000	2020-10-29T19:31:45:536
94,000000	0,000000	658,000000	0,000000	2020-10-29T19:31:45:578
95,000000	0,000000	658,000000	0,000000	2020-10-29T19:31:45:615
95,000000	0,000000	658,000000	0,000000	2020-10-29T19:31:45:656
95,000000	0,000000	658,000000	0,000000	2020-10-29T19:31:45:696
95,000000	0,000000	658,000000	0,000000	2020-10-29T19:31:45:737
95,000000	0,000000	658,000000	0,000000	2020-10-29T19:31:45:775
95,000000	0,000000	658,000000	0,000000	2020-10-29T19:31:45:819
95,000000	0,000000	658,000000	0,000000	2020-10-29T19:31:45:856
95,000000	0,000000	658,000000	0,000000	2020-10-29T19:31:45:897
95,000000	0,000000	658,000000	0,000000	2020-10-29T19:31:45:936
95,000000	0,000000	658,000000	0,000000	2020-10-29T19:31:45:977
95,000000	0,000000	658,000000	0,000000	2020-10-29T19:31:46:017
95,000000	0,000000	658,000000	0,000000	2020-10-29T19:31:46:058
95,000000	0,000000	658,000000	0,000000	2020-10-29T19:31:46:097
95,000000	0,000000	658,000000	0,000000	2020-10-29T19:31:46:137
95,000000	0,000000	658,000000	0,000000	2020-10-29T19:31:46:176
95,000000	0,000000	658,000000	0,000000	2020-10-29T19:31:46:217
95,000000	0,000000	658,000000	0,000000	2020-10-29T19:31:46:256
95,000000	0,000000	658,000000	0,000000	2020-10-29T19:31:46:298
95,000000	0,000000	658,000000	0,000000	2020-10-29T19:31:46:336
95,000000	0,000000	658,000000	0,000000	2020-10-29T19:31:46:377
95,000000	0,000000	658,000000	0,000000	2020-10-29T19:31:46:416
95,000000	0,000000	658,000000	0,000000	2020-10-29T19:31:46:457
95,000000	0,000000	658,000000	0,000000	2020-10-29T19:31:46:498
95,000000	0,000000	658,000000	0,000000	2020-10-29T19:31:46:539
95,000000	0,000000	658,000000	0,000000	2020-10-29T19:31:46:577
95,000000	0,000000	658,000000	0,000000	2020-10-29T19:31:46:618
95,000000	0,000000	658,000000	0,000000	2020-10-29T19:31:46:657
95,000000	0,000000	658,000000	0,000000	2020-10-29T19:31:46:698
95,000000	0,000000	658,000000	0,000000	2020-10-29T19:31:46:736
95,000000	0,000000	658,000000	0,000000	2020-10-29T19:31:46:779
95,000000	0,000000	658,000000	0,000000	2020-10-29T19:31:46:817
95,000000	0,000000	658,000000	0,000000	2020-10-29T19:31:46:858
95,000000	0,000000	658,000000	0,000000	2020-10-29T19:31:46:898
95,000000	0,000000	658,000000	0,000000	2020-10-29T19:31:46:938
95,000000	0,000000	658,000000	0,000000	2020-10-29T19:31:46:977
95,000000	0,000000	658,000000	0,000000	2020-10-29T19:31:47:020
95,000000	0,000000	658,000000	0,000000	2020-10-29T19:31:47:058
95,000000	0,000000	658,000000	0,000000	2020-10-29T19:31:47:099
95,000000	0,000000	658,000000	0,000000	2020-10-29T19:31:47:137
95,000000	0,000000	658,000000	0,000000	2020-10-29T19:31:47:178
95,000000	0,000000	658,000000	0,000000	2020-10-29T19:31:47:217
95,000000	0,000000	658,000000	0,000000	2020-10-29T19:31:47:260
95,000000	0,000000	658,000000	0,000000	2020-10-29T19:31:47:298
95,000000	0,000000	658,000000	0,000000	2020-10-29T19:31:47:339
95,000000	0,000000	658,000000	0,000000	2020-10-29T19:31:47:377
95,000000	0,000000	658,000000	0,000000	2020-10-29T19:31:47:418
95,000000	0,000000	658,000000	0,000000	2020-10-29T19:31:47:457
95,000000	0,000000	658,000000	0,000000	2020-10-29T19:31:47:500
96,000000	0,000000	658,000000	0,000000	2020-10-29T19:31:47:539
95,000000	0,000000	658,000000	0,000000	2020-10-29T19:31:47:578
95,000000	0,000000	658,000000	0,000000	2020-10-29T19:31:47:618
95,000000	0,000000	658,000000	0,000000	2020-10-29T19:31:47:658
95,000000	0,000000	658,000000	0,000000	2020-10-29T19:31:47:698
96,000000	0,000000	658,000000	0,000000	2020-10-29T19:31:47:742
96,000000	0,000000	658,000000	0,000000	2020-10-29T19:31:47:777
96,000000	0,000000	658,000000	0,000000	2020-10-29T19:31:47:818
96,000000	0,000000	658,000000	0,000000	2020-10-29T19:31:47:858
96,000000	0,000000	658,000000	0,000000	2020-10-29T19:31:47:899
96,000000	0,000000	658,000000	0,000000	2020-10-29T19:31:47:938
96,000000	0,000000	658,000000	0,000000	2020-10-29T19:31:47:981
96,000000	0,000000	658,000000	0,000000	2020-10-29T19:31:48:019
96,000000	0,000000	658,000000	0,000000	2020-10-29T19:31:48:059
96,000000	0,000000	658,000000	0,000000	2020-10-29T19:31:48:099
96,000000	0,000000	658,000000	0,000000	2020-10-29T19:31:48:139
96,000000	0,000000	658,000000	0,000000	2020-10-29T19:31:48:178
96,000000	0,000000	658,000000	0,000000	2020-10-29T19:31:48:221
96,000000	0,000000	658,000000	0,000000	2020-10-29T19:31:48:258
96,000000	0,000000	658,000000	0,000000	2020-10-29T19:31:48:300
96,000000	0,000000	658,000000	0,000000	2020-10-29T19:31:48:338
96,000000	0,000000	658,000000	0,000000	2020-10-29T19:31:48:379
96,000000	0,000000	658,000000	0,000000	2020-10-29T19:31:48:419
96,000000	0,000000	658,000000	0,000000	2020-10-29T19:31:48:461
96,000000	0,000000	658,000000	0,000000	2020-10-29T19:31:48:499
96,000000	0,000000	658,000000	0,000000	2020-10-29T19:31:48:539
96,000000	0,000000	658,000000	0,000000	2020-10-29T19:31:48:578
96,000000	0,000000	658,000000	0,000000	2020-10-29T19:31:48:619
96,000000	0,000000	658,000000	0,000000	2020-10-29T19:31:48:659
96,000000	0,000000	658,000000	0,000000	2020-10-29T19:31:48:702
96,000000	0,000000	658,000000	0,000000	2020-10-29T19:31:48:739
96,000000	0,000000	658,000000	0,000000	2020-10-29T19:31:48:780
96,000000	0,000000	658,000000	0,000000	2020-10-29T19:31:48:819
96,000000	0,000000	658,000000	0,000000	2020-10-29T19:31:48:860
96,000000	0,000000	658,000000	0,000000	2020-10-29T19:31:48:900
96,000000	0,000000	658,000000	0,000000	2020-10-29T19:31:48:942
96,000000	0,000000	658,000000	0,000000	2020-10-29T19:31:48:979
96,000000	0,000000	658,000000	0,000000	2020-10-29T19:31:49:020
96,000000	0,000000	658,000000	0,000000	2020-10-29T19:31:49:058
96,000000	0,000000	658,000000	0,000000	2020-10-29T19:31:49:101
96,000000	0,000000	658,000000	0,000000	2020-10-29T19:31:49:139
96,000000	0,000000	658,000000	0,000000	2020-10-29T19:31:49:186
96,000000	0,000000	658,000000	0,000000	2020-10-29T19:31:49:220
96,000000	0,000000	658,000000	0,000000	2020-10-29T19:31:49:260
96,000000	0,000000	658,000000	0,000000	2020-10-29T19:31:49:300
96,000000	0,000000	658,000000	0,000000	2020-10-29T19:31:49:340
96,000000	0,000000	658,000000	0,000000	2020-10-29T19:31:49:379
96,000000	0,000000	658,000000	0,000000	2020-10-29T19:31:49:422
96,000000	0,000000	658,000000	0,000000	2020-10-29T19:31:49:460
96,000000	0,000000	658,000000	0,000000	2020-10-29T19:31:49:501
96,000000	0,000000	658,000000	0,000000	2020-10-29T19:31:49:540
96,000000	0,000000	658,000000	0,000000	2020-10-29T19:31:49:580
96,000000	0,000000	658,000000	0,000000	2020-10-29T19:31:49:619
96,000000	0,000000	658,000000	0,000000	2020-10-29T19:31:49:663
96,000000	0,000000	658,000000	0,000000	2020-10-29T19:31:49:700
96,000000	0,000000	658,000000	0,000000	2020-10-29T19:31:49:741
96,000000	0,000000	658,000000	0,000000	2020-10-29T19:31:49:780
96,000000	0,000000	658,000000	0,000000	2020-10-29T19:31:49:821
96,000000	0,000000	658,000000	0,000000	2020-10-29T19:31:49:860
96,000000	0,000000	658,000000	0,000000	2020-10-29T19:31:49:903
96,000000	0,000000	658,000000	0,000000	2020-10-29T19:31:49:940
96,000000	0,000000	629,000000	0,000000	2020-10-29T19:31:49:980
96,000000	0,000000	629,000000	0,000000	2020-10-29T19:31:50:019
96,000000	0,000000	629,000000	0,000000	2020-10-29T19:31:50:061
96,000000	0,000000	629,000000	0,000000	2020-10-29T19:31:50:101
96,000000	0,000000	629,000000	0,000000	2020-10-29T19:31:50:142
96,000000	0,000000	629,000000	0,000000	2020-10-29T19:31:50:180
96,000000	0,000000	629,000000	0,000000	2020-10-29T19:31:50:221
96,000000	0,000000	629,000000	0,000000	2020-10-29T19:31:50:260
96,000000	0,000000	629,000000	0,000000	2020-10-29T19:31:50:302
96,000000	0,000000	629,000000	0,000000	2020-10-29T19:31:50:340
96,000000	0,000000	629,000000	0,000000	2020-10-29T19:31:50:383
96,000000	0,000000	629,000000	0,000000	2020-10-29T19:31:50:420
96,000000	0,000000	629,000000	0,000000	2020-10-29T19:31:50:461
96,000000	0,000000	629,000000	0,000000	2020-10-29T19:31:50:501
96,000000	0,000000	629,000000	0,000000	2020-10-29T19:31:50:541
96,000000	0,000000	629,000000	0,000000	2020-10-29T19:31:50:580
96,000000	0,000000	629,000000	0,000000	2020-10-29T19:31:50:623
96,000000	0,000000	629,000000	0,000000	2020-10-29T19:31:50:660
96,000000	0,000000	629,000000	0,000000	2020-10-29T19:31:50:703
96,000000	0,000000	629,000000	0,000000	2020-10-29T19:31:50:740
96,000000	0,000000	591,000000	0,000000	2020-10-29T19:31:50:781
96,000000	0,000000	591,000000	0,000000	2020-10-29T19:31:50:821
96,000000	0,000000	591,000000	0,000000	2020-10-29T19:31:50:863
96,000000	0,000000	591,000000	0,000000	2020-10-29T19:31:50:901
96,000000	0,000000	591,000000	0,000000	2020-10-29T19:31:50:942
96,000000	0,000000	591,000000	0,000000	2020-10-29T19:31:50:981
96,000000	0,000000	591,000000	0,000000	2020-10-29T19:31:51:022
96,000000	0,000000	591,000000	0,000000	2020-10-29T19:31:51:062
96,000000	0,000000	591,000000	0,000000	2020-10-29T19:31:51:104
96,000000	0,000000	591,000000	0,000000	2020-10-29T19:31:51:141
96,000000	0,000000	591,000000	0,000000	2020-10-29T19:31:51:182
96,000000	0,000000	591,000000	0,000000	2020-10-29T19:31:51:221
96,000000	0,000000	591,000000	0,000000	2020-10-29T19:31:51:262
96,000000	0,000000	591,000000	0,000000	2020-10-29T19:31:51:301
96,000000	0,000000	591,000000	0,000000	2020-10-29T19:31:51:344
96,000000	0,000000	591,000000	0,000000	2020-10-29T19:31:51:382
96,000000	0,000000	591,000000	0,000000	2020-10-29T19:31:51:422
96,000000	0,000000	591,000000	0,000000	2020-10-29T19:31:51:462
96,000000	0,000000	591,000000	0,000000	2020-10-29T19:31:51:503
96,000000	0,000000	591,000000	0,000000	2020-10-29T19:31:51:542
96,000000	0,000000	624,000000	0,000000	2020-10-29T19:31:51:584
96,000000	0,000000	624,000000	0,000000	2020-10-29T19:31:51:622
96,000000	0,000000	624,000000	0,000000	2020-10-29T19:31:51:662
96,000000	0,000000	624,000000	0,000000	2020-10-29T19:31:51:702
96,000000	0,000000	624,000000	0,000000	2020-10-29T19:31:51:742
96,000000	0,000000	624,000000	0,000000	2020-10-29T19:31:51:782
96,000000	0,000000	624,000000	0,000000	2020-10-29T19:31:51:824
96,000000	0,000000	624,000000	0,000000	2020-10-29T19:31:51:862
96,000000	0,000000	624,000000	0,000000	2020-10-29T19:31:51:903
96,000000	0,000000	624,000000	0,000000	2020-10-29T19:31:51:942
96,000000	0,000000	624,000000	0,000000	2020-10-29T19:31:51:983
96,000000	0,000000	624,000000	0,000000	2020-10-29T19:31:52:022
96,000000	0,000000	624,000000	0,000000	2020-10-29T19:31:52:065
96,000000	0,000000	624,000000	0,000000	2020-10-29T19:31:52:102
96,000000	0,000000	624,000000	0,000000	2020-10-29T19:31:52:143
96,000000	0,000000	624,000000	0,000000	2020-10-29T19:31:52:182
96,000000	0,000000	624,000000	0,000000	2020-10-29T19:31:52:223
96,000000	0,000000	624,000000	0,000000	2020-10-29T19:31:52:262
96,000000	0,000000	624,000000	0,000000	2020-10-29T19:31:52:305
96,000000	0,000000	624,000000	0,000000	2020-10-29T19:31:52:342
96,000000	0,000000	624,000000	0,000000	2020-10-29T19:31:52:383
96,000000	0,000000	624,000000	0,000000	2020-10-29T19:31:52:422
96,000000	0,000000	624,000000	0,000000	2020-10-29T19:31:52:463
96,000000	0,000000	624,000000	0,000000	2020-10-29T19:31:52:503
96,000000	0,000000	624,000000	0,000000	2020-10-29T19:31:52:545
96,000000	0,000000	624,000000	0,000000	2020-10-29T19:31:52:581
96,000000	0,000000	624,000000	0,000000	2020-10-29T19:31:52:624
96,000000	0,000000	624,000000	0,000000	2020-10-29T19:31:52:663
96,000000	0,000000	624,000000	0,000000	2020-10-29T19:31:52:704
96,000000	0,000000	624,000000	0,000000	2020-10-29T19:31:52:743
96,000000	0,000000	624,000000	0,000000	2020-10-29T19:31:52:785
96,000000	0,000000	624,000000	0,000000	2020-10-29T19:31:52:823
96,000000	0,000000	624,000000	0,000000	2020-10-29T19:31:52:864
96,000000	0,000000	624,000000	0,000000	2020-10-29T19:31:52:903
96,000000	0,000000	624,000000	0,000000	2020-10-29T19:31:52:944
96,000000	0,000000	624,000000	0,000000	2020-10-29T19:31:52:983
96,000000	0,000000	624,000000	0,000000	2020-10-29T19:31:53:024
96,000000	0,000000	624,000000	0,000000	2020-10-29T19:31:53:063
96,000000	0,000000	624,000000	0,000000	2020-10-29T19:31:53:104
96,000000	0,000000	624,000000	0,000000	2020-10-29T19:31:53:144
96,000000	0,000000	624,000000	0,000000	2020-10-29T19:31:53:184
96,000000	0,000000	624,000000	0,000000	2020-10-29T19:31:53:223
96,000000	0,000000	624,000000	0,000000	2020-10-29T19:31:53:266
97,000000	0,000000	624,000000	0,000000	2020-10-29T19:31:53:304
97,000000	0,000000	624,000000	0,000000	2020-10-29T19:31:53:344
96,000000	0,000000	624,000000	0,000000	2020-10-29T19:31:53:383
96,000000	0,000000	624,000000	0,000000	2020-10-29T19:31:53:424
96,000000	0,000000	624,000000	0,000000	2020-10-29T19:31:53:463
96,000000	0,000000	624,000000	0,000000	2020-10-29T19:31:53:508
96,000000	0,000000	624,000000	0,000000	2020-10-29T19:31:53:543
96,000000	0,000000	624,000000	0,000000	2020-10-29T19:31:53:586
96,000000	0,000000	624,000000	0,000000	2020-10-29T19:31:53:623
97,000000	0,000000	624,000000	0,000000	2020-10-29T19:31:53:664
97,000000	0,000000	624,000000	0,000000	2020-10-29T19:31:53:704
96,000000	0,000000	624,000000	0,000000	2020-10-29T19:31:53:747
96,000000	0,000000	624,000000	0,000000	2020-10-29T19:31:53:783
96,000000	0,000000	624,000000	0,000000	2020-10-29T19:31:53:823
96,000000	0,000000	624,000000	0,000000	2020-10-29T19:31:53:864
96,000000	0,000000	624,000000	0,000000	2020-10-29T19:31:53:905
96,000000	0,000000	624,000000	0,000000	2020-10-29T19:31:53:945
96,000000	0,000000	624,000000	0,000000	2020-10-29T19:31:53:984
96,000000	0,000000	624,000000	0,000000	2020-10-29T19:31:54:031
96,000000	0,000000	624,000000	0,000000	2020-10-29T19:31:54:065
96,000000	0,000000	624,000000	0,000000	2020-10-29T19:31:54:104
96,000000	0,000000	624,000000	0,000000	2020-10-29T19:31:54:144
96,000000	0,000000	624,000000	0,000000	2020-10-29T19:31:54:186
96,000000	0,000000	624,000000	0,000000	2020-10-29T19:31:54:226
96,000000	0,000000	624,000000	0,000000	2020-10-29T19:31:54:264
96,000000	0,000000	624,000000	0,000000	2020-10-29T19:31:54:305
96,000000	0,000000	624,000000	0,000000	2020-10-29T19:31:54:346
96,000000	0,000000	624,000000	0,000000	2020-10-29T19:31:54:385
96,000000	0,000000	624,000000	0,000000	2020-10-29T19:31:54:424
96,000000	0,000000	624,000000	0,000000	2020-10-29T19:31:54:468
96,000000	0,000000	624,000000	0,000000	2020-10-29T19:31:54:505
96,000000	0,000000	624,000000	0,000000	2020-10-29T19:31:54:545
96,000000	0,000000	624,000000	0,000000	2020-10-29T19:31:54:585
96,000000	0,000000	624,000000	0,000000	2020-10-29T19:31:54:625
96,000000	0,000000	624,000000	0,000000	2020-10-29T19:31:54:665
96,000000	0,000000	624,000000	0,000000	2020-10-29T19:31:54:707
96,000000	0,000000	624,000000	0,000000	2020-10-29T19:31:54:745
96,000000	0,000000	624,000000	0,000000	2020-10-29T19:31:54:786
96,000000	0,000000	624,000000	0,000000	2020-10-29T19:31:54:825
96,000000	0,000000	624,000000	0,000000	2020-10-29T19:31:54:866
96,000000	0,000000	624,000000	0,000000	2020-10-29T19:31:54:906
96,000000	0,000000	624,000000	0,000000	2020-10-29T19:31:54:948
96,000000	0,000000	613,000000	0,000000	2020-10-29T19:31:54:985
96,000000	0,000000	613,000000	0,000000	2020-10-29T19:31:55:027
96,000000	0,000000	613,000000	0,000000	2020-10-29T19:31:55:065
96,000000	0,000000	613,000000	0,000000	2020-10-29T19:31:55:107
96,000000	0,000000	613,000000	0,000000	2020-10-29T19:31:55:145
97,000000	0,000000	613,000000	0,000000	2020-10-29T19:31:55:187
97,000000	0,000000	613,000000	0,000000	2020-10-29T19:31:55:225
97,000000	0,000000	613,000000	0,000000	2020-10-29T19:31:55:266
96,000000	0,000000	613,000000	0,000000	2020-10-29T19:31:55:306
96,000000	0,000000	613,000000	0,000000	2020-10-29T19:31:55:346
96,000000	0,000000	613,000000	0,000000	2020-10-29T19:31:55:385
97,000000	0,000000	613,000000	0,000000	2020-10-29T19:31:55:427
97,000000	0,000000	613,000000	0,000000	2020-10-29T19:31:55:465
97,000000	0,000000	613,000000	0,000000	2020-10-29T19:31:55:507
97,000000	0,000000	613,000000	0,000000	2020-10-29T19:31:55:546
97,000000	0,000000	613,000000	0,000000	2020-10-29T19:31:55:586
97,000000	0,000000	613,000000	0,000000	2020-10-29T19:31:55:625
97,000000	0,000000	613,000000	0,000000	2020-10-29T19:31:55:668
97,000000	0,000000	613,000000	0,000000	2020-10-29T19:31:55:706
97,000000	0,000000	613,000000	0,000000	2020-10-29T19:31:55:747
97,000000	0,000000	613,000000	0,000000	2020-10-29T19:31:55:785
97,000000	0,000000	613,000000	0,000000	2020-10-29T19:31:55:826
97,000000	0,000000	613,000000	0,000000	2020-10-29T19:31:55:866
97,000000	0,000000	613,000000	0,000000	2020-10-29T19:31:55:910
97,000000	0,000000	613,000000	0,000000	2020-10-29T19:31:55:945
97,000000	0,000000	613,000000	0,000000	2020-10-29T19:31:55:987
97,000000	0,000000	613,000000	0,000000	2020-10-29T19:31:56:026
97,000000	0,000000	613,000000	0,000000	2020-10-29T19:31:56:067
97,000000	0,000000	613,000000	0,000000	2020-10-29T19:31:56:106
97,000000	0,000000	613,000000	0,000000	2020-10-29T19:31:56:148
97,000000	0,000000	613,000000	0,000000	2020-10-29T19:31:56:186
97,000000	0,000000	613,000000	0,000000	2020-10-29T19:31:56:227
97,000000	0,000000	613,000000	0,000000	2020-10-29T19:31:56:266
97,000000	0,000000	613,000000	0,000000	2020-10-29T19:31:56:307
97,000000	0,000000	613,000000	0,000000	2020-10-29T19:31:56:346
97,000000	0,000000	613,000000	0,000000	2020-10-29T19:31:56:388
97,000000	0,000000	613,000000	0,000000	2020-10-29T19:31:56:426
97,000000	0,000000	613,000000	0,000000	2020-10-29T19:31:56:467
97,000000	0,000000	613,000000	0,000000	2020-10-29T19:31:56:507
97,000000	0,000000	613,000000	0,000000	2020-10-29T19:31:56:546
97,000000	0,000000	613,000000	0,000000	2020-10-29T19:31:56:586
97,000000	0,000000	613,000000	0,000000	2020-10-29T19:31:56:627
97,000000	0,000000	613,000000	0,000000	2020-10-29T19:31:56:666
97,000000	0,000000	613,000000	0,000000	2020-10-29T19:31:56:708
97,000000	0,000000	613,000000	0,000000	2020-10-29T19:31:56:746
97,000000	0,000000	613,000000	0,000000	2020-10-29T19:31:56:787
97,000000	0,000000	613,000000	0,000000	2020-10-29T19:31:56:826
97,000000	0,000000	613,000000	0,000000	2020-10-29T19:31:56:869
97,000000	0,000000	613,000000	0,000000	2020-10-29T19:31:56:907
97,000000	0,000000	613,000000	0,000000	2020-10-29T19:31:56:949
97,000000	0,000000	613,000000	0,000000	2020-10-29T19:31:56:987
97,000000	0,000000	613,000000	0,000000	2020-10-29T19:31:57:028
97,000000	0,000000	613,000000	0,000000	2020-10-29T19:31:57:066
97,000000	0,000000	613,000000	0,000000	2020-10-29T19:31:57:109
97,000000	0,000000	613,000000	0,000000	2020-10-29T19:31:57:146
97,000000	0,000000	613,000000	0,000000	2020-10-29T19:31:57:187
97,000000	0,000000	613,000000	0,000000	2020-10-29T19:31:57:226
97,000000	0,000000	613,000000	0,000000	2020-10-29T19:31:57:267
97,000000	0,000000	613,000000	0,000000	2020-10-29T19:31:57:307
97,000000	0,000000	613,000000	0,000000	2020-10-29T19:31:57:349
98,000000	0,000000	613,000000	0,000000	2020-10-29T19:31:57:386
97,000000	0,000000	613,000000	0,000000	2020-10-29T19:31:57:428
97,000000	0,000000	613,000000	0,000000	2020-10-29T19:31:57:467
98,000000	0,000000	613,000000	0,000000	2020-10-29T19:31:57:509
98,000000	0,000000	613,000000	0,000000	2020-10-29T19:31:57:547
98,000000	0,000000	613,000000	0,000000	2020-10-29T19:31:57:589
98,000000	0,000000	613,000000	0,000000	2020-10-29T19:31:57:627
98,000000	0,000000	613,000000	0,000000	2020-10-29T19:31:57:668
98,000000	0,000000	613,000000	0,000000	2020-10-29T19:31:57:707
98,000000	0,000000	613,000000	0,000000	2020-10-29T19:31:57:749
97,000000	0,000000	535,000000	0,000000	2020-10-29T19:31:57:787
97,000000	0,000000	535,000000	0,000000	2020-10-29T19:31:57:830
97,000000	0,000000	535,000000	0,000000	2020-10-29T19:31:57:867
98,000000	0,000000	535,000000	0,000000	2020-10-29T19:31:57:909
98,000000	0,000000	535,000000	0,000000	2020-10-29T19:31:57:947
97,000000	0,000000	535,000000	0,000000	2020-10-29T19:31:57:988
97,000000	0,000000	535,000000	0,000000	2020-10-29T19:31:58:027
98,000000	0,000000	535,000000	0,000000	2020-10-29T19:31:58:070
98,000000	0,000000	535,000000	0,000000	2020-10-29T19:31:58:108
98,000000	0,000000	535,000000	0,000000	2020-10-29T19:31:58:149
97,000000	0,000000	535,000000	0,000000	2020-10-29T19:31:58:187
97,000000	0,000000	535,000000	0,000000	2020-10-29T19:31:58:228
97,000000	0,000000	535,000000	0,000000	2020-10-29T19:31:58:268
97,000000	0,000000	535,000000	0,000000	2020-10-29T19:31:58:309
97,000000	0,000000	535,000000	0,000000	2020-10-29T19:31:58:346
97,000000	0,000000	535,000000	0,000000	2020-10-29T19:31:58:388
97,000000	0,000000	535,000000	0,000000	2020-10-29T19:31:58:427
97,000000	0,000000	535,000000	0,000000	2020-10-29T19:31:58:469
97,000000	0,000000	535,000000	0,000000	2020-10-29T19:31:58:508
97,000000	0,000000	535,000000	0,000000	2020-10-29T19:31:58:551
97,000000	0,000000	535,000000	0,000000	2020-10-29T19:31:58:587
97,000000	0,000000	535,000000	0,000000	2020-10-29T19:31:58:629
97,000000	0,000000	535,000000	0,000000	2020-10-29T19:31:58:668
97,000000	0,000000	535,000000	0,000000	2020-10-29T19:31:58:709
97,000000	0,000000	535,000000	0,000000	2020-10-29T19:31:58:748
97,000000	0,000000	535,000000	0,000000	2020-10-29T19:31:58:791
97,000000	0,000000	535,000000	0,000000	2020-10-29T19:31:58:828
98,000000	0,000000	535,000000	0,000000	2020-10-29T19:31:58:869
98,000000	0,000000	535,000000	0,000000	2020-10-29T19:31:58:909
98,000000	0,000000	535,000000	0,000000	2020-10-29T19:31:58:950
97,000000	0,000000	535,000000	0,000000	2020-10-29T19:31:58:988
98,000000	0,000000	535,000000	0,000000	2020-10-29T19:31:59:032
98,000000	0,000000	535,000000	0,000000	2020-10-29T19:31:59:068
98,000000	0,000000	535,000000	0,000000	2020-10-29T19:31:59:110
98,000000	0,000000	535,000000	0,000000	2020-10-29T19:31:59:149
98,000000	0,000000	535,000000	0,000000	2020-10-29T19:31:59:191
98,000000	0,000000	535,000000	0,000000	2020-10-29T19:31:59:229
98,000000	0,000000	535,000000	0,000000	2020-10-29T19:31:59:271
98,000000	0,000000	535,000000	0,000000	2020-10-29T19:31:59:309
98,000000	0,000000	535,000000	0,000000	2020-10-29T19:31:59:350
98,000000	0,000000	535,000000	0,000000	2020-10-29T19:31:59:389
98,000000	0,000000	535,000000	0,000000	2020-10-29T19:31:59:430
98,000000	0,000000	535,000000	0,000000	2020-10-29T19:31:59:469
98,000000	0,000000	535,000000	0,000000	2020-10-29T19:31:59:513
98,000000	0,000000	535,000000	0,000000	2020-10-29T19:31:59:548
98,000000	0,000000	535,000000	0,000000	2020-10-29T19:31:59:590
98,000000	0,000000	535,000000	0,000000	2020-10-29T19:31:59:629
99,000000	0,000000	535,000000	0,000000	2020-10-29T19:31:59:669
98,000000	0,000000	535,000000	0,000000	2020-10-29T19:31:59:711
99,000000	0,000000	535,000000	0,000000	2020-10-29T19:31:59:751
99,000000	0,000000	535,000000	0,000000	2020-10-29T19:31:59:790
99,000000	0,000000	535,000000	0,000000	2020-10-29T19:31:59:830
99,000000	0,000000	535,000000	0,000000	2020-10-29T19:31:59:870
99,000000	0,000000	535,000000	0,000000	2020-10-29T19:31:59:911
99,000000	0,000000	535,000000	0,000000	2020-10-29T19:31:59:950
99,000000	0,000000	535,000000	0,000000	2020-10-29T19:31:59:991
99,000000	0,000000	535,000000	0,000000	2020-10-29T19:32:00:030
99,000000	0,000000	535,000000	0,000000	2020-10-29T19:32:00:070
99,000000	0,000000	535,000000	0,000000	2020-10-29T19:32:00:110
99,000000	0,000000	535,000000	0,000000	2020-10-29T19:32:00:151
99,000000	0,000000	535,000000	0,000000	2020-10-29T19:32:00:190
99,000000	0,000000	535,000000	0,000000	2020-10-29T19:32:00:232
99,000000	0,000000	535,000000	0,000000	2020-10-29T19:32:00:270
99,000000	0,000000	535,000000	0,000000	2020-10-29T19:32:00:311
99,000000	0,000000	535,000000	0,000000	2020-10-29T19:32:00:350
99,000000	0,000000	535,000000	0,000000	2020-10-29T19:32:00:391
99,000000	0,000000	535,000000	0,000000	2020-10-29T19:32:00:430
99,000000	0,000000	535,000000	0,000000	2020-10-29T19:32:00:473
99,000000	0,000000	535,000000	0,000000	2020-10-29T19:32:00:511
99,000000	0,000000	535,000000	0,000000	2020-10-29T19:32:00:551
99,000000	0,000000	535,000000	0,000000	2020-10-29T19:32:00:591
99,000000	0,000000	535,000000	0,000000	2020-10-29T19:32:00:631
99,000000	0,000000	535,000000	0,000000	2020-10-29T19:32:00:670
99,000000	0,000000	535,000000	0,000000	2020-10-29T19:32:00:714
99,000000	0,000000	535,000000	0,000000	2020-10-29T19:32:00:750
99,000000	0,000000	535,000000	0,000000	2020-10-29T19:32:00:791
99,000000	0,000000	535,000000	0,000000	2020-10-29T19:32:00:831
99,000000	0,000000	535,000000	0,000000	2020-10-29T19:32:00:872
98,000000	0,000000	535,000000	0,000000	2020-10-29T19:32:00:911
98,000000	0,000000	535,000000	0,000000	2020-10-29T19:32:00:954
98,000000	0,000000	535,000000	0,000000	2020-10-29T19:32:00:991
98,000000	0,000000	535,000000	0,000000	2020-10-29T19:32:01:032
98,000000	0,000000	535,000000	0,000000	2020-10-29T19:32:01:071
98,000000	0,000000	535,000000	0,000000	2020-10-29T19:32:01:112
98,000000	0,000000	535,000000	0,000000	2020-10-29T19:32:01:150
98,000000	0,000000	535,000000	0,000000	2020-10-29T19:32:01:193
98,000000	0,000000	535,000000	0,000000	2020-10-29T19:32:01:231
98,000000	0,000000	535,000000	0,000000	2020-10-29T19:32:01:272
98,000000	0,000000	535,000000	0,000000	2020-10-29T19:32:01:312
98,000000	0,000000	535,000000	0,000000	2020-10-29T19:32:01:352
98,000000	0,000000	535,000000	0,000000	2020-10-29T19:32:01:391
98,000000	0,000000	535,000000	0,000000	2020-10-29T19:32:01:434
98,000000	0,000000	535,000000	0,000000	2020-10-29T19:32:01:471
98,000000	0,000000	535,000000	0,000000	2020-10-29T19:32:01:515
98,000000	0,000000	535,000000	0,000000	2020-10-29T19:32:01:552
97,000000	0,000000	535,000000	0,000000	2020-10-29T19:32:01:593
97,000000	0,000000	535,000000	0,000000	2020-10-29T19:32:01:632
97,000000	0,000000	535,000000	0,000000	2020-10-29T19:32:01:675
97,000000	0,000000	535,000000	0,000000	2020-10-29T19:32:01:712
97,000000	0,000000	535,000000	0,000000	2020-10-29T19:32:01:753
97,000000	0,000000	535,000000	0,000000	2020-10-29T19:32:01:792
97,000000	0,000000	535,000000	0,000000	2020-10-29T19:32:01:833
97,000000	0,000000	535,000000	0,000000	2020-10-29T19:32:01:872
97,000000	0,000000	535,000000	0,000000	2020-10-29T19:32:01:915
97,000000	0,000000	535,000000	0,000000	2020-10-29T19:32:01:952
97,000000	0,000000	535,000000	0,000000	2020-10-29T19:32:01:993
97,000000	0,000000	535,000000	0,000000	2020-10-29T19:32:02:032
97,000000	0,000000	535,000000	0,000000	2020-10-29T19:32:02:073
97,000000	0,000000	535,000000	0,000000	2020-10-29T19:32:02:112
97,000000	0,000000	535,000000	0,000000	2020-10-29T19:32:02:155
97,000000	0,000000	535,000000	0,000000	2020-10-29T19:32:02:192
97,000000	0,000000	535,000000	0,000000	2020-10-29T19:32:02:233
97,000000	0,000000	535,000000	0,000000	2020-10-29T19:32:02:272
97,000000	0,000000	535,000000	0,000000	2020-10-29T19:32:02:313
97,000000	0,000000	535,000000	0,000000	2020-10-29T19:32:02:351
97,000000	0,000000	535,000000	0,000000	2020-10-29T19:32:02:395
97,000000	0,000000	535,000000	0,000000	2020-10-29T19:32:02:432
97,000000	0,000000	535,000000	0,000000	2020-10-29T19:32:02:473
97,000000	0,000000	535,000000	0,000000	2020-10-29T19:32:02:513
96,000000	0,000000	535,000000	0,000000	2020-10-29T19:32:02:553
96,000000	0,000000	535,000000	0,000000	2020-10-29T19:32:02:593
96,000000	0,000000	535,000000	0,000000	2020-10-29T19:32:02:635
97,000000	0,000000	535,000000	0,000000	2020-10-29T19:32:02:672
97,000000	0,000000	535,000000	0,000000	2020-10-29T19:32:02:714
96,000000	0,000000	535,000000	0,000000	2020-10-29T19:32:02:752
96,000000	0,000000	535,000000	0,000000	2020-10-29T19:32:02:794
96,000000	0,000000	535,000000	0,000000	2020-10-29T19:32:02:833
96,000000	0,000000	535,000000	0,000000	2020-10-29T19:32:02:874
96,000000	0,000000	535,000000	0,000000	2020-10-29T19:32:02:912
96,000000	0,000000	535,000000	0,000000	2020-10-29T19:32:02:953
96,000000	0,000000	535,000000	0,000000	2020-10-29T19:32:02:992
96,000000	0,000000	535,000000	0,000000	2020-10-29T19:32:03:033
96,000000	0,000000	535,000000	0,000000	2020-10-29T19:32:03:073
96,000000	0,000000	535,000000	0,000000	2020-10-29T19:32:03:116
96,000000	0,000000	535,000000	0,000000	2020-10-29T19:32:03:153
96,000000	0,000000	535,000000	0,000000	2020-10-29T19:32:03:194
96,000000	0,000000	535,000000	0,000000	2020-10-29T19:32:03:233
96,000000	0,000000	535,000000	0,000000	2020-10-29T19:32:03:274
96,000000	0,000000	535,000000	0,000000	2020-10-29T19:32:03:314
96,000000	0,000000	535,000000	0,000000	2020-10-29T19:32:03:355
96,000000	0,000000	535,000000	0,000000	2020-10-29T19:32:03:393
96,000000	0,000000	535,000000	0,000000	2020-10-29T19:32:03:434
96,000000	0,000000	535,000000	0,000000	2020-10-29T19:32:03:473
96,000000	0,000000	535,000000	0,000000	2020-10-29T19:32:03:515
96,000000	0,000000	535,000000	0,000000	2020-10-29T19:32:03:553
96,000000	0,000000	535,000000	0,000000	2020-10-29T19:32:03:596
96,000000	0,000000	535,000000	0,000000	2020-10-29T19:32:03:633
96,000000	0,000000	535,000000	0,000000	2020-10-29T19:32:03:675
96,000000	0,000000	535,000000	0,000000	2020-10-29T19:32:03:714
96,000000	0,000000	535,000000	0,000000	2020-10-29T19:32:03:754
96,000000	0,000000	535,000000	0,000000	2020-10-29T19:32:03:794
96,000000	0,000000	535,000000	0,000000	2020-10-29T19:32:03:837
96,000000	0,000000	535,000000	0,000000	2020-10-29T19:32:03:874
96,000000	0,000000	535,000000	0,000000	2020-10-29T19:32:03:915
96,000000	0,000000	535,000000	0,000000	2020-10-29T19:32:03:955
96,000000	0,000000	535,000000	0,000000	2020-10-29T19:32:03:994
96,000000	0,000000	535,000000	0,000000	2020-10-29T19:32:04:037
96,000000	0,000000	535,000000	0,000000	2020-10-29T19:32:04:076
96,000000	0,000000	535,000000	0,000000	2020-10-29T19:32:04:114
96,000000	0,000000	535,000000	0,000000	2020-10-29T19:32:04:155
96,000000	0,000000	535,000000	0,000000	2020-10-29T19:32:04:197
96,000000	0,000000	535,000000	0,000000	2020-10-29T19:32:04:236
96,000000	0,000000	535,000000	0,000000	2020-10-29T19:32:04:274
96,000000	0,000000	535,000000	0,000000	2020-10-29T19:32:04:318
96,000000	0,000000	535,000000	0,000000	2020-10-29T19:32:04:354
96,000000	0,000000	535,000000	0,000000	2020-10-29T19:32:04:395
96,000000	0,000000	535,000000	0,000000	2020-10-29T19:32:04:434
96,000000	0,000000	535,000000	0,000000	2020-10-29T19:32:04:475
96,000000	0,000000	535,000000	0,000000	2020-10-29T19:32:04:515
96,000000	0,000000	535,000000	0,000000	2020-10-29T19:32:04:557
96,000000	0,000000	535,000000	0,000000	2020-10-29T19:32:04:594
96,000000	0,000000	535,000000	0,000000	2020-10-29T19:32:04:635
96,000000	0,000000	535,000000	0,000000	2020-10-29T19:32:04:674
96,000000	0,000000	535,000000	0,000000	2020-10-29T19:32:04:716
96,000000	0,000000	535,000000	0,000000	2020-10-29T19:32:04:754
96,000000	0,000000	535,000000	0,000000	2020-10-29T19:32:04:797
96,000000	0,000000	535,000000	0,000000	2020-10-29T19:32:04:834
96,000000	0,000000	535,000000	0,000000	2020-10-29T19:32:04:876
96,000000	0,000000	535,000000	0,000000	2020-10-29T19:32:04:915
96,000000	0,000000	535,000000	0,000000	2020-10-29T19:32:04:955
96,000000	0,000000	535,000000	0,000000	2020-10-29T19:32:04:995
96,000000	0,000000	535,000000	0,000000	2020-10-29T19:32:05:038
96,000000	0,000000	535,000000	0,000000	2020-10-29T19:32:05:075
96,000000	0,000000	535,000000	0,000000	2020-10-29T19:32:05:116
95,000000	0,000000	535,000000	0,000000	2020-10-29T19:32:05:155
95,000000	0,000000	638,000000	0,000000	2020-10-29T19:32:05:196
96,000000	0,000000	638,000000	0,000000	2020-10-29T19:32:05:235
96,000000	0,000000	638,000000	0,000000	2020-10-29T19:32:05:278
95,000000	0,000000	638,000000	0,000000	2020-10-29T19:32:05:316
95,000000	0,000000	638,000000	0,000000	2020-10-29T19:32:05:356
95,000000	0,000000	638,000000	0,000000	2020-10-29T19:32:05:395
95,000000	0,000000	638,000000	0,000000	2020-10-29T19:32:05:436
95,000000	0,000000	638,000000	0,000000	2020-10-29T19:32:05:475
96,000000	0,000000	638,000000	0,000000	2020-10-29T19:32:05:519
95,000000	0,000000	638,000000	0,000000	2020-10-29T19:32:05:555
95,000000	0,000000	638,000000	0,000000	2020-10-29T19:32:05:597
95,000000	0,000000	638,000000	0,000000	2020-10-29T19:32:05:635
95,000000	0,000000	638,000000	0,000000	2020-10-29T19:32:05:677
95,000000	0,000000	638,000000	0,000000	2020-10-29T19:32:05:716
95,000000	0,000000	638,000000	0,000000	2020-10-29T19:32:05:758
95,000000	0,000000	638,000000	0,000000	2020-10-29T19:32:05:795
95,000000	0,000000	638,000000	0,000000	2020-10-29T19:32:05:837
95,000000	0,000000	638,000000	0,000000	2020-10-29T19:32:05:875
95,000000	0,000000	638,000000	0,000000	2020-10-29T19:32:05:917
95,000000	0,000000	638,000000	0,000000	2020-10-29T19:32:05:957
95,000000	0,000000	638,000000	0,000000	2020-10-29T19:32:05:999
95,000000	0,000000	638,000000	0,000000	2020-10-29T19:32:06:036
95,000000	0,000000	638,000000	0,000000	2020-10-29T19:32:06:078
95,000000	0,000000	638,000000	0,000000	2020-10-29T19:32:06:116
95,000000	0,000000	638,000000	0,000000	2020-10-29T19:32:06:158
95,000000	0,000000	638,000000	0,000000	2020-10-29T19:32:06:196
95,000000	0,000000	638,000000	0,000000	2020-10-29T19:32:06:239
95,000000	0,000000	638,000000	0,000000	2020-10-29T19:32:06:276
95,000000	0,000000	638,000000	0,000000	2020-10-29T19:32:06:318
95,000000	0,000000	638,000000	0,000000	2020-10-29T19:32:06:356
95,000000	0,000000	622,000000	0,000000	2020-10-29T19:32:06:398
95,000000	0,000000	622,000000	0,000000	2020-10-29T19:32:06:437
95,000000	0,000000	622,000000	0,000000	2020-10-29T19:32:06:479
95,000000	0,000000	622,000000	0,000000	2020-10-29T19:32:06:517
95,000000	0,000000	622,000000	0,000000	2020-10-29T19:32:06:557
95,000000	0,000000	622,000000	0,000000	2020-10-29T19:32:06:596
95,000000	0,000000	622,000000	0,000000	2020-10-29T19:32:06:638
95,000000	0,000000	622,000000	0,000000	2020-10-29T19:32:06:676
95,000000	0,000000	622,000000	0,000000	2020-10-29T19:32:06:720
95,000000	0,000000	622,000000	0,000000	2020-10-29T19:32:06:756
95,000000	0,000000	622,000000	0,000000	2020-10-29T19:32:06:798
95,000000	0,000000	622,000000	0,000000	2020-10-29T19:32:06:837
95,000000	0,000000	622,000000	0,000000	2020-10-29T19:32:06:878
95,000000	0,000000	622,000000	0,000000	2020-10-29T19:32:06:917
95,000000	0,000000	622,000000	0,000000	2020-10-29T19:32:06:960
95,000000	0,000000	622,000000	0,000000	2020-10-29T19:32:06:996
95,000000	0,000000	622,000000	0,000000	2020-10-29T19:32:07:038
95,000000	0,000000	622,000000	0,000000	2020-10-29T19:32:07:076
95,000000	0,000000	622,000000	0,000000	2020-10-29T19:32:07:119
95,000000	0,000000	622,000000	0,000000	2020-10-29T19:32:07:157
95,000000	0,000000	622,000000	0,000000	2020-10-29T19:32:07:200
95,000000	0,000000	622,000000	0,000000	2020-10-29T19:32:07:237
95,000000	0,000000	622,000000	0,000000	2020-10-29T19:32:07:278
95,000000	0,000000	622,000000	0,000000	2020-10-29T19:32:07:318
95,000000	0,000000	622,000000	0,000000	2020-10-29T19:32:07:358
95,000000	0,000000	622,000000	0,000000	2020-10-29T19:32:07:396
95,000000	0,000000	622,000000	0,000000	2020-10-29T19:32:07:439
95,000000	0,000000	622,000000	0,000000	2020-10-29T19:32:07:477
95,000000	0,000000	622,000000	0,000000	2020-10-29T19:32:07:519
95,000000	0,000000	622,000000	0,000000	2020-10-29T19:32:07:557
95,000000	0,000000	622,000000	0,000000	2020-10-29T19:32:07:598
95,000000	0,000000	622,000000	0,000000	2020-10-29T19:32:07:637
95,000000	0,000000	622,000000	0,000000	2020-10-29T19:32:07:680
95,000000	0,000000	622,000000	0,000000	2020-10-29T19:32:07:745
95,000000	0,000000	622,000000	0,000000	2020-10-29T19:32:07:759
95,000000	0,000000	622,000000	0,000000	2020-10-29T19:32:07:803
95,000000	0,000000	622,000000	0,000000	2020-10-29T19:32:07:837
95,000000	0,000000	622,000000	0,000000	2020-10-29T19:32:07:878
95,000000	0,000000	622,000000	0,000000	2020-10-29T19:32:07:920
95,000000	0,000000	622,000000	0,000000	2020-10-29T19:32:07:957
95,000000	0,000000	622,000000	0,000000	2020-10-29T19:32:07:998
95,000000	0,000000	622,000000	0,000000	2020-10-29T19:32:08:037
95,000000	0,000000	622,000000	0,000000	2020-10-29T19:32:08:078
95,000000	0,000000	622,000000	0,000000	2020-10-29T19:32:08:118
95,000000	0,000000	622,000000	0,000000	2020-10-29T19:32:08:159
95,000000	0,000000	622,000000	0,000000	2020-10-29T19:32:08:198
95,000000	0,000000	622,000000	0,000000	2020-10-29T19:32:08:239
95,000000	0,000000	622,000000	0,000000	2020-10-29T19:32:08:278
95,000000	0,000000	622,000000	0,000000	2020-10-29T19:32:08:319
95,000000	0,000000	622,000000	0,000000	2020-10-29T19:32:08:358
95,000000	0,000000	622,000000	0,000000	2020-10-29T19:32:08:400
95,000000	0,000000	622,000000	0,000000	2020-10-29T19:32:08:437
95,000000	0,000000	622,000000	0,000000	2020-10-29T19:32:08:479
95,000000	0,000000	622,000000	0,000000	2020-10-29T19:32:08:518
95,000000	0,000000	622,000000	0,000000	2020-10-29T19:32:08:559
96,000000	0,000000	622,000000	0,000000	2020-10-29T19:32:08:598
96,000000	0,000000	622,000000	0,000000	2020-10-29T19:32:08:641
96,000000	0,000000	622,000000	0,000000	2020-10-29T19:32:08:678
95,000000	0,000000	622,000000	0,000000	2020-10-29T19:32:08:719
96,000000	0,000000	622,000000	0,000000	2020-10-29T19:32:08:758
96,000000	0,000000	622,000000	0,000000	2020-10-29T19:32:08:799
96,000000	0,000000	622,000000	0,000000	2020-10-29T19:32:08:838
96,000000	0,000000	622,000000	0,000000	2020-10-29T19:32:08:881
96,000000	0,000000	622,000000	0,000000	2020-10-29T19:32:08:918
96,000000	0,000000	622,000000	0,000000	2020-10-29T19:32:08:960
96,000000	0,000000	622,000000	0,000000	2020-10-29T19:32:08:998
96,000000	0,000000	622,000000	0,000000	2020-10-29T19:32:09:039
96,000000	0,000000	622,000000	0,000000	2020-10-29T19:32:09:077
96,000000	0,000000	622,000000	0,000000	2020-10-29T19:32:09:123
96,000000	0,000000	622,000000	0,000000	2020-10-29T19:32:09:158
96,000000	0,000000	622,000000	0,000000	2020-10-29T19:32:09:202
96,000000	0,000000	622,000000	0,000000	2020-10-29T19:32:09:238
96,000000	0,000000	622,000000	0,000000	2020-10-29T19:32:09:279
96,000000	0,000000	622,000000	0,000000	2020-10-29T19:32:09:319
96,000000	0,000000	622,000000	0,000000	2020-10-29T19:32:09:362
96,000000	0,000000	586,000000	0,000000	2020-10-29T19:32:09:399
96,000000	0,000000	586,000000	0,000000	2020-10-29T19:32:09:440
96,000000	0,000000	586,000000	0,000000	2020-10-29T19:32:09:479
96,000000	0,000000	586,000000	0,000000	2020-10-29T19:32:09:521
96,000000	0,000000	586,000000	0,000000	2020-10-29T19:32:09:559
96,000000	0,000000	586,000000	0,000000	2020-10-29T19:32:09:601
96,000000	0,000000	586,000000	0,000000	2020-10-29T19:32:09:639
96,000000	0,000000	586,000000	0,000000	2020-10-29T19:32:09:680
96,000000	0,000000	586,000000	0,000000	2020-10-29T19:32:09:720
96,000000	0,000000	586,000000	0,000000	2020-10-29T19:32:09:760
96,000000	0,000000	586,000000	0,000000	2020-10-29T19:32:09:799
96,000000	0,000000	586,000000	0,000000	2020-10-29T19:32:09:841
96,000000	0,000000	586,000000	0,000000	2020-10-29T19:32:09:879
96,000000	0,000000	586,000000	0,000000	2020-10-29T19:32:09:921
96,000000	0,000000	586,000000	0,000000	2020-10-29T19:32:09:959
96,000000	0,000000	586,000000	0,000000	2020-10-29T19:32:10:000
96,000000	0,000000	586,000000	0,000000	2020-10-29T19:32:10:039
96,000000	0,000000	586,000000	0,000000	2020-10-29T19:32:10:082
96,000000	0,000000	586,000000	0,000000	2020-10-29T19:32:10:120
96,000000	0,000000	586,000000	0,000000	2020-10-29T19:32:10:160
96,000000	0,000000	586,000000	0,000000	2020-10-29T19:32:10:199
96,000000	0,000000	586,000000	0,000000	2020-10-29T19:32:10:240
96,000000	0,000000	586,000000	0,000000	2020-10-29T19:32:10:279
96,000000	0,000000	586,000000	0,000000	2020-10-29T19:32:10:325
96,000000	0,000000	586,000000	0,000000	2020-10-29T19:32:10:359
96,000000	0,000000	586,000000	0,000000	2020-10-29T19:32:10:400
96,000000	0,000000	586,000000	0,000000	2020-10-29T19:32:10:440
96,000000	0,000000	586,000000	0,000000	2020-10-29T19:32:10:480
96,000000	0,000000	586,000000	0,000000	2020-10-29T19:32:10:520
96,000000	0,000000	586,000000	0,000000	2020-10-29T19:32:10:562
96,000000	0,000000	692,000000	0,000000	2020-10-29T19:32:10:599
96,000000	0,000000	692,000000	0,000000	2020-10-29T19:32:10:640
96,000000	0,000000	692,000000	0,000000	2020-10-29T19:32:10:680
96,000000	0,000000	692,000000	0,000000	2020-10-29T19:32:10:722
96,000000	0,000000	692,000000	0,000000	2020-10-29T19:32:10:759
96,000000	0,000000	692,000000	0,000000	2020-10-29T19:32:10:803
96,000000	0,000000	692,000000	0,000000	2020-10-29T19:32:10:840
96,000000	0,000000	692,000000	0,000000	2020-10-29T19:32:10:881
96,000000	0,000000	692,000000	0,000000	2020-10-29T19:32:10:921
97,000000	0,000000	692,000000	0,000000	2020-10-29T19:32:10:961
97,000000	0,000000	692,000000	0,000000	2020-10-29T19:32:11:000
97,000000	0,000000	692,000000	0,000000	2020-10-29T19:32:11:041
97,000000	0,000000	692,000000	0,000000	2020-10-29T19:32:11:080
97,000000	0,000000	692,000000	0,000000	2020-10-29T19:32:11:122
97,000000	0,000000	692,000000	0,000000	2020-10-29T19:32:11:160
97,000000	0,000000	692,000000	0,000000	2020-10-29T19:32:11:201
97,000000	0,000000	692,000000	0,000000	2020-10-29T19:32:11:240
97,000000	0,000000	692,000000	0,000000	2020-10-29T19:32:11:283
97,000000	0,000000	692,000000	0,000000	2020-10-29T19:32:11:320
97,000000	0,000000	692,000000	0,000000	2020-10-29T19:32:11:361
97,000000	0,000000	692,000000	0,000000	2020-10-29T19:32:11:400
97,000000	0,000000	692,000000	0,000000	2020-10-29T19:32:11:442
97,000000	0,000000	692,000000	0,000000	2020-10-29T19:32:11:481
97,000000	0,000000	692,000000	0,000000	2020-10-29T19:32:11:524
97,000000	0,000000	692,000000	0,000000	2020-10-29T19:32:11:561
97,000000	0,000000	692,000000	0,000000	2020-10-29T19:32:11:602
97,000000	0,000000	692,000000	0,000000	2020-10-29T19:32:11:641
97,000000	0,000000	692,000000	0,000000	2020-10-29T19:32:11:681
97,000000	0,000000	692,000000	0,000000	2020-10-29T19:32:11:721
97,000000	0,000000	692,000000	0,000000	2020-10-29T19:32:11:764
97,000000	0,000000	692,000000	0,000000	2020-10-29T19:32:11:801
97,000000	0,000000	692,000000	0,000000	2020-10-29T19:32:11:842
97,000000	0,000000	692,000000	0,000000	2020-10-29T19:32:11:881
98,000000	0,000000	692,000000	0,000000	2020-10-29T19:32:11:923
97,000000	0,000000	692,000000	0,000000	2020-10-29T19:32:11:961
97,000000	0,000000	692,000000	0,000000	2020-10-29T19:32:12:004
97,000000	0,000000	692,000000	0,000000	2020-10-29T19:32:12:041
98,000000	0,000000	692,000000	0,000000	2020-10-29T19:32:12:082
98,000000	0,000000	692,000000	0,000000	2020-10-29T19:32:12:122
98,000000	0,000000	692,000000	0,000000	2020-10-29T19:32:12:162
97,000000	0,000000	692,000000	0,000000	2020-10-29T19:32:12:201
98,000000	0,000000	692,000000	0,000000	2020-10-29T19:32:12:244
98,000000	0,000000	692,000000	0,000000	2020-10-29T19:32:12:281
98,000000	0,000000	692,000000	0,000000	2020-10-29T19:32:12:324
98,000000	0,000000	692,000000	0,000000	2020-10-29T19:32:12:362
98,000000	0,000000	692,000000	0,000000	2020-10-29T19:32:12:402
98,000000	0,000000	692,000000	0,000000	2020-10-29T19:32:12:440
98,000000	0,000000	692,000000	0,000000	2020-10-29T19:32:12:484
98,000000	0,000000	692,000000	0,000000	2020-10-29T19:32:12:522
98,000000	0,000000	692,000000	0,000000	2020-10-29T19:32:12:563
98,000000	0,000000	692,000000	0,000000	2020-10-29T19:32:12:602
98,000000	0,000000	692,000000	0,000000	2020-10-29T19:32:12:643
98,000000	0,000000	692,000000	0,000000	2020-10-29T19:32:12:682
98,000000	0,000000	692,000000	0,000000	2020-10-29T19:32:12:725
98,000000	0,000000	692,000000	0,000000	2020-10-29T19:32:12:761
98,000000	0,000000	692,000000	0,000000	2020-10-29T19:32:12:803
98,000000	0,000000	692,000000	0,000000	2020-10-29T19:32:12:842
98,000000	0,000000	692,000000	0,000000	2020-10-29T19:32:12:883
98,000000	0,000000	692,000000	0,000000	2020-10-29T19:32:12:922
98,000000	0,000000	692,000000	0,000000	2020-10-29T19:32:12:965
98,000000	0,000000	601,000000	0,000000	2020-10-29T19:32:13:002
98,000000	0,000000	601,000000	0,000000	2020-10-29T19:32:13:043
98,000000	0,000000	601,000000	0,000000	2020-10-29T19:32:13:082
