1602622112.00
64.000000
-0.00
-0.00
-0.00
-0.00
-0.00
-0.00
-0.00
-0.00
-0.00
-0.00
0.00
0.01
0.01
-0.00
-0.03
-0.05
-0.05
0.00
0.13
0.36
0.66
1.01
1.37
1.72
2.06
2.40
2.79
3.24
3.80
4.42
5.06
5.66
6.20
6.68
7.15
7.68
8.31
9.14
10.09
11.04
11.88
12.56
13.14
13.76
14.65
15.96
17.91
20.32
22.90
25.38
27.58
29.57
31.68
34.32
37.81
42.54
48.15
54.10
59.83
64.97
69.58
74.14
79.34
85.71
93.76
103.00
112.62
121.73
129.77
136.75
143.30
150.75
157.77
166.64
177.95
191.79
206.97
220.57
228.25
225.36
208.53
176.87
132.76
80.05
23.07
-34.94
-92.44
-149.16
-205.23
-260.37
-313.74
-363.87
-409.83
-450.91
-486.50
-515.74
-537.23
-549.22
-549.96
-538.37
-514.21
-478.67
-433.88
-382.45
-327.02
-269.84
-212.63
-156.66
-102.95
-52.37
-5.90
35.58
71.43
101.35
125.50
144.38
158.69
169.15
176.37
180.75
182.57
182.07
179.51
175.23
169.65
163.18
156.15
148.81
141.30
133.69
126.02
118.33
110.69
103.16
95.80
88.68
81.83
75.25
68.95
62.95
57.25
51.86
46.78
42.03
37.59
33.45
29.61
26.07
22.81
19.83
17.11
14.67
12.48
10.54
8.83
7.35
6.07
4.97
4.05
3.27
2.62
2.09
1.65
1.30
1.01
0.79
0.61
0.48
0.38
0.30
0.25
0.22
0.20
0.20
0.21
0.22
0.25
0.28
0.31
0.35
0.40
0.44
0.49
0.53
0.58
0.63
0.69
0.75
0.81
0.88
0.96
1.04
1.13
1.23
1.35
1.48
1.62
1.78
1.96
2.16
2.38
2.63
2.90
3.20
3.53
3.89
4.29
4.72
5.18
5.68
6.23
6.81
7.43
8.10
8.81
9.57
10.37
11.21
12.11
13.04
14.04
15.08
16.20
17.38
18.61
19.88
21.17
22.40
23.52
24.41
24.93
24.95
24.33
23.00
20.89
18.05
14.56
10.52
6.12
1.53
-3.06
-7.48
-11.54
-15.10
-18.03
-20.25
-21.73
-22.51
-22.71
-22.46
-21.93
-21.23
-20.44
-19.55
-18.52
-17.32
-15.96
-14.57
-13.29
-12.27
-11.61
-11.23
-10.98
-10.64
-10.03
-9.16
-8.21
-7.50
-7.33
-7.84
-8.93
-10.28
-11.44
-12.07
-12.11
-11.89
-11.91
-12.69
-14.53
-17.31
-20.57
-23.75
-26.30
-28.06
-29.29
-30.48
-32.25
-35.35
-40.45
-47.85
-57.08
-66.57
-73.75
-75.92
-71.13
-59.25
-42.29
-23.75
-7.31
4.39
10.42
12.18
11.16
9.11
7.58
7.59
9.73
14.19
20.74
28.74
37.09
44.45
49.80
52.57
52.90
51.48
49.32
47.40
46.37
46.36
46.91
47.35
46.92
45.15
41.96
37.77
33.32
29.39
26.53
24.79
23.92
23.36
22.54
21.09
18.95
16.35
13.60
10.93
8.32
5.59
2.47
-1.17
-5.28
-9.61
-13.81
-17.60
-20.85
-23.64
-26.15
-28.64
-31.37
-34.59
-38.48
-42.94
-47.50
-51.29
-53.12
-51.91
-47.10
-38.99
-28.69
-17.83
-7.95
-0.02
5.73
9.70
12.58
14.98
17.17
19.18
20.91
22.23
23.12
23.57
23.54
22.97
21.85
20.25
18.38
16.54
14.97
13.87
13.20
12.84
12.53
11.97
10.87
9.01
6.31
2.81
-1.23
-5.45
-9.43
-12.89
-15.73
-18.14
-20.52
-23.32
-26.98
-31.66
-37.22
-43.09
-48.35
-51.90
-52.67
-50.05
-44.05
-35.42
-25.37
-15.28
-6.24
1.20
6.99
11.53
15.29
18.68
21.89
24.97
27.80
30.21
31.96
32.89
32.90
32.08
30.70
29.12
27.67
26.55
25.75
25.16
24.57
23.77
22.64
21.11
19.16
16.83
14.16
11.25
8.13
4.81
1.27
-2.49
-6.45
-10.47
-14.38
-18.06
-21.48
-24.78
-28.22
-32.14
-36.85
-42.46
-48.74
-54.96
-60.01
-62.53
-61.40
-56.14
-47.19
-35.87
-23.94
-13.03
-4.09
2.79
8.23
13.08
17.98
23.08
28.09
32.58
36.19
38.85
40.66
41.79
42.33
42.19
41.30
39.76
37.89
36.19
35.09
34.75
34.94
35.16
34.87
33.78
31.86
29.38
26.64
23.86
21.10
18.32
15.46
12.52
9.50
6.43
3.25
-0.17
-3.91
-7.92
-12.05
-16.02
-19.60
-22.74
-25.64
-28.71
-32.49
-37.46
-43.79
-51.17
-58.78
-65.33
-69.40
-69.74
-65.73
-57.64
-46.53
-34.03
-21.80
-11.08
-2.44
4.22
9.44
13.86
17.98
22.02
25.97
29.64
32.83
35.33
37.00
37.75
37.58
36.57
34.94
33.05
31.31
30.05
29.44
29.39
29.57
29.54
28.89
27.35
24.85
21.51
17.56
13.25
8.86
4.55
0.43
-3.50
-7.29
-10.98
-14.55
-17.98
-21.21
-24.23
-27.21
-30.43
-34.29
-39.12
-44.99
-51.44
-57.42
-61.49
-62.20
-58.65
-50.83
-39.77
-27.21
-15.03
-4.68
3.20
8.77
12.73
15.92
18.94
22.07
25.20
27.99
30.08
31.19
31.24
30.34
28.80
27.01
25.34
24.16
23.61
23.69
24.13
24.56
24.55
23.89
22.49
20.48
18.02
15.18
11.92
8.14
3.82
-0.88
-5.70
-10.32
-14.56
-18.45
-22.21
-26.18
-30.71
-36.08
-42.37
-49.32
-56.22
-61.94
-65.05
-64.37
-59.36
-50.43
-38.93
-26.60
-15.06
-5.24
2.68
9.12
14.66
19.70
24.38
28.66
32.46
35.74
38.45
40.49
41.63
41.68
40.56
38.48
35.91
33.46
31.63
30.72
30.67
31.15
31.66
31.68
30.87
29.13
26.56
23.47
20.12
16.73
13.33
9.83
6.06
1.88
-2.76
-7.81
-13.08
-18.30
-23.17
-27.48
-31.24
-34.73
-38.56
-43.35
-49.52
-56.88
-64.49
-70.75
-73.87
-72.49
-66.18
-55.69
-42.64
-29.00
-16.48
-6.00
2.30
8.95
14.66
20.09
25.57
31.13
36.51
41.34
45.26
48.01
49.52
49.96
49.57
48.62
47.36
45.93
44.47
43.15
42.16
41.59
41.37
41.25
40.83
39.75
37.80
35.03
31.72
28.17
24.66
21.31
18.05
14.77
11.30
7.55
3.46
-0.96
-5.71
-10.73
-15.89
-20.98
-25.70
-29.81
-33.26
-36.29
-39.43
-43.36
-48.66
-55.45
-63.24
-70.80
-76.47
-78.60
-76.03
-68.58
-57.09
-43.22
-28.88
-15.70
-4.63
4.18
11.14
16.89
21.99
26.72
31.11
35.02
38.26
40.71
42.29
42.97
42.77
41.72
39.99
37.92
35.95
34.54
33.96
34.19
34.85
35.36
35.16
33.87
31.44
28.10
24.23
20.21
16.30
12.67
9.26
5.94
2.51
-1.26
-5.45
-9.96
-14.49
-18.67
-22.17
-24.98
-27.44
-30.13
-33.72
-38.71
-45.17
-52.61
-60.00
-65.84
-68.59
-67.00
-60.62
-49.94
-36.38
-21.86
-8.25
3.07
11.54
17.34
21.12
23.71
25.78
27.78
29.77
31.64
33.13
33.94
33.89
32.98
31.43
29.64
28.00
26.89
26.42
26.48
26.73
26.78
26.24
24.89
22.70
19.80
16.39
12.59
8.49
4.05
-0.72
-5.78
-10.94
-15.93
-20.51
-24.52
-28.02
-31.30
-34.82
-39.10
-44.50
-51.03
-58.18
-64.91
-69.75
-71.17
-68.05
-60.14
-48.25
-34.07
-19.67
-6.86
3.34
10.87
16.39
20.81
24.91
28.96
32.91
36.46
39.31
41.29
42.31
42.33
41.36
39.51
37.06
34.49
32.34
31.06
30.80
31.28
31.97
32.18
31.45
29.60
26.81
23.41
19.73
15.96
12.09
8.06
3.75
-0.93
-5.95
-11.25
-16.65
-21.89
-26.67
-30.85
-34.49
-38.02
-42.11
-47.42
-54.27
-62.31
-70.42
-76.87
-79.82
-77.87
-70.62
-58.86
-44.30
-29.07
-15.05
-3.33
5.85
12.96
18.75
23.87
28.70
33.31
37.60
41.40
44.50
46.73
47.95
48.13
47.40
46.07
44.62
43.50
42.99
43.10
43.55
43.91
43.76
42.85
41.11
38.68
35.77
32.56
29.18
25.65
21.96
18.12
14.17
10.22
6.39
2.79
-0.57
-3.72
-6.86
-10.17
-13.85
-17.98
-22.49
-27.13
-31.57
-35.54
-38.98
-42.14
-45.56
-49.91
-55.69
-62.91
-70.85
-78.08
-82.77
-83.20
-78.35
-68.29
-54.26
-38.28
-22.54
-8.83
1.94
9.75
15.30
19.54
23.36
27.27
31.36
35.37
38.91
41.59
43.20
43.71
43.24
41.99
40.17
38.08
36.04
34.44
33.58
33.53
34.03
34.51
34.30
32.85
30.01
26.02
21.47
16.99
13.01
9.63
6.56
3.36
-0.44
-5.02
-10.24
-15.69
-20.82
-25.22
-28.74
-31.53
-34.04
-36.86
-40.62
-45.78
-52.40
-59.97
-67.31
-72.72
-74.43
-71.20
-62.79
-50.16
-35.21
-20.17
-6.92
3.51
10.98
16.07
19.63
22.45
25.01
27.44
29.58
31.17
31.97
31.86
30.99
29.66
28.21
26.88
25.74
24.69
23.55
22.21
20.71
19.17
17.70
16.30
14.77
12.83
10.24
6.87
2.83
-1.64
-6.23
-10.64
-14.72
-18.46
-22.04
-25.74
-29.87
-34.72
-40.49
-47.24
-54.73
-62.31
-68.81
-72.70
-72.50
-67.29
-57.16
-43.40
-28.09
-13.43
-1.12
8.15
14.62
19.09
22.47
25.46
28.42
31.43
34.43
37.23
39.56
41.11
41.56
40.81
38.97
36.47
33.89
31.78
30.54
30.23
30.57
31.01
30.92
29.75
27.23
23.48
18.90
14.12
9.67
5.84
2.53
-0.71
-4.43
-9.03
-14.50
-20.44
-26.21
-31.22
-35.21
-38.45
-41.61
-45.60
-51.15
-58.51
-67.21
-76.01
-83.12
-86.62
-85.02
-77.82
-65.66
-50.29
-33.99
-18.85
-6.24
3.48
10.79
16.64
21.98
27.38
32.97
38.47
43.44
47.44
50.15
51.51
51.63
50.78
49.27
47.48
45.77
44.43
43.69
43.58
43.95
44.45
44.67
44.21
42.85
40.59
37.56
34.01
30.17
26.24
22.35
18.56
14.84
11.12
7.24
2.98
-1.81
-7.18
-12.97
-18.87
-24.44
-29.34
-33.42
-36.85
-40.07
-43.69
-48.33
-54.43
-61.97
-70.43
-78.63
-84.91
-87.45
-84.87
-76.72
-63.76
-47.80
-31.14
-15.89
-3.39
6.01
12.81
17.96
22.40
26.79
31.37
36.02
40.39
44.07
46.75
48.29
48.76
48.34
47.30
45.85
44.21
42.59
41.25
40.41
40.18
40.35
40.46
39.84
37.99
34.74
30.45
25.79
21.45
17.79
14.65
11.48
7.66
2.83
-2.89
-9.01
-14.89
-20.06
-24.38
-28.00
-31.24
-34.53
-38.31
-43.07
-49.18
-56.75
-65.30
-73.57
-79.74
-81.81
-78.41
-69.29
-55.56
-39.33
-23.05
-8.70
2.66
10.96
16.87
21.25
24.87
28.14
31.15
33.83
35.97
37.38
37.91
37.56
36.42
34.72
32.74
30.75
29.00
27.58
26.53
25.74
25.03
24.10
22.67
20.46
17.32
13.28
8.45
3.08
-2.57
-8.22
-13.64
-18.67
-23.29
-27.57
-31.70
-36.00
-40.79
-46.42
-53.13
-60.73
-68.47
-74.98
-78.49
-77.36
-70.79
-59.14
-43.99
-27.62
-12.23
0.63
10.46
17.63
22.98
27.39
31.44
35.31
38.86
41.79
43.79
44.69
44.51
43.42
41.71
39.67
37.55
35.49
33.58
31.84
30.30
28.92
27.62
26.26
24.61
22.44
19.52
15.70
10.95
5.37
-0.80
-7.17
-13.40
-19.14
-24.25
-28.82
-33.21
-37.96
-43.70
-50.93
-59.68
-69.33
-78.46
-85.12
-87.31
-83.64
-73.89
-59.19
-41.73
-24.05
-8.26
4.45
13.97
20.96
26.38
31.08
35.60
40.12
44.57
48.71
52.21
54.71
55.88
55.54
53.73
50.81
47.39
44.24
42.02
41.08
41.27
42.03
42.52
41.94
39.87
36.32
31.75
26.78
21.89
17.31
12.87
8.21
2.97
-3.07
-9.78
-16.84
-23.75
-30.11
-35.72
-40.62
-45.16
-49.85
-55.38
-62.28
-70.78
-80.42
-89.87
-97.10
-99.90
-96.59
-86.74
-71.38
-52.74
-33.49
-15.93
-1.40
9.86
18.39
25.10
30.89
36.36
41.82
47.30
52.55
57.19
60.75
62.84
63.31
62.27
60.15
57.47
54.81
52.59
51.06
50.25
50.00
49.99
49.81
48.96
47.06
43.92
39.62
34.53
29.15
24.00
19.38
15.24
11.30
7.09
2.23
-3.45
-9.78
-16.43
-22.93
-28.93
-34.28
-39.05
-43.53
-48.17
-53.52
-60.18
-68.51
-78.33
-88.58
-97.36
-102.25
-101.12
-92.94
-78.36
-59.54
-39.46
-20.91
-5.67
5.79
14.11
20.41
25.70
30.65
35.47
40.13
44.47
48.29
51.32
53.24
53.81
52.96
50.98
48.40
45.92
44.09
43.14
42.92
42.96
42.68
41.64
39.62
36.69
33.09
29.06
24.74
20.07
14.88
8.97
2.30
-4.94
-12.37
-19.52
-26.00
-31.64
-36.54
-41.12
-45.99
-51.89
-59.33
-68.26
-77.80
-86.17
-91.05
-90.35
-82.95
-69.28
-51.32
-31.88
-13.80
1.02
11.90
19.36
24.48
28.40
31.87
35.12
38.05
40.40
41.93
42.53
42.23
41.15
39.51
37.54
35.42
33.27
31.20
29.30
27.71
26.53
25.70
24.91
23.61
21.09
16.83
10.71
3.13
-5.07
-12.96
-19.88
-25.64
-30.60
-35.41
-40.83
-47.49
-55.72
-65.46
-76.09
-86.41
-94.62
-98.69
-96.84
-88.23
-73.38
-54.24
-33.57
-14.23
1.79
13.76
22.18
28.29
33.35
38.21
43.04
47.54
51.22
53.67
54.75
54.56
53.35
51.39
48.95
46.25
43.49
40.85
38.48
36.50
34.88
33.51
32.12
30.34
27.78
24.08
19.03
12.66
5.26
-2.68
-10.57
-17.96
-24.64
-30.73
-36.69
-43.12
-50.62
-59.62
-70.16
-81.74
-93.09
-102.35
-107.27
-105.90
-97.30
-81.99
-62.01
-40.28
-19.73
-2.35
11.17
21.39
29.53
36.80
43.91
50.96
57.59
63.26
67.53
70.18
71.17
70.61
68.67
65.64
61.93
58.14
54.94
52.92
52.34
52.92
53.88
54.17
52.81
49.32
43.88
37.23
30.33
23.96
18.40
13.35
8.14
2.08
-5.16
-13.40
-21.98
-30.10
-37.08
-42.70
-47.23
-51.46
-56.42
-63.09
-72.04
-83.09
-95.04
-105.76
-112.59
-113.07
-105.86
-91.25
-71.15
-48.53
-26.48
-7.26
8.17
20.05
29.37
37.29
44.69
52.00
59.21
66.00
71.94
76.50
79.25
79.96
78.72
75.94
72.38
68.84
66.05
64.40
63.85
64.02
64.31
64.16
63.17
61.17
58.13
54.10
49.19
43.50
37.26
30.76
24.30
18.16
12.42
7.05
1.89
-3.27
-8.61
-14.26
-20.23
-26.44
-32.65
-38.56
-43.92
-48.59
-52.71
-56.75
-61.46
-67.61
-75.74
-85.68
-96.34
-105.64
-111.01
-110.15
-101.87
-86.66
-66.58
-44.70
-24.01
-6.60
6.78
16.57
23.87
29.89
35.43
40.86
46.10
50.83
54.72
57.43
58.73
58.57
57.06
54.49
51.33
48.14
45.46
43.69
42.96
43.03
43.36
43.20
41.87
39.01
34.71
29.46
23.95
18.79
14.27
10.24
6.25
1.74
-3.65
-9.91
-16.62
-23.14
-28.86
-33.52
-37.30
-40.78
-44.80
-50.19
-57.50
-66.71
-77.05
-86.91
-94.11
-96.36
-92.04
-80.85
-64.04
-44.14
-24.13
-6.58
7.12
16.89
23.62
28.61
32.92
37.07
41.04
44.41
46.73
47.69
47.29
45.79
43.61
41.19
38.93
37.08
35.75
34.93
34.45
34.01
33.23
31.74
29.30
25.91
21.73
16.97
11.81
6.26
0.30
-6.06
-12.65
-19.22
-25.50
-31.31
-36.64
-41.64
-46.59
-51.86
-57.92
-65.22
-73.82
-83.19
-91.88
-97.72
-98.43
-92.45
-79.64
-61.52
-40.86
-20.75
-3.66
9.26
18.19
24.25
28.84
33.04
37.39
41.91
46.23
49.84
52.24
53.13
52.45
50.46
47.64
44.60
41.87
39.78
38.36
37.39
36.50
35.30
33.53
31.02
27.73
23.68
18.86
13.30
7.03
0.19
-6.97
-14.17
-21.10
-27.56
-33.45
-38.89
-44.14
-49.67
-56.02
-63.67
-72.75
-82.75
-92.35
-99.55
-102.13
-98.44
-87.97
-71.71
-51.92
-31.40
-12.68
2.68
14.33
22.89
29.53
35.33
40.98
46.65
52.07
56.75
60.16
61.91
61.96
60.52
58.05
55.07
51.99
49.08
46.43
44.08
42.01
40.18
38.41
36.47
33.98
30.60
26.09
20.40
13.69
6.28
-1.42
-8.98
-16.06
-22.48
-28.27
-33.74
-39.37
-45.78
-53.55
-62.93
-73.58
-84.35
-93.35
-98.37
-97.49
-89.82
-75.88
-57.57
-37.59
-18.59
-2.45
10.08
19.33
26.29
32.06
37.43
42.67
47.61
51.79
54.69
56.01
55.70
53.99
51.30
48.03
44.54
41.06
37.78
34.90
32.64
31.09
30.12
29.26
27.72
24.72
19.70
12.68
4.27
-4.47
-12.48
-19.05
-24.11
-28.28
-32.54
-37.95
-45.28
-54.77
-65.95
-77.56
-87.69
-94.07
-94.75
-88.64
-76.11
-58.93
-39.81
-21.52
-6.05
5.85
14.68
21.57
27.66
33.54
39.11
43.85
47.16
48.75
48.70
47.43
45.38
42.83
39.87
36.52
32.94
29.45
26.55
24.57
23.49
22.81
21.67
19.22
14.92
8.86
1.68
-5.72
-12.48
-18.17
-22.93
-27.34
-32.21
-38.34
-46.26
-56.00
-66.93
-77.66
-86.17
-90.20
-87.98
-78.97
-64.16
-45.91
-27.13
-10.27
3.43
14.05
22.53
29.96
37.01
43.80
50.07
55.43
59.65
62.52
63.95
63.82
62.19
59.39
56.00
52.78
50.35
48.94
48.34
47.95
47.04
45.03
41.69
37.16
31.92
26.49
21.22
16.14
11.03
5.49
-0.70
-7.46
-14.46
-21.20
-27.31
-32.70
-37.67
-42.77
-48.69
-56.05
-65.20
-75.92
-87.24
-97.39
-104.10
-105.21
-99.48
-87.09
-69.74
-50.11
-30.97
-14.27
-0.74
10.03
19.08
27.43
35.66
43.83
51.60
58.48
64.02
67.85
69.82
69.97
68.62
66.33
63.83
61.72
60.39
59.81
59.71
59.66
59.30
58.39
56.82
54.54
51.49
47.68
43.14
38.02
32.60
27.20
22.07
17.30
12.85
8.50
4.03
-0.79
-6.01
-11.60
-17.41
-23.25
-28.94
-34.33
-39.31
-43.90
-48.25
-52.79
-58.07
-64.71
-72.96
-82.45
-91.91
-99.34
-102.50
-99.64
-90.29
-75.40
-57.22
-38.44
-21.27
-6.93
4.59
14.06
22.44
30.40
38.12
45.36
51.76
56.99
60.79
63.06
63.71
62.81
60.61
57.55
54.22
51.22
48.95
47.53
46.85
46.59
46.36
45.73
44.34
41.87
38.14
33.20
27.37
21.18
15.25
10.08
5.83
2.24
-1.19
-5.02
-9.60
-14.94
-20.67
-26.23
-31.11
-35.00
-37.91
-40.15
-42.32
-45.13
-49.26
-55.11
-62.57
-70.79
-78.21
-82.83
-82.84
-77.20
-66.20
-51.35
-35.01
-19.53
-6.59
3.20
10.23
15.43
19.79
23.97
28.18
32.26
35.83
38.52
40.00
40.16
39.09
37.09
34.66
32.30
30.44
29.28
28.79
28.70
28.69
28.34
27.39
25.68
23.23
20.20
16.78
13.15
9.34
5.26
0.83
-3.95
-8.92
-13.80
-18.29
-22.33
-26.06
-29.90
-34.40
-40.02
-46.92
-54.82
-62.82
-69.53
-73.32
-72.82
-67.34
-57.25
-43.95
-29.40
-15.60
-3.95
5.01
11.57
16.48
20.58
24.47
28.36
32.19
35.64
38.37
40.05
40.50
39.70
37.85
35.30
32.51
29.97
28.05
26.95
26.58
26.62
26.53
25.78
23.93
20.89
16.87
12.40
8.08
4.37
1.34
-1.37
-4.39
-8.32
-13.41
-19.34
-25.37
-30.68
-34.73
-37.61
-39.92
-42.58
-46.41
-51.83
-58.71
-66.36
-73.60
-78.97
-80.97
-78.49
-71.12
-59.46
-44.97
-29.62
-15.30
-3.27
6.03
12.93
18.17
22.55
26.66
30.73
34.71
38.27
41.00
42.55
42.77
41.73
39.78
37.35
34.94
32.93
31.60
31.02
31.13
31.61
32.03
31.93
30.93
28.89
25.90
22.14
17.79
12.93
7.58
1.79
-4.28
-10.37
-16.15
-21.37
-25.97
-30.11
-34.13
-38.46
-43.52
-49.50
-56.32
-63.34
-69.44
-73.19
-73.15
-68.46
-59.14
-46.27
-31.66
-17.30
-4.81
5.04
12.30
17.61
21.81
25.49
28.90
31.95
34.39
35.95
36.50
36.04
34.68
32.57
29.88
26.82
23.64
20.74
18.51
17.30
17.11
17.56
17.85
17.13
14.78
10.72
5.44
-0.22
-5.51
-10.04
-14.01
-17.98
-22.66
-28.57
-35.96
-44.64
-53.95
-62.78
-69.59
-72.76
-71.02
-63.93
-52.25
-37.70
-22.48
-8.55
2.92
11.67
18.18
23.21
27.39
31.06
34.32
37.07
39.20
40.58
41.04
40.44
38.67
35.84
32.27
28.52
25.18
22.66
21.03
19.89
18.63
16.56
13.29
8.83
3.61
-1.76
-6.83
-11.41
-15.75
-20.34
-25.78
-32.44
-40.26
-48.60
-56.25
-61.62
-63.11
-59.70
-51.24
-38.66
-23.77
-8.69
4.69
15.25
22.82
27.98
31.69
34.87
38.06
41.32
44.30
46.47
47.33
46.61
44.32
40.75
36.35
31.72
27.36
23.65
20.71
18.40
16.35
14.03
11.01
7.03
2.18
-3.18
-8.58
-13.64
-18.33
-22.93
-28.02
-34.13
-41.48
-49.70
-57.70
-63.90
-66.60
-64.52
-57.30
-45.65
-31.24
-16.17
-2.40
8.72
16.72
21.93
25.09
27.08
28.58
29.89
31.04
31.81
31.92
31.13
29.37
26.74
23.55
20.19
17.10
14.66
13.01
11.99
11.19
10.07
8.16
5.23
1.34
-3.14
-7.79
-12.26
-16.48
-20.74
-25.60
-31.70
-39.37
-48.29
-57.30
-64.50
-67.83
-65.73
-57.81
-45.08
-29.60
-13.85
0.15
11.29
19.42
25.09
29.08
32.07
34.49
36.57
38.40
39.91
40.95
41.20
40.35
38.23
34.93
30.88
26.68
22.95
20.06
18.06
16.61
15.14
13.06
9.96
5.70
0.45
-5.35
-11.23
-16.75
-21.73
-26.29
-30.88
-36.19
-42.75
-50.65
-59.18
-66.76
-71.31
-70.92
-64.62
-52.84
-37.36
-20.70
-5.21
7.59
17.35
24.58
30.21
35.04
39.49
43.56
47.03
49.66
51.22
51.62
50.83
48.93
46.05
42.49
38.60
34.71
31.18
28.26
26.04
24.44
23.22
22.00
20.36
17.92
14.45
9.95
4.63
-1.11
-6.84
-12.21
-17.09
-21.61
-26.04
-30.79
-36.27
-42.80
-50.47
-58.97
-67.47
-74.57
-78.58
-77.92
-71.75
-60.33
-45.07
-28.14
-11.75
2.42
13.60
21.90
28.05
32.91
37.18
41.18
44.92
48.17
50.59
51.92
52.03
50.93
48.83
46.06
43.04
40.19
37.89
36.34
35.54
35.18
34.79
33.79
31.80
28.68
24.66
20.12
15.46
10.87
6.27
1.46
-3.75
-9.35
-15.05
-20.45
-25.24
-29.35
-33.02
-36.70
-40.96
-46.24
-52.70
-59.99
-67.16
-72.68
-74.80
-72.05
-63.86
-50.86
-34.84
-18.12
-2.91
9.43
18.51
24.79
29.10
32.22
34.62
36.43
37.67
38.28
38.31
37.82
36.88
35.52
33.76
31.66
29.34
27.03
24.97
23.40
22.36
21.72
21.15
20.24
18.58
15.87
11.98
7.02
1.30
-4.76
-10.69
-16.13
-20.91
-25.14
-29.10
-33.21
-37.95
-43.68
-50.56
-58.28
-66.03
-72.41
-75.81
-74.82
-68.74
-57.91
-43.64
-27.83
-12.40
1.14
11.99
19.98
25.44
28.87
30.84
31.80
32.14
32.13
31.90
31.48
30.81
29.78
28.29
26.31
23.97
21.51
19.30
17.65
16.74
16.39
16.12
15.24
13.05
9.22
3.91
-2.27
-8.47
-13.96
-18.41
-22.06
-25.53
-29.68
-35.24
-42.59
-51.53
-61.20
-70.08
-76.26
-77.95
-74.01
-64.41
-50.39
-34.07
-17.82
-3.51
7.89
16.41
22.69
27.55
31.55
34.91
37.58
39.39
40.31
40.41
39.88
38.92
37.63
36.01
34.01
31.61
28.93
26.24
23.88
22.07
20.79
19.68
18.13
15.50
11.45
6.03
-0.27
-6.72
-12.68
-17.80
-22.16
-26.17
-30.36
-35.29
-41.40
-48.91
-57.67
-67.00
-75.57
-81.60
-83.27
-79.32
-69.61
-55.27
-38.42
-21.47
-6.42
5.65
14.70
21.40
26.71
31.42
35.93
40.26
44.16
47.28
49.31
50.12
49.74
48.37
46.30
43.84
41.26
38.83
36.73
35.10
33.96
33.18
32.52
31.61
30.05
27.45
23.60
18.51
12.46
5.89
-0.68
-6.88
-12.56
-17.83
-22.99
-28.46
-34.67
-41.97
-50.52
-60.11
-69.97
-78.67
-84.33
-85.09
-79.81
-68.58
-52.87
-35.08
-17.77
-2.85
8.86
17.67
24.53
30.37
35.77
40.72
44.87
47.86
49.57
50.21
50.16
49.68
48.82
47.44
45.37
42.66
39.63
36.79
34.59
33.19
32.41
31.72
30.49
28.13
24.33
19.06
12.64
5.58
-1.45
-7.88
-13.39
-17.98
-21.99
-25.97
-30.60
-36.48
-43.94
-52.80
-62.22
-70.67
-76.20
-76.99
-72.02
-61.43
-46.68
-30.03
-13.90
-0.11
10.50
18.07
23.33
27.21
30.36
33.08
35.27
36.71
37.20
36.68
35.32
33.35
30.97
28.33
25.54
22.78
20.34
18.57
17.66
17.49
17.51
16.90
14.84
10.90
5.22
-1.54
-8.45
-14.73
-20.05
-24.65
-29.25
-34.72
-41.78
-50.64
-60.85
-71.18
-79.82
-84.70
-84.13
-77.33
-64.82
-48.35
-30.35
-13.18
1.53
13.22
22.24
29.40
35.41
40.66
45.10
48.51
50.70
51.67
51.57
50.61
48.96
46.71
43.85
40.50
36.85
33.35
30.44
28.47
27.41
26.82
25.90
23.77
19.85
14.09
6.99
-0.56
-7.69
-13.91
-19.26
-24.29
-29.83
-36.64
-45.19
-55.42
-66.63
-77.49
-86.12
-90.55
-89.25
-81.62
-68.36
-51.32
-32.96
-15.54
-0.52
11.65
21.43
29.63
36.93
43.68
49.81
55.10
59.31
62.29
64.01
64.46
63.64
61.58
58.48
54.74
50.97
47.83
45.80
45.00
45.07
45.27
44.72
42.78
39.24
34.41
28.91
23.45
18.39
13.73
9.07
3.90
-2.10
-8.92
-16.19
-23.36
-29.93
-35.65
-40.60
-45.14
-49.91
-55.63
-62.95
-72.09
-82.47
-92.55
-100.02
-102.42
-97.98
-86.44
-69.20
-48.96
-28.76
-10.97
3.28
14.17
22.72
30.11
37.20
44.30
51.25
57.58
62.82
66.57
68.70
69.25
68.45
66.68
64.37
61.98
59.90
58.40
57.54
57.12
56.73
55.88
54.25
51.73
48.52
44.94
41.28
37.64
33.91
29.95
25.70
21.26
16.85
12.65
8.63
4.52
-0.07
-5.42
-11.56
-18.23
-24.93
-31.19
-36.74
-41.68
-46.36
-51.40
-57.50
-65.16
-74.45
-84.65
-94.23
-100.98
-102.68
-97.79
-86.17
-69.19
-49.34
-29.46
-11.82
2.35
13.00
20.85
26.89
32.01
36.73
41.26
45.51
49.30
52.31
54.24
54.80
53.90
51.71
48.71
45.60
43.11
41.75
41.61
42.35
43.24
43.48
42.39
39.68
35.46
30.24
24.66
19.32
14.52
10.20
6.03
1.55
-3.56
-9.37
-15.56
-21.63
-27.10
-31.62
-35.29
-38.50
-41.97
-46.48
-52.68
-60.69
-69.91
-78.81
-85.24
-86.96
-82.39
-71.35
-55.17
-36.38
-17.88
-1.92
10.40
19.27
25.65
30.68
35.14
39.31
43.05
46.06
48.11
49.08
48.93
47.71
45.55
42.71
39.64
36.92
34.99
34.06
33.90
33.99
33.70
32.51
30.26
27.07
23.30
19.24
15.06
10.66
5.87
0.54
-5.30
-11.38
-17.35
-22.82
-27.58
-31.68
-35.46
-39.53
-44.63
-51.39
-60.03
-70.06
-80.11
-88.12
-91.78
-89.37
-80.31
-65.51
-47.11
-27.80
-10.04
4.58
15.59
23.44
29.12
33.67
37.89
42.10
46.22
49.83
52.46
53.75
53.64
52.32
50.17
47.58
44.88
42.35
40.22
38.69
37.92
37.81
38.00
37.85
36.71
34.13
30.09
25.02
19.62
14.57
10.22
6.52
3.06
-0.77
-5.45
-11.17
-17.72
-24.54
-30.97
-36.46
-40.82
-44.33
-47.68
-51.79
-57.45
-65.07
-74.35
-84.19
-92.80
-98.09
-98.19
-92.09
-79.99
-63.26
-44.18
-25.20
-8.33
5.32
15.64
23.28
29.23
34.42
39.40
44.28
48.84
52.71
55.59
57.33
57.90
57.43
56.03
53.92
51.40
48.90
46.89
45.67
45.29
45.40
45.46
44.89
43.32
40.68
37.15
33.00
28.48
23.78
19.06
14.51
10.30
6.47
2.87
-0.86
-5.12
-10.16
-15.88
-21.89
-27.65
-32.70
-36.97
-40.68
-44.36
-48.60
-53.94
-60.72
-68.98
-78.26
-87.49
-94.97
-98.66
-96.75
-88.33
-73.86
-55.20
-35.12
-16.39
-0.98
10.38
18.23
23.79
28.38
32.88
37.55
42.15
46.24
49.40
51.41
52.19
51.71
50.01
47.28
43.87
40.33
37.28
35.15
33.96
33.33
32.59
31.10
28.51
24.96
20.83
16.63
12.60
8.69
4.55
-0.18
-5.65
-11.67
-17.78
-23.49
-28.46
-32.70
-36.47
-40.32
-44.88
-50.77
-58.31
-67.28
-76.64
-84.54
-88.74
-87.24
-79.14
-65.05
-47.02
-27.87
-10.28
3.97
14.37
21.43
26.17
29.58
32.31
34.58
36.35
37.52
37.98
37.74
36.85
35.35
33.35
30.99
28.51
26.19
24.29
22.96
22.14
21.63
21.08
20.10
18.38
15.63
11.71
6.61
0.53
-6.11
-12.73
-18.80
-24.04
-28.56
-32.89
-37.84
-44.19
-52.37
-62.14
-72.50
-81.72
-87.72
-88.63
-83.37
-72.06
-56.14
-37.93
-19.97
-4.29
8.07
17.11
23.55
28.36
32.40
36.12
39.65
42.86
45.49
47.29
48.05
47.65
46.11
43.66
40.64
37.45
34.50
32.02
30.07
28.56
27.24
25.81
23.92
21.25
17.51
12.58
6.50
-0.44
-7.74
-14.85
-21.30
-26.95
-31.98
-36.90
-42.37
-49.01
-57.20
-66.82
-77.17
-86.82
-93.88
-96.43
-93.07
-83.52
-68.81
-51.08
-32.81
-16.18
-2.34
8.57
17.22
24.52
31.21
37.59
43.60
48.96
53.32
56.40
58.01
58.08
56.71
54.17
50.96
47.69
44.95
43.07
42.05
41.47
40.69
39.17
36.62
33.20
29.34
25.47
21.76
18.01
13.79
8.70
2.63
-4.13
-11.00
-17.41
-23.00
-27.85
-32.39
-37.32
-43.40
-51.17
-60.84
-71.89
-83.00
-92.11
-96.89
-95.47
-87.15
-72.75
-54.44
-35.05
-17.15
-2.31
9.08
17.64
24.45
30.47
36.28
41.97
47.33
51.99
55.59
57.86
58.70
58.23
56.65
54.31
51.58
48.77
46.09
43.62
41.34
39.23
37.20
35.19
33.05
30.49
27.16
22.72
17.05
10.38
3.26
-3.63
-9.79
-15.05
-19.64
-24.08
-28.93
-34.68
-41.70
-50.10
-59.63
-69.40
-77.88
-83.08
-83.16
-77.08
-65.21
-49.30
-31.90
-15.59
-2.08
8.16
15.72
21.71
27.14
32.49
37.56
41.80
44.62
45.77
45.38
43.95
41.97
39.82
37.56
35.15
32.59
30.09
28.02
26.73
26.20
25.99
25.24
23.06
18.87
12.72
5.28
-2.37
-9.22
-14.68
-18.75
-22.04
-25.41
-29.70
-35.52
-43.11
-52.30
-62.43
-72.32
-80.29
-84.50
-83.41
-76.42
-64.17
-48.50
-31.84
-16.44
-3.67
6.24
14.01
20.72
27.30
34.10
40.83
46.81
51.28
53.73
54.09
52.71
50.23
47.33
44.51
42.02
39.87
38.02
36.40
35.01
33.85
32.79
31.55
29.74
26.94
22.85
17.39
10.74
3.32
-4.25
-11.40
-17.69
-23.04
-27.73
-32.32
-37.52
-43.96
-51.98
-61.40
-71.43
-80.65
-87.31
-89.68
-86.70
-78.32
-65.65
-50.58
-35.15
-20.95
-8.66
1.85
11.30
20.49
29.93
39.63
49.11
57.55
64.10
68.17
69.69
69.08
67.05
64.34
61.46
58.71
56.25
54.29
53.06
52.62
52.63
52.32
50.76
47.24
41.72
34.81
27.59
21.03
15.55
10.96
6.61
1.80
-3.84
-10.20
-16.81
-23.06
-28.54
-33.21
-37.45
-42.01
-47.68
-55.08
-64.26
-74.43
-84.03
-91.00
-93.36
-89.92
-80.71
-67.03
-51.01
-34.86
-20.19
-7.61
3.17
12.97
22.62
32.52
42.59
52.33
60.98
67.84
72.35
74.25
73.64
70.95
66.91
62.40
58.23
55.02
53.04
52.19
52.03
51.87
50.94
48.64
44.68
39.21
32.83
26.34
20.48
15.71
12.00
8.91
5.79
2.03
-2.64
-8.09
-13.86
-19.33
-24.01
-27.68
-30.57
-33.29
-36.70
-41.59
-48.38
-56.76
-65.62
-73.19
-77.51
-77.06
-71.31
-60.90
-47.52
-33.28
-20.06
-8.96
-0.17
6.89
13.02
18.89
24.74
30.37
35.38
39.39
42.13
43.55
43.72
42.83
41.09
38.84
36.50
34.50
33.23
32.78
32.96
33.29
33.17
32.09
29.88
26.67
22.86
18.88
15.01
11.28
7.52
3.47
-1.02
-5.91
-10.96
-15.83
-20.19
-23.88
-26.95
-29.69
-32.60
-36.32
-41.40
-48.02
-55.71
-63.21
-68.76
-70.52
-67.29
-59.03
-46.90
-32.94
-19.30
-7.58
1.57
8.41
13.74
18.38
22.82
27.13
31.05
34.21
36.34
37.38
37.49
36.89
35.79
34.30
32.47
30.45
28.51
27.07
26.42
26.67
27.47
28.22
28.20
26.95
24.39
20.83
16.85
13.01
9.64
6.78
4.16
1.40
-1.90
-5.92
-10.56
-15.44
-20.02
-23.88
-26.83
-29.12
-31.26
-33.93
-37.69
-42.84
-49.22
-56.14
-62.50
-66.90
-68.04
-65.06
-57.89
-47.37
-34.99
-22.49
-11.30
-2.20
4.82
10.30
14.99
19.50
24.05
28.52
32.53
35.74
37.87
38.86
38.80
37.89
36.41
34.67
33.04
31.90
31.44
31.69
32.36
32.96
33.00
32.18
30.48
28.18
25.68
23.24
20.90
18.42
15.49
12.00
8.13
4.31
1.00
-1.58
-3.57
-5.37
-7.41
-9.94
-12.97
-16.35
-19.92
-23.58
-27.23
-30.78
-34.01
-36.81
-39.24
-41.70
-44.78
-48.89
-53.90
-58.94
-62.55
-63.21
-59.99
-52.92
-43.04
-31.90
-21.03
-11.53
-3.95
1.66
5.48
7.89
9.40
10.64
12.26
14.61
17.62
20.75
23.31
24.68
24.71
23.61
21.93
20.27
19.19
19.03
19.84
21.39
23.13
24.44
24.74
23.71
21.45
18.28
14.74
11.29
8.30
5.89
4.10
2.83
1.84
0.82
-0.63
-2.78
-5.75
-9.39
-13.28
-16.91
-19.91
-22.21
-23.98
-25.57
-27.30
-29.42
-32.09
-35.45
-39.67
-44.70
-50.15
-55.15
-58.46
-58.83
-55.55
-48.77
-39.48
-29.30
-19.81
-12.18
-6.82
-3.46
-1.43
0.11
1.83
4.12
6.99
10.14
13.09
15.26
16.26
16.05
15.01
13.80
13.12
13.32
14.32
15.59
16.56
16.86
16.48
15.64
14.54
13.16
11.34
8.99
6.27
3.64
1.58
0.29
-0.54
-1.63
-3.70
-7.06
-11.49
-16.27
-20.57
-23.84
-25.97
-27.22
-28.04
-28.88
-30.05
-31.76
-34.21
-37.52
-41.69
-46.40
-50.95
-54.32
-55.35
-53.15
-47.43
-38.70
-28.16
-17.33
-7.61
0.16
5.83
9.78
12.65
15.00
17.14
19.12
20.91
22.54
24.07
25.52
26.76
27.48
27.35
26.30
24.59
22.79
21.50
21.11
21.57
22.46
23.24
23.50
23.13
22.29
21.21
20.05
18.80
17.37
15.66
13.70
11.57
9.38
7.11
4.69
1.95
-1.18
-4.61
-8.09
-11.24
-13.87
-15.94
-17.69
-19.41
-21.41
-23.91
-27.04
-30.97
-35.76
-41.30
-47.10
-52.14
-55.16
-54.99
-51.06
-43.66
-33.85
-23.10
-12.77
-3.79
3.47
9.06
13.26
16.40
18.81
20.79
22.54
24.21
25.82
27.29
28.48
29.26
29.52
29.25
28.47
27.31
25.99
24.78
23.97
23.69
23.89
24.30
24.50
24.06
22.72
20.46
17.55
14.38
11.34
8.64
6.21
3.75
0.94
-2.40
-6.16
-10.00
-13.51
-16.40
-18.68
-20.63
-22.66
-25.20
-28.52
-32.70
-37.53
-42.53
-46.88
-49.57
-49.59
-46.31
-39.72
-30.58
-20.19
-10.03
-1.27
5.50
10.26
13.41
15.45
16.77
17.53
17.74
17.44
16.72
15.76
14.81
14.02
13.42
12.86
12.20
11.35
10.39
9.48
8.79
8.40
8.15
7.74
6.88
5.34
3.11
0.25
-3.00
-6.44
-9.85
-13.10
-16.14
-19.01
-21.91
-25.13
-29.06
-33.97
-39.87
-46.26
-52.07
-55.90
-56.45
-52.97
-45.67
-35.59
-24.31
-13.29
-3.56
4.51
10.96
16.02
19.84
22.50
24.13
24.96
25.34
25.62
25.96
26.33
26.50
26.22
25.32
23.86
22.04
20.19
18.62
17.51
16.84
16.35
15.62
14.16
11.67
8.08
3.61
-1.31
-6.19
-10.66
-14.63
-18.29
-22.07
-26.49
-31.95
-38.56
-45.98
-53.38
-59.52
-63.04
-62.79
-58.27
-49.81
-38.56
-26.17
-14.28
-4.14
3.76
9.56
13.89
17.51
21.02
24.74
28.61
32.32
35.41
37.42
38.12
37.59
36.22
34.51
32.93
31.66
30.63
29.67
28.59
27.38
26.08
24.69
23.06
20.89
17.93
14.11
9.66
4.98
0.46
-3.67
-7.48
-11.23
-15.18
-19.54
-24.45
-30.01
-36.33
-43.43
-51.02
-58.31
-64.03
-66.68
-65.03
-58.66
-48.21
-35.24
-21.71
-9.37
0.81
8.67
14.70
19.63
24.02
28.19
32.17
35.90
39.30
42.27
44.69
46.31
46.92
46.41
44.98
43.08
41.28
40.07
39.58
39.62
39.68
39.23
37.92
35.69
32.76
29.47
26.15
22.92
19.75
16.45
12.82
8.71
4.09
-0.97
-6.28
-11.63
-16.81
-21.70
-26.32
-30.95
-36.02
-41.96
-48.96
-56.63
-63.94
-69.34
-71.21
-68.45
-60.91
-49.49
-35.91
-22.11
-9.68
0.48
8.28
14.15
18.78
22.82
26.72
30.66
34.54
38.05
40.77
42.37
42.72
42.01
40.61
38.98
37.44
36.08
34.79
33.40
31.82
30.05
28.19
26.27
24.19
21.73
18.64
14.75
10.02
4.61
-1.22
-7.11
-12.74
-17.90
-22.54
-26.81
-31.08
-35.85
-41.59
-48.49
-56.25
-63.98
-70.21
-73.38
-72.20
-66.18
-55.86
-42.69
-28.54
-15.19
-3.83
5.12
11.93
17.23
21.63
25.57
29.19
32.42
35.06
36.91
37.82
37.77
36.89
35.36
33.47
31.48
29.59
27.87
26.36
25.01
23.79
22.61
21.33
19.65
17.28
13.88
9.34
3.80
-2.33
-8.53
-14.40
-19.81
-24.94
-30.14
-35.78
-42.14
-49.35
-57.45
-66.26
-75.37
-83.81
-90.26
-93.14
-91.10
-83.50
-70.69
-53.88
-34.73
-14.90
4.20
21.41
35.87
46.93
54.32
58.36
59.87
60.04
59.86
59.90
60.15
60.28
59.93
59.02
57.82
56.67
55.90
55.56
55.54
55.59
55.41
54.73
53.26
50.85
47.40
43.00
37.87
32.34
26.77
21.45
16.46
11.67
6.78
1.42
-4.63
-11.31
-18.31
-25.19
-31.58
-37.35
-42.77
-48.43
-55.12
-63.52
-73.87
-85.68
-97.58
-107.51
-113.10
-112.46
-104.75
-90.59
-71.91
-51.36
-31.49
-14.09
0.12
11.38
20.48
28.32
35.55
42.53
49.32
55.76
61.51
66.22
69.50
71.14
71.17
69.89
67.84
65.68
63.97
63.07
63.00
63.49
63.98
63.91
62.80
60.46
57.03
52.89
48.44
43.91
39.31
34.44
29.13
23.38
17.41
11.56
6.14
1.22
-3.37
-7.99
-12.98
-18.54
-24.54
-30.67
-36.53
-41.86
-46.66
-51.28
-56.33
-62.49
-70.34
-80.00
-90.91
-101.68
-110.29
-114.47
-112.43
-103.52
-88.51
-69.41
-48.89
-29.42
-12.59
1.08
12.00
21.00
28.81
35.87
42.26
47.95
52.86
57.02
60.44
63.00
64.56
64.97
64.27
62.88
61.46
60.75
61.28
63.00
65.26
67.01
67.11
64.78
59.90
52.97
44.91
36.61
28.66
21.13
13.67
5.78
-2.92
-12.38
-22.18
-31.55
-39.75
-46.37
-51.54
-56.00
-60.88
-67.41
-76.45
-88.08
-101.27
-113.87
-122.81
-124.79
-117.32
-99.86
-74.37
-45.04
-16.96
5.59
20.63
28.74
32.42
34.55
37.14
40.75
44.86
48.65
51.65
53.90
55.67
57.03
57.72
57.36
55.80
53.38
50.80
48.81
47.94
48.11
48.71
48.77
47.41
44.15
39.10
32.90
26.44
20.44
15.09
10.08
4.70
-1.72
-9.42
-18.10
-27.02
-35.35
-42.59
-48.81
-54.73
-61.40
-69.82
-80.38
-92.44
-104.26
-113.28
-116.77
-112.82
-100.91
-82.25
-59.39
-35.44
-13.17
5.63
20.37
31.38
39.55
45.84
51.09
55.84
60.34
64.61
68.36
71.20
72.73
72.76
71.42
69.14
66.52
64.09
62.15
60.79
59.92
59.36
58.93
58.35
57.27
55.22
51.84
46.97
40.86
34.12
27.45
21.38
16.00
11.00
5.81
-0.06
-6.88
-14.49
-22.50
-30.40
-37.77
-44.38
-50.26
-55.77
-61.47
-68.19
-76.67
-87.30
-99.68
-112.30
-122.72
-128.08
-126.09
-115.74
-97.88
-74.93
-50.13
-26.61
-6.51
9.32
21.18
30.15
37.48
44.24
51.05
58.05
64.93
71.13
76.01
79.03
80.00
79.10
76.88
74.11
71.54
69.67
68.72
68.52
68.69
68.75
68.27
66.94
64.53
60.97
56.27
50.58
44.15
37.31
30.35
23.44
16.66
9.98
3.30
-3.47
-10.45
-17.71
-25.27
-33.00
-40.63
-47.82
-54.29
-59.98
-65.12
-70.27
-76.14
-83.47
-92.75
-103.86
-115.81
-126.60
-133.59
-134.13
-126.60
-110.97
-89.04
-63.87
-38.78
-16.35
2.11
16.51
27.65
36.59
44.32
51.53
58.58
65.46
71.86
77.21
80.99
82.92
83.07
81.89
80.03
78.13
76.73
76.13
76.47
77.56
78.89
79.72
79.28
77.02
72.86
67.16
60.48
53.34
45.97
38.36
30.46
22.35
14.31
6.65
-0.43
-7.02
-13.44
-20.04
-27.01
-34.26
-41.45
-48.14
-54.07
-59.22
-63.93
-68.84
-74.75
-82.36
-91.98
-103.15
-114.51
-123.86
-128.59
-126.45
-116.25
-98.41
-74.92
-48.85
-23.42
-1.27
16.19
28.78
37.32
43.04
47.12
50.36
53.10
55.33
56.90
57.69
57.70
57.02
55.77
54.08
52.13
50.13
48.38
47.19
46.61
46.40
45.98
44.62
41.73
37.13
31.14
24.38
17.55
11.04
4.86
-1.32
-7.90
-15.13
-22.89
-30.71
-37.98
-44.18
-49.15
-53.18
-57.02
-61.68
-68.14
-76.90
-87.57
-98.72
-107.94
-112.50
-110.07
-99.66
-82.01
-59.44
-35.19
-12.37
6.76
21.36
31.69
38.75
43.61
47.06
49.48
50.88
51.23
50.49
48.86
46.69
44.37
42.26
40.52
39.13
37.96
36.90
35.87
34.92
34.01
32.95
31.32
28.60
24.38
18.47
11.08
2.68
-6.18
-15.01
-23.44
-31.26
-38.40
-44.95
-51.28
-58.06
-66.14
-76.18
-88.09
-100.69
-111.68
-118.11
-117.39
-108.20
-91.04
-68.13
-42.69
-17.87
4.05
22.10
36.43
47.93
57.62
66.32
74.26
81.13
86.18
88.61
87.91
84.19
78.22
71.16
64.19
58.16
53.45
50.08
47.97
47.00
46.97
47.44
47.65
46.69
43.80
38.75
31.95
24.35
17.04
10.78
5.65
1.05
-3.95
-10.17
-17.89
-26.68
-35.68
-43.93
-50.87
-56.56
-61.65
-67.17
-74.22
-83.56
-95.23
-108.29
-120.70
-129.67
-132.28
-126.47
-111.86
-89.96
-63.86
-37.17
-12.99
6.92
22.22
33.63
42.33
49.42
55.65
61.38
66.73
71.59
75.74
78.84
80.54
80.62
79.05
76.15
72.54
69.01
66.35
65.12
65.36
66.59
67.91
68.28
66.92
63.58
58.65
52.90
47.18
42.09
37.77
33.95
30.06
25.55
20.06
13.67
6.83
0.21
-5.62
-10.41
-14.40
-18.20
-22.57
-27.99
-34.49
-41.67
-48.82
-55.35
-60.98
-65.91
-70.75
-76.36
-83.60
-93.01
-104.51
-117.07
-128.60
-136.27
-137.25
-129.61
-113.19
-89.76
-62.64
-35.59
-11.75
7.12
20.78
30.08
36.34
40.76
44.22
47.23
50.03
52.67
55.02
56.86
57.88
57.81
56.57
54.29
51.37
48.33
45.77
44.13
43.52
43.74
44.12
43.88
42.23
38.76
33.59
27.34
20.90
15.08
10.26
6.22
2.29
-2.37
-8.31
-15.56
-23.62
-31.62
-38.77
-44.66
-49.41
-53.59
-58.06
-63.69
-71.20
-80.89
-92.42
-104.59
-115.27
-121.78
-121.51
-112.86
-95.97
-72.80
-46.68
-21.20
0.78
17.89
30.20
38.77
44.91
49.64
53.44
56.43
58.56
59.80
60.24
60.02
59.23
57.90
56.10
54.01
51.94
50.33
49.54
49.70
50.58
51.66
52.22
51.61
49.40
45.47
40.06
33.63
26.76
19.98
13.65
7.81
2.24
-3.56
-10.05
-17.49
-25.74
-34.27
-42.33
-49.27
-54.82
-59.24
-63.24
-67.80
-73.91
-82.30
-93.12
-105.72
-118.42
-128.71
-133.71
-131.00
-119.52
-100.01
-74.99
-47.92
-22.26
-0.43
16.58
29.10
38.27
45.38
51.46
57.06
62.39
67.39
71.90
75.69
78.45
79.88
79.78
78.19
75.50
72.38
69.56
67.59
66.64
66.38
66.20
65.45
63.64
60.63
56.57
51.75
46.43
40.77
34.80
28.53
22.03
15.48
9.00
2.61
-3.81
-10.50
-17.65
-25.23
-32.99
-40.53
-47.42
-53.48
-58.84
-63.91
-69.38
-75.94
-84.26
-94.65
-106.80
-119.53
-130.73
-137.64
-137.62
-129.01
-111.85
-88.02
-60.78
-33.71
-9.76
9.50
23.91
34.29
41.87
47.71
52.55
56.79
60.65
64.19
67.28
69.68
71.02
71.04
69.68
67.22
64.20
61.23
58.83
57.25
56.49
56.34
56.46
56.46
55.86
54.21
51.12
46.42
40.32
33.37
26.31
19.79
14.08
8.96
3.81
-2.10
-9.23
-17.52
-26.38
-34.93
-42.39
-48.39
-53.17
-57.45
-62.25
-68.57
-77.13
-88.04
-100.57
-113.01
-122.85
-127.24
-123.90
-111.91
-92.15
-67.17
-40.41
-15.19
6.13
22.58
34.41
42.59
48.30
52.55
56.00
59.02
61.74
64.10
65.93
67.04
67.27
66.54
64.91
62.67
60.21
58.04
56.60
56.11
56.44
57.10
57.33
56.35
53.60
48.95
42.77
35.79
28.77
22.32
16.60
11.31
5.89
-0.25
-7.45
-15.59
-24.15
-32.47
-39.95
-46.38
-51.98
-57.36
-63.34
-70.70
-79.96
-91.02
-103.03
-114.16
-121.92
-123.73
-117.69
-103.40
-82.22
-56.99
-31.15
-7.76
11.23
25.20
34.62
40.51
43.96
45.87
46.89
47.38
47.49
47.23
46.50
45.26
43.53
41.54
39.58
37.94
36.79
36.08
35.64
35.20
34.55
33.48
31.80
29.35
25.93
21.39
15.69
8.93
1.36
-6.67
-14.82
-22.77
-30.35
-37.50
-44.31
-51.02
-58.05
-66.01
-75.49
-86.80
-99.38
-111.64
-120.91
-124.21
-119.19
-105.08
-83.23
-56.65
-29.13
-4.06
16.44
31.77
42.48
49.71
54.65
58.21
61.04
63.44
65.50
67.07
67.88
67.62
66.15
63.64
60.52
57.38
54.79
53.08
52.25
51.94
51.60
50.60
48.48
45.02
40.28
34.51
28.03
21.07
13.70
5.87
-2.49
-11.37
-20.58
-29.76
-38.50
-46.51
-53.76
-60.64
-67.94
-76.68
-87.69
-101.03
-115.58
-128.94
-137.88
-139.33
-131.43
-114.32
-90.15
-62.42
-34.79
-10.13
10.09
25.74
37.55
46.62
53.94
60.30
66.20
71.83
77.10
81.67
85.08
86.93
87.08
85.68
83.17
80.12
77.08
74.48
72.55
71.39
70.85
70.57
70.00
68.52
65.61
61.00
54.82
47.49
39.63
31.81
24.41
17.48
10.83
4.13
-2.96
-10.66
-18.96
-27.70
-36.52
-45.01
-52.87
-60.00
-66.62
-73.30
-80.91
-90.35
-102.27
-116.57
-132.05
-146.29
-156.02
-158.02
-150.19
-132.37
-106.59
-76.43
-45.98
-18.59
3.86
21.01
33.64
42.99
50.24
56.28
61.66
66.63
71.24
75.32
78.60
80.73
81.45
80.67
78.56
75.51
72.10
68.97
66.68
65.56
65.54
66.16
66.63
66.02
63.63
59.18
52.92
45.56
37.98
30.94
24.73
19.20
13.76
7.74
0.61
-7.76
-17.09
-26.80
-36.25
-44.94
-52.69
-59.71
-66.58
-74.12
-83.08
-93.88
-106.13
-118.38
-128.24
-132.82
-129.63
-117.50
-97.15
-71.11
-42.94
-16.22
6.51
24.20
37.18
46.58
53.64
59.23
63.73
67.17
69.44
70.50
70.33
68.93
66.27
62.35
57.29
51.47
45.50
40.04
35.65
32.55
30.66
29.61
28.90
28.00
26.37
23.50
18.98
12.60
4.50
-4.78
-14.40
-23.44
-31.28
-37.74
-43.23
-48.60
-54.89
-63.02
-73.47
-85.91
-98.92
-110.16
-116.67
-115.75
-105.89
-87.37
-62.43
-34.59
-7.62
15.56
33.49
46.22
54.72
60.27
63.81
65.90
66.75
66.50
65.40
63.76
61.87
59.81
57.40
54.39
50.57
46.08
41.36
37.11
33.90
31.92
30.76
29.46
26.89
22.12
14.80
5.31
-5.37
-16.03
-25.71
-34.01
-41.25
-48.32
-56.36
-66.41
-79.04
-94.04
-110.13
-125.00
-135.58
-138.83
-132.67
-116.77
-92.91
-64.43
-35.29
-8.80
13.12
30.10
42.84
52.45
59.88
65.72
70.27
73.75
76.38
78.27
79.33
79.19
77.31
73.26
67.04
59.20
50.78
43.00
36.77
32.32
29.06
25.80
21.22
14.40
5.23
-5.63
-17.00
-27.73
-37.14
-45.18
-52.51
-60.14
-69.18
-80.39
-93.87
-108.70
-122.83
-133.33
-137.05
-131.57
-116.10
-91.95
-62.28
-31.15
-2.37
21.53
39.66
52.55
61.52
67.98
73.03
77.35
81.17
84.41
86.75
87.69
86.69
83.43
77.98
70.97
63.41
56.39
50.73
46.65
43.71
41.00
37.56
32.76
26.51
19.25
11.66
4.37
-2.44
-9.12
-16.51
-25.64
-37.31
-51.56
-67.28
-82.07
-92.66
-95.84
-89.52
-73.55
-49.94
-22.24
5.59
30.32
50.12
64.57
74.24
80.11
83.19
84.38
84.35
83.55
82.13
79.94
76.60
71.78
65.41
57.86
49.87
42.30
35.83
30.70
26.63
22.91
18.73
13.41
6.77
-0.90
-9.01
-17.03
-24.73
-32.34
-40.57
-50.28
-62.21
-76.49
-92.22
-107.23
-118.34
-122.12
-115.99
-99.30
-73.77
-43.15
-12.01
15.61
37.23
52.27
61.62
66.88
69.59
70.83
71.18
70.79
69.55
67.28
63.75
58.87
52.75
45.76
38.49
31.62
25.68
20.93
17.18
13.87
10.24
5.62
-0.31
-7.48
-15.37
-23.36
-30.98
-38.19
-45.49
-53.83
-64.23
-77.15
-91.95
-106.50
-117.48
-121.28
-115.22
-98.67
-73.47
-43.35
-12.79
14.38
35.86
51.12
60.84
66.36
69.01
69.90
69.85
69.38
68.72
67.77
66.11
63.28
58.98
53.30
46.79
40.28
34.55
30.05
26.67
23.81
20.61
16.23
10.28
2.85
-5.51
-14.07
-22.21
-29.73
-36.93
-44.57
-53.71
-65.07
-78.60
-92.89
-105.22
-112.08
-110.33
-98.42
-77.14
-49.56
-19.99
7.37
29.67
45.91
56.61
63.14
66.84
68.75
69.42
69.26
68.58
67.63
66.53
65.07
62.86
59.44
54.57
48.44
41.73
35.33
30.16
26.72
24.86
23.83
22.48
19.63
14.56
7.26
-1.60
-10.90
-19.51
-26.72
-32.51
-37.50
-42.74
-49.36
-58.25
-69.70
-83.13
-96.89
-108.36
-114.51
-112.69
-101.62
-82.00
-56.41
-28.63
-2.39
19.59
36.16
47.57
54.95
59.57
62.47
64.32
65.51
66.30
66.76
66.82
66.25
64.70
61.96
58.07
53.45
48.71
44.48
41.09
38.51
36.37
34.17
31.54
28.31
24.51
20.17
15.30
9.80
3.63
-3.13
-10.21
-17.21
-23.82
-29.87
-35.42
-40.68
-45.94
-51.62
-58.18
-66.10
-75.57
-86.06
-96.06
-103.14
-104.57
-98.31
-83.87
-62.71
-37.86
-12.88
9.16
26.48
38.66
46.33
50.50
52.21
52.26
51.29
49.82
48.23
46.68
45.16
43.54
41.67
39.58
37.41
35.35
33.56
32.03
30.63
29.19
27.52
25.54
23.20
20.47
17.26
13.42
8.75
3.12
-3.41
-10.49
-17.62
-24.27
-30.03
-34.83
-38.88
-42.69
-46.84
-51.93
-58.38
-66.36
-75.42
-84.44
-91.58
-94.64
-91.73
-82.01
-66.08
-45.94
-24.37
-4.14
12.76
25.35
33.63
38.13
39.63
38.87
36.57
33.40
30.00
26.85
24.25
22.16
20.35
18.48
16.27
13.66
10.81
8.08
5.86
4.41
3.65
3.11
2.04
-0.29
-4.38
-10.14
-16.99
-24.00
-30.30
-35.41
-39.44
-43.02
-47.08
-52.50
-59.81
-68.91
-78.83
-87.79
-93.50
-93.74
-87.13
-73.66
-54.88
-33.44
-12.28
6.21
20.72
31.03
37.65
41.35
42.81
42.53
40.96
38.56
35.86
33.26
30.95
28.86
26.67
24.09
21.00
17.59
14.33
11.73
10.15
9.55
9.38
8.81
6.96
3.27
-2.30
-9.21
-16.56
-23.43
-29.21
-33.85
-37.80
-41.97
-47.36
-54.86
-64.72
-76.35
-88.08
-97.39
-101.55
-98.51
-87.65
-70.13
-48.55
-26.08
-5.54
11.34
24.09
33.14
39.36
43.57
46.35
48.05
48.79
48.67
47.72
46.12
44.07
41.80
39.50
37.19
34.85
32.40
29.90
27.50
25.40
23.68
22.16
20.46
18.09
14.66
9.99
4.21
-2.39
-9.40
-16.44
-23.22
-29.59
-35.58
-41.40
-47.43
-54.18
-62.18
-71.80
-82.81
-94.14
-103.83
-109.34
-108.32
-99.48
-83.19
-61.46
-37.34
-13.94
6.40
22.58
34.55
42.94
48.57
52.15
54.27
55.43
56.04
56.35
56.41
56.05
55.07
53.37
51.10
48.67
46.51
44.97
44.10
43.62
43.05
41.87
39.71
36.51
32.42
27.80
22.93
17.99
12.97
7.71
1.99
-4.31
-11.15
-18.30
-25.42
-32.12
-38.23
-43.85
-49.43
-55.69
-63.40
-72.97
-84.11
-95.47
-104.85
-109.63
-107.56
-97.55
-80.18
-57.63
-32.94
-9.23
11.17
27.17
38.74
46.61
51.70
54.90
56.86
58.01
58.65
58.90
58.71
57.95
56.47
54.30
51.69
49.07
46.85
45.28
44.25
43.40
42.18
40.18
37.19
33.31
28.76
23.75
18.35
12.51
6.13
-0.80
-8.15
-15.64
-22.97
-29.93
-36.43
-42.55
-48.53
-54.78
-61.82
-70.20
-80.14
-91.18
-101.90
-109.99
-112.76
-108.07
-95.21
-75.25
-50.89
-25.55
-2.31
16.82
31.25
41.39
48.18
52.45
54.74
55.36
54.55
52.66
50.19
47.66
45.42
43.63
42.19
40.90
39.54
38.02
36.39
34.77
33.26
31.85
30.32
28.30
25.32
20.98
15.07
7.74
-0.59
-9.24
-17.54
-25.03
-31.57
-37.46
-43.29
-49.80
-57.69
-67.37
-78.77
-91.08
-102.64
-111.15
-114.14
-109.68
-97.14
-77.49
-53.19
-27.44
-3.29
17.14
33.03
44.62
52.78
58.47
62.39
64.98
66.47
67.07
66.96
66.32
65.15
63.42
61.07
58.17
55.05
52.21
50.13
49.01
48.63
48.34
47.31
44.86
40.76
35.36
29.32
23.35
17.79
12.51
7.04
0.83
-6.36
-14.33
-22.58
-30.49
-37.67
-44.13
-50.22
-56.58
-63.95
-72.96
-83.88
-96.31
-108.96
-119.59
-125.53
-124.34
-114.73
-97.18
-73.87
-48.06
-23.08
-1.35
16.05
29.24
39.16
46.81
52.99
58.09
62.32
65.78
68.60
70.88
72.60
73.67
73.92
73.31
71.94
70.18
68.47
67.16
66.46
66.24
66.23
65.95
64.95
62.81
59.27
54.23
47.84
40.47
32.67
24.99
17.83
11.27
5.04
-1.36
-8.39
-16.27
-24.77
-33.35
-41.42
-48.57
-54.84
-60.61
-66.53
-73.21
-81.14
-90.58
-101.38
-112.95
-123.95
-132.43
-136.01
-132.64
-121.20
-102.11
-77.35
-49.77
-22.26
3.16
25.54
44.74
60.77
73.38
82.04
86.45
86.99
84.86
81.70
78.95
77.29
76.53
75.97
75.00
73.46
71.68
70.17
69.27
68.92
68.76
68.33
67.25
65.34
62.49
58.78
54.23
48.91
42.94
36.48
29.81
23.17
16.76
10.61
4.55
-1.73
-8.52
-15.95
-23.92
-32.08
-40.01
-47.41
-54.18
-60.57
-67.16
-74.75
-84.10
-95.44
-108.10
-120.23
-129.08
-131.65
-125.73
-110.77
-88.21
-61.15
-33.29
-7.90
13.02
28.88
40.18
47.92
53.06
56.39
58.42
59.59
60.22
60.49
60.40
59.78
58.44
56.37
53.84
51.38
49.55
48.68
48.62
48.85
48.56
47.11
44.18
39.88
34.61
28.82
22.72
16.27
9.28
1.53
-6.97
-15.96
-25.02
-33.66
-41.55
-48.65
-55.28
-62.10
-70.01
-79.81
-91.73
-105.06
-117.84
-127.24
-130.21
-124.50
-109.54
-86.73
-59.16
-30.63
-4.61
16.65
32.39
43.16
50.24
55.04
58.69
61.81
64.59
66.94
68.65
69.54
69.50
68.54
66.76
64.39
61.70
59.02
56.56
54.38
52.31
50.05
47.28
43.82
39.67
34.98
29.87
24.37
18.28
11.40
3.63
-4.89
-13.78
-22.54
-30.80
-38.45
-45.77
-53.34
-61.95
-72.30
-84.73
-98.77
-112.97
-124.82
-131.34
-129.90
-119.12
-99.56
-73.66
-45.05
-17.48
6.24
24.74
38.12
47.43
54.01
59.06
63.27
66.92
69.96
72.21
73.49
73.70
72.77
70.74
67.71
64.00
60.07
56.58
54.11
52.96
52.94
53.28
52.89
50.81
46.56
40.39
33.18
26.01
19.66
14.26
9.20
3.52
-3.67
-12.68
-23.09
-33.89
-43.91
-52.34
-58.95
-64.36
-69.72
-76.42
-85.69
-98.02
-112.80
-128.11
-140.94
-147.88
-146.10
-134.38
-113.59
-86.53
-57.06
-28.88
-4.56
14.95
30.11
42.15
52.34
61.54
70.04
77.70
84.25
89.43
93.11
95.20
95.67
94.56
92.06
88.59
84.85
81.68
79.73
79.23
79.75
80.39
79.98
77.53
72.57
65.28
56.41
46.93
37.68
29.12
21.23
13.50
5.25
-4.14
-14.87
-26.59
-38.42
-49.23
-58.13
-64.90
-70.21
-75.58
-82.78
-93.27
-107.38
-123.87
-139.93
-151.71
-155.18
-147.24
-126.85
-95.62
-57.78
-19.09
14.77
39.92
55.31
62.62
65.16
66.24
67.94
70.65
73.55
75.56
76.04
75.09
73.25
71.04
68.68
66.10
63.18
59.97
56.72
53.74
51.32
49.44
47.78
45.82
42.94
38.68
32.84
25.51
17.05
7.89
-1.55
-10.95
-20.10
-28.88
-37.23
-45.30
-53.45
-62.32
-72.70
-85.15
-99.42
-114.03
-126.25
-132.60
-129.99
-116.90
-94.05
-64.41
-32.19
-1.57
24.54
44.99
60.18
71.35
79.74
86.17
91.01
94.37
96.40
97.37
97.62
97.37
96.72
95.55
93.79
91.40
88.49
85.28
82.04
78.96
76.01
72.95
69.23
64.08
56.72
46.60
33.68
18.55
2.37
-13.56
-28.15
-40.97
-52.32
-63.06
-74.33
-87.07
-101.76
-118.16
-135.11
-150.60
-161.91
-166.23
-161.41
-146.66
-122.95
-92.68
-58.91
-24.44
8.77
39.81
68.39
94.45
117.78
138.02
154.86
168.13
177.87
184.19
187.15
186.80
183.35
177.26
169.32
160.51
151.83
144.09
137.73
132.77
128.75
124.78
119.70
112.21
101.25
86.28
67.58
46.26
24.07
2.95
-15.48
-30.37
-41.80
-50.56
-57.76
-64.42
-71.16
-78.20
-85.52
-93.07
-100.89
-109.04
-117.61
-126.64
-136.25
-146.69
-158.32
-171.33
-185.19
-198.36
-208.21
-211.79
-206.78
-192.56
-170.58
-144.06
-116.93
-92.53
-72.80
-57.92
-46.82
-37.97
-30.05
-22.37
-14.84
-7.76
-1.39
4.09
8.75
12.70
16.08
18.93
21.29
23.30
25.20
27.37
30.14
33.64
37.65
41.58
44.69
46.28
46.01
44.00
40.78
37.06
33.41
30.09
26.94
23.56
19.57
14.86
9.69
4.52
-0.08
-3.86
-6.93
-9.77
-13.04
-17.33
-22.86
-29.45
-36.53
-43.32
-49.20
-53.89
-57.61
-61.07
-65.33
-71.50
-80.29
-91.55
-103.94
-114.90
-121.25
-120.08
-109.87
-91.14
-66.40
-39.36
-13.70
7.97
24.57
36.40
44.51
50.11
54.18
57.35
60.02
62.35
64.35
65.80
66.42
65.99
64.47
62.11
59.37
56.75
54.66
53.30
52.66
52.54
52.61
52.52
51.95
50.69
48.55
45.44
41.32
36.27
30.47
24.29
18.14
12.36
7.11
2.23
-2.63
-7.86
-13.74
-20.26
-27.17
-34.07
-40.53
-46.24
-51.10
-55.27
-59.20
-63.60
-69.31
-77.08
-87.20
-99.00
-110.72
-119.58
-122.53
-117.22
-102.92
-80.93
-54.31
-26.88
-2.09
17.86
32.39
42.12
48.30
52.11
54.37
55.52
55.79
55.43
54.68
53.77
52.77
51.55
49.87
47.63
45.04
42.62
41.01
40.61
41.36
42.59
43.29
42.52
39.74
35.05
29.04
22.61
16.46
10.96
5.97
0.97
-4.65
-11.35
-19.17
-27.68
-36.14
-43.81
-50.25
-55.53
-60.27
-65.38
-71.89
-80.54
-91.41
-103.60
-115.14
-123.24
-125.06
-118.57
-103.37
-81.03
-54.62
-27.80
-3.71
15.78
30.24
40.36
47.29
52.17
55.82
58.72
61.09
62.95
64.19
64.72
64.41
63.21
61.16
58.42
55.33
52.42
50.29
49.41
49.85
51.11
52.23
52.04
49.67
44.87
38.11
30.45
23.00
16.52
11.08
6.08
0.62
-6.08
-14.29
-23.63
-33.20
-42.04
-49.48
-55.45
-60.53
-65.76
-72.33
-81.23
-92.79
-106.32
-119.95
-130.81
-135.73
-132.21
-119.33
-98.23
-71.75
-43.57
-17.08
5.43
23.10
36.17
45.56
52.30
57.35
61.47
65.22
68.92
72.53
75.72
77.97
78.79
77.96
75.62
72.28
68.65
65.46
63.24
62.17
62.00
62.10
61.61
59.72
55.97
50.43
43.68
36.58
29.91
24.02
18.70
13.34
7.17
-0.30
-9.07
-18.64
-28.24
-37.08
-44.73
-51.24
-57.19
-63.52
-71.29
-81.26
-93.40
-106.55
-118.40
-125.89
-126.09
-117.25
-99.51
-75.04
-47.35
-20.20
3.38
21.85
35.06
43.93
49.80
53.95
57.34
60.45
63.36
65.83
67.46
67.88
66.92
64.71
61.63
58.28
55.19
52.80
51.25
50.46
50.02
49.38
48.02
45.57
41.95
37.33
31.93
25.96
19.45
12.38
4.71
-3.48
-11.98
-20.47
-28.64
-36.33
-43.54
-50.52
-57.75
-65.89
-75.51
-86.72
-98.67
-109.41
-116.12
-116.00
-107.28
-90.05
-66.48
-40.08
-14.66
6.93
23.38
34.91
42.66
47.98
51.83
54.70
56.65
57.60
57.54
56.54
54.84
52.70
50.39
48.12
46.00
44.05
42.21
40.45
38.76
37.21
35.77
34.30
32.40
29.51
25.03
18.66
10.51
1.17
-8.47
-17.54
-25.52
-32.40
-38.65
-45.01
-52.26
-61.03
-71.67
-84.02
-97.20
-109.48
-118.38
-121.22
-115.93
-101.96
-80.63
-54.95
-28.59
-4.84
14.31
28.50
38.53
45.79
51.48
56.33
60.56
64.07
66.64
68.12
68.41
67.50
65.51
62.70
59.49
56.40
53.91
52.31
51.55
51.28
50.87
49.69
47.30
43.61
38.86
33.40
27.54
21.25
14.35
6.54
-2.25
-11.77
-21.47
-30.72
-39.07
-46.40
-53.07
-59.71
-67.20
-76.35
-87.55
-100.37
-113.27
-123.62
-128.31
-124.78
-111.98
-91.03
-64.93
-37.59
-12.57
7.98
23.62
35.22
44.20
51.81
58.77
65.30
71.31
76.62
80.99
84.12
85.65
85.26
82.90
78.95
74.24
69.77
66.47
64.71
64.25
64.28
63.77
61.85
58.12
52.77
46.35
39.59
32.98
26.69
20.46
13.85
6.43
-1.95
-11.05
-20.36
-29.22
-37.10
-43.81
-49.63
-55.29
-61.83
-70.24
-81.03
-93.77
-106.79
-117.39
-122.51
-119.68
-107.97
-88.44
-63.94
-38.13
-14.39
5.08
19.65
29.98
37.44
43.37
48.65
53.55
57.84
61.10
62.88
63.01
61.59
59.01
55.75
52.33
49.17
46.48
44.32
42.59
41.07
39.53
37.72
35.43
32.45
28.66
23.95
18.30
11.77
4.54
-3.11
-10.85
-18.33
-25.34
-31.80
-37.85
-43.78
-50.04
-57.24
-65.97
-76.62
-88.93
-101.71
-112.69
-119.08
-118.28
-108.94
-91.57
-68.56
-43.41
-19.58
0.49
15.99
27.46
36.16
43.39
49.90
55.92
61.20
65.41
68.26
69.60
69.42
67.87
65.26
62.08
58.92
56.34
54.71
54.07
54.07
54.05
53.22
50.93
46.84
41.10
34.23
26.93
19.79
13.05
6.50
-0.34
-7.98
-16.60
-25.96
-35.40
-44.18
-51.70
-57.81
-62.95
-68.02
-74.23
-82.65
-93.68
-106.62
-119.48
-129.30
-132.96
-128.23
-114.65
-93.80
-68.81
-43.28
-20.19
-1.15
13.75
25.50
35.50
45.00
54.69
64.62
74.25
82.70
89.06
92.68
93.45
91.84
88.73
85.10
81.77
79.23
77.56
76.63
76.18
75.88
75.25
73.71
70.65
65.64
58.59
49.91
40.41
31.07
22.68
15.60
9.58
3.99
-1.97
-8.90
-16.97
-25.83
-34.76
-42.95
-49.80
-55.14
-59.31
-63.14
-67.63
-73.83
-82.41
-93.40
-105.90
-117.93
-126.78
-129.60
-124.33
-110.50
-89.49
-64.27
-38.37
-14.85
4.55
19.63
31.37
41.24
50.47
59.60
68.43
76.32
82.50
86.46
88.05
87.54
85.45
82.35
78.83
75.31
72.16
69.60
67.68
66.32
65.24
64.10
62.49
60.07
56.59
51.94
46.17
39.48
32.31
25.20
18.63
12.88
7.87
3.22
-1.64
-7.16
-13.48
-20.34
-27.23
-33.70
-39.46
-44.60
-49.46
-54.47
-60.09
-66.75
-74.77
-84.20
-94.46
-104.06
-110.75
-112.00
-105.94
-92.15
-72.06
-48.62
-25.31
-5.02
10.71
21.85
29.43
34.79
39.02
42.65
45.79
48.33
50.16
51.31
51.77
51.49
50.36
48.31
45.52
42.54
40.09
38.86
39.10
40.44
41.96
42.51
41.21
37.71
32.37
25.97
19.42
13.31
7.78
2.53
-2.97
-9.09
-15.92
-23.13
-30.15
-36.43
-41.66
-45.95
-49.80
-54.01
-59.40
-66.61
-75.67
-85.78
-95.19
-101.47
-102.15
-95.60
-81.75
-62.25
-40.08
-18.51
-0.08
14.00
23.97
30.91
36.13
40.55
44.56
48.14
51.10
53.33
54.78
55.45
55.24
54.09
51.98
49.13
45.95
43.02
40.87
39.73
39.51
39.70
39.60
38.47
35.82
31.54
25.95
19.71
13.56
8.12
3.62
-0.21
-3.95
-8.33
-13.79
-20.31
-27.36
-34.18
-40.11
-44.86
-48.68
-52.27
-56.53
-62.32
-70.07
-79.52
-89.55
-98.25
-103.27
-102.47
-94.68
-80.24
-60.96
-39.63
-19.16
-1.68
11.80
21.47
28.20
33.09
37.06
40.65
44.05
47.20
49.89
51.92
53.04
53.15
52.19
50.28
47.66
44.71
41.88
39.57
38.05
37.35
37.22
37.13
36.44
34.58
31.28
26.62
21.09
15.40
10.19
5.80
2.16
-1.12
-4.63
-8.83
-13.87
-19.56
-25.45
-31.04
-35.96
-40.07
-43.56
-46.81
-50.39
-54.90
-60.92
-68.67
-77.79
-87.09
-94.59
-97.98
-95.33
-85.84
-70.28
-50.78
-30.16
-11.08
4.69
16.52
24.76
30.31
34.14
37.09
39.67
42.11
44.41
46.36
47.63
47.95
47.17
45.39
42.97
40.37
38.06
36.38
35.41
34.98
34.71
34.10
32.66
30.08
26.32
21.67
16.59
11.61
7.04
2.86
-1.26
-5.82
-11.14
-17.28
-23.92
-30.51
-36.54
-41.76
-46.33
-50.81
-55.99
-62.58
-70.86
-80.39
-89.87
-97.34
-100.62
-97.98
-88.76
-73.69
-54.72
-34.53
-15.66
0.04
11.81
19.88
25.12
28.59
31.10
33.12
34.69
35.69
35.99
35.54
34.47
32.97
31.24
29.36
27.38
25.29
23.13
21.00
19.06
17.38
15.89
14.36
12.38
9.54
5.58
0.50
-5.42
-11.71
-17.91
-23.66
-28.87
-33.66
-38.37
-43.42
-49.33
-56.56
-65.31
-75.21
-85.05
-92.79
-96.08
-92.99
-82.82
-66.53
-46.46
-25.62
-6.62
8.96
20.74
29.24
35.30
39.72
43.04
45.62
47.69
49.36
50.62
51.27
51.08
49.88
47.70
44.86
41.79
38.90
36.45
34.42
32.60
30.72
28.54
25.96
22.99
19.66
15.92
11.57
6.38
0.23
-6.77
-14.26
-21.75
-28.79
-35.15
-40.84
-46.15
-51.57
-57.80
-65.51
-75.07
-86.22
-97.72
-107.43
-112.73
-111.35
-102.24
-86.03
-64.95
-42.12
-20.52
-2.24
11.97
22.48
30.33
36.62
42.15
47.27
52.00
56.13
59.40
61.54
62.35
61.76
59.87
57.03
53.77
50.65
48.13
46.41
45.35
44.55
43.58
42.07
39.84
36.89
33.29
29.07
24.14
18.44
11.92
4.73
-2.82
-10.35
-17.54
-24.27
-30.60
-36.82
-43.29
-50.55
-59.09
-69.19
-80.54
-91.92
-101.24
-105.99
-103.99
-94.32
-77.72
-56.48
-33.67
-12.14
6.23
20.84
32.06
40.80
47.96
54.14
59.57
64.25
68.04
70.78
72.33
72.60
71.61
69.49
66.58
63.37
60.41
58.12
56.65
55.78
54.94
53.50
50.95
47.18
42.44
37.20
31.87
26.57
21.13
15.16
8.38
0.77
-7.33
-15.34
-22.76
-29.33
-35.24
-41.07
-47.63
-55.72
-65.77
-77.52
-89.78
-100.47
-107.08
-107.28
-99.83
-85.06
-64.90
-42.31
-20.41
-1.52
13.26
24.05
31.70
37.24
41.44
44.66
47.04
48.62
49.52
49.87
49.74
49.11
47.80
45.71
42.87
39.61
36.44
33.89
32.31
31.66
31.49
31.06
29.60
26.49
21.49
14.74
6.77
-1.66
-9.77
-16.98
-23.08
-28.39
-33.62
-39.78
-47.80
-58.13
-70.34
-83.03
-93.87
-100.24
-99.93
-91.93
-76.86
-56.78
-34.64
-13.31
5.15
19.84
30.98
39.41
46.08
51.72
56.65
60.87
64.10
66.02
66.32
64.92
62.02
58.07
53.66
49.35
45.54
42.37
39.82
37.72
35.88
34.08
32.08
29.54
26.16
21.68
16.01
9.27
1.79
-6.06
-13.87
-21.36
-28.36
-34.87
-41.13
-47.57
-54.83
-63.54
-74.06
-86.04
-98.13
-108.10
-113.34
-111.69
-102.32
-86.10
-65.41
-43.28
-22.41
-4.43
10.31
22.37
32.71
42.14
51.07
59.57
67.45
74.38
79.94
83.68
85.23
84.44
81.54
77.16
72.24
67.77
64.49
62.72
62.19
62.19
61.71
59.80
55.84
49.75
42.06
33.63
25.40
17.99
11.48
5.41
-0.99
-8.33
-16.79
-25.95
-34.99
-43.08
-49.75
-55.16
-59.98
-65.19
-71.78
-80.39
-91.01
-102.75
-113.87
-121.98
-124.62
-120.00
-107.70
-88.86
-65.99
-42.09
-19.76
-0.55
15.39
28.98
41.61
54.29
67.12
79.12
88.63
94.07
94.77
91.32
85.34
78.76
73.03
68.68
65.46
62.81
60.52
58.81
58.09
58.50
59.53
60.17
59.28
56.17
50.90
44.21
37.12
30.57
25.01
20.34
16.02
11.38
5.90
-0.57
-7.78
-15.17
-22.17
-28.36
-33.67
-38.36
-42.90
-47.87
-53.78
-61.09
-69.98
-80.31
-91.21
-101.08
-107.67
-108.68
-102.56
-89.18
-70.11
-48.17
-26.50
-7.61
7.33
18.54
27.07
34.11
40.45
46.30
51.41
55.45
58.25
59.79
60.16
59.45
57.70
55.02
51.66
48.08
44.87
42.51
41.19
40.72
40.50
39.76
37.83
34.43
29.73
24.27
18.73
13.61
9.05
4.78
0.31
-4.84
-10.80
-17.32
-23.79
-29.63
-34.52
-38.60
-42.53
-47.20
-53.43
-61.63
-71.44
-81.72
-90.56
-95.77
-95.39
-88.37
-74.93
-56.69
-36.26
-16.41
0.63
13.80
23.19
29.72
34.52
38.41
41.73
44.43
46.35
47.45
47.85
47.78
47.43
46.83
45.92
44.64
43.04
41.36
39.93
39.01
38.65
38.60
38.31
37.12
34.50
30.29
24.79
18.68
12.76
7.62
3.35
-0.47
-4.52
-9.38
-15.22
-21.74
-28.28
-34.21
-39.19
-43.35
-47.14
-51.23
-56.26
-62.71
-70.68
-79.70
-88.62
-95.61
-98.56
-95.76
-86.53
-71.66
-53.18
-33.79
-15.92
-1.11
10.27
18.79
25.45
31.16
36.46
41.48
46.09
50.05
53.11
55.06
55.78
55.24
53.58
51.11
48.33
45.79
43.90
42.83
42.44
42.39
42.26
41.71
40.53
38.64
35.95
32.41
28.03
22.96
17.57
12.33
7.65
3.70
0.33
-2.89
-6.51
-10.92
-16.24
-22.22
-28.34
-34.01
-38.83
-42.74
-46.05
-49.39
-53.47
-58.94
-66.15
-74.88
-84.26
-92.72
-98.21
-98.78
-93.22
-81.59
-65.27
-46.62
-28.18
-11.91
1.25
11.36
19.09
25.27
30.55
35.28
39.57
43.42
46.70
49.27
50.97
51.65
51.27
49.95
47.96
45.70
43.58
41.95
40.99
40.67
40.71
40.68
40.12
38.65
36.11
32.58
28.36
23.84
19.37
15.18
11.33
7.72
4.09
0.16
-4.36
-9.54
-15.28
-21.22
-26.92
-32.02
-36.38
-40.21
-43.97
-48.26
-53.70
-60.67
-69.19
-78.64
-87.77
-94.71
-97.49
-94.56
-85.46
-71.11
-53.57
-35.43
-19.03
-5.80
3.99
10.89
15.92
19.96
23.53
26.78
29.58
31.73
33.12
33.72
33.60
32.92
31.93
30.93
30.20
29.95
30.27
31.05
31.98
32.62
32.50
31.25
28.75
25.15
20.81
16.11
11.31
6.36
1.07
-4.75
-11.12
-17.75
-24.19
-30.06
-35.16
-39.64
-43.85
-48.31
-53.59
-60.17
-68.28
-77.59
-86.98
-94.55
-98.07
-95.70
-86.73
-71.98
-53.58
-34.24
-16.41
-1.59
9.83
18.35
24.85
30.14
34.76
38.93
42.67
45.89
48.49
50.35
51.34
51.39
50.51
48.87
46.78
44.72
43.14
42.29
42.18
42.51
42.79
42.48
41.12
38.53
34.77
30.18
25.23
20.40
15.99
12.02
8.21
4.10
-0.81
-6.80
-13.79
-21.37
-28.94
-35.95
-42.12
-47.52
-52.62
-58.09
-64.68
-72.90
-82.76
-93.51
-103.62
-111.00
-113.48
-109.55
-98.87
-82.50
-62.59
-41.76
-22.34
-5.78
7.43
17.71
25.85
32.76
39.11
45.23
51.10
56.46
60.96
64.27
66.25
66.88
66.31
64.83
62.75
60.42
58.21
56.39
55.14
54.47
54.22
54.03
53.46
52.02
49.39
45.46
40.44
34.81
29.12
23.84
19.11
14.73
10.24
5.21
-0.61
-7.15
-14.06
-20.92
-27.34
-33.13
-38.30
-43.05
-47.79
-53.04
-59.41
-67.44
-77.29
-88.41
-99.33
-107.85
-111.48
-108.32
-97.68
-80.50
-59.09
-36.41
-15.23
2.62
16.47
26.57
33.77
39.02
43.15
46.71
50.01
53.10
55.78
57.69
58.45
57.86
55.98
53.24
50.28
47.81
46.32
45.87
46.13
46.47
46.23
44.95
42.53
39.15
35.12
30.72
26.04
21.04
15.53
9.40
2.58
-4.76
-12.39
-19.93
-27.05
-33.55
-39.56
-45.61
-52.46
-60.86
-70.98
-82.07
-92.33
-99.31
-100.66
-95.00
-82.49
-64.83
-44.67
-24.75
-7.13
7.18
18.15
26.25
32.06
36.04
38.51
39.73
40.02
39.75
39.20
38.55
37.75
36.68
35.19
33.22
30.91
28.54
26.48
24.99
24.11
23.60
22.91
21.39
18.41
13.65
7.17
-0.56
-8.81
-16.82
-24.11
-30.57
-36.55
-42.75
-50.00
-59.00
-69.97
-82.36
-94.69
-104.74
-109.99
-108.42
-99.27
-83.38
-63.00
-41.07
-20.36
-2.71
11.27
21.91
30.04
36.45
41.59
45.59
48.38
49.94
50.38
50.04
49.23
48.12
46.63
44.49
41.49
37.68
33.53
29.77
27.04
25.57
24.91
24.07
21.88
17.48
10.69
2.07
-7.32
-16.38
-24.36
-31.19
-37.46
-44.15
-52.34
-62.79
-75.60
-89.98
-104.23
-116.01
-122.81
-122.75
-115.12
-100.67
-81.51
-60.36
-39.82
-21.63
-6.26
6.99
19.60
33.01
47.84
63.39
77.75
88.53
93.94
93.64
88.93
82.15
75.57
70.58
67.35
65.27
63.60
61.97
60.42
59.07
57.73
55.84
52.74
48.03
41.77
34.38
26.36
18.10
9.68
1.01
-8.01
-17.34
-26.77
-36.04
-45.03
-53.90
-63.12
-73.45
-85.50
-99.34
-114.06
-127.59
-137.03
-139.48
-133.02
-117.51
-94.78
-68.04
-40.85
-16.09
4.75
21.54
35.16
46.78
57.35
67.36
76.77
85.22
92.18
97.21
100.11
100.95
100.07
97.99
95.32
92.66
90.59
89.50
89.50
90.33
91.41
91.90
91.14
88.74
84.74
79.49
73.44
66.92
60.08
52.95
45.56
38.01
30.45
22.96
15.45
7.68
-0.60
-9.55
-18.99
-28.56
-37.71
-46.01
-53.29
-59.75
-65.94
-72.63
-80.64
-90.67
-102.98
-117.10
-131.57
-143.88
-150.98
-150.12
-139.81
-120.52
-94.57
-65.41
-36.31
-9.50
14.07
34.33
51.43
65.24
75.49
82.13
85.66
87.13
87.67
88.02
88.27
88.05
86.98
85.03
82.67
80.53
79.12
78.57
78.59
78.65
78.30
77.19
75.12
72.03
67.86
62.56
56.11
48.64
40.53
32.30
24.48
17.40
11.07
5.08
-1.15
-8.16
-16.11
-24.77
-33.49
-41.57
-48.54
-54.40
-59.70
-65.39
-72.53
-81.95
-93.90
-107.66
-121.44
-132.53
-137.85
-134.90
-122.58
-101.78
-75.22
-46.65
-19.73
3.01
20.59
33.51
43.06
50.65
57.24
63.18
68.32
72.27
74.71
75.52
74.94
73.32
71.08
68.58
66.06
63.81
62.12
61.27
61.38
62.23
63.14
63.19
61.46
57.41
51.13
43.28
34.89
26.94
20.06
14.28
9.02
3.40
-3.46
-11.91
-21.66
-31.82
-41.26
-49.16
-55.37
-60.51
-65.75
-72.41
-81.49
-93.31
-107.31
-121.85
-134.35
-141.69
-141.03
-130.81
-111.41
-85.34
-56.45
-28.77
-5.24
12.98
26.36
36.41
44.73
52.44
59.98
67.21
73.69
78.89
82.35
83.84
83.43
81.49
78.70
75.79
73.35
71.72
70.89
70.62
70.52
70.13
69.06
66.95
63.55
58.75
52.64
45.46
37.63
29.65
21.98
14.92
8.51
2.52
-3.51
-10.13
-17.66
-26.12
-35.11
-44.00
-52.07
-58.93
-64.60
-69.57
-74.67
-80.92
-89.22
-100.06
-113.14
-127.07
-139.38
-146.94
-146.81
-137.25
-118.46
-92.70
-63.63
-35.17
-10.31
9.52
24.50
35.86
45.08
53.31
61.07
68.35
74.82
80.11
83.95
86.24
86.95
86.14
84.01
80.94
77.50
74.37
72.15
71.13
71.17
71.73
72.00
71.25
68.98
65.01
59.48
52.76
45.28
37.53
29.91
22.68
15.91
9.49
3.16
-3.38
-10.40
-17.97
-26.02
-34.27
-42.34
-49.85
-56.62
-62.77
-68.71
-75.18
-83.02
-92.86
-104.84
-118.15
-130.89
-140.28
-143.35
-137.82
-123.01
-100.27
-72.63
-43.93
-17.62
4.07
20.47
32.15
40.30
46.17
50.69
54.50
57.95
61.18
64.06
66.22
67.11
66.26
63.54
59.31
54.46
50.04
46.91
45.40
45.18
45.38
44.96
43.10
39.49
34.34
28.23
21.71
15.14
8.51
1.53
-6.06
-14.33
-23.04
-31.70
-39.79
-46.99
-53.32
-59.23
-65.43
-72.76
-81.95
-93.23
-105.99
-118.57
-128.43
-132.64
-128.84
-116.06
-95.24
-69.07
-41.20
-15.13
6.70
23.34
35.23
43.61
49.85
54.96
59.37
62.99
65.52
66.66
66.33
64.69
62.09
58.96
55.67
52.54
49.76
47.46
45.63
44.16
42.78
41.14
38.83
35.55
31.09
25.40
18.49
10.51
1.62
-7.89
-17.66
-27.25
-36.28
-44.48
-51.86
-58.72
-65.64
-73.42
-82.85
-94.32
-107.36
-120.38
-130.70
-135.19
-131.20
-117.67
-95.65
-68.16
-39.23
-12.64
9.13
25.40
36.95
45.36
52.21
58.52
64.66
70.45
75.45
79.25
81.60
82.42
81.79
79.95
77.17
73.84
70.41
67.36
65.11
63.87
63.53
63.61
63.39
62.07
59.04
54.09
47.49
39.81
31.81
24.16
17.24
11.04
5.21
-0.79
-7.47
-15.11
-23.64
-32.68
-41.62
-49.89
-57.15
-63.42
-69.14
-75.05
-82.01
-90.87
-102.10
-115.41
-129.42
-141.60
-148.71
-147.71
-136.84
-116.42
-88.89
-58.13
-28.22
-2.28
18.23
33.43
44.45
52.75
59.55
65.66
71.45
76.94
81.88
85.84
88.37
89.12
88.08
85.56
82.16
78.66
75.78
73.94
73.20
73.22
73.37
72.95
71.43
68.57
64.50
59.52
53.99
48.09
41.85
35.17
28.03
20.60
13.20
6.18
-0.26
-6.24
-12.14
-18.42
-25.40
-33.07
-41.05
-48.80
-55.85
-62.02
-67.55
-73.07
-79.47
-87.67
-98.26
-111.05
-124.75
-136.87
-144.19
-143.67
-133.56
-114.17
-87.94
-58.70
-30.46
-6.23
12.59
26.14
35.49
42.00
46.81
50.61
53.80
56.50
58.64
60.02
60.40
59.54
57.45
54.45
51.09
48.14
46.23
45.73
46.55
48.16
49.59
49.86
48.16
44.23
38.40
31.41
24.18
17.34
11.04
4.90
-1.63
-9.00
-17.27
-26.04
-34.67
-42.53
-49.33
-55.26
-61.03
-67.67
-76.19
-87.16
-100.16
-113.59
-124.73
-130.37
-127.84
-115.93
-95.49
-69.24
-40.95
-14.26
8.28
25.61
38.04
46.66
52.69
57.16
60.66
63.46
65.63
67.12
67.79
67.54
66.27
64.00
60.96
57.54
54.32
51.83
50.38
49.92
49.94
49.68
48.30
45.27
40.51
34.42
27.66
20.79
14.05
7.28
0.03
-8.12
-17.27
-27.12
-37.04
-46.32
-54.48
-61.46
-67.66
-73.90
-81.18
-90.40
-101.82
-114.67
-126.91
-135.47
-137.10
-129.51
-112.33
-87.43
-58.39
-29.32
-3.59
17.00
32.27
43.24
51.33
57.77
63.29
68.17
72.41
75.83
78.26
79.51
79.49
78.18
75.75
72.56
69.12
66.01
63.70
62.43
62.07
62.18
62.13
61.30
59.27
55.86
51.16
45.41
38.94
32.09
25.18
18.49
12.19
6.24
0.44
-5.57
-12.15
-19.48
-27.48
-35.80
-43.89
-51.28
-57.72
-63.27
-68.41
-73.86
-80.51
-89.17
-100.27
-113.37
-126.89
-138.14
-143.81
-141.02
-128.42
-106.81
-79.10
-49.40
-21.63
1.54
19.22
31.99
41.17
48.09
53.68
58.42
62.57
66.25
69.58
72.50
74.82
76.09
75.92
74.14
70.93
66.94
63.02
60.03
58.43
58.15
58.53
58.57
57.25
53.94
48.60
41.77
34.32
27.09
20.53
14.59
8.67
2.08
-5.76
-14.88
-24.80
-34.68
-43.64
-51.18
-57.33
-62.69
-68.14
-74.73
-83.26
-94.12
-106.84
-119.96
-131.02
-136.99
-135.16
-124.09
-104.23
-78.06
-49.32
-21.90
1.26
18.84
31.15
39.46
45.29
49.79
53.46
56.31
58.12
58.79
58.40
57.26
55.72
54.08
52.43
50.75
48.96
47.03
45.04
43.08
41.25
39.49
37.53
35.00
31.42
26.46
19.99
12.12
3.17
-6.42
-16.21
-25.81
-34.93
-43.36
-51.09
-58.39
-65.91
-74.48
-84.84
-97.02
-109.91
-121.14
-127.57
-126.27
-115.62
-96.06
-70.10
-41.50
-14.09
9.30
27.43
40.49
49.50
55.75
60.26
63.68
66.33
68.33
69.64
70.05
69.33
67.29
64.01
59.92
55.71
52.19
49.94
49.12
49.33
49.80
49.61
48.03
44.77
39.96
34.03
27.46
20.57
13.39
5.74
-2.59
-11.72
-21.47
-31.45
-41.12
-50.04
-58.01
-65.23
-72.35
-80.41
-90.44
-102.92
-117.24
-131.38
-142.18
-146.19
-140.87
-125.52
-101.71
-72.81
-42.83
-15.29
7.67
25.50
38.83
48.87
56.78
63.40
69.21
74.37
78.85
82.52
85.11
86.35
86.05
84.20
81.09
77.28
73.44
70.25
68.15
67.26
67.32
67.72
67.63
66.17
62.71
57.12
49.84
41.81
34.10
27.42
21.81
16.62
10.81
3.52
-5.55
-15.88
-26.50
-36.35
-44.75
-51.70
-57.76
-63.89
-71.09
-80.28
-91.97
-105.97
-121.08
-134.97
-144.46
-146.36
-138.51
-120.75
-95.10
-65.24
-35.30
-8.66
12.86
29.12
41.08
50.13
57.47
63.81
69.39
74.14
77.83
80.18
80.99
80.15
77.80
74.31
70.31
66.51
63.54
61.72
60.93
60.61
59.93
58.15
54.83
50.00
44.11
37.69
31.11
24.32
16.99
8.71
-0.64
-10.79
-21.09
-30.86
-39.62
-47.34
-54.45
-61.78
-70.28
-80.75
-93.47
-107.70
-121.53
-132.06
-136.07
-131.10
-116.41
-93.42
-65.39
-36.37
-9.96
11.63
27.88
39.54
47.99
54.45
59.64
63.73
66.57
67.99
67.99
66.77
64.64
61.89
58.70
55.16
51.37
47.57
44.12
41.42
39.72
38.91
38.47
37.57
35.27
30.84
23.99
14.97
4.50
-6.48
-17.09
-26.78
-35.49
-43.58
-51.70
-60.62
-71.03
-83.33
-97.34
-112.01
-125.28
-134.37
-136.40
-129.39
-113.08
-89.23
-61.17
-32.80
-7.42
13.12
28.55
39.80
48.26
55.10
61.00
66.09
70.19
73.02
74.39
74.28
72.82
70.27
67.01
63.48
60.12
57.25
55.03
53.32
51.79
50.00
47.53
44.08
39.53
33.90
27.25
19.69
11.31
2.19
-7.45
-17.36
-27.19
-36.61
-45.38
-53.49
-61.23
-69.29
-78.58
-89.94
-103.66
-118.85
-133.31
-143.77
-146.85
-140.21
-123.53
-98.81
-69.75
-40.47
-14.23
7.34
24.30
37.75
49.00
58.95
67.90
75.74
82.22
87.18
90.65
92.70
93.39
92.70
90.67
87.47
83.55
79.57
76.26
74.12
73.16
72.85
72.22
70.23
66.19
60.03
52.33
44.06
36.16
29.17
23.07
17.29
11.06
3.68
-5.14
-15.14
-25.62
-35.68
-44.58
-52.10
-58.65
-65.20
-72.95
-82.98
-95.71
-110.55
-125.77
-138.61
-145.85
-144.72
-133.80
-113.64
-86.80
-57.10
-28.44
-3.74
15.80
30.61
42.11
51.84
60.82
69.31
76.95
83.17
87.51
89.78
90.05
88.58
85.69
81.77
77.39
73.24
70.04
68.35
68.21
69.08
69.92
69.55
67.04
62.13
55.22
47.23
39.18
31.72
24.90
18.20
10.87
2.32
-7.50
-18.05
-28.41
-37.67
-45.38
-51.72
-57.53
-64.01
-72.36
-83.34
-96.84
-111.58
-125.14
-134.35
-136.12
-128.53
-111.54
-87.24
-59.24
-31.53
-7.28
11.96
26.20
36.65
44.79
51.79
58.18
63.93
68.65
71.90
73.34
72.90
70.78
67.42
63.44
59.52
56.28
54.09
52.97
52.55
52.16
51.07
48.73
44.95
39.91
33.99
27.54
20.67
13.26
5.14
-3.75
-13.16
-22.54
-31.26
-38.88
-45.36
-51.08
-56.83
-63.58
-72.24
-83.26
-96.24
-109.69
-121.03
-127.20
-125.45
-114.47
-94.91
-69.38
-41.66
-15.47
6.63
23.77
36.60
46.59
55.17
63.14
70.51
76.77
81.31
83.81
84.40
83.53
81.79
79.57
77.04
74.23
71.25
68.40
66.18
64.96
64.75
65.01
64.74
62.84
58.56
51.83
43.35
34.26
25.73
18.46
12.41
6.98
1.20
-5.69
-13.96
-23.24
-32.69
-41.39
-48.65
-54.34
-58.90
-63.22
-68.36
-75.37
-84.94
-97.20
-111.36
-125.57
-137.03
-142.58
-139.68
-127.31
-106.52
-80.22
-52.23
-26.13
-4.24
12.80
25.68
35.79
44.44
52.44
59.98
66.80
72.46
76.53
78.71
78.94
77.30
74.09
69.83
65.15
60.76
57.25
54.95
53.80
53.30
52.71
51.25
48.38
44.00
38.41
32.11
25.56
18.88
11.89
4.21
-4.47
-14.11
-24.25
-34.16
-43.10
-50.67
-56.99
-62.81
-69.23
-77.42
-88.12
-101.10
-114.85
-126.72
-133.41
-132.12
-121.49
-102.33
-77.35
-50.35
-24.92
-3.46
13.25
25.79
35.33
43.01
49.49
54.98
59.41
62.63
64.56
65.17
64.46
62.41
59.07
54.59
49.34
43.84
38.73
34.57
31.69
30.05
29.16
28.22
26.21
22.33
16.18
8.00
-1.39
-10.87
-19.41
-26.44
-32.10
-37.16
-42.81
-50.22
-60.08
-72.22
-85.45
-97.54
-105.71
-107.36
-100.90
-86.38
-65.59
-41.53
-17.46
4.01
21.53
34.95
44.95
52.44
58.16
62.50
65.63
67.62
68.57
68.54
67.56
65.53
62.30
57.81
52.24
46.11
40.21
35.40
32.23
30.67
30.01
29.03
26.48
21.56
14.24
5.25
-4.25
-13.15
-20.86
-27.43
-33.50
-40.05
-48.02
-58.11
-70.46
-84.39
-98.29
-109.71
-115.83
-114.33
-104.22
-86.32
-63.16
-38.13
-14.53
5.49
21.14
32.82
41.46
47.95
52.84
56.30
58.35
59.06
58.62
57.25
55.08
52.13
48.26
43.44
37.84
32.00
26.71
22.70
20.36
19.38
18.84
17.42
14.01
8.08
-0.05
-9.38
-18.68
-27.01
-34.07
-40.32
-46.74
-54.45
-64.34
-76.67
-90.73
-104.78
-116.17
-121.93
-119.59
-108.10
-88.35
-63.02
-35.84
-10.35
11.00
27.38
39.24
47.69
53.83
58.33
61.53
63.56
64.56
64.72
64.12
62.68
60.14
56.28
51.13
45.14
39.11
33.97
30.38
28.47
27.66
26.84
24.73
20.38
13.48
4.47
-5.67
-15.78
-24.96
-32.86
-39.77
-46.48
-54.08
-63.68
-75.94
-90.64
-106.35
-120.36
-129.29
-129.99
-120.72
-101.89
-76.03
-47.03
-18.87
5.53
24.85
39.34
50.13
58.55
65.60
71.79
77.21
81.69
84.90
86.50
86.22
84.01
80.07
74.95
69.40
64.16
59.74
56.26
53.45
50.84
47.99
44.64
40.73
36.31
31.35
25.67
19.02
11.17
2.16
-7.73
-17.96
-27.95
-37.27
-45.77
-53.61
-61.22
-69.30
-78.65
-89.96
-103.36
-117.96
-131.60
-141.10
-143.17
-135.54
-117.97
-92.52
-62.88
-33.14
-6.56
15.21
32.11
45.09
55.35
63.80
70.95
76.98
82.00
86.03
89.03
90.80
91.04
89.47
86.07
81.25
75.80
70.75
67.04
65.09
64.69
65.00
64.86
63.23
59.50
53.69
46.37
38.41
30.66
23.64
17.33
11.25
4.62
-3.22
-12.51
-22.89
-33.47
-43.22
-51.42
-58.00
-63.62
-69.45
-76.76
-86.46
-98.70
-112.57
-126.09
-136.46
-140.66
-136.32
-122.56
-100.44
-72.73
-43.14
-15.28
8.38
26.81
40.30
49.89
56.79
61.93
65.90
68.94
71.10
72.33
72.52
71.56
69.47
66.36
62.56
58.51
54.75
51.71
49.64
48.45
47.73
46.82
45.05
41.98
37.51
31.95
25.76
19.34
12.76
5.76
-1.98
-10.62
-19.95
-29.33
-38.07
-45.66
-52.18
-58.26
-64.96
-73.37
-84.16
-97.19
-111.22
-123.93
-132.36
-133.65
-125.95
-109.16
-85.15
-57.28
-29.44
-4.87
14.54
28.56
38.14
44.71
49.52
53.19
55.83
57.27
57.43
56.42
54.66
52.58
50.47
48.33
45.93
43.04
39.57
35.80
32.17
29.17
26.96
25.21
23.15
19.82
14.48
6.94
-2.35
-12.44
-22.30
-31.17
-38.84
-45.60
-52.15
-59.38
-68.15
-79.08
-92.18
-106.57
-120.19
-130.12
-133.27
-127.41
-112.10
-88.97
-61.24
-32.81
-6.94
14.40
30.79
42.89
51.85
58.64
63.86
67.64
69.91
70.65
69.98
68.18
65.57
62.34
58.52
54.06
49.01
43.67
38.62
34.54
31.89
30.62
30.10
29.21
26.79
22.01
14.67
5.28
-5.21
-15.70
-25.41
-34.02
-41.83
-49.54
-58.13
-68.53
-81.28
-96.22
-112.19
-126.89
-137.31
-140.33
-133.85
-117.52
-93.08
-63.90
-33.91
-6.49
16.41
34.33
47.93
58.33
66.54
73.23
78.68
82.98
86.02
87.63
87.63
85.96
82.82
78.67
74.18
69.92
66.26
63.21
60.53
57.94
55.24
52.31
49.04
45.19
40.45
34.45
27.04
18.30
8.59
-1.58
-11.67
-21.31
-30.29
-38.61
-46.47
-54.32
-62.84
-72.88
-85.10
-99.45
-114.72
-128.44
-137.32
-138.19
-129.14
-110.35
-84.11
-54.23
-24.69
1.39
22.41
38.37
50.28
59.45
66.99
73.55
79.25
83.89
87.09
88.51
87.97
85.52
81.54
76.62
71.51
66.89
63.23
60.65
58.95
57.63
56.14
53.98
50.86
46.68
41.45
35.19
27.86
19.43
9.98
-0.23
-10.72
-20.93
-30.41
-38.99
-46.82
-54.36
-62.27
-71.32
-82.18
-95.12
-109.58
-123.86
-135.14
-140.13
-136.09
-121.96
-98.95
-70.25
-40.03
-12.11
11.12
29.05
42.41
52.52
60.50
66.89
71.71
74.76
75.93
75.33
73.29
70.25
66.58
62.53
58.26
53.83
49.35
45.00
41.10
37.90
35.49
33.62
31.62
28.56
23.53
15.97
6.02
-5.50
-17.34
-28.31
-37.72
-45.67
-52.97
-60.83
-70.43
-82.52
-97.06
-113.03
-128.40
-140.34
-145.89
-142.67
-129.67
-107.77
-79.49
-48.32
-17.77
9.58
32.57
51.42
67.08
80.44
91.62
100.00
104.48
104.42
100.08
92.82
84.61
77.23
71.61
67.61
64.44
61.26
57.71
54.01
50.64
47.85
45.39
42.55
38.39
32.24
23.89
13.67
2.43
-8.92
-19.62
-29.30
-38.04
-46.27
-54.62
-63.74
-74.30
-86.83
-101.53
-117.81
-133.95
-147.11
-153.80
-150.98
-137.15
-113.21
-82.22
-48.59
-16.57
10.90
32.73
49.41
62.21
72.42
80.84
87.80
93.31
97.37
100.00
101.21
100.99
99.21
95.80
90.93
85.15
79.31
74.39
71.17
69.85
69.99
70.51
70.14
67.75
62.76
55.34
46.22
36.58
27.47
19.60
13.02
7.19
1.21
-5.90
-14.72
-25.21
-36.71
-48.15
-58.48
-67.13
-74.28
-80.79
-88.06
-97.50
-110.07
-125.66
-142.71
-158.23
-168.30
-169.17
-158.46
-136.21
-104.99
-69.18
-33.65
-2.26
22.97
42.00
56.06
66.84
75.70
83.40
90.17
95.91
100.46
103.64
105.31
105.39
103.88
100.98
97.09
92.86
88.96
85.95
84.03
83.05
82.47
81.59
79.79
76.68
72.21
66.61
60.23
53.36
46.10
38.42
30.33
21.96
13.60
5.55
-2.11
-9.63
-17.49
-26.11
-35.60
-45.54
-55.21
-63.90
-71.28
-77.56
-83.48
-90.02
-98.23
-108.92
-122.31
-137.60
-152.67
-164.19
-168.36
-162.12
-144.34
-116.48
-82.28
-46.59
-13.80
13.29
33.84
48.58
58.96
66.35
71.73
75.59
78.21
79.80
80.50
80.44
79.59
77.86
75.17
71.66
67.70
63.92
60.99
59.42
59.30
60.16
61.13
61.08
59.08
54.66
47.95
39.68
30.85
22.42
14.96
8.47
2.45
-3.89
-11.24
-19.90
-29.65
-39.85
-49.66
-58.37
-65.64
-71.64
-77.06
-83.02
-90.78
-101.36
-114.97
-130.50
-145.37
-155.90
-158.31
-149.94
-130.30
-101.40
-67.18
-32.29
-0.72
25.03
44.25
57.57
66.27
71.65
74.82
76.53
77.35
77.60
77.39
76.58
74.88
72.05
68.14
63.62
59.29
56.02
54.37
54.34
55.23
55.92
55.22
52.32
47.03
39.83
31.60
23.18
15.13
7.46
-0.22
-8.45
-17.65
-27.81
-38.51
-49.08
-58.84
-67.46
-75.05
-82.27
-90.14
-99.81
-112.02
-126.65
-142.21
-155.89
-164.00
-163.05
-150.90
-127.74
-96.16
-60.47
-25.35
5.45
29.95
48.00
60.72
69.64
76.10
80.96
84.67
87.37
89.15
90.06
90.04
88.96
86.61
82.92
78.10
72.72
67.70
63.95
62.04
61.90
62.67
63.04
61.67
57.70
51.12
42.75
33.83
25.48
18.16
11.48
4.48
-3.87
-14.11
-25.97
-38.49
-50.41
-60.76
-69.23
-76.31
-83.07
-90.85
-100.90
-113.95
-129.81
-146.95
-162.50
-172.62
-173.48
-162.51
-139.52
-106.99
-69.39
-31.84
1.43
28.13
48.00
62.22
72.47
80.14
86.01
90.44
93.55
95.54
96.58
96.74
95.91
93.81
90.24
85.33
79.67
74.22
69.95
67.49
66.81
67.14
67.22
65.82
62.08
55.95
48.09
39.56
31.32
23.81
16.78
9.52
1.18
-8.65
-19.89
-31.84
-43.58
-54.26
-63.46
-71.30
-78.43
-85.94
-95.11
-106.93
-121.61
-137.94
-153.12
-163.23
-164.31
-153.73
-131.36
-99.76
-63.47
-27.43
4.37
29.86
48.85
62.38
71.88
78.52
83.06
85.91
87.27
87.30
86.09
83.75
80.39
76.27
71.73
67.16
62.87
59.03
55.68
52.77
50.22
47.98
45.88
43.59
40.55
36.06
29.52
20.75
10.06
-1.68
-13.42
-24.23
-33.67
-41.90
-49.59
-57.71
-67.26
-79.08
-93.54
-110.12
-127.11
-141.48
-149.46
-147.60
-134.06
-109.53
-77.23
-41.89
-8.28
20.20
42.17
57.97
68.82
76.01
80.45
82.68
83.09
82.22
80.66
78.89
77.05
74.91
72.02
68.04
63.04
57.59
52.66
49.17
47.59
47.60
48.08
47.44
44.19
37.44
27.25
14.58
0.94
-12.19
-23.81
-33.69
-42.40
-51.13
-61.34
-74.30
-90.53
-109.23
-128.06
-143.34
-150.96
-147.72
-132.47
-106.72
-74.23
-39.78
-7.69
19.28
40.21
55.56
66.38
73.67
78.10
80.20
80.50
79.63
78.13
76.23
73.79
70.38
65.61
59.46
52.48
45.65
40.02
36.24
34.24
33.13
31.48
27.84
21.26
11.65
-0.22
-13.05
-25.50
-36.68
-46.45
-55.46
-64.95
-76.31
-90.63
-107.98
-127.00
-144.75
-157.23
-160.50
-152.02
-131.70
-102.05
-67.41
-32.52
-1.08
25.01
45.65
61.76
74.49
84.60
92.36
97.76
100.87
101.91
101.24
99.17
95.81
91.12
85.07
77.89
70.18
62.81
56.65
52.14
49.08
46.47
42.97
37.24
28.52
16.92
3.36
-10.77
-24.09
-35.78
-45.78
-54.83
-64.17
-75.21
-88.98
-105.59
-123.86
-141.15
-153.77
-157.95
-151.04
-132.62
-104.82
-71.75
-38.14
-7.92
16.86
36.04
50.82
62.66
72.62
81.00
87.60
92.09
94.32
94.41
92.63
89.31
84.78
79.47
73.98
69.04
65.33
63.19
62.47
62.47
62.10
60.33
56.46
50.40
42.62
33.94
25.13
16.70
8.64
0.54
-8.17
-17.85
-28.44
-39.37
-49.85
-59.19
-67.20
-74.32
-81.67
-90.65
-102.50
-117.70
-135.39
-153.17
-167.30
-173.65
-168.93
-151.98
-124.23
-89.51
-52.75
-18.50
10.29
32.76
49.70
62.84
73.83
83.80
93.08
101.44
108.36
113.27
115.75
115.68
113.26
108.95
103.51
97.83
92.78
89.08
87.15
86.97
88.05
89.50
90.26
89.34
86.18
80.76
73.65
65.76
58.02
51.08
45.10
39.80
34.58
28.88
22.34
14.92
6.93
-1.12
-8.67
-15.33
-21.02
-26.04
-31.02
-36.74
-43.82
-52.40
-62.11
-72.16
-81.63
-89.91
-96.90
-103.15
-109.73
-117.96
-129.00
-143.30
-160.04
-176.77
-189.67
-194.45
-187.76
-168.47
-138.32
-101.46
-63.05
-27.66
1.97
25.19
42.92
56.67
67.83
77.27
85.40
92.39
98.27
102.98
106.29
107.90
107.56
105.23
101.28
96.44
91.70
87.97
85.87
85.50
86.35
87.53
87.91
86.62
83.22
77.89
71.24
64.15
57.35
51.20
45.59
39.99
33.80
26.62
18.48
9.92
1.69
-5.54
-11.54
-16.61
-21.53
-27.13
-33.97
-42.13
-51.19
-60.42
-69.10
-76.76
-83.32
-89.14
-94.99
-101.91
-110.98
-122.77
-136.78
-150.99
-162.07
-166.10
-160.00
-142.72
-115.79
-82.96
-48.87
-17.64
8.27
28.26
43.13
54.22
62.79
69.72
75.53
80.58
85.07
89.01
92.13
93.98
94.09
92.28
88.81
84.44
80.15
76.86
75.05
74.65
75.04
75.32
74.64
72.51
68.92
64.24
58.99
53.61
48.29
42.92
37.23
30.99
24.13
16.91
9.69
2.90
-3.27
-8.91
-14.40
-20.20
-26.60
-33.58
-40.81
-47.84
-54.28
-60.02
-65.28
-70.58
-76.64
-84.24
-93.89
-105.44
-117.66
-128.17
-133.91
-132.00
-120.86
-100.94
-74.69
-45.83
-18.17
5.52
23.94
37.23
46.37
52.63
57.13
60.65
63.68
66.38
68.67
70.27
70.80
70.01
67.86
64.58
60.63
56.56
52.89
49.97
48.00
46.94
46.48
46.11
45.21
43.16
39.57
34.46
28.26
21.65
15.41
10.04
5.63
1.83
-2.01
-6.54
-12.17
-18.85
-26.15
-33.39
-39.97
-45.56
-50.20
-54.24
-58.32
-63.13
-69.38
-77.53
-87.48
-98.32
-108.16
-114.39
-114.40
-106.54
-90.79
-69.06
-44.54
-20.78
-0.53
14.85
25.46
32.33
36.71
39.58
41.40
42.25
42.13
41.12
39.49
37.53
35.52
33.50
31.38
29.02
26.43
23.79
21.42
19.65
18.55
17.85
16.96
15.20
11.98
7.06
0.59
-6.92
-14.77
-22.25
-28.87
-34.49
-39.29
-43.78
-48.64
-54.58
-62.18
-71.64
-82.48
-93.38
-102.21
-106.52
-104.21
-94.31
-77.51
-55.98
-32.77
-10.86
7.63
21.80
31.83
38.53
42.89
45.64
47.27
48.02
47.98
47.25
45.96
44.23
42.11
39.51
36.23
32.16
27.44
22.54
18.23
15.20
13.74
13.45
13.32
12.02
8.52
2.40
-5.87
-15.23
-24.41
-32.44
-39.02
-44.52
-49.84
-56.03
-64.03
-74.30
-86.54
-99.56
-111.17
-118.69
-119.52
-112.12
-96.64
-75.04
-50.47
-26.31
-5.14
11.80
24.59
34.13
41.49
47.43
52.31
56.14
58.81
60.23
60.39
59.37
57.34
54.44
50.82
46.67
42.21
37.73
33.63
30.28
27.88
26.34
25.13
23.47
20.45
15.40
8.16
-0.80
-10.59
-20.19
-28.82
-36.26
-42.89
-49.47
-56.91
-65.95
-77.01
-89.88
-103.68
-116.68
-126.50
-130.55
-126.83
-114.67
-95.17
-70.99
-45.51
-21.80
-1.78
14.10
26.57
36.85
46.05
54.74
62.87
69.98
75.47
78.88
80.04
79.14
76.65
73.12
69.15
65.19
61.56
58.45
55.90
53.84
52.01
50.04
47.57
44.31
40.18
35.19
29.38
22.73
15.14
6.57
-2.82
-12.61
-22.26
-31.24
-39.38
-46.93
-54.59
-63.27
-73.80
-86.45
-100.61
-114.59
-125.78
-131.23
-128.60
-116.95
-97.24
-72.13
-45.17
-19.65
2.28
19.96
33.98
45.44
55.36
64.20
71.96
78.33
83.05
86.02
87.25
86.83
84.84
81.48
77.10
72.36
68.07
64.96
63.36
62.97
62.94
62.15
59.67
55.14
48.84
41.53
34.02
26.87
20.07
13.23
5.77
-2.63
-11.88
-21.43
-30.57
-38.76
-45.91
-52.48
-59.31
-67.35
-77.31
-89.30
-102.55
-115.25
-124.78
-128.29
-123.57
-109.92
-88.56
-62.42
-35.17
-10.11
10.75
27.00
39.34
48.93
56.68
63.04
67.99
71.46
73.43
74.04
73.52
72.07
69.85
67.07
64.09
61.37
59.37
58.35
58.14
58.13
57.46
55.35
51.36
45.62
38.70
31.33
24.02
16.85
9.58
1.85
-6.54
-15.38
-24.25
-32.59
-40.12
-46.85
-53.20
-59.80
-67.42
-76.75
-88.15
-101.28
-114.78
-126.27
-132.77
-131.59
-121.34
-102.52
-77.62
-50.22
-23.97
-1.37
16.64
30.61
41.86
51.70
60.89
69.46
76.96
82.86
86.82
88.79
89.00
87.74
85.26
81.84
77.83
73.69
70.00
67.22
65.61
64.99
64.87
64.49
63.09
60.08
55.22
48.73
41.14
33.26
25.83
19.33
13.73
8.54
2.96
-3.73
-11.81
-21.04
-30.67
-39.81
-47.78
-54.37
-59.98
-65.40
-71.64
-79.62
-89.94
-102.55
-116.50
-129.83
-139.84
-143.67
-139.22
-125.92
-105.09
-79.56
-52.82
-27.90
-6.64
10.64
24.62
36.43
47.01
56.76
65.60
73.17
79.16
83.35
85.75
86.45
85.65
83.64
80.82
77.80
75.21
73.56
73.02
73.30
73.76
73.58
72.13
69.12
64.72
59.46
53.96
48.72
43.91
39.34
34.58
29.18
22.92
15.92
8.64
1.65
-4.65
-10.20
-15.32
-20.56
-26.39
-32.99
-40.26
-47.75
-55.00
-61.69
-67.82
-73.74
-80.09
-87.69
-97.15
-108.56
-121.11
-132.92
-141.38
-143.72
-138.04
-123.95
-102.85
-77.50
-51.19
-26.68
-5.65
11.50
25.32
36.72
46.54
55.25
62.95
69.51
74.74
78.47
80.67
81.44
80.93
79.40
77.20
74.68
72.31
70.51
69.57
69.51
70.00
70.40
69.91
67.91
64.15
58.93
52.96
47.12
42.01
37.74
33.86
29.61
24.39
18.04
11.00
4.10
-1.92
-6.74
-10.66
-14.45
-18.93
-24.58
-31.35
-38.72
-45.99
-52.61
-58.40
-63.59
-68.70
-74.45
-81.56
-90.54
-101.39
-113.18
-124.02
-131.21
-132.02
-124.59
-108.75
-86.19
-60.04
-33.81
-10.38
8.64
23.04
33.54
41.22
47.10
51.84
55.84
59.30
62.34
64.94
66.97
68.15
68.13
66.73
64.09
60.69
57.33
54.75
53.41
53.23
53.62
53.67
52.56
49.80
45.33
39.55
33.06
26.42
19.92
13.60
7.23
0.49
-6.84
-14.80
-23.13
-31.42
-39.12
-45.87
-51.57
-56.52
-61.44
-67.22
-74.74
-84.36
-95.53
-106.68
-115.35
-118.85
-115.08
-103.26
-84.27
-60.43
-34.85
-10.53
10.36
26.78
38.74
46.96
52.39
55.94
58.18
59.44
59.83
59.36
58.09
56.13
53.69
50.98
48.19
45.45
42.84
40.39
38.07
35.81
33.47
30.90
27.95
24.48
20.38
15.55
9.93
3.49
-3.69
-11.46
-19.56
-27.70
-35.66
-43.29
-50.60
-57.82
-65.30
-73.59
-83.18
-94.31
-106.59
-118.72
-128.54
-133.53
-131.49
-121.38
-103.84
-81.00
-55.89
-31.50
-9.95
7.83
22.03
33.44
43.00
51.35
58.79
65.32
70.69
74.67
76.96
77.45
76.13
73.25
69.19
64.47
59.64
55.10
51.18
47.97
45.44
43.34
41.29
38.78
35.31
30.49
24.16
16.47
7.79
-1.28
-10.22
-18.61
-26.31
-33.40
-40.25
-47.38
-55.44
-65.05
-76.53
-89.50
-102.65
-113.70
-119.88
-118.72
-108.93
-90.99
-67.12
-40.52
-14.44
8.73
27.90
43.06
54.85
64.01
71.02
76.09
79.29
80.70
80.52
79.06
76.65
73.52
69.70
65.10
59.65
53.47
46.98
40.81
35.62
31.77
29.09
26.92
24.34
20.50
15.00
7.99
0.09
-7.94
-15.45
-22.16
-28.21
-34.13
-40.69
-48.75
-59.05
-71.82
-86.46
-101.36
-113.97
-121.36
-121.10
-112.04
-94.81
-71.65
-45.75
-20.30
2.27
20.61
34.44
44.19
50.65
54.69
57.16
58.69
59.71
60.29
60.20
59.01
56.31
51.87
45.85
38.78
31.51
24.95
19.83
16.37
14.22
12.52
10.17
6.23
0.35
-7.23
-15.69
-24.09
-31.72
-38.44
-44.76
-51.68
-60.39
-71.75
-85.80
-101.41
-116.24
-127.12
-130.82
-125.15
-109.64
-85.88
-57.05
-26.96
0.93
24.35
42.39
55.35
64.14
69.86
73.49
75.73
77.02
77.53
77.18
75.79
73.06
68.79
62.98
56.02
48.62
41.74
36.23
32.47
30.14
28.25
25.51
20.78
13.54
4.03
-6.86
-18.05
-28.64
-38.23
-47.12
-56.18
-66.65
-79.60
-95.35
-112.91
-129.73
-142.15
-146.39
-139.88
-122.25
-95.58
-63.70
-30.99
-1.03
24.12
43.92
58.92
70.01
78.05
83.67
87.43
89.87
91.50
92.61
93.15
92.72
90.71
86.63
80.48
72.81
64.68
57.30
51.62
47.94
45.77
43.99
41.20
36.24
28.62
18.65
7.26
-4.37
-15.31
-25.22
-34.41
-43.86
-54.78
-68.29
-84.81
-103.58
-122.42
-137.88
-146.08
-143.84
-129.85
-105.32
-73.75
-39.76
-7.79
19.22
40.28
55.99
67.77
77.03
84.60
90.77
95.44
98.55
100.13
100.37
99.42
97.26
93.78
88.84
82.60
75.49
68.22
61.59
56.14
52.05
49.06
46.52
43.53
39.25
33.03
24.71
14.69
3.77
-7.05
-16.97
-25.72
-33.58
-41.37
-50.16
-61.02
-74.66
-91.06
-108.98
-125.92
-138.33
-142.46
-135.61
-117.23
-89.32
-55.88
-21.70
9.16
34.31
53.24
66.79
76.32
83.02
87.61
90.42
91.65
91.48
90.16
87.89
84.81
80.95
76.29
70.91
65.04
59.07
53.47
48.71
45.04
42.40
40.36
38.18
34.93
29.82
22.48
13.10
2.45
-8.43
-18.58
-27.53
-35.41
-42.86
-50.77
-60.00
-71.25
-84.78
-100.20
-116.16
-130.14
-138.86
-139.06
-128.73
-108.02
-79.46
-47.17
-15.59
11.89
33.60
49.51
60.55
67.81
72.10
73.89
73.58
71.72
69.01
66.10
63.34
60.69
57.73
54.06
49.53
44.39
39.24
34.77
31.42
29.18
27.56
25.74
22.81
18.11
11.37
2.84
-6.80
-16.62
-25.82
-33.94
-41.05
-47.72
-54.89
-63.61
-74.72
-88.40
-103.78
-118.72
-130.02
-134.18
-128.53
-112.29
-87.01
-56.21
-24.27
4.93
28.94
47.01
59.70
68.15
73.51
76.60
77.96
77.98
76.96
75.14
72.67
69.62
66.06
62.10
57.97
53.93
50.22
46.95
44.08
41.44
38.82
36.01
32.82
29.11
24.66
19.28
12.79
5.15
-3.46
-12.67
-21.98
-30.94
-39.26
-47.00
-54.46
-62.22
-70.96
-81.40
-94.01
-108.63
-124.04
-137.78
-146.49
-146.84
-136.72
-116.13
-87.47
-54.77
-22.42
6.13
29.11
46.37
58.77
67.42
73.21
76.79
78.67
79.43
79.65
79.66
79.44
78.57
76.46
72.77
67.67
61.89
56.45
52.31
49.76
48.45
47.41
45.56
42.16
37.08
30.74
23.87
17.10
10.66
4.35
-2.36
-9.96
-18.68
-28.31
-38.25
-47.78
-56.33
-63.74
-70.35
-76.97
-84.70
-94.54
-106.97
-121.45
-136.11
-147.81
-152.89
-148.26
-132.59
-107.03
-74.92
-40.84
-9.16
17.22
37.27
51.53
61.29
67.85
72.03
74.27
74.85
74.14
72.62
70.71
68.68
66.41
63.64
60.10
55.74
50.79
45.78
41.34
37.93
35.67
34.23
32.88
30.66
26.70
20.54
12.23
2.41
-8.00
-18.08
-27.21
-35.28
-42.64
-50.04
-58.39
-68.61
-81.25
-96.18
-112.16
-126.75
-136.72
-138.84
-130.97
-112.95
-86.75
-55.96
-24.63
3.83
27.37
45.35
58.22
66.74
71.74
73.91
73.96
72.66
70.81
68.96
67.25
65.42
62.91
59.31
54.61
49.33
44.30
40.34
37.86
36.56
35.58
33.69
29.85
23.57
15.10
5.30
-4.66
-13.84
-21.80
-28.86
-35.93
-44.28
-55.07
-68.77
-84.67
-100.66
-113.54
-119.73
-116.52
-102.93
-80.26
-51.71
-21.35
7.07
30.96
49.17
61.75
69.42
73.13
73.81
72.37
69.61
66.21
62.61
58.93
55.06
50.77
45.92
40.64
35.36
30.65
26.99
24.52
22.82
21.01
18.10
13.32
6.51
-1.86
-10.90
-19.74
-27.84
-35.29
-42.75
-51.28
-61.96
-75.42
-91.32
-107.91
-122.17
-130.37
-129.27
-117.24
-95.03
-65.70
-33.57
-2.98
22.88
42.52
55.96
64.08
68.02
68.84
67.35
64.24
60.15
55.57
50.86
46.13
41.37
36.58
31.88
27.60
24.12
21.63
19.93
18.41
16.13
12.26
6.38
-1.38
-10.41
-19.93
-29.23
-38.04
-46.52
-55.32
-65.37
-77.63
-92.51
-109.36
-126.06
-139.25
-145.18
-140.89
-125.42
-100.25
-68.86
-35.60
-4.28
22.65
44.37
61.19
73.86
82.95
88.77
91.51
91.53
89.53
86.35
82.74
79.00
74.94
70.12
64.26
57.64
51.14
45.87
42.61
41.29
40.82
39.34
34.99
26.64
14.42
-0.28
-15.39
-29.00
-40.15
-49.14
-57.30
-66.50
-78.39
-93.77
-112.36
-132.47
-150.99
-163.72
-166.20
-155.26
-130.38
-94.49
-53.23
-13.21
20.29
44.92
61.30
72.01
79.74
86.15
91.62
95.73
98.19
99.12
98.97
98.10
96.55
94.06
90.44
85.88
81.01
76.59
73.29
71.21
69.90
68.44
65.86
61.53
55.38
47.84
39.62
31.28
22.96
14.43
5.25
-4.86
-15.81
-27.13
-38.17
-48.44
-57.81
-66.69
-75.93
-86.68
-99.93
-115.96
-133.70
-150.52
-162.52
-165.61
-156.94
-136.05
-105.29
-69.06
-32.43
0.49
27.45
48.20
63.77
75.59
84.76
91.89
97.16
100.63
102.46
102.92
102.32
100.97
99.03
96.57
93.65
90.40
87.10
84.15
81.96
80.70
80.21
79.90
78.94
76.53
72.13
65.72
57.68
48.74
39.68
31.10
23.29
16.10
9.12
1.81
-6.33
-15.51
-25.59
-36.12
-46.50
-56.17
-64.80
-72.42
-79.40
-86.47
-94.63
-104.93
-118.06
-133.79
-150.43
-164.82
-172.89
-170.87
-156.76
-131.18
-97.35
-60.10
-24.28
6.57
30.84
48.62
60.99
69.18
74.22
76.83
77.63
77.28
76.44
75.55
74.73
73.72
72.12
69.66
66.51
63.23
60.66
59.39
59.47
60.22
60.47
59.04
55.26
49.27
41.86
34.11
26.80
20.15
13.72
6.75
-1.42
-11.02
-21.76
-32.93
-43.75
-53.62
-62.30
-70.06
-77.60
-86.00
-96.44
-109.62
-125.23
-141.37
-154.72
-161.24
-157.51
-141.96
-115.64
-81.93
-45.52
-10.93
18.65
41.91
59.08
71.30
79.84
85.70
89.49
91.59
92.28
91.89
90.74
89.05
86.95
84.43
81.47
78.16
74.72
71.58
69.17
67.81
67.45
67.64
67.55
66.21
62.82
57.06
49.23
40.17
30.92
22.41
15.05
8.67
2.55
-4.19
-12.28
-21.91
-32.70
-43.78
-54.20
-63.29
-70.94
-77.62
-84.21
-91.78
-101.31
-113.43
-127.98
-143.66
-157.79
-166.69
-166.63
-155.14
-132.08
-100.01
-63.40
-27.28
4.39
29.55
48.08
61.15
70.32
76.87
81.63
85.07
87.48
89.12
90.13
90.52
90.17
88.86
86.57
83.54
80.31
77.53
75.73
75.06
75.21
75.55
75.34
74.04
71.42
67.57
62.67
56.89
50.37
43.21
35.64
27.98
20.58
13.62
7.06
0.54
-6.40
-14.15
-22.83
-32.18
-41.71
-50.87
-59.20
-66.59
-73.24
-79.67
-86.63
-95.07
-105.79
-119.12
-134.28
-149.10
-160.15
-163.56
-156.34
-137.55
-108.86
-74.14
-38.21
-5.37
21.70
42.19
56.71
66.54
72.87
76.59
78.29
78.47
77.63
76.25
74.72
73.17
71.52
69.56
67.19
64.47
61.74
59.48
58.07
57.65
57.94
58.26
57.77
55.73
51.72
45.86
38.62
30.76
22.99
15.78
9.24
3.09
-3.21
-10.23
-18.40
-27.72
-37.83
-48.01
-57.43
-65.51
-72.06
-77.48
-82.63
-88.66
-96.74
-107.56
-120.92
-135.33
-148.00
-155.33
-153.97
-141.95
-119.54
-89.33
-55.42
-22.18
6.94
30.11
47.08
58.60
65.81
69.77
71.32
71.18
69.97
68.32
66.67
65.25
64.03
62.76
61.19
59.20
56.94
54.83
53.36
52.84
53.19
53.82
53.82
52.26
48.54
42.62
35.04
26.74
18.63
11.29
4.74
-1.48
-8.18
-16.06
-25.40
-35.91
-46.78
-57.01
-65.81
-72.94
-78.80
-84.36
-90.87
-99.54
-111.10
-125.37
-140.88
-154.83
-163.49
-163.25
-151.78
-129.04
-97.46
-61.30
-25.38
6.40
31.79
50.41
63.16
71.48
76.75
79.96
81.79
82.64
82.77
82.36
81.47
80.10
78.17
75.71
72.81
69.76
66.99
64.90
63.74
63.41
63.52
63.43
62.50
60.26
56.53
51.39
45.09
38.00
30.46
22.86
15.52
8.66
2.21
-4.18
-11.10
-19.11
-28.43
-38.80
-49.49
-59.64
-68.55
-75.99
-82.38
-88.57
-95.72
-104.96
-116.99
-131.57
-147.18
-160.94
-169.11
-168.08
-155.66
-131.93
-99.45
-62.48
-25.73
6.93
33.30
52.89
66.46
75.33
80.88
84.27
86.43
87.99
89.29
90.39
91.05
90.94
89.83
87.71
84.84
81.70
78.84
76.69
75.44
74.96
74.84
74.54
73.56
71.53
68.30
63.88
58.30
51.62
43.92
35.44
26.62
18.05
10.19
3.17
-3.38
-10.15
-17.79
-26.60
-36.27
-46.11
-55.29
-63.28
-70.04
-76.08
-82.26
-89.55
-98.90
-110.80
-124.89
-139.64
-152.23
-159.05
-156.72
-143.30
-119.09
-86.74
-50.52
-14.97
16.24
41.06
59.00
70.77
77.64
81.06
82.35
82.56
82.35
81.91
81.06
79.52
77.20
74.36
71.48
69.06
67.29
66.03
64.91
63.64
62.14
60.42
58.41
55.80
52.14
47.21
41.28
35.01
29.03
23.29
16.90
8.47
-3.03
-17.45
-33.31
-48.33
-60.55
-69.30
-75.45
-81.09
-88.52
-99.22
-113.14
-128.48
-141.96
-149.72
-148.32
-135.95
-112.99
-82.08
-47.21
-12.52
18.85
45.21
66.19
82.11
93.46
100.66
104.18
104.76
103.43
101.36
99.49
98.28
97.61
96.90
95.40
92.42
87.69
81.33
73.98
66.55
60.04
55.20
52.33
51.13
50.79
50.22
48.47
45.01
40.00
34.09
28.13
22.82
18.42
14.79
11.59
8.60
5.74
3.11
0.75
-1.51
-4.03
-7.28
-11.76
-18.00
-26.65
-38.38
-53.53
-71.43
-89.89
-105.17
-112.66
-108.28
-89.93
-58.34
-17.12
28.25
72.01
109.55
138.42
158.36
170.77
177.87
181.76
183.84
184.59
183.78
180.86
175.42
167.41
157.13
145.03
131.47
116.75
101.24
85.52
70.43
56.89
45.51
36.36
28.92
22.34
15.79
8.80
1.30
-6.49
-14.29
-22.00
-29.74
-37.67
-45.89
-54.22
-62.27
-69.59
-76.02
-81.80
-87.61
-94.19
-101.83
-110.11
-117.98
-124.21
-128.06
-129.68
-130.05
-130.46
-131.96
-134.97
-139.45
-145.03
-151.28
-157.47
-162.43
-164.69
-162.98
-157.05
-148.15
-138.77
-131.65
-128.63
-129.87
-134.10
-139.39
-144.28
-148.28
-151.68
-154.91
-157.96
-160.17
-160.46
-157.78
-151.39
-141.09
-127.03
-109.62
-89.41
-66.97
-42.98
-18.28
6.09
28.93
49.13
65.92
79.14
89.18
96.75
102.52
106.91
110.05
112.02
113.05
113.64
114.39
115.86
118.45
122.30
127.39
133.47
140.08
146.48
151.78
155.11
155.99
154.68
152.22
150.33
150.87
155.19
163.65
175.40
188.66
201.24
211.16
216.98