1603996744.000000, 1603996744.000000, 1603996744.000000
32.000000, 32.000000, 32.000000
-57,29,24
-55,29,26
-53,28,26
-51,26,26
-50,25,25
-52,27,26
-53,28,26
-53,27,25
-52,28,27
-52,27,28
-52,27,27
-52,27,26
-52,26,27
-52,26,27
-51,25,26
-53,25,27
-53,27,26
-55,28,28
-52,27,28
-52,28,26
-54,28,29
-53,27,29
-52,30,25
-52,30,29
-53,29,28
-51,30,25
-50,32,25
-52,35,26
-51,34,28
-50,36,25
-50,33,26
-47,33,24
-43,34,20
-53,34,28
-51,32,25
-45,31,25
-53,28,32
-57,23,25
-58,20,24
-51,20,30
-58,23,39
-59,23,38
-53,23,35
-46,17,35
-57,5,50
-55,0,55
-51,-15,62
-42,-26,58
-35,-40,46
-31,-68,38
-45,-44,38
-39,-54,33
-60,-44,24
-22,-47,26
-1,-41,2
-10,-54,33
-1,-59,60
-52,-50,35
-46,-59,59
-7,-52,68
-10,-38,59
-24,-43,43
-44,-32,38
-25,-27,32
-25,-23,27
-26,-25,31
-42,-39,41
-53,-39,44
-39,-46,53
-20,-49,53
-18,-50,45
-13,-57,38
-9,-59,31
-23,-67,29
-15,-69,41
-12,-67,42
-9,-63,38
-12,-63,34
-20,-63,26
-34,-66,10
-44,-64,-1
-62,-58,-3
-52,-59,5
-38,-67,7
-41,-57,-1
-41,-54,0
-37,-51,2
-33,-50,0
-27,-47,3
-23,-46,4
-16,-38,12
-10,-34,15
-9,-37,18
2,-34,17
-2,-38,16
-14,-44,25
-13,-73,24
-20,-76,38
-20,-65,83
-11,-70,75
-11,-62,45
7,-62,53
4,-57,50
-19,-56,35
-18,-55,32
-18,-50,29
-16,-48,29
-15,-46,28
-13,-43,29
-13,-41,27
-17,-39,25
-19,-41,28
-11,-43,27
-9,-45,28
-13,-47,28
-14,-52,30
-18,-54,29
-17,-54,30
-16,-66,30
-12,-79,33
-9,-73,32
-13,-72,29
-17,-77,27
-19,-77,25
-23,-72,23
-21,-68,23
-20,-70,22
-21,-65,21
-18,-63,19
-19,-62,22
-26,-49,23
-26,-49,22
-32,-54,20
-36,-54,21
-32,-58,23
-27,-57,31
-25,-60,36
-25,-58,34
-26,-54,33
-25,-48,30
-29,-40,27
-27,-37,27
-29,-33,24
-28,-32,24
-29,-35,20
-34,-78,16
-36,-84,17
-33,-43,25
-34,-38,25
-35,-50,20
-36,-51,16
-28,-48,14
-20,-45,13
-16,-44,11
-17,-46,6
-18,-50,4
-24,-54,1
-30,-53,2
-33,-56,3
-36,-67,6
-38,-75,10
-41,-76,11
-36,-71,13
-36,-68,12
-37,-63,14
-28,-62,21
-23,-63,31
-18,-70,36
-24,-79,39
-25,-82,43
-29,-78,37
-29,-65,25
-25,-62,22
-24,-66,6
-15,-80,3
-5,-86,26
-4,-76,28
-8,-73,20
-22,-67,12
-27,-64,0
-27,-66,-3
-28,-68,-2
-28,-69,-1
-27,-68,2
-24,-66,2
-23,-64,2
-24,-57,-2
-26,-56,-4
-25,-57,0
-22,-59,5
-13,-51,10
-9,-51,16
-8,-56,19
-4,-65,26
-8,-64,30
-14,-51,40
-11,-47,40
-6,-49,39
9,-61,31
13,-65,22
3,-68,17
-4,-66,37
-5,-61,34
-20,-60,21
-20,-61,22
-38,-59,8
-30,-62,14
-26,-62,14
-17,-61,19
-12,-60,25
-21,-59,21
-23,-59,22
-21,-59,24
-18,-61,23
-20,-63,22
-26,-88,26
-24,-84,25
-24,-70,19
-20,-57,19
-20,-62,19
-23,-75,19
-21,-75,18
-16,-76,21
-16,-70,19
-13,-70,20
-15,-67,20
-16,-66,17
-17,-65,14
-17,-59,15
-16,-58,15
-18,-52,17
-18,-49,18
-17,-44,18
-16,-42,18
-13,-41,19
-10,-41,21
-9,-41,22
-10,-45,22
-13,-55,21
-16,-65,24
-22,-66,31
-22,-60,34
-22,-67,34
-18,-75,31
-10,-75,22
-1,-67,19
-1,-64,19
-8,-63,14
-14,-63,8
-26,-63,1
-32,-63,0
-33,-63,0
-33,-59,3
-33,-57,5
-33,-55,10
-34,-56,12
-35,-58,16
-31,-62,20
-34,-63,21
-17,-63,25
-13,-62,29
-11,-75,35
-18,-74,34
-20,-73,33
-20,-68,30
-19,-66,27
-18,-63,21
-14,-63,9
-5,-69,12
7,-72,20
2,-79,17
-6,-76,7
-13,-75,0
-23,-68,-9
-23,-63,-8
-24,-62,-7
-18,-63,-4
-17,-61,-2
-14,-59,3
-15,-56,7
-13,-55,8
-14,-54,8
-16,-57,8
-20,-60,11
-20,-60,12
-19,-62,11
-17,-70,9
-16,-76,7
-18,-89,3
-22,-91,-1
-22,-84,0
-23,-70,1
-26,-66,2
-30,-66,7
-31,-67,10
-36,-65,22
-31,-66,37
-24,-67,42
-5,-59,52
-2,-54,52
-8,-47,50
-19,-41,41
-22,-40,36
-25,-38,32
-25,-37,33
-27,-36,35
-22,-32,37
-21,-31,36
-24,-25,29
-25,-23,27
-25,-19,27
-27,-16,27
-28,-17,26
-32,-21,26
-36,-27,28
-47,-38,29
-42,-43,33
-26,-45,39
-21,-38,34
-25,-40,31
-31,-45,30
-32,-44,31
-37,-48,31
-40,-53,31
-39,-52,30
-31,-60,37
-25,-60,39
-14,-62,35
-10,-60,29
-11,-60,28
-12,-62,26
-13,-62,26
-14,-59,24
-16,-56,20
-17,-54,19
-18,-57,20
-18,-61,20
-18,-63,19
-16,-62,19
-15,-59,16
-14,-58,13
-13,-58,14
-13,-61,16
-14,-63,15
-12,-63,16
-10,-70,16
-10,-71,16
-10,-70,18
-10,-72,20
-9,-76,23
-9,-76,24
-8,-75,27
-14,-75,28
-17,-78,30
-16,-76,36
-16,-76,39
-14,-79,42
-10,-78,41
-8,-79,43
-7,-81,40
-8,-83,37
-14,-81,35
-21,-74,32
-25,-67,33
-28,-47,44
-27,-35,53
-35,-20,66
-36,-23,72
-22,-33,71
-10,-40,61
-13,-35,61
-10,-25,66
-7,-17,73
-7,-12,71
-6,-2,58
-5,2,51
4,7,41
17,8,37
21,4,34
18,0,32
24,2,31
26,7,29
29,11,25
28,27,15
37,18,9
42,13,2
49,1,5
46,-7,10
45,-19,20
43,-17,26
35,-19,31
30,-15,32
28,-8,35
13,5,53
24,7,56
40,8,60
71,37,127
30,-5,127
32,9,75
5,-12,42
8,-14,40
13,-22,42
16,-28,48
20,-36,68
16,-26,74
3,-21,66
3,-17,61
9,-14,59
20,-12,61
22,-12,63
15,-16,59
12,-25,54
14,-28,52
20,-30,53
25,-27,57
34,-30,57
11,-21,48
26,-9,50
39,-16,53
25,-3,61
12,2,61
49,-3,53
32,-21,51
12,-27,72
24,-31,64
36,-29,48
38,-28,46
39,-25,54
38,-19,52
39,-14,51
29,-17,56
34,-15,58
29,-12,55
32,-12,53
30,-13,51
27,-15,47
28,-16,47
32,-18,52
31,-18,52
30,-17,53
29,-17,51
29,-18,51
33,-18,56
32,-19,54
28,-21,50
27,-25,54
28,-26,57
32,-27,55
34,-25,54
31,-24,54
27,-21,53
28,-21,52
28,-21,51
27,-21,52
25,-22,54
25,-23,56
25,-23,56
24,-22,58
25,-21,58
27,-21,55
27,-23,55
27,-23,55
25,-23,55
24,-24,55
23,-24,55
22,-24,56
22,-23,54
23,-23,55
23,-22,55
24,-23,55
25,-23,54
25,-23,55
24,-23,55
24,-23,54
24,-24,55
24,-23,56
25,-23,57
25,-22,56
25,-22,56
23,-22,58
22,-22,58
23,-22,56
22,-21,58
22,-21,57
20,-21,55
19,-21,54
19,-21,55
19,-21,57
21,-20,61
21,-22,60
24,-23,57
26,-21,60
24,-19,62
22,-18,60
19,-18,55
16,-17,55
10,-16,64
9,-15,66
7,-14,65
-1,-15,71
-7,-19,82
-13,-16,78
-8,-21,51
1,-23,49
0,-24,53
-9,-29,53
-18,-28,54
-17,-26,54
-17,-21,55
-18,-19,55
-10,-21,58
-37,-22,52
-34,-27,54
-33,-20,55
-31,-21,49
-24,-24,47
-31,-14,38
-25,-21,33
14,-16,53
14,-18,66
-63,-22,60
-30,-19,46
-12,-22,55
-4,-26,57
-18,-26,54
-38,-26,51
-32,-30,49
-21,-33,57
-13,-33,59
-13,-36,63
-34,-40,60
-36,-36,56
-36,-42,58
-35,-53,61
-30,-54,58
-28,-59,47
-30,-56,42
-13,-43,47
-29,-20,30
-63,-33,17
-83,-33,14
-77,-33,15
-60,-36,17
-40,-41,29
-37,-43,32
-39,-46,27
-37,-46,25
-33,-47,24
-30,-45,25
-25,-42,22
-24,-41,21
-24,-39,23
-23,-35,24
-21,-35,23
-20,-41,22
-21,-54,25
-27,-61,30
-38,-74,31
-37,-81,29
-26,-81,35
-25,-73,40
-30,-64,37
-33,-48,30
-32,-43,24
-32,-47,21
-30,-51,27
-28,-55,30
-24,-56,33
-22,-56,32
-24,-52,24
-29,-49,20
-39,-52,17
-40,-61,22
-38,-65,23
-27,-68,22
-23,-67,22
-19,-65,22
-23,-61,18
-24,-59,16
-23,-55,14
-23,-54,14
-22,-55,15
-23,-58,15
-25,-63,14
-33,-79,20
-30,-69,22
-29,-60,18
-25,-56,17
-15,-55,18
-26,-68,17
-25,-69,19
-19,-65,21
-17,-63,21
-16,-56,21
-21,-55,18
-24,-55,17
-25,-58,18
-24,-57,20
-19,-58,21
-16,-58,23
-15,-58,23
-17,-56,21
-19,-54,20
-22,-51,21
-30,-54,23
-27,-52,23
-23,-51,20
-21,-51,21
-15,-55,27
-14,-58,24
-17,-76,23
-19,-72,22
-19,-70,21
-19,-60,16
-20,-53,14
-15,-56,15
-20,-65,14
-22,-67,12
-22,-64,8
-20,-60,10
-19,-54,11
-22,-50,10
-23,-49,10
-25,-54,15
-25,-57,18
-23,-62,20
-24,-61,20
-21,-60,22
-25,-59,21
-26,-59,21
-36,-62,12
-42,-63,8
-53,-62,2
-44,-61,7
-23,-61,20
-27,-68,18
-26,-70,14
-33,-70,4
-40,-62,-4
-44,-54,-9
-40,-53,-13
-39,-58,-11
-20,-59,-7
-37,-67,-12
-34,-68,-12
-21,-66,-5
-18,-63,0
-26,-60,5
-31,-56,5
-29,-54,5
-30,-53,5
-31,-51,7
-26,-50,11
-26,-49,10
-25,-49,9
-20,-53,12
-21,-54,14
-23,-58,15
-25,-60,15
-28,-75,15
-30,-78,19
-30,-79,22
-28,-61,26
-25,-49,24
-27,-48,16
-23,-59,13
-15,-61,14
-12,-56,17
-14,-54,20
-22,-52,20
-26,-51,18
-29,-51,17
-27,-61,18
-24,-65,21
-13,-66,27
-11,-63,26
-15,-56,17
-7,-57,17
-5,-59,20
-12,-62,18
-15,-62,17
-19,-65,15
-16,-64,14
-15,-63,14
-14,-65,12
-15,-67,13
-19,-74,12
-18,-69,13
-19,-67,12
-18,-65,12
-17,-61,14
-18,-55,15
-17,-52,16
-18,-49,17
-18,-51,13
-19,-54,11
-19,-65,9
-18,-72,9
-17,-73,9
-20,-66,9
-22,-65,10
-26,-69,9
-27,-70,6
-22,-72,5
-17,-73,5
-15,-71,5
-15,-66,2
-12,-64,0
-12,-65,-5
-16,-68,-12
-16,-67,-14
-18,-65,-13
-20,-64,-13
-20,-57,-13
-20,-55,-11
-20,-64,-11
-21,-72,-7
-23,-74,-5
-29,-77,0
-33,-80,5
-37,-73,15
-25,-60,16
-22,-58,22
-22,-60,30
-21,-59,28
-21,-60,23
-22,-59,23
-22,-59,22
-24,-60,23
-24,-61,24
-24,-69,24
-23,-78,24
-22,-74,25
-20,-65,26
-19,-62,24
-19,-56,23
-17,-51,20
-14,-50,19
-11,-52,23
-11,-51,27
-10,-51,26
-7,-52,21
-8,-51,16
-12,-50,16
-15,-49,18
-19,-52,19
-20,-53,19
-18,-58,19
-14,-65,19
-12,-68,19
-11,-69,21
-10,-70,22
-12,-73,21
-14,-73,21
-15,-70,20
-14,-67,17
-13,-66,17
-14,-65,15
-14,-65,15
-12,-64,15
-10,-63,15
-9,-64,15
-9,-62,15
-10,-60,15
-8,-55,16
-8,-51,17
-9,-52,18
-11,-53,20
-12,-54,18
-13,-54,19
-12,-56,20
-13,-57,20
-17,-61,19
-19,-63,18
-20,-64,18
-21,-65,15
-20,-65,13
-21,-64,10
-23,-65,8
-25,-66,7
-26,-65,7
-26,-65,5
-27,-65,5
-28,-63,6
-28,-61,8
-27,-60,9
-27,-63,10
-24,-63,11
-24,-63,11
-24,-61,11
-23,-61,12
-25,-61,12
-24,-64,13
-23,-64,14
-20,-62,14
-20,-61,14
-18,-52,13
-17,-45,13
-18,-37,10
-18,-38,8
-20,-41,6
-25,-44,7
-23,-46,5
-25,-53,2
-25,-58,6
-27,-58,5
-38,-67,8
-42,-71,13
-41,-65,15
-45,-73,19
-44,-76,22
-36,-77,25
-33,-74,26
-27,-72,29
-9,-67,37
-21,-60,31
-24,-56,31
-21,-54,33
-19,-52,26
-19,-51,23
-18,-49,15
-25,-47,8
-24,-50,8
-22,-56,11
-22,-55,11
-24,-62,14
-30,-88,19
-23,-90,27
-27,-84,25
-28,-88,23
-24,-93,16
-19,-85,10
-15,-74,8
-12,-58,2
-13,-53,1
-15,-49,3
-21,-42,0
-23,-39,1
-33,-45,1
-27,-53,5
-39,-61,5
-37,-59,4
-16,-42,3
-27,-27,9
-27,-33,11
-8,-52,5
3,-64,7
-7,-88,4
-17,-72,3
-22,-63,3
-26,-56,-3
-22,-58,0
-20,-61,6
-22,-62,2
-19,-61,2
-15,-61,-7
-13,-63,-5
-16,-61,-2
-17,-53,1
-21,-51,2
-25,-56,5
-29,-68,4
-27,-93,10
-27,-88,9
-23,-74,11
-17,-61,21
-16,-58,25
-21,-53,19
-21,-51,16
-22,-51,15
-21,-52,18
-19,-52,19
-16,-54,19
-16,-56,17
-19,-61,19
-21,-61,25
-20,-63,26
-15,-64,30
-14,-61,30
-12,-57,31
-11,-57,31
-14,-54,28
-13,-50,23
-9,-47,20
-7,-43,14
-11,-42,10
-11,-40,15
-3,-44,6
-5,-53,7
-24,-55,11
-20,-56,10
11,-51,20
-39,-71,16
-31,-75,36
-10,-67,39
-31,-70,30
-27,-65,20
-26,-57,19
-28,-57,22
-32,-55,30
-41,-49,24
-48,-49,26
-38,-44,23
-45,-48,30
-51,-45,27
-49,-42,26
-48,-40,26
-49,-40,30
-48,-37,29
-55,-28,29
-54,-21,29
-57,-13,27
-53,-11,33
-55,-5,46
-53,2,49
-53,7,50
-45,17,57
-41,23,58
-45,29,60
-57,25,48
-60,19,45
-68,11,41
-74,9,40
-27,12,43
-12,12,42
-52,21,33
-59,27,30
-60,29,28
-51,25,37
-39,21,44
-37,21,41
-51,21,32
-48,25,40
-34,30,46
-31,30,43
-37,30,38
-41,29,35
-39,28,35
-36,29,38
-37,28,39
-43,22,40
-51,17,38
-58,11,31
-34,15,39
-34,15,43
-62,7,31
-127,-14,98
-41,-6,39
-99,2,30
-92,0,28
-49,-3,33
-53,-15,27
-70,-32,18
-57,-40,16
-61,-44,11
-56,-45,12
-54,-48,10
-52,-61,11
-54,-70,13
-53,-75,10
-33,-77,11
-20,-79,13
-11,-70,12
-7,-58,15
2,-53,21
-5,-48,17
-14,-47,12
-8,-45,15
-18,-42,18
-21,-38,19
-21,-34,12
-22,-35,8
-15,-28,8
-14,-29,8
-18,-35,5
-22,-51,8
-26,-62,12
-24,-83,14
-23,-87,15
-22,-79,21
-10,-82,27
1,-76,36
-22,-56,18
-25,-49,11
-7,-47,18
-7,-46,18
-22,-55,5
-20,-64,7
-16,-67,10
-18,-64,17
-15,-63,24
-14,-61,32
-15,-56,27
-19,-54,20
-21,-52,11
-25,-52,9
-28,-54,6
-31,-50,9
-31,-49,13
-35,-51,16
-37,-52,15
-36,-54,10
-33,-57,10
-36,-58,9
-51,-61,6
-40,-71,8
-13,-65,19
-36,-68,6
-31,-61,3
-25,-57,8
-23,-53,8
-21,-58,8
-27,-64,10
-33,-70,10
-29,-66,12
-31,-60,13
-18,-56,17
-16,-58,17
-21,-60,16
-21,-63,16
-21,-63,17
-20,-62,17
-19,-61,17
-20,-60,16
-19,-60,15
-19,-60,15
-18,-60,16
-20,-59,17
-20,-58,20
-19,-65,22
-17,-66,27
-15,-57,28
-13,-47,27
-13,-39,24
-14,-40,21
-19,-47,17
-20,-53,18
-18,-56,21
-19,-55,23
-20,-55,22
-24,-56,18
-31,-61,18
-32,-64,20
-28,-67,22
-27,-67,23
-21,-66,26
-18,-62,27
-15,-61,26
-14,-57,24
-15,-54,22
-17,-54,21
-17,-54,20
-17,-53,18
-21,-64,17
-23,-77,18
-26,-76,18
-27,-69,12
-26,-62,10
-26,-59,11
-30,-66,11
-29,-74,16
-25,-72,20
-28,-68,23
-31,-72,29
-31,-73,28
-31,-68,22
-30,-64,22
-25,-55,22
-23,-49,22
-24,-45,21
-23,-45,19
-22,-44,19
-19,-43,18
-17,-42,19
-13,-41,20
-12,-42,21
-11,-43,22
-12,-43,25
-13,-47,27
-11,-64,31
-7,-70,33
-6,-69,36
-4,-61,37
-7,-62,36
-13,-72,35
-14,-81,31
-13,-79,26
-14,-70,15
-15,-69,11
-19,-67,9
-24,-65,8
-31,-63,6
-29,-61,3
-26,-58,4
-24,-56,5
-25,-55,6
-29,-54,8
-32,-56,11
-33,-57,14
-33,-63,21
-31,-65,25
-24,-66,31
-17,-66,34
-15,-67,35
-16,-80,41
-16,-80,44
-22,-80,35
-9,-69,0
27,-67,-8
57,-50,40
41,-54,41
15,-78,29
-12,-88,19
-44,-87,5
-42,-67,-3
-34,-61,3
-23,-62,15
-20,-62,16
-19,-60,12
-20,-57,10
-20,-55,9
-17,-53,9
-15,-51,10
-13,-47,14
-11,-44,20
-9,-42,22
-8,-42,26
-7,-41,28
-10,-60,26
-12,-80,40
-12,-77,46
-10,-68,51
-6,-63,47
-4,-60,34
-5,-60,29
-4,-62,23
-8,-66,20
-11,-69,20
-14,-70,17
-17,-68,15
-24,-59,14
-29,-57,15
-29,-57,14
-23,-55,15
-20,-53,17
-12,-51,20
-9,-50,22
-9,-51,23
-14,-53,24
-15,-53,25
-16,-52,26
-15,-52,30
-11,-52,31
-12,-73,40
-26,-81,32
-28,-66,19
-25,-67,16
-22,-68,18
-21,-68,18
-22,-67,15
-24,-63,12
-22,-62,12
-22,-60,11
-23,-60,9
-23,-60,10
-25,-61,8
-25,-63,8
-29,-62,5
-33,-61,6
-34,-60,7
-33,-60,14
-33,-60,19
-31,-59,23
-33,-59,22
-40,-54,21
-48,-51,20
-49,-46,20
-55,-64,28
-57,-64,32
-51,-50,26
-44,-35,25
-46,-31,29
-52,-30,34
-56,-31,35
-50,-27,37
-52,-26,42
-47,-24,43
-33,-18,47
-36,-16,45
-24,-10,46
-34,-6,46
-36,-4,45
-29,-4,46
-30,-2,50
-21,0,51
-13,1,49
-8,2,41
-34,-5,37
-46,-8,36
-29,-9,38
3,-14,55
6,-32,101
-116,-15,40
-25,-19,37
-12,-24,56
-24,-26,56
-28,-29,56
-27,-28,49
-22,-28,59
-31,-25,49
-31,-26,54
-30,-24,53
-32,-21,53
-30,-20,54
-34,-20,54
-33,-21,53
-29,-24,54
-29,-24,51
-31,-25,52
-32,-26,52
-32,-27,50
-33,-28,47
-33,-27,47
-35,-26,47
-32,-26,50
-33,-26,48
-36,-27,46
-33,-28,49
-33,-31,48
-38,-34,42
-39,-34,41
-37,-34,39
-41,-35,38
-27,-31,39
-22,-33,51
-38,-36,57
-54,-27,48
-35,-35,46
-26,-45,46
-34,-41,40
-20,-41,44
-16,-40,38
-24,-43,49
-13,-36,53
-18,-39,45
-18,-42,42
-32,-48,36
-21,-47,39
-15,-46,53
-17,-44,55
-8,-39,50
-15,-32,50
-21,-32,52
-19,-29,57
-13,-28,52
-9,-23,41
-8,-19,42
16,-11,53
26,-2,76
23,-4,96
-30,-20,80
-41,-26,70
-29,-34,63
-4,-23,61
-7,-14,57
-19,3,52
-7,3,59
-11,5,64
-9,0,67
-5,-4,71
4,-7,76
-1,-4,71
-8,2,70
-9,4,66
-12,5,60
-5,4,61
-5,2,62
-6,-1,63
-4,-1,63
-3,-3,61
-9,-3,65
-13,-3,67
-15,0,69
-15,1,67
-11,2,63
-5,-5,67
-9,-9,71
-27,9,62
-15,12,62
4,4,59
-3,3,69
-8,1,65
-9,-2,68
-11,-1,65
-8,0,59
-4,1,65
-4,1,65
-5,1,64
-4,2,64
-5,2,63
-5,2,63
-3,2,66
-3,2,65
-4,2,64
-2,2,65
-1,2,65
1,2,66
-1,2,64
0,2,65
0,2,65
0,2,65
-1,2,65
0,2,65
0,2,65
0,2,65
-1,2,64
-1,2,64
0,2,65
1,2,66
-1,2,64
0,2,64
1,2,65
0,2,65
0,2,65
0,2,65
0,2,65
-1,2,65
0,2,65
0,2,65
0,2,65
-1,2,65
-1,2,65
0,2,65
-1,2,65
-1,2,65
0,2,65
0,2,65
0,2,65
0,2,65
-1,2,65
-1,2,65
0,2,65
0,2,65
0,2,65
-1,2,65
-1,2,65
-1,2,65
-1,2,65
-1,2,65
-1,3,65
1,3,65
8,4,67
2,5,65
-5,2,61
-2,2,61
-4,-1,66
-9,-2,68
-10,0,68
-7,3,63
-4,5,63
-2,6,64
-3,6,66
-4,6,66
-4,5,67
-3,5,67
-2,6,63
-1,6,62
-1,5,63
-4,2,63
-6,1,63
-6,0,62
0,2,64
8,3,70
-7,6,61
-12,9,60
-1,9,66
7,9,70
13,0,73
10,1,67
6,1,63
0,-6,64
2,-5,64
4,-14,62
4,-15,59
11,-19,64
1,-23,62
-1,-24,60
3,-35,56
4,-42,56
5,-50,54
15,-43,53
25,-48,56
17,-46,35
21,-48,32
25,-44,36
9,-42,40
9,-40,44
3,-47,45
0,-50,40
4,-63,31
5,-67,24
9,-64,23
1,-58,25
1,-54,30
-6,-51,32
-6,-52,32
-3,-58,27
-1,-64,19
1,-67,18
-2,-68,19
-3,-65,20
-2,-59,25
2,-52,28
2,-51,29
3,-52,31
3,-54,31
1,-59,34
-2,-62,37
-2,-59,36
-1,-55,39
2,-51,41
5,-46,42
-1,-43,49
-4,-43,45
-5,-53,54
-7,-50,56
-4,-49,51
-5,-47,48
-7,-42,54
-11,-32,50
-9,-30,52
-13,-26,44
-19,-27,43
-29,-16,27
-50,5,-2
-43,0,2
-24,-12,14
-29,-17,12
-26,-35,17
-20,-61,23
-27,-76,33
-29,-103,55
-32,-120,58
-29,-117,37
-17,-89,24
-8,-82,27
-1,-89,28
-6,-85,25
-17,-72,25
-23,-64,27
-19,-52,32
-12,-39,30
-8,-33,27
-5,-27,22
-6,-26,20
-14,-32,19
-20,-42,27
-22,-46,26
-23,-71,18
-19,-83,22
-18,-82,27
-15,-78,32
-14,-69,32
-17,-56,24
-18,-58,20
-19,-69,17
-20,-71,17
-17,-69,21
-20,-61,20
-18,-58,22
-16,-51,18
-21,-50,14
-28,-50,17
-28,-52,20
-26,-53,23
-23,-56,25
-22,-57,27
-22,-59,29
-16,-57,32
-16,-57,32
-23,-61,25
-20,-61,26
-16,-61,26
-26,-77,23
-27,-77,26
-29,-67,20
-22,-67,25
-29,-59,17
-34,-62,10
-24,-76,14
-36,-77,13
-35,-76,14
-36,-69,10
-35,-63,10
-25,-53,17
-20,-44,15
-21,-43,13
-22,-40,12
-22,-38,12
-22,-38,12
-21,-43,14
-22,-46,15
-20,-52,16
-20,-55,16
-17,-59,15
-17,-64,16
-18,-66,17
-23,-82,15
-24,-87,17
-24,-77,20
-26,-74,21
-24,-56,21
-26,-48,19
-27,-49,18
-31,-62,18
-25,-67,19
-23,-75,25
-21,-65,25
-21,-58,22
-24,-48,19
-24,-48,17
-23,-50,20
-16,-51,23
-15,-51,23
-16,-52,24
-18,-54,23
-25,-56,22
-26,-57,23
-24,-58,26
-25,-59,28
-27,-59,28
-28,-62,27
-28,-72,29
-26,-76,32
-24,-70,28
-24,-64,25
-22,-55,16
-21,-60,16
-24,-67,19
-22,-75,18
-21,-73,16
-18,-66,13
-18,-63,13
-19,-58,9
-21,-54,5
-23,-53,4
-22,-50,5
-21,-49,7
-19,-47,9
-20,-46,10
-22,-48,14
-25,-58,22
-24,-60,25
-18,-66,25
-16,-71,24
-15,-85,28
-15,-78,35
-16,-74,37
-16,-54,33
-16,-44,29
-18,-43,21
-18,-51,20
-17,-55,20
-15,-61,19
-14,-64,18
-17,-60,17
-20,-58,14
-21,-58,13
-22,-63,13
-22,-64,15
-18,-62,19
-17,-61,20
-20,-64,19
2,-59,24
5,-59,28
4,-56,28
-1,-56,27
-8,-51,26
-5,-56,26
-8,-67,25
-20,-77,24
-29,-72,22
-27,-63,17
-20,-56,12
-16,-62,11
-13,-76,10
-13,-78,11
-14,-72,11
-17,-62,9
-18,-61,9
-22,-60,7
-23,-59,5
-21,-60,5
-19,-61,6
-17,-62,9
-17,-62,10
-17,-64,11
-18,-66,11
-19,-65,12
-18,-63,12
-18,-62,12
-18,-62,11
-19,-63,9
-20,-63,9
-21,-68,7
-22,-72,8
-25,-72,6
-30,-70,-2
-31,-71,2
-31,-72,12
-28,-67,17
-31,-57,27
-33,-54,37
-31,-54,43
-26,-49,40
-25,-48,39
-22,-45,38
-23,-38,31
-24,-38,30
-20,-45,27
-19,-46,24
-21,-43,18
-25,-47,13
-27,-51,11
-31,-58,10
-33,-58,10
-33,-58,10
-29,-65,7
-26,-69,7
-25,-75,12
-27,-77,15
-27,-83,16
-68,-108,7
-18,-89,40
60,-82,43
70,-54,46
27,-51,36
12,-45,18
-28,-42,0
-39,-51,-1
-45,-53,-3
-42,-54,2
-33,-55,9
-13,-57,29
-5,-59,29
-3,-60,28
-12,-62,25
-17,-62,23
-25,-62,18
-27,-61,18
-24,-60,21
-18,-59,25
-14,-59,28
-13,-63,30
-19,-64,27
-23,-63,23
-19,-60,23
-16,-60,24
-13,-57,23
-13,-55,22
-13,-55,22
-10,-56,25
-10,-57,28
-13,-61,29
-15,-59,24
-18,-58,21
-23,-54,19
-23,-53,20
-26,-58,20
-32,-64,21
-29,-59,24
-22,-50,22
-18,-50,24
-22,-54,26
-26,-57,25
-34,-63,20
-37,-60,13
-33,-58,14
-26,-53,19
-23,-49,17
-26,-48,15
-28,-50,15
-29,-52,12
-31,-55,13
-33,-56,15
-35,-60,17
-37,-60,17
-35,-59,25
-30,-57,27
-28,-56,26
-27,-54,26
-27,-54,26
-28,-52,25
-28,-51,25
-28,-49,24
-29,-47,25
-29,-47,25
-30,-48,24
-31,-49,24
-33,-52,25
-38,-74,31
-36,-77,31
-30,-68,33
-20,-57,31
-11,-41,20
-16,-46,17
-22,-50,18
-27,-58,18
-27,-61,17
-22,-60,20
-12,-55,21
-12,-51,17
-20,-48,16
-22,-51,18
-23,-52,17
-24,-52,16
-21,-56,18
-18,-58,20
-17,-61,22
-25,-60,22
-28,-60,19
-29,-60,16
-44,-60,8
-38,-60,13
-24,-63,21
-24,-73,23
-28,-77,25
-31,-72,23
-30,-63,23
-28,-52,23
-31,-48,22
-30,-53,19
-29,-66,19
-27,-71,17
-22,-75,15
-21,-70,13
-18,-64,10
-20,-62,8
-22,-62,7
-25,-62,6
-26,-62,5
-22,-59,6
-22,-59,7
-20,-61,9
-19,-64,10
-19,-65,10
-17,-63,11
-17,-62,11
-19,-60,13
-19,-60,15
-20,-63,16
-14,-61,21
-13,-57,22
-6,-46,21
-6,-44,15
-6,-51,14
-4,-64,18
-1,-65,17
-3,-64,14
-4,-58,17
-8,-57,16
-13,-62,14
-14,-64,15
-16,-67,17
-17,-70,19
-20,-71,22
-19,-66,22
-17,-65,23
-15,-62,22
-16,-60,20
-15,-58,19
-14,-57,19
-14,-57,18
-18,-57,15
-19,-61,14
-22,-76,16
-23,-72,14
-26,-71,13
-28,-56,11
-28,-56,9
-27,-65,6
-27,-68,7
-19,-67,12
-16,-65,15
-17,-65,15
-20,-64,12
-20,-63,11
-18,-62,12
-17,-62,12
-17,-63,12
-18,-62,12
-18,-59,13
-22,-56,12
-18,-56,13
-16,-58,15
-14,-53,18
-14,-51,18
-17,-65,22
-15,-73,28
-14,-70,30
-12,-47,25
-12,-45,23
-16,-63,21
-16,-69,21
-14,-65,20
-10,-56,20
-9,-55,19
-15,-53,16
-20,-53,15
-26,-55,15
-23,-57,20
-22,-57,21
-20,-57,22
-19,-57,23
-19,-56,24
-20,-58,23
-21,-60,24
-22,-61,25
-22,-62,26
-23,-65,25
-22,-75,30
-23,-71,28
-22,-68,28
-20,-62,29
-21,-56,24
-23,-57,22
-17,-65,18
-14,-73,18
-13,-72,18
-16,-69,13
-18,-68,12
-22,-67,10
-23,-62,6
-22,-62,5
-20,-63,8
-18,-63,10
-14,-63,13
-11,-62,13
-10,-60,12
-12,-57,13
-14,-55,13
-15,-52,14
-15,-48,15
-15,-48,15
-17,-62,14
-18,-75,17
-15,-81,21
-15,-68,19
-18,-57,15
-22,-66,17
-27,-67,17
-25,-65,15
-22,-64,15
-14,-66,18
-15,-68,17
-16,-67,15
-22,-62,12
-23,-60,13
-23,-58,14
-20,-57,16
-18,-58,17
-17,-59,20
-17,-59,22
-29,-60,25
19,-58,53
21,-52,45
4,-54,30
-5,-57,27
-25,-57,9
-29,-63,7
-26,-71,13
-18,-53,17
-16,-50,18
-15,-56,21
-17,-57,23
-23,-60,21
-23,-61,17
-21,-60,18
-18,-60,21
-18,-61,21
-20,-64,20
-19,-62,20
-19,-61,20
-20,-62,18
-20,-62,18
-20,-61,16
-19,-60,16
-18,-60,15
-19,-60,15
-20,-60,15
-20,-60,14
-21,-60,15
-22,-60,16
-23,-59,16
-24,-59,16
-24,-58,18
-23,-58,19
-21,-56,20
-21,-56,20
-21,-57,20
-21,-58,19
-22,-58,19
-22,-58,19
-22,-59,20
-22,-61,19
-24,-78,20
-23,-80,22
-19,-59,21
-20,-52,18
-21,-49,18
-28,-56,23
-31,-62,28
-27,-68,29
-25,-68,33
-18,-66,40
-21,-61,41
-21,-60,44
-34,-60,40
-38,-58,39
-42,-54,44
-45,-47,46
-41,-43,45
-43,-36,47
-42,-32,47
-42,-21,46
-30,-8,44
-19,-1,39
-6,9,30
-13,11,24
-13,16,13
-7,17,17
-11,11,26
-33,-4,28
-33,-7,33
9,-27,34
-92,-41,48
-63,-26,77
-60,-24,83
-43,-26,79
-35,-17,58
-35,-16,52
-31,-15,48
-28,-20,58
-36,-20,58
-41,-21,54
-40,-21,51
-40,-22,46
-39,-22,45
-39,-21,49
-39,-21,49
-39,-21,46
-39,-21,46
-39,-22,47
-39,-24,47
-40,-25,46
-40,-25,45
-40,-25,46
-39,-26,48
-37,-26,49
-39,-26,48
-40,-25,47
-42,-24,46
-42,-24,46
-40,-23,46
-39,-24,46
-39,-25,46
-39,-26,45
-40,-26,45
-41,-25,44
-41,-24,44
-40,-24,45
-40,-24,45
-40,-25,45
-41,-26,46
-41,-26,46
-41,-25,47
-42,-25,47
-42,-26,47
-42,-27,47
-43,-28,48
-46,-30,50
-54,-30,58
-57,-29,57
-58,-24,57
-67,-22,52
-47,-8,34
-56,10,3
-32,5,25
-24,6,42
-21,10,45
-13,14,33
-17,12,24
-29,3,16
-35,-13,17
-43,-20,17
-39,-38,17
-32,-49,17
-21,-74,23
-11,-101,39
-12,-108,47
-11,-98,49
-9,-91,44
-7,-77,32
-8,-67,30
-11,-63,31
-16,-56,28
-17,-56,25
-18,-60,21
-19,-65,19
-21,-64,19
-21,-61,18
-20,-60,18
-21,-55,15
-21,-54,13
-22,-56,12
-20,-57,14
-19,-57,16
-17,-58,18
-17,-58,18
-16,-58,18
-15,-57,20
-14,-57,20
-14,-57,22
-15,-56,22
-18,-58,23
-20,-69,26
-21,-68,28
-23,-70,28
-25,-67,29
-16,-55,26
-20,-57,21
-23,-58,18
-24,-61,20
-22,-64,20
-18,-65,18
-16,-63,17
-18,-58,15
-23,-57,13
-26,-57,11
-29,-56,13
-28,-56,15
-23,-53,17
-19,-50,16
-18,-49,17
-17,-49,19
-17,-51,20
-18,-55,22
-20,-60,24
-19,-62,26
-17,-63,27
-18,-71,24
-17,-82,28
-18,-75,25
-17,-66,25
-17,-50,18
-18,-52,16
-16,-61,22
-14,-64,25
-13,-62,21
-11,-59,20
-12,-57,18
-20,-53,16
-22,-50,17
-25,-46,15
-29,-45,19
-22,-45,25
-24,-46,27
-27,-46,25
-31,-46,20
-33,-47,23
-34,-50,26
-41,-55,24
-49,-59,21
-53,-65,19
-58,-68,15
-54,-75,13
-55,-56,1
-51,-53,4
-35,-46,7
-25,-46,11
-12,-48,16
-25,-59,12
-25,-60,12
-34,-56,9
-34,-54,10
-28,-51,14
-25,-51,16
-24,-51,17
-25,-51,16
-26,-51,16
-29,-52,15
-32,-52,14
-32,-51,13
-34,-51,17
-35,-53,17
-35,-53,18
-34,-53,18
-38,-63,17
-34,-67,22
-33,-68,21
-28,-63,28
-27,-52,26
-29,-46,22
-32,-58,23
-32,-61,23
-28,-60,20
-26,-59,20
-24,-53,21
-27,-50,18
-28,-50,17
-27,-54,18
-29,-55,18
-32,-55,15
-32,-56,12
-31,-57,14
-31,-59,16
-27,-59,18
-30,-58,19
-32,-56,18
-33,-52,17
-30,-48,16
-29,-47,16
-28,-48,16
-27,-48,15
-32,-71,16
-30,-67,16
-31,-65,9
-30,-70,5
-29,-70,8
-30,-68,9
-26,-67,6
-22,-65,6
-21,-60,5
-20,-58,5
-22,-57,3
-25,-58,0
-26,-59,0
-24,-61,-1
-22,-62,0
-14,-61,-1
8,-55,-1
-9,-51,2
-14,-47,2
-14,-45,-2
-7,-47,-2
4,-43,-1
41,-47,23
10,-52,20
0,-49,18
-1,-65,3
1,-71,0
20,-79,16
10,-75,16
-15,-72,15
-21,-68,16
-24,-71,23
-15,-69,32
-11,-68,37
-12,-60,33
-23,-57,30
-28,-57,29
-31,-63,28
-29,-66,32
-29,-69,35
-32,-64,40
-38,-59,39
-47,-41,42
-54,-39,45
-54,-34,55
-56,-15,57
-53,-7,57
-42,-4,53
-37,-5,49
-35,-19,44
-26,-24,36
-27,-23,35
-14,-18,40
-7,-18,45
-8,-21,47
-13,-23,46
-17,-22,46
-28,-26,40
-42,-37,58
-52,-18,127
-6,-21,105
-7,-8,47
-18,-24,64
-14,-27,61
-25,-28,50
-29,-28,51
-36,-27,51
-28,-25,50
-26,-24,51
-20,-24,61
-20,-24,61
-22,-24,54
-25,-27,55
-21,-29,57
-20,-30,52
-20,-35,51
-27,-39,48
-28,-39,46
-27,-39,44
-26,-37,46
-25,-37,46
-25,-40,47
-25,-39,47
-25,-39,45
-25,-40,47
-25,-39,47
-24,-38,47
-24,-38,46
-27,-39,46
-28,-39,47
-27,-39,47
-24,-40,48
-26,-40,50
-28,-42,51
-31,-44,52
-33,-43,54
-23,-43,52
-25,-40,51
-26,-38,52
-24,-37,52
-23,-34,49
-20,-32,53
-21,-31,53
-23,-26,55
-22,-24,55
-18,-23,55
-12,-22,59
-9,-22,60
-3,-23,54
-5,-24,51
-6,-29,55
0,-35,56
4,-37,51
9,-37,48
5,-37,47
-5,-37,42
-8,-37,39
-8,-44,37
-37,-49,31
-36,-46,30
-55,-44,20
-75,-36,19
-49,-22,42
-31,-15,99
-21,-31,124
-25,-40,52
-28,-39,34
-19,-48,61
-28,-46,61
-27,-40,50
-20,-32,44
-25,-35,44
-23,-41,45
-20,-41,46
-22,-41,48
-20,-38,48
-19,-39,49
-20,-41,49
-21,-41,48
-21,-39,47
-21,-39,47
-21,-40,47
-20,-40,47
-20,-39,47
-21,-39,47
-21,-40,47
-22,-41,48
-18,-42,47
-19,-41,46
-20,-42,47
-17,-42,46
-19,-41,46
-19,-42,47
-17,-41,46
-19,-41,48
-19,-42,47
-18,-42,47
-22,-42,46
-22,-43,46
-21,-43,46
-22,-43,46
-21,-40,47
-22,-40,47
-24,-42,48
-30,-46,52
-27,-45,55
-20,-43,55
-33,-37,48
-36,-35,44
-44,-37,38
-48,-36,36
-61,-33,18
-56,-34,22
-49,-36,28
-36,-40,32
-27,-39,35
-28,-42,35
-26,-42,33
-20,-39,10
11,-42,41
17,-40,41
20,-35,13
16,-36,7
-18,-74,114
15,-68,93
-49,-40,20
-27,-44,42
-33,-42,35
0,-51,41
-22,-58,31
-14,-63,30
-15,-53,19
-16,-51,17
-13,-64,26
-17,-82,19
-14,-82,18
-11,-81,20
-10,-83,17
-15,-81,11
-17,-84,10
-19,-102,14
-18,-100,29
-10,-88,36
-10,-73,3
14,-75,-11
23,-93,-32
31,-83,-15
27,-77,-13
-6,-65,-18
-6,-62,-11
4,-58,-14
1,-55,-10
-9,-51,-10
-13,-45,-6
-11,-42,-3
-11,-40,1
-18,-38,2
-19,-39,2
-21,-38,5
-18,-40,9
-18,-45,12
-18,-49,11
-18,-54,10
-16,-57,9
-15,-59,8
-15,-62,8
-16,-63,10
-15,-63,15
-15,-56,11
-2,-56,10
-8,-65,14
-15,-67,15
-11,-61,15
-12,-73,16
-11,-75,19
-4,-65,19
-8,-61,16
-7,-55,11
-9,-64,15
-26,-64,17
-20,-65,18
-17,-62,11
-16,-58,11
-16,-57,16
-12,-57,14
-21,-60,8
-18,-63,11
-21,-62,15
-25,-62,13
-27,-62,14
-30,-59,15
-30,-58,14
-29,-59,11
-25,-60,13
-21,-62,12
-20,-68,9
-26,-84,5
-20,-77,8
-20,-78,6
-24,-70,3
-21,-63,5
-25,-54,2
-22,-53,-2
-27,-55,2
-26,-65,2
-29,-70,-1
-32,-75,-2
-21,-74,5
-20,-71,7
-16,-65,8
-15,-63,10
-21,-61,7
-22,-59,6
-25,-58,4
-26,-54,4
-27,-54,4
-25,-54,7
-22,-52,10
-21,-51,11
-20,-49,15
-19,-50,16
-23,-68,18
-21,-65,20
-10,-57,24
-3,-52,25
-5,-54,23
-16,-68,20
-19,-70,19
-15,-67,26
-21,-61,27
-33,-60,17
-31,-57,14
-32,-58,14
-29,-63,18
-24,-67,22
-23,-67,23
-23,-65,24
-22,-64,24
-21,-62,22
-21,-61,18
-19,-59,17
-19,-58,16
-20,-57,14
-22,-58,11
-22,-59,9
-24,-66,6
-26,-77,8
-26,-76,8
-27,-63,5
-26,-55,3
-29,-62,-1
-32,-71,-1
-27,-72,0
-21,-67,0
-19,-68,1
-17,-65,4
-21,-62,4
-22,-63,4
-20,-64,5
-19,-64,7
-17,-61,10
-17,-59,11
-18,-58,12
-19,-57,13
-19,-58,14
-18,-60,15
-17,-59,16
-15,-58,18
-13,-61,19
-13,-68,20
-10,-71,21
-10,-67,23
-10,-52,23
-15,-53,21
-15,-56,20
-13,-63,19
-12,-65,21
-7,-66,21
-8,-61,17
-12,-59,15
-17,-61,12
-20,-62,12
-25,-63,14
-25,-60,16
-22,-56,16
-21,-56,19
-21,-58,20
-21,-58,20
-22,-58,21
-22,-58,23
-23,-57,25
-23,-57,25
-24,-61,27
-25,-71,29
-21,-72,30
-18,-76,29
-16,-72,30
-19,-66,24
-19,-70,22
-16,-79,20
-11,-76,17
-11,-72,16
-11,-61,16
-13,-58,16
-17,-57,12
-17,-54,9
-15,-52,9
-13,-45,11
-13,-42,12
-15,-46,14
-15,-48,14
-15,-49,14
-14,-58,15
-13,-62,16
-14,-64,15
-16,-64,12
-18,-92,13
-23,-84,14
-28,-77,15
-29,-77,20
-27,-75,21
-24,-66,18
-12,-62,18
-8,-61,18
-7,-59,18
-10,-58,16
-14,-58,15
-16,-58,15
-20,-58,16
-19,-54,20
-18,-53,21
-15,-49,20
-14,-48,21
-15,-46,22
-21,-50,23
-23,-53,25
-23,-59,35
-28,-60,31
-36,-63,23
-33,-73,30
-26,-74,34
-13,-66,33
-8,-65,31
-10,-58,28
-17,-52,31
-20,-51,30
-26,-54,26
-26,-55,26
-25,-61,31
-22,-63,32
-17,-65,36
-22,-67,39
-28,-70,39
-51,-84,55
-25,-82,51
2,-48,35
9,-29,37
-2,-26,38
-24,-26,41
-32,-29,38
-44,-34,30
-36,-36,33
-27,-34,38
-5,-29,54
1,-29,61
3,-25,59
-4,-16,48
-12,-12,44
-29,1,36
-32,6,32
-30,10,29
-60,12,17
-50,12,37
-30,5,59
-7,-4,83
18,-40,127
-51,-25,61
-35,-32,52
-18,-40,47
-29,-36,46
-18,-27,59
-15,-27,63
-22,-21,56
-24,-18,56
-29,-17,55
-28,-19,59
-27,-20,57
-21,-23,57
-17,-23,56
-21,-24,56
-24,-25,58
-26,-25,57
-26,-23,57
-25,-21,56
-22,-18,56
-21,-17,55
-24,-18,56
-26,-21,57
-26,-23,56
-23,-25,56
-21,-25,58
-22,-24,58
-22,-25,56
-24,-25,58
-25,-25,57
-24,-24,56
-23,-24,56
-22,-23,56
-23,-24,57
-22,-22,57
-25,-21,57
-25,-22,63
-29,-22,63
-26,-25,62
-24,-32,74
-18,-26,69
-11,-20,35
-16,-22,43
-25,-23,63
-9,-20,60
-16,-21,49
-10,-31,59
-12,-19,54
-15,-26,58
-5,-20,63
-12,-16,55
-11,-18,56
4,-9,72
10,-11,77
-27,-4,56
-2,-12,69
-3,-12,64
-34,-11,54
-6,-17,63
-7,-17,59
-14,-9,57
-1,-7,64
-4,-5,62
-7,-8,52
1,-12,55
6,2,60
-8,14,58
-7,8,63
-9,4,80
-23,2,54
-11,-1,43
19,5,56
33,3,60
21,15,46
7,32,23
2,33,22
5,33,42
3,39,46
2,39,48
-19,28,56
-19,17,48
-62,-5,57
-46,-16,66
-15,-32,59
-84,-80,72
-17,-80,127
7,-24,55
7,-13,42
-43,-15,47
-63,-13,36
-47,-3,47
-46,-2,58
-39,-7,58
-39,-8,47
-41,-10,45
-42,-14,50
-40,-14,56
-38,-14,55
-39,-13,49
-41,-13,46
-46,-13,46
-45,-12,47
-43,-12,47
-44,-12,45
-44,-13,45
-44,-14,48
-43,-14,49
-41,-13,50
-41,-14,49
-41,-13,49
-41,-12,50
-41,-11,49
-43,-10,49
-41,-11,49
-39,-11,49
-41,-12,50
-42,-12,50
-40,-12,49
-41,-13,49
-43,-14,48
-41,-13,48
-43,-13,48
-45,-15,50
-44,-14,48
-41,-19,49
-40,-16,49
-42,-15,51
-54,-12,60
-50,-11,57
-52,-14,41
-57,-26,35
-48,-30,31
-45,-35,37
-45,-35,38
-54,-35,24
-53,-42,24
-52,-46,21
-47,-47,21
-45,-46,25
-38,-42,32
-39,-43,29
-38,-45,21
-39,-47,17
-38,-50,17
-36,-52,13
-42,-58,14
-42,-58,10
-35,-70,11
-30,-70,11
-14,-65,15
-13,-62,18
-22,-59,22
-10,-58,24
-8,-60,23
-8,-60,24
-10,-57,23
-14,-51,18
-17,-49,17
-21,-47,16
-21,-43,15
-21,-44,15
-19,-50,17
-17,-53,19
-17,-58,19
-19,-61,19
-20,-61,19
-23,-59,17
-25,-57,17
-26,-57,18
-22,-59,20
-20,-62,21
-16,-66,24
-13,-65,26
-14,-62,27
-2,-56,28
2,-54,26
-2,-52,24
2,-51,28
-4,-54,25
-12,-54,20
-22,-57,17
-28,-56,16
-25,-56,17
-22,-60,18
-21,-60,18
-21,-60,17
-21,-60,16
-22,-60,16
-22,-63,19
-22,-65,18
-25,-72,21
-26,-74,23
-27,-72,25
-25,-64,29
-22,-61,30
-20,-58,27
-21,-58,24
-22,-59,23
-26,-57,13
-17,-61,16
-7,-59,17
-13,-68,15
-21,-76,18
-28,-67,12
-33,-64,6
-29,-63,8
-25,-63,11
-17,-65,13
-18,-62,11
-17,-61,11
-17,-63,14
-16,-65,14
-13,-62,13
-14,-56,14
-16,-54,14
-17,-53,16
-17,-54,17
-16,-53,17
-18,-65,20
-15,-69,23
-12,-69,30
-12,-66,26
-16,-57,22
-20,-48,22
-20,-52,18
-19,-62,16
-18,-65,17
-21,-64,15
-20,-60,17
-20,-51,18
-24,-49,15
-26,-51,16
-22,-57,22
-20,-59,21
-19,-60,23
-21,-60,28
-23,-60,27
-26,-60,27
-24,-60,27
-21,-61,25
-20,-62,25
-20,-61,25
-24,-68,23
-25,-70,24
-26,-68,22
-28,-67,19
-29,-66,13
-31,-63,12
-33,-62,11
-33,-62,10
-33,-65,10
-34,-68,9
-34,-64,11
-34,-62,11
-32,-54,13
-32,-51,14
-29,-47,15
-29,-42,16
-29,-40,16
-28,-40,16
-27,-40,17
-25,-43,19
-21,-46,21
-19,-48,22
-16,-54,22
-15,-57,22
-18,-60,22
-20,-60,23
-21,-61,22
-22,-74,22
-23,-76,21
-27,-72,22
-29,-64,22
-29,-54,18
-36,-53,16
-29,-61,18
-17,-72,23
-13,-73,22
-12,-65,17
-17,-57,15
-21,-53,14
-13,-50,22
-10,-53,26
-18,-55,25
-22,-56,23
-23,-56,20
-28,-58,16
-31,-59,16
-33,-58,17
-36,-61,18
-30,-61,21
-26,-59,17
-29,-56,15
-27,-66,22
-25,-65,19
-28,-66,9
-28,-68,7
-29,-61,8
-28,-55,5
-32,-56,2
-17,-64,6
-22,-70,8
-22,-68,12
-17,-66,15
-18,-66,15
-19,-65,16
-22,-62,12
-23,-61,10
-21,-57,11
-19,-56,12
-17,-54,13
-14,-53,15
-13,-50,14
-13,-50,15
-15,-50,15
-19,-54,16
-20,-55,17
-22,-59,20
-25,-77,25
-23,-80,30
-22,-83,35
-17,-69,35
-14,-59,32
-11,-51,24
-13,-52,21
-16,-59,22
-16,-62,22
-14,-67,22
-12,-68,23
-10,-63,25
-15,-56,22
-17,-54,21
-21,-53,22
-28,-55,22
-2,-52,34
-4,-50,45
-11,-50,43
-19,-46,37
-23,-46,34
-26,-47,28
-20,-50,30
-19,-49,29
-18,-50,31
-17,-50,35
-24,-46,30
-25,-46,26
-24,-48,28
-16,-53,38
-14,-54,43
-21,-51,46
-28,-49,39
-31,-49,24
-29,-52,20
-26,-52,23
-19,-50,34
-17,-49,37
-14,-50,35
-17,-55,30
-16,-58,30
-14,-58,29
-14,-60,29
-14,-59,29
-15,-56,27
-17,-56,24
-18,-54,24
-19,-56,24
-22,-64,28
-20,-70,32
-17,-71,33
-13,-66,36
-13,-62,36
-15,-58,35
-22,-84,41
-28,-98,45
-25,-93,44
-26,-85,40
-26,-64,33
-24,-56,29
-23,-49,17
-22,-48,8
-19,-50,8
-13,-51,12
-11,-50,14
-11,-49,12
-13,-45,7
-14,-45,5
-17,-44,4
-18,-45,4
-18,-44,4
-16,-42,3
-18,-40,3
-18,-38,11
-17,-36,13
-15,-32,13
-15,-30,14
-14,-26,16
-11,-23,16
-11,-25,16
-25,-62,20
-33,-101,30
-34,-128,48
-45,-128,71
-47,-104,80
-42,-80,60
-23,-61,50
18,-54,50
8,-47,37
-1,-42,32
-22,-36,23
-31,-36,22
-40,-48,30
-33,-58,36
-28,-60,32
-17,-56,27
-10,-51,26
-5,-53,23
-7,-66,24
-5,-79,30
-10,-65,23
-12,-63,19
-10,-58,16
-11,-55,16
-17,-52,14
-13,-54,15
-12,-55,15
-11,-56,19
-11,-57,22
-12,-71,26
-10,-78,28
-9,-68,27
-5,-58,25
-1,-56,24
3,-54,22
-5,-57,23
-8,-56,23
-13,-47,23
-15,-44,22
-21,-47,22
-22,-52,23
-22,-62,24
-20,-64,24
-18,-65,24
-16,-64,24
-17,-63,22
-18,-61,20
-20,-62,20
-21,-62,20
-22,-62,18
-23,-65,18
-23,-68,18
-20,-70,18
-18,-69,17
-17,-64,15
-17,-61,15
-19,-60,15
-19,-60,13
-19,-60,12
-19,-61,13
-18,-62,14
-18,-59,14
-18,-59,13
-20,-57,12
-21,-59,12
-20,-60,13
-20,-62,13
-20,-64,12
-21,-70,10
-22,-76,7
-24,-76,5
-29,-70,7
-29,-62,9
-26,-54,11
-25,-55,16
-26,-57,17
-12,-51,29
18,-54,45
16,-56,48
3,-58,46
-11,-58,37
-14,-58,23
-12,-58,22
-10,-58,23
-9,-58,22
-12,-58,20
-15,-55,19
-16,-52,18
-1,-50,26
4,-47,27
-4,-44,26
-10,-59,28
-11,-71,32
-11,-87,33
-9,-82,30
-3,-64,24
-4,-57,21
-7,-56,20
-4,-57,24
2,-55,22
2,-60,25
-2,-62,24
-6,-61,22
-6,-55,20
-8,-53,18
-24,-54,11
-42,-58,9
-23,-58,24
-4,-54,33
2,-54,39
-7,-57,37
-23,-70,37
-22,-72,44
-34,-72,32
-38,-67,25
-25,-60,29
-20,-55,28
-24,-58,24
-25,-61,23
-24,-63,22
-23,-62,23
-19,-62,24
-16,-63,25
-17,-62,24
-19,-58,21
-20,-53,18
-21,-50,18
-22,-46,18
-21,-45,17
-18,-42,19
-16,-41,20
-15,-41,21
-11,-44,25
-14,-47,26
-25,-52,23
-29,-55,20
-30,-57,19
-30,-64,20
-29,-66,22
-27,-80,23
-26,-99,28
-17,-89,27
-16,-68,19
-19,-58,17
-24,-52,12
-27,-46,9
-32,-45,8
-28,-53,13
-25,-58,15
-19,-68,17
-19,-70,17
-22,-58,15
-27,-47,13
-30,-45,11
-28,-50,12
-26,-51,14
-22,-56,19
-21,-59,20
-25,-59,20
-30,-60,20
-30,-60,20
0,-61,48
6,-65,53
-17,-61,36
-29,-57,26
-31,-62,22
-29,-77,23
-27,-79,25
-34,-65,22
-32,-57,16
-33,-55,15
-48,-63,12
-55,-67,11
-57,-73,11
-62,-71,10
-63,-71,9
-70,-71,8
-71,-70,6
-64,-64,6
-55,-55,13
-51,-48,17
-35,-33,23
-30,-24,22
-31,-14,28
-19,-4,26
-25,-2,29
-17,2,50
-7,4,51
-3,15,48
-16,15,47
-36,14,61
-30,24,67
-31,24,69
-42,29,62
-18,27,75
-3,13,76
-12,11,62
-6,8,62
1,8,65
-3,10,60
7,6,59
8,6,56
13,9,54
14,8,52
14,10,54
17,10,61
18,9,62
20,4,62
20,0,60
13,-24,55
40,-65,55
11,40,59
20,-26,72
19,5,64
20,1,57
21,3,59
11,9,55
14,10,61
9,9,63
2,10,64
-3,9,61
-2,10,61
7,11,76
-14,16,66
-5,17,68
-1,12,69
-5,12,71
-13,14,68
-29,12,59
-39,8,53
-28,7,58
-7,7,61
-7,9,62
-13,9,63
-15,6,60
-23,9,58
-27,7,57
-27,10,59
-20,11,61
-12,10,64
-16,12,64
-18,13,60
-17,10,60
-15,11,61
-6,13,67
-14,10,69
-18,9,67
-27,9,60
-23,7,62
-20,4,66
-21,4,65
-22,5,61
-21,4,56
-22,4,55
-17,5,61
-14,6,65
-18,5,65
-18,5,60
-19,4,60
