1603996744.00
64.000000
-0.00
-0.00
-0.00
-0.00
-0.00
-0.00
-0.00
-0.00
-0.00
-0.00
0.00
0.01
0.01
-0.00
-0.03
-0.05
-0.05
0.00
0.13
0.36
0.66
1.01
1.37
1.72
2.06
2.40
2.79
3.24
3.80
4.42
5.06
5.66
6.20
6.68
7.15
7.68
8.31
9.14
10.09
11.04
11.88
12.56
13.14
13.76
14.65
15.96
17.91
20.32
22.90
25.38
27.58
29.57
31.68
34.32
37.81
42.54
48.15
54.10
59.83
64.97
69.58
74.14
79.34
85.71
93.76
103.00
112.62
121.73
129.77
136.75
143.30
150.75
157.77
166.64
177.95
191.79
206.97
220.57
228.25
225.36
208.53
176.87
132.76
80.05
23.07
-34.94
-92.44
-149.16
-205.23
-260.37
-313.74
-363.87
-409.83
-450.91
-486.50
-515.74
-537.23
-549.22
-549.96
-538.37
-514.21
-478.67
-433.88
-382.45
-327.02
-269.84
-212.63
-156.66
-102.95
-52.37
-5.90
35.58
71.41
101.34
125.50
144.41
158.77
169.25
176.43
180.70
182.32
181.56
178.75
174.28
168.59
162.09
155.11
147.83
140.37
132.78
125.08
117.37
109.72
102.24
94.97
87.92
81.05
74.31
67.71
61.31
55.23
49.61
44.52
39.93
35.64
31.42
27.08
22.60
18.13
13.99
10.51
7.86
5.94
4.38
2.72
0.57
-2.15
-5.19
-8.02
-10.13
-11.23
-11.47
-11.35
-11.54
-12.54
-14.45
-16.93
-19.33
-21.16
-22.12
-22.27
-21.87
-21.18
-20.48
-20.39
-22.08
-26.63
-33.92
-41.50
-44.57
-37.59
-16.95
16.91
59.23
102.63
139.84
165.68
177.49
174.40
156.56
125.32
84.13
39.00
-2.46
-33.46
-50.65
-55.35
-52.37
-47.40
-44.46
-44.86
-47.45
-50.10
-50.83
-48.45
-42.56
-33.40
-21.89
-9.58
1.66
10.12
14.78
15.81
14.55
12.89
12.39
13.47
15.15
15.64
13.58
9.14
4.28
1.99
4.63
12.56
23.62
34.20
40.86
41.91
38.02
31.50
24.77
19.10
14.20
8.76
1.58
-7.63
-18.06
-28.29
-37.28
-44.73
-51.10
-56.90
-61.89
-64.91
-64.27
-58.81
-48.82
-36.24
-23.87
-14.11
-7.96
-4.71
-2.76
-0.73
1.75
3.94
4.84
4.12
2.62
2.07
4.09
9.32
16.92
24.85
30.53
31.51
26.20
14.49
-1.83
-18.80
-31.06
-33.30
-22.40
0.80
31.18
60.77
81.62
88.54
80.88
62.05
37.65
13.05
-8.29
-25.13
-37.72
-46.55
-51.68
-52.80
-49.83
-43.60
-35.95
-29.24
-25.41
-25.03
-26.90
-28.48
-26.93
-20.41
-8.83
6.11
21.60
34.97
44.03
47.79
46.62
41.88
35.50
29.46
25.59
25.32
29.29
37.04
46.82
55.77
60.60
58.60
48.49
30.87
7.95
-17.06
-40.84
-60.42
-73.51
-78.70
-75.45
-64.18
-46.24
-23.76
0.65
24.43
45.37
61.86
72.68
77.14
75.12
67.48
56.26
44.55
35.80
32.92
37.42
48.71
64.08
79.09
88.88
89.66
80.26
62.81
42.23
24.57
14.81
15.31
25.34
42.02
61.64
80.81
96.68
106.82
109.00
101.62
84.29
58.24
25.95
-9.90
-47.52
-86.25
-125.86
-165.28
-201.61
-230.25
-246.13
-245.59
-227.89
-195.71
-154.35
-110.22
-69.19
-35.43
-11.06
3.69
10.04
10.07
6.19
0.63
-5.14
-10.70
-16.73
-24.65
-35.97
-51.68
-71.74
-94.88
-118.85
-141.02
-159.07
-171.67
-178.78
-181.58
-181.78
-180.92
-179.54
-176.96
-171.49
-161.10
-144.28
-120.67
-91.34
-58.45
-24.76
7.15
35.32
58.72
77.20
91.17
101.40
108.74
114.08
118.25
121.89
125.27
128.41
131.33
134.54
139.07
146.06
155.78
166.82
176.05
179.70
175.07
162.02
143.29
123.24
105.81
92.67
82.71
73.02
60.66
44.22
24.28
2.73
-18.42
-37.92
-55.46
-71.19
-85.06
-96.40
-104.24
-107.95
-107.97
-105.99
-104.40
-105.30
-109.49
-116.05
-122.59
-126.19
-124.37
-116.02
-101.59
-82.77
-61.85
-40.83
-20.75
-1.32
18.85
41.67
68.77
100.77
136.97
175.36
212.96
246.25
271.69
286.19
287.81
276.21
252.81
220.28
181.56
139.05
94.19
47.84
1.08
-44.20
-85.24
-119.18
-144.10
-159.66
-167.05
-168.22
-165.02
-158.62
-149.51
-138.07
-124.95
-111.28
-98.41
-87.50
-79.07
-72.84
-67.83
-62.90
-57.21
-50.56
-43.40
-36.38
-29.91
-23.65
-16.52
-7.00
6.12
23.10
42.76
62.68
79.84
91.52
96.17
93.76
85.63
73.87
60.70
47.89
36.56
27.32
20.47
16.10
14.08
13.83
14.26
13.95
11.54
6.20
-2.04
-12.30
-23.14
-33.08
-41.07
-46.80
-50.65
-53.39
-55.79
-58.16
-60.13
-60.67
-58.35
-51.83
-40.29
-23.94
-4.06
17.17
37.08
53.22
63.87
68.51
67.80
63.47
57.84
53.25
51.50
53.43
58.83
66.72
75.69
84.39
91.74
96.95
99.35
98.26
92.97
82.86
67.58
47.15
22.00
-7.15
-39.35
-73.49
-108.28
-142.23
-173.78
-201.43
-223.88
-240.16
-249.77
-252.61
-248.92
-239.14
-223.76
-203.13
-177.47
-146.94
-111.88
-73.04
-31.74
10.29
51.14
89.05
122.65
150.91
173.05
188.47
196.79
198.03
192.80
182.18
167.55
150.40
132.36
115.53
102.53
95.97
97.29
105.43
116.35
123.98
122.37
108.09
81.45
46.06
6.97
-31.44
-66.64
-97.69
-124.06
-144.69
-157.86
-162.05
-157.03
-144.35
-126.94
-107.96
-89.75
-73.16
-57.78
-42.66
-27.11
-11.32
3.59
15.96
24.29
27.82
26.91
22.79
17.05
11.04
5.45
0.21
-5.16
-11.11
-17.79
-24.96
-32.22
-39.32
-46.33
-53.57
-61.48
-70.29
-79.90
-89.95
-100.02
-109.77
-119.01
-127.46
-134.53
-139.04
-139.32
-133.46
-119.72
-96.89
-64.51
-23.02
26.17
80.58
136.68
190.17
236.52
271.77
293.29
300.20
293.40
275.21
248.80
217.61
184.85
153.12
124.26
99.29
78.52
61.73
48.44
38.04
29.87
23.28
17.69
12.64
7.85
3.19
-1.39
-6.05
-11.09
-16.99
-24.07
-32.31
-41.03
-48.94
-54.37
-55.78
-52.17
-43.32
-29.85
-12.89
6.04
25.28
43.04
57.44
66.74
69.70
65.98
56.27
42.17
25.66
8.61
-7.58
-22.01
-34.03
-43.03
-48.40
-49.69
-46.94
-40.78
-32.45
-23.45
-15.26
-9.09
-5.85
-6.26
-10.84
-19.83
-32.98
-49.31
-67.06
-83.89
-97.43
-105.79
-108.06
-104.57
-96.65
-86.36
-75.79
-66.56
-59.49
-54.53
-51.04
-48.31
-45.96
-44.14
-43.45
-44.59
-47.98
-53.56
-60.85
-69.16
-77.76
-85.96
-93.07
-98.40
-101.31
-101.38
-98.61
-93.49
-86.93
-80.11
-74.14
-69.95
-68.07
-68.52
-70.69
-73.36
-74.82
-73.32
-67.52
-56.85
-41.61
-22.80
-1.65
20.72
43.52
66.25
88.55
109.97
129.75
146.86
160.09
168.37
171.07
168.42
161.51
151.99
141.58
131.38
121.60
111.76
101.31
90.28
79.70
71.42
67.57
69.99
79.83
97.49
122.41
152.87
185.53
215.52
237.18
245.59
238.47
217.29
187.09
154.82
126.92
107.26
96.39
92.19
91.53
91.83
91.87
91.60
91.34
91.03
89.83
86.39
79.27
67.44
50.52
28.80
3.26
-24.45
-51.97
-76.34
-94.50
-104.07
-104.18
-95.99
-82.44
-67.41
-54.28
-44.98
-39.53
-36.74
-35.55
-36.13
-40.12
-49.51
-65.11
-85.22
-105.79
-121.99
-130.38
-130.25
-123.58
-113.50
-102.65
-92.36
-82.93
-74.19
-65.53
-55.44
-41.34
-20.54
7.86
41.29
73.56
96.90
105.07
95.54
69.39
29.42
-21.88
-82.57
-149.52
-216.45
-273.52
-309.79
-317.16
-293.92
-245.75
-183.96
-121.73
-70.54
-37.57
-24.68
-29.23
-45.72
-67.93
-90.78
-111.33
-128.39
-141.32
-148.80
-148.49
-138.06
-116.73
-86.23
-50.26
-12.74
23.90
58.83
91.54
120.25
141.24
150.23
144.69
125.47
96.69
63.77
31.36
2.31
-21.61
-38.45
-45.36
-39.41
-19.44
12.42
50.82
88.98
121.21
144.64
159.16
166.21
167.25
162.87
152.91
137.15
116.30
92.27
67.97
46.42
29.82
18.68
11.75
6.65
1.06
-6.16
-14.49
-22.21
-27.43
-29.09
-27.50
-23.90
-19.62
-15.30
-10.77
-5.58
0.23
5.72
9.33
9.57
5.81
-1.48
-10.99
-21.13
-30.50
-38.06
-43.08
-44.94
-43.16
-37.58
-28.48
-16.66
-3.31
10.19
22.57
32.74
40.01
44.06
44.93
42.97
38.64
32.53
25.33
17.83
10.94
5.47
2.05
0.91
1.89
4.54
8.18
12.07
15.45
17.59
18.01
16.61
13.78
10.36
7.35
5.57
5.38
6.56
8.45
10.26
11.25
10.95
9.20
6.06
1.78
-3.18
-8.28
-12.88
-16.41
-18.48
-19.01
-18.25
-16.65
-14.77
-13.06
-11.79
-11.08
-10.85
-10.96
-11.39
-12.14
-13.22
-14.67
-16.51
-18.74
-21.40
-24.53
-28.12
-32.29
-37.01
-42.09
-47.27
-52.22
-56.69
-60.48
-63.49
-65.48
-66.69
-67.15
-66.88
-65.93
-64.38
-62.45
-60.30
-57.95
-54.62
-50.63
-45.67
-39.73
-33.31
-27.19
-22.51
-19.94
-19.46
-19.15
-19.20
-18.52
-16.53
-13.27
-9.05
-4.87
-1.14
2.24
7.75
14.16
22.52
33.80
48.72
68.07
90.63
115.00
139.02
162.82
181.93
195.88
205.49
212.26
218.33
222.94
225.58
209.63
194.74
178.20
161.18
145.21
131.73
122.85
117.39
114.77
113.52
114.12
111.80
105.40
95.01
74.61
55.74
37.34
19.07
0.30
-17.02
-33.90
-48.57
-59.81
-68.02
-74.33
-83.42
-97.82
-117.99
-140.67
-163.40
-182.18
-194.31
-198.90
-195.59
-186.33
-171.55
-151.37
-125.94
-98.33
-72.94
-55.19
-49.42
-56.20
-73.17
-93.84
-110.62
-117.26
-111.35
-93.89
-68.56
-39.95
-11.88
12.51
31.70
45.16
53.06
56.15
55.66
53.30
50.86
49.89
50.91
53.49
56.15
56.84
53.69
45.80
33.74
19.34
4.70
-9.07
-22.87
-39.37
-61.78
-91.83
-128.41
-167.60
-204.24
-234.20
-255.98
-270.68
-280.50
-286.76
-288.83
-284.52
-271.64
-249.62
-220.15
-186.46
-152.02
-119.15
-88.77
-60.80
-35.06
-11.96
7.53
22.29
31.80
36.48
37.62
36.94
35.88
35.21
34.87
34.26
32.68
29.81
25.89
21.59
17.81
15.31
14.59
15.93
19.40
24.97
32.44
41.33
50.85
59.87
67.04
70.97
70.50
65.04
54.94
41.69
27.85
16.63
11.17
13.74
25.21
44.85
70.47
98.87
126.38
149.55
165.74
173.57
173.03
165.38
152.57
136.72
119.73
103.06
87.80
74.77
64.45
56.92
51.71
47.82
43.95
38.81
31.52
21.79
9.96
-3.13
-16.48
-29.20
-40.87
-51.56
-61.92
-72.95
-85.67
-100.69
-117.73
-135.17
-150.10
-158.75
-157.56
-144.21
-118.63
-83.23
-42.37
-1.22
35.57
64.85
85.44
97.95
104.17
106.41
106.79
106.82
107.17
107.66
107.51
105.61
100.96
92.99
81.89
68.64
54.81
42.16
32.15
25.49
21.99
20.75
20.55
20.30
19.33
17.43
14.69
11.23
7.07
2.08
-3.74
-9.98
-15.54
-18.70
-17.39
-9.81
4.99
26.57
53.05
81.38
108.03
129.84
144.75
152.18
153.02
149.29
143.57
138.35
135.40
135.26
136.98
138.32
136.43
128.85
114.47
94.09
70.31
46.62
26.36
11.79
3.69
1.63
4.43
10.67
18.92
27.80
35.96
42.26
45.95
46.87
45.62
43.37
41.69
42.17
46.26
54.88
68.35
86.24
107.31
129.58
150.66
168.07
179.63
183.70
179.42
167.07
148.52
127.33
108.30
96.14
93.62
100.16
111.48
120.87
121.54
109.12
82.82
45.27
0.81
-46.53
-94.24
-141.65
-189.37
-238.62
-290.53
-345.56
-402.95
-460.32
-513.51
-557.14
-585.74
-595.17
-583.73
-552.45
-504.56
-444.60
-377.46
-307.83
-239.83
-176.71
-120.61
-72.32
-31.44
3.17
32.66
57.65
78.07
93.44
103.20
107.26
106.14
100.95
93.15
84.25
75.55
67.89
61.49
56.00
50.78
45.15
38.80
31.95
25.34
20.13
17.63
18.99
24.85
35.02
48.19
61.89
72.74
77.29
73.02
59.38
38.24
13.66
-9.20
-25.47
-31.83
-27.20
-12.67
8.99
34.09
58.68
79.20
92.96
98.65
96.47
88.18
76.48
64.44
54.67
48.74
46.89
47.97
49.74
49.51
45.00
35.08
20.25
2.40
-15.94
-32.46
-45.75
-55.46
-61.98
-66.01
-68.30
-69.65
-70.97
-73.28
-77.29
-83.03
-89.43
-94.51
-95.83
-91.35
-80.11
-62.48
-40.11
-15.29
9.68
33.00
53.67
71.41
86.42
98.98
109.25
117.05
121.89
123.09
120.03
112.43
100.57
85.31
68.06
50.54
34.47
21.24
11.70
5.92
3.26
2.57
2.53
1.95
0.11
-3.31
-8.26
-14.55
-21.96
-30.13
-38.47
-46.02
-51.54
-53.89
-52.39
-47.22
-39.32
-30.23
-21.55
-14.58
-10.08
-8.29
-9.10
-12.19
-17.14
-23.45
-30.59
-38.10
-45.74
-53.51
-61.62
-70.28
-79.52
-88.98
-97.97
-105.60
-111.07
-113.79
-113.54
-110.34
-104.46
-96.26
-86.16
-74.41
-61.11
-46.17
-29.55
-11.57
6.91
24.57
39.96
52.01
60.33
65.26
67.58
68.21
67.92
67.31
66.76
66.44
66.18
65.35
63.14
58.88
52.53
44.89
37.38
31.48
28.16
27.61
29.36
32.63
36.61
40.57
43.89
46.17
47.43
48.37
50.29
54.49
61.53
70.49
79.02
84.03
82.84
74.25
58.88
38.90
17.16
-3.51
-20.79
-33.04
-39.21
-38.92
-32.54
-21.25
-6.91
8.39
22.77
34.90
44.05
49.84
51.94
50.01
43.82
33.56
20.10
4.87
-10.44
-24.47
-36.49
-46.55
-55.07
-62.48
-68.82
-73.81
-77.04
-78.28
-77.72
-75.85
-73.31
-70.56
-67.84
-65.22
-62.66
-60.15
-57.51
-54.33
-49.86
-43.12
-33.28
-19.94
-3.44
15.20
34.55
53.16
69.86
83.88
94.73
102.05
105.46
104.56
99.20
89.60
76.50
61.09
44.69
28.55
13.47
-0.17
-12.43
-23.57
-33.87
-43.51
-52.55
-60.98
-68.81
-76.14
-83.17
-90.19
-97.57
-105.67
-114.68
-124.39
-134.02
-142.15
-146.94
-146.52
-139.56
-125.70
-105.76
-81.60
-55.67
-30.49
-8.19
9.81
22.97
31.55
36.32
38.32
38.49
37.50
35.69
33.15
29.93
26.06
21.72
17.18
12.79
9.02
6.45
5.69
7.21
11.20
17.39
25.05
33.01
39.88
44.13
44.31
39.19
28.07
11.04
-10.74
-35.07
-58.96
-79.25
-93.30
-99.66
-98.24
-90.31
-77.91
-63.33
-48.50
-34.77
-22.89
-13.20
-5.82
-0.81
1.84
2.36
1.36
-0.13
-0.80
0.64
4.87
11.62
19.67
27.25
32.69
35.15
34.78
32.53
29.49
26.33
23.01
18.99
13.70
6.89
-1.33
-10.66
-20.76
-31.36
-41.95
-51.58
-58.82
-62.14
-60.42
-53.52
-42.37
-28.70
-14.45
-1.17
10.33
19.87
27.64
33.74
37.96
39.79
38.73
34.75
28.48
21.22
14.62
10.20
8.94
11.04
15.95
22.56
29.51
35.64
40.28
43.47
45.78
47.98
50.46
52.77
53.39
50.20
41.30
26.11
6.13
-14.98
-32.15
-40.41
-36.43
-19.69
7.27
39.44
70.67
95.11
108.56
109.32
98.51
79.69
57.98
38.64
25.61
20.40
21.85
26.76
31.28
32.16
27.71
17.89
3.99
-11.99
-27.78
-41.17
-50.37
-54.31
-53.03
-47.68
-40.24
-32.98
-27.80
-25.69
-26.56
-29.56
-33.75
-38.47
-43.39
-48.37
-53.14
-57.04
-59.02
-57.52
-50.89
-37.84
-17.78
9.02
41.16
75.98
109.72
137.93
156.97
164.53
160.18
145.52
124.09
100.10
76.96
56.34
37.70
20.52
4.40
-10.77
-24.57
-35.52
-42.37
-45.35
-46.59
-50.14
-57.45
-67.99
-80.02
-91.02
-97.82
-98.51
-94.02
-88.26
-87.68
-94.19
-106.40
-121.25
-134.27
-139.34
-130.59
-104.36
-60.76
-5.39
57.86
124.74
190.18
236.86
248.88
223.63
176.04
141.87
125.43
120.64
120.11
111.13
89.80
60.12
30.92
11.34
6.63
14.50
31.74
52.75
69.94
77.41
73.37
60.37
43.23
26.34
10.41
-2.98
-13.27
-21.07
-26.25
-27.41
-22.54
-10.73
6.48
24.44
39.69
50.13
55.45
57.66
60.14
65.96
76.11
88.64
99.21
104.46
103.27
97.12
89.72
85.18
86.25
93.18
103.95
115.19
124.14
129.21
129.96
126.73
120.09
110.53
98.34
83.65
66.41
46.47
23.83
-1.11
-27.23
-52.69
-75.13
-92.26
-102.72
-106.82
-106.88
-106.92
-111.34
-123.16
-142.34
-165.18
-185.41
-196.70
-195.45
-182.42
-162.48
-142.30
-127.51
-120.54
-120.35
-123.88
-128.03
-131.17
-133.27
-134.99
-136.57
-137.28
-135.85
-131.42
-124.30
-116.08
-108.86
-104.31
-102.93
-103.95
-105.87
-107.28
-107.42
-106.30
-104.35
-102.01
-99.46
-96.71
-93.63
-90.14
-86.02
-80.64
-73.02
-62.17
-47.43
-28.71
-6.33
19.24
47.52
77.95
109.55
140.76
169.67
194.64
214.90
230.71
242.87
251.94
257.73
259.38
256.01
247.49
234.65
219.01
202.12
185.03
168.18
151.68
135.67
120.36
106.17
93.29
81.45
69.95
57.78
43.86
27.29
7.87
-13.38
-33.94
-50.23
-58.55
-56.57
-44.23
-23.80
1.11
26.94
51.07
71.86
87.92
97.48
98.45
89.33
70.29
43.65
13.16
-17.44
-45.88
-71.78
-95.97
-119.10
-140.74
-159.15
-172.17
-178.59
-179.00
-175.82
-172.46
-171.97
-176.01
-184.47
-195.66
-207.04
-215.92
-219.90
-217.26
-207.25
-190.29
-168.03
-142.98
-117.80
-94.49
-73.94
-55.95
-39.84
-25.17
-12.19
-1.70
5.58
9.64
11.44
12.56
14.46
17.76
21.97
25.97
28.67
29.68
29.52
29.25
29.76
31.35
33.54
35.35
35.66
33.52
28.44
20.42
9.98
-1.92
-14.28
-26.35
-37.98
-49.46
-61.24
-73.24
-84.48
-93.14
-97.07
-94.60
-85.29
-70.43
-52.92
-36.58
-24.81
-19.27
-19.08
-21.23
-21.96
-18.63
-10.93
-0.90
8.46
14.89
18.00
19.03
19.64
20.59
21.28
20.36
16.87
11.09
4.49
-1.08
-4.33
-4.92
-3.34
-0.30
3.75
8.66
14.32
20.23
25.46
28.88
29.77
28.25
25.35
22.77
22.28
25.25
32.24
42.98
56.48
71.28
85.74
98.31
107.67
112.93
113.75
110.41
103.76
95.06
85.64
76.56
68.36
61.03
54.24
47.74
41.75
37.02
34.69
35.73
40.47
48.26
57.46
65.77
70.74
70.27
63.02
48.70
28.23
3.71
-21.75
-44.63
-61.69
-70.74
-71.14
-63.84
-50.95
-35.04
-18.39
-2.60
11.49
23.65
33.97
42.69
50.11
56.63
62.64
68.46
74.19
79.54
83.89
86.37
86.14
82.54
75.34
64.85
51.91
37.69
23.43
10.04
-2.17
-13.62
-25.21
-37.98
-52.57
-68.97
-86.39
-103.34
-117.91
-128.10
-132.18
-129.19
-119.27
-103.69
-84.58
-64.19
-44.16
-25.09
-6.60
11.97
30.90
49.52
66.31
79.40
87.24
89.19
85.59
77.58
66.68
54.43
42.05
30.45
20.14
11.35
4.06
-1.90
-6.75
-10.66
-13.73
-15.95
-17.36
-18.12
-18.63
-19.42
-21.01
-23.59
-26.79
-29.57
-30.44
-27.95
-21.20
-10.29
3.71
19.10
34.27
48.19
60.73
72.50
84.27
96.54
109.09
120.98
130.81
137.06
138.51
134.51
125.11
111.06
93.58
74.00
53.34
32.11
10.22
-12.62
-36.62
-61.56
-86.78
-111.37
-134.44
-155.38
-173.84
-189.60
-202.37
-211.75
-217.31
-218.69
-215.74
-208.52
-197.30
-182.58
-165.18
-146.21
-127.06
-109.06
-93.06
-79.04
-65.94
-51.95
-35.15
-14.39
10.10
36.47
61.64
82.08
94.88
98.85
95.38
88.83
85.84
93.64
117.51
158.41
211.79
268.47
317.21
348.18
355.55
338.55
300.60
247.33
184.89
118.82
54.03
-4.97
-54.18
-90.62
-113.23
-123.28
-124.19
-120.47
-116.30
-114.41
-115.46
-118.47
-121.61
-123.34
-123.00
-120.94
-118.12
-115.46
-113.35
-111.54
-109.21
-105.31
-98.93
-89.51
-76.91
-61.53
-44.23
-26.45
-10.01
3.01
10.91
12.98
10.00
4.44
-0.16
-0.08
7.34
22.94
45.51
72.28
99.75
124.54
144.03
156.60
161.70
159.68
151.48
138.33
121.38
101.48
79.14
54.80
29.03
2.81
-22.59
-45.90
-66.22
-83.15
-96.73
-107.07
-114.03
-117.13
-115.79
-109.76
-99.62
-86.84
-73.55
-61.88
-53.38
-48.50
-46.53
-45.88
-44.57
-40.76
-33.11
-21.01
-4.74
14.39
34.11
51.51
63.66
68.51
65.62
56.45
43.90
31.31
21.27
14.86
11.55
9.76
7.80
4.62
0.08
-5.20
-10.24
-14.19
-16.53
-17.20
-16.54
-15.35
-14.84
-16.58
-22.23
-33.06
-49.32
-69.90
-92.36
-113.51
-130.33
-140.84
-144.57
-142.43
-136.04
-126.95
-116.20
-104.26
-91.50
-78.59
-66.61
-56.82
-50.19
-47.06
-47.10
-49.67
-54.06
-59.68
-66.01
-72.46
-78.28
-82.80
-85.56
-86.39
-85.25
-81.96
-76.17
-67.64
-56.62
-44.18
-32.01
-21.85
-14.70
-10.29
-7.14
-3.06
4.11
15.93
33.01
54.98
80.40
106.96
131.82
152.35
166.93
175.56
179.97
182.81
186.44
191.91
198.64
204.99
209.35
211.12
210.70
208.84
205.58
199.83
189.94
174.89
155.56
134.63
115.00
97.83
81.82
64.31
43.76
21.46
0.99
-14.49
-24.95
-34.08
-46.86
-65.66
-87.68
-105.93
-113.21
-106.63
-89.39
-68.86
-52.15
-42.31
-37.46
-33.16
-25.98
-15.70
-5.08
2.26
4.13
0.94
-4.70
-9.70
-11.99
-11.28
-8.82
-6.41
-5.37
-5.98
-7.52
-8.89
-9.35
-9.01
-8.81
-10.08
-13.88
-20.55
-29.38
-38.84
-46.87
-51.58
-51.67
-46.87
-37.93
-26.36
-13.87
-1.87
8.97
18.57
27.21
35.10
42.10
47.79
51.70
53.66
53.95
53.21
52.20
51.50
51.23
51.07
50.41
48.70
45.77
41.81
37.30
32.51
27.27
20.92
12.62
1.80
-11.41
-26.19
-41.32
-55.64
-68.27
-78.53
-85.61
-88.47
-86.14
-78.39
-66.17
-51.75
-38.16
-28.43
-24.75
-28.05
-37.94
-52.95
-70.84
-89.04
-105.14
-117.45
-125.51
-130.16
-133.27
-136.92
-142.55
-150.38
-159.50
-168.33
-175.39
-179.85
-181.70
-181.53
-180.24
-178.64
-177.28
-176.41
-175.74
-174.14
-169.21
-157.20
-133.73
-95.12
-40.15
28.81
105.83
182.87
252.01
307.56
347.03
370.84
381.08
380.34
371.15
355.97
337.46
318.10
299.38
281.06
261.18
237.23
207.76
173.67
138.22
105.87
80.47
63.87
55.45
52.64
51.97
50.10
44.46
33.74
18.02
-1.23
-21.54
-40.24
-55.34
-66.12
-73.11
-77.39
-79.89
-80.92
-80.32
-77.96
-74.04
-69.15
-63.86
-58.28
-52.08
-44.77
-36.41
-27.93
-20.87
-16.55
-15.37
-16.44
-18.14
-19.04
-18.72
-17.87
-17.73
-19.28
-22.74
-27.61
-33.03
-38.27
-42.76
-46.02
-47.47
-46.61
-43.37
-38.47
-33.48
-30.34
-30.64
-35.01
-42.86
-52.67
-62.49
-70.50
-75.41
-76.57
-73.90
-67.82
-59.12
-48.83
-38.09
-27.83
-18.61
-10.48
-3.08
4.04
11.10
17.81
23.54
27.51
29.23
28.66
26.22
22.62
18.52
14.44
10.58
7.00
3.63
0.43
-2.59
-5.38
-7.89
-10.16
-12.29
-14.40
-16.63
-19.07
-21.86
-25.18
-29.32
-34.44
-40.39
-46.41
-51.25
-53.40
-51.70
-45.71
-35.99
-23.83
-10.82
1.61
12.50
21.37
28.09
32.74
35.43
36.41
35.96
34.36
31.88
28.69
24.88
20.56
15.90
11.16
6.72
2.94
0.07
-1.81
-2.86
-3.40
-3.89
-4.71
-6.11
-8.09
-10.45
-12.96
-15.49
-18.19
-21.40
-25.54
-30.84
-37.14
-43.76
-49.56
-53.18
-53.32
-49.12
-40.41
-27.82
-12.64
3.51
18.96
32.42
43.10
50.78
55.61
57.98
58.36
57.18
54.81
51.58
47.73
43.40
38.68
33.67
28.53
23.54
19.00
15.23
12.46
10.75
10.00
9.92
10.07
9.83
8.55
5.63
0.75
-6.06
-14.39
-23.56
-32.81
-41.52
-49.34
-56.20
-62.35
-68.26
-74.56
-81.71
-89.84
-98.43
-106.22
-111.53
-112.58
-108.12
-97.77
-82.18
-62.74
-41.24
-19.34
1.69
21.10
38.51
53.74
66.64
76.91
84.18
88.03
88.16
84.45
77.01
66.26
52.90
37.89
22.33
7.31
-6.36
-18.26
-28.34
-36.76
-43.50
-48.19
-50.09
-48.43
-42.92
-34.07
-23.24
-12.17
-2.44
5.00
9.88
12.28
12.29
9.62
3.83
-5.21
-16.82
-29.22
-39.79
-45.85
-45.46
-38.05
-24.38
-6.06
15.08
37.44
59.68
80.38
97.97
110.91
118.24
120.11
117.76
113.10
107.84
102.93
98.46
94.04
89.33
84.25
78.97
73.51
67.71
61.33
54.34
47.05
40.02
33.76
28.48
24.04
20.11
16.36
12.56
8.52
3.89
-1.92
-9.66
-20.01
-33.18
-48.66
-65.01
-80.15
-91.73
-97.78
-97.20
-90.04
-77.46
-61.34
-43.88
-27.13
-12.71
-1.64
5.64
9.23
9.72
8.02
5.24
2.48
0.65
0.27
1.34
3.40
5.63
7.15
7.43
6.48
4.95
3.92
4.57
7.82
14.18
23.61
35.58
49.09
62.76
74.96
83.97
88.21
86.52
78.33
63.84
44.07
20.93
-3.06
-25.10
-42.72
-54.40
-59.87
-60.10
-56.98
-52.76
-49.43
-48.39
-50.28
-54.96
-61.71
-69.48
-77.17
-83.83
-88.88
-92.07
-93.53
-93.67
-93.08
-92.50
-92.52
-93.48
-95.39
-97.93
-100.65
-102.95
-103.93
-102.10
-95.49
-82.34
-62.24
-37.16
-11.44
9.52
21.36
22.82
16.25
6.67
-0.53
-1.66
4.23
15.83
30.91
47.60
64.88
82.24
99.01
113.89
125.24
131.61
132.45
128.33
120.78
111.52
101.77
91.84
81.17
69.03
55.19
40.43
26.50
15.51
9.23
8.48
12.95
21.46
32.26
43.34
52.55
57.69
56.75
48.37
32.37
10.02
-15.96
-41.90
-63.91
-78.62
-83.77
-78.61
-63.94
-41.90
-15.54
11.76
36.88
57.46
72.21
80.95
84.48
84.24
81.95
79.18
77.07
76.20
76.69
78.24
80.36
82.38
83.57
83.26
81.03
76.93
71.41
65.09
58.13
49.90
38.89
23.29
1.76
-25.76
-57.78
-91.26
-122.09
-145.90
-159.00
-159.47
-147.83
-127.02
-101.60
-76.18
-54.01
-36.11
-21.54
-8.45
4.68
18.38
32.28
45.63
57.92
68.87
78.26
85.50
89.59
89.45
84.40
74.58
61.06
45.56
29.84
15.19
2.14
-9.55
-20.48
-31.19
-41.75
-51.66
-60.01
-65.98
-69.20
-70.03
-69.62
-69.50
-71.17
-75.41
-81.94
-89.18
-94.69
-95.68
-89.95
-76.51
-55.87
-29.88
-1.17
27.59
54.10
76.71
94.33
106.28
112.21
112.20
106.88
97.43
85.41
72.45
59.95
48.93
40.04
33.61
29.69
28.03
28.02
28.69
28.88
27.57
24.09
18.36
10.78
2.03
-7.21
-16.51
-25.79
-35.24
-45.01
-54.88
-64.01
-71.01
-74.23
-72.27
-64.53
-51.35
-33.97
-14.23
5.84
24.29
39.53
50.46
56.68
58.56
57.27
54.46
51.86
50.70
51.21
52.51
52.82
50.17
43.02
30.97
14.86
-3.43
-21.56
-37.40
-49.44
-57.02
-60.26
-59.88
-57.09
-53.45
-50.74
-50.56
-53.97
-60.98
-70.45
-80.26
-87.94
-91.38
-89.42
-82.10
-70.41
-55.84
-39.82
-23.43
-7.29
8.25
22.85
36.17
47.75
57.16
64.10
68.45
70.29
69.92
67.81
64.56
60.94
57.73
55.71
55.49
57.28
60.73
64.86
68.16
68.89
65.52
57.14
43.71
26.05
5.60
-15.85
-36.43
-54.42
-68.41
-77.50
-81.40
-80.46
-75.57
-67.91
-58.57
-48.46
-38.11
-27.80
-17.63
-7.68
1.83
10.62
18.38
24.92
30.27
34.63
38.24
41.13
43.13
43.95
43.53
42.15
40.45
38.89
37.26
34.42
28.60
18.29
3.09
-15.70
-35.41
-52.90
-65.63
-72.37
-73.27
-69.41
-62.17
-52.72
-41.88
-30.28
-18.44
-6.94
3.69
12.96
20.49
26.03
29.38
30.45
29.26
25.92
20.57
13.41
4.67
-5.22
-15.61
-25.66
-34.46
-41.27
-45.66
-47.57
-47.25
-45.15
-41.83
-37.90
-34.03
-30.86
-28.94
-28.66
-30.22
-33.52
-38.16
-43.39
-48.18
-51.39
-52.08
-49.71
-44.28
-36.28
-26.46
-15.73
-5.03
4.66
12.37
17.30
19.15
18.32
16.00
13.94
14.03
17.78
26.00
38.53
54.33
71.71
88.69
103.40
114.40
120.82
122.44
119.51
112.63
102.60
90.36
76.90
63.12
49.61
36.46
23.20
9.03
-6.78
-24.37
-42.91
-60.69
-75.56
-85.75
-90.61
-91.03
-89.10
-87.34
-87.58
-90.19
-94.17
-97.75
-99.51
-99.22
-98.00
-97.68
-99.98
-105.69
-114.36
-124.28
-132.50
-134.87
-126.29
-101.86
-58.75
1.58
72.30
142.17
198.77
232.71
240.74
226.30
197.13
161.35
124.27
87.43
50.08
11.76
-25.61
-57.73
-79.49
-87.23
-80.48
-61.98
-36.39
-8.55
17.93
41.16
60.43
75.35
85.24
89.02
85.85
75.79
60.32
42.17
24.58
10.32
0.71
-4.65
-7.56
-10.38
-14.97
-21.99
-30.77
-39.73
-47.22
-52.21
-54.69
-55.58
-56.15
-57.46
-59.79
-62.53
-64.37
-63.74
-59.27
-50.27
-36.88
-20.11
-1.56
17.02
34.12
48.68
60.13
68.10
72.23
72.10
67.50
58.73
46.83
33.49
20.47
9.07
-0.20
-7.58
-13.51
-18.16
-21.21
-22.04
-20.26
-16.15
-10.77
-5.63
-2.23
-1.63
-4.36
-10.48
-19.84
-32.12
-46.70
-62.42
-77.47
-89.59
-96.51
-96.60
-89.50
-76.28
-59.21
-41.15
-24.81
-12.05
-3.68
0.51
1.34
-0.20
-3.23
-7.15
-11.43
-15.54
-18.74
-20.21
-19.31
-15.83
-10.27
-3.68
2.55
7.20
9.57
9.70
8.24
6.04
3.77
1.62
-0.68
-3.64
-7.62
-12.61
-18.15
-23.64
-28.61
-32.86
-36.49
-39.65
-42.35
-44.40
-45.47
-45.18
-42.94
-37.67
-27.59
-10.60
14.82
48.42
87.16
125.49
156.58
174.51
176.22
162.36
136.80
104.98
72.15
42.23
17.52
-0.83
-12.37
-17.17
-16.02
-10.70
-3.79
1.89
4.18
2.27
-3.19
-10.56
-18.11
-24.70
-30.00
-34.27
-37.90
-40.98
-43.24
-44.27
-43.92
-42.46
-40.66
-39.39
-39.22
-40.10
-41.35
-41.94
-41.01
-38.25
-34.11
-29.50
-25.39
-22.34
-20.26
-18.57
-16.52
-13.55
-9.45
-4.27
1.81
8.56
15.62
22.37
27.87
30.96
30.50
25.73
16.47
3.29
-12.64
-29.64
-45.78
-59.17
-68.19
-71.77
-69.60
-62.20
-50.86
-37.35
-23.59
-11.23
-1.37
5.64
10.13
12.89
14.83
16.65
18.57
20.37
21.46
21.28
19.55
16.42
12.50
8.58
5.43
3.50
2.88
3.29
4.22
5.10
5.45
5.09
4.22
3.45
3.65
5.61
9.51
14.58
18.96
20.16
15.95
5.35
-10.76
-29.71
-47.90
-61.83
-69.15
-68.98
-61.81
-48.98
-32.26
-13.59
5.00
21.40
33.79
40.92
42.50
39.30
32.95
25.53
19.03
14.94
14.00
16.10
20.45
25.85
31.07
35.16
37.58
38.23
37.28
35.04
31.82
27.86
23.29
18.03
11.75
3.98
-5.62
-16.90
-28.92
-39.97
-47.98
-51.08
-48.23
-39.55
-26.27
-10.36
5.94
20.49
31.62
38.26
40.09
37.50
31.49
23.41
14.73
6.73
0.41
-3.65
-5.38
-5.20
-4.00
-2.92
-3.03
-4.95
-8.62
-13.34
-18.04
-21.76
-24.02
-24.96
-25.24
-25.70
-27.04
-29.57
-32.96
-36.21
-37.74
-35.65
-28.31
-14.94
3.84
26.02
48.66
69.00
85.43
98.21
109.21
120.96
135.20
151.70
167.93
179.78
183.05
175.10
155.95
128.36
96.93
66.58
41.18
22.68
11.02
4.72
1.59
-0.60
-3.65
-8.87
-16.85
-27.47
-39.78
-52.17
-62.73
-69.73
-72.24
-70.40
-65.38
-58.88
-52.54
-47.32
-43.29
-39.64
-35.07
-28.31
-18.56
-5.82
8.97
24.09
37.45
47.14
52.06
52.27
49.00
44.25
40.18
38.40
39.57
43.23
48.12
52.46
54.47
52.72
46.45
35.74
21.51
5.35
-10.92
-25.82
-38.63
-49.51
-59.21
-68.57
-77.91
-86.96
-94.99
-101.44
-106.26
-109.88
-112.78
-114.84
-115.00
-111.48
-102.57
-87.47
-66.86
-42.84
-18.26
4.17
22.65
36.52
46.15
52.43
56.34
58.60
59.57
59.32
57.63
54.07
48.16
39.52
28.13
14.59
0.26
-12.93
-22.98
-28.52
-29.31
-26.49
-22.19
-18.82
-18.24
-21.22
-27.33
-35.29
-43.52
-50.65
-55.83
-58.74
-59.45
-58.14
-54.90
-49.66
-42.14
-32.07
-19.41
-4.50
11.83
28.45
44.17
58.07
69.65
78.79
85.60
90.25
93.03
94.46
95.46
97.17
100.48
105.43
110.87
114.73
114.88
110.03
100.35
87.11
71.89
55.53
37.85
18.18
-3.58
-26.20
-47.16
-63.73
-74.28
-79.08
-80.13
-79.96
-80.32
-81.30
-81.53
-79.08
-72.60
-61.93
-48.03
-32.47
-16.68
-1.70
11.83
23.32
32.15
37.66
39.52
37.96
33.84
28.38
22.79
17.80
13.64
10.08
6.77
3.49
0.27
-2.67
-5.11
-6.95
-8.30
-9.44
-10.71
-12.42
-14.75
-17.72
-21.21
-24.97
-28.69
-32.08
-34.95
-37.31
-39.40
-41.56
-44.09
-46.91
-49.49
-50.77
-49.55
-44.85
-36.47
-25.12
-12.35
-0.13
9.78
16.35
19.43
19.66
18.14
15.91
13.69
11.61
9.25
5.84
0.57
-6.86
-15.89
-24.97
-31.81
-34.19
-30.80
-22.04
-10.17
1.37
9.14
10.96
6.72
-1.53
-10.34
-15.98
-15.65
-8.34
4.81
20.79
35.52
45.02
46.57
39.59
25.81
8.61
-8.17
-21.52
-30.13
-34.34
-35.49
-34.88
-33.14
-30.15
-25.55
-19.41
-12.57
-6.44
-2.15
0.06
1.10
2.41
4.91
8.32
11.29
12.49
11.92
11.39
13.82
21.46
34.49
50.61
66.30
78.83
87.49
93.06
95.88
94.34
85.26
66.44
39.71
12.07
-6.43
-7.44
11.17
43.47
77.93
102.50
109.79
99.46
77.12
50.76
26.97
9.09
-2.74
-9.93
-13.95
-15.52
-14.75
-11.73
-6.97
-1.72
2.55
4.73
4.53
2.58
0.10
-1.77
-2.63
-3.07
-4.38
-7.85
-14.02
-22.30
-31.14
-38.71
-43.66
-45.72
-45.71
-45.14
-45.39
-47.12
-49.91
-52.51
-53.33
-51.09
-45.31
-36.46
-25.69
-14.41
-3.89
5.01
11.87
16.60
19.22
19.83
18.57
15.76
11.94
7.84
4.19
1.48
-0.21
-1.25
-2.25
-3.72
-5.78
-8.02
-9.76
-10.34
-9.53
-7.72
-5.77
-4.70
-5.22
-7.41
-10.71
-14.13
-16.72
-17.95
-17.99
-17.57
-17.63
-18.87
-21.30
-24.16
-26.19
-26.14
-23.36
-18.16
-11.88
-6.62
-4.91
-9.18
-21.03
-40.41
-64.71
-88.42
-103.58
-101.77
-76.81
-27.46
41.35
119.62
195.18
257.29
299.10
318.23
315.73
294.42
257.80
209.73
154.71
97.80
43.93
-3.33
-42.57
-74.55
-101.20
-124.31
-144.49
-160.97
-172.25
-176.91
-174.40
-165.35
-151.26
-134.00
-115.08
-95.30
-74.67
-52.87
-29.89
-6.48
15.71
34.52
47.94
54.74
54.83
49.26
39.79
28.42
16.88
6.27
-2.99
-11.13
-18.71
-26.40
-34.78
-44.14
-54.51
-65.67
-77.23
-88.68
-99.51
-109.39
-118.29
-126.55
-134.63
-142.79
-150.62
-156.84
-159.49
-156.49
-146.43
-129.17
-106.00
-79.32
-51.97
-26.45
-4.51
13.06
26.23
35.46
41.38
44.61
45.72
45.21
43.48
40.88
37.69
34.21
30.75
27.75
25.75
25.31
26.96
30.95
37.12
44.78
52.76
59.55
63.67
63.93
59.82
51.50
39.74
25.66
10.43
-4.80
-18.99
-31.10
-40.10
-45.16
-45.84
-42.30
-35.39
-26.46
-17.07
-8.57
-1.82
3.00
6.20
8.42
10.25
12.08
13.94
15.56
16.52
16.46
15.26
13.14
10.61
8.32
6.89
6.73
7.93
10.26
13.15
15.74
17.01
16.06
12.39
6.25
-1.33
-8.83
-14.74
-18.15
-19.10
-18.42
-17.33
-16.86
-17.42
-18.69
-19.82
-19.70
-17.39
-12.47
-5.10
3.99
13.92
23.95
33.78
43.35
52.43
60.19
65.20
66.10
62.39
55.17
46.88
40.33
37.36
37.94
40.28
41.82
40.58
35.86
28.25
18.79
8.10
-4.01
-18.28
-35.33
-55.13
-76.90
-99.33
-120.96
-140.40
-156.10
-166.31
-169.03
-162.57
-146.19
-120.63
-88.09
-51.73
-14.68
20.62
52.68
80.67
103.76
120.81
130.42
131.57
124.27
109.97
91.38
71.73
53.85
39.46
29.03
22.03
17.51
14.64
12.92
12.15
12.25
12.96
13.87
14.46
14.40
13.60
12.17
10.25
7.78
4.65
0.92
-2.80
-5.26
-4.90
-0.38
8.65
21.25
35.34
48.48
58.68
65.04
67.87
68.33
67.77
67.10
66.47
65.25
62.36
56.71
47.60
35.00
19.47
2.04
-16.00
-33.34
-48.76
-61.27
-70.19
-75.35
-77.10
-76.35
-74.31
-72.16
-70.81
-70.72
-71.99
-74.54
-78.22
-82.84
-87.92
-92.54
-95.23
-94.30
-88.29
-76.60
-59.73
-39.31
-17.58
3.27
21.56
36.49
47.94
56.19
61.57
64.32
64.68
62.99
59.84
55.87
51.53
46.85
41.54
35.29
28.24
21.12
15.06
10.98
9.07
8.58
8.17
6.55
3.02
-2.32
-8.78
-15.57
-22.14
-28.18
-33.42
-37.50
-39.83
-39.85
-37.27
-32.22
-25.25
-17.10
-8.49
0.00
8.10
15.72
22.91
29.70
36.04
41.71
46.37
49.64
51.31
51.33
49.90
47.35
44.06
40.36
36.64
33.25
30.47
28.31
26.39
24.09
20.70
15.70
8.92
0.56
-8.94
-18.96
-28.78
-37.57
-44.48
-48.75
-49.92
-47.92
-42.92
-35.11
-24.40
-10.51
6.73
26.95
48.93
70.83
90.63
106.73
118.26
125.14
127.64
126.01
120.25
110.26
96.23
79.06
60.56
43.14
29.30
20.90
18.72
22.37
30.54
41.54
53.73
65.90
77.37
88.02
98.29
108.95
120.92
134.69
149.76
164.34
175.48
179.88
174.97
159.91
136.05
106.67
76.13
48.84
28.15
15.70
11.21
12.64
16.93
20.79
21.70
18.51
11.47
1.76
-9.24
-20.52
-31.62
-42.51
-53.48
-65.11
-78.19
-93.41
-110.66
-128.45
-143.90
-153.63
-155.24
-148.54
-135.80
-120.72
-106.80
-96.03
-88.61
-83.80
-81.01
-80.40
-82.55
-87.44
-93.64
-98.41
-98.47
-91.34
-76.33
-54.71
-29.21
-2.98
21.29
41.93
58.28
70.30
78.10
81.73
81.10
76.26
67.63
56.09
42.92
29.54
17.21
6.80
-1.33
-7.22
-11.24
-13.81
-15.27
-15.77
-15.38
-14.09
-12.06
-9.65
-7.41
-5.96
-5.76
-6.96
-9.36
-12.59
-16.36
-20.67
-25.79
-31.97
-39.08
-46.43
-52.88
-57.23
-58.65
-56.83
-51.84
-43.83
-32.95
-19.63
-5.07
8.57
18.62
22.86
20.60
13.15
3.31
-5.77
-11.90
-14.40
-13.87
-11.39
-7.69
-2.95
2.95
9.92
17.37
24.35
29.88
33.27
34.17
32.33
27.62
20.00
9.79
-2.31
-15.31
-28.27
-40.70
-52.58
-64.16
-75.43
-85.90
-94.47
-99.85
-101.08
-97.94
-91.19
-82.27
-73.00
-64.84
-58.53
-53.68
-48.76
-41.49
-29.42
-10.76
15.03
46.85
82.09
117.03
147.76
171.04
184.96
189.19
184.87
174.16
159.57
143.25
126.50
109.64
92.55
75.27
58.63
44.08
33.06
25.97
21.60
17.38
10.43
-0.97
-16.49
-33.82
-49.79
-61.84
-69.04
-72.23
-73.15
-73.48
-74.10
-75.02
-75.80
-76.15
-76.34
-77.04
-78.98
-82.36
-86.69
-90.85
-93.64
-94.22
-92.51
-89.16
-85.13
-81.29
-78.02
-75.14
-72.16
-68.61
-64.37
-59.74
-55.27
-51.44
-48.34
-45.57
-42.33
-37.74
-31.10
-22.20
-11.35
0.65
12.68
23.56
32.22
37.98
40.61
40.47
38.42
35.59
32.97
31.07
29.72
28.16
25.44
20.95
14.85
8.04
1.82
-2.74
-5.44
-7.09
-9.27
-13.53
-20.71
-30.49
-41.53
-52.14
-61.07
-68.12
-74.03
-80.00
-86.98
-95.24
-104.25
-112.80
-118.85
-119.37
-110.46
-88.38
-51.39
-1.52
54.67
107.45
147.00
166.82
165.91
148.54
121.80
92.30
63.83
36.98
10.40
-17.12
-45.32
-72.26
-95.50
-113.49
-126.49
-136.54
-146.29
-157.68
-171.09
-185.54
-199.59
-212.15
-222.58
-229.92
-232.11
-225.78
-207.23
-174.04
-126.38
-67.28
-1.75
64.92
128.51
186.39
237.27
280.57
316.02
343.52
363.23
375.49
380.62
378.67
369.72
354.35
334.22
312.35
292.62
278.64
272.59
274.42
282.13
292.77
303.69
313.46
321.71
328.27
332.16
331.36
323.28
305.99
279.19
244.32
203.98
160.92
117.69
76.61
39.90
9.29
-14.84
-34.59
-54.64
-80.99
-118.32
-167.30
-223.37
-278.11
-322.53
-350.88
-362.69
-362.36
-356.25
-349.36
-343.27
-336.39
-325.96
-310.51
-291.07
-270.78
-253.11
-239.86
-230.46
-222.56
-213.62
-202.29
-189.02
-175.54
-163.70
-154.41
-147.08
-140.06
-131.49
-120.26
-106.52
-91.59
-77.38
-65.59
-57.16
-52.13
-49.96
-49.93
-51.36
-53.64
-56.07
-57.70
-57.54
-54.91
-49.99
-44.00
-38.96
-36.88
-38.75
-43.88
-49.87
-53.43
-51.53
-42.42
-26.02
-3.57
23.11
52.35
82.81
113.31
142.33
167.87
187.61
199.43
201.98
194.92
178.96
155.64
127.20
96.47
66.66
40.98
22.01
11.08
7.94
10.90
17.33
24.45
29.96
32.54
31.90
28.70
24.17
19.63
16.06
13.83
12.61
11.65
10.10
7.39
3.36
-1.82
-7.85
-14.51
-21.68
-29.47
-38.14
-48.10
-59.71
-72.89
-86.76
-99.43
-108.24
-110.44
-104.04
-88.50
-64.98
-36.01
-4.80
25.48
52.30
73.97
89.61
98.93
102.11
99.72
92.73
82.48
70.52
58.41
47.41
38.32
31.41
26.65
23.82
22.75
23.27
25.08
27.60
29.96
31.19
30.54
27.68
22.79
16.42
9.24
1.84
-5.38
-12.24
-18.65
-24.55
-29.83
-34.35
-38.02
-40.77
-42.70
-43.87
-44.25
-43.48
-40.82
-35.18
-25.46
-10.93
8.51
32.18
58.84
86.89
114.50
139.63
159.97
173.19
177.48
172.32
158.88
139.88
118.79
98.63
81.18
66.64
54.15
42.58
31.21
20.05
9.62
0.65
-6.29
-10.88
-13.12
-13.24
-11.67
-9.12
-6.38
-4.17
-2.81
-2.24
-1.98
-1.39
-0.16
1.55
2.94
2.86
0.21
-5.67
-14.69
-26.05
-38.50
-50.69
-61.49
-70.13
-76.06
-78.86
-78.06
-73.23
-64.19
-51.27
-35.55
-18.78
-3.11
9.42
17.38
20.28
18.69
13.90
7.56
1.14
-4.38
-8.62
-11.63
-13.66
-14.91
-15.47
-15.47
-15.17
-15.11
-15.92
-18.14
-21.90
-26.78
-31.93
-36.29
-39.05
-39.84
-38.95
-37.07
-35.18
-34.20
-34.80
-37.20
-41.07
-45.46
-48.91
-49.80
-46.88
-39.70
-28.86
-15.78
-2.24
10.29
21.14
30.54
39.34
48.45
58.30
68.46
77.77
84.61
87.61
86.13
80.45
71.69
61.31
50.68
40.65
31.54
23.16
15.04
6.63
-2.55
-12.67
-23.48
-34.30
-44.20
-52.33
-58.17
-61.66
-63.05
-62.77
-61.25
-58.98
-56.63
-54.99
-54.80
-56.33
-59.18
-62.15
-63.61
-61.94
-56.06
-45.69
-31.40
-14.48
3.38
20.44
35.27
46.96
55.29
60.60
63.61
65.12
65.76
65.87
65.38
63.84
60.55
54.68
45.67
33.49
18.82
3.00
-12.34
-25.75
-36.30
-43.67
-48.11
-50.12
-50.43
-49.82
-49.14
-49.16
-50.43
-53.04
-56.62
-60.41
-63.52
-65.21
-64.97
-62.56
-57.85
-50.79
-41.40
-29.84
-16.55
-2.24
12.16
25.62
37.13
45.63
50.05
49.44
43.27
31.76
16.20
-1.23
-17.99
-31.91
-41.79
-47.49
-49.61
-48.86
-45.49
-39.30
-29.90
-17.32
-2.32
13.49
28.06
39.28
45.62
46.30
41.46
32.04
19.37
4.91
-10.08
-24.65
-38.01
-49.31
-57.54
-61.66
-60.93
-55.33
-45.67
-33.45
-20.35
-7.77
3.41
12.84
20.22
25.16
27.02
25.21
19.61
10.85
0.31
-10.13
-18.68
-23.99
-25.41
-22.96
-17.19
-8.99
0.39
9.56
17.05
21.65
22.64
19.88
13.74
4.80
-6.34
-19.14
-33.01
-47.26
-61.12
-73.84
-84.85
-93.79
-100.34
-104.02
-104.03
-99.14
-87.94
-69.23
-42.44
-8.19
31.45
72.88
111.52
142.66
162.66
169.89
165.14
151.17
131.61
109.83
88.02
67.08
47.15
28.35
11.44
-2.06
-10.25
-11.53
-5.23
8.08
26.50
47.11
66.44
81.13
88.67
87.95
79.48
64.99
46.55
25.61
2.87
-21.24
-45.53
-67.58
-84.12
-92.27
-90.78
-80.30
-62.70
-39.89
-13.28
15.72
44.62
69.37
85.13
88.23
78.14
58.10
33.89
11.39
-5.63
-16.42
-22.54
-26.30
-29.46
-32.63
-35.64
-38.17
-40.20
-42.02
-43.90
-45.81
-47.42
-48.19
-47.80
-46.43
-44.76
-43.80
-44.40
-46.85
-50.67
-54.66
-57.32
-57.22
-53.50
-45.96
-35.08
-21.77
-7.11
7.85
22.25
35.37
46.56
55.23
60.87
63.20
62.30
58.70
53.17
46.51
39.19
31.30
22.71
13.48
4.19
-4.03
-9.84
-12.37
-11.81
-9.53
-7.74
-8.53
-13.07
-21.09
-31.03
-40.80
-48.69
-54.07
-57.59
-60.80
-65.47
-72.82
-83.17
-95.61
-108.04
-117.18
-119.03
-109.61
-86.31
-49.17
-1.62
49.90
97.65
134.87
157.89
166.89
165.18
157.27
146.85
135.75
124.18
111.96
99.73
89.32
83.15
82.94
88.72
98.43
108.60
115.63
117.08
112.45
102.99
90.84
77.92
65.12
52.15
38.27
22.88
6.09
-11.43
-28.85
-45.69
-61.82
-77.34
-92.11
-105.68
-117.41
-126.80
-133.67
-138.20
-140.63
-141.16
-139.99
-137.54
-134.54
-131.93
-130.51
-130.52
-131.58
-132.81
-133.30
-132.62
-131.02
-129.32
-128.51
-129.10
-130.50
-131.13
-128.74
-121.24
-107.34
-86.63
-59.01
-24.05
19.18
71.31
131.24
195.05
255.99
306.03
338.12
348.34
336.90
307.56
266.17
219.01
171.65
128.35
91.80
63.20
42.36
28.08
18.73
12.61
7.97
2.79
-4.91
-16.09
-29.32
-40.80
-45.91
-42.00
-30.62
-17.24
-8.48
-8.21
-15.17
-23.81
-27.90
-24.40
-15.17
-5.56
-0.82
-3.19
-11.07
-20.74
-29.02
-35.11
-40.43
-47.19
-56.89
-69.46
-83.47
-96.90
-107.98
-115.67
-119.56
-119.63
-115.93
-108.34
-96.65
-80.81
-61.32
-39.52
-17.52
2.26
17.65
27.39
31.37
30.56
26.47
20.57
13.91
6.95
-0.17
-7.37
-14.37
-20.70
-25.85
-29.50
-31.77
-33.08
-34.05
-35.17
-36.78
-38.94
-41.62
-44.78
-48.47
-52.86
-58.20
-64.80
-72.74
-81.82
-91.24
-99.61
-105.08
-105.80
-100.43
-88.56
-70.81
-48.64
-24.06
0.80
23.93
43.66
58.87
69.17
74.94
77.18
77.17
76.16
75.24
75.30
77.12
81.18
87.49
95.31
103.32
110.06
114.64
117.13
118.52
120.04
122.36
124.95
126.11
123.61
115.51
101.04
80.83
56.96
32.49
10.90
-4.48
-11.06
-7.47
6.08
27.70
54.05
80.98
104.39
121.08
129.34
129.04
121.29
107.71
89.85
68.82
45.33
20.10
-5.88
-31.05
-53.47
-71.15
-82.44
-86.39
-82.88
-72.66
-57.23
-38.68
-19.33
-1.41
13.29
23.59
28.95
29.33
24.96
16.20
3.53
-12.31
-30.18
-48.46
-65.10
-77.94
-85.06
-85.27
-78.35
-65.20
-47.68
-28.16
-9.15
7.29
19.74
27.57
30.85
30.16
26.38
20.47
13.37
5.85
-1.36
-7.71
-12.70
-16.03
-17.59
-17.49
-15.98
-13.30
-9.61
-4.95
0.63
6.97
13.69
20.31
26.37
31.66
36.34
40.75
45.24
49.89
54.38
57.90
59.38
57.58
51.32
39.73
22.50
0.28
-25.14
-50.82
-73.14
-88.61
-94.76
-90.93
-78.36
-59.79
-38.53
-17.52
1.30
17.11
29.79
39.45
46.11
49.62
50.02
47.72
43.57
38.58
33.55
28.78
24.14
19.37
14.55
10.35
7.94
8.50
12.68
20.14
29.46
38.58
45.33
48.10
46.29
40.45
32.00
22.74
14.24
7.30
1.75
-3.49
-9.93
-18.87
-30.73
-44.71
-58.77
-70.24
-76.58
-76.20
-68.95
-56.07
-39.66
-22.03
-5.00
10.30
23.36
33.96
41.89
46.93
49.01
48.46
46.02
42.66
39.23
36.11
33.21
30.20
26.91
23.60
20.94
19.68
20.27
22.56
25.80
28.95
30.99
31.15
29.09
24.91
19.18
12.89
7.19
3.05
0.82
0.03
-0.52
-2.13
-5.61
-10.81
-16.78
-22.16
-25.90
-27.52
-27.09
-24.91
-21.14
-15.78
-8.84
-0.61
8.14
16.38
23.02
27.33
29.12
28.73
26.83
24.16
21.27
18.42
15.64
12.91
10.30
8.15
6.96
7.22
9.09
12.30
16.11
19.56
21.75
22.11
20.48
17.08
12.30
6.51
-0.08
-7.49
-15.82
-25.19
-35.53
-46.60
-57.99
-69.23
-79.70
-88.59
-94.86
-97.29
-94.79
-86.80
-73.67
-56.73
-38.03
-19.79
-3.75
9.15
18.84
25.89
31.08
35.14
38.49
41.33
43.62
45.26
46.13
46.17
45.38
43.92
42.04
40.05
38.19
36.55
34.98
33.26
31.16
28.65
25.89
23.18
20.74
18.59
16.50
14.03
10.73
6.24
0.46
-6.42
-13.91
-21.33
-27.98
-33.24
-36.71
-38.21
-37.65
-34.95
-29.98
-22.66
-13.11
-1.80
10.43
22.37
32.68
40.06
43.46
42.39
37.09
28.65
18.79
9.48
2.31
-1.92
-3.37
-2.87
-1.50
-0.21
0.26
-0.69
-3.66
-9.19
-17.66
-29.01
-42.74
-57.91
-73.43
-88.20
-101.25
-111.94
-120.04
-125.77
-129.69
-132.34
-133.77
-133.39
-130.05
-122.57
-110.38
-93.84
-74.19
-52.95
-31.42
-10.33
10.06
29.56
47.77
64.02
77.64
88.26
96.01
101.39
104.92
106.71
106.27
102.66
95.03
83.15
67.72
50.32
32.91
17.17
4.03
-6.46
-14.87
-22.02
-28.61
-35.07
-41.64
-48.49
-55.90
-64.12
-73.21
-82.77
-91.83
-98.93
-102.52
-101.32
-94.78
-83.27
-68.03
-50.87
-33.71
-18.20
-5.49
3.87
9.84
12.79
13.30
11.94
9.19
5.29
0.41
-5.21
-10.95
-15.81
-18.43
-17.43
-11.74
-0.91
14.68
33.82
54.61
74.61
91.29
102.32
106.07
101.90
90.39
73.17
52.54
30.97
10.53
-7.47
-22.55
-34.90
-44.98
-53.09
-59.10
-62.46
-62.60
-59.31
-52.98
-44.61
-35.46
-26.64
-18.91
-12.57
-7.61
-3.82
-0.82
1.91
4.87
8.31
12.00
15.14
16.59
15.38
11.17
4.51
-3.35
-10.91
-16.90
-20.69
-22.32
-22.45
-22.09
-22.27
-23.79
-26.88
-31.06
-35.22
-37.88
-37.77
-34.34
-27.92
-19.73
-11.42
-4.62
-0.48
0.59
-1.06
-4.42
-8.06
-10.51
-10.60
-7.81
-2.40
4.58
11.66
17.33
20.50
20.77
18.40
14.15
8.98
3.81
-0.72
-4.32
-7.01
-9.07
-10.85
-12.67
-14.73
-17.10
-19.72
-22.48
-25.35
-28.37
-31.69
-35.44
-39.62
-43.93
-47.74
-50.04
-49.62
-45.28
-36.25
-22.56
-5.32
13.33
30.73
44.43
52.96
56.35
56.03
54.37
53.80
55.99
61.41
69.22
77.70
84.71
88.27
86.92
80.04
67.89
51.63
33.13
14.65
-1.56
-13.80
-21.21
-24.01
-23.37
-21.05
-18.97
-18.71
-21.27
-26.96
-35.47
-46.14
-58.12
-70.54
-82.62
-93.66
-103.02
-110.10
-114.30
-115.06
-111.90
-104.49
-92.72
-76.80
-57.31
-35.21
-11.76
11.64
33.55
52.62
67.44
76.46
78.09
71.04
55.08
31.53
3.53
-24.37
-47.13
-60.15
-59.92
-44.33
-12.74
33.74
91.72
155.15
215.67
264.02
292.33
296.24
276.08
236.39
184.17
126.57
69.23
15.60
-32.64
-74.67
-109.62
-136.19
-152.76
-157.91
-150.96
-132.58
-105.09
-72.28
-38.86
-9.51
12.22
24.65
28.28
25.33
18.86
11.75
5.88
1.87
-0.69
-2.75
-5.20
-8.60
-13.12
-18.66
-25.00
-31.73
-38.09
-42.96
-45.00
-43.20
-37.46
-28.98
-19.99
-13.03
-9.87
-10.73
-14.11
-17.43
-18.11
-14.69
-7.38
1.94
10.54
15.74
15.86
10.75
1.84
-8.35
-16.94
-21.54
-20.86
-15.01
-5.28
6.31
17.58
26.84
33.07
36.13
36.55
35.27
33.34
31.61
30.61
30.42
30.73
30.96
30.38
28.34
24.43
18.70
11.67
4.29
-2.44
-7.73
-11.36
-13.64
-15.30
-17.16
-19.82
-23.46
-27.79
-32.17
-35.90
-38.45
-39.68
-40.01
-40.22
-41.19
-43.53
-47.23
-51.60
-55.40
-57.26
-56.02
-51.01
-42.22
-30.21
-16.03
-0.99
13.44
25.91
35.30
40.93
42.72
41.13
37.08
31.60
25.53
19.28
12.82
5.83
-2.03
-10.87
-20.48
-30.35
-39.84
-48.22
-54.81
-59.07
-60.66
-59.66
-56.50
-51.74
-45.60
-37.63
-26.73
-11.86
6.99
28.21
48.62
64.60
73.46
74.56
69.44
61.02
52.31
45.35
40.94
38.90
38.73
40.01
42.40
45.43
48.30
50.15
50.38
49.02
46.82
44.91
44.23
45.07
46.91
48.55
48.71
46.42
41.31
33.57
23.79
12.72
1.24
-9.65
-18.71
-24.50
-25.58
-20.87
-10.06
5.98
25.09
44.16
59.83
69.51
72.13
68.42
60.40
50.49
40.41
30.84
21.51
11.89
1.84
-8.30
-17.94
-26.60
-34.01
-39.84
-43.40
-43.68
-39.74
-31.33
-19.28
-5.42
7.99
18.94
26.14
29.12
28.12
23.68
16.40
6.73
-5.06
-18.72
-33.65
-48.63
-61.73
-70.79
-74.13
-71.33
-63.45
-52.66
-41.37
-31.45
-23.86
-18.76
-15.95
-15.20
-16.35
-19.19
-23.32
-28.18
-33.16
-37.64
-41.04
-42.75
-42.12
-38.54
-31.66
-21.60
-8.99
5.10
19.44
32.92
44.71
54.35
61.73
67.00
70.40
72.13
72.09
69.94
65.14
57.26
46.31
32.92
18.30
3.95
-8.81
-19.20
-27.04
-32.64
-36.57
-39.37
-41.55
-43.54
-45.83
-48.79
-52.62
-57.09
-61.58
-65.19
-67.08
-66.74
-64.11
-59.50
-53.34
-46.03
-37.91
-29.34
-20.88
-13.24
-7.13
-3.00
-0.86
-0.27
-0.56
-1.04
-1.26
-1.04
-0.44
0.40
1.26
1.98
2.24
1.58
-0.58
-4.60
-10.45
-17.67
-25.43
-32.73
-38.47
-41.78
-42.10
-39.31
-33.68
-25.90
-17.09
-8.67
-2.10
1.75
2.62
0.89
-2.59
-6.64
-10.04
-11.87
-11.50
-8.80
-3.17
5.61
16.98
29.57
41.63
51.56
58.00
60.31
58.10
52.90
46.31
39.18
31.44
22.90
14.01
5.30
-2.04
-7.46
-8.40
-3.03
8.77
25.30
44.51
65.36
87.30
111.19
137.25
168.16
205.27
247.30
290.60
331.19
366.81
396.05
419.26
414.43
367.58
281.42
176.51
77.59
0.16
-46.83
-72.67
-86.30
-94.79
-99.40
-99.88
-97.66
-95.59
-96.94
-102.89
-111.79
-117.17
-111.59
-87.18
-41.54
19.86
85.04
140.52
176.74
190.13
184.04
164.43
138.50
111.37
85.31
60.79
38.04
17.74
0.35
-13.83
-25.89
-37.02
-48.20
-59.78
-71.33
-82.10
-92.06
-101.73
-111.63
-122.50
-134.85
-148.98
-164.98
-182.08
-198.45
-212.72
-222.80
-226.92
-225.48
-222.07
-222.64
-233.29
-256.95
-292.00
-335.06
-379.46
-417.61
-443.31
-453.68
-449.27
-433.57
-410.59
-383.95
-359.14
-338.47
-320.85
-302.92
-281.53
-254.95
-223.83
