x	y	z	ts
-1,099568	-2,464310	1,212419	2020-11-19T14:39:52:958
0,025785	-0,317149	-0,262015	2020-11-19T14:39:52:958
0,096814	-0,414462	-0,283570	2020-11-19T14:39:52:958
0,100808	-0,104143	-0,202257	2020-11-19T14:39:52:959
0,035205	-0,085707	-0,171958	2020-11-19T14:39:52:959
0,005684	-0,094799	-0,172317	2020-11-19T14:39:52:960
-0,283121	-0,068700	-0,270569	2020-11-19T14:39:52:961
-0,393327	-0,245914	-0,362679	2020-11-19T14:39:52:961
0,037381	0,163259	-0,719209	2020-11-19T14:39:52:965
0,095258	-0,079461	-0,882762	2020-11-19T14:39:52:986
0,384847	-0,300314	-1,109135	2020-11-19T14:39:53:005
0,710907	-0,138366	-1,030730	2020-11-19T14:39:53:026
0,587379	0,288467	-1,068740	2020-11-19T14:39:53:044
0,086631	0,463797	-1,333672	2020-11-19T14:39:53:067
-0,448859	0,543881	-1,255545	2020-11-19T14:39:53:085
-1,261120	-0,240179	-1,111197	2020-11-19T14:39:53:106
-2,032352	-1,304398	-1,549973	2020-11-19T14:39:53:124
-2,327188	-1,427191	-2,573212	2020-11-19T14:39:53:146
-2,583102	-1,587639	-4,071813	2020-11-19T14:39:53:164
-2,629047	-1,979569	-5,811063	2020-11-19T14:39:53:186
0,332385	-5,900793	-5,108030	2020-11-19T14:39:53:204
0,790805	-7,144821	-5,876364	2020-11-19T14:39:53:226
1,128636	-8,083189	-6,478251	2020-11-19T14:39:53:244
1,030776	-8,243897	-6,640122	2020-11-19T14:39:53:276
0,796912	-9,223812	-6,441401	2020-11-19T14:39:53:285
0,355141	-10,627992	-6,856284	2020-11-19T14:39:53:306
-0,501200	-10,656190	-8,299939	2020-11-19T14:39:53:324
-2,088448	-9,476280	-11,366571	2020-11-19T14:39:53:348
-3,545352	-8,592113	-16,271141	2020-11-19T14:39:53:384
-5,031093	-4,050752	-21,045929	2020-11-19T14:39:53:390
-3,796396	-8,889040	-22,050915	2020-11-19T14:39:53:414
-3,389369	-8,281477	-16,514494	2020-11-19T14:39:53:481
-3,180258	-7,044220	-10,006538	2020-11-19T14:39:53:481
-3,254267	-3,273468	-8,273760	2020-11-19T14:39:53:482
-3,829476	-0,208236	-8,799628	2020-11-19T14:39:53:485
-4,359517	-0,552363	-9,481880	2020-11-19T14:39:53:506
-6,132597	-1,038106	-9,445989	2020-11-19T14:39:53:524
-6,894420	-1,957166	-9,316450	2020-11-19T14:39:53:546
-7,090193	-1,759826	-8,409167	2020-11-19T14:39:53:565
-7,913748	-16,308262	-7,838423	2020-11-19T14:39:53:586
-7,169344	-14,960955	-7,556098	2020-11-19T14:39:53:605
-7,305594	-15,595167	-6,154664	2020-11-19T14:39:53:626
-7,849656	-14,737968	-5,516414	2020-11-19T14:39:53:644
-7,641569	-15,111719	-4,891582	2020-11-19T14:39:53:669
-7,692187	-13,921677	-4,809334	2020-11-19T14:39:53:687
-6,806842	-14,014997	-4,438447	2020-11-19T14:39:53:706
-6,363998	-14,639208	-3,793512	2020-11-19T14:39:53:725
-6,028563	-14,969544	-3,521973	2020-11-19T14:39:53:746
-5,763971	-15,274059	-3,151372	2020-11-19T14:39:53:766
-5,509806	-14,032911	-2,795970	2020-11-19T14:39:53:786
-5,103436	-13,539026	-2,364235	2020-11-19T14:39:53:805
-4,811107	-14,196426	-1,418478	2020-11-19T14:39:53:827
-4,532738	-14,358027	-0,797527	2020-11-19T14:39:53:845
-3,841444	3,651770	-1,157100	2020-11-19T14:39:53:866
-4,392485	4,176003	-1,540098	2020-11-19T14:39:53:885
-4,992989	4,148828	-1,846442	2020-11-19T14:39:53:907
-5,166976	4,096661	-2,065856	2020-11-19T14:39:53:932
-5,581339	3,671201	-2,850432	2020-11-19T14:39:53:955
-5,772765	3,874591	-2,414939	2020-11-19T14:39:53:968
-6,296109	3,682013	-3,176630	2020-11-19T14:39:53:990
-7,023944	3,825763	-4,054619	2020-11-19T14:39:54:009
-7,382669	3,275454	-4,919877	2020-11-19T14:39:54:030
-7,456746	2,605978	-5,777556	2020-11-19T14:39:54:045
-7,028825	2,270288	-6,122602	2020-11-19T14:39:54:067
-6,259169	1,798444	-6,743410	2020-11-19T14:39:54:086
-5,449912	1,559135	-7,081047	2020-11-19T14:39:54:107
-4,481937	1,004715	-7,348665	2020-11-19T14:39:54:127
-3,810475	0,441313	-6,995879	2020-11-19T14:39:54:149
-3,406765	0,725107	-6,725895	2020-11-19T14:39:54:167
-2,973067	0,855981	-6,425976	2020-11-19T14:39:54:189
-3,031383	0,465544	-6,135696	2020-11-19T14:39:54:207
-2,527468	-0,298371	-6,394732	2020-11-19T14:39:54:229
-2,003726	-0,334065	-6,837991	2020-11-19T14:39:54:247
-2,041519	-0,318743	-6,509829	2020-11-19T14:39:54:270
-1,947302	-0,543592	-6,042973	2020-11-19T14:39:54:287
-2,224118	-0,533800	-5,920756	2020-11-19T14:39:54:310
-2,536749	-0,941802	-5,642516	2020-11-19T14:39:54:329
-2,645377	-1,275449	-5,359031	2020-11-19T14:39:54:349
-2,808158	-1,727413	-5,393620	2020-11-19T14:39:54:367
-2,956396	-2,556366	-5,414735	2020-11-19T14:39:54:389
-2,967193	-2,963442	-5,211402	2020-11-19T14:39:54:407
-2,486200	-3,166868	-4,970418	2020-11-19T14:39:54:430
-1,763567	-2,839051	-4,946489	2020-11-19T14:39:54:448
-0,908657	-2,715623	-4,891619	2020-11-19T14:39:54:470
0,102652	-1,997677	-4,524663	2020-11-19T14:39:54:487
0,609936	-1,203914	-4,423799	2020-11-19T14:39:54:510
0,195072	-2,297192	-4,495410	2020-11-19T14:39:54:527
-0,730118	-2,950519	-4,345694	2020-11-19T14:39:54:550
-1,578613	-2,821801	-4,460631	2020-11-19T14:39:54:569
-2,326098	-2,783700	-4,721146	2020-11-19T14:39:54:590
-2,993268	-2,599112	-4,221557	2020-11-19T14:39:54:607
-3,055161	-1,992314	-4,387672	2020-11-19T14:39:54:634
-2,558592	-1,486654	-4,597246	2020-11-19T14:39:54:659
-2,127050	-1,126265	-4,407903	2020-11-19T14:39:54:679
-1,380490	-1,013802	-4,238013	2020-11-19T14:39:54:692
-1,060785	-0,508585	-3,792037	2020-11-19T14:39:54:709
-1,259390	-0,661726	-3,526433	2020-11-19T14:39:54:728
-1,471463	-0,090081	-3,405626	2020-11-19T14:39:54:750
-1,324611	0,694110	-3,468827	2020-11-19T14:39:54:768
-0,838239	1,204021	-3,141373	2020-11-19T14:39:54:790
-0,476217	1,474219	-2,818823	2020-11-19T14:39:54:808
-0,286747	1,720440	-2,603326	2020-11-19T14:39:54:830
-0,460632	1,918420	-2,251760	2020-11-19T14:39:54:847
-0,755530	2,082355	-2,215128	2020-11-19T14:39:54:870
-0,844047	2,343147	-2,231696	2020-11-19T14:39:54:887
-0,647822	2,334564	-2,069407	2020-11-19T14:39:54:910
-0,472782	2,428555	-1,813341	2020-11-19T14:39:54:928
-0,421875	2,673219	-1,756649	2020-11-19T14:39:54:950
-0,238898	2,824350	-1,922784	2020-11-19T14:39:54:968
-0,316403	2,700922	-1,907186	2020-11-19T14:39:54:990
-0,336212	2,421747	-1,792436	2020-11-19T14:39:55:008
-0,527830	2,386304	-1,582148	2020-11-19T14:39:55:031
-0,557607	2,334679	-1,348474	2020-11-19T14:39:55:049
-0,858928	2,233439	-1,095240	2020-11-19T14:39:55:077
-1,570238	2,300173	-1,267558	2020-11-19T14:39:55:088
-2,688768	2,241579	-1,499798	2020-11-19T14:39:55:113
-3,220747	2,062002	-1,844961	2020-11-19T14:39:55:128
-3,771113	1,966656	-1,916759	2020-11-19T14:39:55:150
-3,785746	1,642935	-1,819101	2020-11-19T14:39:55:169
-2,144422	1,443926	-1,557051	2020-11-19T14:39:55:190
-0,251147	1,950984	-1,374189	2020-11-19T14:39:55:208
0,624673	2,761615	-1,277833	2020-11-19T14:39:55:231
0,363855	3,926919	-1,057693	2020-11-19T14:39:55:248
0,038838	2,763453	-0,615811	2020-11-19T14:39:55:271
-0,684932	0,746799	-0,574903	2020-11-19T14:39:55:289
-0,905220	-0,016390	-1,193936	2020-11-19T14:39:55:310
-0,976805	0,316019	-2,005648	2020-11-19T14:39:55:328
-1,137432	0,119727	-1,941484	2020-11-19T14:39:55:351
-0,985729	-0,135725	-1,271766	2020-11-19T14:39:55:368
-0,569153	0,052697	-0,576608	2020-11-19T14:39:55:391
-0,241336	-0,239227	-0,255969	2020-11-19T14:39:55:408
0,119481	-0,761159	-0,189399	2020-11-19T14:39:55:431
0,237800	-0,767005	-0,414573	2020-11-19T14:39:55:449
0,259354	-1,094259	-0,502841	2020-11-19T14:39:55:471
0,117700	-1,216368	-0,359163	2020-11-19T14:39:55:489
-0,048709	-1,172764	-0,224061	2020-11-19T14:39:55:511
-0,197112	-0,817820	-0,087628	2020-11-19T14:39:55:529
-0,247453	-0,658581	0,078107	2020-11-19T14:39:55:551
-0,357784	-0,744132	0,301802	2020-11-19T14:39:55:569
-0,252756	-0,897009	0,419467	2020-11-19T14:39:55:591
0,081669	-1,032721	0,625759	2020-11-19T14:39:55:608
0,354314	-1,201426	0,939233	2020-11-19T14:39:55:631
0,359189	-1,512746	1,260637	2020-11-19T14:39:55:648
0,482141	-1,770792	1,521372	2020-11-19T14:39:55:671
0,361952	-1,857611	1,465743	2020-11-19T14:39:55:688
0,001169	-1,852904	1,384863	2020-11-19T14:39:55:711
-0,103233	-1,740151	1,189891	2020-11-19T14:39:55:728
-0,112978	-1,762598	1,114968	2020-11-19T14:39:55:751
-0,812102	-1,966454	1,087129	2020-11-19T14:39:55:770
-1,725550	-2,199729	1,030876	2020-11-19T14:39:55:791
-2,617039	-2,327796	1,058814	2020-11-19T14:39:55:809
-2,899969	-2,547282	0,839194	2020-11-19T14:39:55:832
-3,153607	-2,377391	0,236202	2020-11-19T14:39:55:849
-3,455259	-2,307829	-0,213289	2020-11-19T14:39:55:872
-2,796534	-2,146804	-0,679064	2020-11-19T14:39:55:888
-1,398473	-1,461726	-1,277719	2020-11-19T14:39:55:911
-0,294137	-0,786059	-1,666779	2020-11-19T14:39:55:929
-0,293033	-0,275728	-1,648194	2020-11-19T14:39:55:952
-1,409288	0,510546	-0,658236	2020-11-19T14:39:55:969
-1,454137	-0,492011	-1,530054	2020-11-19T14:39:55:992
-1,599813	0,333546	-1,525453	2020-11-19T14:39:56:010
-1,745928	1,167967	-1,793898	2020-11-19T14:39:56:031
-1,607630	-0,223856	-2,090003	2020-11-19T14:39:56:048
-0,983793	0,180066	-2,564530	2020-11-19T14:39:56:073
-0,684781	1,178718	-2,375413	2020-11-19T14:39:56:109
-0,498363	1,329152	-1,919614	2020-11-19T14:39:56:111
-0,345113	1,269866	-1,903732	2020-11-19T14:39:56:130
-0,404552	1,379735	-1,964406	2020-11-19T14:39:56:168
-0,466491	1,754174	-2,013894	2020-11-19T14:39:56:170
-0,528493	2,159365	-1,668384	2020-11-19T14:39:56:193
-0,360995	2,444111	-1,510458	2020-11-19T14:39:56:208
-0,171451	2,547374	-1,703242	2020-11-19T14:39:56:231
0,175865	2,417517	-1,587023	2020-11-19T14:39:56:251
0,372395	2,373891	-1,144998	2020-11-19T14:39:56:272
0,354657	2,405473	-0,387668	2020-11-19T14:39:56:289
0,312593	2,530221	0,012443	2020-11-19T14:39:56:312
0,372800	2,828918	-0,466206	2020-11-19T14:39:56:329
0,467697	2,967025	-0,840129	2020-11-19T14:39:56:352
0,187538	2,557898	-0,864439	2020-11-19T14:39:56:370
-0,226717	2,234404	-0,544066	2020-11-19T14:39:56:392
-0,584928	2,284200	-0,259965	2020-11-19T14:39:56:409
-1,111754	2,421329	-0,272230	2020-11-19T14:39:56:432
-2,068192	2,262822	-0,235850	2020-11-19T14:39:56:450
-2,876216	1,977961	-0,245360	2020-11-19T14:39:56:473
-3,014285	1,874755	-0,276689	2020-11-19T14:39:56:491
-2,934879	1,714119	-0,377707	2020-11-19T14:39:56:512
-2,733021	1,127421	-0,114564	2020-11-19T14:39:56:529
-1,514067	0,664812	0,093906	2020-11-19T14:39:56:553
-0,135816	0,487122	0,343263	2020-11-19T14:39:56:570
0,480101	0,232814	0,457217	2020-11-19T14:39:56:592
0,658242	-0,013449	0,389107	2020-11-19T14:39:56:609
0,565261	0,037558	0,356563	2020-11-19T14:39:56:633
0,213515	0,030195	0,455986	2020-11-19T14:39:56:650
-0,223560	-0,143437	0,519558	2020-11-19T14:39:56:673
-0,418501	-0,653878	0,420132	2020-11-19T14:39:56:690
-0,365810	-1,085261	0,335915	2020-11-19T14:39:56:713
-1,075657	1,467240	-0,102175	2020-11-19T14:39:56:730
-0,418252	1,366865	-0,208833	2020-11-19T14:39:56:752
0,070565	0,928035	0,303301	2020-11-19T14:39:56:770
0,365920	0,150608	0,186581	2020-11-19T14:39:56:793
0,299378	0,161670	0,302353	2020-11-19T14:39:56:810
0,138355	0,073936	0,339445	2020-11-19T14:39:56:833
0,153206	-0,028915	0,635279	2020-11-19T14:39:56:850
0,220751	0,023117	0,868287	2020-11-19T14:39:56:873
-0,021434	0,297996	0,922392	2020-11-19T14:39:56:890
-0,302091	0,544709	1,118736	2020-11-19T14:39:56:913
-0,510942	0,650444	1,233060	2020-11-19T14:39:56:930
-0,607604	0,523859	1,494998	2020-11-19T14:39:56:953
-0,762836	0,333598	1,743810	2020-11-19T14:39:56:971
-0,707318	0,223079	1,714210	2020-11-19T14:39:56:992
-0,363552	0,114289	1,819098	2020-11-19T14:39:57:010
-0,148032	0,073226	1,654638	2020-11-19T14:39:57:033
-0,416871	-0,269744	1,669654	2020-11-19T14:39:57:050
-0,712285	-0,357550	1,695009	2020-11-19T14:39:57:075
-0,751903	-0,309583	1,574262	2020-11-19T14:39:57:095
-0,906885	-0,422274	1,468226	2020-11-19T14:39:57:113
-1,632306	-0,212744	1,388644	2020-11-19T14:39:57:130
-2,393579	-0,174912	1,502485	2020-11-19T14:39:57:153
-2,816847	-0,357958	1,441698	2020-11-19T14:39:57:170
-2,581577	-2,793050	1,520497	2020-11-19T14:39:57:193
-2,746934	-2,703258	1,167807	2020-11-19T14:39:57:211
-0,948682	-2,369227	0,584791	2020-11-19T14:39:57:232
-0,007429	-1,902333	0,179814	2020-11-19T14:39:57:250
-0,273356	-1,676085	0,284818	2020-11-19T14:39:57:274
-0,851319	-1,637599	0,509382	2020-11-19T14:39:57:290
-1,366551	-1,674638	0,266251	2020-11-19T14:39:57:313
-2,106406	-1,560990	-0,231633	2020-11-19T14:39:57:330
-3,045845	-1,424344	-0,909465	2020-11-19T14:39:57:353
-3,316397	-0,998090	-1,555698	2020-11-19T14:39:57:371
-2,808611	-0,275525	-1,972911	2020-11-19T14:39:57:393
-1,878547	0,266229	-2,166405	2020-11-19T14:39:57:410
-1,003559	0,912303	-2,197376	2020-11-19T14:39:57:433
-0,390573	1,368017	-2,054735	2020-11-19T14:39:57:451
0,005406	1,441909	-2,087975	2020-11-19T14:39:57:474
-0,056534	1,418028	-2,301362	2020-11-19T14:39:57:490
-0,341075	1,508804	-2,409390	2020-11-19T14:39:57:513
-0,687909	1,879626	-2,565961	2020-11-19T14:39:57:530
-0,682303	2,101492	-2,658850	2020-11-19T14:39:57:554
-0,251498	2,322447	-2,322044	2020-11-19T14:39:57:571
0,042271	2,721936	-1,679044	2020-11-19T14:39:57:594
0,042271	2,788935	-1,470869	2020-11-19T14:39:57:610
0,183512	2,943405	-1,648965	2020-11-19T14:39:57:634
0,515413	2,837540	-1,726714	2020-11-19T14:39:57:650
0,620725	2,502514	-1,629644	2020-11-19T14:39:57:674
0,690254	2,161904	-1,422616	2020-11-19T14:39:57:692
0,983941	1,836615	-0,764014	2020-11-19T14:39:57:714
1,184915	1,594255	-0,365109	2020-11-19T14:39:57:731
0,761689	1,638721	-0,290771	2020-11-19T14:39:57:754
-0,369572	1,475398	-0,124449	2020-11-19T14:39:57:771
-1,684709	1,255236	0,195547	2020-11-19T14:39:57:794
-2,294496	0,985101	0,460145	2020-11-19T14:39:57:810
-2,198607	0,887731	0,376502	2020-11-19T14:39:57:834
-2,496005	0,909721	0,913556	2020-11-19T14:39:57:851
-1,253425	0,489518	1,225182	2020-11-19T14:39:57:875
0,377000	0,248523	1,705302	2020-11-19T14:39:57:891
1,022719	0,178335	1,937630	2020-11-19T14:39:57:914
-3,142401	4,333778	1,339544	2020-11-19T14:39:57:932
-3,615310	4,284389	1,233196	2020-11-19T14:39:57:954
-3,829720	4,410480	0,473698	2020-11-19T14:39:57:971
-3,778884	4,564810	-0,241275	2020-11-19T14:39:57:994
-3,569925	4,580231	-0,691592	2020-11-19T14:39:58:011
-3,308253	3,996109	-0,608503	2020-11-19T14:39:58:035
-2,952186	3,670515	-0,976648	2020-11-19T14:39:58:050
-3,000625	3,415910	-1,399281	2020-11-19T14:39:58:075
-2,793596	3,274412	-1,557951	2020-11-19T14:39:58:091
-2,240822	3,050276	-1,656705	2020-11-19T14:39:58:116
-2,068539	2,595640	-1,697383	2020-11-19T14:39:58:131
-2,399545	2,524048	-1,993564	2020-11-19T14:39:58:154
-2,867256	2,760375	-2,595535	2020-11-19T14:39:58:172
-3,565306	3,149567	-2,553993	2020-11-19T14:39:58:195
-3,534654	2,265649	-2,894495	2020-11-19T14:39:58:211
-3,218361	2,561364	-3,316926	2020-11-19T14:39:58:234
-3,806950	3,097887	-3,329383	2020-11-19T14:39:58:251
-3,833726	2,775712	-4,360264	2020-11-19T14:39:58:276
-3,620765	3,531844	-4,561262	2020-11-19T14:39:58:291
-3,537751	3,829559	-4,373347	2020-11-19T14:39:58:314
-3,568105	3,536467	-5,061784	2020-11-19T14:39:58:331
-3,434948	3,618292	-5,976731	2020-11-19T14:39:58:355
-3,132794	4,172869	-7,002861	2020-11-19T14:39:58:371
-2,935139	4,590384	-7,669936	2020-11-19T14:39:58:395
-2,289373	5,176979	-7,700827	2020-11-19T14:39:58:413
-1,763368	4,184335	-8,097254	2020-11-19T14:39:58:435
-1,782288	3,779525	-8,869638	2020-11-19T14:39:58:453
-2,053795	3,302854	-10,319168	2020-11-19T14:39:58:475
-2,271204	2,331785	-10,930368	2020-11-19T14:39:58:491
-2,408083	2,180174	-10,904388	2020-11-19T14:39:58:515
-2,763689	1,847669	-11,369887	2020-11-19T14:39:58:531
-4,553490	0,871522	-11,482670	2020-11-19T14:39:58:555
-7,278635	-1,053894	-11,099812	2020-11-19T14:39:58:572
-10,387760	-3,158001	-10,423539	2020-11-19T14:39:58:596
-12,680085	-4,263485	-9,040487	2020-11-19T14:39:58:611
-14,311270	-3,609284	-9,565433	2020-11-19T14:39:58:635
-14,338818	-1,161189	-11,125093	2020-11-19T14:39:58:652
-13,971524	-0,354126	-11,451303	2020-11-19T14:39:58:676
-13,472669	-0,759674	-10,609159	2020-11-19T14:39:58:691
-12,579985	-0,586287	-9,560239	2020-11-19T14:39:58:723
-11,769652	-0,454329	-8,752454	2020-11-19T14:39:58:732
-10,933508	-0,067877	-8,120008	2020-11-19T14:39:58:755
-10,148878	0,694310	-7,774926	2020-11-19T14:39:58:772
-9,740736	1,329137	-7,804461	2020-11-19T14:39:58:795
-9,385918	1,797493	-7,782778	2020-11-19T14:39:58:812
-8,993896	2,519463	-7,617277	2020-11-19T14:39:58:836
-8,566938	3,319226	-7,603360	2020-11-19T14:39:58:851
-8,461436	3,971421	-7,900069	2020-11-19T14:39:58:875
-8,398645	4,239391	-8,096878	2020-11-19T14:39:58:893
-8,403694	4,169310	-8,216303	2020-11-19T14:39:58:915
-8,374251	4,197853	-8,004255	2020-11-19T14:39:58:934
-8,179340	4,216660	-7,899416	2020-11-19T14:39:58:955
-7,932552	4,391056	-7,794029	2020-11-19T14:39:58:973
-7,854401	4,431961	-7,702554	2020-11-19T14:39:58:996
-7,634698	4,385150	-7,494998	2020-11-19T14:39:59:012
-7,273527	4,310198	-7,122471	2020-11-19T14:39:59:035
-7,005997	4,147509	-6,669124	2020-11-19T14:39:59:052
-6,994626	4,131324	-6,365508	2020-11-19T14:39:59:076
-7,053034	4,160547	-6,200068	2020-11-19T14:39:59:092
-7,480097	4,201027	-5,992940	2020-11-19T14:39:59:115
-7,865451	4,482227	-5,551123	2020-11-19T14:39:59:135
-9,167147	4,446335	-5,558301	2020-11-19T14:39:59:156
-9,364879	4,322749	-5,698975	2020-11-19T14:39:59:173
-8,705158	4,497996	-5,632442	2020-11-19T14:39:59:196
-7,427709	4,305573	-4,665529	2020-11-19T14:39:59:212
-6,042037	4,002763	-3,734252	2020-11-19T14:39:59:236
-4,557480	4,011151	-3,606583	2020-11-19T14:39:59:252
-3,981390	4,434977	-3,677798	2020-11-19T14:39:59:275
-4,256783	3,495507	-3,112106	2020-11-19T14:39:59:292
-4,353355	1,927530	-2,333029	2020-11-19T14:39:59:316
-3,970071	1,188797	-1,972481	2020-11-19T14:39:59:332
-3,406761	1,492311	-1,888599	2020-11-19T14:39:59:355
-3,229643	1,413575	-1,707504	2020-11-19T14:39:59:373
-3,135013	1,041019	-1,183863	2020-11-19T14:39:59:396
-2,666277	0,576722	-0,883920	2020-11-19T14:39:59:412
-1,905313	0,255808	-0,686594	2020-11-19T14:39:59:436
-0,909676	-0,051917	-0,511717	2020-11-19T14:39:59:453
-0,178045	0,162847	-0,478656	2020-11-19T14:39:59:477
0,186396	0,423465	-0,634812	2020-11-19T14:39:59:492
0,227170	0,645092	-0,702837	2020-11-19T14:39:59:515
0,137273	0,984893	-0,480019	2020-11-19T14:39:59:532
0,242096	0,836321	-0,081597	2020-11-19T14:39:59:557
0,207666	0,147579	0,100248	2020-11-19T14:39:59:573
0,084269	-0,186225	0,279871	2020-11-19T14:39:59:596
-0,154423	0,235215	0,415091	2020-11-19T14:39:59:613
-0,249288	0,180778	0,591928	2020-11-19T14:39:59:636
-0,128697	0,130262	0,676831	2020-11-19T14:39:59:653
0,022192	0,204835	0,845178	2020-11-19T14:39:59:676
0,028342	0,426635	0,931214	2020-11-19T14:39:59:692
-0,007050	0,387296	1,077214	2020-11-19T14:39:59:718
-0,107205	0,524929	1,044336	2020-11-19T14:39:59:732
-0,144581	0,723951	0,851715	2020-11-19T14:39:59:755
-0,310074	1,046186	0,552291	2020-11-19T14:39:59:773
-1,144849	1,073548	0,484252	2020-11-19T14:39:59:797
-2,403189	1,008940	0,470027	2020-11-19T14:39:59:813
-4,060310	1,001460	0,255640	2020-11-19T14:39:59:836
-5,712568	1,170804	0,141739	2020-11-19T14:39:59:854
-6,532579	1,177646	-0,143491	2020-11-19T14:39:59:877
-6,540372	1,245644	-0,307981	2020-11-19T14:39:59:893
-4,938361	1,562599	-0,666273	2020-11-19T14:39:59:916
-3,038129	1,974620	-1,206911	2020-11-19T14:39:59:933
-2,232038	2,000801	-1,433868	2020-11-19T14:39:59:957
-2,947452	1,691951	-1,422554	2020-11-19T14:39:59:973
-2,056814	-2,259607	0,050704	2020-11-19T14:39:59:996
-2,951691	-1,772244	-0,330559	2020-11-19T14:40:00:012
-3,267978	-1,157005	-1,207327	2020-11-19T14:40:00:037
-3,429145	-0,473941	-1,921512	2020-11-19T14:40:00:052
-3,296145	0,212680	-2,305065	2020-11-19T14:40:00:076
-2,925650	0,860093	-2,570302	2020-11-19T14:40:00:093
-2,420558	1,321655	-2,840681	2020-11-19T14:40:00:117
-1,838021	1,779669	-2,939467	2020-11-19T14:40:00:133
-1,371271	1,859360	-2,696569	2020-11-19T14:40:00:156
-1,264086	1,805531	-2,626741	2020-11-19T14:40:00:173
-1,235826	1,923777	-2,830200	2020-11-19T14:40:00:197
-1,044404	2,163062	-2,799272	2020-11-19T14:40:00:213
-0,643070	2,562088	-2,711116	2020-11-19T14:40:00:237
-0,032900	2,724800	-2,639331	2020-11-19T14:40:00:253
0,429963	3,207210	-2,499704	2020-11-19T14:40:00:277
0,808873	3,441424	-2,182293	2020-11-19T14:40:00:293
1,242594	3,609728	-1,940730	2020-11-19T14:40:00:316
1,567251	3,721944	-1,644817	2020-11-19T14:40:00:333
1,477365	3,733508	-1,386780	2020-11-19T14:40:00:357
1,407113	3,846153	-0,989950	2020-11-19T14:40:00:375
1,397062	3,775849	-0,637797	2020-11-19T14:40:00:397
1,399455	3,627494	-0,530119	2020-11-19T14:40:00:413
1,262645	3,482807	-0,005960	2020-11-19T14:40:00:437
-0,025391	3,194360	0,542274	2020-11-19T14:40:00:453
-1,123278	2,997126	0,381196	2020-11-19T14:40:00:476
-2,490994	2,725160	-0,058398	2020-11-19T14:40:00:493
-3,290955	1,927461	-0,327403	2020-11-19T14:40:00:517
-4,427546	1,468040	-0,246047	2020-11-19T14:40:00:533
-4,167494	0,481916	0,422579	2020-11-19T14:40:00:556
-2,355231	-0,697861	1,392189	2020-11-19T14:40:00:576
-0,859718	-0,350901	1,736756	2020-11-19T14:40:00:596
-0,249719	-0,602921	1,778739	2020-11-19T14:40:00:613
-0,647401	-0,831047	1,323054	2020-11-19T14:40:00:636
-1,265364	-0,917403	0,777026	2020-11-19T14:40:00:653
-1,571272	-1,098191	0,549254	2020-11-19T14:40:00:679
-1,851232	-0,677055	0,307579	2020-11-19T14:40:00:693
-1,585103	-0,708014	0,062090	2020-11-19T14:40:00:717
-1,151625	-1,149540	-0,003093	2020-11-19T14:40:00:734
-0,544890	-1,462274	-0,040011	2020-11-19T14:40:00:758
0,025517	-1,812884	-0,044271	2020-11-19T14:40:00:774
0,545415	-2,169834	-0,465464	2020-11-19T14:40:00:798
0,581184	-2,781856	1,002788	2020-11-19T14:40:00:815
1,162681	-2,381510	0,533364	2020-11-19T14:40:00:838
1,442591	-2,256747	0,576355	2020-11-19T14:40:00:854
1,790396	-1,962209	0,328872	2020-11-19T14:40:00:877
1,938164	-2,086417	0,320622	2020-11-19T14:40:00:894
1,896827	-2,183948	0,545138	2020-11-19T14:40:00:918
1,707895	-2,271027	0,719331	2020-11-19T14:40:00:934
1,394233	-2,646268	0,941181	2020-11-19T14:40:00:957
1,253395	-2,787838	1,093188	2020-11-19T14:40:00:974
1,120130	-3,094465	1,274861	2020-11-19T14:40:00:998
0,856040	-3,433938	1,377513	2020-11-19T14:40:01:014
0,245587	-3,715548	1,632122	2020-11-19T14:40:01:037
-0,168246	-3,985555	1,868942	2020-11-19T14:40:01:054
-0,480594	-4,186653	1,884404	2020-11-19T14:40:01:079
-1,451662	-4,348286	1,927159	2020-11-19T14:40:01:094
-2,819047	-4,565478	2,111330	2020-11-19T14:40:01:117
-3,404923	-4,482156	2,099962	2020-11-19T14:40:01:134
-3,020958	-2,703179	1,885452	2020-11-19T14:40:01:158
-2,035576	-4,120924	2,052401	2020-11-19T14:40:01:174
-1,341453	-4,130077	2,102860	2020-11-19T14:40:01:198
-0,254459	-3,767276	1,973063	2020-11-19T14:40:01:214
0,623653	-3,153402	1,525122	2020-11-19T14:40:01:238
0,417226	-2,631830	1,263378	2020-11-19T14:40:01:254
-0,483479	-2,369967	1,316405	2020-11-19T14:40:01:278
-1,006740	-2,172976	1,304858	2020-11-19T14:40:01:295
-1,654285	-1,880767	0,938288	2020-11-19T14:40:01:317
-2,910562	-1,525986	0,250480	2020-11-19T14:40:01:334
-3,798197	-1,094295	-0,422852	2020-11-19T14:40:01:357
-3,636194	-0,277521	-1,135064	2020-11-19T14:40:01:374
-2,571310	0,352828	-1,658970	2020-11-19T14:40:01:398
-1,432007	0,795764	-1,887537	2020-11-19T14:40:01:414
-0,896500	1,189480	-1,932608	2020-11-19T14:40:01:437
-0,750554	1,326776	-1,834689	2020-11-19T14:40:01:455
-0,641659	1,436033	-2,067168	2020-11-19T14:40:01:479
-0,820782	1,277632	-2,153514	2020-11-19T14:40:01:494
-0,829382	1,450888	-2,253399	2020-11-19T14:40:01:519
-0,904728	2,044343	-2,071274	2020-11-19T14:40:01:535
-0,735249	2,727042	-1,849413	2020-11-19T14:40:01:558
-0,423340	3,299908	-1,720377	2020-11-19T14:40:01:575
-0,153547	3,797705	-1,723047	2020-11-19T14:40:01:597
0,245134	4,137153	-1,867277	2020-11-19T14:40:01:614
0,395072	3,966235	-1,791545	2020-11-19T14:40:01:638
0,336261	3,927843	-1,396106	2020-11-19T14:40:01:654
-0,062565	3,825238	-0,444180	2020-11-19T14:40:01:678
-0,445806	3,723911	-0,013093	2020-11-19T14:40:01:694
-0,384858	3,924347	-0,180710	2020-11-19T14:40:01:718
-0,333960	3,949016	-0,220869	2020-11-19T14:40:01:734
-1,006500	3,711567	-0,008014	2020-11-19T14:40:01:757
-1,485181	3,445750	0,537933	2020-11-19T14:40:01:776
-1,563162	2,766766	1,103381	2020-11-19T14:40:01:799
-2,056083	2,747623	0,988525	2020-11-19T14:40:01:815
-2,202536	2,384907	0,260584	2020-11-19T14:40:01:838
-2,629456	1,771480	-0,004008	2020-11-19T14:40:01:854
-2,396093	0,761083	0,402052	2020-11-19T14:40:01:880
-1,482687	-0,014949	0,995378	2020-11-19T14:40:01:894
-0,606980	-0,545887	1,506275	2020-11-19T14:40:01:917
-0,326370	-0,602137	1,409085	2020-11-19T14:40:01:934
-0,478184	-0,249956	0,948825	2020-11-19T14:40:01:958
-0,859493	-0,019180	0,294736	2020-11-19T14:40:01:974
-0,982132	0,184462	-0,094247	2020-11-19T14:40:01:998
-1,201343	0,109748	-0,070100	2020-11-19T14:40:02:016
-1,109677	-0,394205	0,039902	2020-11-19T14:40:02:038
-0,625866	-0,643713	0,038312	2020-11-19T14:40:02:054
-0,034792	-0,774966	-0,126491	2020-11-19T14:40:02:078
0,107950	-1,001934	-0,339421	2020-11-19T14:40:02:094
0,282227	-1,150679	-0,611013	2020-11-19T14:40:02:118
1,228971	-1,177566	-0,803824	2020-11-19T14:40:02:134
1,916815	-1,525396	-0,504862	2020-11-19T14:40:02:157
1,636529	-1,722746	0,111395	2020-11-19T14:40:02:174
0,895259	-1,564010	0,413611	2020-11-19T14:40:02:200
0,624870	-1,427619	0,238934	2020-11-19T14:40:02:214
0,733532	-1,558855	0,127249	2020-11-19T14:40:02:238
0,727420	-1,710918	0,196222	2020-11-19T14:40:02:256
0,278037	-2,394834	0,203989	2020-11-19T14:40:02:279
-1,153875	1,501999	0,153727	2020-11-19T14:40:02:294
-1,094718	2,596627	0,284230	2020-11-19T14:40:02:319
-0,965507	2,307096	0,501977	2020-11-19T14:40:02:335
-1,101459	1,526398	0,835638	2020-11-19T14:40:02:359
-1,601374	1,324736	0,838937	2020-11-19T14:40:02:375
-1,822129	1,417919	0,645793	2020-11-19T14:40:02:398
-1,532936	1,219597	0,459423	2020-11-19T14:40:02:415
-1,200394	1,171489	0,061080	2020-11-19T14:40:02:440
-2,121629	1,745767	-0,295450	2020-11-19T14:40:02:455
-2,577908	3,809369	0,065836	2020-11-19T14:40:02:478
-0,899282	4,359809	0,005485	2020-11-19T14:40:02:497
-1,117028	4,120527	-0,619042	2020-11-19T14:40:02:519
-1,141324	2,616122	-0,741346	2020-11-19T14:40:02:535
-0,454694	2,086560	-2,238858	2020-11-19T14:40:02:558
-0,480138	2,183434	-3,450794	2020-11-19T14:40:02:577
-1,252645	1,248190	-3,522091	2020-11-19T14:40:02:599
-2,077777	0,228491	-2,507901	2020-11-19T14:40:02:615
-2,109643	0,155121	-1,117566	2020-11-19T14:40:02:638
-1,352283	1,658286	-0,309117	2020-11-19T14:40:02:655
-0,724275	2,384748	0,213310	2020-11-19T14:40:02:680
-0,043581	1,998624	0,324986	2020-11-19T14:40:02:695
0,893270	1,482751	0,597331	2020-11-19T14:40:02:718
1,537108	1,563072	0,264034	2020-11-19T14:40:02:736
1,790759	1,766630	-0,538219	2020-11-19T14:40:02:759
2,030829	2,066434	-1,312538	2020-11-19T14:40:02:776
1,936365	1,510916	-1,774099	2020-11-19T14:40:02:798
1,353297	0,490612	-1,695566	2020-11-19T14:40:02:815
0,198173	-0,277851	-0,841577	2020-11-19T14:40:02:840
-1,417580	-0,176209	-0,159832	2020-11-19T14:40:02:855
-2,013067	0,541061	0,637950	2020-11-19T14:40:02:880
-1,909604	1,063831	1,405297	2020-11-19T14:40:02:895
-1,757661	0,467913	2,264458	2020-11-19T14:40:02:920
-1,414497	-0,207456	-6,344177	2020-11-19T14:40:02:935
-1,680502	-0,466899	-5,986805	2020-11-19T14:40:02:959
-0,763143	-0,604899	-5,267962	2020-11-19T14:40:02:977
0,031359	-0,699631	-4,722563	2020-11-19T14:40:02:999
-0,349754	-0,764351	-4,552593	2020-11-19T14:40:03:016
-0,105415	-0,732867	-4,341094	2020-11-19T14:40:03:039
0,715377	-0,548950	-3,974529	2020-11-19T14:40:03:055
1,561186	-0,697659	-3,456181	2020-11-19T14:40:03:080
2,258480	-0,906146	-2,831389	2020-11-19T14:40:03:096
2,525505	-0,974057	-2,246875	2020-11-19T14:40:03:119
2,819315	-0,897722	-1,868229	2020-11-19T14:40:03:135
3,496464	-0,606924	-1,988148	2020-11-19T14:40:03:160
1,434012	2,762367	-4,900273	2020-11-19T14:40:03:175
0,837721	2,743861	-4,940243	2020-11-19T14:40:03:199
-0,246380	2,761735	-4,879604	2020-11-19T14:40:03:216
-1,758862	2,665012	-4,825141	2020-11-19T14:40:03:239
-4,003462	2,287629	-4,752102	2020-11-19T14:40:03:255
-5,785251	1,631310	-4,494288	2020-11-19T14:40:03:280
-6,878771	1,277173	-4,889104	2020-11-19T14:40:03:295
-6,239893	0,579069	-4,783947	2020-11-19T14:40:03:320
-5,395028	-0,258433	-4,103891	2020-11-19T14:40:03:336
-4,100535	-1,239170	-2,768467	2020-11-19T14:40:03:359
-1,772121	-1,996165	-1,471833	2020-11-19T14:40:03:376
0,695842	-2,183134	-0,714846	2020-11-19T14:40:03:400
1,925324	-2,152509	-0,484485	2020-11-19T14:40:03:415
2,096828	-2,145987	-0,556468	2020-11-19T14:40:03:439
1,830336	-2,053215	-0,801027	2020-11-19T14:40:03:457
1,665852	-1,480024	-1,379116	2020-11-19T14:40:03:480
1,383035	-0,856858	-1,850577	2020-11-19T14:40:03:496
0,921299	-0,649078	-2,182034	2020-11-19T14:40:03:519
0,369531	-0,617376	-2,388192	2020-11-19T14:40:03:535
0,027185	-0,883247	-2,245752	2020-11-19T14:40:03:561
0,000865	-1,127315	-1,944256	2020-11-19T14:40:03:576
0,208630	-1,447461	-1,922704	2020-11-19T14:40:03:599
0,257151	-1,938479	-1,600401	2020-11-19T14:40:03:616
0,236205	-2,530352	-0,961103	2020-11-19T14:40:03:640
0,557391	-2,950161	-0,240030	2020-11-19T14:40:03:655
0,551399	-3,299913	-0,250137	2020-11-19T14:40:03:680
-0,348004	-3,432308	-0,164184	2020-11-19T14:40:03:697
-0,652308	-3,881327	0,335634	2020-11-19T14:40:03:720
-0,167347	-4,092707	0,843868	2020-11-19T14:40:03:737
0,066040	-4,098118	1,146226	2020-11-19T14:40:03:759
-0,215173	-4,283855	1,351979	2020-11-19T14:40:03:776
-0,856489	-4,238805	1,585797	2020-11-19T14:40:03:800
-1,628535	-4,617292	2,162844	2020-11-19T14:40:03:816
-2,144353	-4,725070	2,373847	2020-11-19T14:40:03:839
-2,367010	-4,346227	2,187279	2020-11-19T14:40:03:856
-2,463161	-3,579288	1,861984	2020-11-19T14:40:03:881
-1,980338	-3,049406	1,605739	2020-11-19T14:40:03:896
-2,357255	-3,548439	1,081136	2020-11-19T14:40:03:919
-2,917853	-3,789294	0,973401	2020-11-19T14:40:03:937
-2,238183	-2,520706	-0,018005	2020-11-19T14:40:03:960
-1,666938	-0,590286	-1,827160	2020-11-19T14:40:03:976
-2,968094	0,835330	-3,382652	2020-11-19T14:40:04:000
-3,693120	0,663047	-3,131406	2020-11-19T14:40:04:016
-4,978719	1,657581	-4,104231	2020-11-19T14:40:04:040
-6,276025	2,344724	-5,177157	2020-11-19T14:40:04:056
-7,103637	2,379077	-5,893089	2020-11-19T14:40:04:082
-7,861866	2,872725	-6,691022	2020-11-19T14:40:04:096
-9,243211	3,351324	-7,610797	2020-11-19T14:40:04:121
-8,924967	3,624106	-7,787866	2020-11-19T14:40:04:136
-9,501746	3,802351	-8,377398	2020-11-19T14:40:04:160
-9,980778	3,948637	-8,564978	2020-11-19T14:40:04:178
-9,931157	3,823725	-8,461387	2020-11-19T14:40:04:200
-9,917099	3,596396	-8,411102	2020-11-19T14:40:04:216
-9,705984	3,291744	-8,083160	2020-11-19T14:40:04:240
-9,189251	2,865599	-7,616682	2020-11-19T14:40:04:256
-9,099147	2,521510	-7,230160	2020-11-19T14:40:04:281
-9,414819	2,408329	-7,186933	2020-11-19T14:40:04:296
-8,983349	2,122855	8,514943	2020-11-19T14:40:04:320
-9,053375	2,640440	8,801770	2020-11-19T14:40:04:336
-9,153953	3,734697	8,450956	2020-11-19T14:40:04:361
-8,355577	4,975621	7,799466	2020-11-19T14:40:04:377
-7,301071	5,159928	7,296676	2020-11-19T14:40:04:400
-6,775047	5,019319	7,177709	2020-11-19T14:40:04:418
-6,683948	5,211115	7,208233	2020-11-19T14:40:04:441
-6,918565	5,369326	7,115670	2020-11-19T14:40:04:457
-6,548325	5,499583	6,741627	2020-11-19T14:40:04:480
-6,082898	5,513292	6,506154	2020-11-19T14:40:04:496
-5,861812	5,397448	6,511404	2020-11-19T14:40:04:521
-6,141817	5,107469	6,400023	2020-11-19T14:40:04:537
-6,545127	4,765033	6,447239	2020-11-19T14:40:04:560
-6,454671	4,534986	6,363152	2020-11-19T14:40:04:577
-6,539038	4,493258	6,188283	2020-11-19T14:40:04:601
-6,787432	4,411790	5,947275	2020-11-19T14:40:04:617
-6,679620	4,164562	5,724977	2020-11-19T14:40:04:640
-5,827389	4,305317	5,520531	2020-11-19T14:40:04:658
-4,173815	3,936789	5,086784	2020-11-19T14:40:04:682
-4,068531	3,819541	5,426565	2020-11-19T14:40:04:697
-3,629830	3,548598	5,062101	2020-11-19T14:40:04:721
-3,408917	3,818609	4,317371	2020-11-19T14:40:04:737
-3,707380	3,773752	3,912664	2020-11-19T14:40:04:761
-3,344921	3,670770	3,676643	2020-11-19T14:40:04:777
-2,807663	3,652048	3,654820	2020-11-19T14:40:04:800
-2,446629	3,251535	3,353223	2020-11-19T14:40:04:817
-2,040793	2,618644	3,215176	2020-11-19T14:40:04:842
-1,691552	2,129955	3,179764	2020-11-19T14:40:04:857
-1,458509	1,643780	3,232752	2020-11-19T14:40:04:881
-1,212063	1,615161	3,135411	2020-11-19T14:40:04:898
-0,569669	1,664895	2,896361	2020-11-19T14:40:04:921
-0,208147	1,526330	2,869021	2020-11-19T14:40:04:937
-0,090222	1,335592	2,867189	2020-11-19T14:40:04:960
-0,103577	1,230399	2,835300	2020-11-19T14:40:04:977
-0,446856	0,905612	2,794695	2020-11-19T14:40:05:002
-0,730463	0,624810	2,849131	2020-11-19T14:40:05:017
-0,819633	0,521028	2,820985	2020-11-19T14:40:05:041
-0,793153	0,330865	2,650051	2020-11-19T14:40:05:057
-0,520127	0,176104	2,555827	2020-11-19T14:40:05:082
-0,288050	0,190398	2,502058	2020-11-19T14:40:05:097
0,131628	-0,091063	2,584926	2020-11-19T14:40:05:121
0,220139	-0,189163	2,686100	2020-11-19T14:40:05:139
-0,112627	-0,294785	2,730092	2020-11-19T14:40:05:161
-0,481936	-0,184323	2,649886	2020-11-19T14:40:05:178
-0,312411	0,117619	2,382246	2020-11-19T14:40:05:201
-0,292152	0,624063	1,976723	2020-11-19T14:40:05:217
-0,940063	1,033071	1,730462	2020-11-19T14:40:05:242
-1,864026	1,244997	1,698014	2020-11-19T14:40:05:257
-3,313831	1,051681	1,765247	2020-11-19T14:40:05:282
-4,599485	1,019269	1,654450	2020-11-19T14:40:05:298
-4,887521	1,895740	0,779564	2020-11-19T14:40:05:322
-4,872148	3,151020	-0,503149	2020-11-19T14:40:05:338
-5,208784	3,865688	-1,131390	2020-11-19T14:40:05:361
-5,681403	4,417024	-1,639751	2020-11-19T14:40:05:379
-5,885977	5,247483	-1,918878	2020-11-19T14:40:05:402
-5,792194	5,596830	-1,909544	2020-11-19T14:40:05:418
-5,487102	5,648374	-1,745836	2020-11-19T14:40:05:441
-5,063218	5,736452	-1,397547	2020-11-19T14:40:05:458
-5,460881	6,004157	-1,236206	2020-11-19T14:40:05:483
-4,867462	6,037656	-1,133315	2020-11-19T14:40:05:498
-4,458889	6,483319	-0,171958	2020-11-19T14:40:05:521
-4,213872	6,277765	0,726127	2020-11-19T14:40:05:538
-4,183665	6,121120	1,131063	2020-11-19T14:40:05:562
-4,151759	6,128654	0,802697	2020-11-19T14:40:05:578
-4,533594	6,040788	0,468179	2020-11-19T14:40:05:601
-5,393778	5,998668	0,381710	2020-11-19T14:40:05:619
-6,345501	6,050563	0,342006	2020-11-19T14:40:05:642
-6,557722	6,318069	0,374968	2020-11-19T14:40:05:658
-6,355789	6,647418	0,284745	2020-11-19T14:40:05:682
-6,523390	6,461656	0,362473	2020-11-19T14:40:05:698
-6,488421	6,226337	0,496899	2020-11-19T14:40:05:722
-6,372375	5,984649	0,521651	2020-11-19T14:40:05:738
-6,106133	5,863072	0,325789	2020-11-19T14:40:05:761
-5,637246	5,734634	-0,086548	2020-11-19T14:40:05:778
-4,863066	5,610245	-0,128839	2020-11-19T14:40:05:802
-4,718710	5,116047	-0,053816	2020-11-19T14:40:05:818
-4,323840	4,820496	0,149029	2020-11-19T14:40:05:842
-2,848192	4,754153	0,453612	2020-11-19T14:40:05:859
-1,314152	4,643908	1,328209	2020-11-19T14:40:05:882
-0,602813	4,445862	1,716127	2020-11-19T14:40:05:898
-0,910361	4,277883	2,090361	2020-11-19T14:40:05:922
-1,540705	3,705028	2,380367	2020-11-19T14:40:05:938
-2,055763	3,293733	2,110986	2020-11-19T14:40:05:963
-2,096367	2,631756	1,782716	2020-11-19T14:40:05:979
-1,848028	2,083353	2,406799	2020-11-19T14:40:06:001
-1,490085	1,405059	3,437701	2020-11-19T14:40:06:018
-1,269397	1,190065	3,458321	2020-11-19T14:40:06:043
-1,350146	1,643431	2,821527	2020-11-19T14:40:06:058
-1,524450	1,763679	2,344401	2020-11-19T14:40:06:082
-1,607560	1,734836	2,434668	2020-11-19T14:40:06:100
-1,628541	1,877452	2,510492	2020-11-19T14:40:06:123
-1,525574	1,987205	2,352675	2020-11-19T14:40:06:140
-1,297309	2,068125	2,062345	2020-11-19T14:40:06:162
-1,401133	2,170254	1,899205	2020-11-19T14:40:06:179
-1,803972	2,157835	1,977152	2020-11-19T14:40:06:203
-2,091274	2,429165	2,035542	2020-11-19T14:40:06:219
-2,006638	2,559786	1,700850	2020-11-19T14:40:06:242
-1,948590	2,751096	1,361457	2020-11-19T14:40:06:259
-1,845381	2,921341	1,204934	2020-11-19T14:40:06:283
-1,784880	3,226021	1,348201	2020-11-19T14:40:06:298
-1,589571	3,300660	1,397611	2020-11-19T14:40:06:322
-1,177299	3,356273	1,167466	2020-11-19T14:40:06:339
-0,822433	3,487371	0,661923	2020-11-19T14:40:06:362
-0,443796	3,686365	0,186934	2020-11-19T14:40:06:379
-0,414226	3,728052	0,163738	2020-11-19T14:40:06:402
-0,759734	2,393659	1,088205	2020-11-19T14:40:06:419
-0,078675	1,671943	0,201688	2020-11-19T14:40:06:444
0,304176	2,507038	-0,635799	2020-11-19T14:40:06:459
0,189124	3,085772	-0,855710	2020-11-19T14:40:06:482
-0,272997	3,121071	-0,542897	2020-11-19T14:40:06:499
-0,570637	3,107982	-0,642078	2020-11-19T14:40:06:523
-0,664867	3,200768	-0,663631	2020-11-19T14:40:06:538
-1,118255	2,390085	-0,646212	2020-11-19T14:40:06:562
-1,726355	1,820208	-0,352769	2020-11-19T14:40:06:580
-2,062723	1,914551	-0,208122	2020-11-19T14:40:06:603
-2,040094	2,248144	-0,262549	2020-11-19T14:40:06:619
-2,703175	2,527705	-0,063548	2020-11-19T14:40:06:642
-3,303816	1,944069	0,176701	2020-11-19T14:40:06:658
-3,500580	0,995009	0,055261	2020-11-19T14:40:06:684
-3,431365	-0,145138	-0,114923	2020-11-19T14:40:06:699
-3,465568	-0,098473	-0,059435	2020-11-19T14:40:06:722
-3,386813	0,040550	0,303597	2020-11-19T14:40:06:739
-3,367381	-1,029830	0,935839	2020-11-19T14:40:06:763
-3,799709	-2,621779	2,180694	2020-11-19T14:40:06:779
-4,857824	-3,637392	2,570853	2020-11-19T14:40:06:803
-4,977466	-1,569995	2,781421	2020-11-19T14:40:06:820
-5,890538	1,563857	1,976551	2020-11-19T14:40:06:843
-6,611804	3,218588	1,467584	2020-11-19T14:40:06:859
-5,545750	4,387958	1,346996	2020-11-19T14:40:06:883
-4,525757	4,146010	1,672709	2020-11-19T14:40:06:899
-3,522513	3,389713	1,712376	2020-11-19T14:40:06:924
-2,943450	2,880042	1,994730	2020-11-19T14:40:06:939
-2,613097	2,833431	1,900929	2020-11-19T14:40:06:962
-1,910856	2,707620	2,304312	2020-11-19T14:40:06:979
-0,833251	1,412674	2,909059	2020-11-19T14:40:07:003
-1,580951	-0,269783	3,491714	2020-11-19T14:40:07:019
-2,680359	-1,093886	2,838779	2020-11-19T14:40:07:043
-2,436870	-0,145214	1,571924	2020-11-19T14:40:07:060
-3,141363	0,062027	0,983957	2020-11-19T14:40:07:089
-1,705669	-0,966887	0,670497	2020-11-19T14:40:07:100
-1,686553	-0,629653	0,300256	2020-11-19T14:40:07:122
-2,058811	0,718804	0,287817	2020-11-19T14:40:07:139
-1,836130	0,924366	0,344682	2020-11-19T14:40:07:163
-0,386026	0,038445	0,753556	2020-11-19T14:40:07:179
0,302528	0,169234	1,374199	2020-11-19T14:40:07:203
0,660953	1,289536	1,544035	2020-11-19T14:40:07:219
0,201884	2,250665	1,543079	2020-11-19T14:40:07:244
-0,214184	2,266389	1,471714	2020-11-19T14:40:07:259
-0,736606	1,477234	1,338730	2020-11-19T14:40:07:283
-1,312718	0,661276	1,148186	2020-11-19T14:40:07:300
-1,338004	-0,089853	1,812987	2020-11-19T14:40:07:323
-1,576794	0,030069	1,905181	2020-11-19T14:40:07:340
-1,847659	0,446919	1,531523	2020-11-19T14:40:07:363
-1,628595	0,559519	1,259749	2020-11-19T14:40:07:380
-1,279048	0,923712	1,187048	2020-11-19T14:40:07:404
-0,938376	1,169469	1,207558	2020-11-19T14:40:07:419
-1,073265	1,213456	1,315605	2020-11-19T14:40:07:443
-1,169594	0,817028	1,391723	2020-11-19T14:40:07:460
-1,265615	0,689452	1,343893	2020-11-19T14:40:07:484
-1,010074	0,374541	1,281304	2020-11-19T14:40:07:499
-0,559521	0,306910	0,870128	2020-11-19T14:40:07:523
-0,468729	0,372171	0,331572	2020-11-19T14:40:07:540
-0,423570	0,568618	-0,042818	2020-11-19T14:40:07:564
-0,405051	0,093307	0,055749	2020-11-19T14:40:07:580
-0,241403	-0,685525	0,295274	2020-11-19T14:40:07:603
-0,390235	-0,556444	0,242573	2020-11-19T14:40:07:620
-0,316964	0,857409	-0,181717	2020-11-19T14:40:07:644
0,067695	1,568033	-0,258347	2020-11-19T14:40:07:659
-0,031464	-0,045521	0,718613	2020-11-19T14:40:07:684
-0,105799	-0,244752	0,733242	2020-11-19T14:40:07:700
0,114276	-0,019361	0,321949	2020-11-19T14:40:07:724
-0,102726	-0,917848	0,671385	2020-11-19T14:40:07:740
-0,418280	0,091501	0,572109	2020-11-19T14:40:07:763
-0,025550	1,531491	0,491736	2020-11-19T14:40:07:781
0,694436	2,099319	0,606824	2020-11-19T14:40:07:804
0,800789	0,277230	0,827486	2020-11-19T14:40:07:821
-0,166970	-1,436415	0,876875	2020-11-19T14:40:07:843
-0,807399	-1,015778	0,565605	2020-11-19T14:40:07:860
-1,041873	1,157898	-0,076522	2020-11-19T14:40:07:886
-0,339820	0,972083	0,827724	2020-11-19T14:40:07:900
-0,690207	-1,131534	0,771901	2020-11-19T14:40:07:923
0,045407	1,036971	-0,550607	2020-11-19T14:40:07:940
0,571666	0,891509	-0,388312	2020-11-19T14:40:07:965
0,158104	-1,922918	0,319334	2020-11-19T14:40:07:980
-0,313069	-2,160381	0,651156	2020-11-19T14:40:08:004
0,104542	0,742601	0,885417	2020-11-19T14:40:08:021
0,310377	0,989746	1,372272	2020-11-19T14:40:08:045
0,116880	-0,541713	1,159269	2020-11-19T14:40:08:060
0,269334	-0,988985	0,501400	2020-11-19T14:40:08:084
0,097845	0,104466	-0,294805	2020-11-19T14:40:08:100
0,081164	0,539170	-0,028232	2020-11-19T14:40:08:124
-0,399211	-1,424971	0,724445	2020-11-19T14:40:08:140
-0,238033	-0,666693	0,036456	2020-11-19T14:40:08:164
-0,080871	0,716137	-0,338140	2020-11-19T14:40:08:180
-0,072209	-0,184414	0,678819	2020-11-19T14:40:08:205
-0,410799	-0,766703	1,016065	2020-11-19T14:40:08:220
-0,473486	-0,415603	0,499852	2020-11-19T14:40:08:244
-0,610585	0,619566	-0,312924	2020-11-19T14:40:08:261
-0,778707	0,821287	-0,624013	2020-11-19T14:40:08:285
-0,434079	0,082290	-0,788202	2020-11-19T14:40:08:300
-0,182839	0,061894	-0,787885	2020-11-19T14:40:08:324
-0,163004	1,079218	-0,924398	2020-11-19T14:40:08:341
-0,441756	2,182614	-0,667995	2020-11-19T14:40:08:365
-0,824644	3,021258	-0,943045	2020-11-19T14:40:08:381
-0,991301	1,204815	-1,242934	2020-11-19T14:40:08:404
-2,236398	-2,412471	0,198294	2020-11-19T14:40:08:421
-3,329611	-4,923644	0,356474	2020-11-19T14:40:08:445
-4,624116	-6,502229	-1,368973	2020-11-19T14:40:08:461
-5,233676	-4,830132	-1,286964	2020-11-19T14:40:08:485
-4,945893	-1,428752	0,144763	2020-11-19T14:40:08:501
-5,226395	0,517816	1,912821	2020-11-19T14:40:08:525
-5,121973	0,517370	2,799053	2020-11-19T14:40:08:541
-2,671994	-1,472100	2,539145	2020-11-19T14:40:08:564
-4,921900	1,225402	1,129878	2020-11-19T14:40:08:581
-4,290701	1,312186	1,172111	2020-11-19T14:40:08:606
-5,039656	2,080282	1,097933	2020-11-19T14:40:08:621
-4,782313	2,204403	0,960513	2020-11-19T14:40:08:645
-3,914211	2,526875	0,632816	2020-11-19T14:40:08:661
-3,052110	2,546069	0,307596	2020-11-19T14:40:08:686
-2,503277	2,363824	0,418044	2020-11-19T14:40:08:701
-2,359965	2,350690	0,615459	2020-11-19T14:40:08:724
-1,961253	2,028125	0,364924	2020-11-19T14:40:08:742
-1,172497	1,820460	0,097249	2020-11-19T14:40:08:765
-0,251870	1,643461	0,063891	2020-11-19T14:40:08:781
0,579352	1,507064	0,185024	2020-11-19T14:40:08:804
1,528263	1,423263	0,357545	2020-11-19T14:40:08:821
2,349441	1,326029	0,256978	2020-11-19T14:40:08:845
2,723513	1,341094	0,189398	2020-11-19T14:40:08:861
3,976521	-1,468208	1,046305	2020-11-19T14:40:08:885
3,847300	-1,167383	0,778040	2020-11-19T14:40:08:901
3,183698	-0,783266	0,402021	2020-11-19T14:40:08:925
2,346840	-0,537226	-0,188762	2020-11-19T14:40:08:946
1,655352	-0,140854	-0,634661	2020-11-19T14:40:08:964
0,974566	0,003653	-0,801082	2020-11-19T14:40:08:982
0,507160	0,102423	-1,079381	2020-11-19T14:40:09:005
0,400909	0,102814	-1,122196	2020-11-19T14:40:09:021
0,442137	-0,267131	-1,468373	2020-11-19T14:40:09:045
0,566524	-0,619365	-1,913621	2020-11-19T14:40:09:061
0,414066	-0,887446	-1,867513	2020-11-19T14:40:09:086
0,025664	-1,246766	-1,086266	2020-11-19T14:40:09:102
0,189296	-1,451552	-0,596759	2020-11-19T14:40:09:125
0,798463	-0,903738	-0,569655	2020-11-19T14:40:09:141
1,206578	0,323030	-0,885539	2020-11-19T14:40:09:166
0,975938	1,096200	-0,860373	2020-11-19T14:40:09:182
0,585029	1,312708	-0,407799	2020-11-19T14:40:09:205
0,600492	1,658979	-0,468803	2020-11-19T14:40:09:222
0,941964	2,390063	-0,662315	2020-11-19T14:40:09:245
1,232078	2,740986	-0,734076	2020-11-19T14:40:09:261
1,863167	2,458178	-0,306282	2020-11-19T14:40:09:285
2,382995	2,515611	0,028821	2020-11-19T14:40:09:301
2,771043	2,766389	0,147220	2020-11-19T14:40:09:326
2,801803	2,710054	0,207344	2020-11-19T14:40:09:341
2,331360	2,696702	0,330721	2020-11-19T14:40:09:365
1,558038	2,471431	0,450213	2020-11-19T14:40:09:382
0,764462	1,969599	0,591355	2020-11-19T14:40:09:406
0,394039	1,574768	0,597369	2020-11-19T14:40:09:421
0,129037	1,438098	0,777812	2020-11-19T14:40:09:445
-0,375552	1,189877	1,050038	2020-11-19T14:40:09:464
-0,698560	1,153479	1,169501	2020-11-19T14:40:09:487
-0,667453	0,923768	1,131216	2020-11-19T14:40:09:502
-0,599844	0,645858	1,299059	2020-11-19T14:40:09:525
-0,382452	-0,064965	1,475727	2020-11-19T14:40:09:542
-0,138450	-0,766913	1,508830	2020-11-19T14:40:09:566
0,051224	-1,019366	1,396201	2020-11-19T14:40:09:582
0,289794	-1,141196	1,484675	2020-11-19T14:40:09:605
0,428903	-1,239866	1,462660	2020-11-19T14:40:09:622
0,429132	-1,130282	1,423523	2020-11-19T14:40:09:646
0,409801	-1,269573	1,484774	2020-11-19T14:40:09:662
0,377476	-1,243672	1,303610	2020-11-19T14:40:09:686
0,599566	-1,238117	1,060239	2020-11-19T14:40:09:703
0,593441	-1,250169	0,872082	2020-11-19T14:40:09:727
0,350338	-1,435886	0,853010	2020-11-19T14:40:09:742
-0,235431	-1,654286	0,816673	2020-11-19T14:40:09:765
-0,889266	-1,763663	0,710540	2020-11-19T14:40:09:783
-1,445756	-1,823628	0,463602	2020-11-19T14:40:09:806
-2,127892	-1,631433	0,760621	2020-11-19T14:40:09:822
-2,378471	-1,619115	0,158221	2020-11-19T14:40:09:846
-2,406605	-1,476415	-0,266531	2020-11-19T14:40:09:862
-1,614209	-1,376555	0,098779	2020-11-19T14:40:09:887
-0,125668	-1,374472	-0,333082	2020-11-19T14:40:09:902
0,251495	-2,187917	-2,399413	2020-11-19T14:40:09:926
-0,669150	-2,500732	-4,341240	2020-11-19T14:40:09:944
-2,108846	-0,229395	-4,779461	2020-11-19T14:40:09:967
-2,801932	1,706775	-4,255604	2020-11-19T14:40:09:983
-3,232295	0,487368	-3,798411	2020-11-19T14:40:10:006
-2,669013	-1,400508	-4,137971	2020-11-19T14:40:10:022
-1,744411	-1,277962	-4,345407	2020-11-19T14:40:10:047
-0,729277	-0,861284	-4,168440	2020-11-19T14:40:10:062
0,538086	-1,095816	-3,368670	2020-11-19T14:40:10:086
0,672706	-1,241445	-3,084695	2020-11-19T14:40:10:103
0,147582	-1,437809	-3,011284	2020-11-19T14:40:10:127
-0,042276	-1,326064	-3,063432	2020-11-19T14:40:10:142
-0,016171	-1,131903	-3,161836	2020-11-19T14:40:10:166
0,062506	-0,908751	-3,081379	2020-11-19T14:40:10:183
-0,086282	-0,433391	-2,726943	2020-11-19T14:40:10:207
-0,545938	0,024001	-2,548585	2020-11-19T14:40:10:222
-0,622602	0,527241	-2,529394	2020-11-19T14:40:10:246
-0,180251	1,030811	-2,572127	2020-11-19T14:40:10:262
0,483151	1,393552	-2,597064	2020-11-19T14:40:10:287
0,756374	1,716406	-2,551247	2020-11-19T14:40:10:301
0,865479	1,829314	-2,470208	2020-11-19T14:40:10:326
1,037762	1,960919	-2,336210	2020-11-19T14:40:10:341
1,280900	2,075290	-2,180823	2020-11-19T14:40:10:367
1,110160	1,982728	-1,860544	2020-11-19T14:40:10:384
0,655902	1,731657	-1,658786	2020-11-19T14:40:10:405
0,172488	1,643847	-1,618695	2020-11-19T14:40:10:423
-0,327269	2,080942	-1,561824	2020-11-19T14:40:10:447
-1,224182	2,745254	-1,767794	2020-11-19T14:40:10:464
-2,566176	2,466411	-2,025059	2020-11-19T14:40:10:487
-3,570740	2,295522	-2,017332	2020-11-19T14:40:10:503
-3,611612	2,034206	-1,824094	2020-11-19T14:40:10:527
-2,861154	1,363315	-0,954184	2020-11-19T14:40:10:544
-1,723037	0,425900	-0,127102	2020-11-19T14:40:10:567
-1,096164	-0,464464	0,145934	2020-11-19T14:40:10:583
-0,702147	-0,547100	0,289903	2020-11-19T14:40:10:607
-0,811203	2,003526	-0,701969	2020-11-19T14:40:10:623
0,115483	2,414461	-1,557943	2020-11-19T14:40:10:647
-0,817474	3,505858	0,808627	2020-11-19T14:40:10:664
-1,148972	3,652763	-0,478159	2020-11-19T14:40:10:687
-1,166670	-0,580290	0,197072	2020-11-19T14:40:10:703
-0,842902	-0,716444	-0,683575	2020-11-19T14:40:10:727
-0,009173	-0,586986	-1,247095	2020-11-19T14:40:10:743
0,724881	-0,261813	-1,151263	2020-11-19T14:40:10:767
0,713534	0,338691	-0,958908	2020-11-19T14:40:10:783
0,549575	0,617161	-0,501854	2020-11-19T14:40:10:807
0,272972	0,743479	-0,172012	2020-11-19T14:40:10:823
-0,030579	1,402411	0,225282	2020-11-19T14:40:10:848
-0,099422	2,094028	0,406635	2020-11-19T14:40:10:863
-0,378675	2,802644	0,981640	2020-11-19T14:40:10:887
-0,577394	2,731885	1,436261	2020-11-19T14:40:10:904
-1,217437	2,213296	1,640907	2020-11-19T14:40:10:928
-1,559611	2,103226	2,205613	2020-11-19T14:40:10:943
-1,314759	2,219773	2,265308	2020-11-19T14:40:10:967
-0,989503	1,843386	2,004092	2020-11-19T14:40:10:984
-1,048255	1,586545	1,322239	2020-11-19T14:40:11:007
-0,797823	2,086689	1,247779	2020-11-19T14:40:11:023
-0,398380	3,273356	1,073315	2020-11-19T14:40:11:047
-0,047966	3,773481	0,339882	2020-11-19T14:40:11:063
-0,087147	4,174063	-0,529971	2020-11-19T14:40:11:088
0,164248	4,260407	-1,430669	2020-11-19T14:40:11:103
0,243733	4,065701	-2,248146	2020-11-19T14:40:11:127
-0,286924	3,770432	-2,830106	2020-11-19T14:40:11:144
-1,228838	2,865616	-3,967021	2020-11-19T14:40:11:168
-5,463541	0,968369	-4,262732	2020-11-19T14:40:11:184
-8,166945	0,011947	-4,225358	2020-11-19T14:40:11:208
-7,510325	-0,058795	-4,067359	2020-11-19T14:40:11:223
-3,859818	0,498997	-4,315723	2020-11-19T14:40:11:248
-1,617807	0,065962	-4,087024	2020-11-19T14:40:11:263
-0,495980	-0,507498	-3,704281	2020-11-19T14:40:11:287
-0,086824	-0,354805	-3,595470	2020-11-19T14:40:11:303
-0,466661	-0,066451	-3,260838	2020-11-19T14:40:11:328
-1,166643	-0,633980	-2,790232	2020-11-19T14:40:11:343
-1,657410	-1,672139	-3,070711	2020-11-19T14:40:11:367
-1,737803	-2,733021	-4,496237	2020-11-19T14:40:11:385
-1,226583	-4,008569	-6,287518	2020-11-19T14:40:11:408
-0,152221	-5,259827	-7,005253	2020-11-19T14:40:11:423
0,906436	-5,263726	-6,823696	2020-11-19T14:40:11:447
0,730831	-4,247947	-6,558826	2020-11-19T14:40:11:464
-0,263199	-3,328108	-6,876590	2020-11-19T14:40:11:488
-1,053651	-2,995854	-7,561666	2020-11-19T14:40:11:503
-1,381269	-2,812550	-8,740348	2020-11-19T14:40:11:527
-1,704510	-2,518192	-10,042442	2020-11-19T14:40:11:543
-2,175700	-2,297521	-11,295002	2020-11-19T14:40:11:568
-3,114519	-1,897715	-12,418310	2020-11-19T14:40:11:584
-4,586262	-1,580168	-13,502291	2020-11-19T14:40:11:607
-6,594536	-1,372807	-14,436060	2020-11-19T14:40:11:625
-9,041097	-1,204791	-14,956290	2020-11-19T14:40:11:648
-6,205115	-0,707862	3,925357	2020-11-19T14:40:11:664
-3,358602	0,190964	3,643321	2020-11-19T14:40:11:687
-1,427964	0,667956	2,941004	2020-11-19T14:40:11:704
-0,353032	0,690553	2,128491	2020-11-19T14:40:11:728
0,105343	0,600856	1,539520	2020-11-19T14:40:11:744
0,421826	0,422934	1,217685	2020-11-19T14:40:11:767
0,430971	0,378329	1,218651	2020-11-19T14:40:11:785
0,311665	-0,052390	1,013577	2020-11-19T14:40:11:809
-1,291527	-0,021284	0,987256	2020-11-19T14:40:11:824
-1,673198	-0,182430	0,878632	2020-11-19T14:40:11:848
-1,956069	-0,820542	1,484887	2020-11-19T14:40:11:866
-2,982955	-1,818430	1,839401	2020-11-19T14:40:11:889
-4,959180	-2,263065	1,964754	2020-11-19T14:40:11:904
-4,582424	-2,709120	2,534106	2020-11-19T14:40:11:928
-2,135856	-2,306341	1,699561	2020-11-19T14:40:11:944
-1,042441	-1,213357	0,762582	2020-11-19T14:40:11:968
-0,924622	1,203369	-0,451365	2020-11-19T14:40:11:985
-0,754282	2,799802	-1,376212	2020-11-19T14:40:12:008
-1,207058	2,691837	-0,897528	2020-11-19T14:40:12:024
-1,486838	2,339370	-0,266435	2020-11-19T14:40:12:049
-1,093163	2,896646	-0,103110	2020-11-19T14:40:12:064
-0,838954	2,908642	0,049142	2020-11-19T14:40:12:098
-1,266850	2,981286	0,371504	2020-11-19T14:40:12:105
-1,878149	4,086312	0,997678	2020-11-19T14:40:12:128
-2,439660	4,928658	1,549503	2020-11-19T14:40:12:145
-0,027264	1,219444	0,901895	2020-11-19T14:40:12:168
0,203613	2,143996	0,861293	2020-11-19T14:40:12:185
0,516823	3,174148	0,568425	2020-11-19T14:40:12:209
0,447820	3,303532	0,377761	2020-11-19T14:40:12:225
0,450522	2,794596	0,480828	2020-11-19T14:40:12:248
0,606573	2,392293	0,898428	2020-11-19T14:40:12:265
1,073492	2,758168	1,097377	2020-11-19T14:40:12:289
1,115148	2,651397	1,167624	2020-11-19T14:40:12:305
0,997123	2,060145	1,301225	2020-11-19T14:40:12:328
1,018838	1,751234	1,314596	2020-11-19T14:40:12:346
0,994930	1,504119	1,464588	2020-11-19T14:40:12:369
-1,303729	5,242019	3,212673	2020-11-19T14:40:12:385
-1,157630	4,974324	3,618950	2020-11-19T14:40:12:408
-0,990722	4,351402	4,244989	2020-11-19T14:40:12:425
-1,343659	2,899251	5,112667	2020-11-19T14:40:12:449
-1,388207	1,084888	5,024729	2020-11-19T14:40:12:465
-1,313201	0,341973	5,592659	2020-11-19T14:40:12:489
-1,387770	-0,820965	6,138461	2020-11-19T14:40:12:505
-1,238145	-1,477841	6,963811	2020-11-19T14:40:12:529
-1,373631	-2,274696	7,181995	2020-11-19T14:40:12:546
-2,195966	-2,519866	7,595494	2020-11-19T14:40:12:569
-2,846680	-2,974546	6,917230	2020-11-19T14:40:12:586
-3,796475	-3,134653	6,765788	2020-11-19T14:40:12:609
-4,239358	-2,577019	6,506320	2020-11-19T14:40:12:625
-4,593691	-2,353220	6,820223	2020-11-19T14:40:12:648
-4,325166	-2,698097	7,391522	2020-11-19T14:40:12:665
-3,070982	-2,528607	7,691672	2020-11-19T14:40:12:689
-2,126031	-2,105575	7,685054	2020-11-19T14:40:12:705
-2,396008	-2,048898	8,046072	2020-11-19T14:40:12:728
-4,117598	-1,452656	9,793755	2020-11-19T14:40:12:746
-4,238970	-1,703260	9,051414	2020-11-19T14:40:12:769
-5,395926	-0,833745	8,260719	2020-11-19T14:40:12:786
-2,242954	3,012919	5,262321	2020-11-19T14:40:12:808
-1,782713	0,831236	3,145820	2020-11-19T14:40:12:826
-1,394002	-1,736936	1,849681	2020-11-19T14:40:12:848
-0,951452	-3,079337	2,302745	2020-11-19T14:40:12:866
-0,425209	-3,498650	3,090112	2020-11-19T14:40:12:889
-0,079011	-3,993791	3,713011	2020-11-19T14:40:12:905
-0,215340	-3,785778	4,546117	2020-11-19T14:40:12:929
-1,277937	-2,700693	-4,408273	2020-11-19T14:40:12:945
-1,201516	-1,265226	-4,889892	2020-11-19T14:40:12:968
-0,999719	-0,429953	-5,247088	2020-11-19T14:40:12:986
-0,570184	-0,357799	-5,281425	2020-11-19T14:40:13:009
-0,326934	-0,294406	-4,764459	2020-11-19T14:40:13:025
-0,077997	0,323042	-4,074335	2020-11-19T14:40:13:048
0,236033	1,064890	-4,317705	2020-11-19T14:40:13:066
0,610015	1,262586	-4,655060	2020-11-19T14:40:13:089
0,997550	1,158962	-4,725974	2020-11-19T14:40:13:107
1,136101	0,861427	-4,309805	2020-11-19T14:40:13:128
0,919315	0,720254	-3,810241	2020-11-19T14:40:13:145
0,353099	0,654678	-3,600323	2020-11-19T14:40:13:169
-0,263136	0,907815	-3,493144	2020-11-19T14:40:13:186
-0,731270	1,248170	-3,467216	2020-11-19T14:40:13:208
-1,323546	1,444803	-3,280310	2020-11-19T14:40:13:226
-2,401538	1,407166	-3,039887	2020-11-19T14:40:13:250
-3,369846	1,240757	-2,970445	2020-11-19T14:40:13:266
-3,657809	0,885101	-2,921293	2020-11-19T14:40:13:289
-2,826352	0,461746	-2,594243	2020-11-19T14:40:13:307
-1,250896	-0,061924	-1,762112	2020-11-19T14:40:13:329
0,746499	-0,808482	-0,732276	2020-11-19T14:40:13:346
1,386220	-1,152702	-0,129086	2020-11-19T14:40:13:369
1,393902	-0,904977	-0,173515	2020-11-19T14:40:13:386
0,788308	-0,451975	-0,497486	2020-11-19T14:40:13:409
0,281292	-0,172525	-0,936174	2020-11-19T14:40:13:426
-0,133585	-0,110945	-1,296368	2020-11-19T14:40:13:449
-0,435171	-0,070900	-1,304477	2020-11-19T14:40:13:467
-0,422111	-0,104331	-1,181536	2020-11-19T14:40:13:490
-0,315587	-0,032052	-0,880024	2020-11-19T14:40:13:507
0,023224	0,043444	-0,558035	2020-11-19T14:40:13:530
-0,390792	-1,285711	0,591061	2020-11-19T14:40:13:548
-0,115618	-2,070557	-0,009538	2020-11-19T14:40:13:569
0,448547	-2,407152	-0,057463	2020-11-19T14:40:13:586
0,915114	-2,767879	-0,122450	2020-11-19T14:40:13:609
0,993408	-3,338524	0,274624	2020-11-19T14:40:13:626
0,453147	-3,817429	0,768869	2020-11-19T14:40:13:650
-0,131619	-4,176458	1,274904	2020-11-19T14:40:13:666
-0,476943	-4,138385	1,794872	2020-11-19T14:40:13:689
-0,744260	-4,365882	2,146676	2020-11-19T14:40:13:706
-0,936790	-3,294677	2,136327	2020-11-19T14:40:13:730
-0,453957	-2,937529	2,140815	2020-11-19T14:40:13:746
0,196526	-2,408987	1,977480	2020-11-19T14:40:13:769
0,718806	-1,634431	1,558093	2020-11-19T14:40:13:788
1,011075	-1,608901	1,476130	2020-11-19T14:40:13:811
0,608248	-2,010371	1,909214	2020-11-19T14:40:13:827
0,236747	-1,590851	2,005352	2020-11-19T14:40:13:849
-0,119647	-0,883042	1,896663	2020-11-19T14:40:13:866
-0,459065	-0,422771	1,816592	2020-11-19T14:40:13:890
-0,792149	-0,513193	1,533855	2020-11-19T14:40:13:906
-1,049434	-2,741272	2,186801	2020-11-19T14:40:13:929
-1,524990	-3,028082	2,062220	2020-11-19T14:40:13:947
-1,084658	-2,843285	1,609836	2020-11-19T14:40:13:970
-0,792130	-2,406765	1,249605	2020-11-19T14:40:13:987
-0,932574	-2,508032	1,081990	2020-11-19T14:40:14:010
-0,915423	-2,516524	1,061550	2020-11-19T14:40:14:030
-0,078116	-2,433925	0,798549	2020-11-19T14:40:14:054
-0,155589	-2,197910	0,320191	2020-11-19T14:40:14:170
-1,590153	-2,359560	-0,152115	2020-11-19T14:40:14:170
-3,214879	-2,462452	-0,357898	2020-11-19T14:40:14:171
-4,580183	-2,211088	-1,063972	2020-11-19T14:40:14:172
-5,130533	-2,215873	-1,626286	2020-11-19T14:40:14:173
-4,799216	-1,670667	-2,838413	2020-11-19T14:40:14:173
-2,937600	-1,204067	-3,482082	2020-11-19T14:40:14:244
-1,128800	-0,811161	-3,588481	2020-11-19T14:40:14:250
-0,096297	-0,547337	-3,284233	2020-11-19T14:40:14:251
-0,007233	-0,171854	-2,983198	2020-11-19T14:40:14:252
-0,513363	0,019457	-2,871543	2020-11-19T14:40:14:312
-0,809992	0,036037	-3,136901	2020-11-19T14:40:14:313
-0,589852	-0,260674	-3,534109	2020-11-19T14:40:14:314
-0,258297	-0,259914	-3,775730	2020-11-19T14:40:14:350
0,176344	-0,129889	-3,947728	2020-11-19T14:40:14:352
0,250286	0,259872	-4,203678	2020-11-19T14:40:14:370
0,196057	0,896062	-4,227859	2020-11-19T14:40:14:386
0,610928	0,788478	-3,790770	2020-11-19T14:40:14:408
0,935796	0,695599	-3,300213	2020-11-19T14:40:14:426
1,269577	0,633129	-2,795061	2020-11-19T14:40:14:451
1,193087	0,623643	-2,233785	2020-11-19T14:40:14:467
0,833716	0,687615	-1,856559	2020-11-19T14:40:14:490
0,498590	0,646924	-1,699277	2020-11-19T14:40:14:508
0,300719	0,593295	-1,698266	2020-11-19T14:40:14:530
0,147932	0,524509	-1,579371	2020-11-19T14:40:14:547
-0,104570	0,574505	-1,359296	2020-11-19T14:40:14:570
-0,815119	0,710704	-0,883059	2020-11-19T14:40:14:587
-1,336246	0,854078	-0,922478	2020-11-19T14:40:14:610
-1,657888	0,708391	-0,851385	2020-11-19T14:40:14:630
-1,525421	0,657075	-0,558223	2020-11-19T14:40:14:653
-1,603534	0,742434	-0,232980	2020-11-19T14:40:14:668
-1,751348	1,044966	0,090881	2020-11-19T14:40:14:691
-1,915657	1,343655	0,194545	2020-11-19T14:40:14:707
-2,365707	1,637004	0,474558	2020-11-19T14:40:14:732
-2,294537	2,642625	0,597212	2020-11-19T14:40:14:748
-1,495040	4,077539	0,371369	2020-11-19T14:40:14:770
-0,699508	4,924190	0,218446	2020-11-19T14:40:14:787
0,028226	4,569886	0,235523	2020-11-19T14:40:14:810
0,410485	3,798944	0,293054	2020-11-19T14:40:14:828
0,091772	3,668051	0,344475	2020-11-19T14:40:14:851
0,140906	3,937490	0,071435	2020-11-19T14:40:14:867
-0,120605	3,964628	-0,162894	2020-11-19T14:40:14:890
-0,600736	3,846982	-0,017438	2020-11-19T14:40:14:907
-0,434562	3,047373	-0,396042	2020-11-19T14:40:14:931
0,079895	1,259934	-0,867428	2020-11-19T14:40:14:947
0,153428	0,614413	-0,836925	2020-11-19T14:40:14:971
0,294605	1,770146	-0,870425	2020-11-19T14:40:14:988
0,414772	2,563037	-0,733443	2020-11-19T14:40:15:010
-0,055864	1,750225	-0,821566	2020-11-19T14:40:15:027
-0,367188	0,748029	-1,708314	2020-11-19T14:40:15:050
-5,857751	2,833958	-5,401888	2020-11-19T14:40:15:067
-5,570436	0,172870	-4,432783	2020-11-19T14:40:15:091
-4,334921	-0,651506	-3,482346	2020-11-19T14:40:15:107
-2,901171	-0,681316	-1,955622	2020-11-19T14:40:15:130
-2,062448	-1,239095	-1,603398	2020-11-19T14:40:15:147
-2,212168	-2,095875	-1,342337	2020-11-19T14:40:15:172
-2,613366	-1,135569	-1,988861	2020-11-19T14:40:15:187
-2,857313	-0,625187	-3,086948	2020-11-19T14:40:15:210
-2,557561	-0,370390	-5,113347	2020-11-19T14:40:15:228
-3,499862	-0,767437	-6,147120	2020-11-19T14:40:15:251
-4,057389	-2,236630	-4,866960	2020-11-19T14:40:15:267
-3,798147	-2,543128	-5,374313	2020-11-19T14:40:15:290
-4,187465	-0,838523	-6,715619	2020-11-19T14:40:15:307
-5,902521	-0,162453	11,067863	2020-11-19T14:40:15:331
-7,912492	-0,772623	10,208840	2020-11-19T14:40:15:347
-8,228724	-0,761175	9,759858	2020-11-19T14:40:15:370
-7,906845	-0,725608	7,890172	2020-11-19T14:40:15:388
-8,070677	-1,610964	6,031690	2020-11-19T14:40:15:411
-7,930123	-1,584638	4,604103	2020-11-19T14:40:15:427
-7,990116	-1,878849	3,653511	2020-11-19T14:40:15:450
-7,795576	-2,401250	3,493451	2020-11-19T14:40:15:469
-4,968352	-0,890133	3,429366	2020-11-19T14:40:15:491
-3,738728	0,472718	3,557799	2020-11-19T14:40:15:507
-3,289918	1,025838	3,462286	2020-11-19T14:40:15:530
-3,532314	1,305150	3,645531	2020-11-19T14:40:15:547
-4,066190	1,739664	3,804221	2020-11-19T14:40:15:571
-1,057770	-1,484429	0,674732	2020-11-19T14:40:15:588
-1,212731	-1,193904	0,682761	2020-11-19T14:40:15:610
-1,472267	-0,807952	0,922025	2020-11-19T14:40:15:627
-1,747674	-0,396880	1,206525	2020-11-19T14:40:15:651
-1,615008	0,028579	1,755131	2020-11-19T14:40:15:667
-1,420353	0,567399	2,084307	2020-11-19T14:40:15:691
-1,120718	0,848440	2,333341	2020-11-19T14:40:15:709
-0,832952	1,236032	2,310412	2020-11-19T14:40:15:731
-0,809250	1,110572	2,942297	2020-11-19T14:40:15:747
-1,092794	0,545428	3,659877	2020-11-19T14:40:15:770
-1,363863	0,367560	4,106571	2020-11-19T14:40:15:788
-1,544116	0,708685	3,816071	2020-11-19T14:40:15:811
-0,967142	0,733865	3,601050	2020-11-19T14:40:15:828
-0,197833	0,725787	4,119806	2020-11-19T14:40:15:850
0,411832	0,102640	4,738887	2020-11-19T14:40:15:867
0,671996	-0,338622	5,595845	2020-11-19T14:40:15:892
0,839323	-0,457673	5,742064	2020-11-19T14:40:15:908
1,381258	-0,510793	5,588781	2020-11-19T14:40:15:931
0,726193	-1,220386	-3,454643	2020-11-19T14:40:15:949
1,089540	-1,386596	-2,975610	2020-11-19T14:40:15:971
1,179996	-1,299774	-2,601629	2020-11-19T14:40:15:988
0,829903	-1,112017	-2,767352	2020-11-19T14:40:16:011
-0,093113	-0,830750	-3,046092	2020-11-19T14:40:16:028
-0,877494	-0,480738	-3,170563	2020-11-19T14:40:16:052
-0,552175	-0,275084	-2,820435	2020-11-19T14:40:16:069
0,341047	-0,663015	-2,471771	2020-11-19T14:40:16:091
0,374648	-1,089363	-2,119955	2020-11-19T14:40:16:108
-0,489282	-1,429330	-2,037884	2020-11-19T14:40:16:132
-0,839927	-1,633646	-1,348547	2020-11-19T14:40:16:148
-0,151694	-1,808928	0,423963	2020-11-19T14:40:16:172
1,154788	-2,148708	2,010404	2020-11-19T14:40:16:189
2,149981	-2,262202	2,317427	2020-11-19T14:40:16:212
2,378952	-1,284005	1,258488	2020-11-19T14:40:16:228
2,019585	-0,557256	-0,011209	2020-11-19T14:40:16:251
1,483659	0,002346	-0,278226	2020-11-19T14:40:16:268
0,962519	0,332651	0,162289	2020-11-19T14:40:16:292
0,752588	0,245173	0,134236	2020-11-19T14:40:16:308
0,729270	0,156860	0,522426	2020-11-19T14:40:16:331
0,907265	-0,020950	0,407389	2020-11-19T14:40:16:348
1,022659	0,123798	-0,168146	2020-11-19T14:40:16:372
0,781244	0,156400	-0,212129	2020-11-19T14:40:16:388
0,682383	-0,575199	0,084058	2020-11-19T14:40:16:411
0,775944	-1,048272	0,280678	2020-11-19T14:40:16:429
0,665656	-1,276760	0,227928	2020-11-19T14:40:16:452
0,298233	-1,453128	-0,085497	2020-11-19T14:40:16:469
0,130080	-1,418609	0,144507	2020-11-19T14:40:16:491
-0,071092	-1,434189	0,656253	2020-11-19T14:40:16:508
0,109081	-1,136037	0,241512	2020-11-19T14:40:16:532
0,096642	-0,996187	-0,596462	2020-11-19T14:40:16:549
0,187457	-0,813683	-0,625570	2020-11-19T14:40:16:571
0,173170	-1,156786	-0,590829	2020-11-19T14:40:16:589
0,356956	-1,498800	-0,571348	2020-11-19T14:40:16:612
0,713280	-1,590208	-0,505081	2020-11-19T14:40:16:629
0,853850	-1,602559	-0,449787	2020-11-19T14:40:16:652
0,730491	-1,713911	-0,221939	2020-11-19T14:40:16:670
0,306837	-1,832675	-0,148459	2020-11-19T14:40:16:693
-0,327261	-1,705856	-0,433205	2020-11-19T14:40:16:709
-1,196480	-1,774785	-0,517983	2020-11-19T14:40:16:731
-1,795286	-1,758599	-0,429108	2020-11-19T14:40:16:749
-1,777705	-1,518475	-0,339833	2020-11-19T14:40:16:772
-0,730973	-1,148813	-0,112237	2020-11-19T14:40:16:789
0,984475	-0,875584	-0,015681	2020-11-19T14:40:16:811
2,076122	-0,860441	-0,059155	2020-11-19T14:40:16:829
1,464190	-1,108640	0,017903	2020-11-19T14:40:16:852
-0,099208	-1,263424	0,049438	2020-11-19T14:40:16:869
-1,427953	-1,058151	-0,208363	2020-11-19T14:40:16:892
-2,566246	-0,936299	-0,653647	2020-11-19T14:40:16:910
-3,144953	-1,302128	-0,928910	2020-11-19T14:40:16:932
-2,342705	-1,529886	-0,843905	2020-11-19T14:40:16:949
-1,423215	-1,379940	-0,591677	2020-11-19T14:40:16:971
-0,621608	-1,278782	0,027444	2020-11-19T14:40:16:989
0,192877	-1,499238	0,385934	2020-11-19T14:40:17:013
0,616094	-1,838479	0,571046	2020-11-19T14:40:17:029
0,742895	-2,239204	0,845953	2020-11-19T14:40:17:051
1,073115	-2,758303	0,797389	2020-11-19T14:40:17:083
1,251235	-2,856583	1,440400	2020-11-19T14:40:17:094
0,911454	-1,770242	2,005106	2020-11-19T14:40:17:109
1,077332	-0,628042	1,293461	2020-11-19T14:40:17:132
1,107254	-0,282942	0,684389	2020-11-19T14:40:17:150
0,578322	-0,662321	1,053399	2020-11-19T14:40:17:172
0,485647	-1,026584	0,639880	2020-11-19T14:40:17:189
0,257880	-1,355320	0,208932	2020-11-19T14:40:17:212
0,463392	-1,214539	-0,112633	2020-11-19T14:40:17:229
0,723635	-1,091613	-0,326076	2020-11-19T14:40:17:253
0,623745	-0,809174	-0,482679	2020-11-19T14:40:17:269
0,653784	-0,600754	-0,578629	2020-11-19T14:40:17:292
0,867457	-0,755836	-0,331386	2020-11-19T14:40:17:309
0,604616	-0,795151	-0,339930	2020-11-19T14:40:17:333
-0,108210	-0,799413	-0,523118	2020-11-19T14:40:17:349
-1,485257	-0,843617	-0,912071	2020-11-19T14:40:17:372
-2,527442	-0,562740	-1,163634	2020-11-19T14:40:17:390
-2,199678	-0,301064	-0,969930	2020-11-19T14:40:17:413
-1,247651	-0,046466	-0,779480	2020-11-19T14:40:17:430
-0,283539	0,155446	-0,733154	2020-11-19T14:40:17:452
0,527866	0,343120	-0,588935	2020-11-19T14:40:17:470
1,178342	0,976458	-0,709800	2020-11-19T14:40:17:494
1,637662	1,734188	-0,705971	2020-11-19T14:40:17:510
1,572761	2,130564	-0,961994	2020-11-19T14:40:17:532
0,940345	2,511203	-1,267388	2020-11-19T14:40:17:549
0,066633	2,945678	-1,875942	2020-11-19T14:40:17:573
-0,859066	3,079659	-1,921479	2020-11-19T14:40:17:590
-1,569532	2,923296	-1,740123	2020-11-19T14:40:17:613
-1,828057	2,106961	-1,010923	2020-11-19T14:40:17:631
-1,911041	1,754133	-0,595525	2020-11-19T14:40:17:653
-1,520730	1,511112	-0,264486	2020-11-19T14:40:17:670
-1,017777	1,365857	0,194233	2020-11-19T14:40:17:693
-0,352578	1,081433	0,341691	2020-11-19T14:40:17:710
0,084056	0,970524	0,319754	2020-11-19T14:40:17:734
-0,168806	0,874544	0,336706	2020-11-19T14:40:17:750
-0,378593	0,722294	0,728194	2020-11-19T14:40:17:773
-0,288460	1,028921	0,803799	2020-11-19T14:40:17:790
0,195957	1,033757	0,932750	2020-11-19T14:40:17:814
0,554136	0,298615	1,113722	2020-11-19T14:40:17:830
1,016720	-0,339527	1,214332	2020-11-19T14:40:17:853
1,387553	-0,917538	1,263552	2020-11-19T14:40:17:871
1,649271	-1,608256	1,349979	2020-11-19T14:40:17:895
2,042833	-2,065712	1,461160	2020-11-19T14:40:17:911
2,180521	-2,081942	1,480698	2020-11-19T14:40:17:933
1,883182	-2,099430	1,427003	2020-11-19T14:40:17:950
1,297985	-1,969442	1,397045	2020-11-19T14:40:17:974
0,575644	-2,069873	1,350174	2020-11-19T14:40:17:990
-0,140675	-2,078466	1,081481	2020-11-19T14:40:18:013
-1,087246	-1,936663	0,901518	2020-11-19T14:40:18:030
-2,451989	-1,982223	0,711618	2020-11-19T14:40:18:053
-4,488765	-2,314546	0,795019	2020-11-19T14:40:18:070
-5,702155	-2,675258	1,059437	2020-11-19T14:40:18:093
-4,148448	-2,412827	0,790033	2020-11-19T14:40:18:111
-1,355665	-1,934080	0,202989	2020-11-19T14:40:18:132
0,603299	-1,736619	-0,143045	2020-11-19T14:40:18:150
1,746196	-1,383811	-0,418548	2020-11-19T14:40:18:173
1,753375	-1,266563	-0,413762	2020-11-19T14:40:18:190
0,174385	-1,167291	-0,467978	2020-11-19T14:40:18:213
-1,426368	-1,036634	-0,734470	2020-11-19T14:40:18:230
-2,557106	-0,732164	-1,070961	2020-11-19T14:40:18:253
-3,216688	-0,293214	-1,581054	2020-11-19T14:40:18:270
-3,293684	0,176400	-2,187670	2020-11-19T14:40:18:294
-3,096233	0,634954	-2,554702	2020-11-19T14:40:18:310
-2,834465	1,029487	-2,824344	2020-11-19T14:40:18:333
-2,177661	1,328450	-2,983004	2020-11-19T14:40:18:351
-1,341194	1,586715	-3,315288	2020-11-19T14:40:18:373
-1,350689	1,662370	-3,226891	2020-11-19T14:40:18:390
-1,142332	1,788362	-3,020313	2020-11-19T14:40:18:414
-0,876729	1,659149	-3,020313	2020-11-19T14:40:18:430
-0,491315	1,906830	-3,178559	2020-11-19T14:40:18:453
-0,111657	1,997180	-3,143267	2020-11-19T14:40:18:471
0,140883	1,930298	-2,457299	2020-11-19T14:40:18:493
0,241149	2,365638	-1,760910	2020-11-19T14:40:18:510
0,379875	3,088378	-1,966933	2020-11-19T14:40:18:535
0,664621	3,298947	-2,244500	2020-11-19T14:40:18:550
0,969202	3,476848	-2,175840	2020-11-19T14:40:18:574
0,860693	3,418817	-1,856864	2020-11-19T14:40:18:593
0,480235	3,318319	-1,701331	2020-11-19T14:40:18:613
-0,325147	3,505644	-1,579948	2020-11-19T14:40:18:630
-1,234826	4,028687	-1,505449	2020-11-19T14:40:18:653
-1,854404	4,641000	-1,763493	2020-11-19T14:40:18:670
-2,694309	4,779143	-1,595448	2020-11-19T14:40:18:694
-2,797326	3,832363	-1,572898	2020-11-19T14:40:18:711
-2,693023	3,109838	-1,474782	2020-11-19T14:40:18:733
-2,846822	2,218285	-1,019931	2020-11-19T14:40:18:751
-3,042288	1,227746	-0,091596	2020-11-19T14:40:18:775
-2,463225	0,966928	0,276899	2020-11-19T14:40:18:791
-1,198753	0,158380	0,907780	2020-11-19T14:40:18:813
-0,732847	-0,784541	1,853276	2020-11-19T14:40:18:831
-0,397913	-1,539677	2,693931	2020-11-19T14:40:18:853
0,026339	-1,752448	3,058101	2020-11-19T14:40:18:871
-0,919378	-1,970692	3,106516	2020-11-19T14:40:18:894
-2,012618	-1,990886	2,402265	2020-11-19T14:40:18:911
-2,291212	-1,814482	1,373120	2020-11-19T14:40:18:934
-2,020423	-1,639045	0,574222	2020-11-19T14:40:18:951
-1,546786	-1,443053	0,257585	2020-11-19T14:40:18:973
-0,648216	-1,556878	0,400293	2020-11-19T14:40:18:991
0,370394	-1,913973	0,592165	2020-11-19T14:40:19:015
0,949475	-2,342662	0,651799	2020-11-19T14:40:19:041
1,369660	-2,646835	0,496172	2020-11-19T14:40:19:055
1,364875	-2,979437	0,457887	2020-11-19T14:40:19:072
1,111355	-2,630328	0,506333	2020-11-19T14:40:19:094
0,868218	-2,223895	0,588402	2020-11-19T14:40:19:111
0,816641	-1,692862	0,470406	2020-11-19T14:40:19:134
1,185557	-1,147264	0,558082	2020-11-19T14:40:19:151
1,505785	-0,757362	0,668852	2020-11-19T14:40:19:175
1,819245	-0,826754	1,068453	2020-11-19T14:40:19:199
2,028379	-0,907149	1,374171	2020-11-19T14:40:19:214
2,313888	-1,013651	1,519197	2020-11-19T14:40:19:231
2,214590	-1,220353	1,758025	2020-11-19T14:40:19:254
1,725081	-1,424841	2,195776	2020-11-19T14:40:19:271
0,965914	-1,568099	2,457624	2020-11-19T14:40:19:294
0,330659	-1,459209	2,276956	2020-11-19T14:40:19:314
-0,531814	-1,312120	1,899966	2020-11-19T14:40:19:334
-2,006423	-1,304459	1,675431	2020-11-19T14:40:19:351
-3,576749	-1,396270	1,730819	2020-11-19T14:40:19:375
-4,380364	-1,593798	1,864144	2020-11-19T14:40:19:392
-4,277620	-1,669560	1,920311	2020-11-19T14:40:19:414
-3,835961	-2,007798	2,270490	2020-11-19T14:40:19:431
-1,938386	-1,960706	2,245777	2020-11-19T14:40:19:454
0,357754	-1,675030	1,681703	2020-11-19T14:40:19:471
1,651382	-1,368783	0,965587	2020-11-19T14:40:19:495
1,118851	-1,271594	0,478640	2020-11-19T14:40:19:511
-0,481811	-1,028800	0,292099	2020-11-19T14:40:19:534
-2,065198	-0,763088	0,152179	2020-11-19T14:40:19:552
-3,163750	-0,561353	-0,228139	2020-11-19T14:40:19:574
-3,931927	-0,223487	-0,835423	2020-11-19T14:40:19:591
-4,002752	0,109871	-1,646847	2020-11-19T14:40:19:614
-2,914042	0,701629	-2,163368	2020-11-19T14:40:19:631
-1,576624	1,251363	-2,474948	2020-11-19T14:40:19:654
-0,630939	1,598646	-2,446901	2020-11-19T14:40:19:671
-0,012564	1,748897	-2,308143	2020-11-19T14:40:19:694
0,198044	1,642512	-2,238294	2020-11-19T14:40:19:711
0,272388	1,486302	-2,193013	2020-11-19T14:40:19:734
0,031468	1,626829	-2,148370	2020-11-19T14:40:19:751
-0,167247	1,753203	-2,519673	2020-11-19T14:40:19:774
-0,371683	2,132819	-2,373710	2020-11-19T14:40:19:795
-0,428766	2,664507	-1,701878	2020-11-19T14:40:19:814
-0,393364	3,137705	-1,664934	2020-11-19T14:40:19:831
-0,254418	3,568841	-1,764697	2020-11-19T14:40:19:854
-0,124648	3,655602	-1,703812	2020-11-19T14:40:19:871
-0,021642	3,582872	-1,377226	2020-11-19T14:40:19:895
0,180601	3,532793	-1,252451	2020-11-19T14:40:19:911
0,299151	3,733778	-1,321575	2020-11-19T14:40:19:934
0,179726	3,616092	-1,414996	2020-11-19T14:40:19:952
-0,164131	3,425570	-1,314933	2020-11-19T14:40:19:975
-0,361300	3,159807	-1,080174	2020-11-19T14:40:19:992
-0,730057	2,654248	-0,898686	2020-11-19T14:40:20:016
-1,641723	2,266610	-0,941756	2020-11-19T14:40:20:033
-1,994512	1,849810	-0,715824	2020-11-19T14:40:20:055
-1,861368	1,486433	-0,583893	2020-11-19T14:40:20:072
-1,695472	0,988854	-0,487648	2020-11-19T14:40:20:095
-2,190125	0,206455	-0,194662	2020-11-19T14:40:20:112
-2,409657	-0,260623	0,359442	2020-11-19T14:40:20:135
-2,106833	-0,693813	0,879382	2020-11-19T14:40:20:152
-1,586398	-1,135217	1,210798	2020-11-19T14:40:20:175
-0,968763	-1,349919	1,391343	2020-11-19T14:40:20:192
-0,413761	-1,345308	1,244409	2020-11-19T14:40:20:215
-0,191944	-1,147670	0,949009	2020-11-19T14:40:20:232
-0,300032	-1,107418	0,856302	2020-11-19T14:40:20:255
-0,237124	-1,215703	0,784693	2020-11-19T14:40:20:273
0,093423	-0,326045	0,443637	2020-11-19T14:40:20:295
-0,102922	-1,960678	2,145881	2020-11-19T14:40:20:312
0,679421	-2,382937	1,102564	2020-11-19T14:40:20:335
1,430441	-2,481700	0,103217	2020-11-19T14:40:20:352
1,336791	-1,671336	0,034548	2020-11-19T14:40:20:375
0,880266	-1,319868	-0,302445	2020-11-19T14:40:20:394
0,913507	-1,568071	-0,282895	2020-11-19T14:40:20:415
1,106005	-1,734309	0,064973	2020-11-19T14:40:20:432
1,001294	-1,861971	0,401276	2020-11-19T14:40:20:455
0,464755	-2,003334	0,488114	2020-11-19T14:40:20:472
0,210220	-1,929487	0,570303	2020-11-19T14:40:20:495
0,282664	-2,058838	0,792049	2020-11-19T14:40:20:513
-0,070596	-0,000485	0,993582	2020-11-19T14:40:20:535
-0,067096	0,262525	1,552376	2020-11-19T14:40:20:552
-0,037982	0,271178	1,617692	2020-11-19T14:40:20:575
-0,036341	0,195013	1,463014	2020-11-19T14:40:20:593
-0,101495	0,137807	1,089314	2020-11-19T14:40:20:615
-0,147597	0,290241	1,163725	2020-11-19T14:40:20:632
-0,207548	0,368692	1,301547	2020-11-19T14:40:20:655
0,469290	-1,794591	1,680884	2020-11-19T14:40:20:672
0,460153	-1,246416	1,790999	2020-11-19T14:40:20:696
0,524272	-1,007755	1,589523	2020-11-19T14:40:20:712
0,338284	-0,649121	1,285235	2020-11-19T14:40:20:735
-0,197258	-0,431981	0,950360	2020-11-19T14:40:20:753
-0,797658	-0,398687	0,730353	2020-11-19T14:40:20:775
-1,731297	-0,841760	0,300932	2020-11-19T14:40:20:793
-3,250466	-1,439447	-0,049412	2020-11-19T14:40:20:815
-4,220230	-1,964335	-0,371365	2020-11-19T14:40:20:833
-1,536423	-1,603959	-0,607981	2020-11-19T14:40:20:855
-0,065132	-1,188129	-0,705276	2020-11-19T14:40:20:872
-0,045380	-1,046155	-0,883246	2020-11-19T14:40:20:895
-0,994215	-0,779361	-1,061994	2020-11-19T14:40:20:913
-1,942577	-0,572843	-1,309826	2020-11-19T14:40:20:936
-1,842078	-0,761876	-1,398360	2020-11-19T14:40:20:953
-1,155283	-0,725187	-1,596328	2020-11-19T14:40:20:975
-0,502601	-0,447066	-1,890021	2020-11-19T14:40:20:994
-0,755248	0,058753	-2,378490	2020-11-19T14:40:21:015
-0,561655	0,466958	-2,368283	2020-11-19T14:40:21:033
0,045654	0,645121	-2,071280	2020-11-19T14:40:21:055
-0,164412	0,558734	-1,816065	2020-11-19T14:40:21:072
-0,848673	0,412407	-1,766612	2020-11-19T14:40:21:096
-1,209323	0,602968	-1,802262	2020-11-19T14:40:21:113
-1,152062	0,884174	-1,967205	2020-11-19T14:40:21:135
-1,164698	1,119601	-2,006486	2020-11-19T14:40:21:153
-1,294601	1,487461	-2,041109	2020-11-19T14:40:21:176
-0,982909	1,862518	-2,032807	2020-11-19T14:40:21:193
-0,490951	1,955742	-1,827771	2020-11-19T14:40:21:216
-0,212918	2,027572	-1,577163	2020-11-19T14:40:21:234
0,012033	1,920906	-1,344887	2020-11-19T14:40:21:256
0,072092	1,901694	-0,967318	2020-11-19T14:40:21:273
0,007504	2,048322	-0,692578	2020-11-19T14:40:21:296
-0,041348	2,272543	-0,626439	2020-11-19T14:40:21:313
-0,149878	2,514074	-0,420940	2020-11-19T14:40:21:336
-0,149570	2,743107	-0,403359	2020-11-19T14:40:21:353
-0,182234	3,153901	-0,180644	2020-11-19T14:40:21:376
-0,222223	3,152983	-0,090968	2020-11-19T14:40:21:393
-0,461562	3,337499	0,074241	2020-11-19T14:40:21:416
-1,238120	3,305263	0,259081	2020-11-19T14:40:21:433
-2,139704	3,097879	0,492025	2020-11-19T14:40:21:456
-2,928698	2,894619	0,363101	2020-11-19T14:40:21:475
-3,228983	2,815257	0,389324	2020-11-19T14:40:21:496
-2,702456	2,802675	0,533718	2020-11-19T14:40:21:514
-1,478237	2,948918	0,553529	2020-11-19T14:40:21:536
-0,337919	2,812403	0,479423	2020-11-19T14:40:21:553
-0,001226	2,247417	0,408190	2020-11-19T14:40:21:578
-0,618575	1,534356	0,800612	2020-11-19T14:40:21:594
-1,350116	1,609095	1,279680	2020-11-19T14:40:21:616
-1,651018	1,826249	1,237884	2020-11-19T14:40:21:634
-1,389441	1,676518	1,207384	2020-11-19T14:40:21:657
-0,540715	1,031758	0,733003	2020-11-19T14:40:21:673
-0,317691	0,960299	1,392059	2020-11-19T14:40:21:697
0,299851	-0,679912	0,846133	2020-11-19T14:40:21:715
1,125789	-0,826418	-0,014554	2020-11-19T14:40:21:736
0,392141	-0,596169	0,835550	2020-11-19T14:40:21:753
0,422177	1,764057	-0,926910	2020-11-19T14:40:21:776
-0,937033	1,080245	-0,587628	2020-11-19T14:40:21:794
-0,961452	1,035859	-0,553222	2020-11-19T14:40:21:817
-1,020568	1,919886	-0,718519	2020-11-19T14:40:21:833
-1,643338	2,755156	-0,573916	2020-11-19T14:40:21:856
-2,186921	2,706061	-0,714801	2020-11-19T14:40:21:874
-2,663496	2,648638	-0,722937	2020-11-19T14:40:21:897
-2,460402	2,458720	-0,497107	2020-11-19T14:40:21:913
-1,944825	2,269022	0,017094	2020-11-19T14:40:21:937
-1,952003	2,230737	0,337732	2020-11-19T14:40:21:954
-1,929694	2,144075	0,666114	2020-11-19T14:40:21:976
-1,852836	2,092857	0,875862	2020-11-19T14:40:21:994
-1,820441	2,208051	0,870600	2020-11-19T14:40:22:017
-1,787259	2,268994	0,944231	2020-11-19T14:40:22:034
-2,092453	2,495592	1,058150	2020-11-19T14:40:22:057
-2,702622	2,629591	1,240005	2020-11-19T14:40:22:073
-3,052809	2,750354	1,041775	2020-11-19T14:40:22:097
-3,441709	4,699053	2,009637	2020-11-19T14:40:22:114
-3,068981	3,637252	0,969039	2020-11-19T14:40:22:137
-3,252280	3,560467	0,643231	2020-11-19T14:40:22:154
-2,817696	3,220600	1,012705	2020-11-19T14:40:22:177
-2,358275	2,722893	1,240023	2020-11-19T14:40:22:195
-2,283486	3,044272	1,626087	2020-11-19T14:40:22:216
-2,235723	3,596957	1,683201	2020-11-19T14:40:22:234
-2,129390	4,350388	1,829487	2020-11-19T14:40:22:257
-1,787440	4,829080	1,769054	2020-11-19T14:40:22:274
-1,563243	5,251991	1,849574	2020-11-19T14:40:22:299
-1,438817	5,053387	1,851966	2020-11-19T14:40:22:314
-1,678296	4,712675	1,956332	2020-11-19T14:40:22:337
-1,785169	4,479136	2,023886	2020-11-19T14:40:22:354
-1,646175	4,117075	1,920207	2020-11-19T14:40:22:377
-1,385276	3,524195	1,829633	2020-11-19T14:40:22:394
-1,271852	3,171828	1,887904	2020-11-19T14:40:22:417
-1,453141	2,619601	1,713211	2020-11-19T14:40:22:435
-1,966639	2,357459	1,316224	2020-11-19T14:40:22:457
-2,925838	1,911944	0,801199	2020-11-19T14:40:22:474
-3,903484	1,153697	0,720171	2020-11-19T14:40:22:497
-4,364936	0,406287	0,671043	2020-11-19T14:40:22:514
-3,945451	0,007308	0,611256	2020-11-19T14:40:22:538
-3,029558	-0,015398	0,334980	2020-11-19T14:40:22:554
-2,140185	-0,056778	0,240098	2020-11-19T14:40:22:578
-1,733405	0,443322	0,347775	2020-11-19T14:40:22:595
-1,329832	0,517248	0,416654	2020-11-19T14:40:22:617
-1,098162	0,400844	0,304987	2020-11-19T14:40:22:634
-1,190182	-0,213892	0,072987	2020-11-19T14:40:22:657
-1,289567	-0,439232	0,073092	2020-11-19T14:40:22:675
-1,526006	-0,571037	0,325369	2020-11-19T14:40:22:698
-1,427005	-0,576089	0,778229	2020-11-19T14:40:22:714
-1,159163	-0,384181	0,966301	2020-11-19T14:40:22:737
-0,910662	-0,264406	1,137686	2020-11-19T14:40:22:754
-0,630602	-0,214566	1,296728	2020-11-19T14:40:22:778
-0,266690	-0,164232	1,709016	2020-11-19T14:40:22:794
-0,124333	-0,192806	2,268844	2020-11-19T14:40:22:817
0,045607	-0,130699	2,746481	2020-11-19T14:40:22:834
0,299591	-0,011970	3,025041	2020-11-19T14:40:22:858
0,387664	0,173252	3,244757	2020-11-19T14:40:22:874
0,503995	0,190648	3,705885	2020-11-19T14:40:22:899
0,571362	0,201043	4,041375	2020-11-19T14:40:22:916
0,379004	0,254310	4,142686	2020-11-19T14:40:22:937
0,445256	0,104939	4,052644	2020-11-19T14:40:22:955
0,490787	-0,035627	3,454024	2020-11-19T14:40:22:979
0,273040	0,134264	3,308062	2020-11-19T14:40:22:995
0,112947	-0,092514	2,929148	2020-11-19T14:40:23:018
-0,310583	-0,070979	3,278500	2020-11-19T14:40:23:035
-0,501455	-0,195096	3,068186	2020-11-19T14:40:23:058
-1,512970	-0,257285	3,027022	2020-11-19T14:40:23:075
-2,611638	-0,883733	2,941441	2020-11-19T14:40:23:099
-2,430362	-1,216294	2,450081	2020-11-19T14:40:23:115
-0,595575	-1,365612	1,707964	2020-11-19T14:40:23:138
0,731182	-1,550896	1,379114	2020-11-19T14:40:23:156
0,636209	-1,627381	1,415248	2020-11-19T14:40:23:178
-0,726915	-2,184423	2,136875	2020-11-19T14:40:23:195
-1,771686	-2,739727	2,595326	2020-11-19T14:40:23:218
-1,608060	-2,663072	2,505538	2020-11-19T14:40:23:235
-1,128592	-2,252044	2,449203	2020-11-19T14:40:23:259
-0,516031	-1,883550	2,128565	2020-11-19T14:40:23:275
0,294589	-1,020231	1,858490	2020-11-19T14:40:23:298
0,789519	-0,376554	1,927222	2020-11-19T14:40:23:315
0,971045	-0,174218	2,246921	2020-11-19T14:40:23:338
1,030419	0,229461	2,579719	2020-11-19T14:40:23:355
0,978116	0,764311	2,859776	2020-11-19T14:40:23:378
0,696601	1,379246	3,077497	2020-11-19T14:40:23:396
0,514454	2,133430	3,034428	2020-11-19T14:40:23:418
0,327199	2,693079	3,180581	2020-11-19T14:40:23:435
-0,131772	3,131882	3,194741	2020-11-19T14:40:23:458
-0,638899	3,475358	3,468496	2020-11-19T14:40:23:475
-0,861978	3,418543	3,545859	2020-11-19T14:40:23:499
-0,852533	3,312272	3,795517	2020-11-19T14:40:23:515
-0,334975	3,204947	4,190429	2020-11-19T14:40:23:539
-0,212642	2,485396	4,989941	2020-11-19T14:40:23:555
-0,443466	3,519789	5,513052	2020-11-19T14:40:23:579
-0,953005	4,346203	5,590244	2020-11-19T14:40:23:596
-1,644765	3,856596	5,579134	2020-11-19T14:40:23:619
-2,066261	2,572108	4,923136	2020-11-19T14:40:23:638
-2,284008	2,060044	4,834602	2020-11-19T14:40:23:659
-2,263515	1,494497	4,561928	2020-11-19T14:40:23:675
-2,206379	1,511734	4,313571	2020-11-19T14:40:23:699
-1,868992	1,807836	3,592640	2020-11-19T14:40:23:715
-2,498111	2,237019	2,809263	2020-11-19T14:40:23:739
-4,147347	2,257050	2,289613	2020-11-19T14:40:23:755
-5,994546	2,094414	1,643659	2020-11-19T14:40:23:778
-7,584794	1,759080	1,050813	2020-11-19T14:40:23:796
-7,213877	1,483770	0,328972	2020-11-19T14:40:23:819
-4,535992	1,519250	-0,631028	2020-11-19T14:40:23:835
-1,951751	1,443531	-1,031398	2020-11-19T14:40:23:859
-0,200700	1,425488	-1,097567	2020-11-19T14:40:23:877
0,521341	1,516974	-1,160199	2020-11-19T14:40:23:899
0,138382	1,596610	-1,434986	2020-11-19T14:40:23:915
-0,157050	1,697604	-1,763831	2020-11-19T14:40:23:939
0,156491	1,738838	-2,236143	2020-11-19T14:40:23:955
0,344967	1,716805	-2,587141	2020-11-19T14:40:23:979
0,040693	1,283655	-2,875707	2020-11-19T14:40:23:996
-0,400054	1,085121	-3,193842	2020-11-19T14:40:24:018
-0,610931	0,854783	-3,239089	2020-11-19T14:40:24:036
-0,742612	0,796872	-2,783258	2020-11-19T14:40:24:059
-0,534511	1,375339	-2,596403	2020-11-19T14:40:24:075
-0,180943	0,716575	-2,790479	2020-11-19T14:40:24:099
0,126889	-0,514209	-2,539634	2020-11-19T14:40:24:118
0,342244	-0,913810	-2,089784	2020-11-19T14:40:24:139
0,270684	-0,539046	-1,391100	2020-11-19T14:40:24:156
-0,011979	-0,063554	-0,826351	2020-11-19T14:40:24:179
-0,385785	0,203824	-0,208881	2020-11-19T14:40:24:196
-0,487103	-0,253709	0,101562	2020-11-19T14:40:24:219
-1,535875	3,306029	-0,116549	2020-11-19T14:40:24:236
-1,566316	4,372804	-0,161488	2020-11-19T14:40:24:259
-1,613275	5,095787	-0,116366	2020-11-19T14:40:24:276
-1,608767	5,791550	0,024189	2020-11-19T14:40:24:300
-1,471103	6,315023	-0,169402	2020-11-19T14:40:24:316
-1,183288	6,585825	-0,430133	2020-11-19T14:40:24:339
-0,916467	6,405431	-0,570067	2020-11-19T14:40:24:357
-0,758013	5,947802	-0,702850	2020-11-19T14:40:24:380
-0,528118	5,863877	-0,449169	2020-11-19T14:40:24:397
-1,194207	5,483335	0,322739	2020-11-19T14:40:24:419
-2,586367	4,689172	0,906818	2020-11-19T14:40:24:436
-2,949785	5,254304	0,984151	2020-11-19T14:40:24:459
-1,876986	5,704393	0,624835	2020-11-19T14:40:24:477
0,548905	1,131917	2,592896	2020-11-19T14:40:24:499
0,355117	0,150852	2,762345	2020-11-19T14:40:24:516
1,071897	-0,001926	2,615169	2020-11-19T14:40:24:539
1,968813	0,028332	2,500325	2020-11-19T14:40:24:556
1,605345	-0,544791	3,063440	2020-11-19T14:40:24:580
0,238601	-1,195971	2,943128	2020-11-19T14:40:24:598
-0,495808	-1,646053	2,289741	2020-11-19T14:40:24:619
-0,040512	-1,749768	1,876692	2020-11-19T14:40:24:636
1,728515	-1,799415	1,501479	2020-11-19T14:40:24:659
2,962384	-2,249403	1,862686	2020-11-19T14:40:24:676
3,607750	-3,228583	2,565160	2020-11-19T14:40:24:700
3,730434	-3,516148	2,361814	2020-11-19T14:40:24:716
3,637384	-3,928228	2,165396	2020-11-19T14:40:24:739
3,305143	-4,530098	1,869232	2020-11-19T14:40:24:757
2,899945	-4,551700	0,860800	2020-11-19T14:40:24:780
2,237418	-4,473268	0,290684	2020-11-19T14:40:24:797
1,854803	-3,999957	0,332876	2020-11-19T14:40:24:819
2,175364	-2,941581	-0,139527	2020-11-19T14:40:24:838
1,787321	-2,100365	-1,820963	2020-11-19T14:40:24:859
1,733138	-1,716725	-2,483274	2020-11-19T14:40:24:877
1,577225	-1,415425	-2,056541	2020-11-19T14:40:24:900
0,574461	-0,769622	-1,385260	2020-11-19T14:40:24:917
-0,364199	0,352142	-1,693120	2020-11-19T14:40:24:940
-1,170448	1,083202	-2,126677	2020-11-19T14:40:24:957
-1,944317	1,154773	-1,737237	2020-11-19T14:40:24:980
-3,586034	1,378911	-2,217906	2020-11-19T14:40:24:997
-5,106381	1,977612	-3,676793	2020-11-19T14:40:25:020
-6,272257	2,520379	-4,641687	2020-11-19T14:40:25:037
-4,891426	2,979587	-4,944575	2020-11-19T14:40:25:059
-2,165389	3,219411	-4,894563	2020-11-19T14:40:25:078
-0,483829	2,035990	-5,004675	2020-11-19T14:40:25:100
-0,275760	1,075665	-4,450339	2020-11-19T14:40:25:117
-0,116727	1,251789	-3,516940	2020-11-19T14:40:25:140
0,406910	0,845496	-2,334470	2020-11-19T14:40:25:158
0,956889	0,217247	-1,808229	2020-11-19T14:40:25:180
0,730993	-0,634336	-1,790447	2020-11-19T14:40:25:197
-0,076792	-1,575639	-1,443718	2020-11-19T14:40:25:220
-0,393182	-1,718902	-1,084231	2020-11-19T14:40:25:237
0,197691	-1,923615	-1,017544	2020-11-19T14:40:25:260
1,179542	-2,365507	-1,099334	2020-11-19T14:40:25:277
1,295273	-3,137226	-0,973129	2020-11-19T14:40:25:300
0,378507	-5,196793	-0,410450	2020-11-19T14:40:25:318
-0,457924	-6,064427	0,292543	2020-11-19T14:40:25:339
0,375385	-5,381919	0,398424	2020-11-19T14:40:25:358
1,079587	-4,606895	-0,067478	2020-11-19T14:40:25:380
0,340863	-4,029261	-1,005348	2020-11-19T14:40:25:397
-0,369539	-2,951424	-1,713588	2020-11-19T14:40:25:420
0,239963	-1,595323	-1,683523	2020-11-19T14:40:25:437
0,765402	-0,909328	-0,922672	2020-11-19T14:40:25:460
1,006153	-0,526991	-0,184081	2020-11-19T14:40:25:478
1,697297	-0,032426	0,294706	2020-11-19T14:40:25:501
1,991069	-0,054834	1,202449	2020-11-19T14:40:25:517
1,382970	-0,515190	2,311188	2020-11-19T14:40:25:540
1,112954	-0,586679	2,167053	2020-11-19T14:40:25:561
1,833430	-0,218200	1,357496	2020-11-19T14:40:25:580
3,353913	-1,165761	1,699669	2020-11-19T14:40:25:598
3,814380	-2,803898	3,181497	2020-11-19T14:40:25:620
-4,110228	-1,459693	3,288967	2020-11-19T14:40:25:637
-4,235073	-2,099713	2,666451	2020-11-19T14:40:25:661
-3,647368	-2,825966	1,666976	2020-11-19T14:40:25:677
3,570676	-5,459060	1,433782	2020-11-19T14:40:25:701
2,582485	-3,967468	1,213997	2020-11-19T14:40:25:718
2,600995	-2,300205	1,274736	2020-11-19T14:40:25:741
3,098307	-1,350650	0,560374	2020-11-19T14:40:25:757
3,486916	-1,593581	-0,860445	2020-11-19T14:40:25:781
3,044995	-1,950257	-2,295527	2020-11-19T14:40:25:799
2,777084	-2,875343	-2,757339	2020-11-19T14:40:25:820
2,566237	-2,375987	-2,163843	2020-11-19T14:40:25:837
1,844329	-0,872807	-0,100004	2020-11-19T14:40:25:861
0,559935	-0,288475	2,405002	2020-11-19T14:40:25:877
0,579350	-0,105165	2,146705	2020-11-19T14:40:25:901
1,515668	0,119180	1,779378	2020-11-19T14:40:25:918
2,397434	-1,642195	1,870578	2020-11-19T14:40:25:940
3,039169	-1,317692	2,096010	2020-11-19T14:40:25:958
2,776751	-0,006836	1,422987	2020-11-19T14:40:25:981
2,817407	-0,593453	0,928507	2020-11-19T14:40:25:998
2,826574	-1,824456	0,010736	2020-11-19T14:40:26:021
2,811403	-0,341306	-1,470527	2020-11-19T14:40:26:039
2,811401	-0,330606	-1,536554	2020-11-19T14:40:26:061
2,588930	-1,881352	-0,117166	2020-11-19T14:40:26:078
1,966370	-1,371529	0,639797	2020-11-19T14:40:26:101
1,526185	-0,815526	0,948484	2020-11-19T14:40:26:118
1,334264	-0,675392	0,690186	2020-11-19T14:40:26:141
1,534966	-0,135414	0,694027	2020-11-19T14:40:26:158
2,063694	0,425281	1,053421	2020-11-19T14:40:26:181
2,776674	-0,568971	1,789293	2020-11-19T14:40:26:198
2,172187	0,077116	0,828789	2020-11-19T14:40:26:222
1,073088	-0,045681	0,615633	2020-11-19T14:40:26:238
0,188200	0,246700	0,736691	2020-11-19T14:40:26:261
0,248439	0,442552	1,656753	2020-11-19T14:40:26:279
0,304131	-0,132057	2,269039	2020-11-19T14:40:26:301
0,189256	-0,299456	2,046693	2020-11-19T14:40:26:318
0,575404	-0,206976	1,426245	2020-11-19T14:40:26:341
1,160966	-0,058584	0,893944	2020-11-19T14:40:26:358
1,610836	-0,039006	0,653408	2020-11-19T14:40:26:381
1,737917	0,343228	0,464482	2020-11-19T14:40:26:398
1,578377	0,512721	0,551576	2020-11-19T14:40:26:421
1,485250	0,375392	0,505372	2020-11-19T14:40:26:438
1,055927	0,278948	0,561563	2020-11-19T14:40:26:462
1,128134	-0,091878	0,725847	2020-11-19T14:40:26:478
1,359912	0,002180	1,171353	2020-11-19T14:40:26:501
1,520831	0,852527	1,077045	2020-11-19T14:40:26:519
0,866588	2,047143	0,798609	2020-11-19T14:40:26:541
0,762780	1,655828	0,794816	2020-11-19T14:40:26:558
0,688710	1,197239	1,264498	2020-11-19T14:40:26:581
0,693691	0,530828	1,612427	2020-11-19T14:40:26:599
0,689339	-0,089115	2,011328	2020-11-19T14:40:26:621
0,786552	-0,144496	1,956718	2020-11-19T14:40:26:639
0,763321	0,620861	1,568138	2020-11-19T14:40:26:661
0,876876	0,884201	1,471490	2020-11-19T14:40:26:679
0,962465	0,954509	1,531822	2020-11-19T14:40:26:702
1,115543	0,851550	1,721091	2020-11-19T14:40:26:718
1,298979	0,373984	1,740679	2020-11-19T14:40:26:741
1,277838	0,341872	1,708163	2020-11-19T14:40:26:761
0,931521	1,299660	1,157660	2020-11-19T14:40:26:782
0,842987	1,991186	0,762846	2020-11-19T14:40:26:799
1,049795	2,263044	0,973739	2020-11-19T14:40:26:821
1,362945	1,444612	1,316103	2020-11-19T14:40:26:838
1,231933	1,059507	1,668287	2020-11-19T14:40:26:862
1,273713	0,741665	1,488003	2020-11-19T14:40:26:879
1,197147	1,613332	1,014675	2020-11-19T14:40:26:901
1,129592	2,663882	0,824427	2020-11-19T14:40:26:919
1,038271	2,350061	1,063091	2020-11-19T14:40:26:942
0,737482	1,243756	0,197041	2020-11-19T14:40:26:959
0,158645	-0,422433	-0,977181	2020-11-19T14:40:26:982
0,542826	-0,572777	-1,355494	2020-11-19T14:40:27:000
1,560734	-1,132443	-0,588704	2020-11-19T14:40:27:022
0,825088	-1,120849	0,279607	2020-11-19T14:40:27:039
0,020405	0,281955	0,295679	2020-11-19T14:40:27:062
-0,591462	1,253688	0,407384	2020-11-19T14:40:27:085
-0,776051	0,103976	0,601548	2020-11-19T14:40:27:102
-1,231997	0,225465	0,213799	2020-11-19T14:40:27:119
-0,902991	0,427311	0,209800	2020-11-19T14:40:27:141
-0,597875	0,313642	0,431426	2020-11-19T14:40:27:159
-0,579817	-0,127863	1,036975	2020-11-19T14:40:27:182
-1,148249	-0,289519	1,133403	2020-11-19T14:40:27:199
-1,719592	0,907489	0,515707	2020-11-19T14:40:27:222
-1,720660	1,010760	-0,195630	2020-11-19T14:40:27:240
-0,892800	1,166400	-0,625137	2020-11-19T14:40:27:262
-0,361361	0,936554	-1,075866	2020-11-19T14:40:27:279
-0,654631	-0,134459	-2,320653	2020-11-19T14:40:27:302
-1,138842	0,589872	-2,942120	2020-11-19T14:40:27:319
-1,347725	1,016348	-3,106635	2020-11-19T14:40:27:342
-1,658803	1,213773	-3,251710	2020-11-19T14:40:27:359
-2,043764	1,840853	-4,124159	2020-11-19T14:40:27:382
-2,398531	0,858238	-3,908615	2020-11-19T14:40:27:399
-3,623625	-0,800501	-2,870441	2020-11-19T14:40:27:422
-5,474008	-2,475558	-0,774052	2020-11-19T14:40:27:439
-7,657658	-1,005387	0,264326	2020-11-19T14:40:27:462
-9,163790	0,738659	0,772795	2020-11-19T14:40:27:481
-8,938875	0,077694	0,586817	2020-11-19T14:40:27:502
-7,276647	-1,184703	-0,187761	2020-11-19T14:40:27:519
-7,374402	0,146889	-0,393025	2020-11-19T14:40:27:542
-6,376505	0,359228	0,251095	2020-11-19T14:40:27:559
-4,839729	-1,530588	2,045069	2020-11-19T14:40:27:582
-2,541258	-1,270417	2,531468	2020-11-19T14:40:27:602
-1,991035	-0,493979	1,192337	2020-11-19T14:40:27:622
-2,109068	-0,446249	0,527478	2020-11-19T14:40:27:639
-1,771868	0,007848	0,596153	2020-11-19T14:40:27:663
-1,453438	0,076379	1,015097	2020-11-19T14:40:27:679
-1,210806	-1,260635	1,183917	2020-11-19T14:40:27:703
-0,487191	-1,861244	1,187378	2020-11-19T14:40:27:720
0,096457	0,090806	1,518562	2020-11-19T14:40:27:742
0,023663	1,913130	0,560407	2020-11-19T14:40:27:760
0,460674	1,902415	-0,220812	2020-11-19T14:40:27:782
0,820103	1,385960	-0,629673	2020-11-19T14:40:27:800
0,904293	1,762348	-0,686364	2020-11-19T14:40:27:823
0,811619	2,186772	-0,691774	2020-11-19T14:40:27:839
0,595909	2,015569	-1,026692	2020-11-19T14:40:27:862
0,581145	2,420982	-1,212508	2020-11-19T14:40:27:880
0,581149	2,408132	-1,480497	2020-11-19T14:40:27:904
0,628171	2,131608	-1,661422	2020-11-19T14:40:27:919
0,686599	1,764781	-2,124163	2020-11-19T14:40:27:943
0,712990	1,417336	-1,888973	2020-11-19T14:40:27:961
1,035362	0,781834	-1,402933	2020-11-19T14:40:27:982
1,197047	0,256581	-0,983036	2020-11-19T14:40:28:001
1,245152	-0,299655	-0,807623	2020-11-19T14:40:28:022
0,930361	-0,804868	-0,880872	2020-11-19T14:40:28:040
0,409440	-0,770191	-1,115301	2020-11-19T14:40:28:063
-0,404090	-0,658535	-1,463595	2020-11-19T14:40:28:080
-1,042331	-0,677484	-1,681504	2020-11-19T14:40:28:103
-1,164079	-0,852269	-1,902336	2020-11-19T14:40:28:120
-0,809947	-1,089338	-1,975446	2020-11-19T14:40:28:144
-0,306973	-1,276402	-1,817848	2020-11-19T14:40:28:160
0,223379	-1,109280	-1,526425	2020-11-19T14:40:28:183
0,982611	-0,844276	-1,042662	2020-11-19T14:40:28:201
0,575669	-0,493184	-0,888199	2020-11-19T14:40:28:223
-0,427070	1,198349	-1,332343	2020-11-19T14:40:28:240
0,668894	3,261116	-2,447650	2020-11-19T14:40:28:263
2,248537	3,248361	-2,084686	2020-11-19T14:40:28:280
2,290838	3,044497	-0,646175	2020-11-19T14:40:28:304
1,598168	4,165196	-0,099864	2020-11-19T14:40:28:320
1,746512	5,443161	-0,524248	2020-11-19T14:40:28:343
1,639708	4,516078	-0,915581	2020-11-19T14:40:28:360
0,183331	3,034704	-0,278475	2020-11-19T14:40:28:383
-0,032615	3,196877	-0,106021	2020-11-19T14:40:28:401
0,506516	2,971180	-0,228472	2020-11-19T14:40:28:423
0,668756	1,873184	0,056482	2020-11-19T14:40:28:441
0,691305	1,079546	0,704365	2020-11-19T14:40:28:463
0,583304	0,471921	1,071090	2020-11-19T14:40:28:481
0,564321	-0,060543	0,812551	2020-11-19T14:40:28:504
0,064557	1,286459	1,338023	2020-11-19T14:40:28:521
0,000614	0,224186	1,434969	2020-11-19T14:40:28:543
0,219106	-1,134783	1,136240	2020-11-19T14:40:28:561
0,388791	-1,142848	0,907276	2020-11-19T14:40:28:584
0,408342	-0,622418	0,610226	2020-11-19T14:40:28:601
0,731513	0,161777	0,487048	2020-11-19T14:40:28:624
1,228065	0,307699	0,851852	2020-11-19T14:40:28:641
1,831375	-0,377971	1,348321	2020-11-19T14:40:28:664
2,188782	-0,690952	1,512365	2020-11-19T14:40:28:681
2,070697	-1,138257	1,924437	2020-11-19T14:40:28:704
1,837004	-1,604032	2,339318	2020-11-19T14:40:28:721
1,198172	-2,192644	2,703877	2020-11-19T14:40:28:744
-0,192041	-2,556912	3,364780	2020-11-19T14:40:28:761
-1,821346	-3,253216	3,998425	2020-11-19T14:40:28:784
-2,775001	-3,729821	4,183459	2020-11-19T14:40:28:801
-3,133677	-4,080800	4,507105	2020-11-19T14:40:28:824
-2,712877	-4,202619	4,720438	2020-11-19T14:40:28:841
-1,841106	-3,707052	4,343818	2020-11-19T14:40:28:864
-1,125669	-2,577689	3,341512	2020-11-19T14:40:28:881
-1,038818	-1,582373	2,145932	2020-11-19T14:40:28:904
-1,233459	-0,808633	1,072595	2020-11-19T14:40:28:922
-1,075847	-0,886357	-0,111655	2020-11-19T14:40:28:944
-1,048577	-0,526061	-0,601212	2020-11-19T14:40:28:961
-0,498439	-0,821643	-0,811161	2020-11-19T14:40:28:983
-0,059284	-0,563665	-0,496581	2020-11-19T14:40:29:001
-0,223672	-0,479294	-0,314502	2020-11-19T14:40:29:024
-1,044876	-1,546749	-0,506258	2020-11-19T14:40:29:041
-2,205511	-2,855266	-0,896190	2020-11-19T14:40:29:065
-2,126548	-3,307509	-0,838763	2020-11-19T14:40:29:082
-1,727636	-3,680608	-1,664657	2020-11-19T14:40:29:104
-2,004961	-4,396434	-2,424518	2020-11-19T14:40:29:121
-2,219617	-4,345309	-3,260329	2020-11-19T14:40:29:144
-2,035564	-3,534674	-3,951334	2020-11-19T14:40:29:163
-2,208598	-2,681394	-4,298374	2020-11-19T14:40:29:184
-2,393029	-2,009942	-4,761430	2020-11-19T14:40:29:203
-2,086529	-1,583671	-5,288304	2020-11-19T14:40:29:223
-1,219438	-1,320594	-5,896324	2020-11-19T14:40:29:241
-0,501331	-1,011767	-5,835258	2020-11-19T14:40:29:264
-0,183365	-0,995855	-5,426087	2020-11-19T14:40:29:281
0,095831	-1,277552	-4,849879	2020-11-19T14:40:29:304
0,314270	-1,330863	-4,435964	2020-11-19T14:40:29:321
0,008707	-1,155399	-4,200560	2020-11-19T14:40:29:345
-0,056545	-0,815086	-4,031899	2020-11-19T14:40:29:361
0,354970	-0,510583	-3,749584	2020-11-19T14:40:29:385
0,654223	-0,136849	-3,587257	2020-11-19T14:40:29:402
0,853657	0,406447	-3,639457	2020-11-19T14:40:29:424
0,910155	0,723885	-3,575539	2020-11-19T14:40:29:442
0,809436	1,000730	-3,280890	2020-11-19T14:40:29:464
0,539301	1,070504	-2,870961	2020-11-19T14:40:29:482
0,006884	1,022703	-2,302997	2020-11-19T14:40:29:505
-0,380900	0,860652	-1,509043	2020-11-19T14:40:29:521
-0,666267	0,815416	-0,895793	2020-11-19T14:40:29:544
-1,104797	0,682711	-0,618374	2020-11-19T14:40:29:561
-2,171415	0,814996	-0,524792	2020-11-19T14:40:29:585
-3,151734	0,882926	-0,229952	2020-11-19T14:40:29:603
-3,186104	1,369716	0,304551	2020-11-19T14:40:29:624
-2,508429	1,915611	0,143673	2020-11-19T14:40:29:642
-1,993484	2,611434	0,019539	2020-11-19T14:40:29:664
-1,805089	3,022622	-0,038994	2020-11-19T14:40:29:681
-1,542190	3,283303	-0,004785	2020-11-19T14:40:29:704
-0,634959	3,838771	-0,080202	2020-11-19T14:40:29:721
0,362720	3,956155	-0,415682	2020-11-19T14:40:29:745
1,251310	3,614981	-0,430305	2020-11-19T14:40:29:763
1,747909	2,558757	0,133895	2020-11-19T14:40:29:784
1,322278	1,278705	0,689713	2020-11-19T14:40:29:803
0,548247	0,615431	1,069713	2020-11-19T14:40:29:825
0,216311	0,487546	0,808264	2020-11-19T14:40:29:842
0,150315	0,198709	0,650665	2020-11-19T14:40:29:865
-0,514360	0,551943	1,406280	2020-11-19T14:40:29:883
-0,729694	0,409347	0,239864	2020-11-19T14:40:29:905
-1,503537	-0,670053	1,636417	2020-11-19T14:40:29:922
-1,203707	-1,454263	0,877357	2020-11-19T14:40:29:945
-0,394601	-0,715674	0,612382	2020-11-19T14:40:29:962
0,152372	-0,393488	0,392367	2020-11-19T14:40:29:985
0,558486	-0,710281	0,454001	2020-11-19T14:40:30:002
0,744569	-0,863275	0,625896	2020-11-19T14:40:30:024
0,795092	-0,913538	0,686623	2020-11-19T14:40:30:043
0,692845	-0,887480	0,694947	2020-11-19T14:40:30:065
0,570530	-0,886649	0,634011	2020-11-19T14:40:30:082
0,535298	-0,888575	0,618631	2020-11-19T14:40:30:105
0,488590	-0,810997	0,687757	2020-11-19T14:40:30:123
0,727857	-0,565785	0,682257	2020-11-19T14:40:30:145
1,033204	-0,464933	0,872989	2020-11-19T14:40:30:162
1,204592	-0,555635	0,870167	2020-11-19T14:40:30:185
1,470195	-0,625027	0,810347	2020-11-19T14:40:30:202
1,431057	-0,812646	0,803793	2020-11-19T14:40:30:225
1,245960	-0,885362	0,750407	2020-11-19T14:40:30:242
1,026955	-0,687542	0,904369	2020-11-19T14:40:30:265
0,559438	-0,671386	0,898814	2020-11-19T14:40:30:282
0,129751	-0,880577	0,813833	2020-11-19T14:40:30:307
0,113002	-0,902113	0,636764	2020-11-19T14:40:30:322
-0,333568	-1,100426	0,413887	2020-11-19T14:40:30:345
-1,853233	-1,202456	0,430895	2020-11-19T14:40:30:363
-3,505992	-0,994817	0,131099	2020-11-19T14:40:30:385
-3,638121	-0,843953	0,105189	2020-11-19T14:40:30:404
-2,706373	-1,270873	0,022883	2020-11-19T14:40:30:425
-2,358689	-1,564710	0,101377	2020-11-19T14:40:30:442
-1,894402	-2,050726	0,396297	2020-11-19T14:40:30:465
-0,606397	-2,247021	0,340026	2020-11-19T14:40:30:482
0,349051	-2,433300	-0,000590	2020-11-19T14:40:30:506
-0,493800	-2,398327	-0,318045	2020-11-19T14:40:30:522
-2,155116	-2,060580	-0,443175	2020-11-19T14:40:30:545
-3,386480	-1,478606	-1,038952	2020-11-19T14:40:30:562
-3,301233	-0,709533	-1,662304	2020-11-19T14:40:30:586
-2,327757	0,052365	-2,339317	2020-11-19T14:40:30:604
-1,579475	-0,074646	-2,556584	2020-11-19T14:40:30:625
-1,458584	0,247027	-2,495319	2020-11-19T14:40:30:642
-1,127665	0,780926	-2,484691	2020-11-19T14:40:30:665
-0,559867	0,954103	-2,629193	2020-11-19T14:40:30:682
-0,411867	0,871230	-2,722328	2020-11-19T14:40:30:706
-0,456484	0,642131	-2,779316	2020-11-19T14:40:30:722
-0,499603	0,897658	-2,799204	2020-11-19T14:40:30:745
-0,684632	1,184137	-2,667137	2020-11-19T14:40:30:762
-0,801839	1,531891	-2,698911	2020-11-19T14:40:30:786
-0,752005	1,797845	-3,023673	2020-11-19T14:40:30:803
-0,661671	2,107742	-2,984942	2020-11-19T14:40:30:826
-0,291382	2,401778	-2,668767	2020-11-19T14:40:30:843
0,155892	2,486191	-2,236995	2020-11-19T14:40:30:865
0,493873	2,508461	-2,231986	2020-11-19T14:40:30:882
0,640901	2,520980	-2,079760	2020-11-19T14:40:30:906
0,783571	2,541703	-2,093117	2020-11-19T14:40:30:923
0,650388	2,443725	-2,087092	2020-11-19T14:40:30:946
0,171586	2,434848	-1,885313	2020-11-19T14:40:30:963
-0,380562	2,338687	-1,834845	2020-11-19T14:40:30:986
-0,473934	2,370872	-1,644503	2020-11-19T14:40:31:003
-0,566259	2,340059	-1,346178	2020-11-19T14:40:31:026
-0,381001	2,158108	-1,136951	2020-11-19T14:40:31:043
-0,491336	1,830385	-0,996063	2020-11-19T14:40:31:066
-0,878641	1,644801	-0,961450	2020-11-19T14:40:31:085
-1,518445	1,191510	-0,838422	2020-11-19T14:40:31:106
-2,351715	0,748681	-0,413082	2020-11-19T14:40:31:123
-2,649098	0,219314	0,112187	2020-11-19T14:40:31:147
-2,006927	-0,331527	0,836409	2020-11-19T14:40:31:163
-0,687021	-0,882715	1,412172	2020-11-19T14:40:31:186
0,603654	-1,426166	1,794621	2020-11-19T14:40:31:203
1,284767	-1,682460	2,012303	2020-11-19T14:40:31:227
1,252051	-1,466392	1,930662	2020-11-19T14:40:31:244
0,472140	-1,157977	1,468331	2020-11-19T14:40:31:266
-0,753632	-1,009987	0,985501	2020-11-19T14:40:31:283
-1,667447	-1,042274	0,844523	2020-11-19T14:40:31:307
-1,576317	-1,124787	0,937495	2020-11-19T14:40:31:326
-0,931762	-0,924036	1,052257	2020-11-19T14:40:31:347
-0,271343	-0,857037	0,994830	2020-11-19T14:40:31:363
0,049034	-1,315861	1,082911	2020-11-19T14:40:31:387
0,069075	-1,687490	1,187953	2020-11-19T14:40:31:404
0,272750	-1,991654	1,189212	2020-11-19T14:40:31:426
0,537964	-2,298599	1,454415	2020-11-19T14:40:31:443
0,698189	-2,304214	1,743060	2020-11-19T14:40:31:467
1,007985	-1,918208	1,646124	2020-11-19T14:40:31:484
1,275911	-1,278244	1,227662	2020-11-19T14:40:31:507
1,039099	-1,021362	1,280839	2020-11-19T14:40:31:523
0,599820	-0,902926	1,817868	2020-11-19T14:40:31:548
0,164879	-0,747473	2,102101	2020-11-19T14:40:31:565
-0,048962	-0,590033	2,319862	2020-11-19T14:40:31:587
-0,285123	-0,757831	2,401340	2020-11-19T14:40:31:604
-0,449413	-0,750966	2,494682	2020-11-19T14:40:31:627
-0,756570	-0,654382	2,773139	2020-11-19T14:40:31:644
-0,566709	-0,427472	2,969566	2020-11-19T14:40:31:667
-0,393542	0,070483	2,946254	2020-11-19T14:40:31:684
-0,088696	0,322459	2,551215	2020-11-19T14:40:31:708
0,008556	0,611580	2,099303	2020-11-19T14:40:31:724
-0,109405	0,787109	1,747603	2020-11-19T14:40:31:747
-0,363942	0,955719	1,505697	2020-11-19T14:40:31:764
-0,336056	1,050386	1,399261	2020-11-19T14:40:31:787
-0,409282	1,471363	1,645913	2020-11-19T14:40:31:805
-0,545863	1,525767	1,209446	2020-11-19T14:40:31:826
-0,189832	1,383086	0,376742	2020-11-19T14:40:31:844
0,275517	1,570865	-0,542794	2020-11-19T14:40:31:867
0,110408	1,397834	-0,778394	2020-11-19T14:40:31:884
0,013699	0,389715	-0,288453	2020-11-19T14:40:31:907
-0,317233	-0,111167	0,105637	2020-11-19T14:40:31:924
-0,754815	0,268049	-0,118585	2020-11-19T14:40:31:947
-1,264424	0,670854	-0,550014	2020-11-19T14:40:31:964
-1,581176	0,789052	-0,822124	2020-11-19T14:40:31:987
-1,844377	1,060086	-1,078301	2020-11-19T14:40:32:004
-1,921402	1,602726	-1,258445	2020-11-19T14:40:32:027
-1,940372	2,076283	-1,008644	2020-11-19T14:40:32:045
-1,865143	2,082421	-1,114881	2020-11-19T14:40:32:067
-1,633328	2,034195	-1,227229	2020-11-19T14:40:32:084
-1,596871	2,096784	-1,337349	2020-11-19T14:40:32:108
-1,868498	2,021791	-0,996990	2020-11-19T14:40:32:124
-2,069759	1,649505	-0,788651	2020-11-19T14:40:32:147
-2,259768	1,272620	-0,837445	2020-11-19T14:40:32:164
-2,599800	1,065341	-0,773113	2020-11-19T14:40:32:188
-2,840375	0,847672	-0,554665	2020-11-19T14:40:32:205
-2,662216	0,973401	-0,327863	2020-11-19T14:40:32:227
-2,468779	1,172421	-0,167057	2020-11-19T14:40:32:244
-2,208460	1,650039	0,182903	2020-11-19T14:40:32:268
-1,839609	2,418547	0,022910	2020-11-19T14:40:32:285
-1,349269	3,140681	-0,695542	2020-11-19T14:40:32:307
-0,562095	3,993571	-1,007401	2020-11-19T14:40:32:324
0,636714	4,426508	-1,100504	2020-11-19T14:40:32:348
1,354331	4,280873	-1,042644	2020-11-19T14:40:32:364
1,426860	3,067508	-1,003639	2020-11-19T14:40:32:389
0,978623	1,700579	-1,051712	2020-11-19T14:40:32:405
0,551418	0,752915	-1,266253	2020-11-19T14:40:32:428
-0,181101	-0,016135	-1,422196	2020-11-19T14:40:32:444
-1,003438	-0,589986	-1,262206	2020-11-19T14:40:32:468
-1,744980	-0,978378	-0,870984	2020-11-19T14:40:32:485
-1,865671	-1,380165	-0,463422	2020-11-19T14:40:32:509
-1,477093	-1,385320	-0,749517	2020-11-19T14:40:32:525
-1,181764	-1,689508	-1,138078	2020-11-19T14:40:32:547
-1,265247	-1,998724	-1,558163	2020-11-19T14:40:32:565
-1,102777	-2,074009	-2,244867	2020-11-19T14:40:32:589
-1,038461	-2,402669	-2,849910	2020-11-19T14:40:32:605
-0,971272	-3,014118	-3,333899	2020-11-19T14:40:32:627
-0,888228	-3,619967	-3,597221	2020-11-19T14:40:32:644
-0,589980	-3,688501	-4,560380	2020-11-19T14:40:32:668
-0,146778	-3,148646	-3,612204	2020-11-19T14:40:32:685
0,490337	-3,866938	-2,252026	2020-11-19T14:40:32:708
0,649313	-4,524770	-2,472925	2020-11-19T14:40:32:725
0,781377	-3,800286	-2,900676	2020-11-19T14:40:32:748
0,882900	-2,774993	-2,862689	2020-11-19T14:40:32:765
1,001630	-2,052654	-2,693042	2020-11-19T14:40:32:787
1,328027	-1,636331	-2,281102	2020-11-19T14:40:32:805
1,767446	-1,023563	-1,631998	2020-11-19T14:40:32:828
2,001469	-0,394873	-1,063668	2020-11-19T14:40:32:845
2,029375	-0,124265	-0,859210	2020-11-19T14:40:32:868
1,838921	0,321982	-0,613541	2020-11-19T14:40:32:885
1,540988	0,595881	-0,235737	2020-11-19T14:40:32:909
1,398012	0,557924	0,089574	2020-11-19T14:40:32:925
1,386030	0,692510	0,279399	2020-11-19T14:40:32:948
1,308092	0,889586	0,080612	2020-11-19T14:40:32:965
1,035368	1,016279	-0,393509	2020-11-19T14:40:32:988
0,631760	0,792241	-0,838254	2020-11-19T14:40:33:006
0,132382	0,451055	-1,295549	2020-11-19T14:40:33:027
-0,429932	0,089784	-1,515113	2020-11-19T14:40:33:046
-1,160001	-0,493573	-2,120081	2020-11-19T14:40:33:070
-2,794362	-1,448621	-2,807138	2020-11-19T14:40:33:085
-5,441163	-2,717330	-3,165221	2020-11-19T14:40:33:108
-7,035513	-4,416151	-3,164534	2020-11-19T14:40:33:127
-6,592388	-5,867949	-2,956271	2020-11-19T14:40:33:148
-4,849097	-6,996962	-2,624756	2020-11-19T14:40:33:165
-3,095049	-8,050379	-2,268974	2020-11-19T14:40:33:188
-2,163442	-8,913094	-2,304632	2020-11-19T14:40:33:205
-2,089442	-9,565308	-2,464270	2020-11-19T14:40:33:228
-2,533719	-9,683427	-2,673203	2020-11-19T14:40:33:245
-2,729119	-9,993376	-2,944042	2020-11-19T14:40:33:267
-2,516028	-9,520876	-3,451998	2020-11-19T14:40:33:285
-1,847324	-8,145623	-3,632311	2020-11-19T14:40:33:309
-1,332749	-6,648701	-3,572062	2020-11-19T14:40:33:325
-0,618923	-5,567034	-3,177649	2020-11-19T14:40:33:348
0,053777	-4,625547	-2,456839	2020-11-19T14:40:33:365
0,701505	-3,984951	-1,838351	2020-11-19T14:40:33:388
1,295195	-3,892074	-1,534458	2020-11-19T14:40:33:405
1,742241	-3,957184	-1,317610	2020-11-19T14:40:33:428
2,067495	-4,091476	-1,131166	2020-11-19T14:40:33:445
2,001221	-4,119944	-0,638754	2020-11-19T14:40:33:468
1,618693	-3,991026	-0,330459	2020-11-19T14:40:33:486
1,595693	-3,338265	0,184842	2020-11-19T14:40:33:508
1,333728	-2,658331	0,988993	2020-11-19T14:40:33:525
0,970447	-1,752599	2,091554	2020-11-19T14:40:33:548
0,699530	-0,838606	2,528250	2020-11-19T14:40:33:565
0,632448	0,142092	2,446364	2020-11-19T14:40:33:588
0,635578	0,496570	2,787463	2020-11-19T14:40:33:605
0,327040	0,714704	3,584866	2020-11-19T14:40:33:629
-0,161799	0,923842	4,478897	2020-11-19T14:40:33:656
-0,689723	1,483207	4,853778	2020-11-19T14:40:33:668
-0,969000	1,891330	4,426610	2020-11-19T14:40:33:685
-1,266031	3,619985	4,078808	2020-11-19T14:40:33:710
-1,625754	4,241457	3,853946	2020-11-19T14:40:33:726
-2,310721	3,589692	3,646730	2020-11-19T14:40:33:748
-2,381630	3,084129	3,188599	2020-11-19T14:40:33:765
-2,360856	2,987289	2,654089	2020-11-19T14:40:33:789
-2,377320	2,744384	2,344138	2020-11-19T14:40:33:806
-2,409865	2,426932	2,127842	2020-11-19T14:40:33:828
-2,645452	1,875006	1,948324	2020-11-19T14:40:33:845
-2,945777	1,241191	1,713309	2020-11-19T14:40:33:869
-3,218158	0,269791	1,709474	2020-11-19T14:40:33:885
-2,586506	-0,749888	1,987148	2020-11-19T14:40:33:909
-0,837963	-1,280992	1,563303	2020-11-19T14:40:33:925
0,369589	-1,418796	0,944006	2020-11-19T14:40:33:949
0,328052	-1,550513	0,317579	2020-11-19T14:40:33:966
-0,769964	-1,334828	0,188499	2020-11-19T14:40:33:988
-1,974501	-1,294482	0,052038	2020-11-19T14:40:34:006
-3,013478	-0,994638	-0,265547	2020-11-19T14:40:34:029
-3,394372	-0,869480	-0,872126	2020-11-19T14:40:34:046
-3,290685	-0,517921	-1,581158	2020-11-19T14:40:34:068
-2,697572	-0,295707	-2,085136	2020-11-19T14:40:34:085
-1,947067	0,017600	-2,406588	2020-11-19T14:40:34:109
-1,381306	0,571032	-2,625162	2020-11-19T14:40:34:126
-0,965556	0,864223	-2,648343	2020-11-19T14:40:34:149
-0,625338	1,180015	-2,570675	2020-11-19T14:40:34:165
-0,429994	1,161372	-2,560675	2020-11-19T14:40:34:189
-0,262247	1,090787	-2,523036	2020-11-19T14:40:34:207
-0,138979	1,075101	-2,653975	2020-11-19T14:40:34:228
-0,233491	1,349298	-2,556979	2020-11-19T14:40:34:246
-0,484795	1,856675	-2,335169	2020-11-19T14:40:34:270
-0,465652	2,220384	-2,354312	2020-11-19T14:40:34:286
-0,511574	2,855016	-2,326897	2020-11-19T14:40:34:309
-0,408842	3,279696	-2,341202	2020-11-19T14:40:34:326
-0,465106	3,674163	-2,354511	2020-11-19T14:40:34:349
-0,557922	3,951196	-2,174854	2020-11-19T14:40:34:366
-0,731083	4,190958	-1,747481	2020-11-19T14:40:34:390
-0,628848	4,327009	-1,472689	2020-11-19T14:40:34:406
-0,316542	4,565781	-1,350073	2020-11-19T14:40:34:430
-0,412013	4,744952	-1,259073	2020-11-19T14:40:34:447
-0,592876	4,544023	-0,892714	2020-11-19T14:40:34:468
-0,998100	4,436508	-0,352638	2020-11-19T14:40:34:487
-1,496304	4,316718	-0,022270	2020-11-19T14:40:34:510
-1,986547	4,134349	-0,005961	2020-11-19T14:40:34:526
-2,068893	3,806588	-0,359857	2020-11-19T14:40:34:549
-1,831587	3,444646	-0,583627	2020-11-19T14:40:34:566
-2,015488	2,280822	0,165633	2020-11-19T14:40:34:590
-1,924914	0,733608	1,541810	2020-11-19T14:40:34:607
-1,282145	0,307963	2,761369	2020-11-19T14:40:34:629
-0,935616	0,379600	3,276663	2020-11-19T14:40:34:646
-0,930258	-0,114502	3,009748	2020-11-19T14:40:34:670
-1,193094	-0,842220	2,018423	2020-11-19T14:40:34:688
-1,745122	-0,919553	-0,067802	2020-11-19T14:40:34:709
-2,413452	-0,961671	0,383852	2020-11-19T14:40:34:726
-2,146896	-1,193777	0,363683	2020-11-19T14:40:34:750
-1,343894	-2,191809	0,703717	2020-11-19T14:40:34:766
0,045794	-2,800715	0,244868	2020-11-19T14:40:34:789
0,938688	-2,933981	-0,451257	2020-11-19T14:40:34:807
0,732652	-3,010957	-0,801031	2020-11-19T14:40:34:830
0,393628	-3,362765	-0,777133	2020-11-19T14:40:34:846
0,309893	-3,502744	-0,535882	2020-11-19T14:40:34:870
0,259644	-3,785097	-0,777557	2020-11-19T14:40:34:886
-0,510928	-1,573549	-1,365191	2020-11-19T14:40:34:911
-1,462861	0,472244	-1,271091	2020-11-19T14:40:34:927
-0,712850	0,290051	-0,340445	2020-11-19T14:40:34:949
-0,234076	0,093830	0,806372	2020-11-19T14:40:34:966
-0,627205	0,421829	1,993636	2020-11-19T14:40:34:990
-1,039027	0,699385	3,259472	2020-11-19T14:40:35:007
-1,362591	1,230887	4,016438	2020-11-19T14:40:35:029
-1,413427	2,027040	4,240977	2020-11-19T14:40:35:047
-1,066659	2,604347	4,090393	2020-11-19T14:40:35:071
-0,947018	2,764666	3,482617	2020-11-19T14:40:35:087
-1,543387	2,761761	3,265765	2020-11-19T14:40:35:111
-1,976488	2,826367	3,363871	2020-11-19T14:40:35:127
-1,914342	2,921531	3,335557	2020-11-19T14:40:35:150
-2,162170	3,349429	2,983269	2020-11-19T14:40:35:168
-2,313987	4,504472	2,907927	2020-11-19T14:40:35:189
-2,090848	4,401262	3,206598	2020-11-19T14:40:35:207
-2,029710	3,299138	3,568248	2020-11-19T14:40:35:230
-2,268697	2,436185	3,386332	2020-11-19T14:40:35:247
-2,583631	1,630751	3,149323	2020-11-19T14:40:35:270
-2,432615	0,552380	2,761676	2020-11-19T14:40:35:287
-1,777366	-0,066345	2,014590	2020-11-19T14:40:35:311
-0,762464	-1,856508	1,387860	2020-11-19T14:40:35:327
-0,667072	-1,551854	0,438794	2020-11-19T14:40:35:350
-2,055981	-1,573020	-0,092049	2020-11-19T14:40:35:367
-4,618279	-0,813934	-0,726145	2020-11-19T14:40:35:391
-5,282005	-0,489693	-1,361345	2020-11-19T14:40:35:408
-4,346028	-0,573262	-1,836212	2020-11-19T14:40:35:430
-3,092265	-1,133961	-2,265319	2020-11-19T14:40:35:447
-3,105506	-1,275014	-2,339553	2020-11-19T14:40:35:471
-3,345417	-0,762119	-2,794501	2020-11-19T14:40:35:487
-1,796952	0,051240	-3,316553	2020-11-19T14:40:35:510
-0,630094	0,561790	-3,464830	2020-11-19T14:40:35:527
-0,085496	0,607492	-3,238737	2020-11-19T14:40:35:551
0,097569	0,937111	-2,972108	2020-11-19T14:40:35:567
0,001188	1,304079	-2,816435	2020-11-19T14:40:35:590
-0,345382	1,687284	-2,876138	2020-11-19T14:40:35:608
-0,379385	2,230937	-2,944004	2020-11-19T14:40:35:631
-0,050590	3,062040	-3,170965	2020-11-19T14:40:35:648
-0,069737	3,459074	-3,142188	2020-11-19T14:40:35:670
-0,440366	3,794478	-2,647158	2020-11-19T14:40:35:687
-0,574181	3,949043	-2,328691	2020-11-19T14:40:35:711
-0,201689	4,139769	-2,378831	2020-11-19T14:40:35:727
0,166480	4,335063	-2,375147	2020-11-19T14:40:35:750
0,291140	4,579668	-2,158099	2020-11-19T14:40:35:767
0,213335	4,489893	-1,860389	2020-11-19T14:40:35:791
0,169810	4,239378	-1,635172	2020-11-19T14:40:35:807
-0,117325	3,916310	-1,304277	2020-11-19T14:40:35:830
-0,617599	3,599074	-0,924899	2020-11-19T14:40:35:847
-0,968523	3,099488	-0,558629	2020-11-19T14:40:35:871
-1,339606	2,489150	-0,382833	2020-11-19T14:40:35:888
-1,222754	2,009683	-0,289829	2020-11-19T14:40:35:911
-1,088889	1,630834	-0,163240	2020-11-19T14:40:35:927
-1,805740	1,432630	-0,175733	2020-11-19T14:40:35:951
-3,052074	1,111559	-0,128782	2020-11-19T14:40:35:968
-2,933175	0,398772	0,311458	2020-11-19T14:40:35:990
-1,157587	0,042970	0,788153	2020-11-19T14:40:36:008
0,413617	-0,125437	1,003956	2020-11-19T14:40:36:031
0,413698	-0,433186	1,092784	2020-11-19T14:40:36:047
-0,520158	-0,755740	0,993039	2020-11-19T14:40:36:071
-0,881517	-0,683844	0,940327	2020-11-19T14:40:36:087
-1,113153	-0,704621	1,135139	2020-11-19T14:40:36:111
-1,594567	-1,048577	1,544133	2020-11-19T14:40:36:128
-1,426745	-1,439453	1,737134	2020-11-19T14:40:36:150
-0,738274	-1,516408	1,681326	2020-11-19T14:40:36:168
-0,093389	-1,443971	1,613950	2020-11-19T14:40:36:192
0,330142	-1,403294	1,932195	2020-11-19T14:40:36:208
0,757317	-1,565721	2,064684	2020-11-19T14:40:36:231
1,062165	-1,772256	2,287404	2020-11-19T14:40:36:247
1,320046	-1,880777	2,519908	2020-11-19T14:40:36:271
1,210925	-2,107525	2,725112	2020-11-19T14:40:36:288
1,059146	-2,154528	2,965780	2020-11-19T14:40:36:311
0,765033	-1,990154	3,291536	2020-11-19T14:40:36:327
0,533783	-1,580076	3,439726	2020-11-19T14:40:36:352
0,374725	-1,238895	3,336112	2020-11-19T14:40:36:369
0,325821	-0,989720	3,272456	2020-11-19T14:40:36:390
0,267405	-0,750404	3,170774	2020-11-19T14:40:36:408
0,356592	-0,644218	2,780271	2020-11-19T14:40:36:432
0,254307	-0,522349	2,411339	2020-11-19T14:40:36:448
-0,406042	-0,451947	2,013028	2020-11-19T14:40:36:471
-1,052754	-0,414167	1,985173	2020-11-19T14:40:36:488
-0,845559	-0,437390	1,836539	2020-11-19T14:40:36:513
0,197821	-0,250610	1,587785	2020-11-19T14:40:36:528
1,073800	-0,112707	1,254978	2020-11-19T14:40:36:551
1,176628	-0,055863	0,505411	2020-11-19T14:40:36:568
-0,040247	0,048082	0,105869	2020-11-19T14:40:36:592
-1,830465	-0,272711	0,347624	2020-11-19T14:40:36:610
-3,034055	-0,832631	1,386109	2020-11-19T14:40:36:631
-3,715149	-0,830237	2,272175	2020-11-19T14:40:36:648
-3,054096	-0,681060	1,481199	2020-11-19T14:40:36:672
-2,527062	-0,970117	0,542621	2020-11-19T14:40:36:688
-2,070290	-1,530985	0,683683	2020-11-19T14:40:36:711
-1,542769	-1,426857	1,130862	2020-11-19T14:40:36:728
-0,785600	-0,957597	1,284160	2020-11-19T14:40:36:752
-0,219042	-0,813363	1,051260	2020-11-19T14:40:36:768
0,170012	-0,755099	0,798281	2020-11-19T14:40:36:791
0,495175	-0,966838	0,649601	2020-11-19T14:40:36:808
0,509545	-0,809863	0,848896	2020-11-19T14:40:36:832
0,195228	-0,448576	0,936969	2020-11-19T14:40:36:849
-0,227138	0,022953	0,296072	2020-11-19T14:40:36:871
-0,630671	0,185451	-0,540463	2020-11-19T14:40:36:889
-1,214774	0,088611	-0,849841	2020-11-19T14:40:36:913
-1,865986	0,046096	-0,938656	2020-11-19T14:40:36:928
-2,255649	0,028707	-0,925325	2020-11-19T14:40:36:951
-2,448119	0,241063	-1,780522	2020-11-19T14:40:36:968
-1,852496	0,534421	-2,226222	2020-11-19T14:40:36:992
-1,118910	0,667076	-2,377822	2020-11-19T14:40:37:009
-0,675435	0,478786	-2,421621	2020-11-19T14:40:37:031
-0,692248	0,379366	-2,222658	2020-11-19T14:40:37:048
-1,021291	0,374242	-1,993229	2020-11-19T14:40:37:072
-1,464931	0,699496	-2,369184	2020-11-19T14:40:37:098
-1,389959	1,105313	-2,754129	2020-11-19T14:40:37:111
-1,046158	1,346285	-2,967685	2020-11-19T14:40:37:129
-0,624042	1,501084	-2,726362	2020-11-19T14:40:37:153
-0,175164	1,747195	-2,602015	2020-11-19T14:40:37:169
0,205631	2,205094	-2,909159	2020-11-19T14:40:37:192
0,175577	2,399931	-3,310757	2020-11-19T14:40:37:209
-0,089061	2,544638	-3,248021	2020-11-19T14:40:37:233
-0,087112	2,786825	-2,933912	2020-11-19T14:40:37:249
0,095121	2,945398	-2,646139	2020-11-19T14:40:37:272
0,263078	2,911077	-2,547276	2020-11-19T14:40:37:289
-0,020470	2,181541	-1,999647	2020-11-19T14:40:37:313
-0,706177	1,752918	-1,387524	2020-11-19T14:40:37:330
-0,986550	1,993618	-1,096011	2020-11-19T14:40:37:352
-1,100488	2,239484	-1,310718	2020-11-19T14:40:37:369
-1,058703	1,971457	-1,349940	2020-11-19T14:40:37:393
-0,480429	1,475059	-0,977349	2020-11-19T14:40:37:409
-0,180262	1,457855	-0,714535	2020-11-19T14:40:37:432
-0,106038	1,415045	-0,730295	2020-11-19T14:40:37:449
0,466588	1,060054	-0,973108	2020-11-19T14:40:37:473
0,607700	0,280363	-0,906139	2020-11-19T14:40:37:490
0,372445	-0,270327	-0,591923	2020-11-19T14:40:37:512
-0,092032	-0,097874	0,807189	2020-11-19T14:40:37:530
-0,275014	-0,026368	0,712525	2020-11-19T14:40:37:553
-0,134950	0,109967	-0,305473	2020-11-19T14:40:37:570
-0,317632	-0,300387	-0,875246	2020-11-19T14:40:37:592
-0,717765	-1,398633	-0,709387	2020-11-19T14:40:37:610
-1,142905	-2,271779	-0,123083	2020-11-19T14:40:37:633
-1,450724	-2,698546	0,464754	2020-11-19T14:40:37:649
-1,377733	-3,007114	0,831735	2020-11-19T14:40:37:672
-1,102524	-3,339266	1,261805	2020-11-19T14:40:37:689
-0,846847	-3,365233	1,337912	2020-11-19T14:40:37:713
-0,668457	-3,453588	1,449820	2020-11-19T14:40:37:729
-0,362126	-3,337675	1,625443	2020-11-19T14:40:37:752
-0,289227	-3,137179	2,114100	2020-11-19T14:40:37:769
-1,106473	-2,576557	2,551176	2020-11-19T14:40:37:793
-1,028145	-2,467485	1,915626	2020-11-19T14:40:37:810
0,212432	-2,674489	1,505899	2020-11-19T14:40:37:832
0,727428	-2,655076	1,529405	2020-11-19T14:40:37:849
0,276762	-2,183416	2,122508	2020-11-19T14:40:37:873
-0,058576	-2,006161	2,319205	2020-11-19T14:40:37:889
0,403765	-2,049197	2,122623	2020-11-19T14:40:37:913
0,659129	-2,789803	2,169231	2020-11-19T14:40:37:930
0,380635	-3,176848	2,634557	2020-11-19T14:40:37:953
0,178988	-3,340169	2,959477	2020-11-19T14:40:37:970
0,502156	-3,415347	3,218522	2020-11-19T14:40:37:992
0,878579	-3,247966	3,564111	2020-11-19T14:40:38:010
0,882743	-2,959117	3,652480	2020-11-19T14:40:38:033
0,607125	-2,629881	3,509292	2020-11-19T14:40:38:050
-0,110697	-2,627352	3,496996	2020-11-19T14:40:38:072
-0,440721	-2,305825	3,506598	2020-11-19T14:40:38:090
-0,337970	-1,803201	3,492883	2020-11-19T14:40:38:113
-0,184296	-1,376544	3,481164	2020-11-19T14:40:38:130
-0,738217	-1,149598	3,496009	2020-11-19T14:40:38:152
-1,855314	-0,958875	3,988872	2020-11-19T14:40:38:169
-3,475261	-0,428727	4,410683	2020-11-19T14:40:38:194
-3,903576	-0,407191	4,628430	2020-11-19T14:40:38:211
-2,609962	-0,898584	4,256582	2020-11-19T14:40:38:233
-1,132268	-1,209301	3,705566	2020-11-19T14:40:38:250
0,022867	-0,945892	3,313086	2020-11-19T14:40:38:273
0,760812	-0,544969	3,083859	2020-11-19T14:40:38:291
0,992959	0,276976	2,876125	2020-11-19T14:40:38:312
1,068907	0,706363	2,060941	2020-11-19T14:40:38:330
0,931058	0,905966	1,316154	2020-11-19T14:40:38:353
0,334551	0,855528	0,867138	2020-11-19T14:40:38:370
-0,418934	0,925807	0,545015	2020-11-19T14:40:38:393
