x	y	z	ts
-2,055435	4,043870	8,327023	2020-11-19T14:39:52:956
-2,053042	4,199404	8,343772	2020-11-19T14:39:52:958
-2,079363	3,988836	8,293523	2020-11-19T14:39:52:958
-2,014757	3,888337	8,271988	2020-11-19T14:39:52:958
-1,938186	4,108476	8,415558	2020-11-19T14:39:52:959
-1,993221	4,115655	8,453842	2020-11-19T14:39:52:959
-2,021935	4,101298	8,456236	2020-11-19T14:39:52:960
-2,309074	4,118048	8,362915	2020-11-19T14:39:52:960
-2,443072	3,921836	8,274381	2020-11-19T14:39:52:961
-2,012364	4,331009	7,917850	2020-11-19T14:39:52:965
-1,933401	4,086941	7,759924	2020-11-19T14:39:52:985
-1,624727	3,852444	7,544570	2020-11-19T14:39:53:005
-1,270589	3,981657	7,645068	2020-11-19T14:39:53:026
-1,354338	4,402793	7,618747	2020-11-19T14:39:53:044
-1,813759	4,558327	7,372287	2020-11-19T14:39:53:067
-2,335395	4,591826	7,475177	2020-11-19T14:39:53:085
-3,144169	3,684947	7,676175	2020-11-19T14:39:53:106
-3,917051	2,349752	7,353144	2020-11-19T14:39:53:124
-4,161119	1,813759	6,498906	2020-11-19T14:39:53:145
-4,338188	1,172483	5,173282	2020-11-19T14:39:53:164
-4,271189	0,189033	3,610770	2020-11-19T14:39:53:186
-4,060620	-1,026521	2,179861	2020-11-19T14:39:53:204
-3,869194	-2,292324	1,258625	2020-11-19T14:39:53:226
-3,725625	-3,259024	0,545564	2020-11-19T14:39:53:244
-3,900301	-3,440879	0,344566	2020-11-19T14:39:53:265
-4,063013	-4,460221	0,619741	2020-11-19T14:39:53:284
-4,247260	-5,919843	0,411566	2020-11-19T14:39:53:306
-4,680361	-6,065805	-0,708275	2020-11-19T14:39:53:324
-5,682954	-5,240282	-3,285345	2020-11-19T14:39:53:347
-6,419943	-5,398208	-7,456036	2020-11-19T14:39:53:383
-6,326623	-7,164111	-11,837293	2020-11-19T14:39:53:389
-5,091926	-12,002398	-12,842279	2020-11-19T14:39:53:407
-4,503292	-15,495919	-9,966106	2020-11-19T14:39:53:480
-4,864608	-15,572490	-5,467600	2020-11-19T14:39:53:481
-5,678168	-12,057433	-4,649254	2020-11-19T14:39:53:482
-6,955935	-8,934800	-5,599205	2020-11-19T14:39:53:484
-8,676375	-8,989835	-6,963113	2020-11-19T14:39:53:506
-10,449455	-9,475577	-6,927221	2020-11-19T14:39:53:524
-11,875579	-10,157533	-7,288538	2020-11-19T14:39:53:546
-12,559926	-9,736395	-6,788438	2020-11-19T14:39:53:564
-12,339786	-7,671390	-6,429514	2020-11-19T14:39:53:586
-11,277373	-6,214160	-5,886343	2020-11-19T14:39:53:604
-11,148161	-6,766902	-4,292724	2020-11-19T14:39:53:626
-11,430513	-5,824130	-3,543770	2020-11-19T14:39:53:644
-10,992627	-6,118448	-2,876173	2020-11-19T14:39:53:668
-10,715059	-4,804788	-2,830709	2020-11-19T14:39:53:686
-9,829715	-4,898108	-2,459821	2020-11-19T14:39:53:706
-9,312866	-5,489135	-1,856830	2020-11-19T14:39:53:724
-8,961121	-5,804988	-1,629512	2020-11-19T14:39:53:746
-8,709875	-6,099305	-1,330409	2020-11-19T14:39:53:765
-8,609376	-4,864608	-1,213161	2020-11-19T14:39:53:786
-8,417950	-4,400401	-1,071985	2020-11-19T14:39:53:804
-8,420342	-5,130211	-0,445065	2020-11-19T14:39:53:826
-8,432307	-5,381458	-0,177069	2020-11-19T14:39:53:845
-8,403593	-5,000999	-0,459422	2020-11-19T14:39:53:866
-8,461020	-4,692325	-0,555135	2020-11-19T14:39:53:885
-8,626125	-4,857430	-0,483350	2020-11-19T14:39:53:906
-8,427521	-4,967500	-0,227318	2020-11-19T14:39:53:932
-8,305488	-5,276174	0,098106	2020-11-19T14:39:53:955
-8,496914	-5,072784	0,533599	2020-11-19T14:39:53:965
-8,733803	-5,000999	0,674776	2020-11-19T14:39:53:989
-9,317651	-4,481757	0,624527	2020-11-19T14:39:54:008
-9,669396	-4,481757	0,626920	2020-11-19T14:39:54:029
-9,918249	-4,450650	0,571885	2020-11-19T14:39:54:045
-9,690931	-4,290331	0,662812	2020-11-19T14:39:54:067
-9,351151	-3,969693	0,559920	2020-11-19T14:39:54:085
-9,056834	-3,491128	0,512064	2020-11-19T14:39:54:106
-8,638089	-3,443272	0,339781	2020-11-19T14:39:54:126
-8,518449	-3,541377	0,629312	2020-11-19T14:39:54:148
-8,604590	-2,928815	0,744168	2020-11-19T14:39:54:166
-8,595018	-2,569891	0,842274	2020-11-19T14:39:54:188
-8,999406	-2,818745	0,918844	2020-11-19T14:39:54:206
-8,798409	-3,491128	0,435494	2020-11-19T14:39:54:228
-8,544770	-3,486342	-0,246461	2020-11-19T14:39:54:247
-8,829515	-3,450450	-0,162712	2020-11-19T14:39:54:269
-8,961121	-3,658626	0,062213	2020-11-19T14:39:54:286
-9,427721	-3,644269	-0,038285	2020-11-19T14:39:54:309
-9,915856	-4,046263	0,021535	2020-11-19T14:39:54:328
-10,181459	-4,386044	0,090927	2020-11-19T14:39:54:348
-10,425529	-4,800002	-0,035892	2020-11-19T14:39:54:367
-10,652846	-5,572884	-0,138784	2020-11-19T14:39:54:388
-10,736595	-5,912664	-0,004786	2020-11-19T14:39:54:406
-10,380065	-5,955735	0,136391	2020-11-19T14:39:54:430
-9,657433	-5,627919	0,160319	2020-11-19T14:39:54:447
-8,870193	-5,414958	0,157926	2020-11-19T14:39:54:469
-7,946564	-4,716253	0,373280	2020-11-19T14:39:54:487
-7,508677	-3,950550	0,342174	2020-11-19T14:39:54:509
-7,958528	-5,010571	0,229711	2020-11-19T14:39:54:527
-8,934800	-5,776274	0,222532	2020-11-19T14:39:54:549
-9,817751	-5,797810	-0,052642	2020-11-19T14:39:54:569
-10,569098	-5,843273	-0,378066	2020-11-19T14:39:54:589
-11,229517	-5,752346	0,066999	2020-11-19T14:39:54:607
-11,272588	-5,249853	-0,141177	2020-11-19T14:39:54:633
-10,741381	-4,876573	-0,387637	2020-11-19T14:39:54:657
-10,200603	-4,874180	-0,291924	2020-11-19T14:39:54:678
-9,454042	-4,761717	-0,122034	2020-11-19T14:39:54:691
-8,982656	-4,869394	0,002393	2020-11-19T14:39:54:709
-9,181261	-5,022535	0,267996	2020-11-19T14:39:54:727
-9,279366	-4,807181	0,193819	2020-11-19T14:39:54:749
-9,030513	-4,304688	-0,033500	2020-11-19T14:39:54:767
-8,444271	-4,048656	0,133998	2020-11-19T14:39:54:789
-7,984849	-3,998406	0,318245	2020-11-19T14:39:54:808
-7,697710	-3,952943	0,406780	2020-11-19T14:39:54:829
-7,771888	-3,914658	0,696311	2020-11-19T14:39:54:847
-7,982457	-3,878766	0,684347	2020-11-19T14:39:54:869
-8,025528	-3,711268	0,586242	2020-11-19T14:39:54:887
-7,805387	-3,780660	0,677169	2020-11-19T14:39:54:909
-7,594819	-3,737589	0,911665	2020-11-19T14:39:54:927
-7,520642	-3,524628	0,957129	2020-11-19T14:39:54:950
-7,329216	-3,385844	0,784846	2020-11-19T14:39:54:967
-7,403394	-3,519842	0,784846	2020-11-19T14:39:54:990
-7,432107	-3,795017	0,885344	2020-11-19T14:39:55:007
-7,633104	-3,830909	1,069592	2020-11-19T14:39:55:030
-7,692925	-3,854837	1,287339	2020-11-19T14:39:55:048
-8,047063	-3,895515	1,538585	2020-11-19T14:39:55:076
-8,860621	-3,708875	1,361516	2020-11-19T14:39:55:087
-10,104890	-3,617948	1,115055	2020-11-19T14:39:55:112
-10,755738	-3,649055	0,758525	2020-11-19T14:39:55:127
-11,425728	-3,596412	0,658026	2020-11-19T14:39:55:150
-11,559726	-3,771089	0,715454	2020-11-19T14:39:55:169
-10,042676	-3,811767	0,926022	2020-11-19T14:39:55:190
-8,279166	-3,139383	1,036092	2020-11-19T14:39:55:207
-7,668997	-1,923829	1,052842	2020-11-19T14:39:55:231
-7,929814	-0,758525	1,272982	2020-11-19T14:39:55:247
-8,489735	-1,490728	1,694118	2020-11-19T14:39:55:270
-9,406186	-3,122634	1,691726	2020-11-19T14:39:55:288
-9,784252	-3,560520	0,990629	2020-11-19T14:39:55:310
-9,978070	-2,976671	0,069392	2020-11-19T14:39:55:327
-10,236496	-2,981457	-0,002393	2020-11-19T14:39:55:350
-10,147961	-3,129812	0,533599	2020-11-19T14:39:55:368
-9,791430	-2,859423	1,048056	2020-11-19T14:39:55:391
-9,463614	-3,151347	1,368695	2020-11-19T14:39:55:407
-9,104690	-3,716053	1,344766	2020-11-19T14:39:55:430
-8,956335	-3,852444	1,040878	2020-11-19T14:39:55:448
-8,894121	-4,338188	0,861416	2020-11-19T14:39:55:471
-8,987441	-4,632504	0,904487	2020-11-19T14:39:55:488
-9,107083	-4,742575	0,947558	2020-11-19T14:39:55:510
-9,219545	-4,503292	1,000200	2020-11-19T14:39:55:529
-9,257831	-4,393222	1,095913	2020-11-19T14:39:55:550
-9,375079	-4,476971	1,263410	2020-11-19T14:39:55:568
-9,286544	-4,601398	1,335195	2020-11-19T14:39:55:590
-8,963513	-4,718646	1,502693	2020-11-19T14:39:55:607
-8,693125	-4,888536	1,787439	2020-11-19T14:39:55:630
-8,690732	-5,197211	2,093720	2020-11-19T14:39:55:647
-8,580662	-5,424529	2,349752	2020-11-19T14:39:55:671
-8,729016	-5,438886	2,301895	2020-11-19T14:39:55:688
-9,133404	-5,319244	2,230111	2020-11-19T14:39:55:711
-9,303294	-5,032106	2,021935	2020-11-19T14:39:55:728
-9,372685	-4,881358	1,952543	2020-11-19T14:39:55:750
-10,114462	-4,953143	1,933401	2020-11-19T14:39:55:770
-11,066804	-5,065606	1,866402	2020-11-19T14:39:55:790
-11,985649	-5,106283	1,883151	2020-11-19T14:39:55:808
-12,287145	-5,261817	1,665405	2020-11-19T14:39:55:832
-12,540783	-5,091926	1,062413	2020-11-19T14:39:55:848
-12,835101	-5,044070	0,624527	2020-11-19T14:39:55:871
-12,165110	-4,917251	0,172283	2020-11-19T14:39:55:888
-10,743774	-4,302295	-0,401994	2020-11-19T14:39:55:911
-9,602397	-3,735196	-0,756132	2020-11-19T14:39:55:928
-9,554541	-3,369094	-0,739382	2020-11-19T14:39:55:951
-10,621738	-2,727818	0,244068	2020-11-19T14:39:55:968
-10,619347	-3,847659	-0,576670	2020-11-19T14:39:55:991
-10,724631	-3,115455	-0,519243	2020-11-19T14:39:56:009
-10,834702	-2,352145	-0,710668	2020-11-19T14:39:56:031
-10,631311	-3,885944	-0,935594	2020-11-19T14:39:56:048
-9,925428	-3,658626	-1,347159	2020-11-19T14:39:56:073
-9,564112	-2,801995	-1,158126	2020-11-19T14:39:56:109
-9,324830	-2,768496	-0,705883	2020-11-19T14:39:56:111
-9,107083	-2,962314	-0,684347	2020-11-19T14:39:56:129
-9,090333	-3,007778	-0,748954	2020-11-19T14:39:56:167
-9,075976	-2,785245	-0,813560	2020-11-19T14:39:56:169
-9,018548	-2,610569	-0,512064	2020-11-19T14:39:56:192
-8,851050	-2,325824	-0,354138	2020-11-19T14:39:56:207
-8,597411	-2,340181	-0,569492	2020-11-19T14:39:56:231
-8,185846	-2,589034	-0,497707	2020-11-19T14:39:56:250
-7,898707	-2,782853	-0,064606	2020-11-19T14:39:56:271
-7,836494	-2,878566	0,686740	2020-11-19T14:39:56:288
-7,826923	-2,830709	1,098306	2020-11-19T14:39:56:311
-7,728817	-2,584249	0,643669	2020-11-19T14:39:56:328
-7,597212	-2,498107	0,282353	2020-11-19T14:39:56:351
-7,843673	-2,957529	0,253639	2020-11-19T14:39:56:369
-8,236095	-3,316452	0,555135	2020-11-19T14:39:56:391
-8,626125	-3,225525	0,813560	2020-11-19T14:39:56:408
-9,226725	-2,981457	0,789631	2020-11-19T14:39:56:432
-10,296316	-2,969493	0,808774	2020-11-19T14:39:56:449
-11,243874	-3,034099	0,770489	2020-11-19T14:39:56:472
-11,511869	-2,921637	0,701097	2020-11-19T14:39:56:490
-11,569297	-2,840281	0,557528	2020-11-19T14:39:56:511
-11,509477	-3,158526	0,765703	2020-11-19T14:39:56:529
-10,439885	-3,314059	0,911665	2020-11-19T14:39:56:552
-9,205189	-3,165704	1,100698	2020-11-19T14:39:56:569
-8,729016	-3,062813	1,165305	2020-11-19T14:39:56:592
-8,669197	-2,969493	1,045663	2020-11-19T14:39:56:608
-8,865408	-2,586641	0,945165	2020-11-19T14:39:56:632
-9,300901	-2,289931	0,969093	2020-11-19T14:39:56:649
-9,803394	-2,194218	0,957129	2020-11-19T14:39:56:672
-10,047462	-2,476572	0,782453	2020-11-19T14:39:56:689
-10,028319	-2,734996	0,626920	2020-11-19T14:39:56:712
-9,839286	-2,883351	0,562313	2020-11-19T14:39:56:730
-9,236296	-2,885744	0,363709	2020-11-19T14:39:56:752
-8,793623	-3,239882	0,777667	2020-11-19T14:39:56:769
-8,563912	-3,883551	0,579063	2020-11-19T14:39:56:792
-8,640482	-3,857230	0,614955	2020-11-19T14:39:56:809
-8,793623	-3,967300	0,581456	2020-11-19T14:39:56:832
-8,719445	-4,201797	0,818345	2020-11-19T14:39:56:849
-8,568698	-4,323831	1,009771	2020-11-19T14:39:56:872
-8,729016	-4,211368	1,040878	2020-11-19T14:39:56:889
-8,915657	-4,141976	1,227518	2020-11-19T14:39:56:912
-9,092726	-4,094120	1,344766	2020-11-19T14:39:56:929
-9,207582	-4,187439	1,615155	2020-11-19T14:39:56:952
-9,427721	-4,256832	1,878366	2020-11-19T14:39:56:970
-9,463614	-4,189832	1,868794	2020-11-19T14:39:56:992
-9,193225	-4,149154	1,993221	2020-11-19T14:39:57:010
-9,064013	-4,005585	1,852045	2020-11-19T14:39:57:032
-9,382257	-4,237689	1,887937	2020-11-19T14:39:57:049
-9,695717	-4,283153	1,935793	2020-11-19T14:39:57:074
-9,745967	-4,208975	1,842474	2020-11-19T14:39:57:095
-9,913465	-4,290331	1,768296	2020-11-19T14:39:57:112
-10,600205	-4,168297	1,706082	2020-11-19T14:39:57:129
-11,330014	-4,199404	1,840081	2020-11-19T14:39:57:152
-11,746366	-4,395615	1,804188	2020-11-19T14:39:57:169
-12,277573	-4,254438	1,670190	2020-11-19T14:39:57:192
-12,421142	-4,297509	1,363909	2020-11-19T14:39:57:210
-10,593026	-4,127619	0,839881	2020-11-19T14:39:57:231
-9,607183	-3,878766	0,509671	2020-11-19T14:39:57:249
-9,798609	-3,969693	0,708275	2020-11-19T14:39:57:273
-10,291530	-4,242475	1,026521	2020-11-19T14:39:57:289
-10,724631	-4,541577	0,880559	2020-11-19T14:39:57:312
-11,382657	-4,658825	0,492921	2020-11-19T14:39:57:329
-12,246466	-4,711468	-0,064606	2020-11-19T14:39:57:352
-12,447463	-4,441079	-0,586242	2020-11-19T14:39:57:370
-11,866007	-3,869194	-0,868595	2020-11-19T14:39:57:392
-10,853845	-3,486342	-0,928415	2020-11-19T14:39:57:410
-9,879964	-3,026921	-0,832702	2020-11-19T14:39:57:433
-9,164511	-2,775674	-0,634098	2020-11-19T14:39:57:451
-8,642875	-2,945565	-0,629312	2020-11-19T14:39:57:473
-8,554340	-3,251846	-0,835095	2020-11-19T14:39:57:490
-8,673983	-3,457629	-0,971486	2020-11-19T14:39:57:512
-8,860621	-3,359523	-1,177269	2020-11-19T14:39:57:530
-8,719445	-3,359523	-1,335195	2020-11-19T14:39:57:553
-8,193025	-3,292524	-1,067199	2020-11-19T14:39:57:570
-7,853244	-2,964707	-0,457029	2020-11-19T14:39:57:594
-7,853244	-2,897708	-0,248854	2020-11-19T14:39:57:610
-7,738388	-2,701497	-0,404387	2020-11-19T14:39:57:633
-7,439285	-2,761317	-0,483350	2020-11-19T14:39:57:650
-7,369894	-3,048456	-0,401994	2020-11-19T14:39:57:673
-7,345965	-3,328416	-0,220140	2020-11-19T14:39:57:691
-7,111469	-3,572484	0,409173	2020-11-19T14:39:57:714
-6,982256	-3,708875	0,794417	2020-11-19T14:39:57:731
-7,491928	-3,529413	0,866202	2020-11-19T14:39:57:753
-8,729016	-3,522235	1,021735	2020-11-19T14:39:57:770
-10,176675	-3,519842	1,316052	2020-11-19T14:39:57:793
-10,901700	-3,586841	1,548156	2020-11-19T14:39:57:810
-10,920842	-3,469593	1,428515	2020-11-19T14:39:57:833
-11,325230	-3,237489	1,921437	2020-11-19T14:39:57:850
-10,193424	-3,426522	2,179861	2020-11-19T14:39:57:874
-8,662018	-3,445665	2,610569	2020-11-19T14:39:57:890
-8,085347	-3,340380	2,849852	2020-11-19T14:39:57:913
-8,554340	-3,538985	3,553342	2020-11-19T14:39:57:931
-9,145369	-3,455236	3,617948	2020-11-19T14:39:57:953
-9,432507	-3,218346	3,038885	2020-11-19T14:39:57:970
-9,420543	-2,974278	2,498107	2020-11-19T14:39:57:993
-9,238688	-2,888137	2,182254	2020-11-19T14:39:58:010
-9,018548	-3,407379	2,349752	2020-11-19T14:39:58:034
-8,700303	-3,687340	2,021935	2020-11-19T14:39:58:050
-8,786445	-3,914658	1,593620	2020-11-19T14:39:58:074
-8,614161	-4,043870	1,397408	2020-11-19T14:39:58:090
-8,092526	-4,259224	1,258625	2020-11-19T14:39:58:115
-7,920243	-4,713861	1,217947	2020-11-19T14:39:58:130
-8,209774	-4,802395	0,961915	2020-11-19T14:39:58:154
-8,638089	-4,570292	0,425922	2020-11-19T14:39:58:171
-9,320045	-4,161119	0,545564	2020-11-19T14:39:58:194
-9,308081	-4,993821	0,289532	2020-11-19T14:39:58:211
-8,973085	-4,670790	-0,038285	2020-11-19T14:39:58:234
-9,542577	-4,089334	0,078963	2020-11-19T14:39:58:250
-9,561719	-4,316652	-0,746561	2020-11-19T14:39:58:276
-9,348758	-3,560520	-0,947558	2020-11-19T14:39:58:291
-9,255438	-3,215954	-0,653241	2020-11-19T14:39:58:314
-9,274581	-3,467200	-1,246661	2020-11-19T14:39:58:331
-9,104690	-3,385844	-2,108077	2020-11-19T14:39:58:355
-8,743374	-2,828316	-3,043670	2020-11-19T14:39:58:371
-8,487342	-2,359323	-3,541377	2020-11-19T14:39:58:394
-7,783852	-1,686940	-3,357130	2020-11-19T14:39:58:412
-7,097112	-2,517249	-3,321238	2020-11-19T14:39:58:434
-6,874579	-2,790031	-3,665804	2020-11-19T14:39:58:452
-6,845865	-3,148954	-4,699504	2020-11-19T14:39:58:474
-6,869793	-4,098906	-5,127820	2020-11-19T14:39:58:490
-6,805188	-4,268795	-4,967500	2020-11-19T14:39:58:515
-6,975078	-4,603791	-5,302495	2020-11-19T14:39:58:531
-8,595018	-5,558527	-5,278566	2020-11-19T14:39:58:554
-11,064411	-7,307681	-4,563113	2020-11-19T14:39:58:571
-13,564911	-8,925228	-3,156133	2020-11-19T14:39:58:596
-15,857236	-10,030712	-1,773082	2020-11-19T14:39:58:611
-16,709082	-8,822337	-1,612763	2020-11-19T14:39:58:634
-15,754344	-5,781059	-2,591427	2020-11-19T14:39:58:651
-14,445471	-4,469792	-2,562713	2020-11-19T14:39:58:675
-13,289737	-4,625326	-1,598405	2020-11-19T14:39:58:691
-12,167502	-4,546363	-0,598206	2020-11-19T14:39:58:721
-11,408978	-4,766503	0,047856	2020-11-19T14:39:58:731
-10,703095	-4,838287	0,445065	2020-11-19T14:39:58:754
-9,939785	-4,484150	0,550349	2020-11-19T14:39:58:771
-9,399008	-4,137190	0,330210	2020-11-19T14:39:58:794
-9,040084	-3,996014	0,122034	2020-11-19T14:39:58:811
-8,575876	-3,510271	0,105284	2020-11-19T14:39:58:835
-8,056634	-2,873780	-0,016750	2020-11-19T14:39:58:851
-7,683353	-2,196611	-0,315853	2020-11-19T14:39:58:875
-7,424929	-1,911865	-0,521635	2020-11-19T14:39:58:892
-7,324430	-2,002793	-0,672383	2020-11-19T14:39:58:915
-7,269395	-2,041078	-0,519243	2020-11-19T14:39:58:933
-7,123433	-2,132005	-0,500100	2020-11-19T14:39:58:954
-6,989435	-2,098505	-0,502493	2020-11-19T14:39:58:972
-7,085148	-2,222932	-0,540778	2020-11-19T14:39:58:995
-7,075576	-2,435893	-0,471386	2020-11-19T14:39:59:011
-6,965507	-2,677568	-0,248854	2020-11-19T14:39:59:034
-6,970293	-2,986243	0,059821	2020-11-19T14:39:59:051
-7,245467	-3,115455	0,236889	2020-11-19T14:39:59:076
-7,604390	-3,156133	0,306281	2020-11-19T14:39:59:091
-8,324631	-3,141776	0,452243	2020-11-19T14:39:59:114
-9,631111	-2,959922	0,586242	2020-11-19T14:39:59:134
-10,932807	-2,995814	0,579063	2020-11-19T14:39:59:155
-11,571690	-3,050849	0,378066	2020-11-19T14:39:59:172
-11,356337	-2,806781	0,349352	2020-11-19T14:39:59:195
-10,571491	-2,921637	1,170090	2020-11-19T14:39:59:211
-9,736395	-3,125026	1,897508	2020-11-19T14:39:59:235
-8,925228	-3,024528	1,646262	2020-11-19T14:39:59:251
-9,008978	-2,490928	1,110270	2020-11-19T14:39:59:275
-9,949356	-3,256632	1,150948	2020-11-19T14:39:59:291
-10,607382	-4,632504	1,411765	2020-11-19T14:39:59:316
-10,655239	-5,175675	1,339981	2020-11-19T14:39:59:331
-10,485349	-4,649254	1,000200	2020-11-19T14:39:59:355
-10,698310	-4,438686	0,770489	2020-11-19T14:39:59:373
-10,963913	-4,484150	0,902094	2020-11-19T14:39:59:395
-10,784451	-4,637290	0,870987	2020-11-19T14:39:59:412
-10,243673	-4,692325	0,782453	2020-11-19T14:39:59:435
-9,410972	-4,780859	0,727418	2020-11-19T14:39:59:452
-8,745767	-4,484150	0,602991	2020-11-19T14:39:59:476
-8,410772	-4,192225	0,342174	2020-11-19T14:39:59:492
-8,374879	-3,976871	0,198604	2020-11-19T14:39:59:515
-8,453842	-3,668197	0,363709	2020-11-19T14:39:59:532
-8,355737	-3,811767	0,720240	2020-11-19T14:39:59:556
-8,398808	-4,486543	0,890130	2020-11-19T14:39:59:572
-8,489735	-4,878965	1,076770	2020-11-19T14:39:59:595
-8,683553	-4,536791	1,222732	2020-11-19T14:39:59:612
-8,760124	-4,622933	1,404587	2020-11-19T14:39:59:636
-8,623734	-4,699504	1,500300	2020-11-19T14:39:59:652
-8,451449	-4,658825	1,689333	2020-11-19T14:39:59:675
-8,422735	-4,469792	1,811367	2020-11-19T14:39:59:692
-8,429914	-4,548756	2,005185	2020-11-19T14:39:59:716
-8,484949	-4,474578	2,038685	2020-11-19T14:39:59:731
-8,458629	-4,364508	1,926222	2020-11-19T14:39:59:755
-8,539984	-4,158726	1,713261	2020-11-19T14:39:59:772
-9,269794	-4,273581	1,734797	2020-11-19T14:39:59:796
-10,403993	-4,500899	1,811367	2020-11-19T14:39:59:812
-11,921042	-4,685147	1,684547	2020-11-19T14:39:59:835
-13,428520	-4,687540	1,663012	2020-11-19T14:39:59:854
-14,124832	-4,814359	1,476372	2020-11-19T14:39:59:876
-14,033905	-4,840680	1,416551	2020-11-19T14:39:59:892
-12,363714	-4,575077	1,167697	2020-11-19T14:39:59:915
-10,403993	-4,197011	0,748954	2020-11-19T14:39:59:932
-9,509077	-4,232903	0,653241	2020-11-19T14:39:59:956
-10,080962	-4,670790	0,768096	2020-11-19T14:39:59:972
-11,459228	-4,874180	1,014557	2020-11-19T14:39:59:995
-12,279965	-4,579862	0,796810	2020-11-19T14:40:00:011
-12,512069	-4,153940	0,110070	2020-11-19T14:40:00:036
-12,581462	-3,651447	-0,401994	2020-11-19T14:40:00:052
-12,351749	-3,136991	-0,588634	2020-11-19T14:40:00:075
-11,873186	-2,670390	-0,660419	2020-11-19T14:40:00:093
-11,253445	-2,395216	-0,758525	2020-11-19T14:40:00:116
-10,547562	-2,139183	-0,713061	2020-11-19T14:40:00:132
-9,990034	-2,246860	-0,454636	2020-11-19T14:40:00:155
-9,779467	-2,512464	-0,387637	2020-11-19T14:40:00:172
-9,635897	-2,627320	-0,617348	2020-11-19T14:40:00:196
-9,329616	-2,620141	-0,643669	2020-11-19T14:40:00:212
-8,714661	-2,632105	-0,701097	2020-11-19T14:40:00:237
-8,104490	-2,469393	-0,629312	2020-11-19T14:40:00:252
-7,467999	-2,256432	-0,514457	2020-11-19T14:40:00:276
-6,953543	-2,225325	-0,232104	2020-11-19T14:40:00:292
-6,405586	-2,222932	-0,028714	2020-11-19T14:40:00:315
-5,984450	-2,249253	0,222532	2020-11-19T14:40:00:333
-5,998806	-2,344966	0,437887	2020-11-19T14:40:00:356
-6,025128	-2,297110	0,796810	2020-11-19T14:40:00:374
-6,039484	-2,371287	1,117448	2020-11-19T14:40:00:396
-6,037091	-2,519642	1,225125	2020-11-19T14:40:00:412
-6,226124	-2,603391	1,739582	2020-11-19T14:40:00:436
-7,585248	-2,801995	2,292324	2020-11-19T14:40:00:452
-8,791230	-2,859423	2,134398	2020-11-19T14:40:00:475
-10,329816	-2,900101	1,696511	2020-11-19T14:40:00:492
-11,495120	-3,189633	1,308874	2020-11-19T14:40:00:517
-12,631711	-3,649055	1,390230	2020-11-19T14:40:00:532
-12,643675	-4,213760	1,931008	2020-11-19T14:40:00:556
-11,236694	-4,644469	2,701497	2020-11-19T14:40:00:575
-9,741181	-4,297509	3,046063	2020-11-19T14:40:00:596
-9,320045	-4,125226	3,000600	2020-11-19T14:40:00:612
-9,844072	-4,024727	2,502892	2020-11-19T14:40:00:635
-10,569098	-3,818945	1,868794	2020-11-19T14:40:00:653
-11,023734	-3,546163	1,459622	2020-11-19T14:40:00:679
-11,303694	-3,125026	1,217947	2020-11-19T14:40:00:692
-11,095518	-2,957529	0,875773	2020-11-19T14:40:00:716
-10,703095	-3,249453	0,725025	2020-11-19T14:40:00:733
-10,124033	-3,457629	0,614955	2020-11-19T14:40:00:757
-9,571291	-3,744767	0,538385	2020-11-19T14:40:00:773
-9,059227	-4,079762	0,057428	2020-11-19T14:40:00:797
-9,028119	-4,687540	1,450050	2020-11-19T14:40:00:814
-8,427521	-4,383651	0,969093	2020-11-19T14:40:00:837
-8,128418	-4,354938	0,981057	2020-11-19T14:40:00:853
-7,759924	-4,156333	0,713061	2020-11-19T14:40:00:877
-7,604390	-4,319045	0,674776	2020-11-19T14:40:00:894
-7,664211	-4,342973	0,854238	2020-11-19T14:40:00:917
-7,867601	-4,369294	0,997807	2020-11-19T14:40:00:933
-8,207381	-4,625326	1,191626	2020-11-19T14:40:00:956
-8,379664	-4,610970	1,318445	2020-11-19T14:40:00:974
-8,542377	-4,756931	1,481157	2020-11-19T14:40:00:997
-8,829515	-4,957928	1,572084	2020-11-19T14:40:01:013
-9,458827	-5,115855	1,816152	2020-11-19T14:40:01:036
-9,903893	-5,154140	2,017149	2020-11-19T14:40:01:054
-10,236496	-5,175675	2,005185	2020-11-19T14:40:01:078
-11,219944	-5,209175	2,026721	2020-11-19T14:40:01:093
-12,595818	-5,326423	2,189433	2020-11-19T14:40:01:116
-13,186846	-5,175675	2,158326	2020-11-19T14:40:01:133
-12,583855	-4,869394	2,055435	2020-11-19T14:40:01:157
-11,810973	-4,900501	2,117648	2020-11-19T14:40:01:173
-11,102697	-5,067998	2,196611	2020-11-19T14:40:01:197
-9,994821	-4,898108	2,103291	2020-11-19T14:40:01:213
-9,083155	-4,536791	1,710868	2020-11-19T14:40:01:237
-9,231510	-4,362115	1,543371	2020-11-19T14:40:01:253
-10,071390	-4,395615	1,689333	2020-11-19T14:40:01:277
-10,545169	-4,405186	1,758725	2020-11-19T14:40:01:294
-11,136196	-4,319045	1,502693	2020-11-19T14:40:01:317
-12,332609	-4,153940	0,949951	2020-11-19T14:40:01:334
-13,158132	-3,893122	0,430708	2020-11-19T14:40:01:356
-12,933208	-3,227918	-0,119641	2020-11-19T14:40:01:374
-11,789437	-2,770889	-0,459422	2020-11-19T14:40:01:397
-10,557133	-2,524428	-0,516850	2020-11-19T14:40:01:414
-9,901501	-2,378466	-0,399601	2020-11-19T14:40:01:436
-9,635897	-2,498107	-0,224925	2020-11-19T14:40:01:454
-9,372685	-2,706282	-0,399601	2020-11-19T14:40:01:478
-9,372685	-3,218346	-0,473779	2020-11-19T14:40:01:493
-9,188439	-3,400201	-0,591027	2020-11-19T14:40:01:518
-9,066404	-3,144169	-0,447458	2020-11-19T14:40:01:534
-8,714661	-2,749353	-0,265603	2020-11-19T14:40:01:557
-8,271988	-2,368894	-0,160319	2020-11-19T14:40:01:574
-7,860423	-2,057827	-0,145962	2020-11-19T14:40:01:596
-7,338787	-1,875973	-0,287139	2020-11-19T14:40:01:613
-7,049256	-2,225325	-0,236889	2020-11-19T14:40:01:637
-6,972685	-2,433501	0,114855	2020-11-19T14:40:01:654
-7,257431	-2,675175	1,021735	2020-11-19T14:40:01:677
-7,582855	-2,842674	1,440479	2020-11-19T14:40:01:694
-7,508677	-2,656033	1,275374	2020-11-19T14:40:01:717
-7,479963	-2,605784	1,241875	2020-11-19T14:40:01:734
-8,214561	-2,773281	1,462015	2020-11-19T14:40:01:757
-8,798409	-2,919244	2,012364	2020-11-19T14:40:01:775
-9,284152	-3,074777	2,663212	2020-11-19T14:40:01:798
-9,777073	-3,093920	2,548356	2020-11-19T14:40:01:814
-10,210175	-3,043670	1,866402	2020-11-19T14:40:01:837
-10,841879	-3,347559	1,584049	2020-11-19T14:40:01:854
-10,820344	-4,017549	1,940579	2020-11-19T14:40:01:879
-10,119246	-4,419543	2,471786	2020-11-19T14:40:01:894
-9,430114	-4,582255	2,931208	2020-11-19T14:40:01:916
-9,317651	-4,266403	2,787638	2020-11-19T14:40:01:934
-9,607183	-3,567699	2,299503	2020-11-19T14:40:01:958
-10,109675	-3,005385	1,593620	2020-11-19T14:40:01:974
-10,334601	-2,502892	1,122234	2020-11-19T14:40:01:997
-10,631311	-2,337788	1,050449	2020-11-19T14:40:02:015
-10,597812	-2,653640	1,060020	2020-11-19T14:40:02:038
-10,155140	-2,768496	0,959522	2020-11-19T14:40:02:054
-9,590433	-2,816352	0,705883	2020-11-19T14:40:02:077
-9,466006	-2,991028	0,404387	2020-11-19T14:40:02:094
-9,303294	-3,115455	0,043071	2020-11-19T14:40:02:118
-8,362915	-3,141776	-0,248854	2020-11-19T14:40:02:134
-7,671390	-3,531806	-0,045464	2020-11-19T14:40:02:157
-7,944171	-3,780660	0,492921	2020-11-19T14:40:02:174
-8,685946	-3,639483	0,665205	2020-11-19T14:40:02:199
-8,956335	-3,503092	0,490529	2020-11-19T14:40:02:214
-8,874979	-3,512664	0,299103	2020-11-19T14:40:02:237
-8,930015	-3,412165	0,296710	2020-11-19T14:40:02:255
-9,456435	-3,582055	0,234497	2020-11-19T14:40:02:278
-9,549755	-3,565305	0,198604	2020-11-19T14:40:02:294
-8,839087	-3,419343	0,227318	2020-11-19T14:40:02:319
-8,709875	-3,708875	0,445065	2020-11-19T14:40:02:334
-9,171689	-4,043870	0,717847	2020-11-19T14:40:02:358
-9,803394	-4,048656	0,684347	2020-11-19T14:40:02:374
-10,059426	-3,900301	0,461815	2020-11-19T14:40:02:397
-9,877571	-3,926622	0,227318	2020-11-19T14:40:02:414
-9,700503	-3,708875	-0,256032	2020-11-19T14:40:02:439
-10,621738	-3,134598	-0,612563	2020-11-19T14:40:02:455
-11,248660	-0,753739	-0,342174	2020-11-19T14:40:02:478
-10,076177	0,949951	-0,567099	2020-11-19T14:40:02:496
-10,293922	0,710668	-1,191626	2020-11-19T14:40:02:518
-10,643275	0,287139	-1,418944	2020-11-19T14:40:02:534
-10,085747	0,387637	-2,964707	2020-11-19T14:40:02:558
-10,176675	0,930808	-4,211368	2020-11-19T14:40:02:574
-10,985448	0,311067	-4,273581	2020-11-19T14:40:02:598
-11,832507	-0,464208	-3,239882	2020-11-19T14:40:02:614
-11,875579	-0,375673	-1,835295	2020-11-19T14:40:02:638
-11,121840	1,205983	-1,031307	2020-11-19T14:40:02:654
-10,494920	1,978864	-0,521635	2020-11-19T14:40:02:679
-9,815358	1,648655	-0,423530	2020-11-19T14:40:02:694
-8,874979	1,138984	-0,198604	2020-11-19T14:40:02:718
-8,224132	1,198804	-0,605384	2020-11-19T14:40:02:736
-7,956135	1,339981	-1,531406	2020-11-19T14:40:02:758
-7,695317	1,576870	-2,467000	2020-11-19T14:40:02:775
-7,759924	0,961915	-3,134598	2020-11-19T14:40:02:798
-8,295916	-0,126820	-3,333202	2020-11-19T14:40:02:814
-9,360723	-0,978664	-2,916851	2020-11-19T14:40:02:839
-10,829915	-0,981057	-2,792424	2020-11-19T14:40:02:854
-11,196017	-0,337388	-2,689533	2020-11-19T14:40:02:879
-10,705488	0,181855	-2,840281	2020-11-19T14:40:02:895
-10,035499	-0,308674	-2,935993	2020-11-19T14:40:02:919
-10,762917	-1,160519	-3,538985	2020-11-19T14:40:02:934
-11,169697	-1,579263	-3,775874	2020-11-19T14:40:02:958
-10,332209	-1,835295	-3,510271	2020-11-19T14:40:02:976
-9,571291	-2,026721	-3,239882	2020-11-19T14:40:02:999
-9,956534	-2,167897	-3,170490	2020-11-19T14:40:03:015
-9,710074	-2,199004	-3,010171	2020-11-19T14:40:03:038
-8,882158	-2,069792	-2,653640	2020-11-19T14:40:03:054
-8,025528	-2,268396	-2,115255	2020-11-19T14:40:03:079
-7,317252	-2,538785	-1,485943	2020-11-19T14:40:03:095
-7,034898	-2,667997	-0,868595	2020-11-19T14:40:03:118
-6,721439	-2,656033	-0,435494	2020-11-19T14:40:03:134
-6,020342	-2,433501	-0,483350	2020-11-19T14:40:03:159
-5,836094	-2,299503	-0,693919	2020-11-19T14:40:03:175
-6,455836	-2,349752	-0,813560	2020-11-19T14:40:03:198
-7,575676	-2,352145	-0,842274	2020-11-19T14:40:03:215
-9,150154	-2,443072	-0,894916	2020-11-19T14:40:03:239
-11,430513	-2,763710	-0,815953	2020-11-19T14:40:03:255
-13,596018	-3,122634	-0,949951	2020-11-19T14:40:03:279
-14,689538	-3,476771	-1,344766	2020-11-19T14:40:03:295
-14,409578	-3,785445	-1,562513	2020-11-19T14:40:03:319
-13,921442	-4,144369	-1,210768	2020-11-19T14:40:03:335
-12,973885	-4,555934	-0,232104	2020-11-19T14:40:03:358
-10,939985	-4,706682	0,713061	2020-11-19T14:40:03:375
-8,685946	-4,321437	1,177269	2020-11-19T14:40:03:399
-7,539784	-4,007978	1,287339	2020-11-19T14:40:03:414
-7,436893	-3,744767	1,093520	2020-11-19T14:40:03:439
-7,726424	-3,570091	0,792024	2020-11-19T14:40:03:456
-7,881958	-3,053242	0,212961	2020-11-19T14:40:03:479
-8,137990	-2,555535	-0,227318	2020-11-19T14:40:03:495
-8,578269	-2,445465	-0,538385	2020-11-19T14:40:03:518
-9,080762	-2,600998	-0,677169	2020-11-19T14:40:03:535
-9,401401	-2,964707	-0,531207	2020-11-19T14:40:03:560
-9,427721	-3,208775	-0,229711	2020-11-19T14:40:03:575
-9,253045	-3,438486	-0,284746	2020-11-19T14:40:03:598
-9,241080	-3,818945	-0,045464	2020-11-19T14:40:03:615
-9,303294	-4,275974	0,495314	2020-11-19T14:40:03:639
-9,025726	-4,536791	1,107877	2020-11-19T14:40:03:655
-9,071191	-4,718646	1,000200	2020-11-19T14:40:03:679
-9,997212	-4,728218	1,012164	2020-11-19T14:40:03:696
-10,348958	-4,922036	1,366302	2020-11-19T14:40:03:719
-9,891929	-4,960321	1,765903	2020-11-19T14:40:03:736
-9,674182	-4,855037	1,998007	2020-11-19T14:40:03:758
-9,961320	-5,005785	2,165504	2020-11-19T14:40:03:775
-10,597812	-5,024928	2,397608	2020-11-19T14:40:03:799
-11,353944	-5,553742	3,005385	2020-11-19T14:40:03:815
-11,837293	-5,900701	3,287738	2020-11-19T14:40:03:839
-12,007183	-5,824130	3,213561	2020-11-19T14:40:03:855
-12,031113	-5,383851	3,031706	2020-11-19T14:40:03:880
-11,447264	-5,223531	2,955136	2020-11-19T14:40:03:895
-11,693724	-6,113662	2,636890	2020-11-19T14:40:03:919
-12,043077	-6,872187	2,816352	2020-11-19T14:40:03:936
-11,083554	-6,139983	2,179861	2020-11-19T14:40:03:959
-10,147961	-4,730610	0,837488	2020-11-19T14:40:03:976
-10,475778	-4,201797	0,416351	2020-11-19T14:40:04:000
-11,200804	-4,374080	0,667598	2020-11-19T14:40:04:015
-11,636297	-3,888337	0,488136	2020-11-19T14:40:04:040
-12,067005	-3,548556	0,105284	2020-11-19T14:40:04:055
-11,973685	-3,737589	0,026321	2020-11-19T14:40:04:082
-11,770294	-3,369094	-0,215354	2020-11-19T14:40:04:095
-11,502297	-2,926422	-0,423530	2020-11-19T14:40:04:121
-11,184053	-2,653640	-0,600598	2020-11-19T14:40:04:135
-10,868200	-2,447858	-0,945165	2020-11-19T14:40:04:159
-10,683953	-2,289931	-1,031307	2020-11-19T14:40:04:177
-10,090532	-2,435893	-0,914058	2020-11-19T14:40:04:199
-9,494720	-2,560320	-0,789631	2020-11-19T14:40:04:215
-8,750552	-2,766103	-0,430708	2020-11-19T14:40:04:239
-7,712067	-3,077170	0,043071	2020-11-19T14:40:04:255
-7,252645	-3,436093	0,337388	2020-11-19T14:40:04:280
-7,147361	-3,500700	0,303888	2020-11-19T14:40:04:296
-6,943972	-3,440879	0,701097	2020-11-19T14:40:04:319
-7,322037	-3,364309	1,244268	2020-11-19T14:40:04:335
-7,793423	-2,730211	1,203590	2020-11-19T14:40:04:360
-7,427321	-1,942972	0,911665	2020-11-19T14:40:04:376
-6,800402	-2,132005	0,758525	2020-11-19T14:40:04:399
-6,671190	-2,565106	0,961915	2020-11-19T14:40:04:417
-6,955935	-2,596212	1,280160	2020-11-19T14:40:04:440
-7,570890	-2,603391	1,442872	2020-11-19T14:40:04:456
-7,570890	-2,579463	1,277767	2020-11-19T14:40:04:480
-7,460821	-2,624927	1,210768	2020-11-19T14:40:04:496
-7,563712	-2,763710	1,347159	2020-11-19T14:40:04:520
-8,161918	-3,050849	1,347159	2020-11-19T14:40:04:536
-8,877372	-3,369094	1,490728	2020-11-19T14:40:04:560
-9,265009	-3,598805	1,660619	2020-11-19T14:40:04:576
-9,834501	-3,615555	1,765903	2020-11-19T14:40:04:600
-10,600205	-3,639483	1,847259	2020-11-19T14:40:04:616
-10,928021	-3,766303	1,823331	2020-11-19T14:40:04:640
-10,549955	-3,464807	1,847259	2020-11-19T14:40:04:657
-9,803394	-3,467200	1,978864	2020-11-19T14:40:04:682
-9,698111	-3,584448	2,318645	2020-11-19T14:40:04:696
-9,760324	-3,610770	2,354537	2020-11-19T14:40:04:720
-9,906286	-3,125026	1,921437	2020-11-19T14:40:04:736
-10,528419	-2,943172	1,785046	2020-11-19T14:40:04:761
-10,439885	-2,797210	1,677369	2020-11-19T14:40:04:776
-10,128819	-2,586641	1,744368	2020-11-19T14:40:04:800
-9,956534	-2,799603	1,576870	2020-11-19T14:40:04:816
-9,702895	-3,263810	1,524228	2020-11-19T14:40:04:841
-9,461221	-3,622734	1,533799	2020-11-19T14:40:04:856
-9,300901	-4,017549	1,615155	2020-11-19T14:40:04:880
-9,111869	-3,974478	1,548156	2020-11-19T14:40:04:898
-8,535198	-3,842873	1,351945	2020-11-19T14:40:04:920
-8,243275	-3,893122	1,373480	2020-11-19T14:40:04:937
-8,190632	-4,000800	1,426122	2020-11-19T14:40:04:960
-8,274381	-4,015156	1,459622	2020-11-19T14:40:04:976
-8,707481	-4,218546	1,500300	2020-11-19T14:40:05:001
-9,095119	-4,350152	1,643869	2020-11-19T14:40:05:016
-9,296116	-4,285545	1,718047	2020-11-19T14:40:05:040
-9,384650	-4,292724	1,660619	2020-11-19T14:40:05:056
-9,219545	-4,264010	1,674976	2020-11-19T14:40:05:081
-9,073583	-4,096512	1,722832	2020-11-19T14:40:05:096
-8,712267	-4,271189	1,890330	2020-11-19T14:40:05:120
-8,640482	-4,345366	2,065006	2020-11-19T14:40:05:138
-8,956335	-4,496114	2,175076	2020-11-19T14:40:05:161
-9,284152	-4,479364	2,155933	2020-11-19T14:40:05:177
-9,047262	-4,319045	1,947758	2020-11-19T14:40:05:200
-8,910872	-4,039084	1,598405	2020-11-19T14:40:05:217
-9,413363	-3,893122	1,404587	2020-11-19T14:40:05:241
-10,176675	-3,950550	1,421337	2020-11-19T14:40:05:257
-11,552547	-4,261617	1,514657	2020-11-19T14:40:05:281
-12,698709	-4,505685	1,435694	2020-11-19T14:40:05:298
-12,732209	-3,986443	0,602991	2020-11-19T14:40:05:321
-12,251251	-3,306881	-0,624527	2020-11-19T14:40:05:337
-12,179466	-3,031706	-1,208375	2020-11-19T14:40:05:360
-12,418750	-2,708675	-1,694118	2020-11-19T14:40:05:378
-12,454641	-2,033899	-1,986043	2020-11-19T14:40:05:401
-12,189038	-1,835295	-2,029114	2020-11-19T14:40:05:417
-11,688939	-1,945365	-1,952543	2020-11-19T14:40:05:440
-11,030912	-2,038685	-1,720440	2020-11-19T14:40:05:457
-10,904092	-2,132005	-1,823331	2020-11-19T14:40:05:482
-10,310673	-2,098505	-1,720440	2020-11-19T14:40:05:497
-9,645468	-1,799403	-0,988236	2020-11-19T14:40:05:520
-9,150154	-2,141576	-0,232104	2020-11-19T14:40:05:537
-8,841480	-2,452643	0,148355	2020-11-19T14:40:05:562
-8,528020	-2,596212	-0,143569	2020-11-19T14:40:05:577
-8,685946	-2,794817	-0,459422	2020-11-19T14:40:05:601
-9,389436	-2,909672	-0,538385	2020-11-19T14:40:05:618
-10,262815	-2,895315	-0,550349	2020-11-19T14:40:05:641
-10,470992	-2,634498	-0,466600	2020-11-19T14:40:05:657
-10,262815	-2,313859	-0,490529	2020-11-19T14:40:05:681
-10,537991	-2,457429	-0,346959	2020-11-19T14:40:05:697
-10,566705	-2,667997	-0,157926	2020-11-19T14:40:05:721
-10,530812	-2,876173	-0,081356	2020-11-19T14:40:05:737
-10,351351	-2,959922	-0,224925	2020-11-19T14:40:05:761
-10,004392	-3,031706	-0,586242	2020-11-19T14:40:05:778
-9,296116	-3,122634	-0,634098	2020-11-19T14:40:05:802
-9,183653	-3,598805	-0,588634	2020-11-19T14:40:05:817
-8,800802	-3,885944	-0,421137	2020-11-19T14:40:05:841
-7,343572	-3,940979	-0,143569	2020-11-19T14:40:05:858
-5,836094	-4,036692	0,720240	2020-11-19T14:40:05:882
-5,168497	-4,213760	1,136591	2020-11-19T14:40:05:897
-5,527420	-4,357330	1,555335	2020-11-19T14:40:05:921
-6,240481	-4,888536	1,897508	2020-11-19T14:40:05:938
-6,862615	-5,242674	1,670190	2020-11-19T14:40:05:962
-7,032506	-5,831308	1,356731	2020-11-19T14:40:05:978
-6,920043	-6,300302	2,007578	2020-11-19T14:40:06:001
-6,702296	-6,893722	3,072384	2020-11-19T14:40:06:017
-6,616155	-7,025328	3,158526	2020-11-19T14:40:06:042
-6,814759	-6,496514	2,598605	2020-11-19T14:40:06:057
-7,092326	-6,307480	2,184647	2020-11-19T14:40:06:081
-7,262216	-6,276374	2,309074	2020-11-19T14:40:06:099
-7,355537	-6,082555	2,409572	2020-11-19T14:40:06:122
-7,329216	-5,917450	2,285146	2020-11-19T14:40:06:139
-7,176075	-5,781059	2,033899	2020-11-19T14:40:06:161
-7,341179	-5,632704	1,907080	2020-11-19T14:40:06:178
-7,800602	-5,601598	2,021935	2020-11-19T14:40:06:203
-8,147561	-5,283352	2,129612	2020-11-19T14:40:06:218
-8,137990	-5,091926	1,868794	2020-11-19T14:40:06:241
-8,157133	-4,835894	1,610370	2020-11-19T14:40:06:258
-8,130811	-4,599005	1,533799	2020-11-19T14:40:06:282
-8,152347	-4,220939	1,758725	2020-11-19T14:40:06:298
-8,047063	-4,063013	1,895115	2020-11-19T14:40:06:321
-7,728817	-3,917051	1,756332	2020-11-19T14:40:06:339
-7,448857	-3,711268	1,325624	2020-11-19T14:40:06:362
-7,089933	-3,493521	0,856631	2020-11-19T14:40:06:378
-7,046863	-3,467200	0,801596	2020-11-19T14:40:06:401
-7,357929	-4,838287	1,665405	2020-11-19T14:40:06:418
-6,632904	-5,599205	0,787239	2020-11-19T14:40:06:443
-6,250053	-4,764110	-0,050249	2020-11-19T14:40:06:458
-6,355337	-4,192225	-0,246461	2020-11-19T14:40:06:482
-6,833901	-4,139583	0,095713	2020-11-19T14:40:06:498
-7,152147	-4,132405	0,014357	2020-11-19T14:40:06:522
-7,235896	-4,051049	-0,028714	2020-11-19T14:40:06:538
-7,633104	-4,917251	-0,071785	2020-11-19T14:40:06:562
-8,092526	-5,625526	0,098106	2020-11-19T14:40:06:579
-8,240881	-5,694918	0,102891	2020-11-19T14:40:06:602
-8,035098	-5,510671	-0,086142	2020-11-19T14:40:06:618
-8,494520	-5,386244	-0,052642	2020-11-19T14:40:06:642
-8,896514	-6,108876	-0,028714	2020-11-19T14:40:06:658
-8,946764	-7,147361	-0,404387	2020-11-19T14:40:06:683
-8,740981	-8,355737	-0,866202	2020-11-19T14:40:06:698
-8,614161	-8,379664	-1,100698	2020-11-19T14:40:06:721
-8,338986	-8,319844	-1,019342	2020-11-19T14:40:06:738
-8,094919	-9,477970	-0,629312	2020-11-19T14:40:06:762
-8,248059	-11,186446	0,440279	2020-11-19T14:40:06:778
-8,839087	-12,464212	1,019342	2020-11-19T14:40:06:803
-8,958728	-10,396815	1,229911	2020-11-19T14:40:06:819
-9,710074	-7,403394	0,894916	2020-11-19T14:40:06:842
-10,456635	-5,781059	0,839881	2020-11-19T14:40:06:858
-9,549755	-4,560720	1,103091	2020-11-19T14:40:06:882
-8,779266	-4,689932	1,737189	2020-11-19T14:40:06:898
-8,164310	-5,235496	2,191825	2020-11-19T14:40:06:924
-7,585248	-5,745167	2,474179	2020-11-19T14:40:06:938
-7,432107	-5,678168	2,608176	2020-11-19T14:40:06:962
-6,903293	-5,682954	3,223132	2020-11-19T14:40:06:979
-5,974878	-6,860222	4,046263	2020-11-19T14:40:07:003
-6,740582	-8,506484	4,797609	2020-11-19T14:40:07:018
-7,709675	-9,408579	4,158726	2020-11-19T14:40:07:042
-7,267002	-8,585447	2,837888	2020-11-19T14:40:07:059
-7,719246	-8,528020	2,177469	2020-11-19T14:40:07:085
-6,283553	-9,556933	1,864009	2020-11-19T14:40:07:100
-6,108876	-9,310472	1,421337	2020-11-19T14:40:07:122
-6,348158	-8,039884	1,316052	2020-11-19T14:40:07:138
-6,041877	-7,884350	1,287339	2020-11-19T14:40:07:163
-4,522435	-8,810372	1,624727	2020-11-19T14:40:07:179
-3,725625	-8,733803	2,199004	2020-11-19T14:40:07:202
-3,287738	-7,647461	2,385644	2020-11-19T14:40:07:219
-3,677768	-6,716653	2,383251	2020-11-19T14:40:07:243
-4,031906	-6,728617	2,299503	2020-11-19T14:40:07:259
-4,481757	-7,551748	2,127219	2020-11-19T14:40:07:282
-5,003392	-8,391629	1,919044	2020-11-19T14:40:07:300
-4,984250	-9,162118	2,567499	2020-11-19T14:40:07:323
-5,213961	-9,042477	2,699104	2020-11-19T14:40:07:339
-5,548956	-8,590233	2,426322	2020-11-19T14:40:07:362
-5,422136	-8,427521	2,266003	2020-11-19T14:40:07:379
-5,142176	-8,023134	2,282753	2020-11-19T14:40:07:403
-4,852644	-7,745567	2,378466	2020-11-19T14:40:07:419
-5,015356	-7,680960	2,548356	2020-11-19T14:40:07:442
-5,123034	-8,066205	2,667997	2020-11-19T14:40:07:459
-5,206782	-8,195417	2,646462	2020-11-19T14:40:07:484
-4,953143	-8,504091	2,620141	2020-11-19T14:40:07:499
-4,500899	-8,566305	2,249253	2020-11-19T14:40:07:523
-4,388437	-8,506484	1,737189	2020-11-19T14:40:07:540
-4,314260	-8,322237	1,366302	2020-11-19T14:40:07:563
-4,256832	-8,817552	1,445265	2020-11-19T14:40:07:579
-4,046263	-9,619147	1,667797	2020-11-19T14:40:07:602
-4,139583	-9,513863	1,612763	2020-11-19T14:40:07:619
-4,024727	-8,116454	1,194018	2020-11-19T14:40:07:643
-3,622734	-7,412964	1,117448	2020-11-19T14:40:07:659
-3,682554	-9,044869	2,079363	2020-11-19T14:40:07:683
-3,706482	-9,262616	2,105684	2020-11-19T14:40:07:699
-3,455236	-9,044869	1,725225	2020-11-19T14:40:07:723
-3,639483	-9,951750	2,103291	2020-11-19T14:40:07:739
-3,917051	-8,953942	2,024328	2020-11-19T14:40:07:763
-3,515057	-7,511070	1,983650	2020-11-19T14:40:07:781
-2,775674	-6,946364	2,124826	2020-11-19T14:40:07:803
-2,636890	-8,776874	2,368894	2020-11-19T14:40:07:820
-3,538985	-10,509278	2,452643	2020-11-19T14:40:07:843
-4,149154	-10,097712	2,153540	2020-11-19T14:40:07:859
-4,405186	-7,908278	1,555335	2020-11-19T14:40:07:885
-3,766303	-8,063812	2,495714	2020-11-19T14:40:07:899
-4,146761	-10,143176	2,507678	2020-11-19T14:40:07:922
-3,397808	-7,975278	1,208375	2020-11-19T14:40:07:939
-2,871387	-8,118847	1,380659	2020-11-19T14:40:07:964
-3,254239	-10,947165	2,076970	2020-11-19T14:40:07:980
-3,677768	-11,205588	2,392823	2020-11-19T14:40:08:003
-3,242275	-8,305488	2,646462	2020-11-19T14:40:08:020
-3,050849	-8,037491	3,211168	2020-11-19T14:40:08:044
-3,237489	-9,554541	3,079563	2020-11-19T14:40:08:059
-3,060420	-9,999605	2,474179	2020-11-19T14:40:08:083
-3,182454	-8,922836	1,684547	2020-11-19T14:40:08:099
-3,170490	-8,506484	1,914258	2020-11-19T14:40:08:124
-3,625126	-10,487741	2,629712	2020-11-19T14:40:08:140
-3,445665	-9,741181	1,916651	2020-11-19T14:40:08:163
-3,302095	-8,355737	1,531406	2020-11-19T14:40:08:180
-3,342773	-9,241080	2,536392	2020-11-19T14:40:08:204
-3,728018	-9,803394	2,888137	2020-11-19T14:40:08:219
-3,862016	-9,422935	2,385644	2020-11-19T14:40:08:243
-4,089334	-8,350951	1,584049	2020-11-19T14:40:08:261
-4,366901	-8,114061	1,234696	2020-11-19T14:40:08:284
-4,139583	-8,822337	0,985843	2020-11-19T14:40:08:300
-4,005585	-8,810372	0,897308	2020-11-19T14:40:08:323
-4,156333	-7,728817	0,701097	2020-11-19T14:40:08:340
-4,711468	-6,491727	0,973879	2020-11-19T14:40:08:364
-5,489135	-5,434100	0,765703	2020-11-19T14:40:08:380
-6,142376	-6,948757	0,533599	2020-11-19T14:40:08:403
-7,917850	-10,205389	1,976472	2020-11-19T14:40:08:420
-9,513863	-12,330215	2,108077	2020-11-19T14:40:08:444
-11,248660	-13,548162	0,256032	2020-11-19T14:40:08:460
-12,289536	-11,473583	0,212961	2020-11-19T14:40:08:484
-12,610175	-7,381857	1,555335	2020-11-19T14:40:08:501
-13,459626	-4,651647	3,201597	2020-11-19T14:40:08:524
-13,797016	-3,917051	3,917051	2020-11-19T14:40:08:540
-11,667403	-5,273781	3,433701	2020-11-19T14:40:08:563
-10,317852	-6,783652	2,835495	2020-11-19T14:40:08:580
-10,258030	-6,343372	2,569891	2020-11-19T14:40:08:605
-11,006985	-5,575277	2,495714	2020-11-19T14:40:08:620
-11,102697	-5,173282	2,299503	2020-11-19T14:40:08:643
-10,545169	-4,577469	1,947758	2020-11-19T14:40:08:660
-9,994821	-4,254438	1,619941	2020-11-19T14:40:08:686
-9,743573	-4,118048	1,734797	2020-11-19T14:40:08:700
-9,844072	-3,845266	1,945365	2020-11-19T14:40:08:724
-9,674182	-3,876373	1,713261	2020-11-19T14:40:08:741
-9,071191	-3,830909	1,454836	2020-11-19T14:40:08:764
-8,303094	-3,787838	1,423729	2020-11-19T14:40:08:781
-7,606783	-3,718446	1,545763	2020-11-19T14:40:08:804
-6,790830	-3,589234	1,713261	2020-11-19T14:40:08:820
-6,089733	-3,476771	1,629512	2020-11-19T14:40:08:845
-5,812167	-3,273381	1,610370	2020-11-19T14:40:08:860
-5,670990	-3,127419	1,631905	2020-11-19T14:40:08:884
-5,761917	-2,969493	1,543371	2020-11-19T14:40:08:900
-6,381658	-2,725425	1,351945	2020-11-19T14:40:08:925
-7,171289	-2,605784	0,949951	2020-11-19T14:40:08:945
-7,819745	-2,306681	0,669990	2020-11-19T14:40:08:963
-8,461020	-2,234896	0,658026	2020-11-19T14:40:08:982
-8,894121	-2,184647	0,519243	2020-11-19T14:40:09:004
-8,980263	-2,208575	0,557528	2020-11-19T14:40:09:020
-8,925228	-2,589034	0,272782	2020-11-19T14:40:09:044
-8,791230	-2,959922	-0,145962	2020-11-19T14:40:09:060
-8,937192	-3,261417	-0,110070	2020-11-19T14:40:09:085
-9,322437	-3,663411	0,629312	2020-11-19T14:40:09:101
-9,152546	-3,909872	1,093520	2020-11-19T14:40:09:124
-8,530413	-3,414558	1,115055	2020-11-19T14:40:09:140
-8,109276	-2,232504	0,803988	2020-11-19T14:40:09:165
-8,343772	-1,442872	0,832702	2020-11-19T14:40:09:181
-8,750552	-1,172483	1,277767	2020-11-19T14:40:09:204
-8,762517	-0,725025	1,210768	2020-11-19T14:40:09:221
-8,451449	0,126820	1,014557	2020-11-19T14:40:09:244
-8,185846	0,583849	0,945165	2020-11-19T14:40:09:261
-7,578069	0,401994	1,368695	2020-11-19T14:40:09:284
-7,073184	0,531207	1,706082	2020-11-19T14:40:09:301
-6,695118	0,837488	1,832902	2020-11-19T14:40:09:325
-6,673582	0,837488	1,904687	2020-11-19T14:40:09:341
-7,152147	0,873380	2,036292	2020-11-19T14:40:09:364
-7,934600	0,698704	2,158326	2020-11-19T14:40:09:381
-8,738588	0,248854	2,294717	2020-11-19T14:40:09:405
-9,121440	-0,062213	2,313859	2020-11-19T14:40:09:421
-9,396614	-0,129212	2,502892	2020-11-19T14:40:09:444
-9,918249	-0,246461	2,794817	2020-11-19T14:40:09:464
-10,250853	-0,208176	2,921637	2020-11-19T14:40:09:486
-10,219746	-0,437887	2,883351	2020-11-19T14:40:09:501
-10,162319	-0,646062	3,048456	2020-11-19T14:40:09:524
-9,954143	-1,306481	3,211168	2020-11-19T14:40:09:541
-9,717253	-1,986043	3,220739	2020-11-19T14:40:09:565
-9,530612	-2,244468	3,086741	2020-11-19T14:40:09:581
-9,291330	-2,388037	3,163311	2020-11-19T14:40:09:604
-9,145369	-2,522035	3,153740	2020-11-19T14:40:09:621
-9,133404	-2,459821	3,144169	2020-11-19T14:40:09:645
-9,138189	-2,651247	3,244668	2020-11-19T14:40:09:661
-9,152546	-2,687140	3,110669	2020-11-19T14:40:09:685
-8,910872	-2,749353	2,914458	2020-11-19T14:40:09:703
-8,896514	-2,833102	2,770889	2020-11-19T14:40:09:726
-9,119047	-3,093920	2,790031	2020-11-19T14:40:09:742
-9,683753	-3,390630	2,787638	2020-11-19T14:40:09:765
-10,317852	-3,577270	2,706282	2020-11-19T14:40:09:782
-10,863414	-3,684947	2,467000	2020-11-19T14:40:09:806
-11,535798	-3,534199	2,770889	2020-11-19T14:40:09:822
-11,777473	-3,548556	2,184647	2020-11-19T14:40:09:845
-11,801401	-3,407379	1,777867	2020-11-19T14:40:09:862
-11,004591	-3,294917	2,175076	2020-11-19T14:40:09:886
-9,499505	-3,285345	1,823331	2020-11-19T14:40:09:902
-9,092726	-4,120440	-0,136391	2020-11-19T14:40:09:925
-9,987641	-4,467400	-2,002793	2020-11-19T14:40:09:943
-11,380265	-2,165504	-2,237289	2020-11-19T14:40:09:966
-11,997612	-0,122034	-1,380659	2020-11-19T14:40:09:982
-12,301501	-1,186840	-0,464208	2020-11-19T14:40:10:005
-11,660224	-3,000600	-0,564706	2020-11-19T14:40:10:022
-10,695917	-2,885744	-0,677169	2020-11-19T14:40:10:046
-9,662218	-2,500499	-0,468993	2020-11-19T14:40:10:062
-8,461020	-2,842674	0,114855	2020-11-19T14:40:10:086
-8,374879	-3,153740	0,179462	2020-11-19T14:40:10:102
-8,918050	-3,543770	0,078963	2020-11-19T14:40:10:126
-9,099905	-3,651447	-0,110070	2020-11-19T14:40:10:142
-9,052048	-3,661019	-0,311067	2020-11-19T14:40:10:165
-8,939585	-3,627519	-0,299103	2020-11-19T14:40:10:182
-9,052048	-3,309274	0,014357	2020-11-19T14:40:10:206
-9,475577	-2,974278	0,179462	2020-11-19T14:40:10:222
-9,525827	-2,550749	0,196211	2020-11-19T14:40:10:245
-9,066404	-2,098505	0,150748	2020-11-19T14:40:10:262
-8,396415	-1,765903	0,112463	2020-11-19T14:40:10:286
-8,092526	-1,483550	0,210568	2020-11-19T14:40:10:301
-7,965706	-1,418944	0,291924	2020-11-19T14:40:10:326
-7,793423	-1,287339	0,425922	2020-11-19T14:40:10:341
-7,558927	-1,191626	0,531207	2020-11-19T14:40:10:366
-7,747960	-1,287339	0,787239	2020-11-19T14:40:10:383
-8,226524	-1,526621	0,921237	2020-11-19T14:40:10:404
-8,740981	-1,588834	0,885344	2020-11-19T14:40:10:423
-9,308081	-1,071985	0,799203	2020-11-19T14:40:10:446
-10,279566	-0,289532	0,459422	2020-11-19T14:40:10:463
-11,720046	-0,370888	0,055035	2020-11-19T14:40:10:486
-12,815958	-0,390030	-0,150748	2020-11-19T14:40:10:503
-12,964314	-0,449851	-0,234497	2020-11-19T14:40:10:526
-12,315859	-0,887737	0,354138	2020-11-19T14:40:10:543
-11,272588	-1,545763	0,916451	2020-11-19T14:40:10:566
-10,719845	-2,163112	0,964308	2020-11-19T14:40:10:583
-10,387242	-1,964507	0,890130	2020-11-19T14:40:10:607
-9,891929	-1,464408	0,595813	2020-11-19T14:40:10:623
-9,128618	-0,681954	-0,495314	2020-11-19T14:40:10:646
-10,164711	0,653241	1,622334	2020-11-19T14:40:10:663
-10,638489	1,289732	0,253639	2020-11-19T14:40:10:686
-10,767702	-2,498107	0,756132	2020-11-19T14:40:10:703
-10,449455	-2,632105	-0,220140	2020-11-19T14:40:10:726
-9,578469	-2,694318	-0,849452	2020-11-19T14:40:10:742
-8,772088	-2,682354	-0,806381	2020-11-19T14:40:10:767
-8,669197	-2,495714	-0,641276	2020-11-19T14:40:10:783
-8,659625	-2,739782	-0,198604	2020-11-19T14:40:10:806
-8,729016	-3,134598	0,136391	2020-11-19T14:40:10:823
-8,824730	-2,924029	0,564706	2020-11-19T14:40:10:847
-8,736196	-2,533999	0,803988	2020-11-19T14:40:10:862
-8,918050	-1,995614	1,457229	2020-11-19T14:40:10:886
-9,099905	-2,084148	2,021935	2020-11-19T14:40:10:904
-9,731609	-2,589034	2,426322	2020-11-19T14:40:10:927
-10,073784	-2,699104	2,991028	2020-11-19T14:40:10:943
-9,803394	-2,615355	3,122634	2020-11-19T14:40:10:966
-9,509077	-2,916851	2,967100	2020-11-19T14:40:10:983
-9,568897	-3,146562	2,402394	2020-11-19T14:40:11:007
-9,272188	-2,699104	2,452643	2020-11-19T14:40:11:022
-8,827123	-1,550549	2,435893	2020-11-19T14:40:11:046
-8,463413	-1,009771	1,911865	2020-11-19T14:40:11:063
-8,468199	-0,600598	1,239482	2020-11-19T14:40:11:087
-8,200203	-0,449851	0,574277	2020-11-19T14:40:11:102
-8,118847	-0,559920	-0,047856	2020-11-19T14:40:11:126
-8,666803	-0,780060	-0,540778	2020-11-19T14:40:11:144
-9,647861	-1,600798	-1,655833	2020-11-19T14:40:11:167
-13,919049	-3,488736	-2,069792	2020-11-19T14:40:11:183
-16,632511	-4,429115	-2,038685	2020-11-19T14:40:11:207
-16,017555	-4,426722	-1,895115	2020-11-19T14:40:11:223
-12,492928	-3,632305	-2,177469	2020-11-19T14:40:11:247
-10,444671	-3,682554	-2,036292	2020-11-19T14:40:11:263
-9,477970	-3,926622	-1,753939	2020-11-19T14:40:11:287
-9,116654	-3,684947	-1,713261	2020-11-19T14:40:11:303
-9,497113	-3,390630	-1,371087	2020-11-19T14:40:11:327
-10,191031	-3,957729	-0,870987	2020-11-19T14:40:11:343
-10,703095	-4,890929	-1,074377	2020-11-19T14:40:11:366
-10,805987	-5,843273	-2,431108	2020-11-19T14:40:11:384
-10,322637	-7,020542	-4,199404	2020-11-19T14:40:11:407
-9,267403	-8,204988	-4,905287	2020-11-19T14:40:11:423
-8,195417	-8,197811	-4,651647	2020-11-19T14:40:11:447
-8,281559	-7,269395	-4,146761	2020-11-19T14:40:11:463
-9,111869	-6,472585	-4,051049	2020-11-19T14:40:11:488
-9,667004	-6,230910	-4,168297	2020-11-19T14:40:11:503
-9,686146	-6,118448	-4,706682	2020-11-19T14:40:11:526
-9,542577	-5,883951	-5,204390	2020-11-19T14:40:11:543
-9,408579	-5,663811	-5,592027	2020-11-19T14:40:11:567
-9,413363	-5,190032	-5,661418	2020-11-19T14:40:11:584
-9,513863	-4,675575	-5,608776	2020-11-19T14:40:11:607
-9,559326	-4,096512	-5,493921	2020-11-19T14:40:11:625
-9,372685	-3,352344	-5,393422	2020-11-19T14:40:11:647
-8,248059	-3,184847	-5,340781	2020-11-19T14:40:11:663
-7,283752	-2,689533	-4,869394	2020-11-19T14:40:11:687
-6,805188	-2,512464	-4,618148	2020-11-19T14:40:11:703
-6,742974	-2,656033	-4,515256	2020-11-19T14:40:11:727
-6,960721	-2,818745	-4,338188	2020-11-19T14:40:11:744
-7,111469	-3,010171	-4,039084	2020-11-19T14:40:11:767
-7,441679	-3,024528	-3,536592	2020-11-19T14:40:11:784
-8,020741	-3,321238	-2,993421	2020-11-19T14:40:11:809
-9,623933	-3,290131	-3,019742	2020-11-19T14:40:11:824
-10,279566	-3,270989	-2,665605	2020-11-19T14:40:11:847
-10,815558	-3,658626	-1,617548	2020-11-19T14:40:11:865
-12,040684	-4,407579	-0,885344	2020-11-19T14:40:11:889
-14,179866	-4,596612	-0,423530	2020-11-19T14:40:11:904
-13,952549	-4,728218	0,461815	2020-11-19T14:40:11:927
-11,617154	-4,053442	-0,095713	2020-11-19T14:40:11:944
-10,583455	-2,847459	-0,808774	2020-11-19T14:40:11:968
-10,494920	-0,418744	-1,847259	2020-11-19T14:40:11:984
-10,411172	1,517050	-2,502892	2020-11-19T14:40:12:007
-10,884951	1,450050	-1,880759	2020-11-19T14:40:12:024
-11,126624	0,782453	-1,172483	2020-11-19T14:40:12:048
-10,588240	0,607777	-0,983450	2020-11-19T14:40:12:063
-10,155140	-0,045464	-0,758525	2020-11-19T14:40:12:087
-10,207782	-0,971486	-0,406780	2020-11-19T14:40:12:105
-10,167104	-1,074377	0,086142	2020-11-19T14:40:12:127
-10,107283	-1,079163	0,416351	2020-11-19T14:40:12:144
-9,544970	-1,103091	0,466600	2020-11-19T14:40:12:167
-9,300901	-0,229711	0,413958	2020-11-19T14:40:12:184
-8,968300	0,734596	0,066999	2020-11-19T14:40:12:208
-9,040084	0,863809	-0,066999	2020-11-19T14:40:12:224
-9,042477	0,366102	0,086142	2020-11-19T14:40:12:247
-8,886944	-0,035892	0,514457	2020-11-19T14:40:12:264
-8,410772	0,308674	0,629312	2020-11-19T14:40:12:288
-8,358130	0,169890	0,648455	2020-11-19T14:40:12:304
-8,470592	-0,428315	0,717847	2020-11-19T14:40:12:327
-8,441878	-0,741775	0,643669	2020-11-19T14:40:12:345
-8,461020	-0,981057	0,703490	2020-11-19T14:40:12:368
-8,630912	-0,945165	1,162912	2020-11-19T14:40:12:384
-8,736196	-0,882952	1,514657	2020-11-19T14:40:12:407
-8,827123	-1,110270	2,024328	2020-11-19T14:40:12:424
-9,382257	-2,194218	2,744568	2020-11-19T14:40:12:448
-9,530612	-3,720839	2,421536	2020-11-19T14:40:12:465
-9,473185	-4,220939	2,632105	2020-11-19T14:40:12:488
-9,525827	-5,130211	2,766103	2020-11-19T14:40:12:504
-9,427721	-5,469993	3,335595	2020-11-19T14:40:12:528
-9,576077	-5,984450	3,292524	2020-11-19T14:40:12:545
-10,384850	-5,994020	3,467200	2020-11-19T14:40:12:568
-10,973484	-6,281159	2,536392	2020-11-19T14:40:12:586
-11,856436	-6,307480	2,167897	2020-11-19T14:40:12:608
-12,265609	-5,678168	1,801795	2020-11-19T14:40:12:624
-12,600604	-5,426922	2,065006	2020-11-19T14:40:12:648
-12,258430	-5,776274	2,517249	2020-11-19T14:40:12:664
-10,817951	-5,659025	2,557927	2020-11-19T14:40:12:689
-9,556933	-5,347959	2,167897	2020-11-19T14:40:12:704
-9,382257	-5,453243	2,065006	2020-11-19T14:40:12:728
-10,549955	-5,048856	3,323631	2020-11-19T14:40:12:745
-10,212566	-5,486742	2,256432	2020-11-19T14:40:12:769
-11,179268	-4,831109	1,423729	2020-11-19T14:40:12:785
-11,612368	1,383051	2,868994	2020-11-19T14:40:12:807
-11,251052	-0,803988	1,184447	2020-11-19T14:40:12:826
-10,856236	-3,383451	-0,131605	2020-11-19T14:40:12:848
-10,341780	-4,742575	0,016750	2020-11-19T14:40:12:865
-9,698111	-5,199604	0,390030	2020-11-19T14:40:12:888
-9,221939	-5,728417	0,619741	2020-11-19T14:40:12:904
-9,257831	-5,560920	1,191626	2020-11-19T14:40:12:928
-9,317651	-4,469792	0,921237	2020-11-19T14:40:12:944
-9,272188	-3,364309	0,270389	2020-11-19T14:40:12:967
-9,071191	-2,787638	-0,200997	2020-11-19T14:40:12:985
-8,638089	-2,938386	-0,339781	2020-11-19T14:40:13:008
-8,396415	-3,079563	0,062213	2020-11-19T14:40:13:024
-8,147561	-2,653640	0,636491	2020-11-19T14:40:13:047
-7,774280	-2,043471	0,409173	2020-11-19T14:40:13:066
-7,357929	-1,966900	0,062213	2020-11-19T14:40:13:089
-6,948757	-2,199004	-0,062213	2020-11-19T14:40:13:106
-6,802795	-2,629712	0,267996	2020-11-19T14:40:13:127
-7,015756	-2,897708	0,674776	2020-11-19T14:40:13:145
-7,580462	-3,069991	0,799203	2020-11-19T14:40:13:168
-8,202596	-2,895315	0,827917	2020-11-19T14:40:13:185
-8,688338	-2,600998	0,780060	2020-11-19T14:40:13:208
-9,358330	-2,416751	0,806381	2020-11-19T14:40:13:225
-10,533205	-2,428715	0,875773	2020-11-19T14:40:13:249
-11,576476	-2,541178	0,839881	2020-11-19T14:40:13:265
-11,966506	-2,809174	0,751346	2020-11-19T14:40:13:288
-11,265409	-3,108276	0,899701	2020-11-19T14:40:13:307
-9,834501	-3,474378	1,531406	2020-11-19T14:40:13:328
-8,001599	-4,034299	2,306681	2020-11-19T14:40:13:345
-7,491928	-4,199404	2,711068	2020-11-19T14:40:13:368
-7,590034	-3,783052	2,505285	2020-11-19T14:40:13:386
-8,291130	-3,160919	2,031506	2020-11-19T14:40:13:408
-8,889337	-2,711068	1,435694	2020-11-19T14:40:13:425
-9,394222	-2,483750	0,890130	2020-11-19T14:40:13:448
-9,779467	-2,297110	0,669990	2020-11-19T14:40:13:466
-9,844072	-2,189433	0,564706	2020-11-19T14:40:13:489
-9,805787	-1,981257	0,638884	2020-11-19T14:40:13:506
-9,571291	-1,641476	0,571885	2020-11-19T14:40:13:529
-10,021141	-2,857030	1,569692	2020-11-19T14:40:13:548
-9,745967	-3,641876	0,969093	2020-11-19T14:40:13:569
-9,217153	-3,859623	0,739382	2020-11-19T14:40:13:586
-8,774480	-4,122833	0,545564	2020-11-19T14:40:13:608
-8,714661	-4,606184	0,837488	2020-11-19T14:40:13:625
-9,269794	-5,003392	1,246661	2020-11-19T14:40:13:649
-9,868000	-5,276174	1,679761	2020-11-19T14:40:13:665
-10,234102	-5,072784	2,103291	2020-11-19T14:40:13:688
-10,518847	-5,127820	2,364109	2020-11-19T14:40:13:706
-10,523634	-5,295317	2,646462	2020-11-19T14:40:13:730
-10,064213	-4,835894	2,598605	2020-11-19T14:40:13:746
-9,427721	-4,242475	2,404787	2020-11-19T14:40:13:768
-8,896514	-3,505485	2,021935	2020-11-19T14:40:13:787
-8,583055	-3,572484	1,993221	2020-11-19T14:40:13:811
-8,944371	-4,144369	2,512464	2020-11-19T14:40:13:827
-9,241080	-3,993621	2,758924	2020-11-19T14:40:13:848
-9,511470	-3,548556	2,823531	2020-11-19T14:40:13:866
-9,767502	-3,306881	2,914458	2020-11-19T14:40:13:890
-10,023535	-3,574877	2,790031	2020-11-19T14:40:13:906
-10,779665	-3,864408	2,667997	2020-11-19T14:40:13:929
-11,239087	-4,252046	2,617748	2020-11-19T14:40:13:947
-10,779665	-4,173083	2,249253	2020-11-19T14:40:13:969
-10,463813	-3,850052	1,988436	2020-11-19T14:40:13:986
-10,578669	-4,060620	1,926222	2020-11-19T14:40:14:009
-10,533205	-4,177868	2,014757	2020-11-19T14:40:14:029
-9,659825	-4,218546	1,883151	2020-11-19T14:40:14:051
-9,681360	-4,158726	1,579263	2020-11-19T14:40:14:169
-10,999805	-4,622933	1,430908	2020-11-19T14:40:14:170
-12,624532	-4,725825	1,225125	2020-11-19T14:40:14:171
-13,854443	-4,723432	0,897308	2020-11-19T14:40:14:172
-14,404793	-4,728218	0,334995	2020-11-19T14:40:14:172
-13,916656	-4,383651	-0,454636	2020-11-19T14:40:14:173
-12,055040	-3,917051	-1,098306	2020-11-19T14:40:14:244
-10,140782	-3,653840	-0,966700	2020-11-19T14:40:14:250
-9,006584	-3,527020	-0,473779	2020-11-19T14:40:14:251
-8,745767	-3,498307	-0,026321	2020-11-19T14:40:14:251
-9,147761	-3,519842	0,143569	2020-11-19T14:40:14:310
-9,343972	-3,716053	-0,093320	2020-11-19T14:40:14:312
-9,123833	-4,012764	-0,490529	2020-11-19T14:40:14:314
-8,688338	-4,240082	-0,732204	2020-11-19T14:40:14:335
-8,178668	-4,275974	-0,918844	2020-11-19T14:40:14:351
-8,049455	-4,012764	-1,198804	2020-11-19T14:40:14:369
-8,078169	-3,455236	-1,265803	2020-11-19T14:40:14:385
-7,668997	-3,596412	-0,894916	2020-11-19T14:40:14:408
-7,317252	-3,711268	-0,361316	2020-11-19T14:40:14:425
-6,963113	-3,783052	0,186640	2020-11-19T14:40:14:451
-7,032506	-3,780660	0,784846	2020-11-19T14:40:14:466
-7,391429	-3,692125	1,198804	2020-11-19T14:40:14:489
-7,731210	-3,701697	1,387837	2020-11-19T14:40:14:507
-7,936993	-3,725625	1,409373	2020-11-19T14:40:14:530
-8,118847	-3,763910	1,493121	2020-11-19T14:40:14:546
-8,398808	-3,689733	1,672583	2020-11-19T14:40:14:569
-9,138189	-3,529413	2,103291	2020-11-19T14:40:14:587
-9,690931	-3,354738	2,019542	2020-11-19T14:40:14:610
-10,049855	-3,471986	2,024328	2020-11-19T14:40:14:629
-9,934999	-3,524628	2,263610	2020-11-19T14:40:14:653
-10,045070	-3,424129	2,514857	2020-11-19T14:40:14:667
-10,202995	-3,129812	2,794817	2020-11-19T14:40:14:691
-10,375278	-2,835495	2,866602	2020-11-19T14:40:14:706
-10,829915	-2,543570	3,129812	2020-11-19T14:40:14:731
-10,762917	-1,531406	3,249453	2020-11-19T14:40:14:747
-9,968499	-0,071785	3,046063	2020-11-19T14:40:14:770
-9,202796	0,902094	2,991028	2020-11-19T14:40:14:787
-8,511270	0,715454	3,132205	2020-11-19T14:40:14:809
-8,164310	0,102891	3,290131	2020-11-19T14:40:14:827
-8,508877	0,045464	3,357130	2020-11-19T14:40:14:850
-8,506484	0,476172	3,139383	2020-11-19T14:40:14:866
-8,819944	0,703490	2,976671	2020-11-19T14:40:14:889
-9,355937	0,811167	3,192025	2020-11-19T14:40:14:906
-9,291330	0,442672	2,912065	2020-11-19T14:40:14:931
-8,776874	-1,344766	2,440679	2020-11-19T14:40:14:946
-8,812766	-1,660619	2,419144	2020-11-19T14:40:14:970
-8,671589	-0,504886	2,385644	2020-11-19T14:40:14:987
-8,580662	0,557528	2,617748	2020-11-19T14:40:15:010
-9,049655	0,002393	2,675175	2020-11-19T14:40:15:027
-9,391829	-0,792024	1,806581	2020-11-19T14:40:15:049
-9,726824	-0,669990	2,900101	2020-11-19T14:40:15:066
-10,018748	-3,089134	3,675375	2020-11-19T14:40:15:091
-9,734003	-3,998406	3,988836	2020-11-19T14:40:15:106
-9,406186	-4,156333	4,508078	2020-11-19T14:40:15:129
-9,090333	-4,761717	4,259224	2020-11-19T14:40:15:147
-9,432507	-5,615955	4,283153	2020-11-19T14:40:15:171
-9,700503	-4,642076	3,811767	2020-11-19T14:40:15:187
-9,489935	-4,058227	3,268596	2020-11-19T14:40:15:209
-8,528020	-3,687340	1,923829	2020-11-19T14:40:15:227
-8,616554	-4,094120	1,529014	2020-11-19T14:40:15:251
-9,174082	-5,563312	2,809174	2020-11-19T14:40:15:267
-7,678568	-5,615955	3,091527	2020-11-19T14:40:15:290
-6,798009	-3,771089	2,270789	2020-11-19T14:40:15:306
-7,412964	-2,792424	1,741975	2020-11-19T14:40:15:331
-9,422935	-3,402594	0,882952	2020-11-19T14:40:15:346
-11,408978	-3,828516	1,004985	2020-11-19T14:40:15:369
-12,746566	-4,156333	0,081356	2020-11-19T14:40:15:388
-13,978869	-5,233103	-0,906880	2020-11-19T14:40:15:410
-14,423935	-5,326423	-1,720440	2020-11-19T14:40:15:427
-14,888142	-5,723632	-2,160719	2020-11-19T14:40:15:450
-14,940784	-6,362515	-1,931008	2020-11-19T14:40:15:468
-12,210573	-5,022535	-1,732404	2020-11-19T14:40:15:490
-10,983055	-3,909872	-1,390230	2020-11-19T14:40:15:507
-10,435099	-3,677768	-1,332802	2020-11-19T14:40:15:529
-10,332209	-3,816552	-1,222732	2020-11-19T14:40:15:547
-10,341780	-3,833302	-1,268196	2020-11-19T14:40:15:570
-10,336994	-3,878766	-1,406980	2020-11-19T14:40:15:587
-10,413565	-3,811767	-1,476372	2020-11-19T14:40:15:610
-10,585848	-3,649055	-1,323231	2020-11-19T14:40:15:627
-10,767702	-3,462414	-1,119841	2020-11-19T14:40:15:651
-10,542776	-3,249453	-0,636491	2020-11-19T14:40:15:667
-10,262815	-2,900101	-0,356531	2020-11-19T14:40:15:690
-9,889536	-2,730211	-0,210568	2020-11-19T14:40:15:708
-9,542577	-2,421536	-0,323031	2020-11-19T14:40:15:730
-9,473185	-2,593820	0,224925	2020-11-19T14:40:15:747
-9,722038	-3,170490	0,849452	2020-11-19T14:40:15:770
-9,968499	-3,337988	1,208375	2020-11-19T14:40:15:787
-10,138390	-2,964707	0,847059	2020-11-19T14:40:15:811
-9,561719	-2,883351	0,564706	2020-11-19T14:40:15:827
-8,793623	-2,821138	1,004985	2020-11-19T14:40:15:850
-8,185846	-3,371487	1,548156	2020-11-19T14:40:15:867
-7,920243	-3,751946	2,325824	2020-11-19T14:40:15:891
-7,750352	-3,821337	2,414358	2020-11-19T14:40:15:907
-7,209574	-3,833302	2,222932	2020-11-19T14:40:15:930
-6,673582	-4,153940	2,273181	2020-11-19T14:40:15:948
-6,264410	-4,469792	2,732604	2020-11-19T14:40:15:971
-6,118448	-4,517649	3,103491	2020-11-19T14:40:15:988
-6,405586	-4,443472	2,952743	2020-11-19T14:40:16:010
-7,274181	-4,252046	2,689533	2020-11-19T14:40:16:027
-8,039884	-4,015156	2,519642	2020-11-19T14:40:16:051
-7,724032	-3,905087	2,797210	2020-11-19T14:40:16:068
-6,845865	-4,378866	3,069991	2020-11-19T14:40:16:090
-6,807580	-4,874180	3,381058	2020-11-19T14:40:16:107
-7,692925	-5,314459	3,364309	2020-11-19T14:40:16:131
-8,109276	-5,608776	3,897908	2020-11-19T14:40:16:147
-7,561320	-5,850451	5,417351	2020-11-19T14:40:16:171
-6,254838	-6,190232	7,003791	2020-11-19T14:40:16:189
-5,314459	-6,285945	7,243074	2020-11-19T14:40:16:212
-5,106283	-5,276174	6,178268	2020-11-19T14:40:16:228
-5,441278	-4,512863	4,974678	2020-11-19T14:40:16:250
-6,003592	-3,885944	4,721039	2020-11-19T14:40:16:267
-6,568298	-3,495914	5,142176	2020-11-19T14:40:16:291
-6,824330	-3,527020	5,087141	2020-11-19T14:40:16:307
-6,900900	-3,577270	5,422136	2020-11-19T14:40:16:330
-6,774081	-3,718446	5,254639	2020-11-19T14:40:16:348
-6,711867	-3,538985	4,620540	2020-11-19T14:40:16:371
-7,022934	-3,471986	4,488935	2020-11-19T14:40:16:388
-7,209574	-4,165904	4,666004	2020-11-19T14:40:16:411
-7,200003	-4,625326	4,725825	2020-11-19T14:40:16:429
-7,391429	-4,850252	4,527221	2020-11-19T14:40:16:451
-7,843673	-5,015356	4,060620	2020-11-19T14:40:16:468
-8,111670	-4,953143	4,113262	2020-11-19T14:40:16:491
-8,410772	-4,917251	4,462614	2020-11-19T14:40:16:508
-8,319844	-4,543970	3,917051	2020-11-19T14:40:16:531
-8,422735	-4,311867	2,952743	2020-11-19T14:40:16:548
-8,434700	-4,029513	2,763710	2020-11-19T14:40:16:571
-8,551948	-4,261617	2,634498	2020-11-19T14:40:16:588
-8,470592	-4,493721	2,474179	2020-11-19T14:40:16:611
-8,204988	-4,488935	2,364109	2020-11-19T14:40:16:628
-8,142776	-4,409972	2,261217	2020-11-19T14:40:16:651
-8,394022	-4,345366	2,225325	2020-11-19T14:40:16:670
-8,879765	-4,366901	2,165504	2020-11-19T14:40:16:692
-9,513863	-4,240082	1,880759	2020-11-19T14:40:16:708
-10,451849	-4,194618	1,639083	2020-11-19T14:40:16:731
-11,109876	-4,058227	1,600798	2020-11-19T14:40:16:748
-11,143374	-3,711268	1,569692	2020-11-19T14:40:16:771
-10,135997	-3,259024	1,694118	2020-11-19T14:40:16:788
-8,444271	-2,950350	1,706082	2020-11-19T14:40:16:811
-7,357929	-2,947958	1,617548	2020-11-19T14:40:16:828
-7,968100	-3,232704	1,658226	2020-11-19T14:40:16:852
-9,525827	-3,443272	1,648655	2020-11-19T14:40:16:868
-10,846665	-3,304488	1,344766	2020-11-19T14:40:16:891
-11,985649	-3,213561	0,849452	2020-11-19T14:40:16:909
-12,571891	-3,586841	0,514457	2020-11-19T14:40:16:932
-11,782259	-3,804588	0,531207	2020-11-19T14:40:16:948
-10,877771	-3,632305	0,715454	2020-11-19T14:40:16:971
-10,092925	-3,500700	1,263410	2020-11-19T14:40:16:988
-9,288938	-3,713661	1,552942	2020-11-19T14:40:17:012
-8,863015	-4,086941	1,694118	2020-11-19T14:40:17:028
-8,724231	-4,553542	1,935793	2020-11-19T14:40:17:051
-8,374879	-5,158926	1,866402	2020-11-19T14:40:17:082
-8,142776	-5,453243	2,526821	2020-11-19T14:40:17:094
-8,482556	-4,366901	3,091527	2020-11-19T14:40:17:108
-8,288737	-3,290131	2,459821	2020-11-19T14:40:17:131
-8,255238	-2,931208	1,909473	2020-11-19T14:40:17:149
-8,791230	-3,270989	2,309074	2020-11-19T14:40:17:172
-8,884550	-3,615555	1,931008	2020-11-19T14:40:17:189
-9,111869	-3,938586	1,514657	2020-11-19T14:40:17:211
-8,903693	-3,806981	1,194018	2020-11-19T14:40:17:228
-8,640482	-3,694518	0,981057	2020-11-19T14:40:17:252
-8,736196	-3,426522	0,825524	2020-11-19T14:40:17:268
-8,702696	-3,232704	0,725025	2020-11-19T14:40:17:292
-8,482556	-3,414558	0,964308	2020-11-19T14:40:17:309
-8,729016	-3,507878	0,961915	2020-11-19T14:40:17:332
-9,425328	-3,567699	0,780060	2020-11-19T14:40:17:349
-10,791630	-3,653840	0,378066	2020-11-19T14:40:17:371
-11,832507	-3,385844	0,107677	2020-11-19T14:40:17:390
-11,509477	-3,120241	0,275175	2020-11-19T14:40:17:412
-10,564312	-2,849852	0,449851	2020-11-19T14:40:17:429
-9,609575	-2,620141	0,488136	2020-11-19T14:40:17:452
-8,815158	-2,385644	0,607777	2020-11-19T14:40:17:469
-8,183454	-1,694118	0,471386	2020-11-19T14:40:17:493
-7,747960	-0,854238	0,468993	2020-11-19T14:40:17:509
-7,843673	-0,344566	0,210568	2020-11-19T14:40:17:531
-8,506484	0,150748	-0,102891	2020-11-19T14:40:17:549
-9,403792	0,669990	-0,734596	2020-11-19T14:40:17:573
-10,363315	0,906880	-0,863809	2020-11-19T14:40:17:589
-11,100305	0,830309	-0,763310	2020-11-19T14:40:17:612
-11,361122	0,007178	-0,071785	2020-11-19T14:40:17:630
-11,425728	-0,445065	0,301496	2020-11-19T14:40:17:652
-11,030912	-0,715454	0,612563	2020-11-19T14:40:17:669
-10,530812	-0,856631	1,050449	2020-11-19T14:40:17:692
-9,894321	-1,021735	1,179662	2020-11-19T14:40:17:709
-9,487542	-1,000200	1,138984	2020-11-19T14:40:17:733
-9,772287	-0,945165	1,131805	2020-11-19T14:40:17:749
-10,013963	-0,935594	1,490728	2020-11-19T14:40:17:772
-9,949356	-0,483350	1,545763	2020-11-19T14:40:17:790
-9,487542	-0,332602	1,663012	2020-11-19T14:40:17:813
-9,145369	-0,949951	1,842474	2020-11-19T14:40:17:829
-8,690732	-1,521835	1,947758	2020-11-19T14:40:17:852
-8,322237	-2,072184	2,009971	2020-11-19T14:40:17:870
-8,063812	-2,739782	2,088934	2020-11-19T14:40:17:894
-7,668997	-3,203990	2,206182	2020-11-19T14:40:17:910
-7,525427	-3,254239	2,249253	2020-11-19T14:40:17:932
-7,814958	-3,314059	2,227718	2020-11-19T14:40:17:949
-8,391629	-3,227918	2,232504	2020-11-19T14:40:17:973
-9,095119	-3,419343	2,258825	2020-11-19T14:40:17:990
-9,791430	-3,517449	2,062613	2020-11-19T14:40:18:012
-10,719845	-3,452843	1,942972	2020-11-19T14:40:18:029
-12,074183	-3,536592	1,792224	2020-11-19T14:40:18:052
-14,100904	-3,905087	1,911865	2020-11-19T14:40:18:069
-15,304493	-4,299902	2,210968	2020-11-19T14:40:18:093
-13,737194	-4,079762	1,993221	2020-11-19T14:40:18:111
-10,920842	-3,668197	1,495514	2020-11-19T14:40:18:132
-8,925228	-3,574877	1,270589	2020-11-19T14:40:18:149
-7,668997	-3,558127	1,253839	2020-11-19T14:40:18:173
-7,661818	-3,440879	1,258625	2020-11-19T14:40:18:190
-9,145369	-3,591627	1,385444	2020-11-19T14:40:18:212
-10,660025	-3,677768	1,249053	2020-11-19T14:40:18:229
-11,698510	-3,570091	1,062413	2020-11-19T14:40:18:252
-12,260822	-3,311667	0,713061	2020-11-19T14:40:18:270
-12,236896	-3,005385	0,275175	2020-11-19T14:40:18:293
-11,935399	-2,699104	0,076570	2020-11-19T14:40:18:309
-11,576476	-2,438286	-0,045464	2020-11-19T14:40:18:332
-10,822738	-2,273181	-0,074178	2020-11-19T14:40:18:350
-9,887143	-2,158326	-0,296710	2020-11-19T14:40:18:372
-9,836893	-2,225325	-0,220140	2020-11-19T14:40:18:390
-9,511470	-2,390430	-0,076570	2020-11-19T14:40:18:413
-9,245867	-2,519642	-0,076570	2020-11-19T14:40:18:430
-8,769694	-2,493321	-0,301496	2020-11-19T14:40:18:452
-8,312666	-2,598605	-0,351745	2020-11-19T14:40:18:470
-7,944171	-2,878566	0,313460	2020-11-19T14:40:18:493
-7,731210	-2,634498	0,997807	2020-11-19T14:40:18:510
-7,417750	-2,177469	0,796810	2020-11-19T14:40:18:534
-7,133004	-1,966900	0,519243	2020-11-19T14:40:18:550
-6,740582	-1,928615	0,564706	2020-11-19T14:40:18:573
-6,750153	-2,151148	0,830309	2020-11-19T14:40:18:592
-7,130611	-2,251646	0,985843	2020-11-19T14:40:18:612
-7,917850	-2,108077	1,067199	2020-11-19T14:40:18:630
-8,848659	-1,574477	1,103091	2020-11-19T14:40:18:653
-9,588040	-0,820738	0,792024	2020-11-19T14:40:18:670
-10,593026	-0,468993	0,902094	2020-11-19T14:40:18:693
-10,887343	-1,138984	0,878166	2020-11-19T14:40:18:710
-10,901700	-1,715654	0,870987	2020-11-19T14:40:18:732
-11,174481	-2,464607	1,191626	2020-11-19T14:40:18:750
-11,665009	-3,031706	1,825724	2020-11-19T14:40:18:775
-11,085947	-3,292524	2,194218	2020-11-19T14:40:18:790
-10,045070	-3,699304	2,648855	2020-11-19T14:40:18:813
-9,765109	-4,249653	3,460021	2020-11-19T14:40:18:831
-9,611969	-4,555934	4,168297	2020-11-19T14:40:18:853
-9,346365	-4,302295	4,407579	2020-11-19T14:40:18:870
-10,423136	-4,053442	4,335794	2020-11-19T14:40:18:893
-11,619547	-3,625126	3,500700	2020-11-19T14:40:18:910
-11,971292	-3,055635	2,335395	2020-11-19T14:40:18:933
-11,746366	-2,572284	1,414158	2020-11-19T14:40:18:950
-11,298907	-2,160719	1,000200	2020-11-19T14:40:18:972
-10,413565	-2,146362	1,079163	2020-11-19T14:40:18:990
-9,389436	-2,581856	1,277767	2020-11-19T14:40:19:015
-8,791230	-3,211168	1,383051	2020-11-19T14:40:19:040
-8,338986	-3,792624	1,270589	2020-11-19T14:40:19:054
-8,343772	-4,125226	1,232304	2020-11-19T14:40:19:071
-8,544770	-4,139583	1,313660	2020-11-19T14:40:19:093
-8,736196	-4,027121	1,409373	2020-11-19T14:40:19:110
-8,738588	-3,737589	1,299303	2020-11-19T14:40:19:133
-8,329416	-3,371487	1,387837	2020-11-19T14:40:19:150
-7,963314	-3,170490	1,495514	2020-11-19T14:40:19:174
-7,649854	-3,239882	1,895115	2020-11-19T14:40:19:198
-7,420143	-3,402594	2,191825	2020-11-19T14:40:19:213
-7,116255	-3,579663	2,330609	2020-11-19T14:40:19:230
-7,195218	-3,862016	2,562713	2020-11-19T14:40:19:254
-7,671390	-4,115655	2,993421	2020-11-19T14:40:19:270
-8,420342	-4,283153	3,292524	2020-11-19T14:40:19:293
-9,064013	-4,132405	3,151347	2020-11-19T14:40:19:311
-9,946963	-3,900301	2,809174	2020-11-19T14:40:19:333
-11,459228	-3,754339	2,577070	2020-11-19T14:40:19:351
-13,067204	-3,701697	2,617748	2020-11-19T14:40:19:373
-13,902299	-3,771089	2,737389	2020-11-19T14:40:19:391
-13,818550	-3,761517	2,794817	2020-11-19T14:40:19:413
-13,380664	-4,072584	3,168097	2020-11-19T14:40:19:431
-11,473583	-4,048656	3,189633	2020-11-19T14:40:19:453
-9,150154	-3,847659	2,706282	2020-11-19T14:40:19:471
-7,795816	-3,725625	2,134398	2020-11-19T14:40:19:494
-8,250452	-3,850052	1,797010	2020-11-19T14:40:19:510
-9,774680	-3,809374	1,734797	2020-11-19T14:40:19:533
-11,289338	-3,706482	1,708475	2020-11-19T14:40:19:551
-12,323036	-3,634698	1,454836	2020-11-19T14:40:19:573
-13,024135	-3,412165	0,990629	2020-11-19T14:40:19:591
-13,026526	-3,180061	0,332602	2020-11-19T14:40:19:613
-11,870793	-2,682354	-0,043071	2020-11-19T14:40:19:631
-10,456635	-2,244468	-0,217747	2020-11-19T14:40:19:654
-9,449257	-2,019542	-0,141177	2020-11-19T14:40:19:671
-8,755339	-2,029114	0,028714	2020-11-19T14:40:19:693
-8,453842	-2,328217	0,117248	2020-11-19T14:40:19:711
-8,240881	-2,739782	0,222532	2020-11-19T14:40:19:734
-8,331808	-2,868994	0,303888	2020-11-19T14:40:19:751
-8,377272	-3,005385	-0,045464	2020-11-19T14:40:19:773
-8,465806	-2,847459	0,045464	2020-11-19T14:40:19:795
-8,420342	-2,502892	0,665205	2020-11-19T14:40:19:813
-8,288737	-2,163112	0,729811	2020-11-19T14:40:19:831
-8,073383	-1,830509	0,660419	2020-11-19T14:40:19:853
-7,889136	-1,813759	0,739382	2020-11-19T14:40:19:871
-7,743174	-1,945365	1,069592	2020-11-19T14:40:19:894
-7,515855	-2,031506	1,191626	2020-11-19T14:40:19:910
-7,396214	-1,835295	1,115055	2020-11-19T14:40:19:933
-7,544570	-1,919044	1,007378	2020-11-19T14:40:19:951
-7,948956	-2,038685	1,074377	2020-11-19T14:40:19:975
-8,236095	-2,194218	1,263410	2020-11-19T14:40:19:991
-8,855836	-2,364109	1,328017	2020-11-19T14:40:20:016
-9,767502	-2,751746	1,284946	2020-11-19T14:40:20:032
-10,325029	-2,878566	1,385444	2020-11-19T14:40:20:054
-10,360922	-2,983850	1,402194	2020-11-19T14:40:20:071
-10,358529	-3,211168	1,378266	2020-11-19T14:40:20:094
-11,026128	-3,682554	1,529014	2020-11-19T14:40:20:111
-11,408978	-3,826123	1,931008	2020-11-19T14:40:20:135
-11,270195	-3,890730	2,287539	2020-11-19T14:40:20:151
-10,889735	-3,969693	2,469393	2020-11-19T14:40:20:174
-10,392029	-3,826123	2,505285	2020-11-19T14:40:20:192
-9,927821	-3,507878	2,232504	2020-11-19T14:40:20:215
-9,765109	-3,074777	1,849652	2020-11-19T14:40:20:231
-9,915856	-2,849852	1,674976	2020-11-19T14:40:20:254
-9,884750	-2,811567	1,524228	2020-11-19T14:40:20:273
-9,573684	-1,830509	1,117448	2020-11-19T14:40:20:294
-9,784252	-3,393023	2,770889	2020-11-19T14:40:20:311
-8,982656	-3,929015	1,753939	2020-11-19T14:40:20:334
-8,207381	-4,175476	0,746561	2020-11-19T14:40:20:351
-8,276773	-3,507878	0,648455	2020-11-19T14:40:20:374
-8,726624	-3,203990	0,270389	2020-11-19T14:40:20:393
-8,705089	-3,414558	0,210568	2020-11-19T14:40:20:414
-8,525627	-3,531806	0,478565	2020-11-19T14:40:20:432
-8,647661	-3,579663	0,744168	2020-11-19T14:40:20:454
-9,207582	-3,596412	0,768096	2020-11-19T14:40:20:471
-9,489935	-3,354738	0,784846	2020-11-19T14:40:20:494
-9,442079	-3,314059	0,947558	2020-11-19T14:40:20:512
-9,293723	-3,316452	1,323231	2020-11-19T14:40:20:534
-9,236296	-3,199204	1,887937	2020-11-19T14:40:20:551
-9,200402	-3,206382	1,974079	2020-11-19T14:40:20:574
-9,200402	-3,275774	1,842474	2020-11-19T14:40:20:592
-9,255438	-3,357130	1,490728	2020-11-19T14:40:20:614
-9,265009	-3,297310	1,579263	2020-11-19T14:40:20:631
-9,293723	-3,294917	1,737189	2020-11-19T14:40:20:654
-9,241080	-3,153740	1,859223	2020-11-19T14:40:20:672
-9,229117	-2,742175	2,017149	2020-11-19T14:40:20:695
-9,140583	-2,644069	1,878366	2020-11-19T14:40:20:712
-9,300901	-2,419144	1,636691	2020-11-19T14:40:20:734
-9,812965	-2,313859	1,359123	2020-11-19T14:40:20:753
-10,392029	-2,376073	1,186840	2020-11-19T14:40:20:774
-11,303694	-2,914458	0,794417	2020-11-19T14:40:20:792
-12,799208	-3,615555	0,457029	2020-11-19T14:40:20:814
-13,744373	-4,244867	0,138784	2020-11-19T14:40:20:832
-11,026128	-4,022335	-0,090927	2020-11-19T14:40:20:854
-9,501899	-3,799802	-0,160319	2020-11-19T14:40:20:872
-9,408579	-3,905087	-0,311067	2020-11-19T14:40:20:895
-10,286745	-3,857230	-0,473779	2020-11-19T14:40:20:912
-11,200804	-3,747160	-0,693919	2020-11-19T14:40:20:936
-11,100305	-3,936193	-0,782453	2020-11-19T14:40:20:952
-10,418350	-3,878766	-0,947558	2020-11-19T14:40:20:974
-9,769895	-3,579663	-1,201197	2020-11-19T14:40:20:993
-10,033106	-3,041277	-1,684547	2020-11-19T14:40:21:014
-9,853643	-2,593820	-1,689333	2020-11-19T14:40:21:032
-9,253045	-2,400001	-1,414158	2020-11-19T14:40:21:054
-9,456435	-2,510071	-1,174876	2020-11-19T14:40:21:072
-10,124033	-2,708675	-1,136591	2020-11-19T14:40:21:095
-10,463813	-2,581856	-1,184447	2020-11-19T14:40:21:113
-10,363315	-2,416751	-1,313660	2020-11-19T14:40:21:135
-10,344172	-2,270789	-1,363909	2020-11-19T14:40:21:152
-10,437491	-2,002793	-1,411765	2020-11-19T14:40:21:175
-10,085747	-1,734797	-1,426122	2020-11-19T14:40:21:192
-9,544970	-1,768296	-1,256232	2020-11-19T14:40:21:216
-9,202796	-1,854438	-1,045663	2020-11-19T14:40:21:233
-8,891729	-2,160719	-0,861416	2020-11-19T14:40:21:255
-8,714661	-2,431108	-0,531207	2020-11-19T14:40:21:272
-8,638089	-2,562713	-0,289532	2020-11-19T14:40:21:295
-8,530413	-2,622534	-0,246461	2020-11-19T14:40:21:312
-8,482556	-2,644069	-0,059821	2020-11-19T14:40:21:335
-8,358130	-2,610569	-0,045464	2020-11-19T14:40:21:352
-8,288737	-2,352145	0,191426	2020-11-19T14:40:21:375
-8,288737	-2,409572	0,308674	2020-11-19T14:40:21:393
-8,511270	-2,246860	0,507278	2020-11-19T14:40:21:415
-9,291330	-2,270789	0,732204	2020-11-19T14:40:21:432
-10,281959	-2,342573	1,016950	2020-11-19T14:40:21:455
-11,162518	-2,400001	0,947558	2020-11-19T14:40:21:474
-11,454442	-2,488536	1,007378	2020-11-19T14:40:21:496
-10,904092	-2,533999	1,184447	2020-11-19T14:40:21:514
-9,645468	-2,435893	1,239482	2020-11-19T14:40:21:535
-8,537591	-2,514857	1,225125	2020-11-19T14:40:21:552
-8,164310	-3,125026	1,227518	2020-11-19T14:40:21:577
-8,781659	-3,838088	1,619941	2020-11-19T14:40:21:593
-9,487542	-3,797409	2,129612	2020-11-19T14:40:21:615
-9,868000	-3,450450	2,136791	2020-11-19T14:40:21:633
-9,755538	-3,349952	2,163112	2020-11-19T14:40:21:656
-9,061620	-3,716053	1,744368	2020-11-19T14:40:21:672
-8,939585	-3,596412	2,426322	2020-11-19T14:40:21:696
-8,389235	-5,099105	1,914258	2020-11-19T14:40:21:714
-7,530212	-5,309673	1,055235	2020-11-19T14:40:21:735
-8,145168	-5,309673	1,868794	2020-11-19T14:40:21:753
-7,982457	-3,184847	0,093320	2020-11-19T14:40:21:775
-9,190832	-4,132405	0,346959	2020-11-19T14:40:21:793
-8,968300	-4,570292	0,241675	2020-11-19T14:40:21:816
-8,776874	-4,046263	-0,074178	2020-11-19T14:40:21:833
-9,276974	-3,378666	-0,050249	2020-11-19T14:40:21:856
-9,805787	-3,452843	-0,277567	2020-11-19T14:40:21:873
-10,289137	-3,507878	-0,380459	2020-11-19T14:40:21:896
-10,162319	-3,605984	-0,232104	2020-11-19T14:40:21:913
-9,786645	-3,617948	0,157926	2020-11-19T14:40:21:937
-9,793823	-3,656233	0,478565	2020-11-19T14:40:21:954
-9,848858	-3,639483	0,753739	2020-11-19T14:40:21:976
-9,812965	-3,634698	0,918844	2020-11-19T14:40:21:993
-9,789038	-3,507878	0,873380	2020-11-19T14:40:22:017
-9,741181	-3,467200	0,904487	2020-11-19T14:40:22:034
-9,949356	-3,371487	0,928415	2020-11-19T14:40:22:057
-10,559525	-3,237489	1,110270	2020-11-19T14:40:22:073
-10,865808	-3,172883	0,835095	2020-11-19T14:40:22:096
-11,203196	-1,289732	1,756332	2020-11-19T14:40:22:113
-10,758131	-2,443072	0,691526	2020-11-19T14:40:22:136
-10,863414	-2,610569	0,244068	2020-11-19T14:40:22:153
-10,260423	-3,125026	0,299103	2020-11-19T14:40:22:177
-9,801002	-3,622734	0,526421	2020-11-19T14:40:22:194
-9,528220	-3,503092	0,722632	2020-11-19T14:40:22:216
-9,293723	-3,134598	0,662812	2020-11-19T14:40:22:233
-9,013763	-2,548356	0,741775	2020-11-19T14:40:22:256
-8,539984	-2,196611	0,667598	2020-11-19T14:40:22:273
-8,169096	-1,907080	0,717847	2020-11-19T14:40:22:298
-8,044669	-2,105684	0,720240	2020-11-19T14:40:22:313
-8,240881	-2,476572	0,765703	2020-11-19T14:40:22:336
-8,334201	-2,713461	0,780060	2020-11-19T14:40:22:354
-8,209774	-3,055635	0,638884	2020-11-19T14:40:22:376
-7,987241	-3,608376	0,521635	2020-11-19T14:40:22:393
-7,927422	-3,907479	0,562313	2020-11-19T14:40:22:416
-8,149954	-4,429115	0,433101	2020-11-19T14:40:22:434
-8,707481	-4,656433	0,076570	2020-11-19T14:40:22:456
-9,729217	-5,046463	-0,409173	2020-11-19T14:40:22:474
-10,834702	-5,678168	-0,485743	2020-11-19T14:40:22:497
-11,454442	-6,264410	-0,516850	2020-11-19T14:40:22:513
-11,215159	-6,472585	-0,543171	2020-11-19T14:40:22:537
-10,499706	-6,271588	-0,772882	2020-11-19T14:40:22:553
-9,951750	-5,891129	-0,813560	2020-11-19T14:40:22:578
-9,544970	-5,391029	-0,705883	2020-11-19T14:40:22:594
-9,312866	-5,077570	-0,650848	2020-11-19T14:40:22:617
-9,131011	-5,108676	-0,830309	2020-11-19T14:40:22:633
-9,243474	-5,666204	-1,186840	2020-11-19T14:40:22:657
-9,401401	-5,761917	-1,354338	2020-11-19T14:40:22:675
-9,671788	-5,783452	-1,301696	2020-11-19T14:40:22:697
-9,588040	-5,690133	-1,069592	2020-11-19T14:40:22:714
-9,312866	-5,424529	-1,103091	2020-11-19T14:40:22:736
-9,037691	-5,245068	-1,167697	2020-11-19T14:40:22:754
-8,635696	-5,273781	-1,251446	2020-11-19T14:40:22:777
-8,128418	-5,302495	-1,112662	2020-11-19T14:40:22:794
-7,826923	-5,410172	-0,832702	2020-11-19T14:40:22:816
-7,501499	-5,424529	-0,598206	2020-11-19T14:40:22:834
-7,106683	-5,383851	-0,504886	2020-11-19T14:40:22:857
-6,900900	-5,280960	-0,401994	2020-11-19T14:40:22:874
-6,788438	-5,185246	-0,047856	2020-11-19T14:40:22:898
-6,781260	-5,079963	0,270389	2020-11-19T14:40:22:915
-7,087541	-4,912465	0,437887	2020-11-19T14:40:22:937
-7,197611	-4,905287	0,495314	2020-11-19T14:40:22:955
-7,496714	-4,809574	0,358923	2020-11-19T14:40:22:979
-7,714460	-4,639683	0,212961	2020-11-19T14:40:22:994
-8,226524	-4,639683	0,490529	2020-11-19T14:40:23:018
-8,650054	-4,618148	0,839881	2020-11-19T14:40:23:034
-9,056834	-4,546363	1,057628	2020-11-19T14:40:23:057
-10,248460	-4,409972	1,409373	2020-11-19T14:40:23:074
-11,605190	-4,613362	1,768296	2020-11-19T14:40:23:098
-11,667403	-4,443472	1,792224	2020-11-19T14:40:23:114
-10,009177	-4,108476	1,531406	2020-11-19T14:40:23:138
-8,803195	-3,830909	1,639083	2020-11-19T14:40:23:155
-8,927622	-3,747160	1,873580	2020-11-19T14:40:23:177
-10,308280	-4,194618	2,708675	2020-11-19T14:40:23:195
-11,397014	-4,462614	3,340380	2020-11-19T14:40:23:217
-11,255837	-4,208975	3,342773	2020-11-19T14:40:23:234
-10,777272	-3,809374	3,254239	2020-11-19T14:40:23:259
-10,164711	-3,440879	2,933600	2020-11-19T14:40:23:274
-9,329616	-2,780460	2,526821	2020-11-19T14:40:23:297
-8,750552	-2,610569	2,335395	2020-11-19T14:40:23:314
-8,446664	-2,904887	2,390430	2020-11-19T14:40:23:338
-8,204988	-3,065206	2,428715	2020-11-19T14:40:23:354
-8,032705	-3,081956	2,433501	2020-11-19T14:40:23:378
-8,039884	-3,022135	2,390430	2020-11-19T14:40:23:396
-7,913064	-2,797210	2,120041	2020-11-19T14:40:23:417
-7,843673	-2,608176	2,038685	2020-11-19T14:40:23:434
-8,035098	-2,514857	1,844866	2020-11-19T14:40:23:458
-8,279166	-2,476572	1,928615	2020-11-19T14:40:23:475
-8,238488	-2,840281	1,938186	2020-11-19T14:40:23:498
-7,980063	-3,218346	2,146362	2020-11-19T14:40:23:515
-7,235896	-3,562913	2,533999	2020-11-19T14:40:23:539
-6,936793	-4,445865	3,282953	2020-11-19T14:40:23:555
-6,946364	-3,641876	3,902694	2020-11-19T14:40:23:578
-7,379465	-2,912065	4,110869	2020-11-19T14:40:23:595
-8,056634	-3,471986	4,417150	2020-11-19T14:40:23:618
-8,422735	-4,862216	4,218546	2020-11-19T14:40:23:637
-8,640482	-5,374279	4,130012	2020-11-19T14:40:23:658
-8,611769	-5,958128	3,988836	2020-11-19T14:40:23:675
-8,547162	-5,955735	3,864408	2020-11-19T14:40:23:698
-8,202596	-5,673382	3,297310	2020-11-19T14:40:23:715
-8,803195	-5,273781	2,744568	2020-11-19T14:40:23:739
-10,497313	-5,213961	2,469393	2020-11-19T14:40:23:755
-12,468999	-5,261817	2,014757	2020-11-19T14:40:23:778
-14,289936	-5,374279	1,622334	2020-11-19T14:40:23:795
-14,280365	-5,271388	1,105484	2020-11-19T14:40:23:818
-12,052648	-4,704289	0,337388	2020-11-19T14:40:23:835
-9,891929	-4,201797	0,088534	2020-11-19T14:40:23:858
-8,492127	-3,670590	0,107677	2020-11-19T14:40:23:876
-8,039884	-3,098706	0,093320	2020-11-19T14:40:23:898
-8,635696	-2,586641	-0,136391	2020-11-19T14:40:23:915
-9,087940	-2,146362	-0,485743	2020-11-19T14:40:23:938
-8,898908	-1,820938	-1,012164	2020-11-19T14:40:23:955
-8,805587	-1,619941	-1,445265	2020-11-19T14:40:23:978
-9,193225	-1,852045	-1,840081	2020-11-19T14:40:23:995
-9,710074	-1,856830	-2,277967	2020-11-19T14:40:24:018
-9,992428	-1,890330	-2,450250	2020-11-19T14:40:24:035
-10,191031	-1,744368	-2,120041	2020-11-19T14:40:24:058
-10,040283	-0,971486	-2,045863	2020-11-19T14:40:24:075
-9,731609	-1,464408	-2,344966	2020-11-19T14:40:24:099
-9,456435	-2,577070	-2,266003	2020-11-19T14:40:24:118
-9,241080	-2,976671	-1,816152	2020-11-19T14:40:24:138
-9,293723	-2,696711	-1,198804	2020-11-19T14:40:24:155
-9,549755	-2,340181	-0,691526	2020-11-19T14:40:24:178
-9,925428	-2,067399	-0,124427	2020-11-19T14:40:24:195
-10,112068	-2,132005	0,150748	2020-11-19T14:40:24:218
-9,832108	-1,921437	0,011964	2020-11-19T14:40:24:235
-9,477970	-1,418944	0,016750	2020-11-19T14:40:24:258
-9,334401	-0,945165	0,131605	2020-11-19T14:40:24:275
-9,269794	-0,320638	0,370888	2020-11-19T14:40:24:299
-9,224331	0,334995	0,375673	2020-11-19T14:40:24:315
-9,032906	0,758525	0,342174	2020-11-19T14:40:24:338
-8,839087	0,708275	0,401994	2020-11-19T14:40:24:357
-8,738588	0,370888	0,471386	2020-11-19T14:40:24:378
-8,441878	0,232104	0,902094	2020-11-19T14:40:24:396
-9,047262	-0,189033	1,847259	2020-11-19T14:40:24:418
-10,466206	-0,887737	2,632105	2020-11-19T14:40:24:435
-10,750952	-0,385244	2,857030	2020-11-19T14:40:24:458
-9,635897	0,062213	2,658426	2020-11-19T14:40:24:476
-9,013763	-0,875773	3,426522	2020-11-19T14:40:24:499
-9,181261	-1,897508	3,778267	2020-11-19T14:40:24:515
-8,439486	-2,086541	3,780660	2020-11-19T14:40:24:539
-7,515855	-2,086541	3,818945	2020-11-19T14:40:24:555
-7,865208	-2,663212	4,474578	2020-11-19T14:40:24:579
-9,200402	-3,345166	4,510471	2020-11-19T14:40:24:597
-9,913465	-3,809374	3,962514	2020-11-19T14:40:24:618
-9,461221	-3,883551	3,570091	2020-11-19T14:40:24:636
-7,697710	-3,895515	3,211168	2020-11-19T14:40:24:659
-6,446264	-4,364508	3,644269	2020-11-19T14:40:24:676
-5,793024	-5,343173	4,388437	2020-11-19T14:40:24:699
-5,608776	-5,761917	4,338188	2020-11-19T14:40:24:716
-5,632704	-6,324231	4,285545	2020-11-19T14:40:24:738
-5,886343	-7,092326	4,132405	2020-11-19T14:40:24:756
-6,204589	-7,290931	3,263810	2020-11-19T14:40:24:779
-6,790830	-7,369894	2,794817	2020-11-19T14:40:24:796
-7,097112	-7,058826	2,916851	2020-11-19T14:40:24:819
-6,695118	-6,156733	2,533999	2020-11-19T14:40:24:837
-6,991827	-5,479564	0,949951	2020-11-19T14:40:24:859
-6,975078	-5,271388	0,291924	2020-11-19T14:40:24:876
-7,056434	-5,144568	0,722632	2020-11-19T14:40:24:899
-7,965706	-4,709075	1,392623	2020-11-19T14:40:24:916
-8,812766	-3,799802	1,055235	2020-11-19T14:40:24:939
-9,537791	-3,261417	0,571885	2020-11-19T14:40:24:956
-10,241282	-3,369094	0,882952	2020-11-19T14:40:24:979
-11,777473	-3,342773	0,385244	2020-11-19T14:40:24:996
-13,213166	-2,904887	-1,105484	2020-11-19T14:40:25:020
-14,309079	-2,507678	-2,132005	2020-11-19T14:40:25:036
-12,868600	-2,179861	-2,512464	2020-11-19T14:40:25:059
-10,080962	-2,069792	-2,541178	2020-11-19T14:40:25:077
-8,405986	-3,333202	-2,864209	2020-11-19T14:40:25:099
-8,197811	-4,386044	-2,557927	2020-11-19T14:40:25:116
-8,030313	-4,299902	-1,866402	2020-11-19T14:40:25:139
-7,494320	-4,785645	-0,909273	2020-11-19T14:40:25:157
-6,915257	-5,493921	-0,550349	2020-11-19T14:40:25:179
-7,104291	-6,424729	-0,672383	2020-11-19T14:40:25:196
-7,929814	-7,367501	-0,466600	2020-11-19T14:40:25:219
-8,264810	-7,499106	-0,191426	2020-11-19T14:40:25:236
-7,692925	-7,685746	-0,177069	2020-11-19T14:40:25:259
-6,709475	-8,133204	-0,282353	2020-11-19T14:40:25:276
-6,577869	-8,932407	-0,198604	2020-11-19T14:40:25:300
-7,451250	-11,054840	0,330210	2020-11-19T14:40:25:318
-8,216952	-12,021541	0,985843	2020-11-19T14:40:25:339
-7,276574	-11,480762	1,048056	2020-11-19T14:40:25:357
-6,427122	-10,884951	0,569492	2020-11-19T14:40:25:379
-6,982256	-10,521241	-0,375673	2020-11-19T14:40:25:397
-7,503892	-9,655040	-1,136591	2020-11-19T14:40:25:419
-6,723832	-8,482556	-1,191626	2020-11-19T14:40:25:436
-6,010770	-7,987241	-0,526421	2020-11-19T14:40:25:459
-5,594419	-7,774280	0,098106	2020-11-19T14:40:25:477
-4,685147	-7,475177	0,495314	2020-11-19T14:40:25:501
-4,283153	-7,590034	1,361516	2020-11-19T14:40:25:516
-5,185246	-7,795816	2,457429	2020-11-19T14:40:25:539
-5,572884	-7,757531	2,388037	2020-11-19T14:40:25:559
-5,046463	-7,200003	1,660619	2020-11-19T14:40:25:579
-3,684947	-7,984849	2,053042	2020-11-19T14:40:25:597
-3,165704	-9,678967	3,608376	2020-11-19T14:40:25:619
-3,282953	-11,207980	3,964907	2020-11-19T14:40:25:636
-3,409772	-11,839686	3,455236	2020-11-19T14:40:25:660
-2,799603	-12,552748	2,584249	2020-11-19T14:40:25:677
-3,361916	-12,354142	2,187040	2020-11-19T14:40:25:700
-4,256832	-10,939985	2,096112	2020-11-19T14:40:25:717
-4,151547	-9,336794	2,304288	2020-11-19T14:40:25:740
-3,433701	-8,559127	1,801795	2020-11-19T14:40:25:757
-2,773281	-9,011370	0,538385	2020-11-19T14:40:25:780
-2,924029	-9,600004	-0,873380	2020-11-19T14:40:25:798
-2,988636	-10,703095	-1,471586	2020-11-19T14:40:25:819
-3,005385	-10,356135	-0,961915	2020-11-19T14:40:25:837
-3,613162	-8,934800	1,079163	2020-11-19T14:40:25:860
-4,773681	-8,420342	3,668197	2020-11-19T14:40:25:877
-4,658825	-8,269595	3,586841	2020-11-19T14:40:25:900
-3,665804	-8,049455	3,390630	2020-11-19T14:40:25:917
-2,708675	-9,822537	3,653840	2020-11-19T14:40:25:940
-2,029114	-9,485149	4,039084	2020-11-19T14:40:25:957
-2,139183	-8,207381	3,603590	2020-11-19T14:40:25:980
-1,978864	-8,800802	3,337988	2020-11-19T14:40:25:997
-1,797010	-10,080962	2,584249	2020-11-19T14:40:26:020
-1,591227	-8,690732	1,189233	2020-11-19T14:40:26:039
-1,414158	-8,772088	1,119841	2020-11-19T14:40:26:060
-1,459622	-10,415956	2,517249	2020-11-19T14:40:26:077
-1,950150	-9,958927	3,302095	2020-11-19T14:40:26:100
-2,232504	-9,449257	3,687340	2020-11-19T14:40:26:117
-2,304288	-9,334401	3,510271	2020-11-19T14:40:26:140
-1,983650	-8,824730	3,572484	2020-11-19T14:40:26:157
-1,332802	-8,293523	3,988836	2020-11-19T14:40:26:180
-0,476172	-9,317651	4,797609	2020-11-19T14:40:26:198
-0,897308	-8,709875	3,917051	2020-11-19T14:40:26:221
-1,847259	-8,863015	3,761517	2020-11-19T14:40:26:237
-2,648855	-8,585447	3,917051	2020-11-19T14:40:26:260
-2,553142	-8,389235	4,869394	2020-11-19T14:40:26:278
-2,478964	-8,939585	5,563312	2020-11-19T14:40:26:300
-2,572284	-9,090333	5,402994	2020-11-19T14:40:26:317
-2,163112	-8,982656	4,840680	2020-11-19T14:40:26:340
-1,517050	-8,827123	4,374080	2020-11-19T14:40:26:357
-0,966700	-8,819944	4,177868	2020-11-19T14:40:26:380
-0,705883	-8,463413	4,019942	2020-11-19T14:40:26:398
-0,727418	-8,319844	4,134798	2020-11-19T14:40:26:420
-0,703490	-8,472985	4,122833	2020-11-19T14:40:26:438
-1,028914	-8,578269	4,218546	2020-11-19T14:40:26:461
-0,885344	-8,944371	4,433900	2020-11-19T14:40:26:478
-0,583849	-8,843873	4,931608	2020-11-19T14:40:26:501
-0,363709	-7,965706	4,931608	2020-11-19T14:40:26:518
-0,978664	-6,721439	4,783253	2020-11-19T14:40:26:540
-1,119841	-7,039684	4,919643	2020-11-19T14:40:26:558
-1,244268	-7,429714	5,508278	2020-11-19T14:40:26:581
-1,282553	-8,020741	5,986843	2020-11-19T14:40:26:598
-1,332802	-8,551948	6,534799	2020-11-19T14:40:26:620
-1,296910	-8,508877	6,632904	2020-11-19T14:40:26:639
-1,371087	-7,635497	6,410372	2020-11-19T14:40:26:660
-1,282553	-7,252645	6,501299	2020-11-19T14:40:26:678
-1,201197	-7,075576	6,728617	2020-11-19T14:40:26:701
-1,028914	-7,087541	7,063612	2020-11-19T14:40:26:718
-0,801596	-7,508677	7,183254	2020-11-19T14:40:26:741
-0,672383	-7,530212	7,221539	2020-11-19T14:40:26:760
-0,947558	-6,577869	6,687939	2020-11-19T14:40:26:782
-1,036092	-5,886343	6,293124	2020-11-19T14:40:26:798
-0,772882	-5,644669	6,479764	2020-11-19T14:40:26:821
-0,401994	-6,506085	6,778866	2020-11-19T14:40:26:838
-0,433101	-6,943972	7,085148	2020-11-19T14:40:26:861
-0,296710	-7,307681	6,865008	2020-11-19T14:40:26:878
-0,282353	-6,472585	6,362515	2020-11-19T14:40:26:901
-0,272782	-5,441278	6,163911	2020-11-19T14:40:26:918
-0,330210	-5,771489	6,386444	2020-11-19T14:40:26:941
-0,602991	-6,915257	5,469993	2020-11-19T14:40:26:958
-1,148555	-8,645268	4,204189	2020-11-19T14:40:26:981
-0,768096	-8,882158	3,684947	2020-11-19T14:40:26:999
0,248854	-9,506684	4,342973	2020-11-19T14:40:27:022
-0,449851	-9,525827	5,168497	2020-11-19T14:40:27:038
-1,277767	-8,126025	5,173282	2020-11-19T14:40:27:061
-1,933401	-7,149754	5,280960	2020-11-19T14:40:27:083
-2,196611	-8,283953	5,479564	2020-11-19T14:40:27:101
-2,727818	-8,171489	5,053641	2020-11-19T14:40:27:119
-2,502892	-7,972885	5,010571	2020-11-19T14:40:27:141
-2,301895	-8,080563	5,206782	2020-11-19T14:40:27:158
-2,378466	-8,506484	5,804988	2020-11-19T14:40:27:181
-3,046063	-8,635696	5,919843	2020-11-19T14:40:27:199
-3,716053	-7,405786	5,319244	2020-11-19T14:40:27:221
-3,873980	-7,233503	4,658825	2020-11-19T14:40:27:239
-3,208775	-7,030113	4,235296	2020-11-19T14:40:27:261
-2,792424	-7,243074	3,756732	2020-11-19T14:40:27:278
-3,203990	-8,303094	2,469393	2020-11-19T14:40:27:302
-3,866802	-7,594819	1,720440	2020-11-19T14:40:27:318
-4,278367	-7,137790	1,485943	2020-11-19T14:40:27:341
-4,869394	-6,857830	1,299303	2020-11-19T14:40:27:358
-5,587241	-6,111269	0,390030	2020-11-19T14:40:27:381
-6,352944	-6,929615	0,550349	2020-11-19T14:40:27:399
-8,094919	-8,386844	1,445265	2020-11-19T14:40:27:421
-10,420743	-9,805787	3,464807	2020-11-19T14:40:27:438
-13,076776	-8,042276	4,421937	2020-11-19T14:40:27:462
-15,098711	-5,924629	4,840680	2020-11-19T14:40:27:480
-15,393027	-6,166305	4,527221	2020-11-19T14:40:27:501
-14,189439	-7,056434	3,541377	2020-11-19T14:40:27:519
-14,687144	-5,391029	3,074777	2020-11-19T14:40:27:541
-14,105689	-4,773681	3,426522	2020-11-19T14:40:27:559
-12,930815	-6,262017	4,929214	2020-11-19T14:40:27:582
-10,911271	-5,644669	5,173282	2020-11-19T14:40:27:601
-10,564312	-4,553542	3,680161	2020-11-19T14:40:27:622
-10,827522	-4,252046	2,909672	2020-11-19T14:40:27:639
-10,588240	-3,613162	2,904887	2020-11-19T14:40:27:662
-10,327423	-3,416951	3,299703	2020-11-19T14:40:27:679
-10,107283	-4,682754	3,488736	2020-11-19T14:40:27:702
-9,370294	-5,271388	3,560520	2020-11-19T14:40:27:720
-8,743374	-3,326023	4,039084	2020-11-19T14:40:27:742
-8,760124	-1,452443	3,333202	2020-11-19T14:40:27:759
-8,286345	-1,328017	2,816352	2020-11-19T14:40:27:781
-7,884350	-1,708475	2,660819	2020-11-19T14:40:27:799
-7,735995	-1,239482	2,849852	2020-11-19T14:40:27:822
-7,764710	-0,701097	3,086741	2020-11-19T14:40:27:839
-7,922636	-0,744168	2,971886	2020-11-19T14:40:27:862
-7,896315	-0,227318	2,945565	2020-11-19T14:40:27:879
-7,872386	-0,131605	2,792424	2020-11-19T14:40:27:903
-7,824530	-0,313460	2,667997	2020-11-19T14:40:27:919
-7,791030	-0,612563	2,194218	2020-11-19T14:40:27:942
-7,826923	-0,914058	2,330609	2020-11-19T14:40:27:960
-7,599605	-1,521835	2,634498	2020-11-19T14:40:27:982
-7,554141	-2,029114	2,806781	2020-11-19T14:40:28:000
-7,621140	-2,560320	2,720639	2020-11-19T14:40:28:022
-8,035098	-3,029313	2,411965	2020-11-19T14:40:28:039
-8,635696	-2,967100	1,971686	2020-11-19T14:40:28:062
-9,516255	-2,811567	1,452443	2020-11-19T14:40:28:079
-10,212566	-2,785245	1,081556	2020-11-19T14:40:28:102
-10,377672	-2,938386	0,729811	2020-11-19T14:40:28:119
-10,035499	-3,189633	0,602991	2020-11-19T14:40:28:143
-9,521042	-3,495914	0,701097	2020-11-19T14:40:28:159
-8,941978	-3,541377	0,973879	2020-11-19T14:40:28:182
-8,094919	-3,582055	1,462015	2020-11-19T14:40:28:201
-8,372486	-3,605984	1,643869	2020-11-19T14:40:28:222
-9,231510	-2,292324	1,210768	2020-11-19T14:40:28:239
-8,030313	-0,504886	0,064606	2020-11-19T14:40:28:262
-6,345766	-0,784846	0,373280	2020-11-19T14:40:28:279
-6,216553	-1,194018	1,768296	2020-11-19T14:40:28:303
-6,879365	-0,141177	2,299503	2020-11-19T14:40:28:319
-6,812366	1,304088	1,880759	2020-11-19T14:40:28:342
-7,066005	0,696311	1,490728	2020-11-19T14:40:28:360
-8,671589	-0,435494	2,112862	2020-11-19T14:40:28:383
-9,071191	0,203390	2,242075	2020-11-19T14:40:28:400
-8,714661	0,521635	2,038685	2020-11-19T14:40:28:422
-8,695518	-0,086142	2,210968	2020-11-19T14:40:28:440
-8,762517	-0,543171	2,744568	2020-11-19T14:40:28:462
-8,925228	-0,928415	3,019742	2020-11-19T14:40:28:480
-8,975478	-1,330409	2,696711	2020-11-19T14:40:28:503
-9,492328	0,074178	3,172883	2020-11-19T14:40:28:520
-9,568897	-0,928415	3,242275	2020-11-19T14:40:28:543
-9,348758	-2,316252	2,933600	2020-11-19T14:40:28:560
-9,159724	-2,443072	2,725425	2020-11-19T14:40:28:583
-9,121440	-2,031506	2,445465	2020-11-19T14:40:28:600
-8,791230	-1,301696	2,316252	2020-11-19T14:40:28:623
-8,303094	-1,143769	2,646462	2020-11-19T14:40:28:640
-7,719246	-1,792224	3,067599	2020-11-19T14:40:28:663
-7,384251	-2,065006	3,136991	2020-11-19T14:40:28:681
-7,530212	-2,447858	3,433701	2020-11-19T14:40:28:703
-7,798209	-2,813959	3,706482	2020-11-19T14:40:28:720
-8,458629	-3,328416	3,979264	2020-11-19T14:40:28:743
-9,872787	-3,598805	4,534399	2020-11-19T14:40:28:760
-11,540584	-4,113262	4,981857	2020-11-19T14:40:28:783
-12,526425	-4,398008	4,979464	2020-11-19T14:40:28:800
-12,906885	-4,582255	5,142176	2020-11-19T14:40:28:823
-12,497713	-4,589434	5,247460	2020-11-19T14:40:28:840
-11,629118	-4,051049	4,840680	2020-11-19T14:40:28:863
-10,908878	-2,957529	3,902694	2020-11-19T14:40:28:880
-10,808380	-2,055435	2,854637	2020-11-19T14:40:28:903
-10,975878	-1,418944	2,012364	2020-11-19T14:40:28:921
-10,774881	-1,653440	1,117448	2020-11-19T14:40:28:943
-10,683953	-1,471586	0,959522	2020-11-19T14:40:28:960
-10,054641	-1,931008	1,091127	2020-11-19T14:40:28:982
-9,533006	-1,828116	1,698904	2020-11-19T14:40:29:000
-9,602397	-1,859223	2,196611	2020-11-19T14:40:29:023
-10,329816	-3,010171	2,289931	2020-11-19T14:40:29:040
-11,353944	-4,424329	2,268396	2020-11-19T14:40:29:064
-11,274981	-4,876573	2,325824	2020-11-19T14:40:29:082
-10,805987	-5,283352	1,679761	2020-11-19T14:40:29:104
-11,028521	-6,020342	1,055235	2020-11-19T14:40:29:120
-11,191232	-5,989235	0,342174	2020-11-19T14:40:29:143
-10,942378	-5,194818	-0,198604	2020-11-19T14:40:29:162
-11,035697	-4,357330	-0,368495	2020-11-19T14:40:29:183
-11,131411	-3,711268	-0,648455	2020-11-19T14:40:29:202
-10,738988	-3,333202	-1,016950	2020-11-19T14:40:29:223
-9,798609	-3,156133	-1,514657	2020-11-19T14:40:29:240
-9,095119	-3,026921	-1,562513	2020-11-19T14:40:29:263
-8,793623	-3,232704	-1,299303	2020-11-19T14:40:29:281
-8,520842	-3,768696	-0,885344	2020-11-19T14:40:29:304
-8,281559	-4,115655	-0,624527	2020-11-19T14:40:29:320
-8,547162	-4,235296	-0,528814	2020-11-19T14:40:29:344
-8,568698	-4,180261	-0,512064	2020-11-19T14:40:29:360
-8,118847	-4,118048	-0,380459	2020-11-19T14:40:29:383
-7,783852	-3,952943	-0,361316	2020-11-19T14:40:29:402
-7,539784	-3,546163	-0,461815	2020-11-19T14:40:29:423
-7,465607	-3,306881	-0,449851	2020-11-19T14:40:29:441
-7,573284	-3,058028	-0,210568	2020-11-19T14:40:29:463
-7,872386	-2,971886	0,141177	2020-11-19T14:40:29:481
-8,453842	-2,959922	0,650848	2020-11-19T14:40:29:504
-8,932407	-3,014957	1,323231	2020-11-19T14:40:29:520
-9,298509	-2,938386	1,854438	2020-11-19T14:40:29:543
-9,812965	-2,931208	2,079363	2020-11-19T14:40:29:560
-10,944772	-2,665605	2,136791	2020-11-19T14:40:29:584
-11,978470	-2,471786	2,416751	2020-11-19T14:40:29:602
-12,057433	-1,864009	2,952743	2020-11-19T14:40:29:624
-11,399406	-1,222732	2,840281	2020-11-19T14:40:29:642
-10,884951	-0,447458	2,804388	2020-11-19T14:40:29:663
-10,686346	0,035892	2,854637	2020-11-19T14:40:29:680
-10,413565	0,354138	2,976671	2020-11-19T14:40:29:703
-9,501899	0,961915	2,964707	2020-11-19T14:40:29:720
-8,511270	1,196411	2,715853	2020-11-19T14:40:29:744
-7,647461	0,990629	2,746960	2020-11-19T14:40:29:762
-7,200003	-0,014357	3,213561	2020-11-19T14:40:29:784
-7,688138	-1,261017	3,610770	2020-11-19T14:40:29:802
-8,539984	-1,895115	3,766303	2020-11-19T14:40:29:824
-8,939585	-1,962115	3,326023	2020-11-19T14:40:29:842
-9,071191	-2,165504	3,005385	2020-11-19T14:40:29:864
-9,789038	-1,718047	3,641876	2020-11-19T14:40:29:883
-10,049855	-1,734797	2,409572	2020-11-19T14:40:29:904
-10,877771	-2,718246	3,661019	2020-11-19T14:40:29:922
-10,616954	-3,450450	2,768496	2020-11-19T14:40:29:944
-9,841680	-2,670390	2,373680	2020-11-19T14:40:29:962
-9,317651	-2,304288	2,076970	2020-11-19T14:40:29:984
-8,932407	-2,572284	2,074577	2020-11-19T14:40:30:002
-8,760124	-2,701497	2,191825	2020-11-19T14:40:30:024
-8,717053	-2,742175	2,218147	2020-11-19T14:40:30:042
-8,824730	-2,708675	2,201397	2020-11-19T14:40:30:064
-8,951550	-2,699104	2,122434	2020-11-19T14:40:30:081
-8,992228	-2,687140	2,088934	2020-11-19T14:40:30:104
-9,044869	-2,591427	2,141576	2020-11-19T14:40:30:122
-8,810372	-2,325824	2,129612	2020-11-19T14:40:30:144
-8,508877	-2,201397	2,323431	2020-11-19T14:40:30:161
-8,334201	-2,273181	2,364109	2020-11-19T14:40:30:185
-8,068598	-2,342573	2,304288	2020-11-19T14:40:30:201
-8,106883	-2,529213	2,304288	2020-11-19T14:40:30:224
-8,288737	-2,612962	2,258825	2020-11-19T14:40:30:241
-8,496914	-2,447858	2,443072	2020-11-19T14:40:30:264
-8,951550	-2,462214	2,481357	2020-11-19T14:40:30:281
-9,363115	-2,720639	2,447858	2020-11-19T14:40:30:306
-9,379865	-2,742175	2,270789	2020-11-19T14:40:30:321
-9,817751	-2,971886	2,062613	2020-11-19T14:40:30:344
-11,332408	-3,103491	2,074577	2020-11-19T14:40:30:362
-12,988241	-2,902494	1,749153	2020-11-19T14:40:30:384
-13,129417	-2,746960	1,674976	2020-11-19T14:40:30:403
-12,203396	-3,177669	1,552942	2020-11-19T14:40:30:424
-11,854043	-3,498307	1,607977	2020-11-19T14:40:30:441
-11,385050	-4,022335	1,883151	2020-11-19T14:40:30:465
-10,083356	-4,280759	1,830509	2020-11-19T14:40:30:482
-9,099905	-4,560720	1,536192	2020-11-19T14:40:30:505
-9,889536	-4,689932	1,306481	2020-11-19T14:40:30:522
-11,502297	-4,476971	1,277767	2020-11-19T14:40:30:545
-12,681960	-4,005585	0,799203	2020-11-19T14:40:30:561
-12,545568	-3,311667	0,323031	2020-11-19T14:40:30:585
-11,507084	-2,629712	-0,167498	2020-11-19T14:40:30:603
-10,686346	-2,845066	-0,198604	2020-11-19T14:40:30:625
-10,487741	-2,627320	0,031107	2020-11-19T14:40:30:642
-10,071390	-2,215754	0,198604	2020-11-19T14:40:30:665
-9,434900	-2,179861	0,124427	2020-11-19T14:40:30:681
-9,209974	-2,428715	0,083749	2020-11-19T14:40:30:705
-9,162118	-2,864209	0,064606	2020-11-19T14:40:30:721
-9,109475	-2,818745	0,069392	2020-11-19T14:40:30:744
-9,195618	-2,739782	0,220140	2020-11-19T14:40:30:762
-9,226725	-2,557927	0,210568	2020-11-19T14:40:30:785
-9,102298	-2,431108	-0,098106	2020-11-19T14:40:30:802
-8,961121	-2,230111	-0,074178	2020-11-19T14:40:30:825
-8,561519	-2,012364	0,210568	2020-11-19T14:40:30:842
-8,063812	-1,995614	0,681954	2020-11-19T14:40:30:865
-7,688138	-2,017149	0,725025	2020-11-19T14:40:30:882
-7,520642	-2,031506	0,892523	2020-11-19T14:40:30:905
-7,369894	-2,024328	0,880559	2020-11-19T14:40:30:922
-7,508677	-2,122434	0,870987	2020-11-19T14:40:30:945
-8,008778	-2,115255	1,038485	2020-11-19T14:40:30:962
-8,599805	-2,170290	1,043271	2020-11-19T14:40:30:985
-8,781659	-2,038685	1,131805	2020-11-19T14:40:31:003
-8,973085	-1,942972	1,328017	2020-11-19T14:40:31:025
-8,891729	-1,976472	1,440479	2020-11-19T14:40:31:042
-9,107083	-2,146362	1,478764	2020-11-19T14:40:31:065
-9,607183	-2,158326	1,387837	2020-11-19T14:40:31:084
-10,372886	-2,407180	1,356731	2020-11-19T14:40:31:105
-11,339586	-2,617748	1,600798	2020-11-19T14:40:31:122
-11,765509	-2,895315	1,945365	2020-11-19T14:40:31:146
-11,255837	-3,148954	2,476572	2020-11-19T14:40:31:163
-10,061819	-3,369094	2,861816	2020-11-19T14:40:31:185
-8,877372	-3,582055	3,072384	2020-11-19T14:40:31:203
-8,267202	-3,572484	3,177669	2020-11-19T14:40:31:227
-8,348558	-3,146562	3,014957	2020-11-19T14:40:31:243
-9,169296	-2,641676	2,474179	2020-11-19T14:40:31:266
-10,432706	-2,299503	1,892723	2020-11-19T14:40:31:282
-11,382657	-2,132005	1,617548	2020-11-19T14:40:31:307
-11,330014	-1,959722	1,519442	2020-11-19T14:40:31:325
-10,693524	-1,694118	1,586441	2020-11-19T14:40:31:347
-10,033106	-1,627119	1,529014	2020-11-19T14:40:31:363
-9,712467	-2,088934	1,617548	2020-11-19T14:40:31:386
-9,686146	-2,522035	1,744368	2020-11-19T14:40:31:403
-9,470792	-2,933600	1,777867	2020-11-19T14:40:31:426
-9,188439	-3,383451	2,079363	2020-11-19T14:40:31:443
-9,001799	-3,579663	2,416751	2020-11-19T14:40:31:466
-8,657232	-3,407379	2,378466	2020-11-19T14:40:31:483
-8,348558	-2,983850	2,021935	2020-11-19T14:40:31:506
-8,547162	-2,909672	2,122434	2020-11-19T14:40:31:523
-8,953942	-2,933600	2,696711	2020-11-19T14:40:31:547
-9,360723	-2,888137	3,024528	2020-11-19T14:40:31:564
-9,554541	-2,799603	3,285345	2020-11-19T14:40:31:586
-9,777073	-3,005385	3,412165	2020-11-19T14:40:31:603
-9,930215	-3,024528	3,550949	2020-11-19T14:40:31:626
-10,236496	-2,926422	3,840480	2020-11-19T14:40:31:643
-10,047462	-2,684747	4,060620	2020-11-19T14:40:31:666
-9,870394	-2,182254	4,079762	2020-11-19T14:40:31:683
-9,554541	-1,942972	3,749553	2020-11-19T14:40:31:707
-9,432507	-1,689333	3,419343	2020-11-19T14:40:31:723
-9,518648	-1,567299	3,194418	2020-11-19T14:40:31:746
-9,734003	-1,469193	3,084348	2020-11-19T14:40:31:763
-9,662218	-1,452443	3,110669	2020-11-19T14:40:31:787
-9,683753	-1,119841	3,500700	2020-11-19T14:40:31:804
-9,762716	-1,143769	3,232704	2020-11-19T14:40:31:826
-9,351151	-1,354338	2,555535	2020-11-19T14:40:31:843
-8,815158	-1,284946	1,775474	2020-11-19T14:40:31:867
-8,908479	-1,605584	1,631905	2020-11-19T14:40:31:883
-8,932407	-2,785245	2,172683	2020-11-19T14:40:31:907
-9,162118	-3,524628	2,612962	2020-11-19T14:40:31:923
-9,485149	-3,397808	2,433501	2020-11-19T14:40:31:947
-9,896714	-3,199204	2,033899	2020-11-19T14:40:31:963
-10,135997	-3,237489	1,780260	2020-11-19T14:40:31:986
-10,315458	-3,120241	1,555335	2020-11-19T14:40:32:004
-10,322637	-2,696711	1,406980	2020-11-19T14:40:32:027
-10,313066	-2,273181	1,665405	2020-11-19T14:40:32:045
-10,222138	-2,280360	1,586441	2020-11-19T14:40:32:066
-9,968499	-2,356930	1,495514	2020-11-19T14:40:32:083
-9,894321	-2,359323	1,395016	2020-11-19T14:40:32:107
-10,114462	-2,536392	1,722832	2020-11-19T14:40:32:123
-10,255639	-3,026921	1,911865	2020-11-19T14:40:32:146
-10,332209	-3,608376	1,842474	2020-11-19T14:40:32:163
-10,535598	-4,055835	1,866402	2020-11-19T14:40:32:187
-10,636096	-4,508078	2,036292	2020-11-19T14:40:32:204
-10,325029	-4,589434	2,222932	2020-11-19T14:40:32:227
-10,023535	-4,543970	2,366502	2020-11-19T14:40:32:243
-9,693325	-4,151547	2,730211	2020-11-19T14:40:32:267
-9,305687	-3,378666	2,634498	2020-11-19T14:40:32:285
-8,879765	-2,517249	2,033899	2020-11-19T14:40:32:307
-8,181061	-1,481157	1,847259	2020-11-19T14:40:32:324
-7,034898	-0,897308	1,895115	2020-11-19T14:40:32:347
-6,376873	-0,868595	2,100898	2020-11-19T14:40:32:364
-6,367301	-1,907080	2,263610	2020-11-19T14:40:32:389
-6,872187	-3,141776	2,277967	2020-11-19T14:40:32:404
-7,360322	-3,986443	2,067399	2020-11-19T14:40:32:427
-8,161918	-4,663611	1,875973	2020-11-19T14:40:32:444
-9,075976	-5,139783	1,947758	2020-11-19T14:40:32:467
-9,918249	-5,412565	2,244468	2020-11-19T14:40:32:484
-10,124033	-5,697310	2,591427	2020-11-19T14:40:32:508
-9,789038	-5,635098	2,254039	2020-11-19T14:40:32:525
-9,509077	-5,943772	1,816152	2020-11-19T14:40:32:546
-9,568897	-6,338587	1,337588	2020-11-19T14:40:32:564
-9,353544	-6,561120	0,576670	2020-11-19T14:40:32:588
-9,224331	-7,066005	-0,126820	2020-11-19T14:40:32:604
-9,097511	-7,855636	-0,746561	2020-11-19T14:40:32:627
-8,989835	-8,580662	-1,162912	2020-11-19T14:40:32:644
-8,714661	-8,683553	-2,277967	2020-11-19T14:40:32:667
-8,338986	-8,094919	-1,469193	2020-11-19T14:40:32:684
-7,793423	-8,707481	-0,222532	2020-11-19T14:40:32:707
-7,712067	-9,269794	-0,538385	2020-11-19T14:40:32:724
-7,628319	-8,501699	-1,071985	2020-11-19T14:40:32:748
-7,542177	-7,482357	-1,122234	2020-11-19T14:40:32:765
-7,365108	-6,924829	-1,134198	2020-11-19T14:40:32:786
-6,982256	-6,654440	-0,892523	2020-11-19T14:40:32:804
-6,482157	-6,180661	-0,399601	2020-11-19T14:40:32:827
-6,185446	-5,675776	0,057428	2020-11-19T14:40:32:844
-6,173482	-5,379066	0,267996	2020-11-19T14:40:32:867
-6,391229	-4,886144	0,531207	2020-11-19T14:40:32:884
-6,735795	-4,529613	0,945165	2020-11-19T14:40:32:909
-6,946364	-4,443472	1,325624	2020-11-19T14:40:32:924
-7,039684	-4,153940	1,579263	2020-11-19T14:40:32:947
-7,211967	-3,766303	1,459622	2020-11-19T14:40:32:965
-7,590034	-3,412165	1,076770	2020-11-19T14:40:32:987
-8,116454	-3,349952	0,736989	2020-11-19T14:40:33:006
-8,757731	-3,321238	0,409173	2020-11-19T14:40:33:026
-9,430114	-3,378666	0,256032	2020-11-19T14:40:33:045
-10,284351	-3,560520	-0,246461	2020-11-19T14:40:33:069
-12,059827	-3,845266	-0,667598	2020-11-19T14:40:33:084
-14,794822	-4,275974	-0,665205	2020-11-19T14:40:33:107
-16,366907	-4,962714	-0,198604	2020-11-19T14:40:33:126
-15,742380	-5,333601	0,531207	2020-11-19T14:40:33:147
-13,646267	-5,371887	1,392623	2020-11-19T14:40:33:164
-11,401800	-5,398208	2,218147	2020-11-19T14:40:33:187
-9,927821	-5,381458	2,533999	2020-11-19T14:40:33:204
-9,365508	-5,350351	2,581856	2020-11-19T14:40:33:228
-9,466006	-4,986642	2,431108	2020-11-19T14:40:33:245
-9,487542	-4,974678	2,086541	2020-11-19T14:40:33:267
-9,303294	-4,366901	1,399801	2020-11-19T14:40:33:284
-9,166903	-3,323631	0,765703	2020-11-19T14:40:33:308
-9,217153	-2,328217	0,344566	2020-11-19T14:40:33:324
-8,997013	-1,840081	0,299103	2020-11-19T14:40:33:347
-8,736196	-1,567299	0,634098	2020-11-19T14:40:33:364
-8,422735	-1,667797	0,909273	2020-11-19T14:40:33:387
-7,972885	-2,026721	1,071985	2020-11-19T14:40:33:404
-7,637890	-2,536392	1,165305	2020-11-19T14:40:33:427
-7,398607	-3,091527	1,227518	2020-11-19T14:40:33:444
-7,534998	-3,534199	1,572084	2020-11-19T14:40:33:468
-7,975278	-3,826123	1,694118	2020-11-19T14:40:33:485
-8,059027	-3,909872	1,806581	2020-11-19T14:40:33:507
-8,315059	-3,909872	2,215754	2020-11-19T14:40:33:524
-8,616554	-3,622734	2,964707	2020-11-19T14:40:33:548
-8,784052	-3,263810	3,120241	2020-11-19T14:40:33:564
-8,724231	-2,768496	2,835495	2020-11-19T14:40:33:587
-8,592626	-2,811567	3,046063	2020-11-19T14:40:33:604
-8,757731	-2,974278	3,754339	2020-11-19T14:40:33:628
-9,092726	-3,125026	4,603791	2020-11-19T14:40:33:655
-9,437292	-2,947958	4,977071	2020-11-19T14:40:33:667
-9,609575	-2,744568	4,565506	2020-11-19T14:40:33:684
-9,779467	-1,244268	4,254438	2020-11-19T14:40:33:709
-9,944571	-0,942772	4,156333	2020-11-19T14:40:33:725
-10,537991	-1,732404	4,043870	2020-11-19T14:40:33:747
-10,561919	-2,301895	3,682554	2020-11-19T14:40:33:765
-10,559525	-2,359323	3,259024	2020-11-19T14:40:33:788
-10,710274	-2,371287	3,093920	2020-11-19T14:40:33:805
-11,014162	-2,189433	3,036492	2020-11-19T14:40:33:827
-11,542977	-2,115255	2,988636	2020-11-19T14:40:33:844
-12,069397	-2,170290	2,849852	2020-11-19T14:40:33:868
-12,473784	-2,739782	2,912065	2020-11-19T14:40:33:884
-11,909079	-3,519842	3,247060	2020-11-19T14:40:33:908
-10,186246	-3,926622	2,897708	2020-11-19T14:40:33:924
-8,973085	-4,034299	2,373680	2020-11-19T14:40:33:948
-8,982656	-4,208975	1,871187	2020-11-19T14:40:33:966
-10,042676	-4,055835	1,856830	2020-11-19T14:40:33:987
-11,224730	-4,017549	1,837688	2020-11-19T14:40:34:005
-12,241680	-3,701697	1,653440	2020-11-19T14:40:34:028
-12,595818	-3,562913	1,189233	2020-11-19T14:40:34:045
-12,452249	-3,223132	0,636491	2020-11-19T14:40:34:067
-11,806188	-3,046063	0,289532	2020-11-19T14:40:34:085
-10,985448	-2,823531	0,124427	2020-11-19T14:40:34:108
-10,329816	-2,411965	0,057428	2020-11-19T14:40:34:125
-9,822537	-2,316252	0,110070	2020-11-19T14:40:34:148
-9,370294	-2,249253	0,246461	2020-11-19T14:40:34:165
-9,047262	-2,548356	0,294317	2020-11-19T14:40:34:189
-8,731410	-2,938386	0,342174	2020-11-19T14:40:34:206
-8,437093	-3,306881	0,193819	2020-11-19T14:40:34:227
-8,355737	-3,378666	0,244068	2020-11-19T14:40:34:245
-8,307880	-3,402594	0,368495	2020-11-19T14:40:34:270
-8,288737	-3,038885	0,349352	2020-11-19T14:40:34:285
-8,195417	-2,627320	0,332602	2020-11-19T14:40:34:308
-7,975278	-2,354537	0,337388	2020-11-19T14:40:34:325
-7,939385	-2,072184	0,344566	2020-11-19T14:40:34:348
-7,963314	-1,875973	0,540778	2020-11-19T14:40:34:365
-8,092526	-1,684547	0,983450	2020-11-19T14:40:34:388
-7,977671	-1,552942	1,282553	2020-11-19T14:40:34:405
-7,676175	-1,287339	1,433301	2020-11-19T14:40:34:429
-7,805387	-1,052842	1,550549	2020-11-19T14:40:34:446
-8,049455	-1,165305	1,931008	2020-11-19T14:40:34:468
-8,539984	-1,162912	2,464607	2020-11-19T14:40:34:487
-9,226725	-1,016950	2,799603	2020-11-19T14:40:34:509
-9,930215	-0,885344	2,799603	2020-11-19T14:40:34:525
-10,248460	-0,851845	2,390430	2020-11-19T14:40:34:548
-10,260423	-0,818345	2,053042	2020-11-19T14:40:34:565
-10,705488	-1,540978	2,624927	2020-11-19T14:40:34:589
-10,834702	-2,703890	3,771089	2020-11-19T14:40:34:606
-10,396815	-2,723032	4,737789	2020-11-19T14:40:34:628
-10,226924	-2,230111	5,017749	2020-11-19T14:40:34:645
-10,372886	-2,285146	4,524827	2020-11-19T14:40:34:670
-10,753345	-2,600998	3,314059	2020-11-19T14:40:34:686
-11,392227	-2,311467	1,012164	2020-11-19T14:40:34:708
-12,126825	-2,014757	1,227518	2020-11-19T14:40:34:726
-11,901899	-1,959722	1,014557	2020-11-19T14:40:34:750
-11,124231	-2,720639	1,189233	2020-11-19T14:40:34:765
-9,745967	-3,189633	0,619741	2020-11-19T14:40:34:788
-8,855836	-3,302095	-0,131605	2020-11-19T14:40:34:806
-9,064013	-3,373880	-0,547956	2020-11-19T14:40:34:830
-9,406186	-3,687340	-0,607777	2020-11-19T14:40:34:846
-9,485149	-3,979264	-0,514457	2020-11-19T14:40:34:870
-9,535398	-4,261617	-0,756132	2020-11-19T14:40:34:886
-9,954143	-4,218546	-1,356731	2020-11-19T14:40:34:910
-10,016356	-4,323831	-1,347159	2020-11-19T14:40:34:927
-9,334401	-4,376472	-0,591027	2020-11-19T14:40:34:948
-9,071191	-4,139583	0,413958	2020-11-19T14:40:34:966
-9,370294	-3,996014	1,533799	2020-11-19T14:40:34:989
-9,547362	-4,156333	2,811567	2020-11-19T14:40:35:006
-9,676575	-3,957729	3,661019	2020-11-19T14:40:35:029
-9,702895	-3,203990	3,938586	2020-11-19T14:40:35:046
-9,497113	-2,404787	4,010371	2020-11-19T14:40:35:070
-9,377472	-2,244468	3,402594	2020-11-19T14:40:35:087
-10,092925	-2,038685	3,443272	2020-11-19T14:40:35:110
-10,526026	-1,974079	3,541377	2020-11-19T14:40:35:126
-10,463813	-1,873580	3,625126	2020-11-19T14:40:35:150
-10,722239	-1,418944	3,381058	2020-11-19T14:40:35:167
-10,904092	-0,198604	3,419343	2020-11-19T14:40:35:189
-10,770095	-0,122034	3,823731	2020-11-19T14:40:35:207
-10,832308	-0,964308	4,280759	2020-11-19T14:40:35:229
-11,191232	-1,555335	4,177868	2020-11-19T14:40:35:246
-11,636297	-2,041078	4,007978	2020-11-19T14:40:35:269
-11,619547	-2,756532	3,668197	2020-11-19T14:40:35:287
-11,093125	-2,981457	2,957529	2020-11-19T14:40:35:310
-10,504492	-2,883351	1,844866	2020-11-19T14:40:35:326
-10,380065	-2,725425	1,110270	2020-11-19T14:40:35:349
-11,732009	-2,897708	0,796810	2020-11-19T14:40:35:366
-14,254045	-2,273181	0,366102	2020-11-19T14:40:35:390
-14,878571	-2,053042	-0,083749	2020-11-19T14:40:35:407
-13,895120	-2,251646	-0,363709	2020-11-19T14:40:35:429
-12,579069	-2,964707	-0,586242	2020-11-19T14:40:35:446
-12,514462	-3,294917	-0,452243	2020-11-19T14:40:35:470
-12,665211	-2,995814	-0,715454	2020-11-19T14:40:35:487
-11,009377	-2,440679	-1,060020	2020-11-19T14:40:35:509
-9,707682	-2,251646	-1,045663	2020-11-19T14:40:35:526
-9,013763	-2,608176	-0,765703	2020-11-19T14:40:35:550
-8,650054	-2,727818	-0,478565	2020-11-19T14:40:35:567
-8,547162	-2,811567	-0,334995	2020-11-19T14:40:35:589
-8,695518	-2,837888	-0,433101	2020-11-19T14:40:35:607
-8,551948	-2,636890	-0,559920	2020-11-19T14:40:35:630
-8,082954	-2,062613	-0,849452	2020-11-19T14:40:35:647
-7,980063	-1,852045	-0,820738	2020-11-19T14:40:35:669
-8,271988	-1,631905	-0,325424	2020-11-19T14:40:35:687
-8,377272	-1,512264	0,007178	2020-11-19T14:40:35:710
-8,018349	-1,289732	-0,014357	2020-11-19T14:40:35:726
-7,683353	-1,038485	0,007178	2020-11-19T14:40:35:750
-7,606783	-0,722632	0,224925	2020-11-19T14:40:35:767
-7,762317	-0,696311	0,519243	2020-11-19T14:40:35:790
-7,905886	-0,792024	0,739382	2020-11-19T14:40:35:807
-8,300702	-0,949951	1,045663	2020-11-19T14:40:35:830
-8,910872	-1,098306	1,383051	2020-11-19T14:40:35:847
-9,430114	-1,316052	1,694118	2020-11-19T14:40:35:870
-9,963714	-1,636691	1,801795	2020-11-19T14:40:35:887
-10,001998	-1,825724	1,804188	2020-11-19T14:40:35:910
-10,016356	-1,909473	1,820938	2020-11-19T14:40:35:927
-10,872985	-1,804188	1,689333	2020-11-19T14:40:35:950
-12,248858	-1,830509	1,584049	2020-11-19T14:40:35:967
-12,258430	-2,222932	1,840081	2020-11-19T14:40:35:990
-10,590633	-2,275574	2,134398	2020-11-19T14:40:36:007
-9,102298	-2,175076	2,194218	2020-11-19T14:40:36:030
-9,157332	-2,275574	2,175076	2020-11-19T14:40:36:047
-10,135997	-2,419144	1,962115	2020-11-19T14:40:36:070
-10,535598	-2,187040	1,782653	2020-11-19T14:40:36:086
-10,801201	-2,050649	1,842474	2020-11-19T14:40:36:111
-11,308479	-2,258825	2,132005	2020-11-19T14:40:36:128
-11,160125	-2,533999	2,220540	2020-11-19T14:40:36:150
-10,485349	-2,519642	2,079363	2020-11-19T14:40:36:167
-9,851252	-2,368894	1,928615	2020-11-19T14:40:36:191
-9,427721	-2,328217	2,246860	2020-11-19T14:40:36:207
-8,999406	-2,502892	2,378466	2020-11-19T14:40:36:231
-8,690732	-2,744568	2,612962	2020-11-19T14:40:36:247
-8,425128	-2,919244	2,871387	2020-11-19T14:40:36:271
-8,523234	-3,232704	3,113062	2020-11-19T14:40:36:287
-8,662018	-3,373880	3,393023	2020-11-19T14:40:36:310
-8,941978	-3,302095	3,763910	2020-11-19T14:40:36:327
-9,159724	-2,969493	3,964907	2020-11-19T14:40:36:351
-9,305687	-2,691926	3,926622	2020-11-19T14:40:36:368
-9,341579	-2,495714	3,938586	2020-11-19T14:40:36:390
-9,384650	-2,311467	3,926622	2020-11-19T14:40:36:407
-9,276974	-2,263610	3,641876	2020-11-19T14:40:36:431
-9,358330	-2,203789	3,381058	2020-11-19T14:40:36:447
-9,994821	-2,199004	3,096312	2020-11-19T14:40:36:470
-10,619347	-2,215754	3,170490	2020-11-19T14:40:36:488
-10,394422	-2,280360	3,098706	2020-11-19T14:40:36:512
-9,327222	-2,146362	2,947958	2020-11-19T14:40:36:527
-8,413164	-2,081756	2,768496	2020-11-19T14:40:36:550
-8,264810	-2,105684	2,187040	2020-11-19T14:40:36:567
-9,442079	-2,074577	1,914258	2020-11-19T14:40:36:591
-11,179268	-2,476572	2,325824	2020-11-19T14:40:36:610
-12,382857	-3,036492	3,364309	2020-11-19T14:40:36:631
-13,036098	-3,055635	4,354938	2020-11-19T14:40:36:647
-12,346965	-2,914458	3,677768	2020-11-19T14:40:36:671
-11,789437	-3,211168	2,857030	2020-11-19T14:40:36:687
-11,298907	-3,799802	3,103491	2020-11-19T14:40:36:711
-10,727024	-3,751946	3,663411	2020-11-19T14:40:36:727
-9,915856	-3,347559	3,948158	2020-11-19T14:40:36:751
-9,284152	-3,270989	3,871587	2020-11-19T14:40:36:768
-8,807980	-3,304488	3,809374	2020-11-19T14:40:36:791
-8,384450	-3,613162	3,862016	2020-11-19T14:40:36:808
-8,260024	-3,558127	4,271189	2020-11-19T14:40:36:831
-8,458629	-3,275774	4,582255	2020-11-19T14:40:36:849
-8,760124	-2,849852	4,182654	2020-11-19T14:40:36:870
-9,052048	-2,701497	3,572484	2020-11-19T14:40:36:889
-9,535398	-2,806781	3,457629	2020-11-19T14:40:36:912
-10,095319	-2,859423	3,534199	2020-11-19T14:40:36:927
-10,382458	-2,885744	3,725625	2020-11-19T14:40:36:950
-10,468598	-2,682354	3,046063	2020-11-19T14:40:36:968
-9,769895	-2,411965	2,754139	2020-11-19T14:40:36:991
-8,970692	-2,318645	2,682354	2020-11-19T14:40:37:008
-8,449057	-2,598605	2,703890	2020-11-19T14:40:37:031
-8,379664	-2,828316	2,952743	2020-11-19T14:40:37:048
-8,611769	-2,979064	3,232704	2020-11-19T14:40:37:071
-8,953942	-2,792424	2,912065	2020-11-19T14:40:37:095
-8,793623	-2,505285	2,567499	2020-11-19T14:40:37:111
-8,377272	-2,364109	2,385644	2020-11-19T14:40:37:128
-7,893922	-2,297110	2,648855	2020-11-19T14:40:37:152
-7,338787	-2,139183	2,852244	2020-11-19T14:40:37:168
-6,853044	-1,756332	2,627320	2020-11-19T14:40:37:191
-6,788438	-1,624727	2,299503	2020-11-19T14:40:37:208
-6,977471	-1,543371	2,409572	2020-11-19T14:40:37:232
-6,922436	-1,354338	2,749353	2020-11-19T14:40:37:248
-6,699903	-1,229911	3,060420	2020-11-19T14:40:37:271
-6,506085	-1,277767	3,180061	2020-11-19T14:40:37:288
-6,783652	-2,009971	3,732803	2020-11-19T14:40:37:313
-7,479963	-2,450250	4,323831	2020-11-19T14:40:37:329
-7,819745	-2,177469	4,567898	2020-11-19T14:40:37:351
-8,011170	-1,859223	4,311867	2020-11-19T14:40:37:368
-8,068598	-2,031506	4,218546	2020-11-19T14:40:37:392
-7,606783	-2,435893	4,508078	2020-11-19T14:40:37:408
-7,422535	-2,361716	4,682754	2020-11-19T14:40:37:431
-7,475177	-2,292324	4,572684	2020-11-19T14:40:37:448
-7,061220	-2,517249	4,194618	2020-11-19T14:40:37:472
-7,085148	-3,199204	4,082155	2020-11-19T14:40:37:489
-7,503892	-3,661019	4,165904	2020-11-19T14:40:37:512
-8,159525	-3,402594	5,297709	2020-11-19T14:40:37:529
-8,511270	-3,208775	4,979464	2020-11-19T14:40:37:552
-8,537591	-2,926422	3,737589	2020-11-19T14:40:37:569
-8,891729	-3,189633	2,907279	2020-11-19T14:40:37:591
-9,463614	-4,158726	2,763710	2020-11-19T14:40:37:609
-10,047462	-4,929214	3,010171	2020-11-19T14:40:37:632
-10,492528	-5,240282	3,285345	2020-11-19T14:40:37:648
-10,542776	-5,429315	3,342773	2020-11-19T14:40:37:671
