x	y	z	ts
1,260000	1,750000	-0,420000	2020-11-19T14:39:52:958
-14,420000	-37,310001	3,780000	2020-11-19T14:39:52:959
-4,200000	-2,870000	1,610000	2020-11-19T14:39:52:959
-4,200000	0,910000	1,750000	2020-11-19T14:39:52:959
-6,370000	-0,140000	1,820000	2020-11-19T14:39:52:960
-6,720000	0,140000	3,500000	2020-11-19T14:39:52:961
-6,790000	-1,190000	5,950000	2020-11-19T14:39:52:961
-11,830000	-6,510000	10,500000	2020-11-19T14:39:52:965
-19,670000	-3,990000	14,910000	2020-11-19T14:39:52:986
-25,410000	-3,290000	14,630000	2020-11-19T14:39:53:005
-27,370001	2,030000	31,639999	2020-11-19T14:39:53:026
-41,790001	2,380000	19,530001	2020-11-19T14:39:53:044
-70,279999	8,820000	23,520000	2020-11-19T14:39:53:067
-115,430000	10,360000	29,190001	2020-11-19T14:39:53:085
-172,059998	5,250000	36,820000	2020-11-19T14:39:53:106
-215,600006	-5,740000	49,700001	2020-11-19T14:39:53:125
-247,169998	-18,129999	64,540001	2020-11-19T14:39:53:146
-289,029999	-33,250000	80,570000	2020-11-19T14:39:53:164
-338,660004	-51,099998	95,900002	2020-11-19T14:39:53:186
-383,950012	-66,989998	106,820000	2020-11-19T14:39:53:204
-421,260010	-79,379997	114,660004	2020-11-19T14:39:53:226
-453,529999	-91,070000	119,629997	2020-11-19T14:39:53:244
-495,040009	-106,470001	125,160004	2020-11-19T14:39:53:276
-523,179993	-127,889999	131,669998	2020-11-19T14:39:53:285
-522,340027	-153,440002	132,369995	2020-11-19T14:39:53:306
-524,159973	-182,699997	133,279999	2020-11-19T14:39:53:324
-547,609985	-215,600006	132,580002	2020-11-19T14:39:53:356
-597,659973	-253,889999	128,029999	2020-11-19T14:39:53:384
-670,599976	-285,390015	121,169998	2020-11-19T14:39:53:390
-696,150024	-292,950012	100,309998	2020-11-19T14:39:53:414
-607,739990	-289,869995	71,470001	2020-11-19T14:39:53:481
-411,809998	-292,739990	41,580002	2020-11-19T14:39:53:481
-198,869995	-295,190002	40,740002	2020-11-19T14:39:53:482
-17,290001	-283,220001	78,260002	2020-11-19T14:39:53:485
77,349998	-263,899994	129,639999	2020-11-19T14:39:53:506
135,169998	-239,889999	164,779999	2020-11-19T14:39:53:524
171,779999	-220,009995	188,860001	2020-11-19T14:39:53:546
159,389999	-198,869995	184,660004	2020-11-19T14:39:53:565
133,770004	-184,660004	174,509995	2020-11-19T14:39:53:586
104,370003	-165,479996	157,990005	2020-11-19T14:39:53:605
88,690002	-134,330002	142,100006	2020-11-19T14:39:53:626
89,040001	-112,000000	126,139999	2020-11-19T14:39:53:645
83,930000	-90,510002	109,199997	2020-11-19T14:39:53:669
78,680000	-69,650002	92,820000	2020-11-19T14:39:53:687
42,420002	-49,279999	72,590004	2020-11-19T14:39:53:706
13,300000	-24,570000	53,410000	2020-11-19T14:39:53:725
10,920000	-3,640000	36,259998	2020-11-19T14:39:53:746
33,740002	14,770000	21,840000	2020-11-19T14:39:53:766
51,730000	23,870001	10,290000	2020-11-19T14:39:53:787
38,009998	28,210001	0,210000	2020-11-19T14:39:53:805
20,020000	33,110001	-4,410000	2020-11-19T14:39:53:827
16,660000	32,200001	-7,000000	2020-11-19T14:39:53:845
23,590000	28,139999	-7,420000	2020-11-19T14:39:53:866
22,469999	23,940001	-7,070000	2020-11-19T14:39:53:885
7,840000	21,280001	-8,400000	2020-11-19T14:39:53:907
-11,480000	18,760000	-10,010000	2020-11-19T14:39:53:932
-16,730000	20,790001	-12,530000	2020-11-19T14:39:53:955
-10,150000	23,940001	-19,320000	2020-11-19T14:39:53:968
2,730000	29,400000	-27,650000	2020-11-19T14:39:53:990
13,650000	33,740002	-35,279999	2020-11-19T14:39:54:009
16,590000	37,660000	-42,700001	2020-11-19T14:39:54:030
20,440001	43,049999	-45,220001	2020-11-19T14:39:54:045
27,370001	43,330002	-47,110001	2020-11-19T14:39:54:067
32,480000	41,790001	-48,860001	2020-11-19T14:39:54:086
31,990000	38,500000	-49,840000	2020-11-19T14:39:54:107
22,260000	34,160000	-49,420002	2020-11-19T14:39:54:127
22,469999	31,290001	-44,029999	2020-11-19T14:39:54:149
20,580000	24,290001	-35,209999	2020-11-19T14:39:54:167
11,340000	18,340000	-29,330000	2020-11-19T14:39:54:189
2,450000	11,970000	-17,150000	2020-11-19T14:39:54:207
3,010000	7,910000	-8,050000	2020-11-19T14:39:54:229
15,260000	7,210000	2,100000	2020-11-19T14:39:54:247
12,740000	9,310000	11,410000	2020-11-19T14:39:54:270
5,530000	8,400000	18,969999	2020-11-19T14:39:54:287
9,590000	8,120000	25,900000	2020-11-19T14:39:54:310
10,220000	6,160000	29,540001	2020-11-19T14:39:54:329
14,140000	3,010000	36,189999	2020-11-19T14:39:54:349
25,129999	0,350000	45,430000	2020-11-19T14:39:54:368
37,170002	-0,700000	53,410000	2020-11-19T14:39:54:389
57,189999	0,070000	57,889999	2020-11-19T14:39:54:407
76,930000	-1,190000	57,260002	2020-11-19T14:39:54:429
88,129997	-2,520000	48,720001	2020-11-19T14:39:54:448
101,220001	-3,150000	38,150002	2020-11-19T14:39:54:470
115,639999	-3,920000	25,620001	2020-11-19T14:39:54:487
110,739998	-3,430000	13,650000	2020-11-19T14:39:54:510
84,629997	1,190000	-5,110000	2020-11-19T14:39:54:527
69,580002	2,450000	-18,620001	2020-11-19T14:39:54:550
70,419998	-2,660000	-27,230000	2020-11-19T14:39:54:570
70,629997	-8,820000	-35,000000	2020-11-19T14:39:54:590
63,139999	-14,770000	-40,459999	2020-11-19T14:39:54:607
44,799999	-25,900000	-45,920002	2020-11-19T14:39:54:635
20,160000	-33,459999	-52,500000	2020-11-19T14:39:54:660
-4,970000	-35,700001	-60,900002	2020-11-19T14:39:54:679
-24,920000	-34,860001	-69,720001	2020-11-19T14:39:54:692
-35,279999	-30,240000	-78,470001	2020-11-19T14:39:54:708
-30,799999	-22,680000	-85,889999	2020-11-19T14:39:54:728
-18,830000	-18,480000	-91,209999	2020-11-19T14:39:54:750
-6,090000	-16,940001	-93,239998	2020-11-19T14:39:54:768
-0,140000	-15,540000	-92,889999	2020-11-19T14:39:54:790
2,520000	-12,670000	-90,090004	2020-11-19T14:39:54:809
6,650000	-8,750000	-85,610001	2020-11-19T14:39:54:830
11,900000	-4,620000	-79,730003	2020-11-19T14:39:54:848
18,620001	-2,520000	-71,050003	2020-11-19T14:39:54:870
22,540001	-3,780000	-61,040001	2020-11-19T14:39:54:888
20,719999	-6,370000	-51,380001	2020-11-19T14:39:54:910
17,710001	-8,540000	-41,230000	2020-11-19T14:39:54:928
14,980000	-10,640000	-30,940001	2020-11-19T14:39:54:950
8,400000	-12,670000	-22,049999	2020-11-19T14:39:54:968
8,400000	-12,600000	-12,390000	2020-11-19T14:39:54:990
-3,010000	-11,620000	-3,360000	2020-11-19T14:39:55:008
1,050000	-9,310000	6,020000	2020-11-19T14:39:55:031
8,260000	-6,650000	15,120000	2020-11-19T14:39:55:049
15,120000	-3,430000	23,100000	2020-11-19T14:39:55:077
20,650000	0,070000	30,870001	2020-11-19T14:39:55:088
20,510000	4,830000	43,959999	2020-11-19T14:39:55:113
15,190001	3,290000	52,779999	2020-11-19T14:39:55:128
7,560000	3,010000	61,040001	2020-11-19T14:39:55:151
-0,070000	4,830000	70,559998	2020-11-19T14:39:55:169
-2,660000	2,870000	76,580002	2020-11-19T14:39:55:191
2,660000	3,360000	78,889999	2020-11-19T14:39:55:208
7,910000	12,460000	82,529999	2020-11-19T14:39:55:230
16,660000	22,190001	92,470001	2020-11-19T14:39:55:248
26,530001	30,100000	101,989998	2020-11-19T14:39:55:271
26,320000	31,850000	101,709999	2020-11-19T14:39:55:289
21,700001	24,920000	98,349998	2020-11-19T14:39:55:311
11,130000	16,309999	94,220001	2020-11-19T14:39:55:328
-15,890000	13,790000	80,360001	2020-11-19T14:39:55:351
-41,090000	12,460000	66,779999	2020-11-19T14:39:55:369
-59,220001	12,670000	56,770000	2020-11-19T14:39:55:390
-82,040001	14,770000	46,759998	2020-11-19T14:39:55:408
-95,690002	15,400000	37,170002	2020-11-19T14:39:55:431
-92,400002	16,870001	36,470001	2020-11-19T14:39:55:449
-84,559998	20,440001	39,340000	2020-11-19T14:39:55:472
-75,459999	21,840000	42,000000	2020-11-19T14:39:55:489
-61,670002	22,120001	45,430000	2020-11-19T14:39:55:511
-47,320000	21,350000	49,070000	2020-11-19T14:39:55:530
-38,849998	20,510000	53,130001	2020-11-19T14:39:55:551
-36,259998	19,600000	56,560001	2020-11-19T14:39:55:569
-37,939999	18,549999	58,450001	2020-11-19T14:39:55:591
-40,180000	16,590000	56,420002	2020-11-19T14:39:55:608
-38,430000	16,940001	52,220001	2020-11-19T14:39:55:631
-31,290001	19,670000	46,900002	2020-11-19T14:39:55:648
-18,900000	21,700001	40,529999	2020-11-19T14:39:55:671
-4,060000	23,100000	32,759998	2020-11-19T14:39:55:689
10,710000	23,870001	24,780001	2020-11-19T14:39:55:711
21,559999	22,889999	16,799999	2020-11-19T14:39:55:728
24,920000	19,670000	8,050000	2020-11-19T14:39:55:751
23,730000	18,969999	-0,420000	2020-11-19T14:39:55:770
23,170000	17,639999	-7,840000	2020-11-19T14:39:55:791
24,010000	13,510000	-14,000000	2020-11-19T14:39:55:809
24,710001	6,440000	-21,139999	2020-11-19T14:39:55:831
29,400000	1,470000	-26,809999	2020-11-19T14:39:55:849
36,750000	-2,100000	-32,480000	2020-11-19T14:39:55:872
44,939999	-8,680000	-42,560001	2020-11-19T14:39:55:889
54,740002	-16,100000	-55,160000	2020-11-19T14:39:55:912
60,760002	-16,450001	-69,160004	2020-11-19T14:39:55:929
61,810001	-13,160000	-82,110001	2020-11-19T14:39:55:952
64,610001	-10,150000	-90,650002	2020-11-19T14:39:55:969
92,470001	-14,560000	-80,360001	2020-11-19T14:39:55:992
114,870003	-21,070000	-73,010002	2020-11-19T14:39:56:010
81,900002	-29,540001	-81,690002	2020-11-19T14:39:56:032
58,240002	-31,360001	-80,360001	2020-11-19T14:39:56:049
67,059998	-34,369999	-73,989998	2020-11-19T14:39:56:074
71,750000	-32,200001	-75,809998	2020-11-19T14:39:56:109
55,230000	-30,870001	-80,150002	2020-11-19T14:39:56:112
41,090000	-29,260000	-84,769997	2020-11-19T14:39:56:130
37,869999	-26,250000	-88,340004	2020-11-19T14:39:56:169
38,080002	-23,170000	-88,830002	2020-11-19T14:39:56:170
36,820000	-19,740000	-84,070000	2020-11-19T14:39:56:191
27,580000	-19,950001	-78,820000	2020-11-19T14:39:56:208
13,510000	-20,230000	-73,150002	2020-11-19T14:39:56:231
1,400000	-17,639999	-66,360001	2020-11-19T14:39:56:251
-3,920000	-13,440001	-59,010002	2020-11-19T14:39:56:272
-2,730000	-7,630000	-51,240002	2020-11-19T14:39:56:289
-2,170000	-6,720000	-44,939999	2020-11-19T14:39:56:312
-2,590000	-10,010000	-38,990002	2020-11-19T14:39:56:329
-5,460000	-10,640000	-31,219999	2020-11-19T14:39:56:352
-9,940000	-6,230000	-20,580000	2020-11-19T14:39:56:370
-8,330000	-1,260000	-9,100000	2020-11-19T14:39:56:392
-0,770000	2,940000	2,380000	2020-11-19T14:39:56:409
5,390000	7,560000	14,280000	2020-11-19T14:39:56:433
7,490000	13,230000	26,250000	2020-11-19T14:39:56:450
9,240000	18,200001	39,970001	2020-11-19T14:39:56:473
9,800000	17,920000	54,810001	2020-11-19T14:39:56:491
6,650000	19,250000	69,510002	2020-11-19T14:39:56:512
5,250000	23,100000	83,860001	2020-11-19T14:39:56:530
10,920000	24,639999	93,870003	2020-11-19T14:39:56:553
22,610001	28,350000	97,650002	2020-11-19T14:39:56:570
33,110001	34,930000	93,239998	2020-11-19T14:39:56:593
40,599998	41,160000	81,970001	2020-11-19T14:39:56:609
42,560001	44,029999	68,459999	2020-11-19T14:39:56:633
34,720001	43,750000	57,400002	2020-11-19T14:39:56:650
13,930000	40,250000	49,000000	2020-11-19T14:39:56:673
-14,140000	33,320000	44,520000	2020-11-19T14:39:56:690
-41,439999	25,830000	43,259998	2020-11-19T14:39:56:713
-65,309998	18,340000	42,630001	2020-11-19T14:39:56:731
-86,239998	11,410000	40,880001	2020-11-19T14:39:56:753
-102,760002	7,980000	38,220001	2020-11-19T14:39:56:770
-109,550003	9,590000	39,830002	2020-11-19T14:39:56:793
-100,800003	12,320000	42,000000	2020-11-19T14:39:56:810
-87,430000	15,680000	46,619999	2020-11-19T14:39:56:833
-72,660004	19,040001	50,259998	2020-11-19T14:39:56:850
-51,799999	22,469999	53,549999	2020-11-19T14:39:56:873
-30,450001	26,670000	54,880001	2020-11-19T14:39:56:890
-14,280000	30,170000	54,250000	2020-11-19T14:39:56:913
-7,840000	30,870001	52,290001	2020-11-19T14:39:56:930
-6,510000	31,290001	48,369999	2020-11-19T14:39:56:953
-6,090000	30,870001	43,049999	2020-11-19T14:39:56:971
-7,700000	28,490000	36,820000	2020-11-19T14:39:56:993
-12,460000	25,059999	29,330000	2020-11-19T14:39:57:010
-17,500000	22,960001	21,700001	2020-11-19T14:39:57:033
-18,410000	22,540001	14,490000	2020-11-19T14:39:57:050
-14,280000	21,210001	8,820000	2020-11-19T14:39:57:075
-8,750000	16,870001	2,940000	2020-11-19T14:39:57:095
-3,430000	13,370000	-1,330000	2020-11-19T14:39:57:113
0,210000	10,990000	-3,920000	2020-11-19T14:39:57:130
2,940000	6,860000	-6,510000	2020-11-19T14:39:57:153
5,880000	0,070000	-9,450000	2020-11-19T14:39:57:170
7,840000	-7,000000	-10,780000	2020-11-19T14:39:57:193
7,490000	-15,120000	-12,460000	2020-11-19T14:39:57:211
8,050000	-25,900000	-18,340000	2020-11-19T14:39:57:233
10,570000	-34,720001	-38,009998	2020-11-19T14:39:57:250
15,470000	-31,639999	-52,360001	2020-11-19T14:39:57:274
31,150000	-30,870001	-61,880001	2020-11-19T14:39:57:290
55,720001	-34,930000	-64,680000	2020-11-19T14:39:57:313
78,610001	-39,759998	-61,740002	2020-11-19T14:39:57:330
94,430000	-45,849998	-56,700001	2020-11-19T14:39:57:353
101,010002	-54,250000	-52,849998	2020-11-19T14:39:57:371
95,199997	-61,740002	-54,670002	2020-11-19T14:39:57:393
77,910004	-65,379997	-62,160000	2020-11-19T14:39:57:410
56,700001	-64,540001	-71,610001	2020-11-19T14:39:57:434
31,500000	-60,830002	-83,090004	2020-11-19T14:39:57:452
6,580000	-55,090000	-93,940002	2020-11-19T14:39:57:474
-4,410000	-46,830002	-100,519997	2020-11-19T14:39:57:491
0,840000	-37,939999	-101,989998	2020-11-19T14:39:57:513
15,960000	-29,540001	-98,769997	2020-11-19T14:39:57:530
33,740002	-22,469999	-91,769997	2020-11-19T14:39:57:554
51,029999	-15,750000	-82,250000	2020-11-19T14:39:57:571
60,340000	-8,890000	-71,470001	2020-11-19T14:39:57:592
59,500000	-2,450000	-60,480000	2020-11-19T14:39:57:610
52,779999	1,540000	-48,930000	2020-11-19T14:39:57:634
44,590000	3,570000	-38,849998	2020-11-19T14:39:57:651
37,380001	7,140000	-29,190001	2020-11-19T14:39:57:674
33,810001	11,760000	-19,530001	2020-11-19T14:39:57:693
37,099998	16,730000	-12,810000	2020-11-19T14:39:57:714
48,790001	22,610001	-8,680000	2020-11-19T14:39:57:731
58,869999	31,290001	-6,020000	2020-11-19T14:39:57:754
63,420002	39,549999	-4,900000	2020-11-19T14:39:57:771
66,360001	46,689999	-2,170000	2020-11-19T14:39:57:794
72,940002	50,189999	5,530000	2020-11-19T14:39:57:811
74,269997	50,680000	13,860000	2020-11-19T14:39:57:834
74,340004	57,820000	25,270000	2020-11-19T14:39:57:851
76,720001	57,189999	36,049999	2020-11-19T14:39:57:875
82,459999	59,220001	39,830002	2020-11-19T14:39:57:891
91,629997	67,900002	39,340000	2020-11-19T14:39:57:914
98,070000	75,669998	30,380001	2020-11-19T14:39:57:933
102,760002	75,040001	17,430000	2020-11-19T14:39:57:954
104,440002	70,279999	5,950000	2020-11-19T14:39:57:971
95,199997	66,010002	-0,350000	2020-11-19T14:39:57:994
75,459999	62,930000	-0,070000	2020-11-19T14:39:58:011
55,580002	62,299999	3,570000	2020-11-19T14:39:58:035
46,200001	63,700001	8,190000	2020-11-19T14:39:58:050
48,439999	68,389999	12,110000	2020-11-19T14:39:58:075
59,849998	73,849998	16,030001	2020-11-19T14:39:58:091
78,540001	78,610001	19,250000	2020-11-19T14:39:58:114
103,320000	85,889999	19,320000	2020-11-19T14:39:58:131
131,669998	92,820000	20,090000	2020-11-19T14:39:58:154
158,830002	98,769997	22,540001	2020-11-19T14:39:58:173
164,990005	99,260002	21,210001	2020-11-19T14:39:58:195
169,259995	97,019997	21,350000	2020-11-19T14:39:58:211
191,589996	89,809998	20,299999	2020-11-19T14:39:58:234
191,240005	84,629997	13,300000	2020-11-19T14:39:58:251
179,970001	77,209999	12,600000	2020-11-19T14:39:58:275
186,479996	67,340004	2,940000	2020-11-19T14:39:58:291
179,899994	59,010002	-2,940000	2020-11-19T14:39:58:314
162,470001	49,560001	-9,660000	2020-11-19T14:39:58:331
178,919998	38,080002	-13,230000	2020-11-19T14:39:58:355
209,930008	35,770000	-11,270000	2020-11-19T14:39:58:371
220,990005	37,450001	-10,640000	2020-11-19T14:39:58:395
215,949997	38,009998	-8,330000	2020-11-19T14:39:58:413
202,440002	38,220001	-12,670000	2020-11-19T14:39:58:435
183,680008	40,950001	-18,059999	2020-11-19T14:39:58:453
168,139999	42,840000	-17,430000	2020-11-19T14:39:58:475
156,729996	46,759998	-14,140000	2020-11-19T14:39:58:491
158,479996	48,020000	-8,960000	2020-11-19T14:39:58:516
160,860001	43,119999	-1,120000	2020-11-19T14:39:58:531
162,259995	43,820000	7,140000	2020-11-19T14:39:58:555
174,580002	41,930000	14,700000	2020-11-19T14:39:58:572
193,410004	37,240002	21,000000	2020-11-19T14:39:58:595
221,339996	30,799999	15,330000	2020-11-19T14:39:58:611
240,869995	12,530000	-4,690000	2020-11-19T14:39:58:635
219,520004	-9,310000	-28,770000	2020-11-19T14:39:58:653
158,550003	-13,720000	-61,599998	2020-11-19T14:39:58:676
91,910004	-7,350000	-92,820000	2020-11-19T14:39:58:692
37,029999	0,140000	-117,879997	2020-11-19T14:39:58:726
3,500000	10,080000	-137,479996	2020-11-19T14:39:58:732
8,330000	19,320000	-149,029999	2020-11-19T14:39:58:755
36,049999	23,450001	-154,279999	2020-11-19T14:39:58:772
65,519997	25,480000	-151,550003	2020-11-19T14:39:58:795
87,360001	24,010000	-143,850006	2020-11-19T14:39:58:812
102,760002	18,760000	-132,089996	2020-11-19T14:39:58:836
109,129997	12,320000	-117,180000	2020-11-19T14:39:58:852
99,959999	5,040000	-100,449997	2020-11-19T14:39:58:875
79,029999	-1,820000	-83,790001	2020-11-19T14:39:58:893
55,369999	-7,350000	-68,110001	2020-11-19T14:39:58:916
34,509998	-11,410000	-52,709999	2020-11-19T14:39:58:934
16,170000	-14,770000	-38,150002	2020-11-19T14:39:58:955
1,960000	-15,050000	-25,270000	2020-11-19T14:39:58:973
-7,210000	-11,480000	-14,070000	2020-11-19T14:39:58:996
-11,410000	-5,460000	-2,170000	2020-11-19T14:39:59:012
-9,310000	1,260000	11,270000	2020-11-19T14:39:59:035
-0,210000	9,450000	25,270000	2020-11-19T14:39:59:052
15,260000	17,360001	38,360001	2020-11-19T14:39:59:077
31,150000	24,990000	48,580002	2020-11-19T14:39:59:092
42,349998	31,990000	55,650002	2020-11-19T14:39:59:115
48,160000	36,400002	61,880001	2020-11-19T14:39:59:133
47,250000	36,400002	69,160004	2020-11-19T14:39:59:156
40,880001	32,200001	77,070000	2020-11-19T14:39:59:173
28,910000	25,620001	85,889999	2020-11-19T14:39:59:196
7,210000	20,790001	93,309998	2020-11-19T14:39:59:212
-20,230000	14,210000	94,570000	2020-11-19T14:39:59:236
-40,810001	4,620000	91,000000	2020-11-19T14:39:59:252
-47,459999	-0,630000	91,910004	2020-11-19T14:39:59:276
-53,830002	-3,780000	89,809998	2020-11-19T14:39:59:292
-72,379997	-10,920000	84,279999	2020-11-19T14:39:59:316
-84,629997	-20,230000	87,639999	2020-11-19T14:39:59:332
-84,419998	-25,830000	93,449997	2020-11-19T14:39:59:355
-86,169998	-25,340000	92,260002	2020-11-19T14:39:59:373
-90,510002	-21,280001	86,800003	2020-11-19T14:39:59:396
-94,989998	-14,490000	76,370003	2020-11-19T14:39:59:413
-90,580002	-9,590000	69,160004	2020-11-19T14:39:59:436
-73,989998	-3,220000	60,480000	2020-11-19T14:39:59:453
-48,020000	4,620000	52,290001	2020-11-19T14:39:59:477
-18,620001	13,510000	47,810001	2020-11-19T14:39:59:492
5,040000	21,840000	44,380001	2020-11-19T14:39:59:516
25,760000	27,090000	44,240002	2020-11-19T14:39:59:533
40,110001	30,240000	41,860001	2020-11-19T14:39:59:557
35,209999	32,830002	36,119999	2020-11-19T14:39:59:573
28,280001	35,070000	35,209999	2020-11-19T14:39:59:596
28,700001	35,910000	37,310001	2020-11-19T14:39:59:613
25,969999	34,580002	35,560001	2020-11-19T14:39:59:637
24,850000	31,570000	31,920000	2020-11-19T14:39:59:653
26,950001	29,260000	27,020000	2020-11-19T14:39:59:676
28,840000	28,350000	19,600000	2020-11-19T14:39:59:693
31,219999	27,160000	11,130000	2020-11-19T14:39:59:719
33,389999	25,340000	2,030000	2020-11-19T14:39:59:732
34,299999	22,960001	-6,440000	2020-11-19T14:39:59:756
35,560001	20,510000	-14,770000	2020-11-19T14:39:59:773
36,049999	20,370001	-23,730000	2020-11-19T14:39:59:797
37,029999	18,340000	-32,200001	2020-11-19T14:39:59:813
42,209999	14,770000	-36,470001	2020-11-19T14:39:59:836
50,400002	8,610000	-36,049999	2020-11-19T14:39:59:855
57,680000	-2,310000	-34,230000	2020-11-19T14:39:59:877
63,630001	-14,000000	-31,430000	2020-11-19T14:39:59:893
68,040001	-27,299999	-32,689999	2020-11-19T14:39:59:916
67,830002	-36,470001	-40,880001	2020-11-19T14:39:59:933
65,099998	-36,119999	-53,549999	2020-11-19T14:39:59:957
70,139999	-31,570000	-65,449997	2020-11-19T14:39:59:973
89,320000	-29,820000	-73,150002	2020-11-19T14:39:59:996
110,949997	-36,820000	-77,070000	2020-11-19T14:40:00:012
123,199997	-45,779999	-79,519997	2020-11-19T14:40:00:037
119,209999	-53,410000	-83,440002	2020-11-19T14:40:00:053
102,620003	-59,570000	-89,809998	2020-11-19T14:40:00:076
79,660004	-63,840000	-96,949997	2020-11-19T14:40:00:094
52,849998	-64,680000	-104,650002	2020-11-19T14:40:00:117
21,350000	-63,490002	-112,139999	2020-11-19T14:40:00:133
-8,120000	-59,709999	-119,559998	2020-11-19T14:40:00:156
-27,090000	-53,970001	-124,180000	2020-11-19T14:40:00:173
-35,700001	-49,139999	-126,489998	2020-11-19T14:40:00:197
-35,980000	-44,240002	-124,809998	2020-11-19T14:40:00:213
-32,340000	-39,689999	-119,559998	2020-11-19T14:40:00:235
-27,930000	-33,320000	-112,419998	2020-11-19T14:40:00:253
-23,660000	-26,040001	-104,650002	2020-11-19T14:40:00:277
-21,350000	-17,850000	-96,669998	2020-11-19T14:40:00:293
-20,930000	-9,660000	-88,550003	2020-11-19T14:40:00:316
-18,200001	-2,310000	-79,800003	2020-11-19T14:40:00:334
-11,550000	5,110000	-68,459999	2020-11-19T14:40:00:357
-4,760000	10,640000	-54,250000	2020-11-19T14:40:00:375
0,700000	13,020000	-39,270000	2020-11-19T14:40:00:395
6,090000	15,820000	-22,540001	2020-11-19T14:40:00:413
10,430000	19,879999	-4,970000	2020-11-19T14:40:00:437
12,670000	24,500000	12,250000	2020-11-19T14:40:00:453
17,570000	28,000000	31,080000	2020-11-19T14:40:00:476
23,379999	31,570000	63,490002	2020-11-19T14:40:00:493
21,490000	34,790001	88,129997	2020-11-19T14:40:00:516
21,210001	39,270000	115,849998	2020-11-19T14:40:00:533
22,260000	41,299999	142,029999	2020-11-19T14:40:00:557
30,030001	39,340000	153,860001	2020-11-19T14:40:00:574
37,660000	37,240002	148,960007	2020-11-19T14:40:00:597
40,529999	38,920002	133,279999	2020-11-19T14:40:00:613
37,660000	39,900002	112,419998	2020-11-19T14:40:00:636
30,309999	36,470001	92,330002	2020-11-19T14:40:00:654
13,580000	28,700001	76,019997	2020-11-19T14:40:00:677
-13,860000	20,299999	66,150002	2020-11-19T14:40:00:693
-48,720001	11,550000	61,389999	2020-11-19T14:40:00:717
-83,300003	5,250000	57,680000	2020-11-19T14:40:00:734
-110,389999	1,960000	55,230000	2020-11-19T14:40:00:758
-129,779999	0,560000	54,110001	2020-11-19T14:40:00:774
-137,550003	1,470000	54,180000	2020-11-19T14:40:00:798
-137,270004	3,850000	51,660000	2020-11-19T14:40:00:815
-130,410004	6,090000	59,290001	2020-11-19T14:40:00:838
-97,160004	8,050000	60,270000	2020-11-19T14:40:00:854
-67,129997	11,620000	63,980000	2020-11-19T14:40:00:877
-52,500000	16,520000	65,800003	2020-11-19T14:40:00:894
-40,810001	20,860001	70,349998	2020-11-19T14:40:00:918
-30,170000	24,080000	74,760002	2020-11-19T14:40:00:934
-21,210001	26,809999	76,019997	2020-11-19T14:40:00:957
-13,370000	27,020000	75,529999	2020-11-19T14:40:00:974
-7,070000	26,950001	73,570000	2020-11-19T14:40:00:998
-1,890000	27,860001	70,419998	2020-11-19T14:40:01:014
2,170000	28,070000	65,590004	2020-11-19T14:40:01:037
3,990000	25,830000	58,380001	2020-11-19T14:40:01:055
3,780000	23,170000	48,090000	2020-11-19T14:40:01:079
-0,490000	22,750000	35,420002	2020-11-19T14:40:01:094
-6,650000	22,400000	21,700001	2020-11-19T14:40:01:117
-8,750000	17,500000	6,370000	2020-11-19T14:40:01:134
-7,630000	8,680000	-10,290000	2020-11-19T14:40:01:158
-4,480000	5,810000	-26,460001	2020-11-19T14:40:01:174
3,780000	4,760000	-41,160000	2020-11-19T14:40:01:198
20,230000	1,050000	-56,560001	2020-11-19T14:40:01:214
40,810001	-1,260000	-70,910004	2020-11-19T14:40:01:238
62,720001	0,280000	-80,360001	2020-11-19T14:40:01:254
86,029999	0,070000	-83,860001	2020-11-19T14:40:01:278
110,949997	-8,400000	-82,389999	2020-11-19T14:40:01:295
131,880005	-18,270000	-76,090004	2020-11-19T14:40:01:318
139,509995	-29,190001	-66,500000	2020-11-19T14:40:01:334
136,430008	-43,330002	-57,400002	2020-11-19T14:40:01:357
118,510002	-61,040001	-55,510002	2020-11-19T14:40:01:374
84,279999	-74,760002	-62,090000	2020-11-19T14:40:01:398
44,590000	-79,449997	-73,010002	2020-11-19T14:40:01:414
7,560000	-78,330002	-86,870003	2020-11-19T14:40:01:437
-22,049999	-73,779999	-102,059998	2020-11-19T14:40:01:455
-42,770000	-67,410004	-111,580002	2020-11-19T14:40:01:479
-48,299999	-59,709999	-116,270004	2020-11-19T14:40:01:494
-36,610001	-51,660000	-116,480003	2020-11-19T14:40:01:519
-16,030001	-42,980000	-114,029999	2020-11-19T14:40:01:535
9,170000	-36,259998	-106,820000	2020-11-19T14:40:01:558
13,370000	-29,820000	-101,150002	2020-11-19T14:40:01:575
8,120000	-26,389999	-94,919998	2020-11-19T14:40:01:597
-5,530000	-23,660000	-89,040001	2020-11-19T14:40:01:614
-18,059999	-17,780001	-81,269997	2020-11-19T14:40:01:638
-23,030001	-10,290000	-70,279999	2020-11-19T14:40:01:654
-20,580000	-3,080000	-58,170002	2020-11-19T14:40:01:678
-14,840000	0,910000	-44,939999	2020-11-19T14:40:01:695
-7,210000	1,190000	-31,570000	2020-11-19T14:40:01:718
-0,770000	5,250000	-17,430000	2020-11-19T14:40:01:734
2,940000	12,390000	-0,210000	2020-11-19T14:40:01:758
9,100000	17,570000	20,230000	2020-11-19T14:40:01:777
16,520000	19,670000	42,770000	2020-11-19T14:40:01:797
22,120001	19,809999	66,430000	2020-11-19T14:40:01:815
22,889999	19,110001	90,019997	2020-11-19T14:40:01:838
17,710001	22,469999	111,790001	2020-11-19T14:40:01:854
15,890000	25,340000	130,479996	2020-11-19T14:40:01:880
25,200001	26,740000	139,509995	2020-11-19T14:40:01:895
38,709999	30,940001	135,449997	2020-11-19T14:40:01:917
50,400002	35,209999	122,080002	2020-11-19T14:40:01:935
57,680000	38,849998	101,709999	2020-11-19T14:40:01:958
57,330002	39,759998	80,570000	2020-11-19T14:40:01:975
40,529999	37,590000	61,180000	2020-11-19T14:40:01:998
6,930000	35,279999	47,599998	2020-11-19T14:40:02:016
-30,380001	31,219999	39,619999	2020-11-19T14:40:02:039
-61,110001	25,410000	36,330002	2020-11-19T14:40:02:054
-84,070000	20,090000	35,000000	2020-11-19T14:40:02:078
-104,720001	17,570000	33,740002	2020-11-19T14:40:02:094
-120,470001	15,610000	32,200001	2020-11-19T14:40:02:119
-127,540001	11,760000	29,330000	2020-11-19T14:40:02:135
-124,599998	14,840000	27,719999	2020-11-19T14:40:02:158
-111,020004	22,400000	30,240000	2020-11-19T14:40:02:175
-93,029999	28,139999	34,369999	2020-11-19T14:40:02:198
-76,650002	29,120001	37,730000	2020-11-19T14:40:02:215
-61,250000	29,190001	42,279999	2020-11-19T14:40:02:238
-49,560001	31,360001	49,770000	2020-11-19T14:40:02:256
-42,700001	34,020000	57,889999	2020-11-19T14:40:02:279
-38,639999	32,270000	63,770000	2020-11-19T14:40:02:295
-36,610001	28,840000	66,430000	2020-11-19T14:40:02:318
-36,470001	31,360001	67,340004	2020-11-19T14:40:02:335
-31,010000	36,259998	66,989998	2020-11-19T14:40:02:359
-21,210001	37,730000	64,540001	2020-11-19T14:40:02:375
-14,070000	35,910000	60,340000	2020-11-19T14:40:02:398
-11,760000	32,900002	54,040001	2020-11-19T14:40:02:415
-12,810000	31,010000	44,660000	2020-11-19T14:40:02:439
-16,660000	35,000000	32,410000	2020-11-19T14:40:02:456
-23,799999	33,740002	26,389999	2020-11-19T14:40:02:479
-31,080000	21,350000	28,770000	2020-11-19T14:40:02:495
-50,540001	17,850000	29,469999	2020-11-19T14:40:02:519
-71,330002	9,590000	34,439999	2020-11-19T14:40:02:535
-101,360001	-10,640000	33,740002	2020-11-19T14:40:02:559
-136,570007	-21,629999	29,889999	2020-11-19T14:40:02:577
-155,610001	-22,120001	29,469999	2020-11-19T14:40:02:599
-165,899994	-12,810000	19,670000	2020-11-19T14:40:02:615
-150,500000	-0,210000	0,770000	2020-11-19T14:40:02:639
-130,830002	5,460000	-17,219999	2020-11-19T14:40:02:655
-126,349998	14,280000	-32,270000	2020-11-19T14:40:02:680
-136,289993	22,120001	-45,709999	2020-11-19T14:40:02:695
-136,779999	24,850000	-51,380001	2020-11-19T14:40:02:719
-126,070000	22,820000	-53,200001	2020-11-19T14:40:02:737
-129,430008	18,969999	-54,950001	2020-11-19T14:40:02:759
-140,279999	12,250000	-57,889999	2020-11-19T14:40:02:776
-154,419998	6,440000	-59,360001	2020-11-19T14:40:02:799
-168,979996	2,520000	-63,700001	2020-11-19T14:40:02:815
-173,669998	-1,680000	-67,620003	2020-11-19T14:40:02:840
-175,070007	-7,140000	-70,209999	2020-11-19T14:40:02:855
-185,080002	-20,580000	-71,050003	2020-11-19T14:40:02:880
-201,460007	-34,650002	-68,529999	2020-11-19T14:40:02:896
-225,119995	-41,509998	-61,810001	2020-11-19T14:40:02:920
-243,740005	-43,119999	-56,139999	2020-11-19T14:40:02:935
-250,389999	-45,080002	-47,810001	2020-11-19T14:40:02:959
-246,399994	-53,130001	-42,840000	2020-11-19T14:40:02:977
-232,820007	-56,490002	-38,920002	2020-11-19T14:40:02:999
-212,240005	-53,549999	-32,549999	2020-11-19T14:40:03:016
-193,339996	-55,650002	-27,510000	2020-11-19T14:40:03:039
-178,710007	-57,400002	-24,639999	2020-11-19T14:40:03:055
-167,020004	-56,980000	-20,020000	2020-11-19T14:40:03:080
-156,169998	-55,720001	-15,470000	2020-11-19T14:40:03:096
-145,809998	-54,320000	-12,530000	2020-11-19T14:40:03:119
-137,619995	-56,000000	-11,760000	2020-11-19T14:40:03:135
-132,440002	-61,180000	-12,600000	2020-11-19T14:40:03:160
-130,759995	-62,510002	-13,580000	2020-11-19T14:40:03:176
-133,419998	-60,410000	-13,720000	2020-11-19T14:40:03:199
-136,360001	-58,730000	-12,810000	2020-11-19T14:40:03:216
-141,330002	-59,290001	-8,050000	2020-11-19T14:40:03:240
-148,820007	-59,080002	2,380000	2020-11-19T14:40:03:255
-153,300003	-62,860001	18,900000	2020-11-19T14:40:03:278
-156,449997	-67,620003	37,799999	2020-11-19T14:40:03:295
-161,630005	-71,750000	56,700001	2020-11-19T14:40:03:320
-168,210007	-66,290001	69,230003	2020-11-19T14:40:03:336
-165,130005	-54,110001	73,010002	2020-11-19T14:40:03:359
-147,559998	-44,730000	68,879997	2020-11-19T14:40:03:376
-120,750000	-32,340000	57,540001	2020-11-19T14:40:03:400
-91,840004	-14,910000	43,049999	2020-11-19T14:40:03:415
-59,639999	1,890000	30,730000	2020-11-19T14:40:03:440
-29,680000	10,010000	20,860001	2020-11-19T14:40:03:457
-13,160000	11,550000	14,630000	2020-11-19T14:40:03:480
-17,080000	11,410000	15,680000	2020-11-19T14:40:03:496
-36,750000	10,290000	20,719999	2020-11-19T14:40:03:519
-63,209999	7,420000	28,280001	2020-11-19T14:40:03:536
-87,639999	3,220000	37,099998	2020-11-19T14:40:03:559
-106,959999	-3,850000	44,240002	2020-11-19T14:40:03:576
-121,309998	-9,170000	50,470001	2020-11-19T14:40:03:599
-130,970001	-9,170000	56,209999	2020-11-19T14:40:03:616
-134,259995	-6,720000	60,410000	2020-11-19T14:40:03:640
-127,610001	-5,180000	62,439999	2020-11-19T14:40:03:656
-113,050003	-1,330000	61,950001	2020-11-19T14:40:03:680
-98,139999	5,320000	58,869999	2020-11-19T14:40:03:697
-80,989998	13,230000	50,959999	2020-11-19T14:40:03:720
-68,529999	13,370000	42,700001	2020-11-19T14:40:03:737
-57,330002	16,940001	33,320000	2020-11-19T14:40:03:759
-48,090000	20,650000	21,420000	2020-11-19T14:40:03:776
-35,349998	23,240000	8,750000	2020-11-19T14:40:03:800
-17,010000	23,940001	-3,780000	2020-11-19T14:40:03:816
4,620000	19,530001	-14,280000	2020-11-19T14:40:03:839
22,400000	13,160000	-22,260000	2020-11-19T14:40:03:856
30,240000	8,190000	-32,270000	2020-11-19T14:40:03:881
34,160000	3,430000	-44,310001	2020-11-19T14:40:03:896
45,150002	3,780000	-57,540001	2020-11-19T14:40:03:920
73,779999	2,800000	-62,510002	2020-11-19T14:40:03:937
113,610001	-9,100000	-68,250000	2020-11-19T14:40:03:960
136,570007	-20,510000	-79,730003	2020-11-19T14:40:03:977
128,800003	-24,780001	-95,199997	2020-11-19T14:40:03:999
111,020004	-29,400000	-111,300003	2020-11-19T14:40:04:016
104,300003	-37,099998	-124,180000	2020-11-19T14:40:04:041
97,930000	-44,869999	-127,050003	2020-11-19T14:40:04:056
85,050003	-52,920002	-125,860001	2020-11-19T14:40:04:083
73,919998	-60,549999	-127,120003	2020-11-19T14:40:04:096
60,900002	-66,150002	-127,820000	2020-11-19T14:40:04:120
42,630001	-70,000000	-129,009995	2020-11-19T14:40:04:136
20,860001	-71,400002	-131,320007	2020-11-19T14:40:04:160
-3,080000	-69,090004	-134,680008	2020-11-19T14:40:04:178
-22,400000	-64,470001	-136,500000	2020-11-19T14:40:04:200
-29,400000	-57,400002	-135,309998	2020-11-19T14:40:04:216
-27,090000	-47,599998	-130,690002	2020-11-19T14:40:04:240
-14,420000	-37,029999	-124,110001	2020-11-19T14:40:04:256
12,880000	-22,049999	-113,610001	2020-11-19T14:40:04:281
50,330002	-5,740000	-98,279999	2020-11-19T14:40:04:296
90,860001	8,400000	-80,360001	2020-11-19T14:40:04:320
124,669998	19,600000	-61,389999	2020-11-19T14:40:04:336
141,610001	23,660000	-40,320000	2020-11-19T14:40:04:361
130,970001	18,200001	-21,700001	2020-11-19T14:40:04:377
105,489998	16,170000	-4,900000	2020-11-19T14:40:04:400
79,029999	18,830000	11,760000	2020-11-19T14:40:04:418
55,090000	20,580000	25,830000	2020-11-19T14:40:04:441
27,370001	18,270000	35,000000	2020-11-19T14:40:04:457
2,450000	12,880000	40,040001	2020-11-19T14:40:04:481
-16,590000	10,640000	42,420002	2020-11-19T14:40:04:497
-30,660000	12,950000	44,240002	2020-11-19T14:40:04:521
-38,639999	18,900000	47,389999	2020-11-19T14:40:04:537
-42,139999	26,110001	51,590000	2020-11-19T14:40:04:561
-35,700001	31,430000	56,139999	2020-11-19T14:40:04:577
-20,790001	39,130001	63,560001	2020-11-19T14:40:04:601
-7,490000	47,040001	72,800003	2020-11-19T14:40:04:617
0,560000	50,470001	78,260002	2020-11-19T14:40:04:641
4,900000	50,189999	78,820000	2020-11-19T14:40:04:658
3,570000	50,119999	77,139999	2020-11-19T14:40:04:680
0,140000	51,170002	72,660004	2020-11-19T14:40:04:697
-2,450000	50,259998	64,190002	2020-11-19T14:40:04:722
-8,120000	45,849998	53,830002	2020-11-19T14:40:04:737
-20,020000	42,349998	44,939999	2020-11-19T14:40:04:761
-38,639999	37,939999	35,209999	2020-11-19T14:40:04:777
-73,570000	28,350000	31,219999	2020-11-19T14:40:04:801
-96,320000	24,780001	29,260000	2020-11-19T14:40:04:817
-113,050003	21,559999	27,930000	2020-11-19T14:40:04:842
-116,410004	19,180000	28,630001	2020-11-19T14:40:04:857
-110,389999	19,110001	31,570000	2020-11-19T14:40:04:881
-101,570000	18,270000	36,330002	2020-11-19T14:40:04:898
-93,800003	17,639999	39,200001	2020-11-19T14:40:04:921
-86,169998	19,040001	41,790001	2020-11-19T14:40:04:938
-75,669998	21,770000	45,150002	2020-11-19T14:40:04:961
-63,980000	24,850000	50,259998	2020-11-19T14:40:04:977
-53,130001	27,860001	54,740002	2020-11-19T14:40:05:002
-39,830002	29,960001	58,170002	2020-11-19T14:40:05:017
-26,180000	30,380001	59,920002	2020-11-19T14:40:05:041
-16,730000	30,450001	59,500000	2020-11-19T14:40:05:057
-11,900000	29,330000	55,790001	2020-11-19T14:40:05:082
-11,410000	28,490000	50,540001	2020-11-19T14:40:05:097
-11,410000	28,280001	45,150002	2020-11-19T14:40:05:121
-8,120000	28,910000	39,060001	2020-11-19T14:40:05:139
-3,500000	29,889999	31,570000	2020-11-19T14:40:05:161
2,310000	28,420000	23,379999	2020-11-19T14:40:05:178
8,330000	23,520000	14,700000	2020-11-19T14:40:05:201
11,200000	19,740000	5,950000	2020-11-19T14:40:05:218
10,990000	17,990000	-2,800000	2020-11-19T14:40:05:242
11,130000	14,770000	-11,690000	2020-11-19T14:40:05:258
15,820000	10,780000	-17,780001	2020-11-19T14:40:05:282
27,299999	3,080000	-19,740000	2020-11-19T14:40:05:298
39,830002	-12,250000	-22,960001	2020-11-19T14:40:05:322
42,420002	-26,880001	-32,060001	2020-11-19T14:40:05:338
27,370001	-34,580002	-48,580002	2020-11-19T14:40:05:361
8,890000	-39,759998	-67,199997	2020-11-19T14:40:05:379
-8,050000	-43,119999	-84,629997	2020-11-19T14:40:05:402
-27,160000	-44,099998	-98,489998	2020-11-19T14:40:05:418
-44,170002	-43,330002	-110,599998	2020-11-19T14:40:05:441
-54,459999	-40,880001	-119,699997	2020-11-19T14:40:05:458
-59,430000	-35,840000	-126,000000	2020-11-19T14:40:05:482
-54,459999	-32,549999	-129,360001	2020-11-19T14:40:05:498
-42,490002	-29,889999	-129,360001	2020-11-19T14:40:05:521
-24,219999	-28,630001	-123,970001	2020-11-19T14:40:05:538
-12,670000	-32,689999	-119,980003	2020-11-19T14:40:05:562
-10,710000	-38,849998	-109,970001	2020-11-19T14:40:05:578
-5,320000	-42,209999	-93,379997	2020-11-19T14:40:05:601
4,970000	-45,220001	-73,709999	2020-11-19T14:40:05:619
13,650000	-51,029999	-56,980000	2020-11-19T14:40:05:642
17,219999	-62,790001	-45,500000	2020-11-19T14:40:05:658
10,640000	-73,220001	-37,170002	2020-11-19T14:40:05:682
-4,200000	-77,769997	-29,889999	2020-11-19T14:40:05:698
-16,870001	-81,830002	-23,870001	2020-11-19T14:40:05:722
-21,700001	-84,840004	-19,389999	2020-11-19T14:40:05:738
-26,180000	-86,029999	-19,389999	2020-11-19T14:40:05:761
-38,220001	-86,379997	-22,680000	2020-11-19T14:40:05:779
-47,599998	-83,720001	-25,059999	2020-11-19T14:40:05:802
-52,779999	-76,440002	-23,660000	2020-11-19T14:40:05:818
-52,849998	-66,779999	-15,610000	2020-11-19T14:40:05:842
-47,180000	-61,110001	0,070000	2020-11-19T14:40:05:859
-43,119999	-55,580002	7,700000	2020-11-19T14:40:05:882
-37,799999	-45,360001	15,610000	2020-11-19T14:40:05:898
-39,060001	-32,549999	28,630001	2020-11-19T14:40:05:922
-47,529999	-24,570000	44,520000	2020-11-19T14:40:05:938
-61,250000	-21,840000	61,670002	2020-11-19T14:40:05:963
-75,949997	-21,070000	78,680000	2020-11-19T14:40:05:979
-89,110001	-20,090000	88,970001	2020-11-19T14:40:06:001
-91,840004	-18,620001	90,790001	2020-11-19T14:40:06:018
-83,300003	-17,710001	85,400002	2020-11-19T14:40:06:043
-74,760002	-14,980000	78,610001	2020-11-19T14:40:06:058
-77,980003	-12,180000	72,239998	2020-11-19T14:40:06:082
-82,949997	-10,080000	68,180000	2020-11-19T14:40:06:100
-80,919998	-9,100000	66,570000	2020-11-19T14:40:06:123
-73,220001	-7,980000	65,309998	2020-11-19T14:40:06:140
-64,260002	-5,600000	59,990002	2020-11-19T14:40:06:162
-55,790001	-1,540000	55,230000	2020-11-19T14:40:06:179
-45,570000	2,660000	51,240002	2020-11-19T14:40:06:203
-33,880001	2,660000	47,810001	2020-11-19T14:40:06:219
-22,120001	-0,350000	44,380001	2020-11-19T14:40:06:242
-13,090000	-1,890000	39,900002	2020-11-19T14:40:06:259
-10,780000	-2,800000	36,610001	2020-11-19T14:40:06:283
-14,140000	-3,780000	33,880001	2020-11-19T14:40:06:299
-19,250000	-6,370000	30,660000	2020-11-19T14:40:06:322
-25,760000	-10,850000	25,059999	2020-11-19T14:40:06:340
-36,470001	-15,750000	18,900000	2020-11-19T14:40:06:362
-51,170002	-18,129999	15,260000	2020-11-19T14:40:06:379
-69,019997	-17,780001	13,860000	2020-11-19T14:40:06:402
-53,970001	-16,730000	15,400000	2020-11-19T14:40:06:419
-19,180000	-16,870001	9,940000	2020-11-19T14:40:06:442
26,530001	-3,710000	-0,280000	2020-11-19T14:40:06:459
49,139999	11,480000	-5,110000	2020-11-19T14:40:06:483
39,970001	20,860001	-7,000000	2020-11-19T14:40:06:499
17,219999	21,559999	-7,420000	2020-11-19T14:40:06:523
-11,130000	17,850000	-7,280000	2020-11-19T14:40:06:539
-45,150002	9,730000	-6,860000	2020-11-19T14:40:06:563
-67,900002	4,830000	-8,190000	2020-11-19T14:40:06:580
-74,760002	-0,980000	-9,240000	2020-11-19T14:40:06:603
-97,720001	-10,220000	-11,760000	2020-11-19T14:40:06:619
-141,820007	-16,100000	-13,300000	2020-11-19T14:40:06:642
-180,180008	-27,790001	-13,580000	2020-11-19T14:40:06:659
-202,020004	-41,720001	-18,760000	2020-11-19T14:40:06:684
-200,690002	-51,799999	-29,680000	2020-11-19T14:40:06:699
-180,320007	-53,200001	-40,250000	2020-11-19T14:40:06:722
-150,360001	-51,590000	-48,580002	2020-11-19T14:40:06:739
-104,160004	-49,630001	-59,920002	2020-11-19T14:40:06:763
-11,550000	-42,560001	-65,309998	2020-11-19T14:40:06:779
113,540001	-35,279999	-73,150002	2020-11-19T14:40:06:802
213,779999	-24,639999	-84,139999	2020-11-19T14:40:06:820
238,979996	-15,610000	-90,650002	2020-11-19T14:40:06:843
193,899994	-15,610000	-86,239998	2020-11-19T14:40:06:859
111,580002	-24,430000	-82,459999	2020-11-19T14:40:06:883
61,670002	-34,160000	-74,620003	2020-11-19T14:40:06:899
34,090000	-37,939999	-72,660004	2020-11-19T14:40:06:923
28,770000	-42,770000	-66,500000	2020-11-19T14:40:06:939
37,450001	-42,070000	-58,450001	2020-11-19T14:40:06:962
29,120001	-43,540001	-50,400002	2020-11-19T14:40:06:979
-6,090000	-50,259998	-32,200001	2020-11-19T14:40:07:003
-51,310001	-49,000000	-26,110001	2020-11-19T14:40:07:019
-74,199997	-50,680000	-37,869999	2020-11-19T14:40:07:043
-57,820000	-50,400002	-40,740002	2020-11-19T14:40:07:060
-37,660000	-38,709999	-29,049999	2020-11-19T14:40:07:082
-49,910000	-38,779999	-22,120001	2020-11-19T14:40:07:101
-58,450001	-30,870001	-13,090000	2020-11-19T14:40:07:123
-60,970001	-24,500000	-6,370000	2020-11-19T14:40:07:139
-54,250000	-21,559999	-3,990000	2020-11-19T14:40:07:164
-44,240002	-17,710001	-11,340000	2020-11-19T14:40:07:180
-24,710001	-6,580000	-17,150000	2020-11-19T14:40:07:203
-19,460001	3,710000	-20,790001	2020-11-19T14:40:07:219
-25,620001	8,750000	-21,139999	2020-11-19T14:40:07:244
-38,779999	7,770000	-18,129999	2020-11-19T14:40:07:259
-42,139999	4,480000	-15,330000	2020-11-19T14:40:07:283
-32,480000	1,960000	-15,190001	2020-11-19T14:40:07:301
-16,870001	0,350000	-14,490000	2020-11-19T14:40:07:324
13,230000	5,390000	-13,090000	2020-11-19T14:40:07:340
26,670000	8,680000	-17,570000	2020-11-19T14:40:07:363
21,070000	7,000000	-20,930000	2020-11-19T14:40:07:380
14,140000	6,370000	-23,309999	2020-11-19T14:40:07:404
3,570000	3,360000	-23,660000	2020-11-19T14:40:07:420
-10,360000	0,560000	-22,190001	2020-11-19T14:40:07:443
-20,090000	-4,060000	-20,719999	2020-11-19T14:40:07:460
-14,000000	-5,320000	-18,620001	2020-11-19T14:40:07:485
-8,050000	-6,300000	-17,639999	2020-11-19T14:40:07:500
-7,280000	-7,770000	-16,870001	2020-11-19T14:40:07:523
-6,720000	-8,960000	-16,379999	2020-11-19T14:40:07:541
-10,430000	-10,360000	-15,960000	2020-11-19T14:40:07:564
-10,080000	-11,620000	-15,820000	2020-11-19T14:40:07:580
-4,550000	-10,150000	-18,830000	2020-11-19T14:40:07:603
2,800000	-6,160000	-23,170000	2020-11-19T14:40:07:620
6,510000	-3,010000	-24,150000	2020-11-19T14:40:07:644
-2,520000	-0,700000	-22,190001	2020-11-19T14:40:07:660
-6,230000	2,030000	-21,490000	2020-11-19T14:40:07:684
6,300000	3,920000	-25,129999	2020-11-19T14:40:07:700
13,370000	2,940000	-27,790001	2020-11-19T14:40:07:724
11,480000	4,130000	-29,400000	2020-11-19T14:40:07:740
15,400000	6,160000	-31,360001	2020-11-19T14:40:07:764
10,500000	5,530000	-30,170000	2020-11-19T14:40:07:781
3,360000	4,830000	-24,080000	2020-11-19T14:40:07:804
0,070000	4,130000	-19,389999	2020-11-19T14:40:07:821
2,940000	2,800000	-14,910000	2020-11-19T14:40:07:844
21,980000	1,820000	-13,720000	2020-11-19T14:40:07:860
19,530001	-0,140000	-16,590000	2020-11-19T14:40:07:886
14,980000	-1,540000	-13,650000	2020-11-19T14:40:07:900
9,170000	-1,400000	-16,100000	2020-11-19T14:40:07:923
12,670000	-3,500000	-13,860000	2020-11-19T14:40:07:940
-2,800000	-5,600000	-7,350000	2020-11-19T14:40:07:965
-8,120000	-3,290000	-6,300000	2020-11-19T14:40:07:981
10,430000	0,910000	-13,020000	2020-11-19T14:40:08:004
21,910000	5,180000	-16,379999	2020-11-19T14:40:08:021
10,990000	5,950000	-16,100000	2020-11-19T14:40:08:045
10,990000	6,720000	-15,400000	2020-11-19T14:40:08:060
1,120000	6,440000	-13,650000	2020-11-19T14:40:08:084
-9,240000	6,510000	-10,150000	2020-11-19T14:40:08:100
-18,549999	7,420000	-4,410000	2020-11-19T14:40:08:125
-14,420000	11,200000	-1,260000	2020-11-19T14:40:08:141
0,070000	13,720000	0,700000	2020-11-19T14:40:08:164
1,190000	15,960000	8,610000	2020-11-19T14:40:08:181
-6,440000	19,670000	20,860001	2020-11-19T14:40:08:205
-1,960000	23,520000	26,250000	2020-11-19T14:40:08:220
-2,520000	25,690001	30,170000	2020-11-19T14:40:08:244
-16,170000	26,110001	38,849998	2020-11-19T14:40:08:261
-34,860001	27,510000	52,430000	2020-11-19T14:40:08:285
-33,180000	29,889999	67,129997	2020-11-19T14:40:08:301
-15,050000	36,189999	79,519997	2020-11-19T14:40:08:324
19,740000	43,400002	92,470001	2020-11-19T14:40:08:341
47,389999	53,549999	106,889999	2020-11-19T14:40:08:365
60,689999	61,389999	125,300003	2020-11-19T14:40:08:381
63,630001	72,940002	148,119995	2020-11-19T14:40:08:404
40,599998	93,099998	159,320007	2020-11-19T14:40:08:421
-3,710000	103,809998	154,210007	2020-11-19T14:40:08:445
33,040001	102,410004	113,330002	2020-11-19T14:40:08:461
127,750000	122,220001	123,760002	2020-11-19T14:40:08:485
164,990005	141,190002	138,460007	2020-11-19T14:40:08:502
143,570007	146,509995	136,080002	2020-11-19T14:40:08:525
73,220001	134,050003	148,960007	2020-11-19T14:40:08:541
-34,930000	94,150002	138,460007	2020-11-19T14:40:08:564
-73,010002	77,000000	121,309998	2020-11-19T14:40:08:581
-9,660000	79,870003	120,050003	2020-11-19T14:40:08:604
43,959999	80,150002	117,389999	2020-11-19T14:40:08:621
65,590004	66,430000	108,360001	2020-11-19T14:40:08:645
83,860001	50,540001	100,169998	2020-11-19T14:40:08:661
91,699997	39,200001	89,320000	2020-11-19T14:40:08:687
83,370003	31,570000	75,809998	2020-11-19T14:40:08:701
73,779999	24,850000	63,980000	2020-11-19T14:40:08:725
63,560001	13,580000	54,040001	2020-11-19T14:40:08:742
48,160000	-0,700000	44,170002	2020-11-19T14:40:08:765
31,639999	-11,970000	38,220001	2020-11-19T14:40:08:782
19,600000	-20,160000	32,270000	2020-11-19T14:40:08:805
21,139999	-27,299999	25,059999	2020-11-19T14:40:08:821
35,070000	-33,320000	16,660000	2020-11-19T14:40:08:845
50,470001	-38,430000	8,330000	2020-11-19T14:40:08:861
62,369999	-43,959999	0,070000	2020-11-19T14:40:08:885
72,099998	-49,349998	-7,280000	2020-11-19T14:40:08:901
80,919998	-52,430000	-11,410000	2020-11-19T14:40:08:925
86,169998	-54,670002	-11,620000	2020-11-19T14:40:08:946
84,769997	-57,049999	-7,910000	2020-11-19T14:40:08:964
75,669998	-57,820000	-0,490000	2020-11-19T14:40:08:983
59,010002	-58,310001	10,150000	2020-11-19T14:40:09:005
35,910000	-59,430000	21,910000	2020-11-19T14:40:09:021
8,820000	-59,430000	32,410000	2020-11-19T14:40:09:045
-17,430000	-57,119999	39,689999	2020-11-19T14:40:09:061
-48,439999	-45,150002	44,869999	2020-11-19T14:40:09:086
-53,270000	-33,670002	46,130001	2020-11-19T14:40:09:102
-42,139999	-27,650000	41,020000	2020-11-19T14:40:09:125
-20,230000	-23,870001	30,240000	2020-11-19T14:40:09:141
3,290000	-16,100000	21,070000	2020-11-19T14:40:09:166
19,320000	-4,900000	11,270000	2020-11-19T14:40:09:182
31,360001	3,780000	-0,140000	2020-11-19T14:40:09:205
41,439999	7,350000	-8,820000	2020-11-19T14:40:09:222
42,840000	10,080000	-11,900000	2020-11-19T14:40:09:245
34,020000	13,160000	-15,120000	2020-11-19T14:40:09:262
26,320000	15,540000	-19,389999	2020-11-19T14:40:09:285
25,270000	18,690001	-23,379999	2020-11-19T14:40:09:302
26,740000	21,070000	-25,690001	2020-11-19T14:40:09:326
24,780001	24,990000	-27,370001	2020-11-19T14:40:09:341
26,460001	29,049999	-26,460001	2020-11-19T14:40:09:365
31,430000	33,320000	-23,520000	2020-11-19T14:40:09:382
34,580002	35,630001	-20,020000	2020-11-19T14:40:09:406
37,029999	35,840000	-15,960000	2020-11-19T14:40:09:422
41,299999	36,259998	-10,780000	2020-11-19T14:40:09:445
44,240002	37,520000	-7,070000	2020-11-19T14:40:09:462
41,720001	37,450001	-2,940000	2020-11-19T14:40:09:485
28,490000	35,490002	-0,700000	2020-11-19T14:40:09:502
8,890000	33,599998	2,590000	2020-11-19T14:40:09:525
-10,780000	31,360001	5,110000	2020-11-19T14:40:09:542
-18,480000	29,540001	5,390000	2020-11-19T14:40:09:566
-15,050000	28,280001	2,660000	2020-11-19T14:40:09:582
-5,810000	27,370001	-1,610000	2020-11-19T14:40:09:605
3,220000	26,320000	-5,670000	2020-11-19T14:40:09:622
7,070000	25,270000	-9,660000	2020-11-19T14:40:09:646
7,140000	24,570000	-12,950000	2020-11-19T14:40:09:662
7,700000	22,960001	-15,610000	2020-11-19T14:40:09:686
7,070000	20,440001	-17,500000	2020-11-19T14:40:09:704
5,740000	19,040001	-18,200001	2020-11-19T14:40:09:728
5,110000	18,270000	-18,410000	2020-11-19T14:40:09:742
6,440000	17,570000	-17,920000	2020-11-19T14:40:09:766
11,270000	15,960000	-16,520000	2020-11-19T14:40:09:783
17,360001	12,880000	-15,190001	2020-11-19T14:40:09:807
24,639999	9,730000	-10,780000	2020-11-19T14:40:09:822
51,240002	5,600000	-1,260000	2020-11-19T14:40:09:846
81,340004	4,200000	1,400000	2020-11-19T14:40:09:863
100,379997	0,070000	-1,400000	2020-11-19T14:40:09:887
129,360001	-8,540000	-4,550000	2020-11-19T14:40:09:902
189,979996	-4,690000	-8,680000	2020-11-19T14:40:09:926
281,750000	10,290000	-11,270000	2020-11-19T14:40:09:944
353,850006	22,400000	-6,160000	2020-11-19T14:40:09:967
305,899994	15,820000	-0,770000	2020-11-19T14:40:09:983
190,539993	-0,910000	-4,690000	2020-11-19T14:40:10:006
98,070000	-20,790001	-14,000000	2020-11-19T14:40:10:023
63,209999	-31,570000	-15,540000	2020-11-19T14:40:10:047
19,460001	-37,660000	-29,750000	2020-11-19T14:40:10:062
-34,369999	-42,139999	-43,259998	2020-11-19T14:40:10:086
-59,150002	-40,040001	-59,570000	2020-11-19T14:40:10:103
-55,369999	-33,180000	-72,870003	2020-11-19T14:40:10:127
-37,170002	-26,320000	-78,820000	2020-11-19T14:40:10:143
2,100000	-21,980000	-79,590004	2020-11-19T14:40:10:166
34,860001	-17,780001	-75,669998	2020-11-19T14:40:10:183
64,750000	-13,510000	-69,720001	2020-11-19T14:40:10:207
85,470001	-10,080000	-62,790001	2020-11-19T14:40:10:223
95,410004	-10,570000	-55,439999	2020-11-19T14:40:10:246
93,029999	-12,460000	-49,490002	2020-11-19T14:40:10:262
77,840004	-12,180000	-45,009998	2020-11-19T14:40:10:287
56,490002	-8,680000	-39,759998	2020-11-19T14:40:10:302
33,320000	-4,060000	-32,830002	2020-11-19T14:40:10:324
11,270000	-0,980000	-27,930000	2020-11-19T14:40:10:342
-1,960000	2,380000	-20,650000	2020-11-19T14:40:10:367
-7,490000	7,140000	-13,930000	2020-11-19T14:40:10:384
-7,280000	12,880000	-6,090000	2020-11-19T14:40:10:405
-2,730000	17,010000	3,010000	2020-11-19T14:40:10:424
-0,280000	20,299999	14,000000	2020-11-19T14:40:10:447
-9,660000	24,500000	28,420000	2020-11-19T14:40:10:464
-26,460001	30,590000	45,849998	2020-11-19T14:40:10:487
-43,820000	34,790001	65,379997	2020-11-19T14:40:10:503
-63,139999	35,840000	82,879997	2020-11-19T14:40:10:527
-80,570000	37,660000	95,830002	2020-11-19T14:40:10:544
-81,690002	40,040001	103,389999	2020-11-19T14:40:10:567
-66,080002	43,470001	101,989998	2020-11-19T14:40:10:584
-40,250000	47,670002	95,760002	2020-11-19T14:40:10:608
-6,370000	47,670002	84,209999	2020-11-19T14:40:10:623
25,200001	46,060001	69,930000	2020-11-19T14:40:10:647
11,270000	32,340000	48,230000	2020-11-19T14:40:10:664
-70,070000	22,120001	47,180000	2020-11-19T14:40:10:687
-166,110001	6,650000	21,910000	2020-11-19T14:40:10:703
-162,960007	8,750000	16,730000	2020-11-19T14:40:10:727
-103,949997	14,840000	18,969999	2020-11-19T14:40:10:743
-41,299999	26,670000	15,820000	2020-11-19T14:40:10:767
-12,530000	40,459999	3,990000	2020-11-19T14:40:10:783
11,550000	52,009998	-4,830000	2020-11-19T14:40:10:807
43,400002	56,630001	-12,600000	2020-11-19T14:40:10:823
76,720001	60,689999	-16,100000	2020-11-19T14:40:10:848
100,239998	60,900002	-17,290001	2020-11-19T14:40:10:863
103,669998	60,900002	-14,490000	2020-11-19T14:40:10:887
88,410004	58,939999	-10,990000	2020-11-19T14:40:10:905
66,709999	58,799999	-6,090000	2020-11-19T14:40:10:927
54,740002	55,439999	-0,280000	2020-11-19T14:40:10:943
50,820000	46,830002	0,910000	2020-11-19T14:40:10:967
52,570000	39,549999	-3,430000	2020-11-19T14:40:10:984
61,950001	35,420002	-12,180000	2020-11-19T14:40:11:008
76,510002	31,360001	-20,230000	2020-11-19T14:40:11:023
91,419998	25,760000	-27,790001	2020-11-19T14:40:11:047
112,349998	22,960001	-22,190001	2020-11-19T14:40:11:064
138,600006	22,540001	-14,910000	2020-11-19T14:40:11:088
146,089996	19,460001	-7,840000	2020-11-19T14:40:11:103
138,740005	15,610000	-1,400000	2020-11-19T14:40:11:127
122,360001	14,000000	6,580000	2020-11-19T14:40:11:145
98,629997	12,110000	7,490000	2020-11-19T14:40:11:168
92,120003	18,410000	11,690000	2020-11-19T14:40:11:184
110,739998	27,930000	24,500000	2020-11-19T14:40:11:208
153,300003	22,260000	50,610001	2020-11-19T14:40:11:223
161,210007	-10,430000	66,639999	2020-11-19T14:40:11:248
143,639999	-15,680000	64,050003	2020-11-19T14:40:11:263
136,009995	-13,160000	49,910000	2020-11-19T14:40:11:287
147,210007	-8,330000	35,349998	2020-11-19T14:40:11:303
156,800003	0,490000	28,280001	2020-11-19T14:40:11:328
157,360001	4,830000	28,490000	2020-11-19T14:40:11:343
148,119995	2,450000	33,320000	2020-11-19T14:40:11:367
126,699997	-5,110000	39,619999	2020-11-19T14:40:11:385
112,629997	-13,860000	44,170002	2020-11-19T14:40:11:408
116,270004	-20,230000	42,770000	2020-11-19T14:40:11:424
141,190002	-19,740000	27,580000	2020-11-19T14:40:11:447
182,770004	-8,750000	12,460000	2020-11-19T14:40:11:464
209,160004	-0,980000	6,860000	2020-11-19T14:40:11:489
207,410004	-2,800000	1,330000	2020-11-19T14:40:11:503
200,270004	-6,930000	-2,520000	2020-11-19T14:40:11:527
197,960007	-8,120000	-1,190000	2020-11-19T14:40:11:543
197,190002	-8,260000	-2,030000	2020-11-19T14:40:11:568
204,399994	-6,720000	-4,690000	2020-11-19T14:40:11:585
216,860001	-5,110000	-6,860000	2020-11-19T14:40:11:607
226,309998	-5,880000	-8,890000	2020-11-19T14:40:11:625
227,639999	-8,190000	-8,400000	2020-11-19T14:40:11:648
227,919998	-12,670000	-4,970000	2020-11-19T14:40:11:664
226,100006	-12,600000	-6,440000	2020-11-19T14:40:11:687
205,380005	-11,550000	-5,670000	2020-11-19T14:40:11:704
188,789993	-11,550000	-1,190000	2020-11-19T14:40:11:728
176,610001	-11,340000	1,400000	2020-11-19T14:40:11:745
167,300003	-10,640000	5,320000	2020-11-19T14:40:11:767
167,720001	-9,100000	9,940000	2020-11-19T14:40:11:785
177,029999	-7,350000	13,370000	2020-11-19T14:40:11:808
190,050003	-4,690000	16,870001	2020-11-19T14:40:11:825
199,009995	-6,720000	21,420000	2020-11-19T14:40:11:848
206,009995	-8,540000	23,170000	2020-11-19T14:40:11:866
219,449997	-7,910000	24,290001	2020-11-19T14:40:11:889
232,750000	-3,640000	25,620001	2020-11-19T14:40:11:905
245,979996	-12,950000	22,260000	2020-11-19T14:40:11:928
248,290009	-35,840000	3,290000	2020-11-19T14:40:11:945
228,759995	-43,750000	-19,530001	2020-11-19T14:40:11:969
185,289993	-48,299999	-42,420002	2020-11-19T14:40:11:985
123,690002	-56,910000	-59,150002	2020-11-19T14:40:12:008
53,200001	-59,709999	-74,059998	2020-11-19T14:40:12:025
-7,000000	-66,010002	-82,739998	2020-11-19T14:40:12:049
-51,380001	-75,320000	-84,279999	2020-11-19T14:40:12:064
-92,330002	-80,080002	-86,800003	2020-11-19T14:40:12:099
-116,620003	-76,720001	-94,989998	2020-11-19T14:40:12:106
-111,090004	-69,930000	-100,730003	2020-11-19T14:40:12:128
-88,620003	-60,480000	-104,580002	2020-11-19T14:40:12:145
-63,000000	-49,279999	-104,300003	2020-11-19T14:40:12:168
-33,040001	-35,349998	-101,010002	2020-11-19T14:40:12:185
-3,430000	-22,190001	-86,519997	2020-11-19T14:40:12:209
11,830000	-7,910000	-73,849998	2020-11-19T14:40:12:225
18,549999	4,480000	-60,060001	2020-11-19T14:40:12:248
22,889999	14,630000	-46,480000	2020-11-19T14:40:12:265
28,559999	22,540001	-30,030001	2020-11-19T14:40:12:289
28,770000	33,250000	-9,170000	2020-11-19T14:40:12:305
25,200001	39,410000	1,050000	2020-11-19T14:40:12:328
23,590000	43,119999	10,640000	2020-11-19T14:40:12:346
17,290001	46,480000	19,809999	2020-11-19T14:40:12:369
3,920000	50,049999	29,330000	2020-11-19T14:40:12:385
-15,120000	49,209999	42,420002	2020-11-19T14:40:12:408
-49,490002	41,090000	48,650002	2020-11-19T14:40:12:425
-93,099998	39,689999	53,410000	2020-11-19T14:40:12:449
-131,740005	30,660000	64,610001	2020-11-19T14:40:12:465
-132,580002	32,480000	72,660004	2020-11-19T14:40:12:489
-116,970001	32,970001	74,269997	2020-11-19T14:40:12:505
-94,010002	33,950001	70,419998	2020-11-19T14:40:12:529
-62,230000	37,520000	64,889999	2020-11-19T14:40:12:546
-36,330002	37,799999	50,119999	2020-11-19T14:40:12:569
-5,320000	36,259998	43,189999	2020-11-19T14:40:12:587
37,730000	34,790001	31,850000	2020-11-19T14:40:12:609
62,790001	31,010000	20,580000	2020-11-19T14:40:12:625
54,810001	26,180000	13,090000	2020-11-19T14:40:12:649
36,680000	18,270000	6,440000	2020-11-19T14:40:12:665
27,230000	4,690000	-2,800000	2020-11-19T14:40:12:689
25,549999	-4,970000	-15,680000	2020-11-19T14:40:12:705
28,630001	-7,840000	-28,210001	2020-11-19T14:40:12:729
47,110001	-9,450000	-33,389999	2020-11-19T14:40:12:746
95,900002	-23,309999	-25,900000	2020-11-19T14:40:12:770
206,850006	-16,870001	-22,889999	2020-11-19T14:40:12:786
158,970001	-39,900002	-23,870001	2020-11-19T14:40:12:808
-16,940001	-64,260002	-38,430000	2020-11-19T14:40:12:826
-124,949997	-72,870003	-37,170002	2020-11-19T14:40:12:849
-133,979996	-74,900002	-55,930000	2020-11-19T14:40:12:866
-129,779999	-72,239998	-71,120003	2020-11-19T14:40:12:889
-115,500000	-63,770000	-85,120003	2020-11-19T14:40:12:905
-77,769997	-55,369999	-102,690002	2020-11-19T14:40:12:929
-24,010000	-51,520000	-115,220001	2020-11-19T14:40:12:945
18,900000	-47,880001	-118,860001	2020-11-19T14:40:12:968
38,430000	-44,660000	-114,029999	2020-11-19T14:40:12:986
35,630001	-40,250000	-104,300003	2020-11-19T14:40:13:009
29,190001	-33,250000	-95,830002	2020-11-19T14:40:13:025
27,020000	-28,350000	-88,410004	2020-11-19T14:40:13:048
18,620001	-28,139999	-79,940002	2020-11-19T14:40:13:067
1,400000	-26,950001	-71,680000	2020-11-19T14:40:13:089
-15,680000	-23,940001	-64,190002	2020-11-19T14:40:13:107
-22,260000	-18,690001	-55,369999	2020-11-19T14:40:13:128
-18,200001	-12,880000	-46,549999	2020-11-19T14:40:13:146
-6,090000	-7,420000	-38,080002	2020-11-19T14:40:13:169
8,610000	-3,080000	-28,840000	2020-11-19T14:40:13:186
19,180000	0,210000	-17,920000	2020-11-19T14:40:13:209
22,260000	3,850000	-4,410000	2020-11-19T14:40:13:226
20,650000	9,730000	14,490000	2020-11-19T14:40:13:250
15,050000	13,860000	37,029999	2020-11-19T14:40:13:266
8,120000	17,219999	60,689999	2020-11-19T14:40:13:289
3,920000	20,930000	83,090004	2020-11-19T14:40:13:307
5,110000	27,020000	98,840004	2020-11-19T14:40:13:329
15,120000	36,889999	106,260002	2020-11-19T14:40:13:346
31,150000	48,160000	102,690002	2020-11-19T14:40:13:369
63,700001	61,599998	83,790001	2020-11-19T14:40:13:386
82,040001	66,220001	69,580002	2020-11-19T14:40:13:409
83,790001	64,959999	56,630001	2020-11-19T14:40:13:426
70,840004	60,200001	46,900002	2020-11-19T14:40:13:449
49,490002	53,480000	43,470001	2020-11-19T14:40:13:467
21,700001	43,189999	44,660000	2020-11-19T14:40:13:490
-10,430000	32,900002	49,630001	2020-11-19T14:40:13:507
-50,959999	25,760000	57,330002	2020-11-19T14:40:13:528
-97,790001	17,080000	63,700001	2020-11-19T14:40:13:546
-128,940002	13,020000	72,239998	2020-11-19T14:40:13:569
-136,570007	7,420000	78,750000	2020-11-19T14:40:13:587
-127,120003	8,610000	81,690002	2020-11-19T14:40:13:609
-108,150002	15,610000	83,930000	2020-11-19T14:40:13:626
-80,989998	25,549999	83,720001	2020-11-19T14:40:13:650
-45,360001	33,599998	81,830002	2020-11-19T14:40:13:666
-7,840000	39,480000	78,680000	2020-11-19T14:40:13:689
23,660000	44,520000	74,129997	2020-11-19T14:40:13:706
49,279999	46,130001	66,290001	2020-11-19T14:40:13:730
68,320000	44,730000	55,510002	2020-11-19T14:40:13:746
76,370003	42,420002	42,560001	2020-11-19T14:40:13:769
77,070000	41,230000	29,049999	2020-11-19T14:40:13:788
83,160004	40,810001	16,379999	2020-11-19T14:40:13:811
86,239998	36,610001	-2,380000	2020-11-19T14:40:13:828
81,199997	29,540001	-13,300000	2020-11-19T14:40:13:849
63,560001	21,000000	-18,900000	2020-11-19T14:40:13:866
39,759998	11,900000	-22,540001	2020-11-19T14:40:13:891
20,440001	4,550000	-22,120001	2020-11-19T14:40:13:906
12,250000	-0,280000	-22,260000	2020-11-19T14:40:13:929
14,000000	-6,440000	-21,000000	2020-11-19T14:40:13:948
21,070000	-15,470000	-21,210001	2020-11-19T14:40:13:970
31,430000	-19,740000	-21,000000	2020-11-19T14:40:13:987
41,720001	-21,980000	-22,610001	2020-11-19T14:40:14:010
53,340000	-26,389999	-27,299999	2020-11-19T14:40:14:030
67,830002	-34,369999	-34,160000	2020-11-19T14:40:14:054
81,340004	-38,430000	-42,209999	2020-11-19T14:40:14:170
94,360001	-38,779999	-47,529999	2020-11-19T14:40:14:171
111,930000	-42,560001	-49,700001	2020-11-19T14:40:14:171
128,169998	-50,330002	-48,650002	2020-11-19T14:40:14:172
136,500000	-60,200001	-45,360001	2020-11-19T14:40:14:173
131,949997	-71,470001	-43,189999	2020-11-19T14:40:14:174
114,520004	-78,820000	-47,810001	2020-11-19T14:40:14:245
93,940002	-77,910004	-61,180000	2020-11-19T14:40:14:250
75,389999	-68,459999	-78,540001	2020-11-19T14:40:14:251
60,200001	-57,330002	-95,340004	2020-11-19T14:40:14:254
52,920002	-46,410000	-108,639999	2020-11-19T14:40:14:312
55,160000	-37,869999	-116,059998	2020-11-19T14:40:14:313
65,660004	-30,380001	-115,639999	2020-11-19T14:40:14:314
84,699997	-22,049999	-108,639999	2020-11-19T14:40:14:350
108,010002	-13,580000	-97,930000	2020-11-19T14:40:14:353
126,139999	-5,530000	-86,870003	2020-11-19T14:40:14:370
133,699997	1,890000	-74,760002	2020-11-19T14:40:14:386
133,490005	7,140000	-63,139999	2020-11-19T14:40:14:408
128,309998	11,620000	-53,130001	2020-11-19T14:40:14:426
122,779999	17,990000	-38,920002	2020-11-19T14:40:14:451
120,470001	26,670000	-33,599998	2020-11-19T14:40:14:467
112,349998	30,799999	-30,450001	2020-11-19T14:40:14:490
101,570000	32,549999	-28,910000	2020-11-19T14:40:14:508
90,790001	31,780001	-29,049999	2020-11-19T14:40:14:531
80,080002	30,940001	-29,750000	2020-11-19T14:40:14:547
68,250000	32,340000	-29,820000	2020-11-19T14:40:14:570
54,529999	34,930000	-31,219999	2020-11-19T14:40:14:587
40,599998	37,520000	-34,299999	2020-11-19T14:40:14:611
29,889999	40,040001	-36,400002	2020-11-19T14:40:14:630
24,850000	41,790001	-39,060001	2020-11-19T14:40:14:654
27,440001	45,009998	-42,490002	2020-11-19T14:40:14:668
31,780001	47,529999	-45,290001	2020-11-19T14:40:14:692
38,849998	47,950001	-48,299999	2020-11-19T14:40:14:707
45,570000	49,279999	-48,930000	2020-11-19T14:40:14:732
47,110001	45,920002	-46,900002	2020-11-19T14:40:14:748
42,209999	39,130001	-42,000000	2020-11-19T14:40:14:771
31,500000	36,680000	-34,090000	2020-11-19T14:40:14:787
19,389999	36,750000	-25,760000	2020-11-19T14:40:14:810
14,560000	39,549999	-17,780001	2020-11-19T14:40:14:828
21,350000	44,029999	-6,090000	2020-11-19T14:40:14:851
32,060001	43,610001	6,650000	2020-11-19T14:40:14:867
35,770000	44,450001	18,900000	2020-11-19T14:40:14:890
33,880001	45,639999	30,730000	2020-11-19T14:40:14:907
37,660000	40,320000	44,099998	2020-11-19T14:40:14:930
67,059998	34,930000	51,799999	2020-11-19T14:40:14:947
100,169998	40,880001	54,599998	2020-11-19T14:40:14:969
113,680000	46,410000	59,430000	2020-11-19T14:40:14:988
89,320000	52,709999	60,340000	2020-11-19T14:40:15:011
54,810001	59,500000	61,320000	2020-11-19T14:40:15:027
30,309999	63,770000	59,920002	2020-11-19T14:40:15:050
6,370000	57,680000	58,380001	2020-11-19T14:40:15:067
-52,150002	51,029999	34,090000	2020-11-19T14:40:15:092
-112,139999	42,980000	37,380001	2020-11-19T14:40:15:107
-60,410000	48,299999	29,889999	2020-11-19T14:40:15:130
7,630000	55,369999	31,639999	2020-11-19T14:40:15:147
83,370003	70,769997	26,670000	2020-11-19T14:40:15:172
145,740005	75,389999	17,219999	2020-11-19T14:40:15:188
161,210007	74,340004	11,690000	2020-11-19T14:40:15:210
163,589996	70,209999	8,260000	2020-11-19T14:40:15:229
161,000000	70,419998	12,670000	2020-11-19T14:40:15:250
171,500000	68,250000	17,219999	2020-11-19T14:40:15:267
210,770004	54,250000	15,120000	2020-11-19T14:40:15:290
252,350006	47,320000	8,120000	2020-11-19T14:40:15:307
266,140015	45,430000	3,360000	2020-11-19T14:40:15:330
270,619995	44,170002	-5,460000	2020-11-19T14:40:15:347
267,329987	41,020000	-3,080000	2020-11-19T14:40:15:370
236,110001	21,420000	4,270000	2020-11-19T14:40:15:389
198,240005	-1,750000	3,850000	2020-11-19T14:40:15:411
178,919998	-25,900000	3,220000	2020-11-19T14:40:15:427
159,809998	-42,980000	-0,070000	2020-11-19T14:40:15:451
145,949997	-52,639999	-8,680000	2020-11-19T14:40:15:469
150,639999	-64,400002	-25,270000	2020-11-19T14:40:15:491
149,800003	-68,879997	-45,430000	2020-11-19T14:40:15:508
102,129997	-69,650002	-76,790001	2020-11-19T14:40:15:530
67,900002	-67,480003	-99,540001	2020-11-19T14:40:15:547
49,630001	-62,860001	-119,070000	2020-11-19T14:40:15:571
41,020000	-58,380001	-134,399994	2020-11-19T14:40:15:588
37,799999	-52,990002	-144,550003	2020-11-19T14:40:15:611
43,470001	-46,900002	-148,190002	2020-11-19T14:40:15:628
51,730000	-41,790001	-146,229996	2020-11-19T14:40:15:651
57,049999	-39,060001	-140,770004	2020-11-19T14:40:15:667
61,740002	-37,450001	-132,300003	2020-11-19T14:40:15:691
62,790001	-36,820000	-120,889999	2020-11-19T14:40:15:709
58,660000	-35,349998	-107,800003	2020-11-19T14:40:15:731
49,910000	-31,430000	-92,680000	2020-11-19T14:40:15:748
43,889999	-27,930000	-78,959999	2020-11-19T14:40:15:771
45,920002	-26,670000	-66,010002	2020-11-19T14:40:15:788
44,590000	-28,630001	-55,930000	2020-11-19T14:40:15:811
35,279999	-31,710001	-50,889999	2020-11-19T14:40:15:828
19,879999	-31,780001	-52,639999	2020-11-19T14:40:15:851
-0,980000	-29,049999	-58,590000	2020-11-19T14:40:15:868
-14,770000	-23,170000	-62,790001	2020-11-19T14:40:15:892
-16,170000	-20,719999	-65,309998	2020-11-19T14:40:15:908
-12,950000	-19,460001	-66,919998	2020-11-19T14:40:15:931
-9,380000	-18,410000	-67,690002	2020-11-19T14:40:15:949
0,280000	-14,840000	-66,989998	2020-11-19T14:40:15:972
16,100000	-10,150000	-66,430000	2020-11-19T14:40:15:989
31,430000	-5,530000	-67,199997	2020-11-19T14:40:16:011
39,830002	0,490000	-64,610001	2020-11-19T14:40:16:028
35,910000	4,830000	-56,349998	2020-11-19T14:40:16:052
22,190001	6,370000	-44,380001	2020-11-19T14:40:16:069
8,260000	8,540000	-32,130001	2020-11-19T14:40:16:091
-3,360000	18,620001	-18,969999	2020-11-19T14:40:16:108
-11,130000	33,250000	-3,080000	2020-11-19T14:40:16:132
-13,300000	44,450001	10,990000	2020-11-19T14:40:16:148
-8,750000	51,590000	22,260000	2020-11-19T14:40:16:170
7,840000	53,689999	28,700001	2020-11-19T14:40:16:189
35,910000	52,709999	26,950001	2020-11-19T14:40:16:213
65,309998	51,310001	22,680000	2020-11-19T14:40:16:228
70,489998	50,959999	17,639999	2020-11-19T14:40:16:251
50,470001	50,889999	16,520000	2020-11-19T14:40:16:268
24,219999	48,930000	19,950001	2020-11-19T14:40:16:292
2,380000	43,610001	22,960001	2020-11-19T14:40:16:308
-9,240000	39,130001	27,930000	2020-11-19T14:40:16:331
-13,300000	34,020000	35,560001	2020-11-19T14:40:16:349
-22,820000	29,190001	42,139999	2020-11-19T14:40:16:372
-38,009998	27,650000	49,209999	2020-11-19T14:40:16:389
-52,360001	25,900000	53,619999	2020-11-19T14:40:16:411
-59,990002	23,940001	57,750000	2020-11-19T14:40:16:430
-57,820000	24,990000	62,230000	2020-11-19T14:40:16:452
-50,540001	27,719999	66,360001	2020-11-19T14:40:16:469
-39,970001	30,590000	69,720001	2020-11-19T14:40:16:492
-25,830000	31,150000	73,080002	2020-11-19T14:40:16:508
-13,020000	28,000000	74,480003	2020-11-19T14:40:16:532
-9,100000	25,620001	75,040001	2020-11-19T14:40:16:549
-13,160000	24,570000	78,540001	2020-11-19T14:40:16:572
-22,680000	24,710001	82,599998	2020-11-19T14:40:16:589
-26,880001	27,020000	81,690002	2020-11-19T14:40:16:612
-17,780001	29,120001	78,190002	2020-11-19T14:40:16:629
-4,340000	33,389999	73,430000	2020-11-19T14:40:16:652
8,680000	37,939999	67,830002	2020-11-19T14:40:16:668
22,820000	41,439999	59,010002	2020-11-19T14:40:16:692
35,700001	43,820000	50,680000	2020-11-19T14:40:16:709
43,259998	45,849998	42,349998	2020-11-19T14:40:16:731
44,939999	45,150002	33,459999	2020-11-19T14:40:16:749
39,900002	40,880001	23,590000	2020-11-19T14:40:16:772
26,180000	34,369999	12,880000	2020-11-19T14:40:16:789
7,700000	27,650000	0,490000	2020-11-19T14:40:16:812
-8,890000	25,760000	-13,230000	2020-11-19T14:40:16:829
-17,920000	28,910000	-23,240000	2020-11-19T14:40:16:853
-15,820000	29,469999	-26,320000	2020-11-19T14:40:16:869
-5,810000	25,410000	-22,960001	2020-11-19T14:40:16:892
-2,870000	20,510000	-14,140000	2020-11-19T14:40:16:910
-8,890000	14,840000	-1,680000	2020-11-19T14:40:16:932
-20,510000	8,750000	11,340000	2020-11-19T14:40:16:949
-37,730000	7,910000	18,969999	2020-11-19T14:40:16:972
-61,320000	9,800000	19,320000	2020-11-19T14:40:16:989
-78,260002	10,360000	11,620000	2020-11-19T14:40:17:013
-78,680000	13,860000	4,900000	2020-11-19T14:40:17:029
-71,120003	17,990000	0,490000	2020-11-19T14:40:17:052
-51,450001	19,320000	-0,210000	2020-11-19T14:40:17:084
-19,040001	17,430000	3,640000	2020-11-19T14:40:17:093
16,730000	14,630000	6,720000	2020-11-19T14:40:17:109
42,560001	10,780000	15,190001	2020-11-19T14:40:17:132
36,540001	8,470000	20,160000	2020-11-19T14:40:17:150
12,810000	4,760000	23,379999	2020-11-19T14:40:17:172
-10,150000	-1,400000	29,610001	2020-11-19T14:40:17:190
-17,430000	-6,790000	30,309999	2020-11-19T14:40:17:212
-11,690000	-11,830000	31,290001	2020-11-19T14:40:17:229
-6,930000	-14,840000	30,660000	2020-11-19T14:40:17:253
-11,550000	-16,660000	28,700001	2020-11-19T14:40:17:269
-21,350000	-18,270000	25,270000	2020-11-19T14:40:17:293
-28,840000	-18,690001	21,350000	2020-11-19T14:40:17:310
-28,070000	-16,450001	19,460001	2020-11-19T14:40:17:333
-24,290001	-14,140000	18,830000	2020-11-19T14:40:17:350
-20,510000	-10,360000	18,690001	2020-11-19T14:40:17:372
-15,120000	-9,520000	21,000000	2020-11-19T14:40:17:391
-8,610000	-11,480000	25,059999	2020-11-19T14:40:17:413
-2,730000	-12,250000	28,139999	2020-11-19T14:40:17:430
7,000000	-9,240000	29,889999	2020-11-19T14:40:17:453
18,200001	-6,440000	24,639999	2020-11-19T14:40:17:470
32,830002	-3,080000	19,250000	2020-11-19T14:40:17:494
45,430000	-0,280000	11,970000	2020-11-19T14:40:17:510
48,930000	0,980000	4,200000	2020-11-19T14:40:17:532
42,770000	0,910000	-2,380000	2020-11-19T14:40:17:550
25,340000	-0,700000	-7,980000	2020-11-19T14:40:17:574
-0,280000	-3,150000	-10,430000	2020-11-19T14:40:17:590
-29,120001	-4,410000	-10,920000	2020-11-19T14:40:17:613
-52,709999	-4,970000	-8,470000	2020-11-19T14:40:17:631
-62,580002	-2,310000	-7,560000	2020-11-19T14:40:17:653
-51,380001	2,730000	-4,830000	2020-11-19T14:40:17:670
-28,559999	11,970000	-2,170000	2020-11-19T14:40:17:693
-0,070000	18,200001	-0,910000	2020-11-19T14:40:17:710
28,350000	23,520000	1,330000	2020-11-19T14:40:17:734
50,610001	28,910000	2,590000	2020-11-19T14:40:17:750
64,190002	30,520000	5,600000	2020-11-19T14:40:17:773
66,150002	27,860001	8,400000	2020-11-19T14:40:17:791
50,189999	23,309999	11,970000	2020-11-19T14:40:17:814
23,660000	19,530001	15,050000	2020-11-19T14:40:17:830
1,400000	15,820000	18,410000	2020-11-19T14:40:17:853
-10,990000	12,460000	19,389999	2020-11-19T14:40:17:871
-13,930000	9,800000	16,379999	2020-11-19T14:40:17:895
-5,180000	7,700000	11,130000	2020-11-19T14:40:17:911
12,670000	8,120000	6,160000	2020-11-19T14:40:17:933
29,540001	9,030000	1,470000	2020-11-19T14:40:17:950
38,990002	8,190000	-2,800000	2020-11-19T14:40:17:974
44,590000	7,000000	-5,740000	2020-11-19T14:40:17:990
48,509998	4,620000	-7,350000	2020-11-19T14:40:18:013
49,349998	1,470000	-8,680000	2020-11-19T14:40:18:030
46,759998	-0,980000	-9,520000	2020-11-19T14:40:18:053
42,980000	-2,940000	-9,310000	2020-11-19T14:40:18:070
42,000000	-10,010000	-8,610000	2020-11-19T14:40:18:094
42,770000	-27,510000	-10,430000	2020-11-19T14:40:18:112
38,639999	-41,299999	-17,850000	2020-11-19T14:40:18:133
29,330000	-44,170002	-31,710001	2020-11-19T14:40:18:150
27,160000	-43,400002	-50,189999	2020-11-19T14:40:18:172
35,700001	-38,080002	-68,949997	2020-11-19T14:40:18:190
49,279999	-31,639999	-82,040001	2020-11-19T14:40:18:213
63,980000	-32,759998	-89,040001	2020-11-19T14:40:18:230
78,190002	-39,410000	-90,230003	2020-11-19T14:40:18:253
87,639999	-47,250000	-86,800003	2020-11-19T14:40:18:270
87,570000	-55,510002	-81,970001	2020-11-19T14:40:18:294
79,309998	-59,570000	-77,279999	2020-11-19T14:40:18:310
63,209999	-61,880001	-74,480003	2020-11-19T14:40:18:333
42,490002	-63,700001	-74,129997	2020-11-19T14:40:18:351
24,500000	-64,750000	-75,879997	2020-11-19T14:40:18:373
9,870000	-58,799999	-77,419998	2020-11-19T14:40:18:391
-9,100000	-56,139999	-81,690002	2020-11-19T14:40:18:412
-25,200001	-52,500000	-85,750000	2020-11-19T14:40:18:430
-31,430000	-47,250000	-86,379997	2020-11-19T14:40:18:453
-32,340000	-40,389999	-85,540001	2020-11-19T14:40:18:471
-28,000000	-31,150000	-85,610001	2020-11-19T14:40:18:493
-18,969999	-22,889999	-85,470001	2020-11-19T14:40:18:510
-12,040000	-18,690001	-84,699997	2020-11-19T14:40:18:532
-11,970000	-15,330000	-80,500000	2020-11-19T14:40:18:551
-13,300000	-10,570000	-73,290001	2020-11-19T14:40:18:574
-13,230000	-3,850000	-63,139999	2020-11-19T14:40:18:591
-9,800000	3,500000	-51,170002	2020-11-19T14:40:18:613
-3,780000	10,150000	-37,240002	2020-11-19T14:40:18:631
-0,630000	14,420000	-21,490000	2020-11-19T14:40:18:653
-6,090000	15,120000	-2,730000	2020-11-19T14:40:18:670
-21,210001	15,820000	17,219999	2020-11-19T14:40:18:694
-43,540001	16,940001	40,180000	2020-11-19T14:40:18:711
-66,220001	14,420000	61,670002	2020-11-19T14:40:18:733
-82,949997	19,460001	101,430000	2020-11-19T14:40:18:751
-76,580002	26,950001	129,990005	2020-11-19T14:40:18:773
-57,330002	33,040001	155,399994	2020-11-19T14:40:18:791
-31,010000	38,990002	171,850006	2020-11-19T14:40:18:813
-4,550000	48,369999	179,899994	2020-11-19T14:40:18:832
24,080000	54,040001	180,250000	2020-11-19T14:40:18:854
53,410000	55,090000	171,220001	2020-11-19T14:40:18:871
75,809998	55,650002	155,889999	2020-11-19T14:40:18:894
82,250000	49,279999	138,110001	2020-11-19T14:40:18:911
61,110001	34,650002	115,080002	2020-11-19T14:40:18:934
19,879999	20,650000	90,860001	2020-11-19T14:40:18:951
-31,360001	9,520000	69,510002	2020-11-19T14:40:18:973
-84,910004	0,140000	49,139999	2020-11-19T14:40:18:991
-126,770004	-5,460000	29,260000	2020-11-19T14:40:19:013
-151,619995	-6,930000	12,390000	2020-11-19T14:40:19:041
-155,820007	-6,300000	0,840000	2020-11-19T14:40:19:055
-140,070007	-3,290000	-4,970000	2020-11-19T14:40:19:072
-112,770004	0,980000	-5,740000	2020-11-19T14:40:19:094
-85,610001	3,150000	-3,990000	2020-11-19T14:40:19:111
-62,930000	3,990000	1,120000	2020-11-19T14:40:19:134
-51,029999	4,550000	8,540000	2020-11-19T14:40:19:151
-50,259998	6,370000	15,750000	2020-11-19T14:40:19:173
-54,320000	9,730000	20,370001	2020-11-19T14:40:19:200
-54,740002	12,950000	20,020000	2020-11-19T14:40:19:214
-51,799999	16,240000	16,100000	2020-11-19T14:40:19:231
-40,810001	20,370001	11,970000	2020-11-19T14:40:19:254
-21,490000	25,410000	9,100000	2020-11-19T14:40:19:271
2,100000	28,280001	6,650000	2020-11-19T14:40:19:294
24,780001	27,299999	4,270000	2020-11-19T14:40:19:314
41,299999	26,180000	2,870000	2020-11-19T14:40:19:334
49,209999	25,480000	2,730000	2020-11-19T14:40:19:351
50,959999	22,889999	2,940000	2020-11-19T14:40:19:375
47,599998	15,330000	0,910000	2020-11-19T14:40:19:392
40,250000	5,250000	-3,850000	2020-11-19T14:40:19:414
34,369999	-1,820000	-10,150000	2020-11-19T14:40:19:431
36,049999	-12,320000	-21,559999	2020-11-19T14:40:19:454
43,540001	-21,420000	-38,009998	2020-11-19T14:40:19:472
54,040001	-23,309999	-57,119999	2020-11-19T14:40:19:495
67,340004	-19,040001	-72,449997	2020-11-19T14:40:19:511
85,330002	-15,330000	-80,570000	2020-11-19T14:40:19:534
103,599998	-18,830000	-81,690002	2020-11-19T14:40:19:552
115,919998	-27,860001	-77,000000	2020-11-19T14:40:19:574
118,090004	-38,150002	-67,340004	2020-11-19T14:40:19:591
107,029999	-48,509998	-58,590000	2020-11-19T14:40:19:614
84,000000	-59,360001	-56,349998	2020-11-19T14:40:19:631
53,619999	-65,029999	-60,970001	2020-11-19T14:40:19:654
21,700001	-65,099998	-69,860001	2020-11-19T14:40:19:671
-7,210000	-62,510002	-80,919998	2020-11-19T14:40:19:694
-29,680000	-58,240002	-90,720001	2020-11-19T14:40:19:712
-42,139999	-52,360001	-97,019997	2020-11-19T14:40:19:734
-40,180000	-46,410000	-98,910004	2020-11-19T14:40:19:752
-26,320000	-41,650002	-98,070000	2020-11-19T14:40:19:774
-9,800000	-35,840000	-94,080002	2020-11-19T14:40:19:795
2,940000	-30,660000	-82,529999	2020-11-19T14:40:19:814
9,870000	-26,530001	-73,779999	2020-11-19T14:40:19:832
5,180000	-24,219999	-63,980000	2020-11-19T14:40:19:854
-5,600000	-20,090000	-53,410000	2020-11-19T14:40:19:871
-14,350000	-14,280000	-41,580002	2020-11-19T14:40:19:895
-13,650000	-9,100000	-28,210001	2020-11-19T14:40:19:911
-9,240000	-3,360000	-14,910000	2020-11-19T14:40:19:934
-5,600000	4,200000	-0,630000	2020-11-19T14:40:19:952
-3,430000	11,410000	14,210000	2020-11-19T14:40:19:975
-1,400000	17,780001	28,980000	2020-11-19T14:40:19:992
1,120000	26,180000	43,540001	2020-11-19T14:40:20:015
2,170000	35,000000	57,330002	2020-11-19T14:40:20:033
1,610000	41,860001	70,489998	2020-11-19T14:40:20:055
2,590000	45,779999	82,389999	2020-11-19T14:40:20:072
3,780000	49,910000	91,980003	2020-11-19T14:40:20:095
4,620000	56,910000	102,059998	2020-11-19T14:40:20:112
8,260000	60,549999	110,879997	2020-11-19T14:40:20:135
15,120000	59,360001	115,849998	2020-11-19T14:40:20:152
20,719999	56,700001	113,610001	2020-11-19T14:40:20:175
22,680000	51,590000	105,419998	2020-11-19T14:40:20:193
18,830000	45,430000	91,559998	2020-11-19T14:40:20:215
5,670000	41,020000	75,320000	2020-11-19T14:40:20:232
-16,309999	36,889999	59,570000	2020-11-19T14:40:20:255
-42,139999	31,010000	44,939999	2020-11-19T14:40:20:273
-67,410004	16,799999	35,630001	2020-11-19T14:40:20:295
-135,449997	11,620000	9,520000	2020-11-19T14:40:20:312
-172,270004	8,120000	17,150000	2020-11-19T14:40:20:335
-120,400002	6,510000	15,330000	2020-11-19T14:40:20:352
-62,369999	14,840000	17,430000	2020-11-19T14:40:20:375
-50,259998	24,710001	21,000000	2020-11-19T14:40:20:394
-55,790001	26,530001	23,799999	2020-11-19T14:40:20:415
-45,360001	29,049999	30,100000	2020-11-19T14:40:20:432
-26,320000	33,950001	34,369999	2020-11-19T14:40:20:455
-11,620000	36,750000	37,170002	2020-11-19T14:40:20:472
-6,370000	36,119999	37,590000	2020-11-19T14:40:20:495
-5,670000	34,720001	34,509998	2020-11-19T14:40:20:513
-5,670000	34,090000	29,820000	2020-11-19T14:40:20:535
-7,630000	32,410000	24,500000	2020-11-19T14:40:20:552
-13,650000	28,280001	17,219999	2020-11-19T14:40:20:575
-21,350000	24,290001	10,080000	2020-11-19T14:40:20:593
-26,740000	21,000000	3,080000	2020-11-19T14:40:20:615
-28,350000	18,129999	-3,150000	2020-11-19T14:40:20:632
-28,070000	14,910000	-9,100000	2020-11-19T14:40:20:655
-21,280001	12,180000	-13,580000	2020-11-19T14:40:20:673
-14,840000	9,240000	-17,639999	2020-11-19T14:40:20:696
-14,350000	4,970000	-20,860001	2020-11-19T14:40:20:713
-13,860000	1,680000	-20,719999	2020-11-19T14:40:20:735
-17,710001	-1,470000	-20,090000	2020-11-19T14:40:20:753
-33,950001	-5,600000	-18,549999	2020-11-19T14:40:20:775
-48,650002	-8,960000	-12,670000	2020-11-19T14:40:20:793
-53,830002	-10,710000	-7,420000	2020-11-19T14:40:20:815
-53,270000	-15,680000	-2,800000	2020-11-19T14:40:20:833
-42,070000	-26,809999	-0,420000	2020-11-19T14:40:20:855
-24,639999	-32,200001	-3,150000	2020-11-19T14:40:20:872
-1,540000	-26,250000	-19,180000	2020-11-19T14:40:20:896
25,340000	-12,880000	-29,190001	2020-11-19T14:40:20:913
54,880001	-9,660000	-35,000000	2020-11-19T14:40:20:935
80,989998	-10,780000	-37,170002	2020-11-19T14:40:20:953
106,120003	-13,440001	-39,900002	2020-11-19T14:40:20:975
129,570007	-13,440001	-43,820000	2020-11-19T14:40:20:994
139,580002	-11,200000	-49,980000	2020-11-19T14:40:21:015
131,809998	-10,990000	-57,330002	2020-11-19T14:40:21:033
116,550003	-11,550000	-65,379997	2020-11-19T14:40:21:055
102,480003	-9,660000	-72,309998	2020-11-19T14:40:21:073
91,629997	-7,770000	-77,419998	2020-11-19T14:40:21:096
85,190002	-10,710000	-80,290001	2020-11-19T14:40:21:114
80,010002	-16,379999	-82,320000	2020-11-19T14:40:21:135
71,120003	-20,090000	-82,669998	2020-11-19T14:40:21:153
56,770000	-22,960001	-81,690002	2020-11-19T14:40:21:176
35,770000	-26,600000	-79,730003	2020-11-19T14:40:21:193
11,830000	-27,860001	-77,139999	2020-11-19T14:40:21:217
-9,170000	-25,549999	-72,449997	2020-11-19T14:40:21:234
-21,840000	-23,100000	-66,849998	2020-11-19T14:40:21:256
-24,570000	-19,600000	-59,570000	2020-11-19T14:40:21:273
-20,510000	-16,309999	-51,099998	2020-11-19T14:40:21:296
-14,280000	-15,120000	-43,610001	2020-11-19T14:40:21:313
-5,950000	-14,420000	-37,170002	2020-11-19T14:40:21:336
2,520000	-14,910000	-32,480000	2020-11-19T14:40:21:353
8,120000	-14,770000	-28,700001	2020-11-19T14:40:21:376
9,800000	-15,050000	-25,760000	2020-11-19T14:40:21:394
8,050000	-15,470000	-22,120001	2020-11-19T14:40:21:416
2,870000	-14,280000	-16,309999	2020-11-19T14:40:21:433
-4,550000	-14,840000	-7,350000	2020-11-19T14:40:21:456
-11,830000	-17,290001	4,410000	2020-11-19T14:40:21:475
-20,020000	-21,350000	18,129999	2020-11-19T14:40:21:497
-28,420000	-25,900000	31,780001	2020-11-19T14:40:21:514
-36,400002	-30,309999	42,279999	2020-11-19T14:40:21:536
-45,220001	-30,309999	46,619999	2020-11-19T14:40:21:553
-53,480000	-26,389999	45,639999	2020-11-19T14:40:21:576
-50,820000	-17,850000	46,130001	2020-11-19T14:40:21:594
-34,860001	-10,710000	53,270000	2020-11-19T14:40:21:616
-18,270000	-6,790000	63,349998	2020-11-19T14:40:21:634
-13,650000	-5,040000	70,980003	2020-11-19T14:40:21:657
-18,830000	-2,870000	79,379997	2020-11-19T14:40:21:673
-45,709999	-2,660000	77,910004	2020-11-19T14:40:21:697
-62,580002	-8,820000	80,290001	2020-11-19T14:40:21:715
-82,389999	-16,660000	76,090004	2020-11-19T14:40:21:736
-95,900002	-20,230000	73,290001	2020-11-19T14:40:21:754
-94,849998	-17,360001	78,260002	2020-11-19T14:40:21:776
-127,260002	-13,230000	72,099998	2020-11-19T14:40:21:794
-130,690002	-17,500000	75,739998	2020-11-19T14:40:21:817
-91,910004	-16,170000	75,599998	2020-11-19T14:40:21:834
-68,389999	-11,620000	75,389999	2020-11-19T14:40:21:857
-69,790001	-11,200000	70,419998	2020-11-19T14:40:21:874
-76,230003	-12,320000	65,519997	2020-11-19T14:40:21:897
-83,019997	-14,840000	59,150002	2020-11-19T14:40:21:914
-92,889999	-17,920000	50,820000	2020-11-19T14:40:21:936
-104,930000	-19,389999	43,119999	2020-11-19T14:40:21:955
-120,470001	-21,840000	29,960001	2020-11-19T14:40:21:977
-122,779999	-24,150000	19,809999	2020-11-19T14:40:21:994
-123,129997	-26,600000	9,660000	2020-11-19T14:40:22:018
-125,510002	-29,400000	-0,420000	2020-11-19T14:40:22:034
-128,940002	-32,480000	-10,570000	2020-11-19T14:40:22:056
-128,100006	-35,279999	-17,920000	2020-11-19T14:40:22:073
-101,849998	-39,340000	-15,470000	2020-11-19T14:40:22:097
-126,419998	-53,410000	-28,350000	2020-11-19T14:40:22:114
-162,330002	-51,450001	-41,230000	2020-11-19T14:40:22:137
-185,009995	-50,189999	-44,380001	2020-11-19T14:40:22:154
-190,330002	-52,849998	-48,369999	2020-11-19T14:40:22:176
-171,990005	-53,130001	-50,330002	2020-11-19T14:40:22:195
-142,589996	-53,549999	-51,660000	2020-11-19T14:40:22:217
-112,279999	-54,320000	-49,000000	2020-11-19T14:40:22:234
-96,250000	-54,040001	-41,720001	2020-11-19T14:40:22:257
-93,029999	-55,230000	-34,369999	2020-11-19T14:40:22:274
-97,720001	-55,930000	-25,760000	2020-11-19T14:40:22:296
-105,699997	-55,650002	-16,590000	2020-11-19T14:40:22:314
-110,739998	-56,490002	-6,580000	2020-11-19T14:40:22:337
-108,639999	-59,360001	4,690000	2020-11-19T14:40:22:354
-105,419998	-63,630001	15,750000	2020-11-19T14:40:22:377
-102,970001	-67,269997	26,670000	2020-11-19T14:40:22:394
-99,820000	-71,120003	36,959999	2020-11-19T14:40:22:417
-99,260002	-74,760002	44,099998	2020-11-19T14:40:22:435
-101,570000	-79,169998	49,139999	2020-11-19T14:40:22:457
-104,930000	-82,809998	56,630001	2020-11-19T14:40:22:475
-111,090004	-86,239998	67,550003	2020-11-19T14:40:22:497
-119,419998	-92,610001	79,309998	2020-11-19T14:40:22:514
-128,589996	-100,379997	87,500000	2020-11-19T14:40:22:538
-139,300003	-108,430000	88,199997	2020-11-19T14:40:22:554
-150,289993	-112,629997	80,150002	2020-11-19T14:40:22:576
-158,199997	-113,540001	68,529999	2020-11-19T14:40:22:595
-166,809998	-112,559998	56,910000	2020-11-19T14:40:22:617
-176,330002	-110,739998	46,549999	2020-11-19T14:40:22:634
-179,059998	-107,660004	37,240002	2020-11-19T14:40:22:658
-174,089996	-104,510002	30,660000	2020-11-19T14:40:22:676
-165,339996	-100,029999	26,320000	2020-11-19T14:40:22:698
-155,259995	-96,879997	22,260000	2020-11-19T14:40:22:714
-144,690002	-93,730003	18,760000	2020-11-19T14:40:22:737
-142,869995	-89,599998	15,540000	2020-11-19T14:40:22:754
-146,020004	-84,489998	14,280000	2020-11-19T14:40:22:778
-147,770004	-76,720001	15,540000	2020-11-19T14:40:22:795
-144,759995	-66,919998	19,389999	2020-11-19T14:40:22:817
-135,240005	-57,959999	24,290001	2020-11-19T14:40:22:835
-121,099998	-49,700001	30,240000	2020-11-19T14:40:22:858
-105,279999	-40,389999	38,290001	2020-11-19T14:40:22:875
-91,840004	-31,360001	48,090000	2020-11-19T14:40:22:899
-82,599998	-23,590000	58,310001	2020-11-19T14:40:22:917
-77,209999	-17,500000	68,250000	2020-11-19T14:40:22:938
-75,389999	-14,490000	76,300003	2020-11-19T14:40:22:955
-73,989998	-12,530000	82,459999	2020-11-19T14:40:22:977
-73,360001	-10,570000	87,080002	2020-11-19T14:40:22:995
-72,590004	-6,650000	90,860001	2020-11-19T14:40:23:017
-68,669998	-2,660000	97,370003	2020-11-19T14:40:23:035
-57,540001	1,960000	102,480003	2020-11-19T14:40:23:058
-49,000000	7,560000	109,900002	2020-11-19T14:40:23:075
-40,810001	11,830000	117,949997	2020-11-19T14:40:23:099
-34,720001	7,350000	120,120003	2020-11-19T14:40:23:115
-36,189999	0,490000	114,379997	2020-11-19T14:40:23:139
-47,110001	1,050000	103,040001	2020-11-19T14:40:23:156
-59,500000	9,660000	88,970001	2020-11-19T14:40:23:178
-65,590004	19,670000	73,360001	2020-11-19T14:40:23:196
-61,810001	21,700001	55,930000	2020-11-19T14:40:23:218
-50,959999	16,520000	38,080002	2020-11-19T14:40:23:235
-43,750000	11,340000	20,299999	2020-11-19T14:40:23:258
-45,430000	6,090000	2,730000	2020-11-19T14:40:23:275
-57,610001	-1,330000	-15,890000	2020-11-19T14:40:23:298
-75,040001	-5,110000	-32,900002	2020-11-19T14:40:23:315
-88,690002	-7,630000	-45,639999	2020-11-19T14:40:23:339
-93,519997	-10,150000	-54,180000	2020-11-19T14:40:23:355
-93,800003	-12,040000	-62,230000	2020-11-19T14:40:23:378
-90,720001	-14,630000	-69,720001	2020-11-19T14:40:23:397
-84,279999	-16,940001	-74,690002	2020-11-19T14:40:23:418
-78,889999	-16,799999	-76,440002	2020-11-19T14:40:23:435
-77,489998	-14,420000	-74,830002	2020-11-19T14:40:23:458
-77,070000	-10,220000	-69,580002	2020-11-19T14:40:23:476
-73,430000	-6,720000	-62,650002	2020-11-19T14:40:23:499
-64,750000	-1,050000	-54,110001	2020-11-19T14:40:23:515
-47,950001	6,440000	-41,720001	2020-11-19T14:40:23:539
-23,309999	14,490000	-29,049999	2020-11-19T14:40:23:555
23,309999	24,990000	-9,240000	2020-11-19T14:40:23:579
55,650002	35,209999	9,800000	2020-11-19T14:40:23:596
45,709999	38,150002	13,860000	2020-11-19T14:40:23:619
30,940001	37,869999	15,400000	2020-11-19T14:40:23:636
26,320000	36,189999	15,960000	2020-11-19T14:40:23:659
39,830002	33,880001	18,620001	2020-11-19T14:40:23:676
60,619999	31,780001	16,520000	2020-11-19T14:40:23:699
79,870003	27,650000	10,360000	2020-11-19T14:40:23:715
98,980003	30,590000	6,440000	2020-11-19T14:40:23:740
111,790001	35,279999	7,840000	2020-11-19T14:40:23:755
125,300003	36,330002	17,570000	2020-11-19T14:40:23:778
138,809998	35,209999	30,660000	2020-11-19T14:40:23:796
148,119995	26,040001	39,060001	2020-11-19T14:40:23:819
151,619995	12,810000	40,250000	2020-11-19T14:40:23:836
149,940002	8,820000	29,820000	2020-11-19T14:40:23:859
150,570007	11,550000	11,270000	2020-11-19T14:40:23:877
154,979996	16,940001	-7,000000	2020-11-19T14:40:23:899
157,850006	22,750000	-18,270000	2020-11-19T14:40:23:916
156,660004	23,520000	-19,460001	2020-11-19T14:40:23:939
152,110001	18,549999	-15,120000	2020-11-19T14:40:23:956
137,899994	14,700000	-7,000000	2020-11-19T14:40:23:979
118,580002	11,550000	3,220000	2020-11-19T14:40:23:996
102,480003	7,420000	14,280000	2020-11-19T14:40:24:019
89,250000	3,150000	24,920000	2020-11-19T14:40:24:036
72,800003	-0,700000	32,689999	2020-11-19T14:40:24:059
43,470001	-6,370000	35,980000	2020-11-19T14:40:24:076
8,260000	-13,580000	35,700001	2020-11-19T14:40:24:099
-29,049999	-16,660000	15,120000	2020-11-19T14:40:24:116
-37,660000	-13,650000	0,630000	2020-11-19T14:40:24:139
-31,500000	-5,740000	-11,690000	2020-11-19T14:40:24:156
-15,120000	3,850000	-20,230000	2020-11-19T14:40:24:179
11,900000	13,720000	-26,180000	2020-11-19T14:40:24:196
43,680000	20,790001	-30,520000	2020-11-19T14:40:24:219
75,529999	25,480000	-33,250000	2020-11-19T14:40:24:236
101,570000	29,049999	-35,770000	2020-11-19T14:40:24:259
120,400002	31,780001	-38,220001	2020-11-19T14:40:24:276
128,800003	31,850000	-40,110001	2020-11-19T14:40:24:300
122,779999	27,440001	-42,490002	2020-11-19T14:40:24:316
105,769997	21,700001	-43,889999	2020-11-19T14:40:24:339
82,599998	15,610000	-45,639999	2020-11-19T14:40:24:357
59,080002	10,430000	-47,740002	2020-11-19T14:40:24:380
43,610001	5,320000	-47,599998	2020-11-19T14:40:24:397
32,970001	3,290000	-48,299999	2020-11-19T14:40:24:419
26,250000	0,910000	-46,830002	2020-11-19T14:40:24:436
27,510000	-8,470000	-42,910000	2020-11-19T14:40:24:459
28,139999	-17,430000	-28,910000	2020-11-19T14:40:24:477
15,960000	-14,840000	-14,910000	2020-11-19T14:40:24:499
7,840000	-10,150000	-2,240000	2020-11-19T14:40:24:516
10,150000	-9,940000	5,670000	2020-11-19T14:40:24:540
18,690001	-8,820000	12,040000	2020-11-19T14:40:24:556
22,540001	-1,120000	13,720000	2020-11-19T14:40:24:580
17,010000	5,670000	17,920000	2020-11-19T14:40:24:598
15,050000	5,180000	25,480000	2020-11-19T14:40:24:619
13,230000	0,420000	33,740002	2020-11-19T14:40:24:637
9,520000	-4,200000	39,200001	2020-11-19T14:40:24:660
0,770000	-1,260000	39,340000	2020-11-19T14:40:24:676
-4,760000	3,990000	36,189999	2020-11-19T14:40:24:700
-4,620000	7,700000	28,070000	2020-11-19T14:40:24:717
8,610000	11,900000	20,510000	2020-11-19T14:40:24:739
25,270000	11,410000	10,430000	2020-11-19T14:40:24:757
36,889999	8,540000	10,430000	2020-11-19T14:40:24:780
43,750000	6,650000	-8,050000	2020-11-19T14:40:24:797
49,770000	2,870000	-16,870001	2020-11-19T14:40:24:820
51,170002	-5,250000	-29,400000	2020-11-19T14:40:24:838
33,180000	-7,560000	-49,420002	2020-11-19T14:40:24:860
7,140000	-5,600000	-70,070000	2020-11-19T14:40:24:877
-5,530000	2,380000	-90,090004	2020-11-19T14:40:24:900
-1,540000	13,510000	-108,430000	2020-11-19T14:40:24:917
6,860000	17,990000	-127,330002	2020-11-19T14:40:24:940
9,800000	21,420000	-140,839996	2020-11-19T14:40:24:957
13,370000	25,129999	-144,339996	2020-11-19T14:40:24:980
25,270000	27,719999	-138,110001	2020-11-19T14:40:24:997
31,570000	21,420000	-130,130005	2020-11-19T14:40:25:021
21,280001	11,690000	-119,559998	2020-11-19T14:40:25:037
4,620000	-7,280000	-103,459999	2020-11-19T14:40:25:060
-19,670000	-22,049999	-88,550003	2020-11-19T14:40:25:078
-45,779999	-20,510000	-76,650002	2020-11-19T14:40:25:100
-62,790001	-10,080000	-70,769997	2020-11-19T14:40:25:117
-64,750000	-3,570000	-68,250000	2020-11-19T14:40:25:140
-54,389999	4,760000	-69,510002	2020-11-19T14:40:25:158
-44,869999	10,010000	-67,059998	2020-11-19T14:40:25:180
-25,690001	20,860001	-49,910000	2020-11-19T14:40:25:197
-10,850000	26,740000	-47,740002	2020-11-19T14:40:25:220
10,150000	24,430000	-48,160000	2020-11-19T14:40:25:237
24,500000	16,379999	-47,529999	2020-11-19T14:40:25:260
18,549999	9,520000	-46,200001	2020-11-19T14:40:25:277
-6,860000	5,670000	-43,189999	2020-11-19T14:40:25:301
-37,660000	5,460000	-47,320000	2020-11-19T14:40:25:319
-49,349998	3,920000	-53,830002	2020-11-19T14:40:25:340
-34,299999	-3,430000	-55,160000	2020-11-19T14:40:25:358
-28,700001	-9,730000	-65,169998	2020-11-19T14:40:25:380
-47,180000	-10,290000	-79,309998	2020-11-19T14:40:25:398
-57,820000	-9,100000	-79,099998	2020-11-19T14:40:25:420
-61,529999	-9,310000	-70,419998	2020-11-19T14:40:25:437
-63,770000	-2,310000	-63,349998	2020-11-19T14:40:25:460
-53,340000	9,520000	-54,810001	2020-11-19T14:40:25:478
-29,889999	20,860001	-44,520000	2020-11-19T14:40:25:502
-6,440000	37,450001	-38,709999	2020-11-19T14:40:25:517
20,719999	56,070000	-32,689999	2020-11-19T14:40:25:540
47,459999	63,279999	-25,760000	2020-11-19T14:40:25:561
48,090000	63,139999	-24,219999	2020-11-19T14:40:25:580
33,110001	63,279999	-13,440001	2020-11-19T14:40:25:598
32,689999	66,360001	1,540000	2020-11-19T14:40:25:620
52,360001	63,630001	13,020000	2020-11-19T14:40:25:637
67,830002	52,849998	8,680000	2020-11-19T14:40:25:661
73,849998	35,420002	-3,150000	2020-11-19T14:40:25:677
87,849998	28,000000	-21,559999	2020-11-19T14:40:25:701
106,959999	19,250000	-32,480000	2020-11-19T14:40:25:718
95,760002	1,540000	-46,200001	2020-11-19T14:40:25:741
49,490002	-19,600000	-56,840000	2020-11-19T14:40:25:758
-11,900000	-40,529999	-59,990002	2020-11-19T14:40:25:781
-57,400002	-50,820000	-60,689999	2020-11-19T14:40:25:799
-43,470001	-45,080002	-53,830002	2020-11-19T14:40:25:820
6,860000	-26,880001	-51,730000	2020-11-19T14:40:25:838
52,360001	-4,410000	-45,290001	2020-11-19T14:40:25:861
59,990002	7,910000	-31,150000	2020-11-19T14:40:25:877
59,990002	8,470000	-20,299999	2020-11-19T14:40:25:901
65,379997	8,050000	-14,700000	2020-11-19T14:40:25:918
81,410004	7,910000	-10,990000	2020-11-19T14:40:25:941
97,580002	8,120000	-11,410000	2020-11-19T14:40:25:958
95,129997	2,520000	-9,170000	2020-11-19T14:40:25:981
61,740002	-9,800000	-11,550000	2020-11-19T14:40:25:998
31,570000	-20,230000	-15,890000	2020-11-19T14:40:26:021
12,390000	-21,490000	-14,420000	2020-11-19T14:40:26:039
4,060000	-18,760000	-8,750000	2020-11-19T14:40:26:061
11,760000	-9,800000	-15,330000	2020-11-19T14:40:26:078
33,950001	0,420000	-23,660000	2020-11-19T14:40:26:101
35,980000	3,290000	-26,320000	2020-11-19T14:40:26:118
28,139999	4,900000	-29,120001	2020-11-19T14:40:26:141
25,760000	8,680000	-29,190001	2020-11-19T14:40:26:158
24,920000	11,760000	-28,000000	2020-11-19T14:40:26:181
25,969999	11,550000	-26,530001	2020-11-19T14:40:26:198
25,900000	11,270000	-25,480000	2020-11-19T14:40:26:222
17,710001	6,090000	-18,410000	2020-11-19T14:40:26:238
12,250000	3,850000	-16,450001	2020-11-19T14:40:26:261
23,030001	5,250000	-12,950000	2020-11-19T14:40:26:279
21,350000	2,030000	-13,230000	2020-11-19T14:40:26:301
22,469999	-2,030000	-13,580000	2020-11-19T14:40:26:318
21,910000	-6,650000	-14,910000	2020-11-19T14:40:26:341
18,620001	-9,660000	-18,410000	2020-11-19T14:40:26:358
16,100000	-12,530000	-20,020000	2020-11-19T14:40:26:381
15,540000	-14,280000	-18,620001	2020-11-19T14:40:26:399
16,590000	-15,470000	-14,910000	2020-11-19T14:40:26:421
20,790001	-15,400000	-11,620000	2020-11-19T14:40:26:438
24,710001	-13,230000	-8,260000	2020-11-19T14:40:26:462
25,969999	-13,440001	-5,740000	2020-11-19T14:40:26:479
41,230000	-7,980000	-1,750000	2020-11-19T14:40:26:502
58,450001	1,120000	1,470000	2020-11-19T14:40:26:519
56,279999	7,770000	8,540000	2020-11-19T14:40:26:541
41,860001	9,170000	19,040001	2020-11-19T14:40:26:558
34,720001	12,670000	23,379999	2020-11-19T14:40:26:581
46,410000	14,420000	24,850000	2020-11-19T14:40:26:599
59,849998	12,670000	24,150000	2020-11-19T14:40:26:621
70,070000	8,190000	20,510000	2020-11-19T14:40:26:640
74,059998	4,970000	15,540000	2020-11-19T14:40:26:661
66,360001	2,520000	9,660000	2020-11-19T14:40:26:679
55,020000	0,700000	2,590000	2020-11-19T14:40:26:702
38,709999	-0,560000	-3,990000	2020-11-19T14:40:26:719
19,460001	-3,220000	-9,380000	2020-11-19T14:40:26:741
7,350000	-4,200000	-13,370000	2020-11-19T14:40:26:759
-0,280000	-3,080000	-15,680000	2020-11-19T14:40:26:780
-14,350000	-3,220000	-15,400000	2020-11-19T14:40:26:799
-31,219999	-5,740000	-13,860000	2020-11-19T14:40:26:821
-36,540001	-8,050000	-13,090000	2020-11-19T14:40:26:838
-30,590000	-7,770000	-13,650000	2020-11-19T14:40:26:862
-18,760000	-7,910000	-11,550000	2020-11-19T14:40:26:879
-12,250000	-4,690000	-8,610000	2020-11-19T14:40:26:902
-16,030001	3,290000	-4,760000	2020-11-19T14:40:26:919
-37,520000	6,510000	-0,350000	2020-11-19T14:40:26:942
-65,449997	2,380000	7,210000	2020-11-19T14:40:26:959
-69,720001	3,780000	15,120000	2020-11-19T14:40:26:982
-43,959999	10,290000	18,549999	2020-11-19T14:40:27:000
-14,910000	17,080000	20,440001	2020-11-19T14:40:27:023
-5,320000	27,160000	16,030001	2020-11-19T14:40:27:039
-3,990000	33,529999	11,480000	2020-11-19T14:40:27:062
-14,420000	37,240002	9,660000	2020-11-19T14:40:27:085
-24,710001	37,869999	9,940000	2020-11-19T14:40:27:102
-28,070000	38,849998	15,960000	2020-11-19T14:40:27:120
-25,690001	38,500000	21,700001	2020-11-19T14:40:27:142
-17,920000	39,830002	24,500000	2020-11-19T14:40:27:159
-11,900000	39,970001	29,330000	2020-11-19T14:40:27:182
-2,170000	38,990002	27,090000	2020-11-19T14:40:27:199
3,990000	37,939999	27,370001	2020-11-19T14:40:27:222
-10,360000	33,670002	31,360001	2020-11-19T14:40:27:240
-23,170000	32,759998	37,170002	2020-11-19T14:40:27:262
-29,190001	34,020000	48,230000	2020-11-19T14:40:27:279
-26,809999	37,099998	62,160000	2020-11-19T14:40:27:302
-15,400000	47,250000	74,620003	2020-11-19T14:40:27:319
6,160000	67,760002	97,930000	2020-11-19T14:40:27:342
17,920000	83,860001	115,849998	2020-11-19T14:40:27:359
31,080000	101,989998	137,970001	2020-11-19T14:40:27:382
47,950001	123,480003	156,380005	2020-11-19T14:40:27:399
60,900002	147,350006	148,399994	2020-11-19T14:40:27:422
71,470001	166,389999	139,509995	2020-11-19T14:40:27:439
94,150002	183,889999	125,860001	2020-11-19T14:40:27:462
91,349998	187,180008	118,370003	2020-11-19T14:40:27:481
55,020000	177,729996	105,699997	2020-11-19T14:40:27:502
44,520000	176,470001	96,879997	2020-11-19T14:40:27:519
68,250000	187,949997	92,820000	2020-11-19T14:40:27:542
67,199997	177,449997	89,389999	2020-11-19T14:40:27:559
75,459999	154,630005	84,000000	2020-11-19T14:40:27:583
116,340004	133,210007	68,669998	2020-11-19T14:40:27:602
145,809998	115,570000	44,029999	2020-11-19T14:40:27:622
143,220001	94,849998	23,660000	2020-11-19T14:40:27:640
130,270004	72,940002	6,300000	2020-11-19T14:40:27:663
108,500000	53,270000	-6,930000	2020-11-19T14:40:27:679
101,080002	33,740002	-19,320000	2020-11-19T14:40:27:703
142,940002	22,049999	-26,180000	2020-11-19T14:40:27:721
193,899994	27,160000	-25,760000	2020-11-19T14:40:27:742
205,869995	29,610001	-22,400000	2020-11-19T14:40:27:760
193,270004	23,240000	-21,559999	2020-11-19T14:40:27:782
186,970001	20,020000	-23,450001	2020-11-19T14:40:27:800
174,020004	19,670000	-17,990000	2020-11-19T14:40:27:823
138,320007	13,650000	-9,590000	2020-11-19T14:40:27:840
92,959999	4,620000	-1,610000	2020-11-19T14:40:27:863
48,790001	-3,570000	8,540000	2020-11-19T14:40:27:880
2,800000	-14,630000	20,160000	2020-11-19T14:40:27:904
-35,490002	-25,340000	32,270000	2020-11-19T14:40:27:920
-67,900002	-32,270000	41,720001	2020-11-19T14:40:27:943
-102,760002	-34,930000	49,910000	2020-11-19T14:40:27:961
-131,809998	-39,200001	59,639999	2020-11-19T14:40:27:983
-146,649994	-44,799999	68,599998	2020-11-19T14:40:28:001
-147,770004	-50,889999	77,419998	2020-11-19T14:40:28:023
-134,399994	-58,380001	84,000000	2020-11-19T14:40:28:040
-119,840004	-63,560001	87,639999	2020-11-19T14:40:28:063
-119,209999	-67,480003	87,220001	2020-11-19T14:40:28:080
-132,789993	-72,169998	83,790001	2020-11-19T14:40:28:103
-156,029999	-77,489998	77,279999	2020-11-19T14:40:28:120
-182,279999	-82,599998	65,379997	2020-11-19T14:40:28:144
-202,440002	-85,400002	48,720001	2020-11-19T14:40:28:160
-209,020004	-84,000000	28,770000	2020-11-19T14:40:28:183
-198,240005	-81,340004	6,580000	2020-11-19T14:40:28:202
-174,789993	-71,260002	-15,190001	2020-11-19T14:40:28:223
-142,729996	-54,740002	-27,790001	2020-11-19T14:40:28:240
-124,040001	-47,110001	-21,700001	2020-11-19T14:40:28:263
-105,209999	-37,099998	-23,940001	2020-11-19T14:40:28:280
-71,470001	-9,940000	-15,540000	2020-11-19T14:40:28:304
-13,020000	14,980000	8,120000	2020-11-19T14:40:28:320
25,620001	23,520000	25,969999	2020-11-19T14:40:28:343
43,610001	27,650000	32,270000	2020-11-19T14:40:28:361
67,550003	41,790001	46,130001	2020-11-19T14:40:28:384
97,160004	50,889999	64,610001	2020-11-19T14:40:28:401
93,730003	48,860001	64,400002	2020-11-19T14:40:28:423
74,550003	47,389999	45,570000	2020-11-19T14:40:28:441
66,639999	47,599998	27,440001	2020-11-19T14:40:28:463
59,709999	46,340000	9,940000	2020-11-19T14:40:28:481
49,420002	42,630001	-3,500000	2020-11-19T14:40:28:504
7,910000	37,380001	-19,180000	2020-11-19T14:40:28:521
-39,480000	34,369999	-24,360001	2020-11-19T14:40:28:543
-41,439999	27,510000	-34,160000	2020-11-19T14:40:28:561
-10,220000	30,870001	-36,259998	2020-11-19T14:40:28:584
17,080000	35,139999	-28,840000	2020-11-19T14:40:28:601
16,379999	40,320000	-15,540000	2020-11-19T14:40:28:624
-14,350000	45,290001	0,560000	2020-11-19T14:40:28:641
-40,880001	49,560001	15,050000	2020-11-19T14:40:28:664
-45,009998	55,720001	29,120001	2020-11-19T14:40:28:682
-40,320000	64,120003	44,099998	2020-11-19T14:40:28:704
-33,040001	70,349998	57,470001	2020-11-19T14:40:28:721
-18,620001	75,040001	67,480003	2020-11-19T14:40:28:744
4,620000	80,360001	74,340004	2020-11-19T14:40:28:761
34,020000	79,800003	76,370003	2020-11-19T14:40:28:784
62,930000	71,050003	68,949997	2020-11-19T14:40:28:801
91,000000	57,540001	54,810001	2020-11-19T14:40:28:824
118,930000	38,500000	32,619999	2020-11-19T14:40:28:841
142,380005	17,219999	3,990000	2020-11-19T14:40:28:864
154,699997	-2,730000	-24,710001	2020-11-19T14:40:28:881
151,759995	-19,950001	-47,950001	2020-11-19T14:40:28:904
135,309998	-36,610001	-64,750000	2020-11-19T14:40:28:922
120,959999	-49,980000	-72,169998	2020-11-19T14:40:28:944
116,550003	-55,439999	-72,029999	2020-11-19T14:40:28:961
116,900002	-56,000000	-63,139999	2020-11-19T14:40:28:983
125,090004	-52,080002	-53,270000	2020-11-19T14:40:29:001
103,739998	-51,170002	-42,349998	2020-11-19T14:40:29:024
77,139999	-47,810001	-26,740000	2020-11-19T14:40:29:041
72,660004	-43,259998	-11,340000	2020-11-19T14:40:29:063
73,220001	-48,439999	1,260000	2020-11-19T14:40:29:082
71,610001	-55,020000	10,570000	2020-11-19T14:40:29:105
77,000000	-58,450001	12,810000	2020-11-19T14:40:29:121
93,099998	-64,120003	10,430000	2020-11-19T14:40:29:144
105,279999	-70,629997	2,870000	2020-11-19T14:40:29:163
101,080002	-74,480003	-7,700000	2020-11-19T14:40:29:184
80,360001	-79,239998	-18,830000	2020-11-19T14:40:29:203
45,779999	-84,840004	-31,360001	2020-11-19T14:40:29:224
4,900000	-87,500000	-45,849998	2020-11-19T14:40:29:241
-32,830002	-81,199997	-57,119999	2020-11-19T14:40:29:264
-62,020000	-69,510002	-65,519997	2020-11-19T14:40:29:281
-80,500000	-59,010002	-74,129997	2020-11-19T14:40:29:305
-84,139999	-47,670002	-80,220001	2020-11-19T14:40:29:321
-72,940002	-34,020000	-80,570000	2020-11-19T14:40:29:345
-53,340000	-21,840000	-78,680000	2020-11-19T14:40:29:361
-25,480000	-11,060000	-75,040001	2020-11-19T14:40:29:385
10,640000	0,280000	-68,739998	2020-11-19T14:40:29:403
45,849998	12,880000	-59,920002	2020-11-19T14:40:29:425
71,540001	24,430000	-50,610001	2020-11-19T14:40:29:442
90,440002	35,490002	-40,740002	2020-11-19T14:40:29:464
105,489998	45,639999	-27,230000	2020-11-19T14:40:29:482
120,540001	60,270000	-19,180000	2020-11-19T14:40:29:505
129,430008	67,410004	-13,160000	2020-11-19T14:40:29:521
138,809998	70,139999	-8,890000	2020-11-19T14:40:29:544
145,529999	70,980003	-7,210000	2020-11-19T14:40:29:561
149,309998	73,290001	-6,580000	2020-11-19T14:40:29:585
152,600006	73,639999	-7,630000	2020-11-19T14:40:29:603
149,940002	65,449997	-14,280000	2020-11-19T14:40:29:625
137,059998	52,430000	-22,330000	2020-11-19T14:40:29:644
109,620003	44,730000	-28,559999	2020-11-19T14:40:29:664
74,970001	40,529999	-31,360001	2020-11-19T14:40:29:681
38,290001	36,820000	-30,870001	2020-11-19T14:40:29:705
1,540000	33,110001	-27,930000	2020-11-19T14:40:29:721
-34,299999	32,970001	-19,040001	2020-11-19T14:40:29:745
-66,989998	36,049999	-8,260000	2020-11-19T14:40:29:763
-89,180000	40,950001	2,240000	2020-11-19T14:40:29:785
-95,340004	48,090000	12,740000	2020-11-19T14:40:29:803
-79,800003	50,470001	23,590000	2020-11-19T14:40:29:825
-50,959999	45,360001	30,799999	2020-11-19T14:40:29:842
-14,490000	37,730000	38,290001	2020-11-19T14:40:29:865
-0,910000	31,430000	42,910000	2020-11-19T14:40:29:883
-38,500000	22,469999	35,349998	2020-11-19T14:40:29:905
-69,090004	16,940001	28,840000	2020-11-19T14:40:29:922
-55,650002	18,410000	27,370001	2020-11-19T14:40:29:945
-15,960000	17,710001	24,080000	2020-11-19T14:40:29:962
6,930000	23,870001	20,860001	2020-11-19T14:40:29:985
13,440001	30,450001	12,460000	2020-11-19T14:40:30:002
24,150000	34,790001	7,420000	2020-11-19T14:40:30:025
37,869999	38,570000	5,460000	2020-11-19T14:40:30:043
49,209999	40,040001	3,990000	2020-11-19T14:40:30:065
56,700001	39,619999	5,530000	2020-11-19T14:40:30:082
59,920002	37,730000	7,770000	2020-11-19T14:40:30:105
61,110001	34,299999	9,030000	2020-11-19T14:40:30:123
58,450001	30,100000	9,310000	2020-11-19T14:40:30:145
49,560001	26,250000	8,190000	2020-11-19T14:40:30:162
37,660000	22,680000	5,320000	2020-11-19T14:40:30:184
27,299999	20,020000	1,260000	2020-11-19T14:40:30:202
23,309999	19,740000	-2,590000	2020-11-19T14:40:30:225
25,480000	19,250000	-5,250000	2020-11-19T14:40:30:242
26,530001	18,200001	-7,700000	2020-11-19T14:40:30:265
22,469999	18,129999	-7,770000	2020-11-19T14:40:30:282
17,150000	16,170000	-6,790000	2020-11-19T14:40:30:305
12,530000	12,740000	-6,230000	2020-11-19T14:40:30:322
8,680000	11,340000	-5,670000	2020-11-19T14:40:30:345
4,620000	14,070000	-4,130000	2020-11-19T14:40:30:363
-4,270000	12,950000	-2,380000	2020-11-19T14:40:30:385
-22,960001	2,730000	-2,940000	2020-11-19T14:40:30:404
-40,459999	-8,120000	-4,900000	2020-11-19T14:40:30:425
-50,889999	-9,800000	-5,950000	2020-11-19T14:40:30:442
-49,000000	-12,110000	-10,500000	2020-11-19T14:40:30:466
-31,219999	-19,389999	-19,320000	2020-11-19T14:40:30:483
-1,260000	-24,150000	-31,710001	2020-11-19T14:40:30:506
33,740002	-22,610001	-41,020000	2020-11-19T14:40:30:522
72,519997	-20,020000	-44,799999	2020-11-19T14:40:30:545
126,699997	-28,490000	-42,700001	2020-11-19T14:40:30:562
139,509995	-42,630001	-46,549999	2020-11-19T14:40:30:586
120,750000	-57,049999	-48,860001	2020-11-19T14:40:30:604
92,820000	-61,950001	-52,639999	2020-11-19T14:40:30:625
68,739998	-62,790001	-62,160000	2020-11-19T14:40:30:643
46,480000	-64,470001	-74,129997	2020-11-19T14:40:30:666
24,360001	-66,430000	-86,730003	2020-11-19T14:40:30:682
7,490000	-64,889999	-96,879997	2020-11-19T14:40:30:706
3,080000	-61,040001	-103,180000	2020-11-19T14:40:30:722
11,340000	-57,119999	-103,389999	2020-11-19T14:40:30:745
26,320000	-52,849998	-97,510002	2020-11-19T14:40:30:762
36,750000	-50,049999	-88,620003	2020-11-19T14:40:30:786
40,670002	-47,740002	-78,050003	2020-11-19T14:40:30:803
38,639999	-43,540001	-64,680000	2020-11-19T14:40:30:826
32,060001	-38,570000	-51,099998	2020-11-19T14:40:30:843
22,260000	-33,389999	-38,779999	2020-11-19T14:40:30:865
13,440001	-27,650000	-29,049999	2020-11-19T14:40:30:882
4,690000	-21,980000	-20,719999	2020-11-19T14:40:30:906
-0,420000	-16,730000	-13,370000	2020-11-19T14:40:30:923
-3,080000	-10,500000	-5,040000	2020-11-19T14:40:30:946
-5,320000	-3,290000	3,850000	2020-11-19T14:40:30:963
-7,000000	2,590000	12,530000	2020-11-19T14:40:30:986
-8,540000	6,020000	20,930000	2020-11-19T14:40:31:004
-12,740000	10,640000	29,750000	2020-11-19T14:40:31:026
-20,160000	14,910000	38,570000	2020-11-19T14:40:31:043
-27,020000	21,490000	48,369999	2020-11-19T14:40:31:066
-31,290001	29,750000	60,830002	2020-11-19T14:40:31:085
-34,439999	38,570000	74,690002	2020-11-19T14:40:31:106
-35,420002	47,599998	90,580002	2020-11-19T14:40:31:123
-33,110001	54,250000	107,029999	2020-11-19T14:40:31:147
-25,830000	57,260002	119,980003	2020-11-19T14:40:31:163
-14,070000	56,910000	125,580002	2020-11-19T14:40:31:186
-1,330000	56,139999	120,540001	2020-11-19T14:40:31:204
13,860000	55,790001	107,870003	2020-11-19T14:40:31:228
27,370001	55,860001	91,980003	2020-11-19T14:40:31:244
32,689999	55,160000	76,860001	2020-11-19T14:40:31:266
25,900000	52,009998	62,580002	2020-11-19T14:40:31:283
10,920000	44,450001	49,700001	2020-11-19T14:40:31:307
-10,150000	31,710001	38,920002	2020-11-19T14:40:31:324
-39,549999	18,270000	29,260000	2020-11-19T14:40:31:345
-78,260002	7,490000	20,090000	2020-11-19T14:40:31:364
-116,830002	1,750000	12,110000	2020-11-19T14:40:31:387
-141,399994	-0,280000	7,350000	2020-11-19T14:40:31:404
-151,550003	-1,960000	4,060000	2020-11-19T14:40:31:426
-150,009995	-2,030000	1,820000	2020-11-19T14:40:31:444
-135,729996	-2,100000	1,190000	2020-11-19T14:40:31:467
-112,910004	-3,500000	0,630000	2020-11-19T14:40:31:484
-93,660004	-3,010000	0,420000	2020-11-19T14:40:31:507
-81,970001	0,770000	2,520000	2020-11-19T14:40:31:523
-71,959999	5,320000	5,950000	2020-11-19T14:40:31:548
-60,130001	8,820000	8,540000	2020-11-19T14:40:31:565
-49,700001	10,990000	9,590000	2020-11-19T14:40:31:587
-39,200001	11,480000	10,850000	2020-11-19T14:40:31:604
-28,210001	11,200000	10,360000	2020-11-19T14:40:31:627
-7,350000	9,870000	5,040000	2020-11-19T14:40:31:644
6,510000	5,530000	-2,450000	2020-11-19T14:40:31:667
15,400000	-1,680000	-11,690000	2020-11-19T14:40:31:684
15,260000	-9,660000	-20,790001	2020-11-19T14:40:31:708
8,890000	-17,639999	-29,260000	2020-11-19T14:40:31:724
-0,210000	-24,639999	-35,490002	2020-11-19T14:40:31:747
-9,240000	-31,290001	-38,990002	2020-11-19T14:40:31:764
-15,330000	-38,570000	-40,459999	2020-11-19T14:40:31:788
-20,090000	-46,759998	-39,270000	2020-11-19T14:40:31:805
-28,980000	-55,299999	-32,689999	2020-11-19T14:40:31:827
-66,500000	-67,900002	-31,430000	2020-11-19T14:40:31:844
-108,709999	-73,570000	-25,969999	2020-11-19T14:40:31:867
-128,520004	-68,320000	-18,620001	2020-11-19T14:40:31:884
-134,259995	-63,980000	-18,129999	2020-11-19T14:40:31:907
-123,760002	-59,290001	-22,330000	2020-11-19T14:40:31:924
-97,790001	-53,970001	-24,219999	2020-11-19T14:40:31:948
-69,720001	-49,490002	-27,160000	2020-11-19T14:40:31:964
-45,290001	-45,220001	-32,410000	2020-11-19T14:40:31:987
-20,580000	-39,830002	-38,290001	2020-11-19T14:40:32:004
-3,780000	-35,279999	-43,540001	2020-11-19T14:40:32:028
0,140000	-32,619999	-48,160000	2020-11-19T14:40:32:046
-4,200000	-33,529999	-50,470001	2020-11-19T14:40:32:067
-19,530001	-36,189999	-52,570000	2020-11-19T14:40:32:084
-43,889999	-37,170002	-53,200001	2020-11-19T14:40:32:108
-67,550003	-36,330002	-51,240002	2020-11-19T14:40:32:124
-85,470001	-36,750000	-50,889999	2020-11-19T14:40:32:147
-94,919998	-37,310001	-53,689999	2020-11-19T14:40:32:164
-88,620003	-34,230000	-55,930000	2020-11-19T14:40:32:188
-68,180000	-30,380001	-56,910000	2020-11-19T14:40:32:205
-42,139999	-26,389999	-58,380001	2020-11-19T14:40:32:227
-5,670000	-18,620001	-60,130001	2020-11-19T14:40:32:244
40,389999	-10,640000	-62,369999	2020-11-19T14:40:32:268
82,949997	-7,700000	-64,889999	2020-11-19T14:40:32:286
108,360001	-7,420000	-65,590004	2020-11-19T14:40:32:308
115,150002	-9,940000	-56,209999	2020-11-19T14:40:32:325
104,860001	-14,280000	-36,330002	2020-11-19T14:40:32:348
78,260002	-15,330000	-9,520000	2020-11-19T14:40:32:365
40,320000	-16,379999	22,260000	2020-11-19T14:40:32:389
-0,140000	-20,160000	54,110001	2020-11-19T14:40:32:405
-33,529999	-28,350000	86,379997	2020-11-19T14:40:32:428
-54,459999	-36,119999	116,129997	2020-11-19T14:40:32:445
-69,440002	-42,630001	142,100006	2020-11-19T14:40:32:468
-93,519997	-51,869999	157,919998	2020-11-19T14:40:32:485
-128,169998	-65,449997	166,180008	2020-11-19T14:40:32:509
-165,339996	-81,269997	170,029999	2020-11-19T14:40:32:526
-199,990005	-94,150002	169,050003	2020-11-19T14:40:32:547
-226,240005	-105,769997	164,289993	2020-11-19T14:40:32:565
-249,059998	-117,949997	159,110001	2020-11-19T14:40:32:589
-277,970001	-129,500000	152,809998	2020-11-19T14:40:32:605
-302,049988	-140,350006	144,339996	2020-11-19T14:40:32:628
-310,869995	-149,660004	131,529999	2020-11-19T14:40:32:645
-305,690002	-156,029999	115,849998	2020-11-19T14:40:32:668
-304,149994	-157,500000	97,510002	2020-11-19T14:40:32:685
-286,440002	-153,930008	74,550003	2020-11-19T14:40:32:708
-233,520004	-130,410004	51,380001	2020-11-19T14:40:32:725
-153,509995	-109,480003	39,410000	2020-11-19T14:40:32:749
-104,160004	-95,900002	38,290001	2020-11-19T14:40:32:766
-94,080002	-87,919998	39,619999	2020-11-19T14:40:32:787
-86,800003	-82,529999	43,820000	2020-11-19T14:40:32:805
-74,480003	-77,769997	49,700001	2020-11-19T14:40:32:828
-67,620003	-71,400002	55,650002	2020-11-19T14:40:32:845
-66,290001	-63,349998	60,900002	2020-11-19T14:40:32:868
-67,480003	-54,599998	67,970001	2020-11-19T14:40:32:885
-73,290001	-45,500000	76,019997	2020-11-19T14:40:32:910
-82,250000	-38,360001	82,879997	2020-11-19T14:40:32:925
-87,989998	-33,250000	88,480003	2020-11-19T14:40:32:948
-93,519997	-30,030001	93,590004	2020-11-19T14:40:32:965
-103,040001	-27,020000	99,330002	2020-11-19T14:40:32:988
-115,500000	-23,940001	107,449997	2020-11-19T14:40:33:007
-126,770004	-21,910000	117,809998	2020-11-19T14:40:33:027
-135,800003	-19,740000	129,500000	2020-11-19T14:40:33:046
-142,800003	-15,960000	141,330002	2020-11-19T14:40:33:070
-146,369995	-5,670000	155,610001	2020-11-19T14:40:33:085
-146,020004	9,030000	173,110001	2020-11-19T14:40:33:108
-141,539993	14,490000	188,020004	2020-11-19T14:40:33:127
-131,039993	13,160000	199,990005	2020-11-19T14:40:33:148
-115,779999	12,460000	207,199997	2020-11-19T14:40:33:165
-101,080002	14,560000	200,899994	2020-11-19T14:40:33:188
-82,389999	19,110001	181,020004	2020-11-19T14:40:33:205
-53,130001	26,670000	154,770004	2020-11-19T14:40:33:229
-18,129999	32,340000	125,020004	2020-11-19T14:40:33:246
14,140000	32,130001	91,419998	2020-11-19T14:40:33:267
38,920002	30,030001	55,580002	2020-11-19T14:40:33:285
49,840000	25,900000	23,030001	2020-11-19T14:40:33:309
36,259998	18,969999	-5,600000	2020-11-19T14:40:33:325
-1,540000	8,750000	-28,420000	2020-11-19T14:40:33:348
-50,959999	-2,450000	-44,520000	2020-11-19T14:40:33:365
-99,540001	-12,110000	-54,740002	2020-11-19T14:40:33:388
-137,690002	-17,710001	-60,970001	2020-11-19T14:40:33:405
-163,309998	-18,900000	-64,120003	2020-11-19T14:40:33:428
-176,119995	-16,379999	-64,190002	2020-11-19T14:40:33:445
-174,930008	-10,920000	-61,740002	2020-11-19T14:40:33:469
-159,039993	-4,970000	-55,580002	2020-11-19T14:40:33:486
-135,380005	1,890000	-46,970001	2020-11-19T14:40:33:508
-106,750000	10,290000	-36,680000	2020-11-19T14:40:33:525
-74,199997	19,600000	-25,340000	2020-11-19T14:40:33:549
-41,509998	25,690001	-15,750000	2020-11-19T14:40:33:565
-16,030001	32,900002	-9,030000	2020-11-19T14:40:33:588
2,520000	42,070000	-3,990000	2020-11-19T14:40:33:605
24,219999	53,410000	0,140000	2020-11-19T14:40:33:629
52,430000	62,930000	2,380000	2020-11-19T14:40:33:656
81,340004	66,570000	1,400000	2020-11-19T14:40:33:668
106,120003	65,449997	-0,280000	2020-11-19T14:40:33:685
121,449997	63,420002	-0,280000	2020-11-19T14:40:33:710
114,870003	57,540001	4,060000	2020-11-19T14:40:33:726
96,599998	51,590000	8,260000	2020-11-19T14:40:33:748
88,340004	40,810001	6,580000	2020-11-19T14:40:33:765
97,860001	24,920000	0,700000	2020-11-19T14:40:33:789
108,150002	17,500000	-0,840000	2020-11-19T14:40:33:806
112,840004	10,710000	0,700000	2020-11-19T14:40:33:828
103,459999	3,990000	6,930000	2020-11-19T14:40:33:845
80,150002	-3,570000	13,790000	2020-11-19T14:40:33:869
55,160000	-11,760000	18,129999	2020-11-19T14:40:33:885
41,650002	-23,100000	20,299999	2020-11-19T14:40:33:909
40,320000	-37,380001	15,960000	2020-11-19T14:40:33:925
47,040001	-46,549999	6,370000	2020-11-19T14:40:33:949
63,279999	-48,369999	-4,900000	2020-11-19T14:40:33:966
89,320000	-48,020000	-15,330000	2020-11-19T14:40:33:988
115,849998	-51,590000	-22,330000	2020-11-19T14:40:34:006
129,500000	-59,500000	-25,410000	2020-11-19T14:40:34:029
126,489998	-70,279999	-24,010000	2020-11-19T14:40:34:046
108,849998	-80,989998	-21,980000	2020-11-19T14:40:34:068
81,199997	-89,320000	-23,730000	2020-11-19T14:40:34:086
50,259998	-95,199997	-30,799999	2020-11-19T14:40:34:109
19,320000	-97,370003	-41,299999	2020-11-19T14:40:34:126
-10,640000	-96,110001	-53,830002	2020-11-19T14:40:34:149
-37,099998	-92,400002	-66,010002	2020-11-19T14:40:34:165
-56,279999	-86,660004	-76,510002	2020-11-19T14:40:34:189
-65,940002	-79,870003	-84,629997	2020-11-19T14:40:34:207
-63,139999	-72,800003	-89,879997	2020-11-19T14:40:34:228
-48,439999	-64,470001	-92,610001	2020-11-19T14:40:34:246
-26,389999	-56,070000	-93,870003	2020-11-19T14:40:34:268
-2,310000	-49,209999	-93,519997	2020-11-19T14:40:34:286
15,400000	-42,630001	-91,559998	2020-11-19T14:40:34:309
25,340000	-36,049999	-88,199997	2020-11-19T14:40:34:326
29,330000	-28,700001	-82,739998	2020-11-19T14:40:34:349
27,719999	-19,950001	-76,019997	2020-11-19T14:40:34:366
23,309999	-10,920000	-67,970001	2020-11-19T14:40:34:390
19,460001	-4,830000	-58,799999	2020-11-19T14:40:34:406
14,070000	0,840000	-48,160000	2020-11-19T14:40:34:430
5,740000	9,730000	-35,000000	2020-11-19T14:40:34:447
-3,850000	20,370001	-18,549999	2020-11-19T14:40:34:469
-9,240000	31,639999	0,560000	2020-11-19T14:40:34:488
-9,730000	42,560001	22,469999	2020-11-19T14:40:34:510
-11,900000	53,130001	46,410000	2020-11-19T14:40:34:526
-21,070000	62,369999	70,139999	2020-11-19T14:40:34:549
-31,920000	73,500000	95,760002	2020-11-19T14:40:34:566
-39,130001	87,010002	119,699997	2020-11-19T14:40:34:590
-44,869999	94,989998	133,979996	2020-11-19T14:40:34:607
-34,299999	97,230003	140,910004	2020-11-19T14:40:34:629
-15,400000	96,459999	139,509995	2020-11-19T14:40:34:646
-2,590000	91,349998	127,540001	2020-11-19T14:40:34:671
8,050000	82,879997	111,650002	2020-11-19T14:40:34:689
13,230000	76,160004	98,910004	2020-11-19T14:40:34:709
3,360000	62,790001	88,620003	2020-11-19T14:40:34:726
-55,299999	50,610001	84,419998	2020-11-19T14:40:34:750
-126,489998	36,820000	66,290001	2020-11-19T14:40:34:766
-160,089996	22,260000	58,099998	2020-11-19T14:40:34:789
-157,149994	20,650000	48,860001	2020-11-19T14:40:34:807
-152,529999	25,690001	43,049999	2020-11-19T14:40:34:830
-157,360001	31,850000	38,430000	2020-11-19T14:40:34:846
-144,690002	37,660000	41,439999	2020-11-19T14:40:34:868
-120,820000	41,230000	44,869999	2020-11-19T14:40:34:886
-98,980003	48,230000	48,369999	2020-11-19T14:40:34:911
-75,180000	55,299999	51,240002	2020-11-19T14:40:34:928
-38,570000	62,299999	49,209999	2020-11-19T14:40:34:949
1,260000	75,180000	41,860001	2020-11-19T14:40:34:967
34,230000	86,309998	31,150000	2020-11-19T14:40:34:990
60,970001	89,389999	17,710001	2020-11-19T14:40:35:007
85,680000	85,610001	2,590000	2020-11-19T14:40:35:029
101,220001	77,769997	-10,640000	2020-11-19T14:40:35:047
100,379997	66,360001	-22,540001	2020-11-19T14:40:35:069
87,290001	55,230000	-30,590000	2020-11-19T14:40:35:088
69,580002	48,439999	-32,340000	2020-11-19T14:40:35:110
54,389999	35,000000	-31,500000	2020-11-19T14:40:35:127
43,400002	18,340000	-32,830002	2020-11-19T14:40:35:150
39,410000	6,020000	-32,480000	2020-11-19T14:40:35:168
39,619999	-2,730000	-24,010000	2020-11-19T14:40:35:189
31,920000	-15,260000	-15,820000	2020-11-19T14:40:35:207
22,820000	-26,040001	-9,170000	2020-11-19T14:40:35:230
24,570000	-35,770000	-1,190000	2020-11-19T14:40:35:247
23,520000	-46,060001	6,440000	2020-11-19T14:40:35:270
24,150000	-57,750000	10,990000	2020-11-19T14:40:35:287
32,830002	-70,419998	8,960000	2020-11-19T14:40:35:311
46,619999	-79,379997	2,520000	2020-11-19T14:40:35:327
59,990002	-84,349998	-5,040000	2020-11-19T14:40:35:350
74,690002	-83,720001	-8,610000	2020-11-19T14:40:35:367
84,139999	-82,879997	-8,890000	2020-11-19T14:40:35:391
66,290001	-95,550003	-6,930000	2020-11-19T14:40:35:408
32,830002	-114,029999	-9,450000	2020-11-19T14:40:35:430
2,380000	-121,169998	-8,260000	2020-11-19T14:40:35:447
-18,480000	-119,209999	-13,650000	2020-11-19T14:40:35:471
-35,000000	-118,160004	-26,110001	2020-11-19T14:40:35:487
-53,970001	-123,270004	-43,540001	2020-11-19T14:40:35:510
-71,750000	-119,000000	-62,160000	2020-11-19T14:40:35:527
-81,970001	-106,400002	-79,029999	2020-11-19T14:40:35:551
-75,739998	-90,930000	-92,820000	2020-11-19T14:40:35:567
-56,980000	-75,669998	-100,029999	2020-11-19T14:40:35:590
-28,350000	-62,090000	-100,309998	2020-11-19T14:40:35:608
2,030000	-52,709999	-96,250000	2020-11-19T14:40:35:631
27,790001	-45,779999	-86,940002	2020-11-19T14:40:35:648
45,990002	-36,400002	-74,900002	2020-11-19T14:40:35:670
55,790001	-25,900000	-60,480000	2020-11-19T14:40:35:687
61,810001	-19,879999	-45,920002	2020-11-19T14:40:35:711
60,060001	-16,030001	-32,060001	2020-11-19T14:40:35:727
50,330002	-10,780000	-19,600000	2020-11-19T14:40:35:750
36,259998	-2,730000	-8,260000	2020-11-19T14:40:35:767
22,260000	5,390000	1,540000	2020-11-19T14:40:35:791
7,350000	13,020000	9,380000	2020-11-19T14:40:35:808
-4,900000	21,000000	17,780001	2020-11-19T14:40:35:831
-11,270000	28,980000	27,020000	2020-11-19T14:40:35:847
-11,760000	35,070000	36,470001	2020-11-19T14:40:35:871
-9,450000	40,529999	45,709999	2020-11-19T14:40:35:889
-6,230000	46,270000	54,180000	2020-11-19T14:40:35:911
-0,420000	50,049999	63,630001	2020-11-19T14:40:35:928
-0,350000	61,110001	68,599998	2020-11-19T14:40:35:951
-6,650000	69,300003	74,269997	2020-11-19T14:40:35:968
-15,050000	68,739998	76,720001	2020-11-19T14:40:35:991
-19,740000	59,639999	71,889999	2020-11-19T14:40:36:008
-24,780001	56,139999	62,860001	2020-11-19T14:40:36:031
-33,320000	59,779999	52,430000	2020-11-19T14:40:36:048
-39,689999	62,860001	41,369999	2020-11-19T14:40:36:071
-40,110001	59,920002	30,380001	2020-11-19T14:40:36:087
-38,990002	55,650002	20,930000	2020-11-19T14:40:36:112
-41,860001	53,340000	17,010000	2020-11-19T14:40:36:129
-48,020000	46,480000	16,170000	2020-11-19T14:40:36:150
-55,930000	37,520000	15,610000	2020-11-19T14:40:36:168
-65,169998	32,410000	15,680000	2020-11-19T14:40:36:190
-73,849998	29,120001	15,890000	2020-11-19T14:40:36:208
-80,500000	27,160000	14,980000	2020-11-19T14:40:36:231
-82,529999	26,530001	12,320000	2020-11-19T14:40:36:248
-77,070000	27,650000	9,730000	2020-11-19T14:40:36:271
