v1	v2	v3	v4	ts
0,000000	0,000000	0,000000	0,000000	2020-11-19T14:39:52:960
0,000000	0,000000	0,000000	0,000000	2020-11-19T14:39:52:961
0,000000	0,000000	0,000000	0,000000	2020-11-19T14:39:52:986
0,000000	0,000000	0,000000	0,000000	2020-11-19T14:39:53:026
0,000000	0,000000	0,000000	0,000000	2020-11-19T14:39:53:067
0,000000	0,000000	0,000000	0,000000	2020-11-19T14:39:53:106
0,000000	0,000000	0,000000	0,000000	2020-11-19T14:39:53:146
0,000000	0,000000	0,000000	0,000000	2020-11-19T14:39:53:186
0,000000	0,000000	0,000000	0,000000	2020-11-19T14:39:53:226
0,000000	0,000000	0,000000	0,000000	2020-11-19T14:39:53:277
0,000000	0,000000	0,000000	0,000000	2020-11-19T14:39:53:306
0,000000	0,000000	0,000000	0,000000	2020-11-19T14:39:53:356
0,000000	0,000000	0,000000	0,000000	2020-11-19T14:39:53:390
0,000000	0,000000	0,000000	0,000000	2020-11-19T14:39:53:481
0,000000	0,000000	0,000000	0,000000	2020-11-19T14:39:53:481
0,000000	0,000000	0,000000	0,000000	2020-11-19T14:39:53:506
0,000000	0,000000	0,000000	0,000000	2020-11-19T14:39:53:546
0,000000	0,000000	0,000000	0,000000	2020-11-19T14:39:53:586
0,000000	0,000000	0,000000	0,000000	2020-11-19T14:39:53:626
0,000000	0,000000	0,000000	0,000000	2020-11-19T14:39:53:669
0,000000	0,000000	0,000000	0,000000	2020-11-19T14:39:53:706
0,000000	0,000000	0,000000	0,000000	2020-11-19T14:39:53:746
0,000000	0,000000	0,000000	0,000000	2020-11-19T14:39:53:787
0,000000	0,000000	0,000000	0,000000	2020-11-19T14:39:53:827
0,000000	0,000000	0,000000	0,000000	2020-11-19T14:39:53:866
0,000000	0,000000	0,000000	0,000000	2020-11-19T14:39:53:907
0,000000	0,000000	0,000000	0,000000	2020-11-19T14:39:53:956
0,000000	0,000000	0,000000	0,000000	2020-11-19T14:39:53:990
0,000000	0,000000	0,000000	0,000000	2020-11-19T14:39:54:030
0,000000	0,000000	0,000000	0,000000	2020-11-19T14:39:54:068
0,000000	0,000000	0,000000	0,000000	2020-11-19T14:39:54:107
0,000000	0,000000	0,000000	0,000000	2020-11-19T14:39:54:149
0,000000	0,000000	0,000000	0,000000	2020-11-19T14:39:54:189
0,000000	0,000000	0,000000	0,000000	2020-11-19T14:39:54:230
0,000000	0,000000	0,000000	0,000000	2020-11-19T14:39:54:270
0,000000	0,000000	0,000000	0,000000	2020-11-19T14:39:54:310
0,000000	0,000000	0,000000	0,000000	2020-11-19T14:39:54:349
0,000000	0,000000	0,000000	0,000000	2020-11-19T14:39:54:390
0,000000	0,000000	0,000000	0,000000	2020-11-19T14:39:54:429
0,000000	0,000000	0,000000	0,000000	2020-11-19T14:39:54:470
0,000000	0,000000	0,000000	0,000000	2020-11-19T14:39:54:510
0,000000	0,000000	0,000000	0,000000	2020-11-19T14:39:54:550
0,000000	0,000000	0,000000	0,000000	2020-11-19T14:39:54:590
0,000000	0,000000	0,000000	0,000000	2020-11-19T14:39:54:635
0,000000	0,000000	0,000000	0,000000	2020-11-19T14:39:54:679
0,000000	0,000000	0,000000	0,000000	2020-11-19T14:39:54:709
0,000000	0,000000	0,000000	0,000000	2020-11-19T14:39:54:750
0,000000	0,000000	0,000000	0,000000	2020-11-19T14:39:54:790
0,000000	0,000000	0,000000	0,000000	2020-11-19T14:39:54:830
0,000000	0,000000	0,000000	0,000000	2020-11-19T14:39:54:870
0,000000	0,000000	0,000000	0,000000	2020-11-19T14:39:54:910
0,000000	0,000000	0,000000	0,000000	2020-11-19T14:39:54:951
0,000000	0,000000	0,000000	0,000000	2020-11-19T14:39:54:991
0,000000	0,000000	0,000000	0,000000	2020-11-19T14:39:55:031
0,000000	0,000000	0,000000	0,000000	2020-11-19T14:39:55:077
0,000000	0,000000	0,000000	0,000000	2020-11-19T14:39:55:113
0,000000	0,000000	0,000000	0,000000	2020-11-19T14:39:55:151
0,000000	0,000000	0,000000	0,000000	2020-11-19T14:39:55:191
0,000000	0,000000	0,000000	0,000000	2020-11-19T14:39:55:231
0,000000	0,000000	0,000000	0,000000	2020-11-19T14:39:55:271
0,000000	0,000000	0,000000	0,000000	2020-11-19T14:39:55:311
0,000000	0,000000	0,000000	0,000000	2020-11-19T14:39:55:351
0,000000	0,000000	0,000000	0,000000	2020-11-19T14:39:55:390
0,000000	0,000000	0,000000	0,000000	2020-11-19T14:39:55:431
0,000000	0,000000	0,000000	0,000000	2020-11-19T14:39:55:472
0,000000	0,000000	0,000000	0,000000	2020-11-19T14:39:55:511
0,000000	0,000000	0,000000	0,000000	2020-11-19T14:39:55:551
0,000000	0,000000	0,000000	0,000000	2020-11-19T14:39:55:591
0,000000	0,000000	0,000000	0,000000	2020-11-19T14:39:55:631
0,000000	0,000000	0,000000	0,000000	2020-11-19T14:39:55:672
0,000000	0,000000	0,000000	0,000000	2020-11-19T14:39:55:712
0,000000	0,000000	0,000000	0,000000	2020-11-19T14:39:55:751
0,000000	0,000000	0,000000	0,000000	2020-11-19T14:39:55:791
0,000000	0,000000	0,000000	0,000000	2020-11-19T14:39:55:831
0,000000	0,000000	0,000000	0,000000	2020-11-19T14:39:55:872
0,000000	0,000000	0,000000	0,000000	2020-11-19T14:39:55:912
0,000000	0,000000	0,000000	0,000000	2020-11-19T14:39:55:952
0,000000	0,000000	0,000000	0,000000	2020-11-19T14:39:55:992
0,000000	0,000000	0,000000	0,000000	2020-11-19T14:39:56:032
0,000000	0,000000	0,000000	0,000000	2020-11-19T14:39:56:074
0,000000	0,000000	0,000000	0,000000	2020-11-19T14:39:56:112
0,000000	0,000000	0,000000	0,000000	2020-11-19T14:39:56:169
0,000000	0,000000	0,000000	0,000000	2020-11-19T14:39:56:192
0,000000	0,000000	0,000000	0,000000	2020-11-19T14:39:56:231
0,000000	0,000000	0,000000	0,000000	2020-11-19T14:39:56:273
0,000000	0,000000	0,000000	0,000000	2020-11-19T14:39:56:312
0,000000	0,000000	0,000000	0,000000	2020-11-19T14:39:56:353
0,000000	0,000000	0,000000	0,000000	2020-11-19T14:39:56:393
0,000000	0,000000	0,000000	0,000000	2020-11-19T14:39:56:433
0,000000	0,000000	0,000000	0,000000	2020-11-19T14:39:56:473
0,000000	0,000000	0,000000	0,000000	2020-11-19T14:39:56:512
0,000000	0,000000	0,000000	0,000000	2020-11-19T14:39:56:553
0,000000	0,000000	0,000000	0,000000	2020-11-19T14:39:56:593
0,000000	0,000000	0,000000	0,000000	2020-11-19T14:39:56:633
0,000000	0,000000	0,000000	0,000000	2020-11-19T14:39:56:673
0,000000	0,000000	0,000000	0,000000	2020-11-19T14:39:56:713
0,000000	0,000000	0,000000	0,000000	2020-11-19T14:39:56:753
0,000000	0,000000	0,000000	0,000000	2020-11-19T14:39:56:793
0,000000	0,000000	0,000000	0,000000	2020-11-19T14:39:56:833
0,000000	0,000000	0,000000	0,000000	2020-11-19T14:39:56:873
0,000000	0,000000	0,000000	0,000000	2020-11-19T14:39:56:913
0,000000	0,000000	0,000000	0,000000	2020-11-19T14:39:56:953
0,000000	0,000000	0,000000	0,000000	2020-11-19T14:39:56:993
0,000000	0,000000	0,000000	0,000000	2020-11-19T14:39:57:033
0,000000	0,000000	0,000000	0,000000	2020-11-19T14:39:57:075
0,000000	0,000000	0,000000	0,000000	2020-11-19T14:39:57:113
0,000000	0,000000	0,000000	0,000000	2020-11-19T14:39:57:153
0,000000	0,000000	0,000000	0,000000	2020-11-19T14:39:57:193
0,000000	0,000000	0,000000	0,000000	2020-11-19T14:39:57:233
0,000000	0,000000	0,000000	0,000000	2020-11-19T14:39:57:274
0,000000	0,000000	0,000000	0,000000	2020-11-19T14:39:57:313
0,000000	0,000000	0,000000	0,000000	2020-11-19T14:39:57:353
0,000000	0,000000	0,000000	0,000000	2020-11-19T14:39:57:394
0,000000	0,000000	0,000000	0,000000	2020-11-19T14:39:57:434
0,000000	0,000000	0,000000	0,000000	2020-11-19T14:39:57:474
0,000000	0,000000	0,000000	0,000000	2020-11-19T14:39:57:513
0,000000	0,000000	0,000000	0,000000	2020-11-19T14:39:57:554
0,000000	0,000000	0,000000	0,000000	2020-11-19T14:39:57:593
0,000000	0,000000	0,000000	0,000000	2020-11-19T14:39:57:634
0,000000	0,000000	0,000000	0,000000	2020-11-19T14:39:57:674
0,000000	0,000000	0,000000	0,000000	2020-11-19T14:39:57:714
0,000000	0,000000	0,000000	0,000000	2020-11-19T14:39:57:754
0,000000	0,000000	0,000000	0,000000	2020-11-19T14:39:57:794
0,000000	0,000000	0,000000	0,000000	2020-11-19T14:39:57:834
0,000000	0,000000	0,000000	0,000000	2020-11-19T14:39:57:876
0,000000	0,000000	0,000000	0,000000	2020-11-19T14:39:57:914
0,000000	0,000000	0,000000	0,000000	2020-11-19T14:39:57:954
0,000000	0,000000	0,000000	0,000000	2020-11-19T14:39:57:994
0,000000	0,000000	0,000000	0,000000	2020-11-19T14:39:58:035
0,000000	0,000000	0,000000	0,000000	2020-11-19T14:39:58:075
0,000000	0,000000	0,000000	0,000000	2020-11-19T14:39:58:115
0,000000	0,000000	0,000000	0,000000	2020-11-19T14:39:58:155
0,000000	0,000000	0,000000	0,000000	2020-11-19T14:39:58:195
0,000000	0,000000	0,000000	0,000000	2020-11-19T14:39:58:235
0,000000	0,000000	0,000000	0,000000	2020-11-19T14:39:58:275
0,000000	0,000000	0,000000	0,000000	2020-11-19T14:39:58:315
0,000000	0,000000	0,000000	0,000000	2020-11-19T14:39:58:356
0,000000	0,000000	0,000000	0,000000	2020-11-19T14:39:58:395
0,000000	0,000000	0,000000	0,000000	2020-11-19T14:39:58:435
0,000000	0,000000	0,000000	0,000000	2020-11-19T14:39:58:475
0,000000	0,000000	0,000000	0,000000	2020-11-19T14:39:58:516
0,000000	0,000000	0,000000	0,000000	2020-11-19T14:39:58:555
0,000000	0,000000	0,000000	0,000000	2020-11-19T14:39:58:595
0,000000	0,000000	0,000000	0,000000	2020-11-19T14:39:58:635
0,000000	0,000000	0,000000	0,000000	2020-11-19T14:39:58:676
0,000000	0,000000	0,000000	0,000000	2020-11-19T14:39:58:727
0,000000	0,000000	0,000000	0,000000	2020-11-19T14:39:58:755
0,000000	0,000000	0,000000	0,000000	2020-11-19T14:39:58:795
0,000000	0,000000	0,000000	0,000000	2020-11-19T14:39:58:836
0,000000	0,000000	0,000000	0,000000	2020-11-19T14:39:58:876
0,000000	0,000000	0,000000	0,000000	2020-11-19T14:39:58:916
0,000000	0,000000	0,000000	0,000000	2020-11-19T14:39:58:955
0,000000	0,000000	0,000000	0,000000	2020-11-19T14:39:58:997
0,000000	0,000000	0,000000	0,000000	2020-11-19T14:39:59:035
0,000000	0,000000	0,000000	0,000000	2020-11-19T14:39:59:077
0,000000	0,000000	0,000000	0,000000	2020-11-19T14:39:59:115
0,000000	0,000000	0,000000	0,000000	2020-11-19T14:39:59:156
0,000000	0,000000	0,000000	0,000000	2020-11-19T14:39:59:196
0,000000	0,000000	0,000000	0,000000	2020-11-19T14:39:59:237
0,000000	0,000000	0,000000	0,000000	2020-11-19T14:39:59:276
0,000000	0,000000	0,000000	0,000000	2020-11-19T14:39:59:317
0,000000	0,000000	0,000000	0,000000	2020-11-19T14:39:59:356
0,000000	0,000000	0,000000	0,000000	2020-11-19T14:39:59:396
0,000000	0,000000	0,000000	0,000000	2020-11-19T14:39:59:436
0,000000	0,000000	0,000000	0,000000	2020-11-19T14:39:59:477
0,000000	0,000000	0,000000	0,000000	2020-11-19T14:39:59:516
0,000000	0,000000	0,000000	0,000000	2020-11-19T14:39:59:557
0,000000	0,000000	0,000000	0,000000	2020-11-19T14:39:59:596
0,000000	0,000000	0,000000	0,000000	2020-11-19T14:39:59:637
0,000000	0,000000	0,000000	0,000000	2020-11-19T14:39:59:676
0,000000	0,000000	0,000000	0,000000	2020-11-19T14:39:59:719
0,000000	0,000000	0,000000	0,000000	2020-11-19T14:39:59:756
0,000000	0,000000	0,000000	0,000000	2020-11-19T14:39:59:797
0,000000	0,000000	0,000000	0,000000	2020-11-19T14:39:59:836
0,000000	0,000000	0,000000	0,000000	2020-11-19T14:39:59:877
0,000000	0,000000	0,000000	0,000000	2020-11-19T14:39:59:916
0,000000	0,000000	0,000000	0,000000	2020-11-19T14:39:59:957
0,000000	0,000000	0,000000	0,000000	2020-11-19T14:39:59:996
0,000000	0,000000	0,000000	0,000000	2020-11-19T14:40:00:037
0,000000	0,000000	0,000000	0,000000	2020-11-19T14:40:00:077
0,000000	0,000000	0,000000	0,000000	2020-11-19T14:40:00:117
0,000000	0,000000	0,000000	0,000000	2020-11-19T14:40:00:156
0,000000	0,000000	0,000000	0,000000	2020-11-19T14:40:00:197
0,000000	0,000000	0,000000	0,000000	2020-11-19T14:40:00:236
0,000000	0,000000	0,000000	0,000000	2020-11-19T14:40:00:277
0,000000	0,000000	0,000000	0,000000	2020-11-19T14:40:00:317
0,000000	0,000000	0,000000	0,000000	2020-11-19T14:40:00:357
0,000000	0,000000	0,000000	0,000000	2020-11-19T14:40:00:396
0,000000	0,000000	0,000000	0,000000	2020-11-19T14:40:00:437
0,000000	0,000000	0,000000	0,000000	2020-11-19T14:40:00:476
0,000000	0,000000	0,000000	0,000000	2020-11-19T14:40:00:517
0,000000	0,000000	0,000000	0,000000	2020-11-19T14:40:00:557
0,000000	0,000000	0,000000	0,000000	2020-11-19T14:40:00:597
0,000000	0,000000	0,000000	0,000000	2020-11-19T14:40:00:636
0,000000	0,000000	0,000000	0,000000	2020-11-19T14:40:00:678
0,000000	0,000000	0,000000	0,000000	2020-11-19T14:40:00:717
0,000000	0,000000	0,000000	0,000000	2020-11-19T14:40:00:758
0,000000	0,000000	0,000000	0,000000	2020-11-19T14:40:00:798
0,000000	0,000000	0,000000	0,000000	2020-11-19T14:40:00:838
0,000000	0,000000	0,000000	0,000000	2020-11-19T14:40:00:878
0,000000	0,000000	0,000000	0,000000	2020-11-19T14:40:00:918
0,000000	0,000000	0,000000	0,000000	2020-11-19T14:40:00:957
0,000000	0,000000	0,000000	0,000000	2020-11-19T14:40:00:998
0,000000	0,000000	0,000000	0,000000	2020-11-19T14:40:01:037
0,000000	0,000000	0,000000	0,000000	2020-11-19T14:40:01:079
0,000000	0,000000	0,000000	0,000000	2020-11-19T14:40:01:118
0,000000	0,000000	0,000000	0,000000	2020-11-19T14:40:01:158
0,000000	0,000000	0,000000	0,000000	2020-11-19T14:40:01:198
0,000000	0,000000	0,000000	0,000000	2020-11-19T14:40:01:238
0,000000	0,000000	0,000000	0,000000	2020-11-19T14:40:01:278
0,000000	0,000000	0,000000	0,000000	2020-11-19T14:40:01:318
0,000000	0,000000	0,000000	0,000000	2020-11-19T14:40:01:357
0,000000	0,000000	0,000000	0,000000	2020-11-19T14:40:01:398
0,000000	0,000000	0,000000	0,000000	2020-11-19T14:40:01:437
0,000000	0,000000	0,000000	0,000000	2020-11-19T14:40:01:479
0,000000	0,000000	0,000000	0,000000	2020-11-19T14:40:01:519
0,000000	0,000000	0,000000	0,000000	2020-11-19T14:40:01:558
0,000000	0,000000	0,000000	0,000000	2020-11-19T14:40:01:597
0,000000	0,000000	0,000000	0,000000	2020-11-19T14:40:01:638
0,000000	0,000000	0,000000	0,000000	2020-11-19T14:40:01:678
0,000000	0,000000	0,000000	0,000000	2020-11-19T14:40:01:718
0,000000	0,000000	0,000000	0,000000	2020-11-19T14:40:01:758
0,000000	0,000000	0,000000	0,000000	2020-11-19T14:40:01:798
0,000000	0,000000	0,000000	0,000000	2020-11-19T14:40:01:838
0,000000	0,000000	0,000000	0,000000	2020-11-19T14:40:01:880
0,000000	0,000000	0,000000	0,000000	2020-11-19T14:40:01:917
0,000000	0,000000	0,000000	0,000000	2020-11-19T14:40:01:959
0,000000	0,000000	0,000000	0,000000	2020-11-19T14:40:01:998
0,000000	0,000000	0,000000	0,000000	2020-11-19T14:40:02:039
0,000000	0,000000	0,000000	0,000000	2020-11-19T14:40:02:078
0,000000	0,000000	0,000000	0,000000	2020-11-19T14:40:02:119
0,000000	0,000000	0,000000	0,000000	2020-11-19T14:40:02:158
0,000000	0,000000	0,000000	0,000000	2020-11-19T14:40:02:199
0,000000	0,000000	0,000000	0,000000	2020-11-19T14:40:02:238
0,000000	0,000000	0,000000	0,000000	2020-11-19T14:40:02:279
0,000000	0,000000	0,000000	0,000000	2020-11-19T14:40:02:318
0,000000	0,000000	0,000000	0,000000	2020-11-19T14:40:02:359
0,000000	0,000000	0,000000	0,000000	2020-11-19T14:40:02:398
0,000000	0,000000	0,000000	0,000000	2020-11-19T14:40:02:439
0,000000	0,000000	0,000000	0,000000	2020-11-19T14:40:02:479
0,000000	0,000000	0,000000	0,000000	2020-11-19T14:40:02:519
0,000000	0,000000	0,000000	0,000000	2020-11-19T14:40:02:559
0,000000	0,000000	0,000000	0,000000	2020-11-19T14:40:02:599
0,000000	0,000000	0,000000	0,000000	2020-11-19T14:40:02:639
0,000000	0,000000	0,000000	0,000000	2020-11-19T14:40:02:680
0,000000	0,000000	0,000000	0,000000	2020-11-19T14:40:02:719
0,000000	0,000000	0,000000	0,000000	2020-11-19T14:40:02:759
0,000000	0,000000	0,000000	0,000000	2020-11-19T14:40:02:799
0,000000	0,000000	0,000000	0,000000	2020-11-19T14:40:02:840
0,000000	0,000000	0,000000	0,000000	2020-11-19T14:40:02:881
0,000000	0,000000	0,000000	0,000000	2020-11-19T14:40:02:920
0,000000	0,000000	0,000000	0,000000	2020-11-19T14:40:02:959
0,000000	0,000000	0,000000	0,000000	2020-11-19T14:40:03:000
0,000000	0,000000	0,000000	0,000000	2020-11-19T14:40:03:039
0,000000	0,000000	0,000000	0,000000	2020-11-19T14:40:03:080
0,000000	0,000000	0,000000	0,000000	2020-11-19T14:40:03:119
0,000000	0,000000	0,000000	0,000000	2020-11-19T14:40:03:160
0,000000	0,000000	0,000000	0,000000	2020-11-19T14:40:03:199
0,000000	0,000000	0,000000	0,000000	2020-11-19T14:40:03:240
0,000000	0,000000	0,000000	0,000000	2020-11-19T14:40:03:279
0,000000	0,000000	0,000000	0,000000	2020-11-19T14:40:03:320
0,000000	0,000000	0,000000	0,000000	2020-11-19T14:40:03:359
0,000000	0,000000	0,000000	0,000000	2020-11-19T14:40:03:400
0,000000	0,000000	0,000000	0,000000	2020-11-19T14:40:03:440
0,000000	0,000000	0,000000	0,000000	2020-11-19T14:40:03:481
0,000000	0,000000	0,000000	0,000000	2020-11-19T14:40:03:519
0,000000	0,000000	0,000000	0,000000	2020-11-19T14:40:03:560
0,000000	0,000000	0,000000	0,000000	2020-11-19T14:40:03:599
0,000000	0,000000	0,000000	0,000000	2020-11-19T14:40:03:640
0,000000	0,000000	0,000000	0,000000	2020-11-19T14:40:03:680
0,000000	0,000000	0,000000	0,000000	2020-11-19T14:40:03:721
0,000000	0,000000	0,000000	0,000000	2020-11-19T14:40:03:759
0,000000	0,000000	0,000000	0,000000	2020-11-19T14:40:03:800
0,000000	0,000000	0,000000	0,000000	2020-11-19T14:40:03:840
0,000000	0,000000	0,000000	0,000000	2020-11-19T14:40:03:881
0,000000	0,000000	0,000000	0,000000	2020-11-19T14:40:03:920
0,000000	0,000000	0,000000	0,000000	2020-11-19T14:40:03:960
0,000000	0,000000	0,000000	0,000000	2020-11-19T14:40:03:999
0,000000	0,000000	0,000000	0,000000	2020-11-19T14:40:04:041
0,000000	0,000000	0,000000	0,000000	2020-11-19T14:40:04:083
0,000000	0,000000	0,000000	0,000000	2020-11-19T14:40:04:120
0,000000	0,000000	0,000000	0,000000	2020-11-19T14:40:04:160
0,000000	0,000000	0,000000	0,000000	2020-11-19T14:40:04:201
0,000000	0,000000	0,000000	0,000000	2020-11-19T14:40:04:240
0,000000	0,000000	0,000000	0,000000	2020-11-19T14:40:04:281
0,000000	0,000000	0,000000	0,000000	2020-11-19T14:40:04:320
0,000000	0,000000	0,000000	0,000000	2020-11-19T14:40:04:361
0,000000	0,000000	0,000000	0,000000	2020-11-19T14:40:04:400
0,000000	0,000000	0,000000	0,000000	2020-11-19T14:40:04:441
0,000000	0,000000	0,000000	0,000000	2020-11-19T14:40:04:481
0,000000	0,000000	0,000000	0,000000	2020-11-19T14:40:04:521
0,000000	0,000000	0,000000	0,000000	2020-11-19T14:40:04:561
0,000000	0,000000	0,000000	0,000000	2020-11-19T14:40:04:601
0,000000	0,000000	0,000000	0,000000	2020-11-19T14:40:04:641
0,000000	0,000000	0,000000	0,000000	2020-11-19T14:40:04:681
0,000000	0,000000	0,000000	0,000000	2020-11-19T14:40:04:722
0,000000	0,000000	0,000000	0,000000	2020-11-19T14:40:04:762
0,000000	0,000000	0,000000	0,000000	2020-11-19T14:40:04:801
0,000000	0,000000	0,000000	0,000000	2020-11-19T14:40:04:842
0,000000	0,000000	0,000000	0,000000	2020-11-19T14:40:04:881
0,000000	0,000000	0,000000	0,000000	2020-11-19T14:40:04:921
0,000000	0,000000	0,000000	0,000000	2020-11-19T14:40:04:961
0,000000	0,000000	0,000000	0,000000	2020-11-19T14:40:05:002
0,000000	0,000000	0,000000	0,000000	2020-11-19T14:40:05:041
0,000000	0,000000	0,000000	0,000000	2020-11-19T14:40:05:082
0,000000	0,000000	0,000000	0,000000	2020-11-19T14:40:05:121
0,000000	0,000000	0,000000	0,000000	2020-11-19T14:40:05:162
0,000000	0,000000	0,000000	0,000000	2020-11-19T14:40:05:201
0,000000	0,000000	0,000000	0,000000	2020-11-19T14:40:05:242
0,000000	0,000000	0,000000	0,000000	2020-11-19T14:40:05:282
0,000000	0,000000	0,000000	0,000000	2020-11-19T14:40:05:322
0,000000	0,000000	0,000000	0,000000	2020-11-19T14:40:05:362
0,000000	0,000000	0,000000	0,000000	2020-11-19T14:40:05:402
0,000000	0,000000	0,000000	0,000000	2020-11-19T14:40:05:441
0,000000	0,000000	0,000000	0,000000	2020-11-19T14:40:05:482
0,000000	0,000000	0,000000	0,000000	2020-11-19T14:40:05:521
0,000000	0,000000	0,000000	0,000000	2020-11-19T14:40:05:563
0,000000	0,000000	0,000000	0,000000	2020-11-19T14:40:05:602
0,000000	0,000000	0,000000	0,000000	2020-11-19T14:40:05:642
0,000000	0,000000	0,000000	0,000000	2020-11-19T14:40:05:682
0,000000	0,000000	0,000000	0,000000	2020-11-19T14:40:05:722
0,000000	0,000000	0,000000	0,000000	2020-11-19T14:40:05:762
0,000000	0,000000	0,000000	0,000000	2020-11-19T14:40:05:803
0,000000	0,000000	0,000000	0,000000	2020-11-19T14:40:05:842
0,000000	0,000000	0,000000	0,000000	2020-11-19T14:40:05:883
0,000000	0,000000	0,000000	0,000000	2020-11-19T14:40:05:922
0,000000	0,000000	0,000000	0,000000	2020-11-19T14:40:05:963
0,000000	0,000000	0,000000	0,000000	2020-11-19T14:40:06:002
0,000000	0,000000	0,000000	0,000000	2020-11-19T14:40:06:043
0,000000	0,000000	0,000000	0,000000	2020-11-19T14:40:06:082
0,000000	0,000000	0,000000	0,000000	2020-11-19T14:40:06:123
0,000000	0,000000	0,000000	0,000000	2020-11-19T14:40:06:162
0,000000	0,000000	0,000000	0,000000	2020-11-19T14:40:06:204
0,000000	0,000000	0,000000	0,000000	2020-11-19T14:40:06:242
0,000000	0,000000	0,000000	0,000000	2020-11-19T14:40:06:284
0,000000	0,000000	0,000000	0,000000	2020-11-19T14:40:06:322
0,000000	0,000000	0,000000	0,000000	2020-11-19T14:40:06:363
0,000000	0,000000	0,000000	0,000000	2020-11-19T14:40:06:402
0,000000	0,000000	0,000000	0,000000	2020-11-19T14:40:06:443
0,000000	0,000000	0,000000	0,000000	2020-11-19T14:40:06:483
0,000000	0,000000	0,000000	0,000000	2020-11-19T14:40:06:523
0,000000	0,000000	0,000000	0,000000	2020-11-19T14:40:06:563
0,000000	0,000000	0,000000	0,000000	2020-11-19T14:40:06:603
0,000000	0,000000	0,000000	0,000000	2020-11-19T14:40:06:643
0,000000	0,000000	0,000000	0,000000	2020-11-19T14:40:06:684
0,000000	0,000000	0,000000	0,000000	2020-11-19T14:40:06:722
0,000000	0,000000	0,000000	0,000000	2020-11-19T14:40:06:764
0,000000	0,000000	0,000000	0,000000	2020-11-19T14:40:06:802
0,000000	0,000000	0,000000	0,000000	2020-11-19T14:40:06:843
0,000000	0,000000	0,000000	0,000000	2020-11-19T14:40:06:883
0,000000	0,000000	0,000000	0,000000	2020-11-19T14:40:06:923
0,000000	0,000000	0,000000	0,000000	2020-11-19T14:40:06:963
0,000000	0,000000	0,000000	0,000000	2020-11-19T14:40:07:004
0,000000	0,000000	0,000000	0,000000	2020-11-19T14:40:07:043
0,000000	0,000000	0,000000	0,000000	2020-11-19T14:40:07:083
0,000000	0,000000	0,000000	0,000000	2020-11-19T14:40:07:123
0,000000	0,000000	0,000000	0,000000	2020-11-19T14:40:07:164
0,000000	0,000000	0,000000	0,000000	2020-11-19T14:40:07:203
0,000000	0,000000	0,000000	0,000000	2020-11-19T14:40:07:244
0,000000	0,000000	0,000000	0,000000	2020-11-19T14:40:07:283
0,000000	0,000000	0,000000	0,000000	2020-11-19T14:40:07:324
0,000000	0,000000	0,000000	0,000000	2020-11-19T14:40:07:363
0,000000	0,000000	0,000000	0,000000	2020-11-19T14:40:07:404
0,000000	0,000000	0,000000	0,000000	2020-11-19T14:40:07:443
0,000000	0,000000	0,000000	0,000000	2020-11-19T14:40:07:485
0,000000	0,000000	0,000000	0,000000	2020-11-19T14:40:07:524
0,000000	0,000000	0,000000	0,000000	2020-11-19T14:40:07:564
0,000000	0,000000	0,000000	0,000000	2020-11-19T14:40:07:603
0,000000	0,000000	0,000000	0,000000	2020-11-19T14:40:07:644
0,000000	0,000000	0,000000	0,000000	2020-11-19T14:40:07:684
0,000000	0,000000	0,000000	0,000000	2020-11-19T14:40:07:725
0,000000	0,000000	0,000000	0,000000	2020-11-19T14:40:07:764
0,000000	0,000000	0,000000	0,000000	2020-11-19T14:40:07:804
0,000000	0,000000	0,000000	0,000000	2020-11-19T14:40:07:844
0,000000	0,000000	0,000000	0,000000	2020-11-19T14:40:07:886
0,000000	0,000000	0,000000	0,000000	2020-11-19T14:40:07:923
0,000000	0,000000	0,000000	0,000000	2020-11-19T14:40:07:965
0,000000	0,000000	0,000000	0,000000	2020-11-19T14:40:08:004
0,000000	0,000000	0,000000	0,000000	2020-11-19T14:40:08:045
0,000000	0,000000	0,000000	0,000000	2020-11-19T14:40:08:084
0,000000	0,000000	0,000000	0,000000	2020-11-19T14:40:08:125
0,000000	0,000000	0,000000	0,000000	2020-11-19T14:40:08:164
0,000000	0,000000	0,000000	0,000000	2020-11-19T14:40:08:205
0,000000	0,000000	0,000000	0,000000	2020-11-19T14:40:08:244
0,000000	0,000000	0,000000	0,000000	2020-11-19T14:40:08:285
0,000000	0,000000	0,000000	0,000000	2020-11-19T14:40:08:324
0,000000	0,000000	0,000000	0,000000	2020-11-19T14:40:08:365
0,000000	0,000000	0,000000	0,000000	2020-11-19T14:40:08:404
0,000000	0,000000	0,000000	0,000000	2020-11-19T14:40:08:445
0,000000	0,000000	0,000000	0,000000	2020-11-19T14:40:08:485
0,000000	0,000000	0,000000	0,000000	2020-11-19T14:40:08:525
0,000000	0,000000	0,000000	0,000000	2020-11-19T14:40:08:565
0,000000	0,000000	0,000000	0,000000	2020-11-19T14:40:08:605
0,000000	0,000000	0,000000	0,000000	2020-11-19T14:40:08:646
0,000000	0,000000	0,000000	0,000000	2020-11-19T14:40:08:687
0,000000	0,000000	0,000000	0,000000	2020-11-19T14:40:08:725
0,000000	0,000000	0,000000	0,000000	2020-11-19T14:40:08:765
0,000000	0,000000	0,000000	0,000000	2020-11-19T14:40:08:805
0,000000	0,000000	0,000000	0,000000	2020-11-19T14:40:08:846
0,000000	0,000000	0,000000	0,000000	2020-11-19T14:40:08:885
0,000000	0,000000	0,000000	0,000000	2020-11-19T14:40:08:926
0,000000	0,000000	0,000000	0,000000	2020-11-19T14:40:08:965
0,000000	0,000000	0,000000	0,000000	2020-11-19T14:40:09:005
0,000000	0,000000	0,000000	0,000000	2020-11-19T14:40:09:045
0,000000	0,000000	0,000000	0,000000	2020-11-19T14:40:09:086
0,000000	0,000000	0,000000	0,000000	2020-11-19T14:40:09:125
0,000000	0,000000	0,000000	0,000000	2020-11-19T14:40:09:166
0,000000	0,000000	0,000000	0,000000	2020-11-19T14:40:09:205
0,000000	0,000000	0,000000	0,000000	2020-11-19T14:40:09:246
0,000000	0,000000	0,000000	0,000000	2020-11-19T14:40:09:285
0,000000	0,000000	0,000000	0,000000	2020-11-19T14:40:09:326
0,000000	0,000000	0,000000	0,000000	2020-11-19T14:40:09:365
0,000000	0,000000	0,000000	0,000000	2020-11-19T14:40:09:406
0,000000	0,000000	0,000000	0,000000	2020-11-19T14:40:09:445
0,000000	0,000000	0,000000	0,000000	2020-11-19T14:40:09:486
0,000000	0,000000	0,000000	0,000000	2020-11-19T14:40:09:525
0,000000	0,000000	0,000000	0,000000	2020-11-19T14:40:09:566
0,000000	0,000000	0,000000	0,000000	2020-11-19T14:40:09:605
0,000000	0,000000	0,000000	0,000000	2020-11-19T14:40:09:646
0,000000	0,000000	0,000000	0,000000	2020-11-19T14:40:09:686
0,000000	0,000000	0,000000	0,000000	2020-11-19T14:40:09:728
0,000000	0,000000	0,000000	0,000000	2020-11-19T14:40:09:766
0,000000	0,000000	0,000000	0,000000	2020-11-19T14:40:09:807
0,000000	0,000000	0,000000	0,000000	2020-11-19T14:40:09:846
0,000000	0,000000	0,000000	0,000000	2020-11-19T14:40:09:887
0,000000	0,000000	0,000000	0,000000	2020-11-19T14:40:09:926
0,000000	0,000000	0,000000	0,000000	2020-11-19T14:40:09:967
0,000000	0,000000	0,000000	0,000000	2020-11-19T14:40:10:006
0,000000	0,000000	0,000000	0,000000	2020-11-19T14:40:10:047
0,000000	0,000000	0,000000	0,000000	2020-11-19T14:40:10:087
0,000000	0,000000	0,000000	0,000000	2020-11-19T14:40:10:127
0,000000	0,000000	0,000000	0,000000	2020-11-19T14:40:10:166
0,000000	0,000000	0,000000	0,000000	2020-11-19T14:40:10:207
0,000000	0,000000	0,000000	0,000000	2020-11-19T14:40:10:246
0,000000	0,000000	0,000000	0,000000	2020-11-19T14:40:10:287
0,000000	0,000000	0,000000	0,000000	2020-11-19T14:40:10:325
0,000000	0,000000	0,000000	0,000000	2020-11-19T14:40:10:367
0,000000	0,000000	0,000000	0,000000	2020-11-19T14:40:10:405
0,000000	0,000000	0,000000	0,000000	2020-11-19T14:40:10:447
0,000000	0,000000	0,000000	0,000000	2020-11-19T14:40:10:487
0,000000	0,000000	0,000000	0,000000	2020-11-19T14:40:10:527
0,000000	0,000000	0,000000	0,000000	2020-11-19T14:40:10:567
0,000000	0,000000	0,000000	0,000000	2020-11-19T14:40:10:608
0,000000	0,000000	0,000000	0,000000	2020-11-19T14:40:10:647
0,000000	0,000000	0,000000	0,000000	2020-11-19T14:40:10:687
0,000000	0,000000	0,000000	0,000000	2020-11-19T14:40:10:727
0,000000	0,000000	0,000000	0,000000	2020-11-19T14:40:10:768
0,000000	0,000000	0,000000	0,000000	2020-11-19T14:40:10:807
0,000000	0,000000	0,000000	0,000000	2020-11-19T14:40:10:848
0,000000	0,000000	0,000000	0,000000	2020-11-19T14:40:10:887
0,000000	0,000000	0,000000	0,000000	2020-11-19T14:40:10:927
0,000000	0,000000	0,000000	0,000000	2020-11-19T14:40:10:967
0,000000	0,000000	0,000000	0,000000	2020-11-19T14:40:11:008
0,000000	0,000000	0,000000	0,000000	2020-11-19T14:40:11:047
0,000000	0,000000	0,000000	0,000000	2020-11-19T14:40:11:089
0,000000	0,000000	0,000000	0,000000	2020-11-19T14:40:11:127
0,000000	0,000000	0,000000	0,000000	2020-11-19T14:40:11:168
0,000000	0,000000	0,000000	0,000000	2020-11-19T14:40:11:208
0,000000	0,000000	0,000000	0,000000	2020-11-19T14:40:11:248
0,000000	0,000000	0,000000	0,000000	2020-11-19T14:40:11:288
0,000000	0,000000	0,000000	0,000000	2020-11-19T14:40:11:329
0,000000	0,000000	0,000000	0,000000	2020-11-19T14:40:11:367
0,000000	0,000000	0,000000	0,000000	2020-11-19T14:40:11:408
0,000000	0,000000	0,000000	0,000000	2020-11-19T14:40:11:448
0,000000	0,000000	0,000000	0,000000	2020-11-19T14:40:11:489
0,000000	0,000000	0,000000	0,000000	2020-11-19T14:40:11:527
0,000000	0,000000	0,000000	0,000000	2020-11-19T14:40:11:568
0,000000	0,000000	0,000000	0,000000	2020-11-19T14:40:11:608
0,000000	0,000000	0,000000	0,000000	2020-11-19T14:40:11:648
0,000000	0,000000	0,000000	0,000000	2020-11-19T14:40:11:688
0,000000	0,000000	0,000000	0,000000	2020-11-19T14:40:11:729
0,000000	0,000000	0,000000	0,000000	2020-11-19T14:40:11:768
0,000000	0,000000	0,000000	0,000000	2020-11-19T14:40:11:808
0,000000	0,000000	0,000000	0,000000	2020-11-19T14:40:11:848
0,000000	0,000000	0,000000	0,000000	2020-11-19T14:40:11:890
0,000000	0,000000	0,000000	0,000000	2020-11-19T14:40:11:928
0,000000	0,000000	0,000000	0,000000	2020-11-19T14:40:11:969
0,000000	0,000000	0,000000	0,000000	2020-11-19T14:40:12:008
0,000000	0,000000	0,000000	0,000000	2020-11-19T14:40:12:049
0,000000	0,000000	0,000000	0,000000	2020-11-19T14:40:12:099
0,000000	0,000000	0,000000	0,000000	2020-11-19T14:40:12:129
0,000000	0,000000	0,000000	0,000000	2020-11-19T14:40:12:168
0,000000	0,000000	0,000000	0,000000	2020-11-19T14:40:12:209
0,000000	0,000000	0,000000	0,000000	2020-11-19T14:40:12:248
0,000000	0,000000	0,000000	0,000000	2020-11-19T14:40:12:289
0,000000	0,000000	0,000000	0,000000	2020-11-19T14:40:12:329
0,000000	0,000000	0,000000	0,000000	2020-11-19T14:40:12:369
0,000000	0,000000	0,000000	0,000000	2020-11-19T14:40:12:409
0,000000	0,000000	0,000000	0,000000	2020-11-19T14:40:12:449
0,000000	0,000000	0,000000	0,000000	2020-11-19T14:40:12:489
0,000000	0,000000	0,000000	0,000000	2020-11-19T14:40:12:529
0,000000	0,000000	0,000000	0,000000	2020-11-19T14:40:12:569
0,000000	0,000000	0,000000	0,000000	2020-11-19T14:40:12:609
0,000000	0,000000	0,000000	0,000000	2020-11-19T14:40:12:649
0,000000	0,000000	0,000000	0,000000	2020-11-19T14:40:12:690
0,000000	0,000000	0,000000	0,000000	2020-11-19T14:40:12:729
0,000000	0,000000	0,000000	0,000000	2020-11-19T14:40:12:770
0,000000	0,000000	0,000000	0,000000	2020-11-19T14:40:12:809
0,000000	0,000000	0,000000	0,000000	2020-11-19T14:40:12:849
0,000000	0,000000	0,000000	0,000000	2020-11-19T14:40:12:889
0,000000	0,000000	0,000000	0,000000	2020-11-19T14:40:12:929
0,000000	0,000000	0,000000	0,000000	2020-11-19T14:40:12:968
0,000000	0,000000	0,000000	0,000000	2020-11-19T14:40:13:009
0,000000	0,000000	0,000000	0,000000	2020-11-19T14:40:13:049
0,000000	0,000000	0,000000	0,000000	2020-11-19T14:40:13:090
0,000000	0,000000	0,000000	0,000000	2020-11-19T14:40:13:129
0,000000	0,000000	0,000000	0,000000	2020-11-19T14:40:13:169
0,000000	0,000000	0,000000	0,000000	2020-11-19T14:40:13:209
0,000000	0,000000	0,000000	0,000000	2020-11-19T14:40:13:250
0,000000	0,000000	0,000000	0,000000	2020-11-19T14:40:13:289
0,000000	0,000000	0,000000	0,000000	2020-11-19T14:40:13:329
0,000000	0,000000	0,000000	0,000000	2020-11-19T14:40:13:369
0,000000	0,000000	0,000000	0,000000	2020-11-19T14:40:13:409
0,000000	0,000000	0,000000	0,000000	2020-11-19T14:40:13:449
0,000000	0,000000	0,000000	0,000000	2020-11-19T14:40:13:490
0,000000	0,000000	0,000000	0,000000	2020-11-19T14:40:13:528
0,000000	0,000000	0,000000	0,000000	2020-11-19T14:40:13:570
0,000000	0,000000	0,000000	0,000000	2020-11-19T14:40:13:609
0,000000	0,000000	0,000000	0,000000	2020-11-19T14:40:13:650
0,000000	0,000000	0,000000	0,000000	2020-11-19T14:40:13:689
0,000000	0,000000	0,000000	0,000000	2020-11-19T14:40:13:731
0,000000	0,000000	0,000000	0,000000	2020-11-19T14:40:13:769
0,000000	0,000000	0,000000	0,000000	2020-11-19T14:40:13:812
0,000000	0,000000	0,000000	0,000000	2020-11-19T14:40:13:850
0,000000	0,000000	0,000000	0,000000	2020-11-19T14:40:13:891
0,000000	0,000000	0,000000	0,000000	2020-11-19T14:40:13:930
0,000000	0,000000	0,000000	0,000000	2020-11-19T14:40:13:970
0,000000	0,000000	0,000000	0,000000	2020-11-19T14:40:14:010
0,000000	0,000000	0,000000	0,000000	2020-11-19T14:40:14:055
0,000000	0,000000	0,000000	0,000000	2020-11-19T14:40:14:170
0,000000	0,000000	0,000000	0,000000	2020-11-19T14:40:14:171
0,000000	0,000000	0,000000	0,000000	2020-11-19T14:40:14:174
0,000000	0,000000	0,000000	0,000000	2020-11-19T14:40:14:245
0,000000	0,000000	0,000000	0,000000	2020-11-19T14:40:14:254
0,000000	0,000000	0,000000	0,000000	2020-11-19T14:40:14:313
0,000000	0,000000	0,000000	0,000000	2020-11-19T14:40:14:350
0,000000	0,000000	0,000000	0,000000	2020-11-19T14:40:14:370
0,000000	0,000000	0,000000	0,000000	2020-11-19T14:40:14:408
0,000000	0,000000	0,000000	0,000000	2020-11-19T14:40:14:452
0,000000	0,000000	0,000000	0,000000	2020-11-19T14:40:14:490
0,000000	0,000000	0,000000	0,000000	2020-11-19T14:40:14:531
0,000000	0,000000	0,000000	0,000000	2020-11-19T14:40:14:570
0,000000	0,000000	0,000000	0,000000	2020-11-19T14:40:14:611
0,000000	0,000000	0,000000	0,000000	2020-11-19T14:40:14:654
0,000000	0,000000	0,000000	0,000000	2020-11-19T14:40:14:692
0,000000	0,000000	0,000000	0,000000	2020-11-19T14:40:14:732
0,000000	0,000000	0,000000	0,000000	2020-11-19T14:40:14:771
0,000000	0,000000	0,000000	0,000000	2020-11-19T14:40:14:810
0,000000	0,000000	0,000000	0,000000	2020-11-19T14:40:14:851
0,000000	0,000000	0,000000	0,000000	2020-11-19T14:40:14:890
0,000000	0,000000	0,000000	0,000000	2020-11-19T14:40:14:930
0,000000	0,000000	0,000000	0,000000	2020-11-19T14:40:14:969
0,000000	0,000000	0,000000	0,000000	2020-11-19T14:40:15:011
0,000000	0,000000	0,000000	0,000000	2020-11-19T14:40:15:050
0,000000	0,000000	0,000000	0,000000	2020-11-19T14:40:15:092
0,000000	0,000000	0,000000	0,000000	2020-11-19T14:40:15:130
0,000000	0,000000	0,000000	0,000000	2020-11-19T14:40:15:172
0,000000	0,000000	0,000000	0,000000	2020-11-19T14:40:15:210
0,000000	0,000000	0,000000	0,000000	2020-11-19T14:40:15:250
0,000000	0,000000	0,000000	0,000000	2020-11-19T14:40:15:291
0,000000	0,000000	0,000000	0,000000	2020-11-19T14:40:15:331
0,000000	0,000000	0,000000	0,000000	2020-11-19T14:40:15:370
0,000000	0,000000	0,000000	0,000000	2020-11-19T14:40:15:411
0,000000	0,000000	0,000000	0,000000	2020-11-19T14:40:15:451
0,000000	0,000000	0,000000	0,000000	2020-11-19T14:40:15:491
0,000000	0,000000	0,000000	0,000000	2020-11-19T14:40:15:531
0,000000	0,000000	0,000000	0,000000	2020-11-19T14:40:15:571
0,000000	0,000000	0,000000	0,000000	2020-11-19T14:40:15:611
0,000000	0,000000	0,000000	0,000000	2020-11-19T14:40:15:651
0,000000	0,000000	0,000000	0,000000	2020-11-19T14:40:15:691
0,000000	0,000000	0,000000	0,000000	2020-11-19T14:40:15:731
0,000000	0,000000	0,000000	0,000000	2020-11-19T14:40:15:771
0,000000	0,000000	0,000000	0,000000	2020-11-19T14:40:15:812
0,000000	0,000000	0,000000	0,000000	2020-11-19T14:40:15:851
0,000000	0,000000	0,000000	0,000000	2020-11-19T14:40:15:892
0,000000	0,000000	0,000000	0,000000	2020-11-19T14:40:15:931
0,000000	0,000000	0,000000	0,000000	2020-11-19T14:40:15:972
0,000000	0,000000	0,000000	0,000000	2020-11-19T14:40:16:011
0,000000	0,000000	0,000000	0,000000	2020-11-19T14:40:16:052
0,000000	0,000000	0,000000	0,000000	2020-11-19T14:40:16:091
0,000000	0,000000	0,000000	0,000000	2020-11-19T14:40:16:132
0,000000	0,000000	0,000000	0,000000	2020-11-19T14:40:16:171
0,000000	0,000000	0,000000	0,000000	2020-11-19T14:40:16:213
0,000000	0,000000	0,000000	0,000000	2020-11-19T14:40:16:251
0,000000	0,000000	0,000000	0,000000	2020-11-19T14:40:16:293
0,000000	0,000000	0,000000	0,000000	2020-11-19T14:40:16:331
0,000000	0,000000	0,000000	0,000000	2020-11-19T14:40:16:372
0,000000	0,000000	0,000000	0,000000	2020-11-19T14:40:16:412
0,000000	0,000000	0,000000	0,000000	2020-11-19T14:40:16:452
0,000000	0,000000	0,000000	0,000000	2020-11-19T14:40:16:492
0,000000	0,000000	0,000000	0,000000	2020-11-19T14:40:16:532
0,000000	0,000000	0,000000	0,000000	2020-11-19T14:40:16:572
0,000000	0,000000	0,000000	0,000000	2020-11-19T14:40:16:613
0,000000	0,000000	0,000000	0,000000	2020-11-19T14:40:16:652
0,000000	0,000000	0,000000	0,000000	2020-11-19T14:40:16:692
0,000000	0,000000	0,000000	0,000000	2020-11-19T14:40:16:732
0,000000	0,000000	0,000000	0,000000	2020-11-19T14:40:16:772
0,000000	0,000000	0,000000	0,000000	2020-11-19T14:40:16:812
0,000000	0,000000	0,000000	0,000000	2020-11-19T14:40:16:853
0,000000	0,000000	0,000000	0,000000	2020-11-19T14:40:16:893
0,000000	0,000000	0,000000	0,000000	2020-11-19T14:40:16:933
0,000000	0,000000	0,000000	0,000000	2020-11-19T14:40:16:972
0,000000	0,000000	0,000000	0,000000	2020-11-19T14:40:17:013
0,000000	0,000000	0,000000	0,000000	2020-11-19T14:40:17:052
0,000000	0,000000	0,000000	0,000000	2020-11-19T14:40:17:093
0,000000	0,000000	0,000000	0,000000	2020-11-19T14:40:17:132
0,000000	0,000000	0,000000	0,000000	2020-11-19T14:40:17:173
0,000000	0,000000	0,000000	0,000000	2020-11-19T14:40:17:212
0,000000	0,000000	0,000000	0,000000	2020-11-19T14:40:17:253
0,000000	0,000000	0,000000	0,000000	2020-11-19T14:40:17:293
0,000000	0,000000	0,000000	0,000000	2020-11-19T14:40:17:334
0,000000	0,000000	0,000000	0,000000	2020-11-19T14:40:17:373
0,000000	0,000000	0,000000	0,000000	2020-11-19T14:40:17:413
0,000000	0,000000	0,000000	0,000000	2020-11-19T14:40:17:453
0,000000	0,000000	0,000000	0,000000	2020-11-19T14:40:17:494
0,000000	0,000000	0,000000	0,000000	2020-11-19T14:40:17:533
0,000000	0,000000	0,000000	0,000000	2020-11-19T14:40:17:574
0,000000	0,000000	0,000000	0,000000	2020-11-19T14:40:17:613
0,000000	0,000000	0,000000	0,000000	2020-11-19T14:40:17:653
0,000000	0,000000	0,000000	0,000000	2020-11-19T14:40:17:693
0,000000	0,000000	0,000000	0,000000	2020-11-19T14:40:17:734
0,000000	0,000000	0,000000	0,000000	2020-11-19T14:40:17:773
0,000000	0,000000	0,000000	0,000000	2020-11-19T14:40:17:814
0,000000	0,000000	0,000000	0,000000	2020-11-19T14:40:17:853
0,000000	0,000000	0,000000	0,000000	2020-11-19T14:40:17:895
0,000000	0,000000	0,000000	0,000000	2020-11-19T14:40:17:933
91,000000	0,000000	0,000000	0,000000	2020-11-19T14:40:17:974
91,000000	0,000000	0,000000	0,000000	2020-11-19T14:40:18:013
91,000000	0,000000	0,000000	0,000000	2020-11-19T14:40:18:053
91,000000	0,000000	0,000000	0,000000	2020-11-19T14:40:18:094
91,000000	0,000000	0,000000	0,000000	2020-11-19T14:40:18:133
91,000000	0,000000	0,000000	0,000000	2020-11-19T14:40:18:172
91,000000	0,000000	0,000000	0,000000	2020-11-19T14:40:18:213
91,000000	0,000000	0,000000	0,000000	2020-11-19T14:40:18:253
91,000000	0,000000	0,000000	0,000000	2020-11-19T14:40:18:294
91,000000	0,000000	0,000000	0,000000	2020-11-19T14:40:18:333
91,000000	0,000000	0,000000	0,000000	2020-11-19T14:40:18:373
91,000000	0,000000	0,000000	0,000000	2020-11-19T14:40:18:413
91,000000	0,000000	0,000000	0,000000	2020-11-19T14:40:18:453
91,000000	0,000000	0,000000	0,000000	2020-11-19T14:40:18:494
91,000000	0,000000	0,000000	0,000000	2020-11-19T14:40:18:533
91,000000	0,000000	0,000000	0,000000	2020-11-19T14:40:18:574
91,000000	0,000000	0,000000	0,000000	2020-11-19T14:40:18:613
91,000000	0,000000	0,000000	0,000000	2020-11-19T14:40:18:654
91,000000	0,000000	0,000000	0,000000	2020-11-19T14:40:18:694
91,000000	0,000000	0,000000	0,000000	2020-11-19T14:40:18:734
91,000000	0,000000	0,000000	0,000000	2020-11-19T14:40:18:774
91,000000	0,000000	0,000000	0,000000	2020-11-19T14:40:18:814
91,000000	0,000000	0,000000	0,000000	2020-11-19T14:40:18:854
91,000000	0,000000	0,000000	0,000000	2020-11-19T14:40:18:894
91,000000	0,000000	0,000000	0,000000	2020-11-19T14:40:18:934
91,000000	0,000000	0,000000	0,000000	2020-11-19T14:40:18:974
91,000000	0,000000	0,000000	0,000000	2020-11-19T14:40:19:013
91,000000	0,000000	0,000000	0,000000	2020-11-19T14:40:19:055
91,000000	0,000000	0,000000	0,000000	2020-11-19T14:40:19:094
91,000000	0,000000	0,000000	0,000000	2020-11-19T14:40:19:134
91,000000	0,000000	0,000000	0,000000	2020-11-19T14:40:19:174
91,000000	0,000000	0,000000	0,000000	2020-11-19T14:40:19:214
91,000000	0,000000	0,000000	0,000000	2020-11-19T14:40:19:255
91,000000	0,000000	0,000000	0,000000	2020-11-19T14:40:19:294
91,000000	0,000000	0,000000	0,000000	2020-11-19T14:40:19:334
91,000000	0,000000	0,000000	0,000000	2020-11-19T14:40:19:375
91,000000	0,000000	0,000000	0,000000	2020-11-19T14:40:19:414
91,000000	0,000000	0,000000	0,000000	2020-11-19T14:40:19:454
91,000000	0,000000	0,000000	0,000000	2020-11-19T14:40:19:495
91,000000	0,000000	0,000000	0,000000	2020-11-19T14:40:19:534
91,000000	0,000000	0,000000	0,000000	2020-11-19T14:40:19:574
91,000000	0,000000	0,000000	0,000000	2020-11-19T14:40:19:614
91,000000	0,000000	0,000000	0,000000	2020-11-19T14:40:19:655
91,000000	0,000000	0,000000	0,000000	2020-11-19T14:40:19:694
91,000000	0,000000	0,000000	0,000000	2020-11-19T14:40:19:735
91,000000	0,000000	0,000000	0,000000	2020-11-19T14:40:19:774
91,000000	0,000000	0,000000	0,000000	2020-11-19T14:40:19:814
91,000000	0,000000	0,000000	0,000000	2020-11-19T14:40:19:854
91,000000	0,000000	0,000000	0,000000	2020-11-19T14:40:19:895
91,000000	0,000000	0,000000	0,000000	2020-11-19T14:40:19:934
91,000000	0,000000	0,000000	0,000000	2020-11-19T14:40:19:976
91,000000	0,000000	0,000000	0,000000	2020-11-19T14:40:20:015
91,000000	0,000000	0,000000	0,000000	2020-11-19T14:40:20:055
91,000000	0,000000	0,000000	0,000000	2020-11-19T14:40:20:096
91,000000	0,000000	0,000000	0,000000	2020-11-19T14:40:20:136
91,000000	0,000000	0,000000	0,000000	2020-11-19T14:40:20:175
91,000000	0,000000	0,000000	0,000000	2020-11-19T14:40:20:216
91,000000	0,000000	0,000000	0,000000	2020-11-19T14:40:20:255
91,000000	0,000000	0,000000	0,000000	2020-11-19T14:40:20:295
91,000000	0,000000	0,000000	0,000000	2020-11-19T14:40:20:335
91,000000	0,000000	0,000000	0,000000	2020-11-19T14:40:20:375
91,000000	0,000000	0,000000	0,000000	2020-11-19T14:40:20:415
91,000000	0,000000	0,000000	0,000000	2020-11-19T14:40:20:455
91,000000	0,000000	0,000000	0,000000	2020-11-19T14:40:20:495
91,000000	0,000000	0,000000	0,000000	2020-11-19T14:40:20:535
91,000000	0,000000	0,000000	0,000000	2020-11-19T14:40:20:575
91,000000	0,000000	0,000000	0,000000	2020-11-19T14:40:20:615
91,000000	0,000000	0,000000	0,000000	2020-11-19T14:40:20:655
91,000000	0,000000	0,000000	0,000000	2020-11-19T14:40:20:696
91,000000	0,000000	0,000000	0,000000	2020-11-19T14:40:20:735
91,000000	0,000000	0,000000	0,000000	2020-11-19T14:40:20:775
91,000000	0,000000	0,000000	0,000000	2020-11-19T14:40:20:815
91,000000	0,000000	0,000000	0,000000	2020-11-19T14:40:20:855
91,000000	0,000000	0,000000	0,000000	2020-11-19T14:40:20:896
91,000000	0,000000	0,000000	0,000000	2020-11-19T14:40:20:935
91,000000	0,000000	0,000000	0,000000	2020-11-19T14:40:20:975
91,000000	0,000000	0,000000	0,000000	2020-11-19T14:40:21:015
91,000000	0,000000	0,000000	0,000000	2020-11-19T14:40:21:055
91,000000	0,000000	0,000000	0,000000	2020-11-19T14:40:21:096
91,000000	0,000000	0,000000	0,000000	2020-11-19T14:40:21:136
91,000000	0,000000	0,000000	0,000000	2020-11-19T14:40:21:176
91,000000	0,000000	0,000000	0,000000	2020-11-19T14:40:21:217
91,000000	0,000000	0,000000	0,000000	2020-11-19T14:40:21:256
91,000000	0,000000	0,000000	0,000000	2020-11-19T14:40:21:296
91,000000	0,000000	0,000000	0,000000	2020-11-19T14:40:21:337
92,000000	0,000000	0,000000	0,000000	2020-11-19T14:40:21:376
91,000000	0,000000	0,000000	0,000000	2020-11-19T14:40:21:417
91,000000	0,000000	0,000000	0,000000	2020-11-19T14:40:21:457
92,000000	0,000000	0,000000	0,000000	2020-11-19T14:40:21:497
92,000000	0,000000	0,000000	0,000000	2020-11-19T14:40:21:536
92,000000	0,000000	0,000000	0,000000	2020-11-19T14:40:21:577
92,000000	0,000000	0,000000	0,000000	2020-11-19T14:40:21:617
92,000000	0,000000	0,000000	0,000000	2020-11-19T14:40:21:657
92,000000	0,000000	0,000000	0,000000	2020-11-19T14:40:21:697
92,000000	0,000000	0,000000	0,000000	2020-11-19T14:40:21:737
92,000000	0,000000	0,000000	0,000000	2020-11-19T14:40:21:777
92,000000	0,000000	0,000000	0,000000	2020-11-19T14:40:21:817
92,000000	0,000000	0,000000	0,000000	2020-11-19T14:40:21:857
92,000000	0,000000	0,000000	0,000000	2020-11-19T14:40:21:897
92,000000	0,000000	0,000000	0,000000	2020-11-19T14:40:21:937
92,000000	0,000000	0,000000	0,000000	2020-11-19T14:40:21:977
92,000000	0,000000	0,000000	0,000000	2020-11-19T14:40:22:018
92,000000	0,000000	0,000000	0,000000	2020-11-19T14:40:22:057
92,000000	0,000000	0,000000	0,000000	2020-11-19T14:40:22:097
92,000000	0,000000	0,000000	0,000000	2020-11-19T14:40:22:137
92,000000	0,000000	0,000000	0,000000	2020-11-19T14:40:22:177
92,000000	0,000000	0,000000	0,000000	2020-11-19T14:40:22:217
92,000000	0,000000	0,000000	0,000000	2020-11-19T14:40:22:257
92,000000	0,000000	0,000000	0,000000	2020-11-19T14:40:22:297
92,000000	0,000000	0,000000	0,000000	2020-11-19T14:40:22:337
92,000000	0,000000	0,000000	0,000000	2020-11-19T14:40:22:377
92,000000	0,000000	0,000000	0,000000	2020-11-19T14:40:22:417
92,000000	0,000000	0,000000	0,000000	2020-11-19T14:40:22:457
92,000000	0,000000	0,000000	0,000000	2020-11-19T14:40:22:498
92,000000	0,000000	0,000000	0,000000	2020-11-19T14:40:22:538
92,000000	0,000000	0,000000	0,000000	2020-11-19T14:40:22:577
92,000000	0,000000	0,000000	0,000000	2020-11-19T14:40:22:618
92,000000	0,000000	0,000000	0,000000	2020-11-19T14:40:22:658
92,000000	0,000000	0,000000	0,000000	2020-11-19T14:40:22:698
92,000000	0,000000	0,000000	0,000000	2020-11-19T14:40:22:737
92,000000	0,000000	0,000000	0,000000	2020-11-19T14:40:22:778
92,000000	0,000000	0,000000	0,000000	2020-11-19T14:40:22:818
92,000000	0,000000	0,000000	0,000000	2020-11-19T14:40:22:858
92,000000	0,000000	0,000000	0,000000	2020-11-19T14:40:22:899
92,000000	0,000000	0,000000	0,000000	2020-11-19T14:40:22:938
92,000000	0,000000	0,000000	0,000000	2020-11-19T14:40:22:978
92,000000	0,000000	0,000000	0,000000	2020-11-19T14:40:23:018
92,000000	0,000000	0,000000	0,000000	2020-11-19T14:40:23:058
92,000000	0,000000	0,000000	0,000000	2020-11-19T14:40:23:099
92,000000	0,000000	0,000000	0,000000	2020-11-19T14:40:23:139
92,000000	0,000000	0,000000	0,000000	2020-11-19T14:40:23:178
92,000000	0,000000	0,000000	0,000000	2020-11-19T14:40:23:218
92,000000	0,000000	0,000000	0,000000	2020-11-19T14:40:23:258
92,000000	0,000000	0,000000	0,000000	2020-11-19T14:40:23:298
92,000000	0,000000	0,000000	0,000000	2020-11-19T14:40:23:339
92,000000	0,000000	0,000000	0,000000	2020-11-19T14:40:23:379
92,000000	0,000000	0,000000	0,000000	2020-11-19T14:40:23:418
92,000000	0,000000	0,000000	0,000000	2020-11-19T14:40:23:459
92,000000	0,000000	0,000000	0,000000	2020-11-19T14:40:23:499
92,000000	0,000000	0,000000	0,000000	2020-11-19T14:40:23:539
92,000000	0,000000	0,000000	0,000000	2020-11-19T14:40:23:579
92,000000	0,000000	0,000000	0,000000	2020-11-19T14:40:23:619
92,000000	0,000000	0,000000	0,000000	2020-11-19T14:40:23:659
92,000000	0,000000	0,000000	0,000000	2020-11-19T14:40:23:699
92,000000	0,000000	0,000000	0,000000	2020-11-19T14:40:23:740
92,000000	0,000000	0,000000	0,000000	2020-11-19T14:40:23:779
92,000000	0,000000	0,000000	0,000000	2020-11-19T14:40:23:819
92,000000	0,000000	0,000000	0,000000	2020-11-19T14:40:23:859
92,000000	0,000000	0,000000	0,000000	2020-11-19T14:40:23:899
92,000000	0,000000	0,000000	0,000000	2020-11-19T14:40:23:939
92,000000	0,000000	0,000000	0,000000	2020-11-19T14:40:23:979
92,000000	0,000000	0,000000	0,000000	2020-11-19T14:40:24:019
92,000000	0,000000	0,000000	0,000000	2020-11-19T14:40:24:059
92,000000	0,000000	0,000000	0,000000	2020-11-19T14:40:24:100
92,000000	0,000000	0,000000	0,000000	2020-11-19T14:40:24:139
92,000000	0,000000	0,000000	0,000000	2020-11-19T14:40:24:179
92,000000	0,000000	0,000000	0,000000	2020-11-19T14:40:24:219
92,000000	0,000000	0,000000	0,000000	2020-11-19T14:40:24:259
92,000000	0,000000	0,000000	0,000000	2020-11-19T14:40:24:300
92,000000	0,000000	0,000000	0,000000	2020-11-19T14:40:24:339
92,000000	0,000000	0,000000	0,000000	2020-11-19T14:40:24:381
92,000000	0,000000	0,000000	0,000000	2020-11-19T14:40:24:419
92,000000	0,000000	0,000000	0,000000	2020-11-19T14:40:24:459
92,000000	0,000000	0,000000	0,000000	2020-11-19T14:40:24:500
92,000000	0,000000	0,000000	0,000000	2020-11-19T14:40:24:540
92,000000	0,000000	0,000000	0,000000	2020-11-19T14:40:24:580
92,000000	0,000000	0,000000	0,000000	2020-11-19T14:40:24:619
92,000000	0,000000	0,000000	0,000000	2020-11-19T14:40:24:660
92,000000	0,000000	0,000000	0,000000	2020-11-19T14:40:24:700
92,000000	0,000000	0,000000	0,000000	2020-11-19T14:40:24:739
92,000000	0,000000	0,000000	0,000000	2020-11-19T14:40:24:780
92,000000	0,000000	0,000000	0,000000	2020-11-19T14:40:24:820
92,000000	0,000000	0,000000	0,000000	2020-11-19T14:40:24:860
92,000000	0,000000	0,000000	0,000000	2020-11-19T14:40:24:900
92,000000	0,000000	0,000000	0,000000	2020-11-19T14:40:24:940
92,000000	0,000000	609,000000	0,000000	2020-11-19T14:40:24:980
92,000000	0,000000	609,000000	0,000000	2020-11-19T14:40:25:021
92,000000	0,000000	609,000000	0,000000	2020-11-19T14:40:25:060
92,000000	0,000000	609,000000	0,000000	2020-11-19T14:40:25:100
92,000000	0,000000	609,000000	0,000000	2020-11-19T14:40:25:140
92,000000	0,000000	609,000000	0,000000	2020-11-19T14:40:25:180
92,000000	0,000000	609,000000	0,000000	2020-11-19T14:40:25:220
92,000000	0,000000	609,000000	0,000000	2020-11-19T14:40:25:260
92,000000	0,000000	609,000000	0,000000	2020-11-19T14:40:25:301
92,000000	0,000000	609,000000	0,000000	2020-11-19T14:40:25:340
92,000000	0,000000	609,000000	0,000000	2020-11-19T14:40:25:381
92,000000	0,000000	609,000000	0,000000	2020-11-19T14:40:25:421
92,000000	0,000000	609,000000	0,000000	2020-11-19T14:40:25:460
92,000000	0,000000	609,000000	0,000000	2020-11-19T14:40:25:502
92,000000	0,000000	609,000000	0,000000	2020-11-19T14:40:25:541
92,000000	0,000000	609,000000	0,000000	2020-11-19T14:40:25:580
92,000000	0,000000	609,000000	0,000000	2020-11-19T14:40:25:620
92,000000	0,000000	609,000000	0,000000	2020-11-19T14:40:25:661
92,000000	0,000000	609,000000	0,000000	2020-11-19T14:40:25:701
92,000000	0,000000	609,000000	0,000000	2020-11-19T14:40:25:741
92,000000	0,000000	609,000000	0,000000	2020-11-19T14:40:25:781
92,000000	0,000000	609,000000	0,000000	2020-11-19T14:40:25:821
92,000000	0,000000	609,000000	0,000000	2020-11-19T14:40:25:861
92,000000	0,000000	609,000000	0,000000	2020-11-19T14:40:25:901
92,000000	0,000000	609,000000	0,000000	2020-11-19T14:40:25:941
92,000000	0,000000	609,000000	0,000000	2020-11-19T14:40:25:981
92,000000	0,000000	609,000000	0,000000	2020-11-19T14:40:26:021
92,000000	0,000000	609,000000	0,000000	2020-11-19T14:40:26:061
91,000000	0,000000	609,000000	0,000000	2020-11-19T14:40:26:101
92,000000	0,000000	609,000000	0,000000	2020-11-19T14:40:26:141
92,000000	0,000000	609,000000	0,000000	2020-11-19T14:40:26:181
92,000000	0,000000	609,000000	0,000000	2020-11-19T14:40:26:222
92,000000	0,000000	609,000000	0,000000	2020-11-19T14:40:26:261
92,000000	0,000000	609,000000	0,000000	2020-11-19T14:40:26:301
92,000000	0,000000	609,000000	0,000000	2020-11-19T14:40:26:341
92,000000	0,000000	738,000000	0,000000	2020-11-19T14:40:26:381
92,000000	0,000000	738,000000	0,000000	2020-11-19T14:40:26:421
93,000000	0,000000	738,000000	0,000000	2020-11-19T14:40:26:462
92,000000	0,000000	738,000000	0,000000	2020-11-19T14:40:26:502
92,000000	0,000000	738,000000	0,000000	2020-11-19T14:40:26:541
92,000000	0,000000	738,000000	0,000000	2020-11-19T14:40:26:582
92,000000	0,000000	738,000000	0,000000	2020-11-19T14:40:26:622
92,000000	0,000000	738,000000	0,000000	2020-11-19T14:40:26:662
92,000000	0,000000	738,000000	0,000000	2020-11-19T14:40:26:702
92,000000	0,000000	738,000000	0,000000	2020-11-19T14:40:26:742
92,000000	0,000000	738,000000	0,000000	2020-11-19T14:40:26:781
92,000000	0,000000	738,000000	0,000000	2020-11-19T14:40:26:822
92,000000	0,000000	738,000000	0,000000	2020-11-19T14:40:26:862
92,000000	0,000000	738,000000	0,000000	2020-11-19T14:40:26:902
92,000000	0,000000	738,000000	0,000000	2020-11-19T14:40:26:942
92,000000	0,000000	738,000000	0,000000	2020-11-19T14:40:26:982
92,000000	0,000000	738,000000	0,000000	2020-11-19T14:40:27:023
92,000000	0,000000	738,000000	0,000000	2020-11-19T14:40:27:062
91,000000	0,000000	738,000000	0,000000	2020-11-19T14:40:27:102
92,000000	0,000000	738,000000	0,000000	2020-11-19T14:40:27:142
92,000000	0,000000	738,000000	0,000000	2020-11-19T14:40:27:182
92,000000	0,000000	738,000000	0,000000	2020-11-19T14:40:27:222
92,000000	0,000000	738,000000	0,000000	2020-11-19T14:40:27:262
92,000000	0,000000	738,000000	0,000000	2020-11-19T14:40:27:303
92,000000	0,000000	738,000000	0,000000	2020-11-19T14:40:27:342
92,000000	0,000000	738,000000	0,000000	2020-11-19T14:40:27:382
92,000000	0,000000	738,000000	0,000000	2020-11-19T14:40:27:422
92,000000	0,000000	738,000000	0,000000	2020-11-19T14:40:27:463
91,000000	0,000000	738,000000	0,000000	2020-11-19T14:40:27:502
91,000000	0,000000	738,000000	0,000000	2020-11-19T14:40:27:542
91,000000	0,000000	645,000000	0,000000	2020-11-19T14:40:27:583
91,000000	0,000000	645,000000	0,000000	2020-11-19T14:40:27:623
91,000000	0,000000	645,000000	0,000000	2020-11-19T14:40:27:663
91,000000	0,000000	645,000000	0,000000	2020-11-19T14:40:27:703
91,000000	0,000000	645,000000	0,000000	2020-11-19T14:40:27:743
91,000000	0,000000	645,000000	0,000000	2020-11-19T14:40:27:782
91,000000	0,000000	645,000000	0,000000	2020-11-19T14:40:27:823
91,000000	0,000000	645,000000	0,000000	2020-11-19T14:40:27:863
91,000000	0,000000	645,000000	0,000000	2020-11-19T14:40:27:904
91,000000	0,000000	645,000000	0,000000	2020-11-19T14:40:27:943
91,000000	0,000000	645,000000	0,000000	2020-11-19T14:40:27:983
91,000000	0,000000	645,000000	0,000000	2020-11-19T14:40:28:023
91,000000	0,000000	645,000000	0,000000	2020-11-19T14:40:28:063
91,000000	0,000000	645,000000	0,000000	2020-11-19T14:40:28:103
91,000000	0,000000	645,000000	0,000000	2020-11-19T14:40:28:144
91,000000	0,000000	645,000000	0,000000	2020-11-19T14:40:28:183
91,000000	0,000000	645,000000	0,000000	2020-11-19T14:40:28:223
91,000000	0,000000	645,000000	0,000000	2020-11-19T14:40:28:263
91,000000	0,000000	645,000000	0,000000	2020-11-19T14:40:28:304
91,000000	0,000000	645,000000	0,000000	2020-11-19T14:40:28:343
91,000000	0,000000	645,000000	0,000000	2020-11-19T14:40:28:384
91,000000	0,000000	645,000000	0,000000	2020-11-19T14:40:28:423
91,000000	0,000000	645,000000	0,000000	2020-11-19T14:40:28:463
91,000000	0,000000	645,000000	0,000000	2020-11-19T14:40:28:504
91,000000	0,000000	645,000000	0,000000	2020-11-19T14:40:28:544
91,000000	0,000000	645,000000	0,000000	2020-11-19T14:40:28:584
91,000000	0,000000	645,000000	0,000000	2020-11-19T14:40:28:624
91,000000	0,000000	645,000000	0,000000	2020-11-19T14:40:28:664
91,000000	0,000000	645,000000	0,000000	2020-11-19T14:40:28:704
91,000000	0,000000	645,000000	0,000000	2020-11-19T14:40:28:744
92,000000	0,000000	645,000000	0,000000	2020-11-19T14:40:28:784
92,000000	0,000000	645,000000	0,000000	2020-11-19T14:40:28:824
91,000000	0,000000	645,000000	0,000000	2020-11-19T14:40:28:864
91,000000	0,000000	645,000000	0,000000	2020-11-19T14:40:28:905
92,000000	0,000000	645,000000	0,000000	2020-11-19T14:40:28:944
92,000000	0,000000	645,000000	0,000000	2020-11-19T14:40:28:984
92,000000	0,000000	645,000000	0,000000	2020-11-19T14:40:29:024
92,000000	0,000000	645,000000	0,000000	2020-11-19T14:40:29:064
92,000000	0,000000	645,000000	0,000000	2020-11-19T14:40:29:105
92,000000	0,000000	645,000000	0,000000	2020-11-19T14:40:29:144
92,000000	0,000000	645,000000	0,000000	2020-11-19T14:40:29:185
92,000000	0,000000	645,000000	0,000000	2020-11-19T14:40:29:224
92,000000	0,000000	645,000000	0,000000	2020-11-19T14:40:29:265
92,000000	0,000000	645,000000	0,000000	2020-11-19T14:40:29:305
92,000000	0,000000	645,000000	0,000000	2020-11-19T14:40:29:345
92,000000	0,000000	645,000000	0,000000	2020-11-19T14:40:29:386
92,000000	0,000000	645,000000	0,000000	2020-11-19T14:40:29:425
92,000000	0,000000	645,000000	0,000000	2020-11-19T14:40:29:464
92,000000	0,000000	645,000000	0,000000	2020-11-19T14:40:29:505
92,000000	0,000000	645,000000	0,000000	2020-11-19T14:40:29:545
92,000000	0,000000	645,000000	0,000000	2020-11-19T14:40:29:585
92,000000	0,000000	645,000000	0,000000	2020-11-19T14:40:29:625
93,000000	0,000000	645,000000	0,000000	2020-11-19T14:40:29:665
93,000000	0,000000	645,000000	0,000000	2020-11-19T14:40:29:705
92,000000	0,000000	645,000000	0,000000	2020-11-19T14:40:29:745
92,000000	0,000000	645,000000	0,000000	2020-11-19T14:40:29:785
92,000000	0,000000	645,000000	0,000000	2020-11-19T14:40:29:825
93,000000	0,000000	645,000000	0,000000	2020-11-19T14:40:29:865
93,000000	0,000000	645,000000	0,000000	2020-11-19T14:40:29:905
93,000000	0,000000	645,000000	0,000000	2020-11-19T14:40:29:945
93,000000	0,000000	645,000000	0,000000	2020-11-19T14:40:29:985
93,000000	0,000000	645,000000	0,000000	2020-11-19T14:40:30:025
93,000000	0,000000	645,000000	0,000000	2020-11-19T14:40:30:065
93,000000	0,000000	645,000000	0,000000	2020-11-19T14:40:30:105
93,000000	0,000000	645,000000	0,000000	2020-11-19T14:40:30:145
93,000000	0,000000	645,000000	0,000000	2020-11-19T14:40:30:185
93,000000	0,000000	645,000000	0,000000	2020-11-19T14:40:30:225
93,000000	0,000000	645,000000	0,000000	2020-11-19T14:40:30:265
93,000000	0,000000	645,000000	0,000000	2020-11-19T14:40:30:305
93,000000	0,000000	645,000000	0,000000	2020-11-19T14:40:30:345
93,000000	0,000000	645,000000	0,000000	2020-11-19T14:40:30:385
93,000000	0,000000	645,000000	0,000000	2020-11-19T14:40:30:425
93,000000	0,000000	645,000000	0,000000	2020-11-19T14:40:30:466
93,000000	0,000000	645,000000	0,000000	2020-11-19T14:40:30:506
93,000000	0,000000	645,000000	0,000000	2020-11-19T14:40:30:546
93,000000	0,000000	645,000000	0,000000	2020-11-19T14:40:30:586
93,000000	0,000000	645,000000	0,000000	2020-11-19T14:40:30:626
93,000000	0,000000	645,000000	0,000000	2020-11-19T14:40:30:666
93,000000	0,000000	645,000000	0,000000	2020-11-19T14:40:30:706
93,000000	0,000000	645,000000	0,000000	2020-11-19T14:40:30:746
93,000000	0,000000	645,000000	0,000000	2020-11-19T14:40:30:786
92,000000	0,000000	645,000000	0,000000	2020-11-19T14:40:30:826
92,000000	0,000000	645,000000	0,000000	2020-11-19T14:40:30:866
92,000000	0,000000	645,000000	0,000000	2020-11-19T14:40:30:906
93,000000	0,000000	645,000000	0,000000	2020-11-19T14:40:30:946
92,000000	0,000000	645,000000	0,000000	2020-11-19T14:40:30:986
92,000000	0,000000	645,000000	0,000000	2020-11-19T14:40:31:026
92,000000	0,000000	645,000000	0,000000	2020-11-19T14:40:31:066
92,000000	0,000000	645,000000	0,000000	2020-11-19T14:40:31:106
-10,000000	0,000000	645,000000	0,000000	2020-11-19T14:40:31:147
-10,000000	0,000000	645,000000	0,000000	2020-11-19T14:40:31:186
-10,000000	0,000000	645,000000	0,000000	2020-11-19T14:40:31:228
-10,000000	0,000000	645,000000	0,000000	2020-11-19T14:40:31:267
-10,000000	0,000000	645,000000	0,000000	2020-11-19T14:40:31:308
-10,000000	0,000000	645,000000	0,000000	2020-11-19T14:40:31:346
-10,000000	0,000000	645,000000	0,000000	2020-11-19T14:40:31:387
-10,000000	0,000000	645,000000	0,000000	2020-11-19T14:40:31:427
-10,000000	0,000000	645,000000	0,000000	2020-11-19T14:40:31:467
-10,000000	0,000000	645,000000	0,000000	2020-11-19T14:40:31:507
-10,000000	0,000000	645,000000	0,000000	2020-11-19T14:40:31:549
91,000000	0,000000	605,000000	0,000000	2020-11-19T14:40:31:587
-10,000000	0,000000	605,000000	0,000000	2020-11-19T14:40:31:627
-10,000000	0,000000	605,000000	0,000000	2020-11-19T14:40:31:667
-10,000000	0,000000	605,000000	0,000000	2020-11-19T14:40:31:708
-10,000000	0,000000	605,000000	0,000000	2020-11-19T14:40:31:747
-10,000000	0,000000	605,000000	0,000000	2020-11-19T14:40:31:788
-10,000000	0,000000	605,000000	0,000000	2020-11-19T14:40:31:827
-10,000000	0,000000	605,000000	0,000000	2020-11-19T14:40:31:868
-10,000000	0,000000	605,000000	0,000000	2020-11-19T14:40:31:908
91,000000	0,000000	605,000000	0,000000	2020-11-19T14:40:31:948
91,000000	0,000000	605,000000	0,000000	2020-11-19T14:40:31:987
-10,000000	0,000000	605,000000	0,000000	2020-11-19T14:40:32:028
-10,000000	0,000000	605,000000	0,000000	2020-11-19T14:40:32:067
-10,000000	0,000000	605,000000	0,000000	2020-11-19T14:40:32:108
-10,000000	0,000000	605,000000	0,000000	2020-11-19T14:40:32:147
91,000000	0,000000	735,000000	0,000000	2020-11-19T14:40:32:188
-10,000000	0,000000	735,000000	0,000000	2020-11-19T14:40:32:228
-10,000000	0,000000	735,000000	0,000000	2020-11-19T14:40:32:268
-10,000000	0,000000	735,000000	0,000000	2020-11-19T14:40:32:308
-10,000000	0,000000	735,000000	0,000000	2020-11-19T14:40:32:348
-10,000000	0,000000	735,000000	0,000000	2020-11-19T14:40:32:390
-10,000000	0,000000	735,000000	0,000000	2020-11-19T14:40:32:428
-10,000000	0,000000	735,000000	0,000000	2020-11-19T14:40:32:468
-10,000000	0,000000	735,000000	0,000000	2020-11-19T14:40:32:509
-10,000000	0,000000	735,000000	0,000000	2020-11-19T14:40:32:547
-10,000000	0,000000	735,000000	0,000000	2020-11-19T14:40:32:589
-10,000000	0,000000	735,000000	0,000000	2020-11-19T14:40:32:628
-10,000000	0,000000	735,000000	0,000000	2020-11-19T14:40:32:669
-10,000000	0,000000	735,000000	0,000000	2020-11-19T14:40:32:708
-10,000000	0,000000	735,000000	0,000000	2020-11-19T14:40:32:749
-10,000000	0,000000	735,000000	0,000000	2020-11-19T14:40:32:787
-10,000000	0,000000	735,000000	0,000000	2020-11-19T14:40:32:828
-10,000000	0,000000	735,000000	0,000000	2020-11-19T14:40:32:868
91,000000	0,000000	735,000000	0,000000	2020-11-19T14:40:32:910
91,000000	0,000000	735,000000	0,000000	2020-11-19T14:40:32:948
91,000000	0,000000	724,000000	0,000000	2020-11-19T14:40:32:988
91,000000	0,000000	724,000000	0,000000	2020-11-19T14:40:33:027
91,000000	0,000000	724,000000	0,000000	2020-11-19T14:40:33:070
91,000000	0,000000	724,000000	0,000000	2020-11-19T14:40:33:109
91,000000	0,000000	724,000000	0,000000	2020-11-19T14:40:33:149
91,000000	0,000000	724,000000	0,000000	2020-11-19T14:40:33:188
91,000000	0,000000	724,000000	0,000000	2020-11-19T14:40:33:229
91,000000	0,000000	724,000000	0,000000	2020-11-19T14:40:33:268
91,000000	0,000000	724,000000	0,000000	2020-11-19T14:40:33:309
91,000000	0,000000	724,000000	0,000000	2020-11-19T14:40:33:348
91,000000	0,000000	724,000000	0,000000	2020-11-19T14:40:33:388
-10,000000	0,000000	724,000000	0,000000	2020-11-19T14:40:33:428
-10,000000	0,000000	724,000000	0,000000	2020-11-19T14:40:33:469
-10,000000	0,000000	724,000000	0,000000	2020-11-19T14:40:33:508
-10,000000	0,000000	724,000000	0,000000	2020-11-19T14:40:33:549
91,000000	0,000000	706,000000	0,000000	2020-11-19T14:40:33:588
90,000000	0,000000	706,000000	0,000000	2020-11-19T14:40:33:629
90,000000	0,000000	706,000000	0,000000	2020-11-19T14:40:33:669
90,000000	0,000000	706,000000	0,000000	2020-11-19T14:40:33:710
90,000000	0,000000	706,000000	0,000000	2020-11-19T14:40:33:748
90,000000	0,000000	706,000000	0,000000	2020-11-19T14:40:33:789
90,000000	0,000000	706,000000	0,000000	2020-11-19T14:40:33:828
90,000000	0,000000	706,000000	0,000000	2020-11-19T14:40:33:869
90,000000	0,000000	706,000000	0,000000	2020-11-19T14:40:33:909
90,000000	0,000000	706,000000	0,000000	2020-11-19T14:40:33:949
90,000000	0,000000	706,000000	0,000000	2020-11-19T14:40:33:988
90,000000	0,000000	706,000000	0,000000	2020-11-19T14:40:34:029
91,000000	0,000000	706,000000	0,000000	2020-11-19T14:40:34:069
90,000000	0,000000	706,000000	0,000000	2020-11-19T14:40:34:109
90,000000	0,000000	706,000000	0,000000	2020-11-19T14:40:34:149
91,000000	0,000000	583,000000	0,000000	2020-11-19T14:40:34:190
91,000000	0,000000	583,000000	0,000000	2020-11-19T14:40:34:229
91,000000	0,000000	583,000000	0,000000	2020-11-19T14:40:34:269
91,000000	0,000000	583,000000	0,000000	2020-11-19T14:40:34:309
91,000000	0,000000	583,000000	0,000000	2020-11-19T14:40:34:349
91,000000	0,000000	583,000000	0,000000	2020-11-19T14:40:34:390
91,000000	0,000000	583,000000	0,000000	2020-11-19T14:40:34:430
91,000000	0,000000	583,000000	0,000000	2020-11-19T14:40:34:469
91,000000	0,000000	583,000000	0,000000	2020-11-19T14:40:34:510
91,000000	0,000000	583,000000	0,000000	2020-11-19T14:40:34:549
91,000000	0,000000	583,000000	0,000000	2020-11-19T14:40:34:590
91,000000	0,000000	583,000000	0,000000	2020-11-19T14:40:34:629
91,000000	0,000000	583,000000	0,000000	2020-11-19T14:40:34:671
91,000000	0,000000	583,000000	0,000000	2020-11-19T14:40:34:709
91,000000	0,000000	583,000000	0,000000	2020-11-19T14:40:34:751
91,000000	0,000000	583,000000	0,000000	2020-11-19T14:40:34:790
91,000000	0,000000	583,000000	0,000000	2020-11-19T14:40:34:831
91,000000	0,000000	583,000000	0,000000	2020-11-19T14:40:34:869
91,000000	0,000000	583,000000	0,000000	2020-11-19T14:40:34:911
91,000000	0,000000	583,000000	0,000000	2020-11-19T14:40:34:949
91,000000	0,000000	583,000000	0,000000	2020-11-19T14:40:34:990
91,000000	0,000000	583,000000	0,000000	2020-11-19T14:40:35:030
91,000000	0,000000	583,000000	0,000000	2020-11-19T14:40:35:070
91,000000	0,000000	583,000000	0,000000	2020-11-19T14:40:35:110
91,000000	0,000000	583,000000	0,000000	2020-11-19T14:40:35:151
91,000000	0,000000	649,000000	0,000000	2020-11-19T14:40:35:190
91,000000	0,000000	649,000000	0,000000	2020-11-19T14:40:35:231
91,000000	0,000000	649,000000	0,000000	2020-11-19T14:40:35:270
91,000000	0,000000	649,000000	0,000000	2020-11-19T14:40:35:311
-10,000000	0,000000	649,000000	0,000000	2020-11-19T14:40:35:350
91,000000	0,000000	649,000000	0,000000	2020-11-19T14:40:35:391
91,000000	0,000000	649,000000	0,000000	2020-11-19T14:40:35:430
91,000000	0,000000	649,000000	0,000000	2020-11-19T14:40:35:471
91,000000	0,000000	649,000000	0,000000	2020-11-19T14:40:35:510
-10,000000	0,000000	649,000000	0,000000	2020-11-19T14:40:35:551
-10,000000	0,000000	649,000000	0,000000	2020-11-19T14:40:35:590
-10,000000	0,000000	649,000000	0,000000	2020-11-19T14:40:35:631
-10,000000	0,000000	649,000000	0,000000	2020-11-19T14:40:35:670
-10,000000	0,000000	649,000000	0,000000	2020-11-19T14:40:35:711
-10,000000	0,000000	649,000000	0,000000	2020-11-19T14:40:35:750
-10,000000	0,000000	649,000000	0,000000	2020-11-19T14:40:35:791
-10,000000	0,000000	649,000000	0,000000	2020-11-19T14:40:35:831
-10,000000	0,000000	649,000000	0,000000	2020-11-19T14:40:35:871
-10,000000	0,000000	649,000000	0,000000	2020-11-19T14:40:35:911
-10,000000	0,000000	649,000000	0,000000	2020-11-19T14:40:35:951
92,000000	0,000000	649,000000	0,000000	2020-11-19T14:40:35:991
92,000000	0,000000	649,000000	0,000000	2020-11-19T14:40:36:031
92,000000	0,000000	649,000000	0,000000	2020-11-19T14:40:36:071
-10,000000	0,000000	649,000000	0,000000	2020-11-19T14:40:36:112
-10,000000	0,000000	649,000000	0,000000	2020-11-19T14:40:36:151
92,000000	0,000000	649,000000	0,000000	2020-11-19T14:40:36:191
92,000000	0,000000	649,000000	0,000000	2020-11-19T14:40:36:232
-10,000000	0,000000	649,000000	0,000000	2020-11-19T14:40:36:272
-10,000000	0,000000	649,000000	0,000000	2020-11-19T14:40:36:311
92,000000	0,000000	649,000000	0,000000	2020-11-19T14:40:36:352
92,000000	0,000000	590,000000	0,000000	2020-11-19T14:40:36:391
92,000000	0,000000	590,000000	0,000000	2020-11-19T14:40:36:432
92,000000	0,000000	590,000000	0,000000	2020-11-19T14:40:36:471
92,000000	0,000000	590,000000	0,000000	2020-11-19T14:40:36:513
92,000000	0,000000	590,000000	0,000000	2020-11-19T14:40:36:551
-10,000000	0,000000	590,000000	0,000000	2020-11-19T14:40:36:592
92,000000	0,000000	590,000000	0,000000	2020-11-19T14:40:36:632
92,000000	0,000000	590,000000	0,000000	2020-11-19T14:40:36:672
92,000000	0,000000	590,000000	0,000000	2020-11-19T14:40:36:712
92,000000	0,000000	590,000000	0,000000	2020-11-19T14:40:36:752
92,000000	0,000000	590,000000	0,000000	2020-11-19T14:40:36:792
92,000000	0,000000	590,000000	0,000000	2020-11-19T14:40:36:832
92,000000	0,000000	590,000000	0,000000	2020-11-19T14:40:36:871
92,000000	0,000000	590,000000	0,000000	2020-11-19T14:40:36:913
-10,000000	0,000000	590,000000	0,000000	2020-11-19T14:40:36:951
-10,000000	0,000000	590,000000	0,000000	2020-11-19T14:40:36:992
-10,000000	0,000000	590,000000	0,000000	2020-11-19T14:40:37:032
-10,000000	0,000000	590,000000	0,000000	2020-11-19T14:40:37:072
-10,000000	0,000000	590,000000	0,000000	2020-11-19T14:40:37:112
-10,000000	0,000000	590,000000	0,000000	2020-11-19T14:40:37:153
-10,000000	0,000000	590,000000	0,000000	2020-11-19T14:40:37:192
-10,000000	0,000000	590,000000	0,000000	2020-11-19T14:40:37:233
-10,000000	0,000000	590,000000	0,000000	2020-11-19T14:40:37:272
91,000000	0,000000	590,000000	0,000000	2020-11-19T14:40:37:314
92,000000	0,000000	590,000000	0,000000	2020-11-19T14:40:37:352
92,000000	0,000000	590,000000	0,000000	2020-11-19T14:40:37:393
91,000000	0,000000	590,000000	0,000000	2020-11-19T14:40:37:432
91,000000	0,000000	590,000000	0,000000	2020-11-19T14:40:37:473
92,000000	0,000000	590,000000	0,000000	2020-11-19T14:40:37:513
91,000000	0,000000	590,000000	0,000000	2020-11-19T14:40:37:553
92,000000	0,000000	590,000000	0,000000	2020-11-19T14:40:37:592
92,000000	0,000000	590,000000	0,000000	2020-11-19T14:40:37:633
92,000000	0,000000	590,000000	0,000000	2020-11-19T14:40:37:673
92,000000	0,000000	590,000000	0,000000	2020-11-19T14:40:37:714
92,000000	0,000000	590,000000	0,000000	2020-11-19T14:40:37:753
92,000000	0,000000	590,000000	0,000000	2020-11-19T14:40:37:793
92,000000	0,000000	590,000000	0,000000	2020-11-19T14:40:37:832
92,000000	0,000000	590,000000	0,000000	2020-11-19T14:40:37:873
92,000000	0,000000	590,000000	0,000000	2020-11-19T14:40:37:914
92,000000	0,000000	590,000000	0,000000	2020-11-19T14:40:37:953
92,000000	0,000000	748,000000	0,000000	2020-11-19T14:40:37:993
92,000000	0,000000	748,000000	0,000000	2020-11-19T14:40:38:033
92,000000	0,000000	748,000000	0,000000	2020-11-19T14:40:38:073
92,000000	0,000000	748,000000	0,000000	2020-11-19T14:40:38:114
92,000000	0,000000	748,000000	0,000000	2020-11-19T14:40:38:153
92,000000	0,000000	748,000000	0,000000	2020-11-19T14:40:38:193
92,000000	0,000000	748,000000	0,000000	2020-11-19T14:40:38:233
92,000000	0,000000	748,000000	0,000000	2020-11-19T14:40:38:274
92,000000	0,000000	748,000000	0,000000	2020-11-19T14:40:38:313
92,000000	0,000000	748,000000	0,000000	2020-11-19T14:40:38:354
92,000000	0,000000	748,000000	0,000000	2020-11-19T14:40:38:393
92,000000	0,000000	748,000000	0,000000	2020-11-19T14:40:38:434
92,000000	0,000000	748,000000	0,000000	2020-11-19T14:40:38:473
92,000000	0,000000	748,000000	0,000000	2020-11-19T14:40:38:514
92,000000	0,000000	748,000000	0,000000	2020-11-19T14:40:38:553
92,000000	0,000000	748,000000	0,000000	2020-11-19T14:40:38:594
92,000000	0,000000	748,000000	0,000000	2020-11-19T14:40:38:633
92,000000	0,000000	748,000000	0,000000	2020-11-19T14:40:38:674
92,000000	0,000000	748,000000	0,000000	2020-11-19T14:40:38:713
-10,000000	0,000000	748,000000	0,000000	2020-11-19T14:40:38:754
-10,000000	0,000000	748,000000	0,000000	2020-11-19T14:40:38:793
-10,000000	0,000000	748,000000	0,000000	2020-11-19T14:40:38:834
-10,000000	0,000000	748,000000	0,000000	2020-11-19T14:40:38:873
-10,000000	0,000000	748,000000	0,000000	2020-11-19T14:40:38:914
-10,000000	0,000000	748,000000	0,000000	2020-11-19T14:40:38:954
-10,000000	0,000000	748,000000	0,000000	2020-11-19T14:40:38:994
-10,000000	0,000000	748,000000	0,000000	2020-11-19T14:40:39:033
-10,000000	0,000000	748,000000	0,000000	2020-11-19T14:40:39:074
-10,000000	0,000000	748,000000	0,000000	2020-11-19T14:40:39:113
-10,000000	0,000000	748,000000	0,000000	2020-11-19T14:40:39:154
-10,000000	0,000000	748,000000	0,000000	2020-11-19T14:40:39:193
-10,000000	0,000000	748,000000	0,000000	2020-11-19T14:40:39:234
-10,000000	0,000000	748,000000	0,000000	2020-11-19T14:40:39:273
-10,000000	0,000000	748,000000	0,000000	2020-11-19T14:40:39:315
-10,000000	0,000000	748,000000	0,000000	2020-11-19T14:40:39:355
92,000000	0,000000	667,000000	0,000000	2020-11-19T14:40:39:397
-10,000000	0,000000	667,000000	0,000000	2020-11-19T14:40:39:435
-10,000000	0,000000	667,000000	0,000000	2020-11-19T14:40:39:475
-10,000000	0,000000	667,000000	0,000000	2020-11-19T14:40:39:514
-10,000000	0,000000	667,000000	0,000000	2020-11-19T14:40:39:555
-10,000000	0,000000	667,000000	0,000000	2020-11-19T14:40:39:594
-10,000000	0,000000	667,000000	0,000000	2020-11-19T14:40:39:635
-10,000000	0,000000	667,000000	0,000000	2020-11-19T14:40:39:677
-10,000000	0,000000	667,000000	0,000000	2020-11-19T14:40:39:715
-10,000000	0,000000	667,000000	0,000000	2020-11-19T14:40:39:755
-10,000000	0,000000	667,000000	0,000000	2020-11-19T14:40:39:795
-10,000000	0,000000	667,000000	0,000000	2020-11-19T14:40:39:834
-10,000000	0,000000	667,000000	0,000000	2020-11-19T14:40:39:875
-10,000000	0,000000	667,000000	0,000000	2020-11-19T14:40:39:915
-10,000000	0,000000	667,000000	0,000000	2020-11-19T14:40:39:955
92,000000	0,000000	616,000000	0,000000	2020-11-19T14:40:39:994
-10,000000	0,000000	616,000000	0,000000	2020-11-19T14:40:40:035
-10,000000	0,000000	616,000000	0,000000	2020-11-19T14:40:40:074
-10,000000	0,000000	616,000000	0,000000	2020-11-19T14:40:40:116
-10,000000	0,000000	616,000000	0,000000	2020-11-19T14:40:40:154
-10,000000	0,000000	616,000000	0,000000	2020-11-19T14:40:40:195
-10,000000	0,000000	616,000000	0,000000	2020-11-19T14:40:40:234
-10,000000	0,000000	616,000000	0,000000	2020-11-19T14:40:40:275
-10,000000	0,000000	616,000000	0,000000	2020-11-19T14:40:40:315
-10,000000	0,000000	616,000000	0,000000	2020-11-19T14:40:40:355
-10,000000	0,000000	616,000000	0,000000	2020-11-19T14:40:40:395
-10,000000	0,000000	616,000000	0,000000	2020-11-19T14:40:40:435
-10,000000	0,000000	616,000000	0,000000	2020-11-19T14:40:40:475
-10,000000	0,000000	616,000000	0,000000	2020-11-19T14:40:40:516
-10,000000	0,000000	616,000000	0,000000	2020-11-19T14:40:40:555
-10,000000	0,000000	616,000000	0,000000	2020-11-19T14:40:40:596
-10,000000	0,000000	616,000000	0,000000	2020-11-19T14:40:40:635
-10,000000	0,000000	616,000000	0,000000	2020-11-19T14:40:40:676
-10,000000	0,000000	616,000000	0,000000	2020-11-19T14:40:40:715
-10,000000	0,000000	616,000000	0,000000	2020-11-19T14:40:40:756
92,000000	0,000000	746,000000	0,000000	2020-11-19T14:40:40:795
-10,000000	0,000000	746,000000	0,000000	2020-11-19T14:40:40:836
-10,000000	0,000000	746,000000	0,000000	2020-11-19T14:40:40:876
-10,000000	0,000000	746,000000	0,000000	2020-11-19T14:40:40:917
-10,000000	0,000000	746,000000	0,000000	2020-11-19T14:40:40:955
-10,000000	0,000000	746,000000	0,000000	2020-11-19T14:40:40:996
-10,000000	0,000000	746,000000	0,000000	2020-11-19T14:40:41:036
-10,000000	0,000000	746,000000	0,000000	2020-11-19T14:40:41:076
-10,000000	0,000000	746,000000	0,000000	2020-11-19T14:40:41:116
-10,000000	0,000000	746,000000	0,000000	2020-11-19T14:40:41:157
-10,000000	0,000000	746,000000	0,000000	2020-11-19T14:40:41:196
-10,000000	0,000000	746,000000	0,000000	2020-11-19T14:40:41:237
-10,000000	0,000000	746,000000	0,000000	2020-11-19T14:40:41:276
-10,000000	0,000000	746,000000	0,000000	2020-11-19T14:40:41:317
-10,000000	0,000000	746,000000	0,000000	2020-11-19T14:40:41:356
-10,000000	0,000000	746,000000	0,000000	2020-11-19T14:40:41:397
-10,000000	0,000000	746,000000	0,000000	2020-11-19T14:40:41:435
-10,000000	0,000000	746,000000	0,000000	2020-11-19T14:40:41:477
-10,000000	0,000000	746,000000	0,000000	2020-11-19T14:40:41:517
-10,000000	0,000000	746,000000	0,000000	2020-11-19T14:40:41:557
93,000000	0,000000	617,000000	0,000000	2020-11-19T14:40:41:597
-10,000000	0,000000	617,000000	0,000000	2020-11-19T14:40:41:637
-10,000000	0,000000	617,000000	0,000000	2020-11-19T14:40:41:676
-10,000000	0,000000	617,000000	0,000000	2020-11-19T14:40:41:717
-10,000000	0,000000	617,000000	0,000000	2020-11-19T14:40:41:756
-10,000000	0,000000	617,000000	0,000000	2020-11-19T14:40:41:797
-10,000000	0,000000	617,000000	0,000000	2020-11-19T14:40:41:837
-10,000000	0,000000	617,000000	0,000000	2020-11-19T14:40:41:877
-10,000000	0,000000	617,000000	0,000000	2020-11-19T14:40:41:917
-10,000000	0,000000	617,000000	0,000000	2020-11-19T14:40:41:957
-10,000000	0,000000	617,000000	0,000000	2020-11-19T14:40:41:996
-10,000000	0,000000	617,000000	0,000000	2020-11-19T14:40:42:037
-10,000000	0,000000	617,000000	0,000000	2020-11-19T14:40:42:077
-10,000000	0,000000	617,000000	0,000000	2020-11-19T14:40:42:118
-10,000000	0,000000	617,000000	0,000000	2020-11-19T14:40:42:156
-10,000000	0,000000	617,000000	0,000000	2020-11-19T14:40:42:197
-10,000000	0,000000	617,000000	0,000000	2020-11-19T14:40:42:236
-10,000000	0,000000	617,000000	0,000000	2020-11-19T14:40:42:278
-10,000000	0,000000	617,000000	0,000000	2020-11-19T14:40:42:317
-10,000000	0,000000	617,000000	0,000000	2020-11-19T14:40:42:357
-10,000000	0,000000	617,000000	0,000000	2020-11-19T14:40:42:397
-10,000000	0,000000	617,000000	0,000000	2020-11-19T14:40:42:438
-10,000000	0,000000	617,000000	0,000000	2020-11-19T14:40:42:477
-10,000000	0,000000	617,000000	0,000000	2020-11-19T14:40:42:517
-10,000000	0,000000	617,000000	0,000000	2020-11-19T14:40:42:557
-10,000000	0,000000	617,000000	0,000000	2020-11-19T14:40:42:598
-10,000000	0,000000	617,000000	0,000000	2020-11-19T14:40:42:637
-10,000000	0,000000	617,000000	0,000000	2020-11-19T14:40:42:677
-10,000000	0,000000	617,000000	0,000000	2020-11-19T14:40:42:718
-10,000000	0,000000	617,000000	0,000000	2020-11-19T14:40:42:758
-10,000000	0,000000	617,000000	0,000000	2020-11-19T14:40:42:797
-10,000000	0,000000	617,000000	0,000000	2020-11-19T14:40:42:838
-10,000000	0,000000	617,000000	0,000000	2020-11-19T14:40:42:877
-10,000000	0,000000	617,000000	0,000000	2020-11-19T14:40:42:919
-10,000000	0,000000	617,000000	0,000000	2020-11-19T14:40:42:957
-10,000000	0,000000	617,000000	0,000000	2020-11-19T14:40:42:998
-10,000000	0,000000	617,000000	0,000000	2020-11-19T14:40:43:037
-10,000000	0,000000	617,000000	0,000000	2020-11-19T14:40:43:078
-10,000000	0,000000	617,000000	0,000000	2020-11-19T14:40:43:118
-10,000000	0,000000	617,000000	0,000000	2020-11-19T14:40:43:158
-10,000000	0,000000	617,000000	0,000000	2020-11-19T14:40:43:197
-10,000000	0,000000	617,000000	0,000000	2020-11-19T14:40:43:238
-10,000000	0,000000	617,000000	0,000000	2020-11-19T14:40:43:278
-10,000000	0,000000	617,000000	0,000000	2020-11-19T14:40:43:319
-10,000000	0,000000	617,000000	0,000000	2020-11-19T14:40:43:357
-10,000000	0,000000	617,000000	0,000000	2020-11-19T14:40:43:399
-10,000000	0,000000	617,000000	0,000000	2020-11-19T14:40:43:438
-10,000000	0,000000	617,000000	0,000000	2020-11-19T14:40:43:479
-10,000000	0,000000	617,000000	0,000000	2020-11-19T14:40:43:518
-10,000000	0,000000	617,000000	0,000000	2020-11-19T14:40:43:559
-10,000000	0,000000	617,000000	0,000000	2020-11-19T14:40:43:598
-10,000000	0,000000	617,000000	0,000000	2020-11-19T14:40:43:638
-10,000000	0,000000	617,000000	0,000000	2020-11-19T14:40:43:678
-10,000000	0,000000	617,000000	0,000000	2020-11-19T14:40:43:719
-10,000000	0,000000	617,000000	0,000000	2020-11-19T14:40:43:759
-10,000000	0,000000	617,000000	0,000000	2020-11-19T14:40:43:799
-10,000000	0,000000	617,000000	0,000000	2020-11-19T14:40:43:838
-10,000000	0,000000	617,000000	0,000000	2020-11-19T14:40:43:879
-10,000000	0,000000	617,000000	0,000000	2020-11-19T14:40:43:919
-10,000000	0,000000	617,000000	0,000000	2020-11-19T14:40:43:959
-10,000000	0,000000	617,000000	0,000000	2020-11-19T14:40:43:999
-10,000000	0,000000	617,000000	0,000000	2020-11-19T14:40:44:040
-10,000000	0,000000	617,000000	0,000000	2020-11-19T14:40:44:078
-10,000000	0,000000	617,000000	0,000000	2020-11-19T14:40:44:120
-10,000000	0,000000	617,000000	0,000000	2020-11-19T14:40:44:158
93,000000	0,000000	622,000000	0,000000	2020-11-19T14:40:44:199
-10,000000	0,000000	622,000000	0,000000	2020-11-19T14:40:44:240
-10,000000	0,000000	622,000000	0,000000	2020-11-19T14:40:44:279
-10,000000	0,000000	622,000000	0,000000	2020-11-19T14:40:44:319
-10,000000	0,000000	622,000000	0,000000	2020-11-19T14:40:44:360
-10,000000	0,000000	622,000000	0,000000	2020-11-19T14:40:44:400
-10,000000	0,000000	622,000000	0,000000	2020-11-19T14:40:44:440
-10,000000	0,000000	622,000000	0,000000	2020-11-19T14:40:44:479
-10,000000	0,000000	622,000000	0,000000	2020-11-19T14:40:44:520
-10,000000	0,000000	622,000000	0,000000	2020-11-19T14:40:44:559
-10,000000	0,000000	622,000000	0,000000	2020-11-19T14:40:44:600
-10,000000	0,000000	622,000000	0,000000	2020-11-19T14:40:44:639
-10,000000	0,000000	622,000000	0,000000	2020-11-19T14:40:44:680
-10,000000	0,000000	622,000000	0,000000	2020-11-19T14:40:44:720
-10,000000	0,000000	622,000000	0,000000	2020-11-19T14:40:44:760
-10,000000	0,000000	622,000000	0,000000	2020-11-19T14:40:44:799
-10,000000	0,000000	622,000000	0,000000	2020-11-19T14:40:44:840
-10,000000	0,000000	622,000000	0,000000	2020-11-19T14:40:44:879
-10,000000	0,000000	622,000000	0,000000	2020-11-19T14:40:44:920
-10,000000	0,000000	622,000000	0,000000	2020-11-19T14:40:44:959
-10,000000	0,000000	622,000000	0,000000	2020-11-19T14:40:45:000
-10,000000	0,000000	622,000000	0,000000	2020-11-19T14:40:45:039
-10,000000	0,000000	622,000000	0,000000	2020-11-19T14:40:45:080
-10,000000	0,000000	622,000000	0,000000	2020-11-19T14:40:45:120
-10,000000	0,000000	622,000000	0,000000	2020-11-19T14:40:45:160
-10,000000	0,000000	622,000000	0,000000	2020-11-19T14:40:45:200
-10,000000	0,000000	622,000000	0,000000	2020-11-19T14:40:45:241
-10,000000	0,000000	622,000000	0,000000	2020-11-19T14:40:45:279
-10,000000	0,000000	622,000000	0,000000	2020-11-19T14:40:45:321
-10,000000	0,000000	622,000000	0,000000	2020-11-19T14:40:45:360
-10,000000	0,000000	622,000000	0,000000	2020-11-19T14:40:45:401
-10,000000	0,000000	622,000000	0,000000	2020-11-19T14:40:45:440
-10,000000	0,000000	622,000000	0,000000	2020-11-19T14:40:45:481
-10,000000	0,000000	622,000000	0,000000	2020-11-19T14:40:45:520
-10,000000	0,000000	622,000000	0,000000	2020-11-19T14:40:45:561
-10,000000	0,000000	622,000000	0,000000	2020-11-19T14:40:45:600
-10,000000	0,000000	622,000000	0,000000	2020-11-19T14:40:45:641
-10,000000	0,000000	622,000000	0,000000	2020-11-19T14:40:45:681
-10,000000	0,000000	622,000000	0,000000	2020-11-19T14:40:45:722
-10,000000	0,000000	622,000000	0,000000	2020-11-19T14:40:45:760
-10,000000	0,000000	622,000000	0,000000	2020-11-19T14:40:45:801
-10,000000	0,000000	622,000000	0,000000	2020-11-19T14:40:45:840
-10,000000	0,000000	622,000000	0,000000	2020-11-19T14:40:45:881
-10,000000	0,000000	622,000000	0,000000	2020-11-19T14:40:45:921
-10,000000	0,000000	622,000000	0,000000	2020-11-19T14:40:45:961
-10,000000	0,000000	622,000000	0,000000	2020-11-19T14:40:46:000
-10,000000	0,000000	622,000000	0,000000	2020-11-19T14:40:46:041
-10,000000	0,000000	622,000000	0,000000	2020-11-19T14:40:46:081
-10,000000	0,000000	622,000000	0,000000	2020-11-19T14:40:46:122
-10,000000	0,000000	622,000000	0,000000	2020-11-19T14:40:46:161
-10,000000	0,000000	622,000000	0,000000	2020-11-19T14:40:46:202
-10,000000	0,000000	622,000000	0,000000	2020-11-19T14:40:46:241
-10,000000	0,000000	622,000000	0,000000	2020-11-19T14:40:46:281
-10,000000	0,000000	622,000000	0,000000	2020-11-19T14:40:46:321
-10,000000	0,000000	622,000000	0,000000	2020-11-19T14:40:46:361
-10,000000	0,000000	622,000000	0,000000	2020-11-19T14:40:46:401
-10,000000	0,000000	622,000000	0,000000	2020-11-19T14:40:46:442
-10,000000	0,000000	622,000000	0,000000	2020-11-19T14:40:46:481
-10,000000	0,000000	622,000000	0,000000	2020-11-19T14:40:46:522
-10,000000	0,000000	622,000000	0,000000	2020-11-19T14:40:46:561
-10,000000	0,000000	622,000000	0,000000	2020-11-19T14:40:46:602
-10,000000	0,000000	622,000000	0,000000	2020-11-19T14:40:46:641
-10,000000	0,000000	622,000000	0,000000	2020-11-19T14:40:46:682
-10,000000	0,000000	622,000000	0,000000	2020-11-19T14:40:46:721
-10,000000	0,000000	622,000000	0,000000	2020-11-19T14:40:46:762
-10,000000	0,000000	622,000000	0,000000	2020-11-19T14:40:46:801
-10,000000	0,000000	622,000000	0,000000	2020-11-19T14:40:46:842
-10,000000	0,000000	622,000000	0,000000	2020-11-19T14:40:46:882
94,000000	0,000000	622,000000	0,000000	2020-11-19T14:40:46:923
94,000000	0,000000	622,000000	0,000000	2020-11-19T14:40:46:961
94,000000	0,000000	622,000000	0,000000	2020-11-19T14:40:47:002
94,000000	0,000000	622,000000	0,000000	2020-11-19T14:40:47:041
94,000000	0,000000	622,000000	0,000000	2020-11-19T14:40:47:083
94,000000	0,000000	622,000000	0,000000	2020-11-19T14:40:47:122
94,000000	0,000000	622,000000	0,000000	2020-11-19T14:40:47:163
94,000000	0,000000	622,000000	0,000000	2020-11-19T14:40:47:201
94,000000	0,000000	622,000000	0,000000	2020-11-19T14:40:47:242
94,000000	0,000000	622,000000	0,000000	2020-11-19T14:40:47:282
94,000000	0,000000	622,000000	0,000000	2020-11-19T14:40:47:323
94,000000	0,000000	622,000000	0,000000	2020-11-19T14:40:47:362
94,000000	0,000000	622,000000	0,000000	2020-11-19T14:40:47:403
94,000000	0,000000	622,000000	0,000000	2020-11-19T14:40:47:441
94,000000	0,000000	622,000000	0,000000	2020-11-19T14:40:47:483
94,000000	0,000000	622,000000	0,000000	2020-11-19T14:40:47:522
-10,000000	0,000000	622,000000	0,000000	2020-11-19T14:40:47:563
-10,000000	0,000000	622,000000	0,000000	2020-11-19T14:40:47:602
-10,000000	0,000000	622,000000	0,000000	2020-11-19T14:40:47:643
-10,000000	0,000000	622,000000	0,000000	2020-11-19T14:40:47:682
-10,000000	0,000000	622,000000	0,000000	2020-11-19T14:40:47:723
-10,000000	0,000000	622,000000	0,000000	2020-11-19T14:40:47:762
-10,000000	0,000000	622,000000	0,000000	2020-11-19T14:40:47:803
-10,000000	0,000000	622,000000	0,000000	2020-11-19T14:40:47:843
-10,000000	0,000000	622,000000	0,000000	2020-11-19T14:40:47:883
-10,000000	0,000000	622,000000	0,000000	2020-11-19T14:40:47:923
-10,000000	0,000000	622,000000	0,000000	2020-11-19T14:40:47:964
-10,000000	0,000000	622,000000	0,000000	2020-11-19T14:40:48:002
-10,000000	0,000000	622,000000	0,000000	2020-11-19T14:40:48:043
-10,000000	0,000000	622,000000	0,000000	2020-11-19T14:40:48:083
-10,000000	0,000000	622,000000	0,000000	2020-11-19T14:40:48:124
-10,000000	0,000000	622,000000	0,000000	2020-11-19T14:40:48:163
-10,000000	0,000000	622,000000	0,000000	2020-11-19T14:40:48:203
-10,000000	0,000000	622,000000	0,000000	2020-11-19T14:40:48:243
-10,000000	0,000000	622,000000	0,000000	2020-11-19T14:40:48:283
-10,000000	0,000000	622,000000	0,000000	2020-11-19T14:40:48:323
-10,000000	0,000000	622,000000	0,000000	2020-11-19T14:40:48:364
94,000000	0,000000	663,000000	0,000000	2020-11-19T14:40:48:403
-10,000000	0,000000	663,000000	0,000000	2020-11-19T14:40:48:444
-10,000000	0,000000	663,000000	0,000000	2020-11-19T14:40:48:483
-10,000000	0,000000	663,000000	0,000000	2020-11-19T14:40:48:524
-10,000000	0,000000	663,000000	0,000000	2020-11-19T14:40:48:563
-10,000000	0,000000	663,000000	0,000000	2020-11-19T14:40:48:605
-10,000000	0,000000	663,000000	0,000000	2020-11-19T14:40:48:643
-10,000000	0,000000	663,000000	0,000000	2020-11-19T14:40:48:684
-10,000000	0,000000	663,000000	0,000000	2020-11-19T14:40:48:723
-10,000000	0,000000	663,000000	0,000000	2020-11-19T14:40:48:764
-10,000000	0,000000	663,000000	0,000000	2020-11-19T14:40:48:803
-10,000000	0,000000	663,000000	0,000000	2020-11-19T14:40:48:845
-10,000000	0,000000	663,000000	0,000000	2020-11-19T14:40:48:883
-10,000000	0,000000	663,000000	0,000000	2020-11-19T14:40:48:925
-10,000000	0,000000	663,000000	0,000000	2020-11-19T14:40:48:963
-10,000000	0,000000	663,000000	0,000000	2020-11-19T14:40:49:004
-10,000000	0,000000	663,000000	0,000000	2020-11-19T14:40:49:045
-10,000000	0,000000	663,000000	0,000000	2020-11-19T14:40:49:084
-10,000000	0,000000	663,000000	0,000000	2020-11-19T14:40:49:124
-10,000000	0,000000	663,000000	0,000000	2020-11-19T14:40:49:165
94,000000	0,000000	710,000000	0,000000	2020-11-19T14:40:49:203
-10,000000	0,000000	710,000000	0,000000	2020-11-19T14:40:49:244
-10,000000	0,000000	710,000000	0,000000	2020-11-19T14:40:49:284
-10,000000	0,000000	710,000000	0,000000	2020-11-19T14:40:49:325
-10,000000	0,000000	710,000000	0,000000	2020-11-19T14:40:49:363
-10,000000	0,000000	710,000000	0,000000	2020-11-19T14:40:49:406
-10,000000	0,000000	710,000000	0,000000	2020-11-19T14:40:49:444
-10,000000	0,000000	710,000000	0,000000	2020-11-19T14:40:49:484
-10,000000	0,000000	710,000000	0,000000	2020-11-19T14:40:49:524
-10,000000	0,000000	710,000000	0,000000	2020-11-19T14:40:49:565
-10,000000	0,000000	710,000000	0,000000	2020-11-19T14:40:49:604
-10,000000	0,000000	710,000000	0,000000	2020-11-19T14:40:49:645
-10,000000	0,000000	710,000000	0,000000	2020-11-19T14:40:49:684
-10,000000	0,000000	710,000000	0,000000	2020-11-19T14:40:49:725
-10,000000	0,000000	710,000000	0,000000	2020-11-19T14:40:49:764
-10,000000	0,000000	710,000000	0,000000	2020-11-19T14:40:49:805
-10,000000	0,000000	710,000000	0,000000	2020-11-19T14:40:49:844
-10,000000	0,000000	710,000000	0,000000	2020-11-19T14:40:49:885
-10,000000	0,000000	710,000000	0,000000	2020-11-19T14:40:49:925
-10,000000	0,000000	710,000000	0,000000	2020-11-19T14:40:49:965
94,000000	0,000000	686,000000	0,000000	2020-11-19T14:40:50:004
-10,000000	0,000000	686,000000	0,000000	2020-11-19T14:40:50:046
-10,000000	0,000000	686,000000	0,000000	2020-11-19T14:40:50:084
-10,000000	0,000000	686,000000	0,000000	2020-11-19T14:40:50:126
-10,000000	0,000000	686,000000	0,000000	2020-11-19T14:40:50:164
-10,000000	0,000000	686,000000	0,000000	2020-11-19T14:40:50:205
-10,000000	0,000000	686,000000	0,000000	2020-11-19T14:40:50:245
-10,000000	0,000000	686,000000	0,000000	2020-11-19T14:40:50:286
-10,000000	0,000000	686,000000	0,000000	2020-11-19T14:40:50:325
-10,000000	0,000000	686,000000	0,000000	2020-11-19T14:40:50:366
-10,000000	0,000000	686,000000	0,000000	2020-11-19T14:40:50:405
-10,000000	0,000000	686,000000	0,000000	2020-11-19T14:40:50:445
-10,000000	0,000000	686,000000	0,000000	2020-11-19T14:40:50:485
-10,000000	0,000000	686,000000	0,000000	2020-11-19T14:40:50:526
-10,000000	0,000000	686,000000	0,000000	2020-11-19T14:40:50:565
-10,000000	0,000000	686,000000	0,000000	2020-11-19T14:40:50:606
-10,000000	0,000000	686,000000	0,000000	2020-11-19T14:40:50:645
-10,000000	0,000000	686,000000	0,000000	2020-11-19T14:40:50:687
-10,000000	0,000000	686,000000	0,000000	2020-11-19T14:40:50:725
-10,000000	0,000000	686,000000	0,000000	2020-11-19T14:40:50:766
-10,000000	0,000000	686,000000	0,000000	2020-11-19T14:40:50:805
-10,000000	0,000000	686,000000	0,000000	2020-11-19T14:40:50:846
-10,000000	0,000000	686,000000	0,000000	2020-11-19T14:40:50:885
-10,000000	0,000000	686,000000	0,000000	2020-11-19T14:40:50:926
-10,000000	0,000000	686,000000	0,000000	2020-11-19T14:40:50:965
-10,000000	0,000000	686,000000	0,000000	2020-11-19T14:40:51:006
-10,000000	0,000000	686,000000	0,000000	2020-11-19T14:40:51:045
-10,000000	0,000000	686,000000	0,000000	2020-11-19T14:40:51:086
-10,000000	0,000000	686,000000	0,000000	2020-11-19T14:40:51:126
94,000000	0,000000	686,000000	0,000000	2020-11-19T14:40:51:166
94,000000	0,000000	686,000000	0,000000	2020-11-19T14:40:51:205
94,000000	0,000000	686,000000	0,000000	2020-11-19T14:40:51:247
94,000000	0,000000	686,000000	0,000000	2020-11-19T14:40:51:285
94,000000	0,000000	686,000000	0,000000	2020-11-19T14:40:51:327
94,000000	0,000000	686,000000	0,000000	2020-11-19T14:40:51:365
94,000000	0,000000	686,000000	0,000000	2020-11-19T14:40:51:406
94,000000	0,000000	686,000000	0,000000	2020-11-19T14:40:51:446
94,000000	0,000000	686,000000	0,000000	2020-11-19T14:40:51:487
94,000000	0,000000	686,000000	0,000000	2020-11-19T14:40:51:526
93,000000	0,000000	686,000000	0,000000	2020-11-19T14:40:51:567
93,000000	0,000000	686,000000	0,000000	2020-11-19T14:40:51:606
94,000000	0,000000	686,000000	0,000000	2020-11-19T14:40:51:647
94,000000	0,000000	686,000000	0,000000	2020-11-19T14:40:51:686
93,000000	0,000000	686,000000	0,000000	2020-11-19T14:40:51:727
93,000000	0,000000	686,000000	0,000000	2020-11-19T14:40:51:766
93,000000	0,000000	686,000000	0,000000	2020-11-19T14:40:51:807
93,000000	0,000000	686,000000	0,000000	2020-11-19T14:40:51:845
93,000000	0,000000	686,000000	0,000000	2020-11-19T14:40:51:887
93,000000	0,000000	686,000000	0,000000	2020-11-19T14:40:51:927
93,000000	0,000000	686,000000	0,000000	2020-11-19T14:40:51:967
93,000000	0,000000	686,000000	0,000000	2020-11-19T14:40:52:006
93,000000	0,000000	686,000000	0,000000	2020-11-19T14:40:52:047
93,000000	0,000000	686,000000	0,000000	2020-11-19T14:40:52:086
93,000000	0,000000	686,000000	0,000000	2020-11-19T14:40:52:127
93,000000	0,000000	686,000000	0,000000	2020-11-19T14:40:52:167
93,000000	0,000000	686,000000	0,000000	2020-11-19T14:40:52:207
93,000000	0,000000	686,000000	0,000000	2020-11-19T14:40:52:246
93,000000	0,000000	686,000000	0,000000	2020-11-19T14:40:52:288
93,000000	0,000000	686,000000	0,000000	2020-11-19T14:40:52:327
93,000000	0,000000	686,000000	0,000000	2020-11-19T14:40:52:367
93,000000	0,000000	686,000000	0,000000	2020-11-19T14:40:52:406
93,000000	0,000000	686,000000	0,000000	2020-11-19T14:40:52:448
93,000000	0,000000	686,000000	0,000000	2020-11-19T14:40:52:487
93,000000	0,000000	686,000000	0,000000	2020-11-19T14:40:52:528
93,000000	0,000000	686,000000	0,000000	2020-11-19T14:40:52:567
93,000000	0,000000	686,000000	0,000000	2020-11-19T14:40:52:609
93,000000	0,000000	686,000000	0,000000	2020-11-19T14:40:52:647
93,000000	0,000000	686,000000	0,000000	2020-11-19T14:40:52:688
93,000000	0,000000	686,000000	0,000000	2020-11-19T14:40:52:727
93,000000	0,000000	686,000000	0,000000	2020-11-19T14:40:52:768
93,000000	0,000000	686,000000	0,000000	2020-11-19T14:40:52:808
93,000000	0,000000	686,000000	0,000000	2020-11-19T14:40:52:848
93,000000	0,000000	686,000000	0,000000	2020-11-19T14:40:52:888
93,000000	0,000000	686,000000	0,000000	2020-11-19T14:40:52:930
93,000000	0,000000	686,000000	0,000000	2020-11-19T14:40:52:967
93,000000	0,000000	686,000000	0,000000	2020-11-19T14:40:53:008
93,000000	0,000000	686,000000	0,000000	2020-11-19T14:40:53:048
93,000000	0,000000	686,000000	0,000000	2020-11-19T14:40:53:088
93,000000	0,000000	686,000000	0,000000	2020-11-19T14:40:53:129
93,000000	0,000000	686,000000	0,000000	2020-11-19T14:40:53:169
93,000000	0,000000	686,000000	0,000000	2020-11-19T14:40:53:208
93,000000	0,000000	686,000000	0,000000	2020-11-19T14:40:53:249
93,000000	0,000000	686,000000	0,000000	2020-11-19T14:40:53:288
93,000000	0,000000	686,000000	0,000000	2020-11-19T14:40:53:329
93,000000	0,000000	686,000000	0,000000	2020-11-19T14:40:53:368
93,000000	0,000000	686,000000	0,000000	2020-11-19T14:40:53:409
93,000000	0,000000	686,000000	0,000000	2020-11-19T14:40:53:448
93,000000	0,000000	686,000000	0,000000	2020-11-19T14:40:53:489
93,000000	0,000000	686,000000	0,000000	2020-11-19T14:40:53:528
93,000000	0,000000	686,000000	0,000000	2020-11-19T14:40:53:569
93,000000	0,000000	686,000000	0,000000	2020-11-19T14:40:53:608
93,000000	0,000000	686,000000	0,000000	2020-11-19T14:40:53:649
93,000000	0,000000	686,000000	0,000000	2020-11-19T14:40:53:689
93,000000	0,000000	686,000000	0,000000	2020-11-19T14:40:53:731
93,000000	0,000000	686,000000	0,000000	2020-11-19T14:40:53:769
93,000000	0,000000	686,000000	0,000000	2020-11-19T14:40:53:809
93,000000	0,000000	686,000000	0,000000	2020-11-19T14:40:53:849
92,000000	0,000000	686,000000	0,000000	2020-11-19T14:40:53:889
92,000000	0,000000	686,000000	0,000000	2020-11-19T14:40:53:929
93,000000	0,000000	686,000000	0,000000	2020-11-19T14:40:53:970
93,000000	0,000000	633,000000	0,000000	2020-11-19T14:40:54:009
93,000000	0,000000	633,000000	0,000000	2020-11-19T14:40:54:050
93,000000	0,000000	633,000000	0,000000	2020-11-19T14:40:54:089
93,000000	0,000000	633,000000	0,000000	2020-11-19T14:40:54:130
93,000000	0,000000	633,000000	0,000000	2020-11-19T14:40:54:169
93,000000	0,000000	633,000000	0,000000	2020-11-19T14:40:54:210
92,000000	0,000000	633,000000	0,000000	2020-11-19T14:40:54:248
92,000000	0,000000	633,000000	0,000000	2020-11-19T14:40:54:290
92,000000	0,000000	633,000000	0,000000	2020-11-19T14:40:54:329
92,000000	0,000000	633,000000	0,000000	2020-11-19T14:40:54:370
92,000000	0,000000	633,000000	0,000000	2020-11-19T14:40:54:411
92,000000	0,000000	633,000000	0,000000	2020-11-19T14:40:54:450
92,000000	0,000000	633,000000	0,000000	2020-11-19T14:40:54:489
92,000000	0,000000	633,000000	0,000000	2020-11-19T14:40:54:530
92,000000	0,000000	633,000000	0,000000	2020-11-19T14:40:54:569
92,000000	0,000000	641,000000	0,000000	2020-11-19T14:40:54:610
92,000000	0,000000	641,000000	0,000000	2020-11-19T14:40:54:649
92,000000	0,000000	641,000000	0,000000	2020-11-19T14:40:54:690
92,000000	0,000000	641,000000	0,000000	2020-11-19T14:40:54:730
92,000000	0,000000	641,000000	0,000000	2020-11-19T14:40:54:770
92,000000	0,000000	641,000000	0,000000	2020-11-19T14:40:54:810
93,000000	0,000000	641,000000	0,000000	2020-11-19T14:40:54:850
93,000000	0,000000	641,000000	0,000000	2020-11-19T14:40:54:889
93,000000	0,000000	641,000000	0,000000	2020-11-19T14:40:54:930
93,000000	0,000000	641,000000	0,000000	2020-11-19T14:40:54:970
93,000000	0,000000	641,000000	0,000000	2020-11-19T14:40:55:010
93,000000	0,000000	641,000000	0,000000	2020-11-19T14:40:55:050
93,000000	0,000000	641,000000	0,000000	2020-11-19T14:40:55:090
93,000000	0,000000	641,000000	0,000000	2020-11-19T14:40:55:130
92,000000	0,000000	641,000000	0,000000	2020-11-19T14:40:55:171
92,000000	0,000000	641,000000	0,000000	2020-11-19T14:40:55:210
92,000000	0,000000	641,000000	0,000000	2020-11-19T14:40:55:250
92,000000	0,000000	641,000000	0,000000	2020-11-19T14:40:55:290
92,000000	0,000000	641,000000	0,000000	2020-11-19T14:40:55:332
92,000000	0,000000	641,000000	0,000000	2020-11-19T14:40:55:370
92,000000	0,000000	610,000000	0,000000	2020-11-19T14:40:55:411
92,000000	0,000000	610,000000	0,000000	2020-11-19T14:40:55:450
92,000000	0,000000	610,000000	0,000000	2020-11-19T14:40:55:491
92,000000	0,000000	610,000000	0,000000	2020-11-19T14:40:55:530
92,000000	0,000000	610,000000	0,000000	2020-11-19T14:40:55:571
92,000000	0,000000	610,000000	0,000000	2020-11-19T14:40:55:610
92,000000	0,000000	610,000000	0,000000	2020-11-19T14:40:55:651
92,000000	0,000000	610,000000	0,000000	2020-11-19T14:40:55:691
92,000000	0,000000	610,000000	0,000000	2020-11-19T14:40:55:732
92,000000	0,000000	610,000000	0,000000	2020-11-19T14:40:55:771
92,000000	0,000000	610,000000	0,000000	2020-11-19T14:40:55:812
92,000000	0,000000	610,000000	0,000000	2020-11-19T14:40:55:850
92,000000	0,000000	610,000000	0,000000	2020-11-19T14:40:55:892
92,000000	0,000000	610,000000	0,000000	2020-11-19T14:40:55:931
92,000000	0,000000	610,000000	0,000000	2020-11-19T14:40:55:971
92,000000	0,000000	610,000000	0,000000	2020-11-19T14:40:56:011
92,000000	0,000000	610,000000	0,000000	2020-11-19T14:40:56:052
91,000000	0,000000	610,000000	0,000000	2020-11-19T14:40:56:090
92,000000	0,000000	610,000000	0,000000	2020-11-19T14:40:56:170
92,000000	0,000000	610,000000	0,000000	2020-11-19T14:40:56:171
92,000000	0,000000	610,000000	0,000000	2020-11-19T14:40:56:227
92,000000	0,000000	610,000000	0,000000	2020-11-19T14:40:56:251
92,000000	0,000000	610,000000	0,000000	2020-11-19T14:40:56:291
92,000000	0,000000	610,000000	0,000000	2020-11-19T14:40:56:331
92,000000	0,000000	610,000000	0,000000	2020-11-19T14:40:56:371
-10,000000	0,000000	610,000000	0,000000	2020-11-19T14:40:56:411
-10,000000	0,000000	610,000000	0,000000	2020-11-19T14:40:56:452
-10,000000	0,000000	610,000000	0,000000	2020-11-19T14:40:56:491
-10,000000	0,000000	610,000000	0,000000	2020-11-19T14:40:56:532
-10,000000	0,000000	610,000000	0,000000	2020-11-19T14:40:56:571
-10,000000	0,000000	610,000000	0,000000	2020-11-19T14:40:56:612
-10,000000	0,000000	610,000000	0,000000	2020-11-19T14:40:56:650
-10,000000	0,000000	610,000000	0,000000	2020-11-19T14:40:56:692
-10,000000	0,000000	610,000000	0,000000	2020-11-19T14:40:56:731
-10,000000	0,000000	610,000000	0,000000	2020-11-19T14:40:56:772
-10,000000	0,000000	610,000000	0,000000	2020-11-19T14:40:56:811
-10,000000	0,000000	610,000000	0,000000	2020-11-19T14:40:56:852
-10,000000	0,000000	610,000000	0,000000	2020-11-19T14:40:56:891
-10,000000	0,000000	610,000000	0,000000	2020-11-19T14:40:56:933
-10,000000	0,000000	610,000000	0,000000	2020-11-19T14:40:56:971
-10,000000	0,000000	610,000000	0,000000	2020-11-19T14:40:57:012
-10,000000	0,000000	610,000000	0,000000	2020-11-19T14:40:57:051
-10,000000	0,000000	610,000000	0,000000	2020-11-19T14:40:57:096
-10,000000	0,000000	610,000000	0,000000	2020-11-19T14:40:57:132
-10,000000	0,000000	610,000000	0,000000	2020-11-19T14:40:57:175
-10,000000	0,000000	610,000000	0,000000	2020-11-19T14:40:57:212
-10,000000	0,000000	610,000000	0,000000	2020-11-19T14:40:57:253
-10,000000	0,000000	610,000000	0,000000	2020-11-19T14:40:57:291
-10,000000	0,000000	610,000000	0,000000	2020-11-19T14:40:57:333
-10,000000	0,000000	610,000000	0,000000	2020-11-19T14:40:57:372
-10,000000	0,000000	610,000000	0,000000	2020-11-19T14:40:57:413
-10,000000	0,000000	610,000000	0,000000	2020-11-19T14:40:57:452
-10,000000	0,000000	610,000000	0,000000	2020-11-19T14:40:57:493
-10,000000	0,000000	610,000000	0,000000	2020-11-19T14:40:57:532
-10,000000	0,000000	610,000000	0,000000	2020-11-19T14:40:57:573
-10,000000	0,000000	610,000000	0,000000	2020-11-19T14:40:57:612
-10,000000	0,000000	610,000000	0,000000	2020-11-19T14:40:57:653
-10,000000	0,000000	610,000000	0,000000	2020-11-19T14:40:57:692
-10,000000	0,000000	610,000000	0,000000	2020-11-19T14:40:57:733
-10,000000	0,000000	610,000000	0,000000	2020-11-19T14:40:57:772
91,000000	0,000000	610,000000	0,000000	2020-11-19T14:40:57:813
91,000000	0,000000	610,000000	0,000000	2020-11-19T14:40:57:852
91,000000	0,000000	610,000000	0,000000	2020-11-19T14:40:57:893
91,000000	0,000000	610,000000	0,000000	2020-11-19T14:40:57:934
91,000000	0,000000	610,000000	0,000000	2020-11-19T14:40:57:973
91,000000	0,000000	610,000000	0,000000	2020-11-19T14:40:58:012
92,000000	0,000000	610,000000	0,000000	2020-11-19T14:40:58:053
92,000000	0,000000	610,000000	0,000000	2020-11-19T14:40:58:092
92,000000	0,000000	610,000000	0,000000	2020-11-19T14:40:58:134
92,000000	0,000000	610,000000	0,000000	2020-11-19T14:40:58:173
91,000000	0,000000	610,000000	0,000000	2020-11-19T14:40:58:213
92,000000	0,000000	610,000000	0,000000	2020-11-19T14:40:58:253
92,000000	0,000000	610,000000	0,000000	2020-11-19T14:40:58:293
92,000000	0,000000	610,000000	0,000000	2020-11-19T14:40:58:333
92,000000	0,000000	610,000000	0,000000	2020-11-19T14:40:58:374
92,000000	0,000000	610,000000	0,000000	2020-11-19T14:40:58:413
92,000000	0,000000	610,000000	0,000000	2020-11-19T14:40:58:454
92,000000	0,000000	610,000000	0,000000	2020-11-19T14:40:58:492
92,000000	0,000000	610,000000	0,000000	2020-11-19T14:40:58:534
92,000000	0,000000	610,000000	0,000000	2020-11-19T14:40:58:573
92,000000	0,000000	610,000000	0,000000	2020-11-19T14:40:58:614
92,000000	0,000000	610,000000	0,000000	2020-11-19T14:40:58:653
92,000000	0,000000	610,000000	0,000000	2020-11-19T14:40:58:694
92,000000	0,000000	610,000000	0,000000	2020-11-19T14:40:58:733
92,000000	0,000000	610,000000	0,000000	2020-11-19T14:40:58:774
92,000000	0,000000	610,000000	0,000000	2020-11-19T14:40:58:812
92,000000	0,000000	610,000000	0,000000	2020-11-19T14:40:58:854
92,000000	0,000000	610,000000	0,000000	2020-11-19T14:40:58:893
92,000000	0,000000	610,000000	0,000000	2020-11-19T14:40:58:935
92,000000	0,000000	610,000000	0,000000	2020-11-19T14:40:58:972
92,000000	0,000000	610,000000	0,000000	2020-11-19T14:40:59:015
92,000000	0,000000	610,000000	0,000000	2020-11-19T14:40:59:054
92,000000	0,000000	610,000000	0,000000	2020-11-19T14:40:59:095
92,000000	0,000000	610,000000	0,000000	2020-11-19T14:40:59:134
92,000000	0,000000	610,000000	0,000000	2020-11-19T14:40:59:175
92,000000	0,000000	610,000000	0,000000	2020-11-19T14:40:59:213
-10,000000	0,000000	610,000000	0,000000	2020-11-19T14:40:59:255
-10,000000	0,000000	610,000000	0,000000	2020-11-19T14:40:59:294
-10,000000	0,000000	610,000000	0,000000	2020-11-19T14:40:59:335
-10,000000	0,000000	610,000000	0,000000	2020-11-19T14:40:59:373
-10,000000	0,000000	610,000000	0,000000	2020-11-19T14:40:59:416
-10,000000	0,000000	610,000000	0,000000	2020-11-19T14:40:59:453
-10,000000	0,000000	610,000000	0,000000	2020-11-19T14:40:59:495
-10,000000	0,000000	610,000000	0,000000	2020-11-19T14:40:59:533
-10,000000	0,000000	610,000000	0,000000	2020-11-19T14:40:59:575
-10,000000	0,000000	610,000000	0,000000	2020-11-19T14:40:59:614
-10,000000	0,000000	610,000000	0,000000	2020-11-19T14:40:59:655
-10,000000	0,000000	610,000000	0,000000	2020-11-19T14:40:59:693
-10,000000	0,000000	610,000000	0,000000	2020-11-19T14:40:59:735
-10,000000	0,000000	610,000000	0,000000	2020-11-19T14:40:59:774
-10,000000	0,000000	610,000000	0,000000	2020-11-19T14:40:59:815
-10,000000	0,000000	610,000000	0,000000	2020-11-19T14:40:59:854
-10,000000	0,000000	610,000000	0,000000	2020-11-19T14:40:59:895
-10,000000	0,000000	610,000000	0,000000	2020-11-19T14:40:59:934
-10,000000	0,000000	610,000000	0,000000	2020-11-19T14:40:59:975
-10,000000	0,000000	610,000000	0,000000	2020-11-19T14:41:00:014
-10,000000	0,000000	610,000000	0,000000	2020-11-19T14:41:00:055
-10,000000	0,000000	610,000000	0,000000	2020-11-19T14:41:00:094
-10,000000	0,000000	610,000000	0,000000	2020-11-19T14:41:00:136
-10,000000	0,000000	610,000000	0,000000	2020-11-19T14:41:00:174
-10,000000	0,000000	610,000000	0,000000	2020-11-19T14:41:00:215
-10,000000	0,000000	610,000000	0,000000	2020-11-19T14:41:00:254
-10,000000	0,000000	610,000000	0,000000	2020-11-19T14:41:00:295
-10,000000	0,000000	610,000000	0,000000	2020-11-19T14:41:00:335
-10,000000	0,000000	610,000000	0,000000	2020-11-19T14:41:00:376
-10,000000	0,000000	610,000000	0,000000	2020-11-19T14:41:00:415
-10,000000	0,000000	610,000000	0,000000	2020-11-19T14:41:00:457
-10,000000	0,000000	610,000000	0,000000	2020-11-19T14:41:00:495
-10,000000	0,000000	610,000000	0,000000	2020-11-19T14:41:00:536
-10,000000	0,000000	610,000000	0,000000	2020-11-19T14:41:00:575
-10,000000	0,000000	610,000000	0,000000	2020-11-19T14:41:00:616
-10,000000	0,000000	610,000000	0,000000	2020-11-19T14:41:00:654
-10,000000	0,000000	610,000000	0,000000	2020-11-19T14:41:00:696
-10,000000	0,000000	610,000000	0,000000	2020-11-19T14:41:00:735
-10,000000	0,000000	610,000000	0,000000	2020-11-19T14:41:00:776
-10,000000	0,000000	610,000000	0,000000	2020-11-19T14:41:00:815
-10,000000	0,000000	610,000000	0,000000	2020-11-19T14:41:00:856
-10,000000	0,000000	610,000000	0,000000	2020-11-19T14:41:00:895
-10,000000	0,000000	610,000000	0,000000	2020-11-19T14:41:00:936
-10,000000	0,000000	610,000000	0,000000	2020-11-19T14:41:00:975
-10,000000	0,000000	610,000000	0,000000	2020-11-19T14:41:01:016
-10,000000	0,000000	610,000000	0,000000	2020-11-19T14:41:01:055
-10,000000	0,000000	610,000000	0,000000	2020-11-19T14:41:01:096
-10,000000	0,000000	610,000000	0,000000	2020-11-19T14:41:01:135
-10,000000	0,000000	610,000000	0,000000	2020-11-19T14:41:01:176
-10,000000	0,000000	610,000000	0,000000	2020-11-19T14:41:01:215
-10,000000	0,000000	610,000000	0,000000	2020-11-19T14:41:01:257
-10,000000	0,000000	610,000000	0,000000	2020-11-19T14:41:01:295
-10,000000	0,000000	610,000000	0,000000	2020-11-19T14:41:01:337
-10,000000	0,000000	610,000000	0,000000	2020-11-19T14:41:01:375
-10,000000	0,000000	610,000000	0,000000	2020-11-19T14:41:01:417
-10,000000	0,000000	610,000000	0,000000	2020-11-19T14:41:01:456
-10,000000	0,000000	610,000000	0,000000	2020-11-19T14:41:01:497
-10,000000	0,000000	610,000000	0,000000	2020-11-19T14:41:01:536
-10,000000	0,000000	610,000000	0,000000	2020-11-19T14:41:01:577
-10,000000	0,000000	610,000000	0,000000	2020-11-19T14:41:01:616
-10,000000	0,000000	610,000000	0,000000	2020-11-19T14:41:01:657
-10,000000	0,000000	610,000000	0,000000	2020-11-19T14:41:01:696
-10,000000	0,000000	610,000000	0,000000	2020-11-19T14:41:01:737
-10,000000	0,000000	610,000000	0,000000	2020-11-19T14:41:01:776
-10,000000	0,000000	610,000000	0,000000	2020-11-19T14:41:01:817
-10,000000	0,000000	610,000000	0,000000	2020-11-19T14:41:01:856
-10,000000	0,000000	610,000000	0,000000	2020-11-19T14:41:01:897
-10,000000	0,000000	610,000000	0,000000	2020-11-19T14:41:01:937
-10,000000	0,000000	610,000000	0,000000	2020-11-19T14:41:01:977
-10,000000	0,000000	610,000000	0,000000	2020-11-19T14:41:02:017
-10,000000	0,000000	610,000000	0,000000	2020-11-19T14:41:02:058
-10,000000	0,000000	610,000000	0,000000	2020-11-19T14:41:02:096
-10,000000	0,000000	610,000000	0,000000	2020-11-19T14:41:02:138
-10,000000	0,000000	610,000000	0,000000	2020-11-19T14:41:02:177
-10,000000	0,000000	610,000000	0,000000	2020-11-19T14:41:02:217
-10,000000	0,000000	610,000000	0,000000	2020-11-19T14:41:02:257
-10,000000	0,000000	610,000000	0,000000	2020-11-19T14:41:02:297
-10,000000	0,000000	610,000000	0,000000	2020-11-19T14:41:02:337
-10,000000	0,000000	610,000000	0,000000	2020-11-19T14:41:02:377
-10,000000	0,000000	610,000000	0,000000	2020-11-19T14:41:02:417
-10,000000	0,000000	610,000000	0,000000	2020-11-19T14:41:02:457
-10,000000	0,000000	610,000000	0,000000	2020-11-19T14:41:02:497
-10,000000	0,000000	610,000000	0,000000	2020-11-19T14:41:02:538
-10,000000	0,000000	610,000000	0,000000	2020-11-19T14:41:02:577
-10,000000	0,000000	610,000000	0,000000	2020-11-19T14:41:02:618
-10,000000	0,000000	610,000000	0,000000	2020-11-19T14:41:02:656
-10,000000	0,000000	610,000000	0,000000	2020-11-19T14:41:02:698
-10,000000	0,000000	610,000000	0,000000	2020-11-19T14:41:02:737
-10,000000	0,000000	610,000000	0,000000	2020-11-19T14:41:02:778
-10,000000	0,000000	610,000000	0,000000	2020-11-19T14:41:02:817
-10,000000	0,000000	610,000000	0,000000	2020-11-19T14:41:02:858
-10,000000	0,000000	610,000000	0,000000	2020-11-19T14:41:02:897
-10,000000	0,000000	610,000000	0,000000	2020-11-19T14:41:02:939
-10,000000	0,000000	610,000000	0,000000	2020-11-19T14:41:02:977
-10,000000	0,000000	610,000000	0,000000	2020-11-19T14:41:03:018
-10,000000	0,000000	610,000000	0,000000	2020-11-19T14:41:03:057
-10,000000	0,000000	610,000000	0,000000	2020-11-19T14:41:03:098
-10,000000	0,000000	610,000000	0,000000	2020-11-19T14:41:03:138
-10,000000	0,000000	610,000000	0,000000	2020-11-19T14:41:03:178
-10,000000	0,000000	610,000000	0,000000	2020-11-19T14:41:03:217
-10,000000	0,000000	610,000000	0,000000	2020-11-19T14:41:03:258
-10,000000	0,000000	610,000000	0,000000	2020-11-19T14:41:03:297
-10,000000	0,000000	610,000000	0,000000	2020-11-19T14:41:03:339
-10,000000	0,000000	610,000000	0,000000	2020-11-19T14:41:03:377
-10,000000	0,000000	610,000000	0,000000	2020-11-19T14:41:03:418
-10,000000	0,000000	610,000000	0,000000	2020-11-19T14:41:03:458
-10,000000	0,000000	610,000000	0,000000	2020-11-19T14:41:03:499
-10,000000	0,000000	610,000000	0,000000	2020-11-19T14:41:03:538
-10,000000	0,000000	610,000000	0,000000	2020-11-19T14:41:03:579
-10,000000	0,000000	610,000000	0,000000	2020-11-19T14:41:03:618
-10,000000	0,000000	610,000000	0,000000	2020-11-19T14:41:03:659
-10,000000	0,000000	610,000000	0,000000	2020-11-19T14:41:03:698
-10,000000	0,000000	610,000000	0,000000	2020-11-19T14:41:03:739
-10,000000	0,000000	610,000000	0,000000	2020-11-19T14:41:03:778
-10,000000	0,000000	610,000000	0,000000	2020-11-19T14:41:03:819
-10,000000	0,000000	610,000000	0,000000	2020-11-19T14:41:03:858
-10,000000	0,000000	610,000000	0,000000	2020-11-19T14:41:03:899
-10,000000	0,000000	610,000000	0,000000	2020-11-19T14:41:03:939
-10,000000	0,000000	610,000000	0,000000	2020-11-19T14:41:03:979
-10,000000	0,000000	610,000000	0,000000	2020-11-19T14:41:04:018
-10,000000	0,000000	610,000000	0,000000	2020-11-19T14:41:04:059
-10,000000	0,000000	610,000000	0,000000	2020-11-19T14:41:04:099
-10,000000	0,000000	610,000000	0,000000	2020-11-19T14:41:04:140
-10,000000	0,000000	610,000000	0,000000	2020-11-19T14:41:04:179
-10,000000	0,000000	610,000000	0,000000	2020-11-19T14:41:04:219
-10,000000	0,000000	610,000000	0,000000	2020-11-19T14:41:04:258
-10,000000	0,000000	610,000000	0,000000	2020-11-19T14:41:04:299
-10,000000	0,000000	610,000000	0,000000	2020-11-19T14:41:04:340
-10,000000	0,000000	610,000000	0,000000	2020-11-19T14:41:04:379
-10,000000	0,000000	610,000000	0,000000	2020-11-19T14:41:04:421
-10,000000	0,000000	610,000000	0,000000	2020-11-19T14:41:04:459
-10,000000	0,000000	610,000000	0,000000	2020-11-19T14:41:04:499
-10,000000	0,000000	610,000000	0,000000	2020-11-19T14:41:04:540
-10,000000	0,000000	610,000000	0,000000	2020-11-19T14:41:04:579
-10,000000	0,000000	610,000000	0,000000	2020-11-19T14:41:04:620
-10,000000	0,000000	610,000000	0,000000	2020-11-19T14:41:04:660
-10,000000	0,000000	610,000000	0,000000	2020-11-19T14:41:04:700
-10,000000	0,000000	610,000000	0,000000	2020-11-19T14:41:04:739
-10,000000	0,000000	610,000000	0,000000	2020-11-19T14:41:04:780
-10,000000	0,000000	610,000000	0,000000	2020-11-19T14:41:04:819
-10,000000	0,000000	610,000000	0,000000	2020-11-19T14:41:04:860
-10,000000	0,000000	610,000000	0,000000	2020-11-19T14:41:04:899
-10,000000	0,000000	610,000000	0,000000	2020-11-19T14:41:04:941
-10,000000	0,000000	610,000000	0,000000	2020-11-19T14:41:04:979
-10,000000	0,000000	610,000000	0,000000	2020-11-19T14:41:05:020
-10,000000	0,000000	610,000000	0,000000	2020-11-19T14:41:05:059
-10,000000	0,000000	610,000000	0,000000	2020-11-19T14:41:05:100
-10,000000	0,000000	610,000000	0,000000	2020-11-19T14:41:05:140
-10,000000	0,000000	610,000000	0,000000	2020-11-19T14:41:05:180
-10,000000	0,000000	610,000000	0,000000	2020-11-19T14:41:05:219
-10,000000	0,000000	610,000000	0,000000	2020-11-19T14:41:05:260
-10,000000	0,000000	610,000000	0,000000	2020-11-19T14:41:05:300
-10,000000	0,000000	610,000000	0,000000	2020-11-19T14:41:05:341
-10,000000	0,000000	610,000000	0,000000	2020-11-19T14:41:05:380
-10,000000	0,000000	610,000000	0,000000	2020-11-19T14:41:05:420
-10,000000	0,000000	610,000000	0,000000	2020-11-19T14:41:05:459
-10,000000	0,000000	610,000000	0,000000	2020-11-19T14:41:05:501
-10,000000	0,000000	610,000000	0,000000	2020-11-19T14:41:05:540
-10,000000	0,000000	610,000000	0,000000	2020-11-19T14:41:05:580
-10,000000	0,000000	610,000000	0,000000	2020-11-19T14:41:05:620
-10,000000	0,000000	610,000000	0,000000	2020-11-19T14:41:05:661
-10,000000	0,000000	610,000000	0,000000	2020-11-19T14:41:05:700
-10,000000	0,000000	610,000000	0,000000	2020-11-19T14:41:05:741
-10,000000	0,000000	610,000000	0,000000	2020-11-19T14:41:05:780
-10,000000	0,000000	610,000000	0,000000	2020-11-19T14:41:05:821
-10,000000	0,000000	610,000000	0,000000	2020-11-19T14:41:05:860
-10,000000	0,000000	610,000000	0,000000	2020-11-19T14:41:05:901
-10,000000	0,000000	610,000000	0,000000	2020-11-19T14:41:05:941
-10,000000	0,000000	610,000000	0,000000	2020-11-19T14:41:05:981
-10,000000	0,000000	610,000000	0,000000	2020-11-19T14:41:06:020
-10,000000	0,000000	610,000000	0,000000	2020-11-19T14:41:06:061
-10,000000	0,000000	610,000000	0,000000	2020-11-19T14:41:06:100
-10,000000	0,000000	610,000000	0,000000	2020-11-19T14:41:06:141
-10,000000	0,000000	610,000000	0,000000	2020-11-19T14:41:06:180
-10,000000	0,000000	610,000000	0,000000	2020-11-19T14:41:06:221
-10,000000	0,000000	610,000000	0,000000	2020-11-19T14:41:06:261
-10,000000	0,000000	610,000000	0,000000	2020-11-19T14:41:06:301
-10,000000	0,000000	610,000000	0,000000	2020-11-19T14:41:06:341
-10,000000	0,000000	610,000000	0,000000	2020-11-19T14:41:06:381
-10,000000	0,000000	610,000000	0,000000	2020-11-19T14:41:06:420
-10,000000	0,000000	610,000000	0,000000	2020-11-19T14:41:06:461
-10,000000	0,000000	610,000000	0,000000	2020-11-19T14:41:06:500
-10,000000	0,000000	610,000000	0,000000	2020-11-19T14:41:06:542
-10,000000	0,000000	610,000000	0,000000	2020-11-19T14:41:06:581
-10,000000	0,000000	610,000000	0,000000	2020-11-19T14:41:06:622
-10,000000	0,000000	610,000000	0,000000	2020-11-19T14:41:06:660
-10,000000	0,000000	610,000000	0,000000	2020-11-19T14:41:06:701
-10,000000	0,000000	610,000000	0,000000	2020-11-19T14:41:06:741
-10,000000	0,000000	610,000000	0,000000	2020-11-19T14:41:06:781
-10,000000	0,000000	610,000000	0,000000	2020-11-19T14:41:06:821
-10,000000	0,000000	610,000000	0,000000	2020-11-19T14:41:06:861
-10,000000	0,000000	610,000000	0,000000	2020-11-19T14:41:06:901
-10,000000	0,000000	610,000000	0,000000	2020-11-19T14:41:06:942
-10,000000	0,000000	610,000000	0,000000	2020-11-19T14:41:06:981
-10,000000	0,000000	610,000000	0,000000	2020-11-19T14:41:07:022
87,000000	0,000000	610,000000	0,000000	2020-11-19T14:41:07:061
-10,000000	0,000000	610,000000	0,000000	2020-11-19T14:41:07:103
-10,000000	0,000000	610,000000	0,000000	2020-11-19T14:41:07:141
-10,000000	0,000000	610,000000	0,000000	2020-11-19T14:41:07:182
-10,000000	0,000000	610,000000	0,000000	2020-11-19T14:41:07:221
-10,000000	0,000000	610,000000	0,000000	2020-11-19T14:41:07:262
-10,000000	0,000000	610,000000	0,000000	2020-11-19T14:41:07:302
-10,000000	0,000000	610,000000	0,000000	2020-11-19T14:41:07:343
-10,000000	0,000000	610,000000	0,000000	2020-11-19T14:41:07:381
-10,000000	0,000000	610,000000	0,000000	2020-11-19T14:41:07:422
-10,000000	0,000000	610,000000	0,000000	2020-11-19T14:41:07:462
-10,000000	0,000000	610,000000	0,000000	2020-11-19T14:41:07:502
-10,000000	0,000000	610,000000	0,000000	2020-11-19T14:41:07:542
-10,000000	0,000000	610,000000	0,000000	2020-11-19T14:41:07:583
-10,000000	0,000000	610,000000	0,000000	2020-11-19T14:41:07:621
-10,000000	0,000000	610,000000	0,000000	2020-11-19T14:41:07:662
-10,000000	0,000000	610,000000	0,000000	2020-11-19T14:41:07:702
-10,000000	0,000000	610,000000	0,000000	2020-11-19T14:41:07:743
-10,000000	0,000000	610,000000	0,000000	2020-11-19T14:41:07:782
-10,000000	0,000000	610,000000	0,000000	2020-11-19T14:41:07:823
-10,000000	0,000000	610,000000	0,000000	2020-11-19T14:41:07:862
-10,000000	0,000000	610,000000	0,000000	2020-11-19T14:41:07:903
-10,000000	0,000000	610,000000	0,000000	2020-11-19T14:41:07:944
-10,000000	0,000000	610,000000	0,000000	2020-11-19T14:41:07:983
-10,000000	0,000000	610,000000	0,000000	2020-11-19T14:41:08:022
-10,000000	0,000000	610,000000	0,000000	2020-11-19T14:41:08:063
-10,000000	0,000000	610,000000	0,000000	2020-11-19T14:41:08:102
-10,000000	0,000000	610,000000	0,000000	2020-11-19T14:41:08:143
-10,000000	0,000000	610,000000	0,000000	2020-11-19T14:41:08:182
-10,000000	0,000000	610,000000	0,000000	2020-11-19T14:41:08:223
-10,000000	0,000000	610,000000	0,000000	2020-11-19T14:41:08:262
-10,000000	0,000000	610,000000	0,000000	2020-11-19T14:41:08:303
-10,000000	0,000000	610,000000	0,000000	2020-11-19T14:41:08:343
-10,000000	0,000000	610,000000	0,000000	2020-11-19T14:41:08:383
-10,000000	0,000000	610,000000	0,000000	2020-11-19T14:41:08:422
-10,000000	0,000000	610,000000	0,000000	2020-11-19T14:41:08:463
-10,000000	0,000000	610,000000	0,000000	2020-11-19T14:41:08:503
-10,000000	0,000000	610,000000	0,000000	2020-11-19T14:41:08:544
-10,000000	0,000000	610,000000	0,000000	2020-11-19T14:41:08:582
-10,000000	0,000000	610,000000	0,000000	2020-11-19T14:41:08:624
-10,000000	0,000000	610,000000	0,000000	2020-11-19T14:41:08:662
-10,000000	0,000000	610,000000	0,000000	2020-11-19T14:41:08:704
-10,000000	0,000000	610,000000	0,000000	2020-11-19T14:41:08:743
-10,000000	0,000000	610,000000	0,000000	2020-11-19T14:41:08:784
-10,000000	0,000000	610,000000	0,000000	2020-11-19T14:41:08:822
-10,000000	0,000000	610,000000	0,000000	2020-11-19T14:41:08:864
-10,000000	0,000000	610,000000	0,000000	2020-11-19T14:41:08:903
-10,000000	0,000000	610,000000	0,000000	2020-11-19T14:41:08:944
-10,000000	0,000000	610,000000	0,000000	2020-11-19T14:41:08:983
-10,000000	0,000000	610,000000	0,000000	2020-11-19T14:41:09:024
-10,000000	0,000000	610,000000	0,000000	2020-11-19T14:41:09:063
-10,000000	0,000000	610,000000	0,000000	2020-11-19T14:41:09:104
-10,000000	0,000000	610,000000	0,000000	2020-11-19T14:41:09:143
-10,000000	0,000000	610,000000	0,000000	2020-11-19T14:41:09:184
-10,000000	0,000000	610,000000	0,000000	2020-11-19T14:41:09:223
-10,000000	0,000000	610,000000	0,000000	2020-11-19T14:41:09:264
-10,000000	0,000000	610,000000	0,000000	2020-11-19T14:41:09:303
-10,000000	0,000000	610,000000	0,000000	2020-11-19T14:41:09:345
-10,000000	0,000000	610,000000	0,000000	2020-11-19T14:41:09:383
96,000000	0,000000	588,000000	0,000000	2020-11-19T14:41:09:426
-10,000000	0,000000	588,000000	0,000000	2020-11-19T14:41:09:463
-10,000000	0,000000	588,000000	0,000000	2020-11-19T14:41:09:504
-10,000000	0,000000	588,000000	0,000000	2020-11-19T14:41:09:544
-10,000000	0,000000	588,000000	0,000000	2020-11-19T14:41:09:584
-10,000000	0,000000	588,000000	0,000000	2020-11-19T14:41:09:624
-10,000000	0,000000	588,000000	0,000000	2020-11-19T14:41:09:665
-10,000000	0,000000	588,000000	0,000000	2020-11-19T14:41:09:704
-10,000000	0,000000	588,000000	0,000000	2020-11-19T14:41:09:745
-10,000000	0,000000	588,000000	0,000000	2020-11-19T14:41:09:783
-10,000000	0,000000	588,000000	0,000000	2020-11-19T14:41:09:825
-10,000000	0,000000	588,000000	0,000000	2020-11-19T14:41:09:864
-10,000000	0,000000	588,000000	0,000000	2020-11-19T14:41:09:905
-10,000000	0,000000	588,000000	0,000000	2020-11-19T14:41:09:944
-10,000000	0,000000	588,000000	0,000000	2020-11-19T14:41:09:985
-10,000000	0,000000	588,000000	0,000000	2020-11-19T14:41:10:023
-10,000000	0,000000	588,000000	0,000000	2020-11-19T14:41:10:065
-10,000000	0,000000	588,000000	0,000000	2020-11-19T14:41:10:104
