1603997149.000000, 1603997149.000000, 1603997149.000000
32.000000, 32.000000, 32.000000
-26,67,30
-23,71,27
-23,80,28
-29,78,25
-27,72,26
-24,59,20
-24,63,16
-22,75,11
-18,81,6
-15,83,5
-10,76,9
-9,71,10
-10,74,1
-9,69,-3
-10,66,-1
-15,57,0
-16,55,3
-19,55,7
-19,53,8
-18,51,11
-13,50,18
-12,50,21
-10,52,28
-9,55,23
-15,77,15
-13,84,23
-15,75,23
-16,59,12
-14,61,8
-11,75,6
-12,74,5
-13,71,2
-17,64,-4
-20,62,-6
-26,58,-6
-29,59,-2
-28,60,0
-23,60,2
-22,59,3
-22,63,6
-24,64,8
-28,63,10
-31,65,14
-31,65,17
-30,64,23
-30,72,25
-29,80,32
-26,72,33
-23,65,33
-20,60,31
-21,66,30
-20,79,24
-14,77,19
-12,70,20
-11,70,25
-13,71,27
-17,71,22
-17,69,15
-17,69,15
-13,65,18
-10,62,19
-10,52,17
-12,50,19
-12,45,19
-10,41,18
-9,41,17
-8,40,15
-9,42,15
-10,48,16
-14,72,14
-14,72,13
-21,78,17
-27,72,20
-24,62,25
-25,72,25
-17,72,23
-9,73,16
-8,73,15
-9,68,15
-17,63,12
-23,62,11
-28,61,10
-29,60,7
-33,57,10
-31,54,15
-31,52,17
-33,55,23
-32,55,26
-27,57,27
-24,59,26
-24,75,19
-29,91,22
-29,92,20
-26,71,12
-23,70,4
-15,79,-4
-13,82,-6
-12,80,-5
-13,75,-7
-15,73,-7
-19,71,-11
-18,76,-14
-17,67,-13
-17,55,-4
-18,53,-2
-21,46,3
-25,44,7
-32,43,13
-34,47,18
-35,46,17
-33,48,16
-38,52,17
-47,55,21
-50,45,22
-45,39,21
-37,32,17
-37,33,17
-41,42,16
-45,55,18
-46,59,20
-42,57,21
-39,54,20
-41,48,20
-40,43,17
-39,42,17
-37,40,18
-37,40,18
-37,39,17
-40,40,17
-41,40,17
-43,44,18
-43,45,19
-44,45,19
-44,45,19
-44,45,19
-43,45,19
-42,45,19
-41,45,20
-40,45,20
-38,47,17
-36,49,17
-34,52,17
-31,53,15
-28,54,14
-25,55,8
-25,58,7
-23,63,15
-86,69,20
-104,65,9
-49,47,-3
-31,43,-5
-16,47,2
-24,58,5
-28,60,4
-31,61,-2
-36,61,-3
-24,57,10
-27,54,10
-30,54,8
-33,54,8
-37,53,2
-24,55,7
-21,56,9
-22,57,17
-22,58,9
-32,70,5
-48,73,3
-48,73,4
-37,68,9
-35,61,12
-35,60,13
-35,60,15
-36,60,14
-31,63,11
-26,68,9
-23,72,10
-18,75,13
-17,74,12
-17,71,10
-16,69,8
-17,67,7
-19,64,5
-20,63,4
-20,61,3
-18,60,5
-17,59,7
-16,55,7
-16,54,8
-17,52,11
-17,53,14
-17,55,16
-15,57,16
-16,69,16
-5,65,22
-3,66,23
-11,62,24
-3,54,27
2,54,25
7,62,17
3,66,15
-4,66,19
-12,62,13
-14,58,14
-19,50,8
-19,52,7
-18,55,4
-19,59,3
-20,60,5
-21,63,10
-22,63,12
-24,63,15
-25,62,16
-22,62,17
-21,62,18
-21,63,19
-21,64,20
-21,65,20
-26,81,25
-24,82,23
-25,82,21
-23,67,18
-23,63,16
-29,71,15
-28,77,15
-19,79,15
-15,72,11
-12,70,10
-14,69,10
-16,70,10
-19,69,9
-18,66,7
-16,64,7
-14,58,9
-15,56,9
-16,50,10
-16,44,11
-16,44,12
-14,48,12
-13,49,14
-11,49,19
-13,62,19
-14,61,19
-15,65,19
-21,63,20
-21,54,24
-22,53,25
-17,58,26
-8,71,23
-7,74,22
-5,74,20
-7,72,20
-14,65,17
-21,62,13
-26,61,12
-31,59,11
-31,58,12
-24,59,17
-20,57,19
-20,56,21
-22,57,23
-23,58,23
-23,60,25
-20,62,27
-18,63,26
-19,76,25
-20,82,28
-18,80,23
-20,76,18
-21,64,18
-22,68,17
-22,74,15
-19,81,13
-17,78,11
-15,71,11
-14,65,14
-14,62,12
-16,58,10
-17,58,10
-17,57,10
-16,53,12
-16,53,13
-16,54,14
-16,53,15
-17,47,17
-17,45,17
-17,46,19
-15,49,22
-15,51,22
-14,55,18
-15,64,15
-20,87,17
-20,68,22
-23,62,23
-22,56,23
-21,54,23
-21,55,20
-13,66,25
-8,70,25
-8,74,25
-10,71,26
-17,59,23
-21,53,20
-21,52,19
-19,55,18
-16,56,19
-14,57,19
-17,58,19
-20,59,19
-19,61,20
-16,62,21
-10,62,21
-7,62,20
-7,64,18
-9,63,17
-12,63,16
-18,62,14
-20,60,13
-23,58,13
-17,59,20
-15,58,22
-20,55,19
-24,55,17
-25,57,21
-30,60,19
-24,61,21
-27,61,16
-24,61,16
-16,62,18
-15,61,17
-16,61,17
-17,60,17
-17,60,16
-14,62,17
-14,62,16
-13,61,15
-11,62,13
-11,62,13
-10,62,13
-9,62,13
-10,62,13
-12,62,13
-14,62,13
-13,62,12
-11,63,14
-10,62,16
-10,62,16
-10,62,16
-11,62,16
-12,62,16
-12,61,16
-12,61,16
-12,62,15
-12,63,14
-11,63,14
-10,65,14
-9,65,14
-6,63,13
-1,62,13
-1,62,13
-7,62,10
-8,61,9
-9,60,10
-12,62,11
-14,62,11
-16,60,12
-17,58,11
-14,58,15
-13,61,17
-14,62,17
-19,58,14
-19,56,13
-18,55,13
-17,55,14
-18,57,13
-19,64,14
-20,69,15
-17,72,13
-17,71,11
-15,68,8
-16,64,6
-16,62,5
-17,60,3
-18,58,2
-23,58,1
-32,60,2
-33,60,0
-30,58,0
-28,58,2
-27,57,8
-28,57,11
-29,57,12
-29,62,14
-30,63,15
-31,64,16
-31,65,16
-29,64,16
-28,60,16
-27,58,16
-25,55,17
-24,55,18
-22,54,20
-19,54,20
-18,55,21
-16,57,21
-16,58,20
-15,60,19
-16,62,18
-16,63,16
-20,77,16
-21,76,18
-21,58,20
-20,47,18
-8,43,12
-7,58,16
-6,63,17
-4,65,13
-4,63,11
-5,62,12
-12,61,11
-16,62,10
-17,64,12
-15,63,13
-13,58,16
-13,52,17
-14,50,17
-13,48,19
-12,49,21
-18,56,23
-25,59,19
-26,60,19
-24,64,21
-19,65,22
-19,85,23
-20,86,26
-21,81,22
-23,70,20
-22,59,19
-22,50,15
-23,55,15
-23,65,16
-21,73,14
-20,74,13
-18,71,12
-18,68,11
-20,63,9
-22,61,6
-21,61,6
-18,60,7
-17,60,8
-15,58,10
-15,56,11
-15,53,12
-16,51,13
-16,52,14
-15,52,18
-15,52,21
-12,65,24
-11,69,25
-10,67,27
-12,51,29
-8,44,24
-2,53,16
-9,66,18
-11,70,16
-17,70,10
-18,64,10
-18,55,11
-19,56,12
-20,57,11
-20,59,11
-19,61,11
-18,63,12
-21,60,12
-25,58,12
-29,63,12
-27,65,13
-20,67,17
-15,71,19
-13,86,19
-13,84,25
-10,81,22
-16,57,11
-19,53,12
-29,58,12
-21,69,9
1,72,13
-13,71,14
-24,66,8
-32,60,2
-23,62,-2
-24,65,-5
-25,70,1
-21,70,6
-14,64,7
-15,60,6
-19,56,4
-19,52,3
-18,52,3
-18,57,5
-20,61,7
-23,83,9
-24,74,15
-24,72,21
-19,53,24
-9,38,23
-2,41,21
-4,50,20
3,51,11
-8,57,-1
-17,59,0
-24,60,11
-24,56,15
-24,55,14
-27,56,13
-29,58,16
-26,59,17
-25,59,15
-25,58,16
-28,58,21
-29,58,22
-29,58,23
-28,59,22
-32,80,18
-32,95,12
-34,86,7
-47,60,9
-26,72,-16
-60,76,-19
-88,77,-13
-48,68,10
-11,49,3
-15,54,9
-17,53,12
-28,54,-3
-32,55,-17
-25,56,-10
-17,57,-2
-12,58,8
-13,56,8
-16,52,5
-19,48,7
-19,49,9
-20,52,10
-19,53,12
-15,62,11
-21,95,9
-23,92,10
-28,83,17
-30,67,20
-24,60,22
-29,64,18
-27,60,12
-24,61,5
-19,64,5
-11,67,6
-14,68,5
-19,63,5
-27,57,-1
-31,56,-1
-31,54,1
-33,54,4
-33,55,15
-35,55,23
-35,55,25
-30,59,27
-27,62,25
-25,63,20
-28,82,19
-31,94,26
-24,75,17
-30,72,15
-25,61,15
-29,73,10
-31,79,7
-28,80,2
-24,78,1
-16,73,3
-14,69,4
-16,66,3
-19,64,0
-19,63,-1
-19,57,-1
-16,55,1
-14,52,2
-15,49,1
-17,46,2
-22,41,5
-25,42,9
-35,39,21
-64,48,2
-81,51,-12
-87,56,-4
-81,56,5
-57,72,14
-49,81,13
-33,90,12
-25,83,15
-24,80,19
-16,65,25
-10,54,18
-13,36,0
-16,35,1
-16,37,4
-17,39,9
-17,42,13
-17,51,17
-30,63,19
-32,62,21
-13,47,23
-6,36,19
-7,31,10
-19,36,11
-21,39,8
-71,123,29
-77,127,44
-28,91,106
-74,55,23
-31,54,20
-29,52,11
-28,53,7
-21,55,3
-19,59,1
-18,60,-2
-20,60,0
-24,64,3
-25,68,9
-23,66,12
-21,62,12
-21,62,12
-23,61,10
-23,66,9
-20,67,11
-16,69,15
-12,71,18
-10,68,18
-16,62,18
-16,60,18
-9,58,17
-9,56,16
-6,55,17
-7,52,17
-9,51,15
-13,50,14
-14,50,16
-18,50,17
-24,53,20
-26,54,20
-30,53,17
-30,51,17
-27,43,17
-28,40,15
-31,49,11
-51,107,21
-57,113,16
-57,65,-11
-54,55,-14
-49,57,7
-42,61,2
-34,59,0
-35,56,-5
-30,57,-3
-25,58,-4
-25,62,-12
-25,63,-13
-23,64,-8
-20,63,-5
-15,64,0
-16,58,6
-16,56,5
-10,50,3
3,43,-5
1,31,-3
-19,34,-8
-22,36,-13
-11,48,14
-12,51,18
-28,65,30
-22,70,34
-66,76,24
-34,76,50
-30,68,34
-37,61,4
-31,53,1
-21,40,-1
-68,56,52
-86,59,55
-36,36,0
-33,53,23
-51,68,28
-38,57,27
-39,49,24
-38,45,19
-50,46,34
-49,55,14
-33,59,16
-45,57,21
-49,49,8
-42,48,8
-32,49,24
-36,53,16
-40,56,15
-36,54,17
-39,54,18
-41,56,11
-40,55,16
-38,54,15
-50,52,21
-47,52,17
-38,55,15
-41,54,15
-43,49,12
-40,50,16
-40,48,11
-40,47,9
-44,48,12
-33,40,13
-24,34,13
-56,53,-15
-54,62,-14
-42,58,-3
-27,51,8
-29,50,4
-20,51,11
-15,52,7
-26,57,0
-37,71,-9
-52,76,-20
-34,72,-16
-19,87,7
-8,88,16
7,76,15
16,66,12
23,49,10
-14,38,-15
-16,35,-6
-7,39,12
-10,41,15
-7,66,14
-21,91,7
-25,78,7
-18,58,2
-9,53,2
-5,53,3
-10,57,4
-26,62,4
-26,67,4
-25,67,7
-28,68,12
-19,69,13
-11,73,20
-14,72,23
-15,72,23
-18,65,21
-16,63,21
-17,62,24
-11,61,25
-8,59,26
-1,59,29
0,58,29
0,57,25
-3,55,22
-6,53,17
-7,52,13
-10,50,11
-15,59,14
-15,65,14
-15,70,20
-10,64,19
-7,63,15
-9,55,14
-12,53,19
-20,50,24
-31,49,19
-28,49,21
-28,44,25
-30,44,28
-30,44,27
-38,66,28
-46,73,29
-53,74,21
-53,73,19
-38,74,20
-27,67,21
-20,56,27
-7,42,31
-1,37,30
-10,31,16
-18,29,1
-36,41,-7
-41,64,7
-36,73,10
-29,69,12
-28,64,10
-20,71,6
-25,88,28
-17,83,25
-9,86,12
-10,87,13
-6,72,18
-9,60,12
-9,57,8
-10,57,8
-16,58,10
-35,66,16
-40,66,16
-38,73,15
0,81,16
-1,79,17
-20,71,3
-32,65,-3
-38,56,-3
-35,50,2
-30,48,5
-18,45,4
-14,43,3
-7,42,4
-11,48,4
-16,52,5
-22,59,4
-23,63,3
-22,88,-1
-23,92,1
-20,58,3
-28,59,3
-29,65,3
-33,72,1
-32,76,-4
-16,80,-6
-13,75,4
-15,73,5
-19,59,8
-22,48,10
-22,40,7
-22,40,6
-23,42,9
-24,50,17
-23,55,21
-22,57,10
-25,60,13
-26,60,13
-23,56,11
-25,70,10
-27,95,-1
-29,99,-3
-23,82,-2
-15,65,-13
-12,61,-17
-23,64,-13
-16,66,-13
-11,63,-13
16,63,-11
27,64,-14
23,64,-15
23,67,-10
11,66,-7
-5,65,-4
-11,64,-2
-26,63,-1
-27,63,3
-29,64,-1
-23,66,-1
-18,66,-2
-16,72,-4
-13,88,2
-18,87,9
-23,80,7
-17,48,8
2,38,4
14,48,6
21,66,-1
17,70,-3
0,61,-5
-2,58,-1
-4,58,3
-7,57,6
-6,57,6
-5,60,7
-7,64,9
-9,65,11
-13,64,14
-16,62,16
-22,61,20
-24,60,21
-24,61,22
-23,60,23
-22,61,22
-25,84,25
-23,85,22
-26,88,18
-21,61,10
-20,55,6
-19,64,1
-20,72,0
-24,71,3
-22,67,6
-19,66,5
-21,65,4
-24,65,3
-26,66,1
-25,61,-1
-24,59,0
-23,54,4
-22,52,5
-21,51,6
-21,50,7
-18,53,11
-15,52,14
-14,52,15
-14,58,19
-15,68,20
-15,72,19
-18,62,22
-7,54,23
7,48,20
-12,53,25
-19,60,24
-17,76,6
-11,78,6
-5,74,13
-6,68,17
-14,63,17
-25,61,12
-27,62,11
-30,63,10
-28,62,11
-23,59,17
-22,56,20
-26,53,23
-32,55,25
-32,57,29
-22,59,31
-19,67,28
-16,97,33
-13,98,36
-14,82,32
-16,57,19
-17,57,12
-20,75,16
-16,85,20
-19,83,11
-19,76,-1
-15,74,1
-8,71,4
-10,70,4
-13,64,4
-17,57,7
-16,53,7
-17,47,5
-19,45,5
-15,43,6
-11,38,6
-10,37,6
-11,38,6
-13,42,8
-19,50,12
-20,73,12
-27,92,15
-24,106,25
-25,94,29
-25,75,23
-31,78,9
-35,76,3
-29,75,0
-21,73,3
-10,64,6
-10,60,5
-18,52,5
-26,50,-1
-29,51,-1
-33,59,4
-31,61,7
-16,68,30
-10,64,10
-22,59,7
-35,57,16
-33,55,15
-28,58,13
-16,56,16
-13,55,17
-12,57,22
-14,57,22
-16,56,19
-25,88,17
-28,89,16
-24,79,10
-25,78,5
-18,87,3
-15,86,6
-16,76,6
-14,66,6
-16,64,5
-17,64,5
-16,61,4
-14,59,4
-13,56,5
-12,54,5
-11,48,5
-12,45,5
-14,43,4
-16,49,5
-17,51,6
-16,52,7
-16,53,7
-18,63,7
-20,70,8
-25,82,10
-29,87,12
-30,86,11
-26,83,13
-23,83,14
-19,85,12
-25,78,4
-26,74,3
-28,70,0
-27,65,-2
-26,61,-5
-26,62,-5
-25,58,-5
-27,58,-5
-28,60,-2
-26,47,12
-14,50,35
7,47,37
11,42,35
-11,51,38
-14,51,40
-15,56,40
-14,51,38
-5,47,42
8,43,32
8,43,22
12,47,26
15,57,17
11,60,22
8,63,11
9,72,11
12,71,24
8,74,20
24,57,-4
22,54,3
-11,84,15
-6,71,25
14,80,41
-5,76,6
3,79,-3
-6,75,-2
8,78,21
-3,65,13
-17,61,2
-21,67,20
3,61,23
-16,57,25
5,54,21
-11,52,19
-24,56,36
-48,47,10
-62,38,9
-40,41,32
-38,75,69
-5,35,66
-57,32,56
-80,-6,37
-73,-2,30
-42,13,32
-19,28,25
-12,32,31
-17,37,54
-31,39,38
-17,36,48
-36,46,127
-121,23,55
10,16,41
-31,-4,24
-33,-4,36
-34,-5,66
-49,-4,69
-38,-1,66
-27,-1,58
-27,-1,52
-27,-1,52
-29,0,52
-36,-5,56
-41,-9,53
-42,-11,51
-46,-10,48
-45,-8,49
-45,-2,49
-43,-1,50
-42,0,52
-37,-1,52
-37,-1,51
-38,-1,52
-40,0,51
-42,0,51
-42,0,50
-42,1,49
-42,1,51
-43,1,50
-42,2,51
-42,3,50
-43,2,50
-42,1,50
-42,0,50
-41,0,50
-42,0,50
-42,0,50
-42,1,50
-42,0,50
-42,0,50
-42,0,50
-42,0,50
-43,0,49
-43,-1,49
-42,0,51
-42,1,50
-42,1,50
-43,1,50
-43,1,50
-41,0,50
-41,0,50
-42,0,49
-43,0,48
-43,0,49
-43,1,49
-43,0,48
-43,1,49
-43,2,49
-43,3,50
-43,3,49
-42,2,50
-43,3,50
-44,1,50
-42,0,48
-41,0,48
-42,0,50
-43,1,51
-42,1,50
-42,1,48
-42,1,49
-43,0,49
-41,0,49
-41,2,49
-43,5,49
-43,8,49
-42,8,49
-40,9,50
-40,10,49
-43,10,48
-44,10,48
-45,11,42
-55,16,42
-65,19,42
-69,19,42
-58,19,42
-26,20,59
5,24,66
14,19,72
1,11,57
-4,12,51
-14,8,42
-19,15,64
-37,12,81
-54,13,38
-43,19,46
-25,34,53
-3,41,56
-24,35,35
-26,37,43
-22,40,42
-44,46,27
-37,51,28
-11,59,30
-39,56,14
-22,65,26
-40,60,9
-37,58,15
-10,58,33
-19,55,21
-9,54,20
-15,63,26
-21,61,17
-7,66,7
-26,77,2
-23,87,11
-18,96,35
-15,91,35
27,57,-27
72,76,7
-1,68,21
6,68,14
-6,65,1
-7,60,12
-3,56,17
-10,51,19
-22,48,12
-23,50,10
-27,59,5
-31,61,4
-25,59,4
-16,53,3
-17,52,7
-24,49,20
-25,48,20
-26,52,17
-21,55,17
-16,58,15
-8,64,14
-5,65,13
-7,68,13
-10,67,11
-17,68,10
-24,62,9
-26,57,8
-24,48,7
-22,46,7
-18,45,10
-15,49,12
-16,52,12
-18,58,17
-18,58,18
-19,59,20
-18,63,20
-17,66,21
-16,70,20
-19,74,17
-24,114,27
-19,99,31
-20,52,26
-20,29,18
-19,33,17
-24,48,13
-25,55,13
-18,68,15
-13,70,25
-12,64,30
-18,52,29
-21,51,28
-26,53,23
-17,53,22
-7,56,21
21,53,34
17,54,35
-4,58,27
-13,60,23
-18,58,21
-19,53,16
-19,55,15
-15,59,19
-9,56,25
-4,52,28
-8,61,23
-20,76,24
-32,73,19
-36,68,14
-34,65,14
-22,64,17
-20,64,17
-20,70,15
-17,75,14
-20,82,12
-17,75,9
-17,68,7
-17,61,5
-17,60,5
-19,59,5
-20,58,4
-20,57,4
-18,55,6
-18,55,7
-15,54,10
-15,54,11
-16,52,12
-14,52,14
-14,52,16
-11,56,20
-10,57,21
-6,61,25
-12,74,32
-15,73,35
-16,71,43
-4,53,52
-12,50,41
-28,51,23
-26,59,21
-16,70,23
-14,72,22
-15,64,16
-15,60,14
-17,56,10
-23,56,8
-26,58,6
-29,59,3
-26,59,5
-36,55,0
-16,53,18
18,49,38
24,56,47
24,60,50
-2,63,35
-38,80,17
-38,80,13
-29,81,10
-24,70,13
-15,50,16
-21,54,14
-24,63,17
-27,71,19
-28,76,18
-26,68,20
-21,54,20
-21,51,19
-22,53,11
-22,57,9
-19,59,13
-22,54,10
-20,56,13
4,54,21
13,51,22
2,58,21
0,64,20
-4,70,20
-1,91,15
-1,98,19
-5,73,27
-6,66,33
-1,42,24
-1,39,13
-4,45,11
-10,55,11
-9,60,12
-17,62,12
-26,63,13
-38,57,4
-38,56,8
-34,56,9
-36,58,6
-36,59,10
-26,54,14
-28,53,19
-26,55,27
-28,59,24
-31,61,24
-34,76,29
-32,87,39
-33,79,38
-30,68,37
-25,59,32
-22,59,22
-23,72,20
-23,75,20
-18,73,20
-15,69,19
-11,61,17
-12,61,13
-15,61,10
-21,64,6
-24,66,5
-23,67,6
-18,66,7
-14,59,9
-11,54,15
-3,50,13
-7,45,0
-11,49,1
-15,58,3
-8,73,12
-4,70,15
-6,71,23
-8,60,26
6,59,20
-3,68,1
-19,68,4
-28,58,4
-23,59,0
-27,67,4
-28,67,11
-28,64,18
-22,61,21
-22,62,20
-20,64,19
-19,67,19
-18,68,19
-20,66,19
-23,66,19
-25,69,20
-25,70,21
-24,69,18
-39,76,15
-39,74,17
-33,70,20
-32,71,9
-1,57,-24
36,63,3
23,80,25
7,85,23
-7,86,17
-25,79,10
-23,75,13
-20,68,13
-25,62,4
-27,59,-1
-30,51,-8
-29,48,-8
-23,46,-4
-19,47,1
-15,48,5
-12,52,13
-10,55,17
-3,60,20
-2,67,26
-2,67,34
1,56,38
4,46,31
-13,38,31
-20,43,36
-19,64,31
-22,75,18
-20,73,19
-16,68,18
-12,65,20
-12,60,27
-18,59,20
-21,60,20
-23,60,22
-24,58,21
-30,55,20
-28,56,25
-27,57,25
-23,59,23
-22,61,23
-18,65,20
-22,97,26
-22,96,28
-24,74,22
-23,62,14
-15,68,4
-13,74,5
-18,77,8
-23,70,6
-23,68,5
-21,63,5
-23,62,4
-24,62,2
-18,58,5
-16,56,6
-11,52,11
-11,50,12
-13,43,10
-18,41,15
-17,44,21
-13,48,22
-13,50,20
-14,73,20
-14,78,24
-12,81,30
-11,60,29
-6,54,26
-9,62,19
-9,63,18
-14,64,16
-13,64,17
-16,62,16
-22,62,15
-25,61,15
-26,59,13
-24,60,16
-23,60,18
-20,59,21
-20,57,23
-22,55,27
-23,59,29
-23,62,31
-20,66,32
-18,65,30
-21,94,32
-18,92,38
-17,74,28
-14,64,22
-15,62,19
-18,73,16
-19,77,14
-21,80,7
-18,73,11
-14,70,12
-14,61,6
-18,58,4
-21,57,3
-18,54,6
-16,52,6
-12,50,13
-11,49,16
-11,45,15
-12,44,15
-15,45,17
-13,46,22
-11,48,21
-14,76,17
-17,84,21
-18,73,22
-24,59,21
-21,57,20
-18,68,20
-14,69,20
-7,67,20
-8,63,21
-11,61,21
-18,58,16
-22,58,14
-28,60,15
-26,60,19
-25,60,19
-26,58,22
-27,57,22
-24,55,25
-21,58,28
-18,60,28
-25,61,28
-22,64,31
-35,89,29
-40,83,21
-57,77,-2
-49,75,-11
-48,80,-15
-23,82,-4
-7,88,6
-5,77,14
-15,73,4
-15,69,4
-19,64,2
-21,62,1
-14,59,4
-14,57,7
-13,55,8
-14,49,10
-15,46,11
-16,41,12
-18,41,15
-18,42,18
-10,44,14
-11,48,16
-18,57,18
-21,76,17
-23,93,19
-27,82,24
-28,66,24
-21,62,18
-20,73,15
-16,78,10
-14,77,8
-11,72,9
-12,61,5
-17,58,2
-23,56,-3
-26,56,-6
-28,56,-6
-24,55,3
-24,52,5
-29,51,9
-33,52,14
-35,53,14
-42,60,22
-38,60,25
-37,60,28
-39,61,33
-41,87,36
-47,89,30
-53,94,34
-49,71,31
-46,71,20
-65,87,17
-85,127,22
-60,127,34
-45,104,42
-54,89,36
-60,61,19
-69,51,17
-57,33,13
-49,15,6
-45,11,6
-41,1,5
-31,-5,-3
-14,-9,-6
13,-28,-4
12,-36,-6
0,-40,-10
-2,-43,-9
-7,-47,3
-31,-50,6
-35,-59,5
-22,-72,27
-22,-80,25
-27,-72,19
-8,-76,13
11,-72,19
14,-58,28
19,-51,41
10,-51,32
8,-49,23
-9,-52,26
13,-56,29
16,-60,25
16,-64,20
15,-62,20
18,-59,16
23,-55,21
25,-53,22
19,-55,17
26,-53,21
29,-53,26
20,-56,22
26,-57,23
31,-58,22
30,-56,25
22,-58,24
29,-52,27
40,-52,29
27,-55,16
9,-56,7
21,-58,28
18,-56,33
12,-56,21
24,-56,25
23,-57,27
5,-56,18
4,-56,23
10,-53,27
11,-54,26
9,-52,29
1,-48,22
2,-44,24
16,-61,24
2,-58,22
-16,-72,6
-11,-83,15
-3,-82,23
-2,-83,14
1,-83,11
0,-76,11
-6,-74,6
-7,-71,3
-3,-57,6
5,-52,10
5,-62,1
-4,-59,5
-5,-57,7
-1,-59,6
2,-63,2
4,-60,0
7,-74,-3
4,-73,-4
5,-70,-2
7,-68,-3
9,-65,-2
10,-65,-5
8,-65,-5
2,-63,-6
4,-61,-6
8,-60,-8
10,-60,-7
11,-58,-6
15,-61,0
12,-69,-4
2,-71,2
-5,-84,8
-17,-90,22
-40,-75,25
-35,-67,28
-14,-61,32
-11,-60,29
-21,-52,20
-25,-43,22
-22,-45,19
-14,-46,16
-5,-45,20
3,-46,23
5,-50,26
0,-49,28
-2,-50,34
23,-47,57
-2,-40,30
2,-37,28
-1,-33,17
-6,-34,19
-8,-38,24
-21,-28,18
-30,-22,7
-33,-16,-13
-53,-4,-12
-52,0,-4
-69,5,0
-69,5,-1
-71,12,-3
-128,58,-30
-128,79,-27
-95,81,-10
-81,78,-2
-72,69,8
-70,65,6
-63,62,5
-48,57,3
-44,56,5
-32,54,11
-27,54,13
-21,53,18
-18,52,18
-17,51,17
-18,52,14
-22,52,15
-27,49,16
-34,50,17
-33,50,17
-30,50,19
-27,48,21
-19,47,23
-14,46,24
-10,49,21
-18,81,26
-21,82,28
-26,86,28
-30,80,31
-28,57,33
-31,44,26
-29,43,23
-18,49,22
-14,51,21
-9,55,18
-8,57,18
-9,55,18
-18,53,16
-38,56,11
-31,59,25
-18,54,32
-14,54,31
-1,53,28
2,56,28
0,61,29
-10,59,23
-14,58,21
-25,56,20
-26,57,23
-24,54,29
-23,51,27
-22,45,23
-23,68,20
-25,85,31
-29,77,31
-31,79,30
-27,67,29
-22,60,23
-20,67,21
-16,71,19
-16,70,17
-15,68,17
-16,63,18
-17,62,18
-19,59,14
-21,59,12
-25,58,8
-28,60,12
-27,59,12
-21,55,15
-17,52,17
-12,45,23
-10,41,25
-9,37,26
-8,35,26
-8,35,26
-9,38,30
-10,40,28
-7,72,29
-9,84,37
-13,78,40
-24,72,39
-26,72,34
-31,76,20
-20,64,13
-14,63,12
-7,58,12
-7,54,11
-12,51,8
-17,49,7
-27,49,5
-31,51,4
-31,53,5
-27,58,9
-26,59,12
-26,59,21
-26,61,27
-26,62,30
-21,65,33
-17,65,34
-12,62,33
-15,57,28
-17,54,27
-25,76,28
-27,83,35
-29,74,27
-29,68,12
-29,71,8
-34,70,5
-36,69,1
-26,63,-2
-38,63,-17
-4,70,22
-19,71,13
-17,71,9
-19,68,5
-21,65,5
-22,58,8
-19,58,10
-18,53,9
-17,45,12
-16,44,15
-11,40,21
-9,38,21
-10,40,21
-24,52,26
-21,55,27
-20,74,15
-18,79,20
-15,67,33
-22,57,23
-23,48,9
-21,52,5
-20,60,7
-24,68,8
-15,77,15
7,81,30
-47,60,-14
-43,56,-13
-27,54,-4
-20,61,-4
-18,64,-1
-26,67,8
-30,67,12
-32,65,15
-35,62,18
-34,64,24
-30,67,27
-31,68,27
-28,66,26
-25,66,27
-27,79,26
-25,91,31
-21,77,26
-21,58,18
-29,51,0
-9,67,7
-8,83,17
-22,86,7
-26,72,-4
-29,73,-20
-41,75,-20
-34,67,-8
-35,67,-8
-28,65,-2
-23,61,1
-20,55,7
-22,51,13
-21,50,16
-19,46,21
-18,45,27
-12,43,28
-9,42,26
-7,41,23
-8,43,23
-6,43,22
-9,59,19
-11,65,19
-13,69,24
-24,63,24
-22,54,23
-29,55,17
-27,60,14
-18,63,6
-13,63,8
-10,62,10
-4,61,3
2,64,10
-31,73,16
-41,69,-9
-32,63,-7
-27,56,-6
-27,57,-3
-28,62,2
-33,61,1
-34,59,3
-32,58,9
-32,58,13
-31,57,18
-30,57,17
-36,55,12
-38,80,19
-40,88,24
-28,82,23
-25,70,22
-27,62,17
-40,66,13
-48,74,3
-31,92,12
-38,91,-9
3,91,19
-7,85,19
-20,85,11
-29,84,6
-28,77,6
-26,71,10
-24,69,12
-24,61,10
-21,56,10
-18,52,10
-18,43,12
-14,41,16
-8,37,17
-10,33,20
-10,33,22
-3,38,26
5,42,22
3,52,23
-4,56,24
-9,59,26
-5,55,33
0,62,32
10,70,29
12,72,27
10,74,25
-3,72,21
-7,72,20
-14,71,16
-17,70,15
-20,67,11
-23,71,6
-25,72,4
-25,74,5
-32,74,12
-31,77,23
-25,71,20
-25,67,17
-25,62,20
-26,59,22
-30,58,22
-29,57,24
-25,56,27
-23,65,26
-28,83,33
-21,91,37
-25,87,32
-19,83,24
-20,89,23
-18,93,25
-15,89,20
-17,88,19
-41,85,18
-44,88,7
-49,86,0
-55,79,-7
-51,76,-7
-40,63,-5
-34,51,0
-28,49,4
-19,38,8
-17,36,10
-16,32,8
-18,31,8
-17,27,15
-13,26,18
-10,29,20
-5,32,24
-4,34,25
-5,46,20
-9,71,22
-12,78,30
-15,74,41
-13,66,37
-8,58,28
-5,66,25
-8,74,27
-19,83,23
-22,86,19
-17,96,17
-17,98,8
-17,102,-2
-24,83,-15
-31,79,-15
-39,82,-13
-41,78,-15
-44,77,-15
-38,73,-4
-37,70,2
-37,62,11
-39,59,11
-41,56,10
-34,55,20
-29,54,23
-36,76,26
-41,87,31
-33,91,26
-36,88,23
-33,94,24
-25,106,25
-23,113,27
-17,111,30
-15,103,28
-13,98,23
-10,82,13
-11,75,11
-13,68,12
-12,67,12
-8,62,11
-5,59,10
-5,56,9
-9,49,6
-12,48,6
-14,44,6
-14,37,6
-12,35,8
-8,39,10
-9,45,8
-12,65,8
-38,101,17
-52,115,20
-54,127,10
-49,127,6
-41,115,7
-43,86,5
-40,67,13
-52,55,6
-56,52,0
-51,54,-2
-38,60,6
-6,66,22
4,61,30
4,60,26
-7,54,21
-15,49,23
-20,40,25
-15,33,26
-7,30,27
0,28,29
-1,28,28
-4,33,23
-9,38,23
-21,48,23
-26,63,6
-26,86,9
-14,98,37
-21,81,29
-9,62,14
-1,62,2
-17,61,25
0,65,26
-3,67,23
2,81,15
-1,80,21
-5,76,19
-11,64,8
-21,59,7
-5,58,14
-27,65,20
-33,72,14
-39,76,2
-42,76,7
-49,72,3
-58,65,-9
-49,55,-10
-37,58,-23
-35,58,-25
-29,58,-21
-28,63,-22
-25,69,-20
-26,61,-15
-23,56,-9
-58,59,12
-59,51,15
-30,49,9
-33,60,14
-8,66,46
-23,68,90
-38,56,49
-52,52,-5
-55,45,-21
-53,44,-20
-48,42,-9
-48,43,-7
-44,45,0
-44,46,4
-43,47,5
-44,47,5
-45,47,6
-45,48,5
-43,49,7
-42,49,5
-43,49,6
-44,49,6
-44,48,3
-44,47,2
-45,45,3
-45,45,4
-44,45,6
-45,46,6
-45,46,5
-45,47,3
-45,47,3
-45,47,4
-45,47,4
-45,46,3
-45,45,3
-45,45,3
-46,46,4
-45,45,4
-44,45,5
-45,45,5
-46,45,4
-45,45,5
-46,45,5
-46,45,5
-46,46,4
-45,46,3
-45,46,5
-45,47,4
-44,46,4
-44,45,5
-45,45,5
-46,46,5
-44,46,4
-43,46,4
-45,46,3
-45,46,3
-46,47,5
-44,46,4
-45,47,4
-45,47,2
-45,47,2
-44,47,2
-45,48,1
-47,48,-2
-45,49,-2
-46,48,-1
-47,49,-1
-47,48,-1
-43,47,0
-44,47,-1
-45,49,-1
-43,51,-1
-43,53,-1
-45,56,-1
-46,57,-4
-42,68,-1
-40,75,8
-36,75,8
-37,72,7
-37,70,10
-32,63,10
-20,59,11
-16,56,16
-17,56,17
-15,56,16
-13,56,15
-15,58,14
-16,58,14
-17,57,13
-18,55,13
-18,45,11
-19,36,8
-19,35,7
-20,41,6
-20,47,7
-21,61,9
-21,66,9
-23,65,10
-24,57,11
-26,54,11
-24,57,16
-22,58,17
-21,61,16
-20,61,21
-19,59,22
-20,57,23
-20,57,23
-20,55,22
-20,55,21
-21,54,21
-19,56,20
-19,59,20
-18,57,21
-18,61,19
-18,64,18
-19,68,16
-16,66,17
-17,63,16
-19,62,14
-22,63,12
-24,67,10
-25,69,9
-23,67,8
-23,62,6
-22,56,6
-21,53,6
-22,51,6
-22,52,6
-23,52,6
-23,54,9
-23,58,10
-24,60,12
-25,65,15
-26,67,14
-26,66,14
-26,65,14
-24,64,13
-24,67,14
-23,68,15
-22,65,15
-22,63,14
-21,59,13
-19,57,15
-17,57,16
-17,53,14
-19,54,15
-21,56,17
-22,61,18
-21,64,17
-19,70,12
-20,83,11
-16,90,23
-22,58,26
-24,49,27
-41,44,16
-21,50,13
39,59,52
11,59,36
10,56,37
-6,52,24
-11,48,20
-19,43,15
-20,43,16
-15,48,25
-7,51,30
-5,50,31
-7,47,27
-8,48,25
-13,52,23
-15,58,22
-15,59,22
-17,59,24
-14,58,26
-10,58,32
-15,72,35
-42,82,17
-36,67,24
-35,58,23
-22,59,26
-20,59,27
-21,63,25
-22,81,21
-24,90,20
-26,98,23
-25,93,23
-19,82,21
-17,76,19
-17,73,16
-21,65,9
-23,63,7
-22,58,6
-16,55,7
-14,54,8
-11,54,10
-11,53,12
-10,45,15
-9,41,15
-8,36,18
-5,36,20
-4,38,16
-8,58,17
-9,62,19
-19,71,28
-22,63,31
-18,64,31
-13,71,33
-10,70,31
-3,70,23
8,71,20
-6,75,15
-9,70,14
-15,67,15
-30,62,13
-35,60,10
-36,58,8
-32,55,15
-30,53,19
-21,50,28
-18,50,29
-18,51,26
-18,56,24
-19,58,24
-19,65,25
-21,79,26
-27,98,34
-33,68,19
-35,57,11
-32,74,6
-30,81,5
-29,83,0
-24,75,3
-21,71,5
-16,65,8
-16,62,7
-21,61,0
-20,58,1
-20,56,1
-19,57,6
-19,57,12
-18,54,18
-17,52,19
-12,49,21
-5,46,21
-3,43,18
-4,47,19
-4,64,26
-6,72,34
-11,57,34
-12,52,30
-13,65,29
-16,71,31
-18,71,30
-12,71,21
-10,70,18
-11,67,16
-13,66,14
-21,64,5
-25,60,2
-32,55,0
-37,51,1
-37,51,3
-31,50,7
-29,48,9
-25,51,17
-20,64,18
-17,69,16
-18,77,17
-24,88,25
-26,108,47
-24,66,42
-24,61,37
-11,70,35
-7,73,28
-10,82,17
-1,91,16
-1,86,18
-10,82,23
-15,83,25
-18,80,16
-20,73,9
-20,61,1
-13,47,-4
-10,36,-3
-5,21,4
-7,17,7
-14,19,11
-13,21,13
-12,22,13
-11,34,0
-22,70,4
-47,127,40
-43,85,20
-36,74,16
-16,66,26
-14,62,11
-42,65,-6
-40,76,-9
-47,81,-12
-62,77,-3
-53,70,2
-45,61,5
-39,59,7
-41,58,7
-37,59,15
-29,57,15
-7,53,15
-14,55,13
-32,56,23
-32,54,26
-30,53,27
-30,56,26
-30,57,25
-21,54,21
-22,52,20
-21,52,20
-19,51,20
-19,51,18
-20,51,15
-21,54,16
-24,55,16
-27,56,16
-28,68,18
-40,102,21
-37,101,21
-29,79,18
-22,53,17
-19,46,17
-24,54,16
-23,64,14
-24,68,12
-17,66,13
-15,65,13
-16,63,10
-16,63,9
-19,64,7
-21,58,7
-22,54,8
-24,56,10
-24,56,10
-22,50,15
-19,47,17
-11,48,21
-6,47,21
-6,48,21
-9,52,21
-9,59,19
-10,77,23
-10,77,23
-14,70,23
-18,43,20
-21,43,20
-25,63,23
-21,60,18
-18,61,14
-12,66,16
-9,65,17
-10,57,17
-15,56,16
-27,57,13
-33,62,11
-30,63,15
-25,62,22
-22,62,24
-17,59,25
-15,60,22
-14,61,22
-14,64,22
-15,65,21
-16,62,19
-19,76,16
-23,84,22
-25,75,20
-28,76,18
-24,60,13
-24,69,11
-23,73,12
-18,76,13
-15,75,13
-11,71,12
-11,69,12
-13,66,12
-18,63,8
-20,60,8
-19,56,10
-18,54,11
-14,48,14
-11,43,17
-10,41,17
-10,40,18
-10,41,20
-10,45,23
-11,49,24
-11,55,21
-14,78,26
-12,74,27
-18,79,29
-15,62,29
-16,56,27
-18,61,24
-17,63,23
-14,68,19
-13,69,19
-14,64,20
-19,57,18
-22,55,18
-28,53,16
-29,55,16
-26,58,17
-20,60,22
-17,61,23
-16,58,25
-17,57,25
-19,56,25
-19,55,26
-18,55,27
-16,56,27
-16,57,28
-16,61,26
-19,74,24
-21,92,33
-24,82,25
-25,73,22
-20,57,16
-21,59,14
-21,72,16
-17,77,17
-19,73,15
-20,68,14
-21,68,15
-23,63,15
-26,61,16
-28,60,16
-31,60,19
-32,59,22
-29,51,24
-26,44,23
-26,41,24
-28,36,26
-28,34,25
-36,33,23
-37,31,24
-43,32,27
-41,44,26
-46,39,28
-45,35,41
-40,28,43
-36,22,43
-29,28,42
-26,31,40
-23,38,39
-23,41,41
-19,38,37
-18,33,29
-18,33,26
-18,40,26
-18,44,27
-19,54,24
-22,67,27
-22,71,32
-20,68,31
-19,69,30
-15,68,29
-15,66,29
-9,60,33
-6,51,30
-7,49,29
-7,47,28
-8,48,23
-9,67,20
-14,97,25
-15,99,30
-16,71,28
-15,63,20
6,53,18
3,57,31
-5,60,31
-16,60,26
-17,59,28
-12,63,36
-9,66,40
-3,68,43
16,72,35
17,80,41
-16,78,45
-30,70,37
-15,56,40
-3,52,40
3,52,34
4,54,30
9,54,30
11,52,33
9,45,33
6,42,36
5,42,41
1,38,40
0,37,44
-1,38,47
-1,36,48
-4,37,47
-2,37,46
-13,39,44
-27,30,42
-37,29,43
-32,29,43
-32,28,43
-30,29,44
-27,28,46
-22,27,50
-17,29,49
-16,30,50
-20,30,50
-22,29,48
-20,32,42
-16,34,34
-18,31,30
-17,44,26
-19,47,23
-18,44,25
-14,43,13
-13,49,12
-23,64,10
-25,71,12
-30,76,8
-29,84,8
-33,103,15
-33,106,24
-35,115,27
-43,108,20
-43,112,14
-35,119,5
-20,114,16
-22,106,20
2,84,20
5,71,27
6,53,31
13,37,24
7,33,25
5,26,37
-1,23,41
-8,20,42
-16,24,37
-16,26,35
-15,35,36
-13,39,37
-10,46,31
-8,48,25
-8,51,24
-12,62,17
-15,71,18
-25,92,21
-30,99,21
-43,105,11
-43,104,5
-40,98,7
-31,92,17
-27,86,20
-25,76,20
-29,83,11
-33,81,7
-43,47,6
-45,41,8
-47,51,12
-42,64,14
-38,66,15
-26,65,20
-22,66,21
-17,79,19
-16,85,17
-19,90,17
-14,94,26
-11,92,25
-10,83,20
-9,78,20
-4,69,22
-3,58,19
-2,53,18
-3,45,20
-3,42,20
-4,39,17
-6,40,16
-6,41,17
-7,47,18
-9,51,17
-13,61,16
-17,69,17
-15,71,19
-11,74,25
-5,76,30
-36,85,5
-33,103,12
-25,106,21
-23,91,21
-21,79,22
-20,63,23
-21,57,24
-23,52,23
-24,60,20
-23,64,19
-20,71,17
-18,71,18
-14,67,18
-15,67,18
-17,69,17
-19,72,12
-20,73,9
-20,72,7
-18,71,7
-15,68,9
-13,62,9
-12,60,9
-12,57,9
-12,55,8
-13,52,10
-13,51,13
-12,52,15
-20,70,20
-9,68,23
-5,61,33
-4,46,37
-3,40,34
-8,43,24
-10,52,23
-9,65,26
-6,68,32
-7,65,30
-14,59,19
-16,57,17
-20,56,13
-22,58,11
-22,63,12
-17,66,17
-16,65,19
-16,60,19
-16,58,20
-16,53,24
-16,49,23
-21,50,20
-24,54,21
-25,57,20
-31,83,22
-28,98,27
-29,99,29
-19,60,22
-17,50,17
-20,61,12
-21,67,12
-21,70,11
-18,68,9
-15,67,9
-13,65,7
-15,65,3
-18,63,-3
-18,62,-7
-17,58,-7
-13,47,-11
-16,45,-14
-14,49,0
-13,46,-1
-18,50,5
-25,56,21
-22,59,28
-13,86,38
-4,83,63
-31,87,59
4,60,38
-37,62,17
4,64,14
22,66,19
-1,64,2
-1,61,-2
-6,61,-2
-16,60,-4
-20,61,-1
-22,60,5
-17,54,8
-14,51,10
-15,46,12
-15,45,12
-21,47,12
-25,57,17
-25,61,20
-27,71,23
-32,91,26
-32,99,36
-29,80,34
-29,58,26
-27,73,25
-28,76,22
-24,78,15
-19,75,15
-10,72,16
-10,68,19
-13,66,17
-18,65,10
-21,65,6
-22,63,4
-16,59,7
-15,57,7
-13,52,7
-13,49,8
-10,47,8
-7,48,9
-6,49,13
-5,60,13
-8,76,13
-8,75,15
-8,78,19
-10,61,18
-8,65,18
-9,65,16
-8,60,12
-9,58,10
-12,62,9
-17,65,9
-21,64,8
-25,63,6
-27,62,6
-30,64,13
-29,66,15
-28,64,14
-23,61,14
-21,59,17
-21,63,22
-21,66,24
-22,68,24
-22,74,25
-24,84,29
-22,78,30
-20,74,27
-22,69,27
-20,69,18
-33,78,-9
14,75,9
27,74,27
9,79,23
-9,75,15
-14,72,11
-23,66,1
-23,66,0
-23,65,1
-20,58,0
-19,55,1
-15,47,2
-15,43,2
-16,39,6
-15,40,9
-15,44,17
-12,46,22
-8,49,22
-2,74,28
1,80,31
-3,85,38
-10,70,45
-13,61,42
-19,58,31
-18,58,27
-17,62,19
-16,65,19
-16,65,21
-19,59,22
-22,56,21
-29,56,18
-33,60,16
-33,61,16
-29,60,18
-26,61,20
-17,62,23
-13,62,22
-10,61,21
-9,63,21
-10,60,20
-13,57,14
-16,68,12
-23,79,20
-29,68,20
-30,57,15
-27,63,6
-29,75,5
-34,86,17
-19,76,12
-13,72,10
1,68,14
4,68,13
0,65,8
-9,63,5
-16,62,6
-26,55,5
-29,49,5
-26,42,9
-22,38,11
-15,34,15
-6,36,22
-3,39,24
2,45,25
1,49,23
-4,86,24
-9,94,31
-14,93,33
-23,71,32
-25,62,28
-22,67,22
-15,69,17
-11,67,17
-6,62,21
-7,59,20
-13,55,16
-18,54,14
-29,55,11
-35,58,12
-33,59,15
-28,61,19
-25,60,23
-19,59,28
-12,60,28
-10,60,28
-8,60,28
-10,63,23
-4,61,24
0,78,22
0,84,30
-11,84,34
-18,81,32
-26,56,13
-25,62,6
-22,70,8
-15,78,10
-13,76,11
-12,71,10
-11,64,9
-12,62,9
-18,60,7
-19,60,7
-18,56,8
-17,54,9
-12,51,11
-10,50,13
-9,49,15
-9,48,16
-9,48,16
-11,50,15
-19,57,18
-21,60,20
-23,60,17
-20,68,13
-22,102,19
-23,101,20
-24,70,13
-20,66,5
-20,72,3
-29,75,0
-30,72,-1
-25,66,-2
-16,62,2
-15,59,4
-17,54,0
-20,51,-3
-26,48,-4
-26,50,0
-24,54,3
-23,64,7
-22,67,8
-22,69,10
-23,71,11
-23,72,11
-25,70,12
-24,68,12
-23,64,12
-23,63,12
-23,63,13
-24,62,12
-25,62,12
-25,62,12
-25,60,12
-25,61,12
-27,68,16
-26,64,16
-27,63,17
-26,63,19
-23,58,21
-20,52,21
-20,53,21
-19,63,19
-20,67,19
-17,70,19
-20,68,17
-21,65,17
-27,62,13
-20,57,13
-14,56,16
-15,60,15
-17,63,17
-23,63,15
-24,63,14
-19,61,12
-19,61,11
-19,61,12
-21,62,11
-20,63,11
-19,63,13
-18,61,14
-14,60,15
-15,66,20
-13,61,20
-17,57,19
-15,57,22
-14,50,24
-7,50,22
-4,56,18
1,67,12
1,68,10
-5,66,5
-9,61,5
-9,58,7
-10,57,6
-11,57,7
-16,57,8
-17,56,10
-16,56,13
-16,57,16
-17,56,17
-20,58,17
-19,63,15
-20,76,6
-28,66,6
-27,76,5
-24,74,14
-23,71,13
-30,72,19
-23,50,17
-19,51,18
-14,63,8
-4,71,5
-9,80,7
-13,75,7
-28,65,1
-36,60,5
-43,61,2
-53,63,-3
-51,66,-3
-51,69,-2
-54,70,0
-53,71,3
-54,67,8
-59,67,10
-52,67,19
-40,58,19
-40,53,19
-34,56,30
-32,50,33
-10,41,40
-8,37,43
1,29,46
12,32,39
20,30,47
12,24,51
16,22,49
22,19,50
26,14,48
27,11,47
31,11,49
30,11,49
31,9,46
35,7,49
36,6,50
33,7,49
35,6,49
45,7,51
41,7,50
40,8,54
43,5,54
41,5,54
40,3,60
35,5,57
34,4,55
30,4,50
31,1,52
35,4,53
34,7,49
32,4,47
32,7,50
34,9,50
33,10,50
32,8,50
31,10,51
35,7,51
36,6,50
37,5,48
37,5,49
37,5,52
35,6,51
35,6,50
38,6,51
38,7,54
34,7,56
37,8,56
39,7,55
36,9,58
31,8,56
31,7,55
32,7,56
30,9,57
29,8,57
30,7,57
28,9,61
25,9,61
28,9,58
24,11,59
23,11,57
26,10,57
26,12,57
24,12,62
25,13,59
26,9,52
26,16,62
23,16,62
24,13,60
24,13,57
24,14,60
24,12,59
26,10,58
28,14,59
25,13,62
26,13,61
23,12,60
22,11,60
21,12,59
23,11,57
23,11,57
22,12,60
23,12,60
24,11,58
25,12,58
24,12,57
21,11,58
23,11,58
28,12,59
25,12,61
22,11,59
24,12,58
23,12,60
22,13,60
21,13,60
