1603997543.000000, 1603997543.000000, 1603997543.000000
32.000000, 32.000000, 32.000000
-57,5,12
-59,4,15
-56,3,20
-69,4,13
-79,0,8
-98,3,-13
-102,-9,-13
-88,-2,-9
-102,4,-22
-114,1,-24
-105,4,-33
-95,7,-34
-75,13,-31
-59,19,-25
-49,19,-21
-38,21,-19
-32,21,-22
-25,15,-26
-29,8,-18
-25,4,-14
-16,1,-2
-15,-3,7
-10,-3,37
-4,4,42
-28,6,41
-63,15,98
-78,23,110
-71,16,120
-40,11,127
-28,9,111
-48,5,63
-51,6,52
-50,9,29
-42,9,23
-43,2,22
-38,0,-4
-36,6,-25
-17,27,-49
-18,37,-53
-8,47,-42
-4,55,-42
-6,67,-39
-3,69,-25
6,67,-15
6,64,-11
-2,63,-15
-27,71,-9
-45,70,-9
-48,65,-11
-56,52,-1
-53,55,0
-54,67,-2
-64,67,4
-66,65,12
-66,75,-17
-69,79,-25
-59,66,-14
-48,60,-36
-39,55,-31
-29,42,-19
-29,39,-15
-26,26,-5
-23,21,-1
-20,13,12
-23,7,25
-26,8,27
-19,18,33
-18,17,30
-10,2,20
-7,-20,20
-19,-31,24
-41,-50,56
-26,-51,68
-6,-60,86
-20,-79,91
-15,-84,103
1,-84,127
-5,-81,127
-38,-55,117
-24,-19,89
-2,-5,80
-2,10,66
-9,11,57
-18,11,42
-16,12,37
-16,12,29
-16,10,24
-20,12,20
-27,-2,34
-32,-1,37
-27,0,33
-23,3,24
-37,0,35
-32,-3,52
-22,-3,52
-49,-13,74
-54,-8,90
-59,-6,106
-58,-7,127
-63,-7,127
-64,-9,110
-50,-6,97
-38,-7,88
-20,-11,62
-23,-14,45
-12,-14,33
-7,-14,31
-4,-17,20
-13,-20,14
-15,-24,16
-32,-52,24
-28,-60,29
-15,-51,30
-15,-44,30
-17,-44,31
-26,-44,26
-32,-54,25
-17,-66,36
5,-88,46
0,-104,50
5,-118,54
0,-124,46
-27,-128,40
-37,-128,30
-38,-128,11
-44,-94,10
-49,-76,3
-53,-58,-4
-55,-48,-5
-59,-47,0
-45,-40,10
-37,-33,-1
-36,-47,-2
-45,-70,15
-48,-99,53
-29,-110,63
-17,-104,69
-20,-71,58
-25,-55,38
-26,-56,14
6,-51,35
-5,-30,61
-24,7,81
-41,14,88
-47,21,70
-49,18,42
-21,17,9
-3,9,10
-2,5,11
-27,-12,14
-42,-22,19
-39,-33,20
-40,-51,13
-45,-69,20
-14,-94,35
4,-102,44
-1,-82,34
-44,-82,37
-46,-67,43
-37,-47,43
-26,-45,49
9,-43,61
4,-54,73
-11,-63,72
-40,-74,60
-42,-71,55
-37,-72,49
-41,-68,46
-40,-52,43
-44,-38,38
-42,-30,32
-38,-17,23
-37,-12,22
-35,-8,25
-42,-11,21
-55,-22,21
-70,-49,31
-63,-59,38
-41,-66,50
-30,-57,47
-26,-47,43
-42,-37,34
-53,-37,33
-63,-31,33
-73,-30,35
-82,-31,41
-86,-32,43
-79,-26,47
-64,-29,70
-59,-28,71
-39,-18,62
-11,-12,36
-4,-8,24
-24,-10,10
-38,-18,16
-12,-23,25
11,-26,20
17,-23,18
14,-42,27
6,-50,32
-7,-57,35
-7,-67,32
-8,-72,32
-13,-80,33
-18,-80,30
-22,-90,35
-26,-99,45
-36,-112,84
-9,-125,109
-11,-124,118
-11,-98,88
-18,-87,78
-37,-64,44
-46,-42,16
-45,-36,6
-41,-25,-3
-47,-16,-10
-36,-9,0
-30,-7,1
-27,-5,0
-27,-4,4
-29,-5,3
-32,-16,5
-37,-28,7
-37,-29,5
-34,-21,10
-39,-18,13
-63,-23,5
-71,-24,5
-91,-40,11
-101,-74,7
-121,-97,17
-128,-109,9
-122,-117,-14
-86,-109,-22
-81,-98,-6
-73,-79,7
-36,-49,12
-17,-38,11
-14,-31,6
-13,-23,7
-2,-16,10
-5,-11,13
-8,-10,10
-16,0,7
-27,-3,11
-52,-13,22
-26,-14,22
-20,-19,25
-38,-36,43
-29,-38,56
-29,-52,61
-31,-63,89
-28,-64,89
-34,-65,90
-42,-60,85
-81,-45,72
-97,-17,73
-94,-9,72
-85,14,72
-61,36,68
4,58,51
-8,59,23
-2,56,22
23,46,20
13,45,12
2,33,14
3,5,19
6,-3,27
-21,-33,47
-30,-44,57
-44,-51,57
-40,-46,46
-58,-41,50
-57,-39,55
-60,-39,56
-57,-36,82
-57,-36,101
-47,-23,115
-73,-11,119
-76,-3,119
-64,10,104
-67,10,91
-66,16,67
-42,17,52
-28,15,41
-25,9,18
-25,11,15
-11,14,23
-12,14,27
-10,10,41
2,4,27
4,11,16
8,42,17
9,49,27
17,59,42
17,52,38
9,50,31
5,51,48
-1,46,52
-11,43,48
-14,48,45
-15,51,44
-16,52,38
-17,51,34
-18,47,35
-16,44,35
-16,37,30
-8,31,23
-3,26,20
0,14,15
-3,8,14
-10,-5,13
-25,-25,21
-29,-29,33
-9,-43,38
13,-59,35
-1,-128,33
-32,-128,63
-41,-128,56
-45,-108,37
-54,-96,23
-49,-81,10
-40,-75,3
-32,-72,1
-22,-56,7
-18,-52,18
-24,-54,19
-29,-60,11
-33,-61,4
-38,-61,-3
-40,-59,-4
-42,-63,0
-40,-64,4
-34,-64,11
-26,-66,19
-21,-67,22
-14,-67,27
-12,-67,29
-12,-68,33
-19,-70,32
-34,-68,23
35,-57,49
30,-52,41
7,-52,33
-15,-54,27
-26,-55,21
-38,-59,15
-34,-61,17
-26,-59,22
-22,-56,25
-18,-54,27
-21,-57,26
-22,-57,26
-23,-58,24
-22,-57,24
-19,-53,23
-20,-53,23
-21,-54,23
-22,-58,25
-22,-60,27
-20,-59,31
-17,-57,34
-15,-55,34
-12,-52,33
-12,-52,32
-16,-53,32
-15,-54,35
-15,-54,35
-13,-54,34
-12,-53,35
-10,-52,34
-9,-51,35
-10,-51,33
-12,-52,33
-12,-53,34
-13,-53,34
-12,-53,35
-11,-52,36
-12,-53,37
-12,-54,38
-14,-54,36
-13,-51,33
-14,-52,34
-17,-53,34
-18,-53,33
-19,-54,31
-18,-55,30
-17,-56,32
-16,-54,31
-15,-54,31
-18,-54,31
-20,-53,31
-20,-56,31
-19,-56,32
-17,-55,32
-17,-55,32
-16,-56,33
-15,-55,34
-15,-54,35
-16,-52,36
-19,-53,38
-20,-53,38
-19,-54,41
-17,-53,40
-14,-51,39
-16,-51,39
-16,-51,41
-17,-51,38
-17,-52,37
-16,-49,36
-16,-49,36
-16,-51,35
-15,-50,33
-15,-50,32
-14,-52,31
-14,-54,29
-15,-57,28
-14,-59,30
-13,-58,31
-13,-55,32
-12,-54,31
-12,-52,29
-12,-54,30
-12,-55,31
-14,-55,34
-14,-54,34
-14,-50,33
-13,-50,29
-13,-52,29
-15,-57,30
-15,-60,31
-16,-62,32
-16,-63,31
-14,-60,29
-13,-58,30
-13,-59,30
-14,-60,30
-14,-59,31
-14,-54,32
-15,-51,31
-16,-53,30
-18,-63,33
-16,-65,38
-10,-68,42
-6,-58,36
-7,-55,32
-8,-57,30
-11,-57,28
-13,-54,27
-15,-50,22
-15,-50,20
-15,-50,20
-17,-50,20
-18,-48,20
-16,-50,20
-14,-52,22
-13,-55,22
-14,-57,23
-17,-60,25
-18,-61,27
-19,-62,30
-18,-60,34
-16,-59,35
-10,-59,34
-9,-59,33
-10,-58,36
-13,-57,37
-14,-56,36
-14,-54,34
-13,-54,33
-13,-54,31
-14,-54,30
-16,-54,27
-18,-59,26
-18,-61,26
-20,-63,22
-22,-64,21
-20,-65,26
-17,-63,25
-15,-63,25
-13,-59,27
-14,-57,27
-15,-54,27
-14,-52,26
-13,-51,26
-15,-52,25
-16,-52,25
-20,-55,24
-22,-61,23
-22,-61,25
-19,-59,24
-18,-59,24
-15,-56,24
-16,-56,24
-18,-56,25
-19,-59,25
-19,-58,26
-19,-56,27
-19,-56,29
-20,-56,32
-19,-56,33
-18,-57,34
-15,-60,35
-14,-59,36
-13,-56,35
-14,-55,33
-16,-56,32
-19,-56,30
-19,-55,27
-19,-56,25
-20,-58,25
-21,-59,24
-23,-56,22
-22,-55,22
-20,-56,24
-20,-59,25
-18,-59,27
-15,-57,26
-13,-57,26
-10,-56,23
-8,-56,22
-6,-58,20
-5,-54,17
-6,-54,17
-11,-57,15
-11,-58,14
-14,-53,16
-18,-55,17
-16,-59,19
-9,-63,26
-3,-62,27
7,-63,23
6,-57,22
-5,-59,20
-21,-59,16
-21,-59,13
-7,-68,12
0,-67,9
-6,-69,8
-7,-74,15
-8,-77,20
-19,-77,8
-20,-80,2
-24,-81,-7
-32,-86,-13
-10,-77,-12
22,-63,28
-18,-55,24
-30,-55,4
-28,-59,5
-13,-60,4
-1,-54,-5
-23,-52,-11
0,-62,11
-31,-84,17
-36,-81,2
-12,-47,-17
-21,-51,-4
-35,-57,-9
-39,-51,-20
-30,-64,-4
-53,-76,-15
-53,-71,-14
-40,-60,-5
-51,-50,6
-44,-28,16
-52,-24,6
-56,-27,14
-54,-26,16
-59,-29,11
-59,-30,15
-54,-37,19
-51,-36,23
-49,-33,34
-53,-33,38
-46,-19,40
-22,-14,57
-18,-11,56
-14,-6,61
-23,-5,63
-23,-8,64
-22,-8,59
-20,-6,56
-13,-7,58
-13,-8,60
-25,-9,62
-34,-8,59
-34,-7,60
-31,-5,57
-27,-3,60
-21,-3,60
-22,-4,59
-32,-3,61
-28,-2,56
-29,-1,56
-30,-1,59
-31,-1,58
-30,0,58
-28,0,58
-29,-1,58
-28,0,58
-32,-1,56
-42,-2,52
-44,-1,51
-42,-1,51
-36,-3,53
-35,-4,55
-38,-5,52
-40,-5,51
-40,-7,52
-38,-8,53
-38,-8,52
-38,-9,53
-37,-9,53
-38,-8,52
-39,-8,52
-39,-7,52
-41,-8,51
-41,-7,51
-43,-7,51
-43,-6,50
-41,-5,50
-42,-5,51
-40,-4,50
-41,-4,51
-43,-5,51
-42,-6,50
-40,-6,51
-39,-6,51
-39,-6,52
-40,-5,51
-40,-5,51
-38,-4,58
-30,3,53
-38,-6,52
-42,-7,49
-45,-10,49
-49,-11,48
-40,-7,50
-41,-10,49
-41,-10,50
-35,-6,52
-37,-7,53
-42,-8,48
-45,-9,48
-43,-9,49
-43,-9,49
-44,-8,49
-51,-7,45
-48,-7,45
-50,-5,46
-46,-6,46
-43,-6,46
-43,-5,48
-43,-5,42
-42,-5,50
-43,-4,48
-44,-4,47
-47,-8,46
-44,-6,50
-43,-6,47
-48,-8,45
-49,-9,44
-46,-8,46
-47,-8,46
-46,-6,46
-45,-5,46
-46,-6,48
-46,-6,47
-46,-5,43
-54,-9,43
-49,-4,44
-48,-3,43
-47,-3,44
-48,-2,44
-49,-4,43
-50,-5,44
-48,-5,44
-47,-5,44
-47,-4,44
-50,-3,43
-50,-3,43
-51,-2,42
-51,-2,43
-51,-2,43
-59,-3,41
-54,-2,43
-42,0,48
-43,0,51
-42,1,51
-36,3,52
-35,3,53
-32,5,55
-30,5,55
-30,3,53
-37,2,53
-40,1,53
-42,2,50
-41,1,51
-55,-5,52
-49,3,46
-32,6,51
-19,3,62
-23,3,58
-27,3,56
-32,2,56
-31,2,56
-34,4,57
-34,4,56
-36,3,56
-37,2,55
-37,1,55
-37,-1,57
-39,-2,59
-32,-2,58
-19,0,58
-16,1,60
-14,2,62
-17,4,60
-25,7,59
-29,8,60
-31,7,59
-30,5,59
-27,5,60
-25,2,62
-24,2,63
-22,3,60
-20,4,60
-21,5,60
-21,7,61
-23,6,61
-30,5,59
-28,4,58
-28,4,59
-31,4,59
-29,4,58
-29,3,59
-30,2,60
-27,3,58
-28,4,58
-30,4,59
-32,4,57
-32,5,57
-33,7,56
-30,7,56
-32,6,56
-34,7,57
-33,7,57
-39,5,55
-38,5,55
-34,7,56
-24,9,58
-22,9,58
-26,9,59
-29,9,57
-30,9,57
-29,8,57
-28,8,58
-28,8,57
-28,8,57
-33,7,59
-33,7,56
-32,7,54
-32,6,58
-32,5,59
-31,4,57
-32,3,56
-33,3,56
-35,4,57
-36,4,58
-33,4,56
-28,6,56
-27,6,58
-30,5,59
-32,4,58
-31,4,57
-30,3,58
-30,3,59
-28,2,59
-28,3,58
-27,4,59
-27,5,59
-26,5,59
-28,4,57
-28,4,57
-27,5,57
-31,3,59
-32,0,59
-30,0,57
-32,0,57
-32,1,58
-32,2,57
-32,3,57
-34,3,55
-35,3,55
-36,3,54
-37,3,54
-36,3,55
-35,3,55
-33,2,55
-33,0,56
-34,0,56
-36,0,55
-37,1,54
-38,1,54
-36,1,55
-36,1,55
-35,0,55
-35,0,55
-35,-1,54
-35,-1,55
-36,-1,55
-37,-1,54
-37,0,54
-38,0,54
-37,1,54
-37,1,54
-36,2,54
-36,2,54
-37,3,54
-37,4,54
-37,3,54
-36,2,54
-36,3,54
-36,3,55
-36,3,54
-35,3,55
-36,2,55
-36,3,54
-36,3,54
-35,3,55
-35,3,55
-37,3,55
-37,4,55
-36,2,55
-36,2,55
-36,2,55
-38,2,54
-37,3,54
-34,3,55
-33,3,56
-34,2,55
-35,2,55
-36,2,54
-35,2,55
-36,2,55
-36,2,54
-37,2,54
-36,1,54
-36,1,54
-36,1,54
-36,2,54
-37,1,54
-37,1,54
-37,1,54
-36,2,54
-37,2,54
-37,2,54
-37,2,54
-37,2,54
-37,2,54
-37,2,54
-37,2,54
-37,2,54
-37,2,54
-37,3,54
-38,2,54
-37,2,54
-37,1,54
-36,1,54
-37,2,54
-37,2,54
-37,2,54
-37,2,54
-37,2,54
-37,2,54
-36,2,54
-36,2,54
-37,2,54
-36,2,54
-37,2,54
-37,2,54
-36,2,54
-37,2,54
-37,1,54
-37,1,54
-36,1,54
-37,1,54
-37,1,55
-38,0,54
-37,0,54
-37,-1,53
-37,-1,54
-38,0,53
-38,1,52
-40,1,53
-41,1,53
-40,-1,52
-36,-2,55
-36,-3,55
-37,-6,55
-37,-6,55
-36,-6,53
-37,-5,52
-36,-5,56
-35,-2,52
-37,2,49
-35,6,46
-36,8,48
-44,6,59
-50,2,58
-50,-1,59
-45,-3,57
-43,-2,56
-33,1,50
-35,2,31
-32,3,36
-47,-10,59
-36,-15,46
-58,-45,54
-62,-32,43
-48,-25,25
-3,-58,52
-16,-53,38
-85,-70,-1
-48,-60,9
-16,-61,54
3,-69,73
-55,-66,5
-31,-92,30
-35,-98,43
-22,-90,22
-1,-73,12
7,-65,22
11,-48,20
13,-47,17
4,-47,8
-3,-42,11
-5,-42,12
-3,-38,16
-1,-35,17
-4,-36,15
-6,-42,14
-5,-46,10
-10,-55,9
-16,-57,10
-20,-54,13
-24,-53,15
-26,-60,22
-26,-76,28
-21,-80,28
-13,-86,24
-8,-89,30
10,-84,43
7,-78,34
1,-77,39
-7,-74,42
-15,-74,42
-19,-73,40
-13,-69,42
-7,-69,40
-8,-68,36
-18,-70,33
-32,-69,27
-32,-66,25
-33,-58,19
-31,-48,17
-29,-43,17
-27,-36,16
-27,-33,14
-26,-30,14
-20,-28,18
-18,-28,16
-18,-28,11
-17,-31,11
-17,-40,24
-3,-40,41
-4,-42,37
-1,-59,47
5,-65,49
16,-67,37
11,-68,33
3,-66,45
-6,-75,39
-10,-79,37
-13,-75,42
-12,-69,45
-13,-58,41
-17,-63,35
-17,-65,35
-15,-68,33
-12,-69,35
-13,-66,36
-17,-61,36
-19,-57,36
-21,-53,32
-18,-52,27
-9,-51,21
6,-52,33
6,-55,35
-7,-59,35
-20,-70,32
-35,-80,34
-37,-74,31
-33,-66,29
-20,-55,22
-16,-57,22
-24,-69,24
-27,-76,26
-25,-82,26
-16,-74,21
-12,-70,19
-12,-60,15
-14,-57,13
-22,-51,8
-28,-48,6
-28,-47,7
-21,-46,11
-19,-45,12
-14,-42,15
-11,-44,16
-11,-46,18
-13,-52,21
-12,-60,23
-12,-75,28
-12,-78,28
-11,-77,32
-13,-69,32
-14,-70,32
-18,-72,29
-17,-72,27
-9,-66,26
-8,-56,19
-12,-55,17
-20,-57,16
-25,-58,16
-32,-58,15
-33,-58,18
-30,-58,22
-29,-54,26
-28,-52,28
-23,-48,32
-20,-49,33
-15,-53,34
-14,-64,33
-21,-81,34
-29,-85,36
-34,-80,34
-32,-68,29
-31,-74,24
-32,-77,20
-39,-79,9
-34,-76,6
-19,-68,9
-15,-63,14
-19,-63,14
-26,-62,15
-26,-61,16
-25,-53,15
-21,-47,14
-19,-45,14
-18,-44,16
-14,-44,17
-14,-47,19
-12,-49,23
-9,-52,23
-7,-62,23
-10,-64,23
-13,-65,22
-13,-63,22
-29,-66,19
-14,-70,20
-8,-74,25
-8,-78,29
-12,-73,25
-25,-66,16
-25,-64,10
-31,-64,7
-29,-60,13
-25,-59,19
-20,-59,28
-10,-59,35
-9,-59,39
-12,-61,39
-12,-63,39
-9,-66,42
-15,-78,43
-17,-84,45
-23,-79,35
-19,-68,30
-11,-49,22
-32,-50,-3
12,-74,24
-13,-78,10
-34,-74,-9
-39,-60,-9
-40,-57,-3
-32,-61,3
-31,-70,1
-29,-72,-1
-26,-71,0
-24,-68,2
-20,-62,6
-19,-58,7
-18,-53,7
-19,-51,9
-19,-49,11
-18,-48,14
-17,-55,16
-14,-64,24
-3,-54,28
-1,-53,30
-7,-57,29
-8,-62,29
-10,-68,23
-7,-63,17
-7,-61,18
-12,-59,19
-17,-58,19
-25,-57,18
-26,-59,19
-26,-60,20
-24,-62,27
-27,-63,26
-27,-58,24
-27,-54,24
-27,-55,25
-25,-57,28
-24,-57,28
-31,-79,30
-27,-86,41
-22,-74,26
-28,-77,22
-26,-84,22
-17,-85,20
-16,-79,20
-13,-63,19
-13,-57,19
-18,-58,18
-26,-63,16
-26,-62,16
-19,-61,13
-11,-60,15
-8,-59,16
-6,-53,16
-9,-49,15
-13,-45,12
-16,-46,13
-16,-47,14
-14,-53,16
-14,-68,17
-12,-82,22
-12,-78,26
-11,-61,30
-7,-65,29
-4,-70,26
-8,-70,18
-9,-65,17
-10,-60,17
-17,-58,16
-20,-59,15
-27,-56,17
-26,-58,21
-19,-61,19
-20,-55,18
-26,-53,22
-31,-51,27
-32,-50,28
-32,-52,29
-32,-59,28
-31,-99,41
-25,-78,38
-21,-65,33
-15,-66,26
-16,-69,25
-22,-81,20
-10,-84,25
-6,-80,25
-6,-76,24
-11,-75,21
-20,-73,11
-23,-68,6
-22,-63,6
-17,-57,8
-15,-55,9
-13,-51,10
-11,-46,11
-12,-45,10
-14,-45,12
-16,-46,14
-28,-58,13
-9,-62,19
-7,-60,21
-11,-53,26
-13,-57,27
-17,-74,29
-16,-77,29
-15,-78,22
-15,-77,21
-15,-74,23
-21,-68,23
-24,-66,21
-30,-62,22
-34,-58,25
-33,-56,25
-29,-52,28
-26,-51,30
-24,-51,34
-22,-56,35
-22,-60,32
-24,-87,38
-22,-89,38
-21,-73,28
-22,-78,23
-24,-83,20
-30,-88,11
-28,-86,9
-18,-78,10
-14,-75,12
-14,-71,12
-18,-69,8
-19,-65,6
-18,-58,5
-17,-55,5
-16,-48,7
-22,-43,8
-27,-44,12
-36,-47,13
-39,-45,10
-46,-44,5
-52,-47,6
-54,-41,5
-51,-42,10
-45,-49,14
-39,-58,10
-39,-61,6
-33,-66,9
-28,-70,17
-24,-71,20
-15,-69,25
-11,-67,26
-9,-66,25
-9,-60,31
-8,-55,36
-10,-48,31
-13,-46,27
-16,-47,24
-17,-48,24
-17,-48,23
-16,-48,20
-18,-48,18
-23,-52,17
-27,-53,17
-34,-62,19
-34,-72,21
-33,-73,21
-23,-73,21
-18,-71,21
-12,-69,28
-13,-74,31
-10,-75,32
-12,-76,33
-26,-90,39
-70,-109,62
-99,-115,49
-63,-102,38
-23,-52,8
-13,-42,8
-26,-28,17
-27,-14,23
-31,-8,22
-36,-1,21
-38,1,20
-51,4,18
-41,10,18
-40,8,21
-59,4,35
-49,4,42
-28,0,44
-5,3,40
-2,2,34
-17,0,35
-16,-2,29
-12,-20,23
-13,-29,29
-44,-56,29
-45,-84,28
-43,-90,27
-27,-93,46
-7,-91,55
6,-100,52
-5,-100,44
-14,-94,36
-27,-76,24
-26,-66,41
-39,-61,24
-32,-59,23
-26,-54,24
-22,-48,19
-20,-44,16
-20,-36,14
-21,-32,15
-20,-24,12
-22,-27,8
-22,-34,9
-23,-36,11
-25,-41,12
-21,-60,18
-19,-77,26
-16,-85,30
-15,-98,37
-15,-109,37
-14,-126,37
-13,-128,40
-11,-128,37
-11,-119,31
-13,-106,27
-18,-96,14
-23,-92,7
-32,-67,3
-34,-50,10
-33,-43,12
-30,-21,10
-25,-8,8
-5,16,10
7,20,7
6,16,5
-21,7,-2
-24,4,-7
15,-2,8
-7,-17,9
-7,-38,20
2,-128,22
-31,-128,10
-22,-128,36
-7,-111,30
9,-87,27
-24,-78,14
-30,-74,8
-25,-52,6
-18,-44,9
-12,-33,19
-10,-35,20
-11,-37,17
-8,-39,17
1,-39,17
2,-40,15
-17,-48,12
-18,-48,12
-36,-82,17
-34,-89,20
-28,-73,17
-23,-74,17
-24,-75,19
-25,-77,18
-26,-79,14
-26,-79,19
-25,-76,25
-23,-69,30
-21,-65,24
-20,-63,22
-21,-57,17
-19,-55,17
-18,-52,16
-17,-51,15
-16,-52,15
-14,-54,14
-14,-56,15
-13,-63,16
-14,-67,16
-14,-73,16
-19,-76,21
-16,-72,24
-4,-48,23
-4,-42,20
-7,-50,12
-16,-60,-3
-15,-61,-8
-7,-65,5
-6,-64,11
-7,-62,15
11,-64,30
-23,-65,4
-45,-62,2
-41,-63,9
-32,-59,18
-24,-58,27
-22,-59,33
-23,-61,39
-26,-65,38
-20,-68,40
-23,-82,41
-21,-88,43
-20,-80,34
-20,-72,30
-19,-59,25
-23,-61,24
-34,-76,22
-37,-91,15
-33,-89,11
-24,-79,11
-18,-73,15
-19,-65,17
-28,-56,11
-31,-54,10
-31,-51,10
-29,-52,11
-24,-49,12
-21,-46,12
-20,-46,13
-20,-49,14
-17,-47,18
-18,-47,22
-11,-54,27
-6,-59,28
-4,-58,33
-4,-54,36
-7,-47,37
-10,-53,34
-11,-69,35
-9,-69,31
-8,-68,29
-5,-67,24
-6,-65,21
-6,-69,22
-38,-71,21
-44,-66,13
-39,-52,9
-37,-48,8
-32,-49,11
-31,-53,16
-33,-55,15
-37,-60,19
-39,-62,22
-38,-73,16
-40,-81,22
-45,-80,17
-29,-71,21
-37,-69,23
37,-72,33
26,-68,38
-40,-73,13
-42,-61,-9
-48,-54,-13
-37,-49,-9
-33,-48,-7
-33,-51,-7
-33,-55,-7
-33,-56,-5
-31,-61,0
-30,-62,2
-21,-60,5
-17,-59,7
-13,-56,14
-15,-57,24
-18,-66,23
-20,-77,25
-19,-72,27
-20,-54,26
-20,-44,26
-19,-46,24
-16,-50,23
-13,-53,22
-9,-55,19
-12,-55,16
-14,-53,15
-22,-51,13
-26,-51,14
-33,-50,17
-42,-56,23
-42,-56,25
-40,-55,25
-37,-56,28
-49,-55,24
-55,-50,12
-56,-58,11
-52,-76,12
-49,-77,8
-48,-79,7
-45,-81,6
-38,-83,5
-30,-89,9
-26,-89,9
-17,-83,11
-17,-76,12
-16,-66,12
-16,-60,9
-16,-57,8
-17,-56,6
-16,-53,7
-13,-45,11
-12,-39,11
-11,-37,11
-15,-40,12
-16,-44,14
-17,-50,18
-15,-60,21
-17,-75,22
-16,-97,33
-13,-89,40
-3,-66,41
-2,-68,38
-2,-68,31
-8,-64,18
-10,-63,13
-13,-67,10
-15,-70,11
-22,-68,5
-27,-64,-3
-26,-61,-3
-29,-51,-2
-33,-48,-1
-36,-46,2
-35,-46,5
-37,-49,9
-32,-56,20
-30,-60,26
-25,-69,35
-21,-73,38
-12,-88,46
-15,-86,41
-15,-86,42
-16,-66,38
-19,-59,33
-25,-69,9
33,-69,23
37,-71,45
4,-69,33
-5,-71,24
-24,-71,14
-30,-67,4
-26,-67,3
-20,-62,6
-18,-59,8
-16,-57,10
-17,-53,11
-18,-51,10
-18,-50,10
-17,-49,12
-15,-47,16
-14,-47,19
-10,-46,23
-10,-64,26
-11,-75,31
-9,-66,46
-8,-54,47
-9,-40,42
-12,-56,42
-11,-66,40
-10,-72,30
-7,-66,34
-19,-62,23
-17,-60,24
-21,-57,23
-30,-56,17
-33,-58,17
-29,-59,19
-25,-58,22
-24,-56,24
-22,-50,27
-20,-47,28
-16,-38,27
-12,-33,21
-7,-49,5
9,-89,35
6,-99,48
-12,-88,47
-20,-87,24
-17,-83,22
-21,-77,17
-21,-72,18
-21,-62,20
-21,-60,19
-29,-59,18
-37,-59,22
-41,-64,18
-32,-65,16
-26,-70,17
5,-63,23
74,-53,-2
-38,-53,19
-38,-49,12
-30,-45,3
-22,-40,0
-19,-40,4
-15,-45,14
-15,-52,16
-17,-59,14
-24,-97,14
-23,-90,17
-27,-76,18
-31,-88,31
-33,-92,42
-25,-78,56
-42,-69,38
-23,-65,31
-13,-63,34
-3,-52,42
-5,-49,43
-11,-49,43
-20,-53,40
-22,-54,38
-24,-55,34
-22,-59,27
-20,-63,25
-17,-67,23
-17,-67,21
-18,-67,17
-26,-68,17
-30,-74,16
-29,-91,18
-30,-91,19
-30,-83,22
-27,-78,20
-22,-74,19
-12,-61,20
-7,-54,22
-5,-40,22
-9,-31,21
-12,-29,19
-18,-29,16
-19,-30,15
-17,-36,15
-18,-41,15
-33,-65,26
-29,-79,26
-29,-80,20
-23,-84,25
-23,-82,29
-30,-74,21
-39,-65,11
-41,-63,10
-39,-57,12
-36,-59,18
-23,-59,23
-25,-64,22
-28,-69,25
-33,-72,32
-34,-65,37
-24,-54,33
-20,-51,29
-5,-44,37
-20,-50,42
-27,-49,35
-39,-52,27
-34,-55,29
-25,-61,29
-25,-60,25
-28,-58,25
-38,-59,22
-39,-61,23
-36,-61,20
-27,-58,18
-23,-55,18
-22,-50,16
-22,-49,14
-18,-49,11
-18,-51,12
-18,-47,16
-17,-41,14
-16,-44,13
-17,-62,14
-18,-62,18
-18,-57,22
-15,-57,22
-17,-60,23
-25,-70,26
-29,-75,25
-34,-84,22
-31,-84,31
-25,-79,38
-1,-73,40
16,-68,39
-28,-81,43
-65,-65,16
-55,-53,21
-42,-51,17
-43,-62,18
-44,-62,25
-43,-68,30
-31,-74,33
-28,-74,30
-28,-76,25
-25,-79,22
-23,-81,21
-24,-84,20
-21,-88,20
-21,-89,17
-24,-84,10
-26,-81,6
-26,-78,0
-24,-70,-4
-22,-67,-5
-19,-64,-7
-17,-62,-6
-17,-57,-4
-19,-50,-5
-19,-48,-6
-22,-45,-6
-22,-45,-6
-21,-43,-3
-21,-43,-3
-29,-103,-7
-19,-52,1
-22,-51,-1
-28,-95,2
-32,-112,9
-32,-99,1
-23,-92,-5
-19,-96,-2
-7,-92,10
-6,-85,13
-13,-77,14
-21,-66,10
-25,-63,7
-21,-59,5
-18,-56,6
-15,-49,7
-15,-46,8
-17,-46,7
-18,-45,8
-20,-45,9
-18,-55,9
-18,-65,10
-23,-81,10
-25,-87,20
-22,-80,20
-15,-69,15
-14,-69,16
-16,-68,21
-18,-67,20
-18,-69,19
-14,-68,18
-13,-65,19
-13,-63,17
-15,-62,13
-16,-63,10
-16,-63,7
-16,-60,6
-17,-54,8
-24,-49,8
-20,-47,11
-13,-42,17
-13,-40,18
-12,-39,18
-11,-42,20
-11,-49,25
-11,-79,30
-15,-97,33
-24,-74,36
-27,-64,28
-30,-65,19
-34,-72,26
-37,-74,25
-24,-71,19
-14,-67,19
-6,-60,20
-11,-59,20
-16,-59,19
-26,-63,16
-28,-65,15
-24,-66,17
-21,-66,17
-17,-63,18
-17,-58,16
-16,-57,16
-16,-53,17
-15,-52,18
-13,-50,21
-10,-47,23
-9,-53,23
-10,-61,32
-9,-59,32
-10,-52,29
-13,-44,26
-17,-45,25
-26,-61,27
-28,-66,27
-24,-68,26
-20,-63,22
-18,-60,21
-21,-63,18
-25,-66,18
-30,-69,18
-30,-68,18
-23,-66,20
-20,-60,24
-19,-58,24
-20,-51,23
-20,-48,23
-18,-43,23
-17,-45,24
-17,-49,26
-17,-56,27
-17,-59,25
-18,-73,29
-19,-71,27
-21,-67,24
-21,-58,21
-20,-63,21
-22,-78,29
-19,-77,31
-17,-72,32
-13,-65,41
-8,-57,41
-7,-54,31
-14,-52,31
-27,-56,40
-19,-54,39
-19,-53,36
-21,-50,31
-24,-48,29
-24,-46,24
-25,-45,26
-23,-42,30
-21,-36,34
-21,-35,36
-22,-32,41
-21,-46,46
-20,-46,49
-22,-27,49
-21,-18,52
-21,-16,54
-17,-27,52
-21,-32,57
-25,-28,58
-28,-25,55
-31,-24,51
-32,-24,52
-28,-22,56
-31,-21,50
-32,-21,52
-33,-22,52
-32,-23,49
-33,-23,50
-32,-18,47
-29,-15,45
-27,-13,42
-28,-13,46
-33,-15,43
-28,-25,44
-32,-30,41
-21,-31,38
-8,-49,74
-61,-43,44
-54,-30,81
-33,-22,86
-23,8,58
-23,4,49
-31,-12,53
-26,-17,48
-47,-10,50
-72,-13,57
-54,-15,45
-26,-23,43
-18,-21,51
-32,-19,51
-54,-24,49
-43,-25,48
-38,-25,45
-40,-21,42
-29,-6,46
-40,-2,49
-48,-3,49
-54,-14,46
-53,-24,42
-50,-35,36
-46,-36,37
-52,-29,38
-56,-21,38
-42,-19,42
-15,-14,60
-17,-10,58
-45,-10,50
-58,-15,43
-48,-21,46
-43,-25,45
-41,-25,46
-41,-23,45
-42,-18,34
-64,-23,30
-42,-17,54
-40,-17,51
-41,-11,48
-35,-9,50
-34,-16,44
-38,-19,35
-44,-22,37
-39,-28,45
-35,-26,39
-42,-30,41
-41,-28,42
-39,-26,40
-51,-28,42
-49,-26,43
-48,-24,43
-47,-24,44
-50,-23,46
-52,-12,44
-55,-10,50
-39,-19,59
-44,-34,38
-44,-35,38
-42,-29,51
-38,-28,51
-36,-38,40
-34,-38,44
-22,-31,62
-12,-32,54
-22,-30,38
-15,-53,36
-12,-56,28
-9,-45,37
-9,-41,47
-18,-38,43
-18,-41,42
-16,-42,46
-15,-44,48
-26,-46,39
-26,-50,40
-19,-47,43
-22,-45,38
-30,-45,41
-33,-43,35
-37,-42,33
-39,-46,38
-40,-47,37
-40,-48,33
-40,-43,28
-39,-37,34
-44,-37,39
-42,-42,37
-41,-45,33
-45,-48,30
-44,-50,31
-36,-50,33
-33,-50,29
-41,-53,25
-49,-62,32
-36,-64,17
-40,-43,-15
-17,-45,6
-29,-38,-4
-42,-36,-10
-56,-33,-11
-55,-37,0
-51,-42,11
-49,-36,-6
-47,-43,-16
-43,-63,-35
-43,-75,-39
-30,-105,-27
-16,-92,-5
-15,-85,-1
9,-67,7
9,-61,9
-15,-83,13
-10,-81,16
-11,-77,16
-8,-75,24
-6,-71,27
-2,-62,27
-5,-58,28
-4,-59,29
-4,-61,28
-10,-59,25
-12,-55,25
-11,-57,27
-13,-57,26
-15,-54,25
-17,-52,24
-19,-50,23
-19,-49,23
-18,-51,21
-19,-52,21
-20,-54,22
-21,-58,24
-22,-60,23
-27,-94,32
-29,-92,32
-29,-82,26
-25,-59,22
-20,-62,24
-19,-68,27
-18,-70,22
-15,-68,21
-13,-65,20
-14,-65,21
-18,-65,18
-19,-65,16
-18,-61,12
-15,-56,12
-13,-54,13
-14,-50,14
-15,-48,13
-16,-48,13
-14,-48,17
-13,-48,19
-14,-47,22
-12,-46,24
-14,-64,27
-14,-71,35
-12,-64,39
-11,-58,35
-10,-62,35
-15,-66,31
-18,-65,25
-19,-64,18
-17,-62,19
-15,-61,20
-20,-57,17
-24,-54,17
-31,-48,17
-33,-48,20
-30,-50,21
-25,-50,25
-24,-49,27
-23,-54,30
-25,-61,25
-26,-61,23
-30,-74,20
-27,-87,28
-26,-85,31
-20,-68,32
-19,-60,25
-25,-63,16
-14,-65,15
-10,-66,27
-17,-65,18
-17,-65,15
-16,-62,16
-17,-60,16
-19,-55,14
-20,-54,12
-20,-54,10
-19,-55,12
-18,-55,14
-18,-53,16
-19,-53,16
-19,-58,21
-19,-60,24
-17,-62,25
-12,-74,30
-9,-74,32
-6,-61,39
-8,-40,30
-12,-34,28
-19,-43,28
-20,-51,27
-18,-62,22
-16,-62,22
-11,-55,26
-11,-50,25
-15,-49,22
-20,-50,20
-21,-51,21
-21,-53,24
-20,-57,27
-21,-60,29
-23,-62,36
-24,-61,37
-22,-57,34
-22,-61,31
-21,-64,32
-18,-85,34
-15,-80,33
-21,-83,28
-20,-78,29
-19,-56,22
-20,-59,16
-21,-62,16
-22,-67,16
-23,-66,15
-18,-62,15
-15,-60,15
-16,-60,15
-19,-60,11
-20,-59,10
-18,-56,9
-16,-54,10
-15,-53,11
-16,-53,12
-17,-53,13
-17,-52,16
-15,-53,20
-14,-54,21
-17,-66,23
-17,-75,28
-15,-75,36
-14,-70,40
-18,-48,38
-14,-49,33
-7,-53,33
2,-56,33
14,-59,46
-28,-57,17
-32,-53,16
-24,-53,21
-23,-52,17
-26,-58,16
-29,-62,16
-24,-63,19
-21,-62,19
-18,-58,19
-17,-55,19
-19,-54,18
-21,-54,15
-4,-53,23
2,-61,28
-6,-75,29
-24,-87,31
-31,-71,17
-27,-60,16
-12,-67,20
-7,-77,24
-17,-85,21
-20,-83,17
-15,-76,18
-11,-66,18
-11,-61,18
-17,-55,12
-18,-53,11
-19,-50,10
-15,-44,13
-12,-42,13
-11,-42,14
-11,-42,14
-11,-42,15
-11,-42,14
-12,-42,14
-14,-40,12
-14,-43,7
-19,-88,7
-25,-123,15
-39,-113,24
-27,-96,17
-13,-92,22
3,-81,27
1,-79,19
-5,-76,8
-15,-68,4
-18,-66,2
-21,-59,3
-20,-55,5
-18,-52,5
-18,-50,9
-18,-49,7
-23,-48,2
-25,-48,5
-27,-50,12
-26,-51,13
-23,-51,13
-25,-59,16
-32,-64,18
-33,-72,26
-36,-73,21
-36,-63,8
-46,-52,-7
-50,-46,-11
-53,-37,-15
-52,-35,-15
-59,-38,-14
-57,-43,-9
-56,-46,-5
-58,-54,5
-57,-51,6
-51,-50,8
-48,-54,11
-44,-60,19
-34,-60,23
-28,-58,24
-16,-55,29
-15,-56,29
-20,-59,27
-23,-62,27
-22,-62,26
-19,-62,25
-17,-60,25
-16,-59,23
-17,-59,23
-17,-59,22
-16,-63,20
-14,-64,21
-13,-64,22
-20,-76,23
-21,-78,24
-24,-71,21
-24,-62,23
-21,-46,20
-19,-47,19
-12,-54,19
-3,-60,23
-6,-59,20
-9,-55,18
-10,-52,17
-18,-49,11
-25,-47,11
-28,-47,12
-25,-50,5
-30,-57,5
-31,-57,33
-47,-49,34
-34,-45,33
-23,-42,33
-28,-47,31
-53,-50,18
-47,-71,15
-45,-74,11
-52,-73,3
-48,-69,8
-37,-59,1
-35,-65,-1
-29,-60,13
-24,-57,25
-24,-54,26
-26,-47,22
-27,-46,21
-27,-47,20
-26,-50,23
-24,-53,25
-20,-54,26
-19,-53,24
-20,-50,19
-21,-47,15
-23,-47,14
-24,-46,12
-27,-47,10
-25,-51,18
-23,-60,22
-22,-84,39
-3,-80,47
0,-67,38
0,-53,28
-3,-59,31
-10,-64,33
-41,-58,14
-37,-53,14
-17,-47,23
-15,-44,25
-20,-47,25
-28,-51,25
-27,-52,27
-29,-52,29
-26,-52,30
-26,-51,28
-27,-54,29
-26,-56,31
-23,-60,28
-22,-60,25
-23,-58,21
-25,-62,17
-27,-78,21
-29,-67,9
-31,-71,10
-29,-61,13
-30,-59,5
-31,-72,6
-27,-72,4
-28,-71,4
-29,-65,12
-27,-61,14
-19,-57,14
-9,-55,20
-6,-54,23
-10,-57,23
-11,-59,22
-14,-61,19
-13,-56,22
-13,-53,21
-12,-51,20
-11,-51,20
-9,-54,21
-7,-55,18
-9,-69,16
-14,-80,11
-19,-85,12
-22,-74,10
-24,-69,7
-21,-71,3
-23,-78,3
-22,-77,4
-20,-68,3
-19,-64,3
-21,-57,2
-26,-55,0
-28,-56,-1
-29,-57,0
-29,-58,4
-29,-59,11
-31,-60,15
-34,-57,22
-36,-54,30
-35,-56,35
-25,-58,44
-18,-61,46
-11,-78,45
-22,-80,34
-26,-81,33
-25,-66,29
-19,-61,25
-14,-61,27
-20,-75,31
-25,-80,28
-26,-83,16
-23,-80,14
-14,-71,13
-14,-66,11
-17,-63,8
-24,-57,3
-26,-54,4
-26,-51,5
-23,-49,7
-20,-45,9
-17,-43,12
-16,-43,14
-14,-45,20
-14,-47,23
-10,-56,28
-9,-64,36
-6,-68,44
-3,-66,47
-2,-59,47
-4,-49,45
-12,-58,35
-16,-67,31
-23,-81,31
-23,-77,31
-21,-60,23
-20,-56,22
-23,-55,20
-29,-55,15
-30,-53,14
-25,-52,16
-23,-54,18
-23,-55,22
-26,-56,25
-27,-56,28
-25,-57,34
-21,-56,37
-14,-56,41
-16,-59,32
-13,-59,29
-6,-66,29
-2,-75,34
-11,-71,31
-22,-69,23
-22,-62,21
-28,-53,17
-32,-54,15
-38,-66,13
-38,-79,16
-35,-81,19
-31,-75,17
-34,-71,14
-35,-65,14
-36,-63,13
-33,-58,13
-29,-49,15
-26,-44,15
-25,-37,16
-24,-36,17
-25,-36,20
-22,-34,22
-22,-34,24
-21,-35,30
-19,-37,32
-15,-41,33
-12,-44,32
-11,-50,30
-16,-68,30
-19,-75,30
-24,-76,32
-25,-80,31
-24,-79,25
-27,-70,16
-24,-67,13
-15,-65,11
-14,-66,12
-15,-67,13
-21,-63,10
-23,-59,9
-25,-54,9
-25,-53,10
-25,-53,14
-23,-56,18
-23,-57,19
-21,-61,23
-21,-62,25
-19,-62,27
-19,-63,27
-18,-64,28
-16,-67,32
-16,-67,32
-12,-63,29
-8,-62,27
-7,-61,23
-6,-64,19
-4,-68,19
-6,-70,17
6,-58,19
13,-57,12
2,-65,5
-4,-70,5
-14,-72,-12
-15,-73,-16
42,-70,7
-4,-68,-13
-5,-71,-15
-13,-70,-9
-11,-70,-4
-12,-68,-2
-14,-69,-8
-16,-67,-9
-17,-69,-9
-17,-68,-8
-19,-65,-4
-19,-65,-4
-22,-66,-5
-25,-65,-2
-27,-65,0
-27,-64,4
-27,-64,6
-23,-68,9
-21,-77,8
-18,-68,11
-14,-57,18
-19,-57,20
-32,-59,39
-15,-60,60
24,-56,67
-4,-57,31
-18,-58,24
-27,-55,19
-16,-56,24
-16,-57,19
-19,-57,14
-23,-56,15
-23,-55,22
-18,-54,27
8,-53,38
6,-51,35
0,-52,35
-6,-50,31
-18,-47,23
-44,-37,11
-43,-34,10
-40,-33,11
-33,-38,12
-33,-41,11
-29,-40,8
-32,-41,1
-36,-46,0
-37,-58,5
-37,-62,3
-31,-65,4
-34,-73,6
-30,-73,14
-29,-67,24
-69,-90,44
-41,-54,27
-37,-53,12
-43,-46,21
-43,-41,20
-47,-42,19
-65,-43,11
-62,-43,12
-59,-40,11
-55,-38,13
-56,-38,13
-57,-43,10
-56,-46,10
-51,-50,11
-46,-55,14
-43,-60,15
-43,-65,14
-42,-75,12
-36,-77,13
-33,-74,17
-28,-69,17
-28,-70,15
-28,-69,15
-24,-60,17
-22,-55,17
-19,-46,17
-15,-41,15
-14,-41,15
-12,-39,13
-13,-40,13
-13,-44,15
-15,-50,18
-17,-52,19
-21,-49,18
-21,-47,16
-24,-45,17
-26,-45,19
-27,-49,22
-22,-54,27
-19,-55,29
-11,-56,29
-10,-55,29
-13,-56,29
-19,-55,30
-19,-54,31
-17,-54,38
-20,-55,37
-25,-57,30
-23,-54,28
-22,-54,26
-20,-55,25
-19,-57,26
-20,-61,26
-19,-65,24
-18,-64,24
-16,-60,24
-15,-57,25
-20,-71,25
-22,-74,27
-24,-70,20
-20,-61,22
-20,-58,23
-23,-59,24
-23,-65,27
-26,-74,21
-23,-80,18
-22,-79,21
-16,-67,29
-18,-63,29
-24,-58,23
-26,-54,19
-23,-50,20
-16,-45,21
-13,-43,21
-9,-40,20
-10,-38,16
-12,-40,15
-14,-44,13
-15,-47,14
-16,-55,17
-18,-59,20
-22,-71,20
-27,-92,31
-26,-90,36
-24,-65,38
-18,-60,35
-5,-65,29
-8,-65,20
-10,-64,18
-15,-62,16
-17,-62,15
-22,-58,10
-26,-50,5
-28,-47,3
-32,-45,3
-34,-46,5
-32,-50,12
-33,-51,15
-29,-53,23
-23,-61,30
-20,-65,33
-22,-87,39
-14,-91,46
-13,-79,45
-15,-67,36
-17,-62,29
-12,-67,35
-18,-67,35
-25,-73,27
-27,-70,21
-26,-67,20
-23,-61,17
-23,-58,16
-32,-51,8
-27,-46,9
-25,-44,10
-16,-42,11
-13,-41,12
-15,-43,11
-17,-45,12
-19,-47,15
-19,-59,15
-18,-71,20
-19,-77,35
-17,-68,42
-13,-51,41
-8,-58,38
-11,-61,35
-3,-60,32
13,-58,36
-39,-49,19
-53,-55,8
-44,-54,14
-33,-54,24
-32,-56,25
-36,-59,24
-35,-54,24
-31,-50,25
-29,-49,27
-30,-49,28
-32,-52,27
-35,-64,18
-41,-80,18
-43,-86,18
-41,-77,14
-34,-66,3
-31,-70,4
-26,-81,8
-25,-70,6
-19,-71,7
-13,-69,15
3,-69,17
1,-60,13
-12,-55,10
-21,-54,8
-20,-52,10
-18,-55,12
-13,-52,16
-11,-49,21
-9,-46,22
-12,-47,25
-16,-50,28
-27,-62,31
-34,-75,30
-42,-82,29
-37,-66,30
-32,-54,27
-29,-46,19
-31,-52,18
-36,-61,18
-30,-62,18
-26,-59,19
-22,-54,21
-23,-50,21
-25,-51,22
-13,-49,28
-11,-53,31
-10,-62,33
-7,-61,30
-6,-60,26
-7,-60,21
-7,-59,17
-5,-61,13
-6,-63,12
-11,-68,15
2,-83,5
-14,-71,-42
-4,-60,16
-16,-56,23
-16,-57,14
-15,-63,19
-15,-70,10
-18,-74,7
-18,-72,8
-15,-64,10
-14,-61,11
-13,-57,10
-15,-61,7
-14,-62,9
-13,-64,15
-12,-65,14
-14,-68,10
-17,-67,10
-14,-66,11
-8,-65,8
-8,-65,8
-11,-65,10
-10,-64,9
-12,-61,10
-26,-74,4
-27,-80,4
-20,-75,12
-16,-64,15
-9,-47,21
-6,-43,19
-4,-47,15
1,-61,12
0,-64,13
-2,-67,16
-1,-61,19
0,-57,22
-5,-56,24
-13,-58,21
-29,-60,11
-29,-61,7
-21,-59,10
-15,-57,16
-14,-57,17
-17,-57,19
-20,-58,20
-21,-59,21
-21,-61,20
-21,-62,20
-21,-66,22
-21,-66,21
-20,-70,18
-18,-80,21
-18,-80,21
-18,-72,20
-18,-69,18
-20,-62,16
-26,-69,16
-28,-75,18
-26,-82,18
-21,-83,17
-11,-80,19
-6,-78,20
-4,-66,16
-14,-54,11
-18,-50,10
-25,-45,10
-24,-44,12
-19,-39,15
-10,-37,18
-7,-37,20
-4,-38,21
-5,-40,21
-8,-48,23
-8,-60,24
-9,-76,19
-15,-104,17
-21,-92,24
-26,-68,29
-23,-75,20
-20,-81,14
-15,-76,6
-8,-75,6
-7,-74,6
-14,-73,4
-30,-67,4
-36,-60,-4
-35,-57,-6
-38,-54,3
-43,-56,9
-46,-55,24
-68,-58,28
-71,-56,30
-66,-54,30
-64,-55,26
-50,-61,19
-34,-78,8
-30,-90,7
-47,-100,-24
-52,-91,-34
-40,-80,-21
-32,-84,-10
-37,-88,0
-36,-88,-5
-32,-86,-6
-18,-80,0
-11,-74,5
-8,-60,8
-15,-50,9
-17,-48,7
-16,-38,6
-16,-33,7
-18,-29,9
-19,-29,11
-20,-30,12
-18,-34,16
-16,-36,19
-14,-44,23
-10,-53,29
-10,-75,24
-17,-128,30
-21,-118,40
-21,-79,42
-18,-67,41
-18,-63,31
-23,-66,17
-20,-69,16
-12,-69,17
-8,-66,20
-12,-59,18
-26,-52,12
-30,-51,9
-36,-48,3
-38,-49,4
-34,-52,10
-28,-50,16
-25,-48,17
-22,-48,21
-22,-49,24
-22,-54,27
-22,-56,27
-32,-110,40
-13,-91,64
-5,-75,48
8,-63,-14
39,-62,21
22,-60,51
-3,-76,37
-22,-78,28
-38,-79,11
-33,-75,11
-21,-70,16
-17,-66,17
-18,-62,15
-23,-55,9
-24,-52,7
-24,-44,7
-20,-40,9
-18,-39,12
-14,-39,17
-13,-40,19
-7,-43,21
-10,-44,25
-14,-63,35
-14,-88,45
-10,-82,59
-14,-61,68
-16,-58,61
-23,-54,41
-31,-47,45
-37,-44,50
-46,-40,60
-28,-34,69
-22,-35,59
-58,-29,43
-68,-22,36
-69,-9,28
-72,-9,26
-63,-6,28
-61,-4,21
-63,-4,16
-51,-1,21
-40,1,25
-30,7,27
-33,9,24
-23,12,32
-44,8,38
-43,0,45
-47,-12,44
-43,-7,51
-43,-2,47
-23,-6,52
-23,-7,65
-44,-4,80
-44,7,80
-28,18,66
-29,16,51
-30,17,52
-32,17,57
-32,16,58
-31,17,54
-32,17,51
-36,18,49
-34,15,53
-33,13,54
-32,10,53
-31,7,49
-36,2,47
-46,-2,44
-50,-1,38
-24,-6,22
-9,-10,21
-6,-16,14
-17,-25,16
-11,-36,9
-46,-87,9
-43,-106,22
-32,-116,51
-28,-110,70
-13,-94,57
0,-81,40
0,-80,37
-2,-80,32
-9,-78,28
-25,-68,23
-34,-60,27
-35,-56,30
-40,-47,32
-42,-45,31
-49,-46,32
-43,-53,33
-36,-58,33
-14,-66,33
-6,-67,31
-5,-69,21
-10,-82,18
-13,-88,26
-23,-85,37
-22,-81,37
-19,-92,24
-17,-88,16
-18,-78,13
-16,-64,10
-14,-58,10
-14,-44,10
-15,-40,10
-16,-34,11
-16,-32,14
-15,-33,16
-15,-37,19
-16,-40,20
-16,-47,21
-15,-54,23
-15,-59,24
-20,-70,26
-24,-74,28
-28,-75,32
-25,-74,24
-25,-75,20
-21,-76,18
-21,-75,17
-20,-73,14
-20,-76,13
-24,-63,24
-21,-55,31
-21,-60,28
-20,-64,28
-17,-59,30
-10,-51,29
-5,-49,29
-6,-50,28
-13,-55,22
-15,-60,20
-14,-68,21
-16,-73,21
-16,-73,20
-14,-72,17
-12,-72,15
-12,-69,11
-13,-58,9
-14,-51,10
-16,-43,10
-18,-42,11
-31,-45,20
-39,-46,23
-51,-56,17
-53,-65,13
-56,-71,14
-55,-69,10
-53,-59,8
-56,-46,3
-63,-36,0
-68,-30,-2
-65,-27,2
-64,-29,7
-58,-26,22
-58,-19,31
-66,-19,32
-72,-12,42
-70,-4,50
-54,15,58
-50,23,45
-45,26,38
-34,23,26
-33,20,21
-28,18,16
-22,19,13
-18,16,9
-15,8,10
-13,4,14
-14,-8,18
-13,-14,20
-15,-28,21
-22,-55,22
-26,-70,27
-47,-107,39
-49,-121,55
-22,-112,62
-17,-95,46
-13,-92,44
-7,-83,29
-36,-86,14
-45,-69,9
-32,-66,16
-23,-56,21
-17,-47,24
-15,-53,26
-18,-53,31
-24,-55,29
-39,-56,33
-28,-62,37
-23,-65,36
-13,-66,34
-14,-63,29
-16,-62,28
-19,-57,30
-23,-55,32
-30,-66,29
-37,-81,25
-53,-107,26
-53,-96,24
-49,-85,23
-53,-71,24
-60,-75,20
-79,-89,0
-82,-88,-10
-63,-85,-4
-39,-71,16
-27,-62,23
-19,-57,32
19,-37,2
58,-47,1
42,-25,9
24,-26,7
11,-30,3
6,-27,9
-13,-34,21
-40,-48,26
-44,-49,22
-23,-41,16
-18,-43,16
-15,-64,28
-26,-95,43
-31,-115,42
-30,-128,39
-30,-128,44
-22,-123,57
-28,-100,44
-42,-69,22
-44,-61,20
-44,-59,20
-40,-56,23
-34,-55,28
-22,-53,36
-18,-42,36
-19,-38,36
-22,-54,39
-22,-63,41
-30,-84,36
-20,-93,33
-10,-93,33
0,-83,28
1,-79,30
-2,-75,20
1,-70,34
1,-56,29
-16,-51,11
-25,-52,10
-29,-52,13
-32,-52,10
-29,-56,8
-30,-66,14
-34,-65,14
-40,-58,21
-36,-46,19
-37,-35,13
-35,-48,21
-34,-53,27
-25,-60,35
-14,-59,42
-6,-50,41
-15,-46,36
-24,-53,36
-34,-48,32
-32,-50,30
-29,-55,25
-34,-63,22
-28,-64,33
-33,-64,27
-38,-61,17
-39,-59,4
-43,-58,-3
-41,-50,-7
-35,-48,-6
-35,-50,-5
-13,-55,-3
-10,-67,-11
-26,-81,-22
-47,-76,-22
-53,-61,-18
-49,-38,-5
-49,-36,-3
-43,-46,-1
-36,-57,6
-28,-61,5
-33,-63,-2
-43,-58,0
-51,-53,9
-55,-57,13
-65,-72,17
-67,-82,-1
-69,-84,-6
-67,-84,-2
-66,-80,-3
-63,-80,-7
-60,-69,-18
-57,-58,-23
-55,-32,-37
-58,-19,-38
-67,-15,-41
-44,-17,-21
-54,-17,-47
-120,-35,59
-23,11,-8
-29,25,-18
-37,20,-2
-37,27,-4
-31,30,-10
-35,25,-13
-39,19,-13
-34,19,-8
-29,20,0
-32,15,8
-35,8,11
-31,-2,21
-27,-2,21
-21,-12,11
-26,-36,10
-32,-53,19
-19,-69,26
-29,-98,30
-33,-122,48
-27,-122,42
-27,-128,34
-28,-123,36
-28,-116,38
-31,-102,28
-28,-86,17
-27,-78,14
-34,-92,12
-38,-78,11
-48,-64,4
-48,-49,8
-49,-26,17
-53,-31,20
-54,-41,19
-48,-63,22
-39,-72,28
-18,-87,39
-7,-96,43
-6,-99,41
-9,-101,33
-9,-102,31
-18,-102,25
-16,-87,31
-19,-83,28
-18,-73,19
-16,-70,18
-15,-59,11
-16,-56,9
-15,-51,16
-10,-45,22
-9,-41,24
-2,-33,28
9,-34,33
2,-27,26
2,-38,28
0,-42,28
-2,-52,31
-3,-55,32
-8,-62,28
-21,-69,29
-25,-84,32
-31,-110,50
-29,-108,52
-25,-96,46
-11,-82,44
-12,-80,43
-19,-71,36
-24,-67,29
-33,-54,27
-32,-53,27
-31,-50,25
-29,-47,22
-29,-47,21
-34,-48,19
-27,-49,17
-32,-53,17
-18,-56,17
-19,-58,18
-27,-64,15
-13,-64,22
-8,-64,29
-11,-72,27
-17,-84,24
-12,-75,34
-7,-69,37
6,-58,32
13,-54,27
16,-58,29
13,-66,40
14,-67,44
15,-66,41
14,-68,36
11,-68,27
9,-62,28
2,-60,27
4,-55,36
6,-56,40
-1,-56,34
-3,-55,37
-6,-56,39
-15,-60,49
-19,-64,58
-21,-62,76
-17,-64,76
-16,-59,73
-22,-46,66
-24,-41,66
-30,-29,68
-28,-21,66
-20,-12,59
-18,-3,50
-23,3,44
-22,1,50
-13,5,44
-20,9,33
-9,5,35
0,6,36
4,6,32
1,5,33
2,10,37
-2,18,41
-19,21,42
-29,25,38
-37,19,40
-40,7,65
-47,4,75
-57,4,76
-57,7,82
-58,5,82
-56,6,81
-53,10,81
-47,14,76
-38,18,68
-35,19,63
-34,20,60
-31,19,59
-25,19,56
-18,20,56
-17,18,52
-14,19,48
-10,25,47
-16,21,52
-9,27,44
-10,32,40
-4,39,45
-11,36,46
-20,31,52
-23,30,43
-28,30,40
-24,31,53
-19,32,58
-13,36,55
-9,35,52
-14,32,48
-9,30,38
-8,28,38
-15,27,47
-3,23,57
-8,25,64
-14,32,73
-14,33,75
-9,32,74
-3,30,77
-5,8,74
-41,6,58
-32,5,60
-36,8,52
-37,12,45
-57,19,19
-36,20,54
-40,23,53
-63,19,22
-53,6,36
-51,16,51
-59,21,32
-63,22,13
-57,33,14
-66,34,0
1,30,43
-104,33,5
-63,25,13
-42,19,34
-31,17,46
-58,10,45
-49,6,49
-25,3,60
-30,17,59
-33,2,57
-33,6,45
-37,14,37
-26,19,54
-27,13,54
-29,17,55
-27,14,55
-12,19,63
-21,14,60
-28,9,61
-29,7,63
-35,10,55
-31,9,54
-29,12,58
-37,12,58
-32,9,59
-28,13,58
-30,11,58
-33,11,53
-32,11,53
-33,10,54
-31,10,54
-35,14,52
-39,12,51
-37,11,51
-36,12,52
-36,11,52
-36,12,55
-32,10,56
-32,12,53
-34,11,52
-36,11,54
-35,10,53
-36,12,54
-35,12,55
-34,12,55
-35,13,54
-32,12,53
-34,12,54
-34,11,55
-34,12,54
-34,13,54
-36,13,56
-33,13,54
-32,13,55
-34,12,54
