x	y	z	ts
1,306297	2,218091	-0,404170	2020-10-29T19:13:56:213
0,000260	-0,025625	-0,102421	2020-10-29T19:13:56:213
0,210829	0,024625	-0,265133	2020-10-29T19:13:56:213
-0,432512	-2,763087	1,031570	2020-10-29T19:13:56:214
-0,441122	-2,633745	1,000507	2020-10-29T19:13:56:214
-0,461488	-2,574388	1,008631	2020-10-29T19:13:56:217
-0,509828	-2,613961	0,914808	2020-10-29T19:13:56:245
0,002109	-0,058081	-0,208801	2020-10-29T19:13:56:261
-0,337672	-0,084403	0,130980	2020-10-29T19:13:56:279
-0,418400	-0,314021	-0,308284	2020-10-29T19:13:56:299
-0,156586	0,338724	-0,453475	2020-10-29T19:13:56:319
-0,070869	0,025714	-0,386610	2020-10-29T19:13:56:339
-0,200115	-0,578837	0,130300	2020-10-29T19:13:56:359
-0,099274	-1,286206	0,538547	2020-10-29T19:13:56:379
0,211531	-1,263142	0,366051	2020-10-29T19:13:56:399
0,341622	-0,975311	0,267638	2020-10-29T19:13:56:419
0,544504	-1,437845	0,425955	2020-10-29T19:13:56:438
0,843364	-2,443279	0,613855	2020-10-29T19:13:56:459
1,306183	-3,178147	0,349342	2020-10-29T19:13:56:479
1,362434	3,538732	-0,883904	2020-10-29T19:13:56:499
1,247010	1,062678	-0,012505	2020-10-29T19:13:56:519
1,157666	-0,640981	1,189518	2020-10-29T19:13:56:539
1,013980	-1,943365	0,492881	2020-10-29T19:13:56:559
0,657920	-1,834863	-0,321113	2020-10-29T19:13:56:579
0,688895	0,037014	-1,112507	2020-10-29T19:13:56:600
0,589864	1,075297	-0,913378	2020-10-29T19:13:56:619
0,279665	1,514962	-0,481537	2020-10-29T19:13:56:639
-0,254720	2,480719	0,045696	2020-10-29T19:13:56:659
-1,187548	4,065249	-0,134463	2020-10-29T19:13:56:679
-1,931406	5,538649	-0,896142	2020-10-29T19:13:56:699
-1,568389	4,451149	-1,277049	2020-10-29T19:13:56:719
-0,251702	2,706357	-1,394296	2020-10-29T19:13:56:739
0,427492	1,412104	-0,902604	2020-10-29T19:13:56:760
0,282685	0,535587	-0,483335	2020-10-29T19:13:56:779
-0,119800	0,858765	0,060251	2020-10-29T19:13:56:800
-0,019105	1,450619	-0,301353	2020-10-29T19:13:56:819
0,194005	1,640368	-0,210425	2020-10-29T19:13:56:840
0,081402	1,915859	-0,616189	2020-10-29T19:13:56:861
-0,289974	1,684338	-0,380409	2020-10-29T19:13:56:879
0,045557	1,957076	-0,265604	2020-10-29T19:13:56:899
0,069074	3,047793	-0,822098	2020-10-29T19:13:56:919
0,016044	3,096979	-0,396262	2020-10-29T19:13:56:940
-0,250265	2,969462	-0,630225	2020-10-29T19:13:56:960
-0,325736	2,532851	-0,672029	2020-10-29T19:13:56:979
-0,453950	2,637573	-0,148596	2020-10-29T19:13:57:000
-0,342027	3,275790	-0,001604	2020-10-29T19:13:57:019
0,104811	4,322139	0,143830	2020-10-29T19:13:57:040
0,302146	5,008079	-0,092045	2020-10-29T19:13:57:060
0,148104	5,042861	-0,375357	2020-10-29T19:13:57:081
0,069865	4,935775	-0,408693	2020-10-29T19:13:57:101
-0,294795	-3,425258	1,297292	2020-10-29T19:13:57:120
-0,334280	-3,013626	1,250340	2020-10-29T19:13:57:142
-0,125964	-2,549280	0,723131	2020-10-29T19:13:57:160
0,009542	-2,058702	0,468152	2020-10-29T19:13:57:180
0,072626	-1,761820	0,477006	2020-10-29T19:13:57:200
-0,083363	-1,591957	0,410859	2020-10-29T19:13:57:219
0,041182	-1,241396	0,327514	2020-10-29T19:13:57:240
0,142504	-1,117307	0,165681	2020-10-29T19:13:57:261
0,038833	-1,384670	0,228501	2020-10-29T19:13:57:280
0,044192	-1,323199	0,213511	2020-10-29T19:13:57:301
0,117487	-1,186682	0,090739	2020-10-29T19:13:57:320
0,017704	-0,907963	0,055678	2020-10-29T19:13:57:342
-0,102778	-0,834547	0,187915	2020-10-29T19:13:57:360
0,001930	-0,926679	0,053938	2020-10-29T19:13:57:381
0,086523	-0,824529	0,109261	2020-10-29T19:13:57:400
0,112173	-0,776024	0,100835	2020-10-29T19:13:57:421
-0,006584	-0,577559	0,042142	2020-10-29T19:13:57:441
-0,002930	-0,724200	-0,042113	2020-10-29T19:13:57:463
0,055702	-0,557668	-0,026271	2020-10-29T19:13:57:482
0,084363	-0,557265	-0,033278	2020-10-29T19:13:57:503
0,071009	-0,566607	0,039824	2020-10-29T19:13:57:522
0,023866	-0,616270	0,034685	2020-10-29T19:13:57:543
0,057386	-0,530480	0,027979	2020-10-29T19:13:57:563
0,004558	-0,514224	-0,066074	2020-10-29T19:13:57:584
0,039939	-0,335431	-0,124298	2020-10-29T19:13:57:602
0,077536	-0,302301	-0,093930	2020-10-29T19:13:57:623
0,075086	-0,240113	-0,094162	2020-10-29T19:13:57:643
0,004189	-0,043184	-0,179964	2020-10-29T19:13:57:666
0,068479	0,001153	-0,192193	2020-10-29T19:13:57:683
-0,000913	-0,089774	-0,113230	2020-10-29T19:13:57:703
0,004042	-0,034210	-0,141566	2020-10-29T19:13:57:723
0,012266	-0,078000	-0,043747	2020-10-29T19:13:57:744
0,036195	-0,190462	-0,134675	2020-10-29T19:13:57:762
0,028340	-0,041297	-0,188837	2020-10-29T19:13:57:783
0,003220	-0,036627	-0,168920	2020-10-29T19:13:57:803
-0,008485	0,070511	-0,204124	2020-10-29T19:13:57:826
-0,070698	0,017869	-0,146696	2020-10-29T19:13:57:842
-0,026441	-0,131034	-0,157049	2020-10-29T19:13:57:864
0,005408	-0,042041	-0,208298	2020-10-29T19:13:57:883
-0,035270	0,101528	-0,141299	2020-10-29T19:13:57:904
0,002640	-0,018440	-0,080399	2020-10-29T19:13:57:923
0,069639	-0,080653	-0,121077	2020-10-29T19:13:57:943
0,154911	-0,089915	-0,159621	2020-10-29T19:13:57:963
0,002179	-0,033627	-0,142677	2020-10-29T19:13:57:984
-0,083963	-0,033627	-0,161820	2020-10-29T19:13:58:002
0,041683	-0,110419	-0,146900	2020-10-29T19:13:58:024
0,069440	-0,196456	-0,140791	2020-10-29T19:13:58:043
0,001142	-0,013251	-0,062295	2020-10-29T19:13:58:068
-0,013215	-0,085035	-0,100580	2020-10-29T19:13:58:082
-0,125499	0,059192	-0,183673	2020-10-29T19:13:58:103
-0,091289	0,054446	-0,174918	2020-10-29T19:13:58:123
-0,117760	-0,075068	-0,207247	2020-10-29T19:13:58:144
0,002373	-0,025139	-0,115907	2020-10-29T19:13:58:163
-0,006923	-0,033113	-0,156961	2020-10-29T19:13:58:184
-0,011708	0,055422	-0,168926	2020-10-29T19:13:58:203
0,003952	-0,040082	-0,170101	2020-10-29T19:13:58:224
0,006345	0,029310	-0,119851	2020-10-29T19:13:58:243
-0,005902	-0,145720	-0,102831	2020-10-29T19:13:58:264
0,001043	-0,007853	-0,032317	2020-10-29T19:13:58:283
0,108511	-0,102125	-0,081841	2020-10-29T19:13:58:306
0,135987	-0,264931	-0,053712	2020-10-29T19:13:58:323
0,167094	-0,334323	-0,187710	2020-10-29T19:13:58:345
0,053486	-0,099743	-0,182579	2020-10-29T19:13:58:363
0,107045	-0,014813	-0,211727	2020-10-29T19:13:58:384
0,034541	0,143494	-0,195668	2020-10-29T19:13:58:403
-0,028930	0,169180	-0,209647	2020-10-29T19:13:58:424
-0,018366	0,100770	-0,196298	2020-10-29T19:13:58:443
0,050830	0,115718	-0,205819	2020-10-29T19:13:58:465
0,020939	0,059768	-0,208310	2020-10-29T19:13:58:482
-0,051726	0,044198	-0,009254	2020-10-29T19:13:58:504
0,037881	0,162571	-0,225107	2020-10-29T19:13:58:523
0,231628	0,043067	-0,356156	2020-10-29T19:13:58:545
0,274695	0,121964	-0,293227	2020-10-29T19:13:58:563
0,277717	0,134858	-0,106095	2020-10-29T19:13:58:584
0,019880	-0,054344	-0,026217	2020-10-29T19:13:58:603
-0,132924	-0,240551	-0,033406	2020-10-29T19:13:58:624
-0,200716	-0,368928	-0,024451	2020-10-29T19:13:58:643
-0,210586	-0,446193	-0,030480	2020-10-29T19:13:58:664
-0,142094	-0,348228	-0,016697	2020-10-29T19:13:58:683
-0,063910	-0,252859	-0,127895	2020-10-29T19:13:58:704
0,046794	-0,098755	-0,075116	2020-10-29T19:13:58:723
0,192123	0,027533	-0,190322	2020-10-29T19:13:58:745
0,252574	0,105978	-0,233493	2020-10-29T19:13:58:764
0,282892	0,195615	-0,285966	2020-10-29T19:13:58:785
0,311535	0,182821	-0,283332	2020-10-29T19:13:58:803
0,183040	0,268992	-0,223985	2020-10-29T19:13:58:825
-0,000891	-0,062122	-0,246386	2020-10-29T19:13:58:844
-0,072676	-0,093228	-0,196136	2020-10-29T19:13:58:865
-0,106436	1,836072	-0,345402	2020-10-29T19:13:58:883
-0,148281	1,352194	-0,170677	2020-10-29T19:13:58:905
-0,319763	0,805897	-0,094464	2020-10-29T19:13:58:923
0,004602	-0,017601	-0,094528	2020-10-29T19:13:58:945
0,054851	0,056576	-0,168706	2020-10-29T19:13:58:964
0,180896	0,032151	-0,190915	2020-10-29T19:13:58:985
0,201898	0,287201	-0,142431	2020-10-29T19:13:59:004
0,320198	0,329923	-0,201921	2020-10-29T19:13:59:026
0,494510	0,197682	-0,225436	2020-10-29T19:13:59:044
0,540617	0,183919	-0,166203	2020-10-29T19:13:59:065
0,649219	0,197893	-0,290240	2020-10-29T19:13:59:084
0,555253	0,293833	-0,233189	2020-10-29T19:13:59:105
0,348476	0,350770	-0,214531	2020-10-29T19:13:59:125
0,194754	0,317452	-0,241092	2020-10-29T19:13:59:145
0,006707	0,193813	-0,146037	2020-10-29T19:13:59:164
0,125213	0,055951	-0,280887	2020-10-29T19:13:59:185
0,177046	0,015934	-0,225535	2020-10-29T19:13:59:204
0,173934	0,019992	-0,150094	2020-10-29T19:13:59:225
0,260042	-0,144064	-0,103170	2020-10-29T19:13:59:244
0,296203	-0,109980	-0,171121	2020-10-29T19:13:59:267
0,340643	-0,016101	-0,237959	2020-10-29T19:13:59:284
0,299755	0,151659	-0,172592	2020-10-29T19:13:59:305
0,247898	0,165013	-0,151160	2020-10-29T19:13:59:324
0,243839	0,027556	-0,182275	2020-10-29T19:13:59:346
0,001393	-0,027274	-0,116862	2020-10-29T19:13:59:365
-0,103891	-0,182807	-0,100112	2020-10-29T19:13:59:385
-0,018428	-0,014242	-0,102844	2020-10-29T19:13:59:404
-0,039098	-0,123183	-0,126633	2020-10-29T19:13:59:426
0,057516	-0,171301	-0,063107	2020-10-29T19:13:59:444
0,042418	-0,076821	-0,134290	2020-10-29T19:13:59:465
0,082935	-0,070648	-0,146043	2020-10-29T19:13:59:484
0,082072	0,015204	-0,190275	2020-10-29T19:13:59:506
0,172526	0,011784	-0,134126	2020-10-29T19:13:59:524
0,046313	0,004943	-0,162290	2020-10-29T19:13:59:546
0,129839	0,000888	-0,223788	2020-10-29T19:13:59:564
0,077442	-0,045332	-0,062355	2020-10-29T19:13:59:585
0,026817	-0,246291	-0,130475	2020-10-29T19:13:59:604
0,056358	-0,257835	-0,112696	2020-10-29T19:13:59:625
0,073398	-0,218738	-0,152318	2020-10-29T19:13:59:644
0,095463	-0,056013	-0,139278	2020-10-29T19:13:59:666
0,127458	-0,074902	-0,174444	2020-10-29T19:13:59:684
0,040791	-0,113502	-0,108939	2020-10-29T19:13:59:706
0,036778	-0,160706	-0,030230	2020-10-29T19:13:59:725
0,096755	-0,081114	-0,114126	2020-10-29T19:13:59:747
0,082043	-0,180294	-0,107412	2020-10-29T19:13:59:765
0,051916	-0,120921	-0,203134	2020-10-29T19:13:59:786
0,133650	-0,140072	-0,081753	2020-10-29T19:13:59:804
0,065053	-0,251879	-0,033543	2020-10-29T19:13:59:826
-0,050149	-0,394676	-0,146689	2020-10-29T19:13:59:845
0,002476	-0,277796	-0,114404	2020-10-29T19:13:59:866
0,002490	-0,254558	-0,061840	2020-10-29T19:13:59:884
0,028119	-0,287666	-0,084778	2020-10-29T19:13:59:906
0,033069	-0,157117	-0,097760	2020-10-29T19:13:59:924
0,022718	-0,244462	-0,116753	2020-10-29T19:13:59:946
0,034886	-0,187037	-0,154023	2020-10-29T19:13:59:965
0,034741	-0,184305	-0,120351	2020-10-29T19:13:59:987
0,001150	-0,032229	-0,151180	2020-10-29T19:14:00:006
-0,013207	-0,115977	-0,112896	2020-10-29T19:14:00:026
-0,021591	-0,276742	-0,097879	2020-10-29T19:14:00:044
-0,018120	-0,334908	-0,116251	2020-10-29T19:14:00:066
0,025849	-0,319906	-0,101446	2020-10-29T19:14:00:085
-0,005930	-0,305207	-0,092770	2020-10-29T19:14:00:106
0,012217	-0,338349	-0,112757	2020-10-29T19:14:00:125
0,030805	-0,309219	-0,110545	2020-10-29T19:14:00:146
-0,020383	-0,313499	-0,068912	2020-10-29T19:14:00:165
0,033483	-0,349443	0,014894	2020-10-29T19:14:00:186
0,035090	-0,470851	-0,083421	2020-10-29T19:14:00:205
0,051701	-0,323201	-0,096292	2020-10-29T19:14:00:227
0,010136	-0,345205	-0,070444	2020-10-29T19:14:00:245
-0,008915	-0,358876	-0,101109	2020-10-29T19:14:00:267
0,061358	-0,368476	-0,029274	2020-10-29T19:14:00:285
0,051628	-0,437353	-0,003163	2020-10-29T19:14:00:307
0,068058	-0,450699	0,010945	2020-10-29T19:14:00:325
0,112041	-0,316730	-0,127852	2020-10-29T19:14:00:347
0,049267	-0,213022	-0,040335	2020-10-29T19:14:00:365
0,061996	-0,493086	-0,036222	2020-10-29T19:14:00:387
0,087406	-0,522534	-0,085708	2020-10-29T19:14:00:405
0,077535	-0,490442	-0,074021	2020-10-29T19:14:00:427
0,039620	-0,360196	-0,046796	2020-10-29T19:14:00:446
-0,057712	-0,415353	-0,077876	2020-10-29T19:14:00:468
-0,009629	-0,402086	-0,078097	2020-10-29T19:14:00:485
-0,030527	-0,446444	0,009024	2020-10-29T19:14:00:507
0,075960	-0,417420	-0,127300	2020-10-29T19:14:00:525
0,014469	-0,469263	-0,098804	2020-10-29T19:14:00:547
0,023694	-0,446910	-0,012771	2020-10-29T19:14:00:565
0,007517	-0,461137	-0,053976	2020-10-29T19:14:00:587
0,055116	-0,396274	-0,082635	2020-10-29T19:14:00:605
-0,000545	-0,434659	-0,044909	2020-10-29T19:14:00:627
0,041979	-0,342510	-0,015111	2020-10-29T19:14:00:645
-0,017245	-0,344248	-0,050009	2020-10-29T19:14:00:667
0,143317	-0,411305	-0,133595	2020-10-29T19:14:00:685
0,085807	-0,411383	-0,029148	2020-10-29T19:14:00:708
0,000823	-0,033078	-0,162430	2020-10-29T19:14:00:726
0,012787	-0,078542	-0,150467	2020-10-29T19:14:00:747
-0,001080	-0,452728	-0,031286	2020-10-29T19:14:00:765
-0,041853	-0,480348	-0,099213	2020-10-29T19:14:00:787
0,010962	-0,439247	-0,055637	2020-10-29T19:14:00:805
-0,013317	-0,447374	-0,050137	2020-10-29T19:14:00:827
-0,041501	-0,468827	-0,067458	2020-10-29T19:14:00:845
0,046681	-0,402644	-0,056409	2020-10-29T19:14:00:868
0,010563	-0,323455	-0,063902	2020-10-29T19:14:00:885
-0,001049	-0,392306	0,012947	2020-10-29T19:14:00:907
0,082910	-0,485387	-0,133088	2020-10-29T19:14:00:925
0,047195	-0,454918	-0,041997	2020-10-29T19:14:00:951
0,000760	-0,021631	-0,104064	2020-10-29T19:14:00:966
-0,020775	-0,026417	-0,108850	2020-10-29T19:14:00:987
0,000344	-0,037149	-0,193548	2020-10-29T19:14:01:006
-0,018799	0,039421	-0,162441	2020-10-29T19:14:01:028
-0,014944	-0,192031	-0,113288	2020-10-29T19:14:01:045
-0,081252	-0,236284	-0,126612	2020-10-29T19:14:01:067
-0,046093	-0,215647	-0,128489	2020-10-29T19:14:01:086
0,006609	-0,232820	-0,064992	2020-10-29T19:14:01:107
-0,019390	-0,356515	-0,033317	2020-10-29T19:14:01:125
-0,059040	-0,408653	-0,069603	2020-10-29T19:14:01:148
-0,058574	-0,408152	-0,073911	2020-10-29T19:14:01:166
-0,002797	-0,222159	-0,028387	2020-10-29T19:14:01:188
-0,001872	-0,359210	-0,110058	2020-10-29T19:14:01:206
0,049652	-0,486801	-0,038887	2020-10-29T19:14:01:228
0,004046	-0,496617	0,004816	2020-10-29T19:14:01:246
-0,012804	-0,483996	0,002290	2020-10-29T19:14:01:268
-0,007475	-0,507889	-0,072475	2020-10-29T19:14:01:286
-0,011247	-0,557536	-0,008575	2020-10-29T19:14:01:307
-0,034635	-0,598335	-0,007333	2020-10-29T19:14:01:326
0,053878	-0,479211	-0,062807	2020-10-29T19:14:01:348
0,042268	-0,518199	-0,101414	2020-10-29T19:14:01:366
0,002377	-0,513275	-0,052786	2020-10-29T19:14:01:388
-0,085816	-0,529167	-0,045099	2020-10-29T19:14:01:406
0,024130	-0,451467	-0,001858	2020-10-29T19:14:01:429
0,009048	-0,480933	-0,021882	2020-10-29T19:14:01:445
0,037538	-0,546642	-0,035314	2020-10-29T19:14:01:468
0,064132	-0,590940	-0,070266	2020-10-29T19:14:01:486
0,075318	-0,572786	-0,007714	2020-10-29T19:14:01:508
0,014222	-0,620736	-0,027261	2020-10-29T19:14:01:526
0,045083	-0,521515	-0,044905	2020-10-29T19:14:01:548
0,040616	-0,600657	-0,092595	2020-10-29T19:14:01:566
0,062834	-0,573739	-0,041237	2020-10-29T19:14:01:588
0,001724	-0,031148	-0,158545	2020-10-29T19:14:01:606
0,063937	-0,035933	-0,165724	2020-10-29T19:14:01:628
-0,003845	-0,175617	-0,143323	2020-10-29T19:14:01:646
-0,022251	-0,161658	-0,097242	2020-10-29T19:14:01:669
0,008673	-0,238873	-0,057123	2020-10-29T19:14:01:686
0,044971	-0,325446	-0,068318	2020-10-29T19:14:01:708
0,057533	-0,329460	-0,161659	2020-10-29T19:14:01:726
0,034851	-0,286349	-0,044518	2020-10-29T19:14:01:748
-0,057208	-0,286954	-0,043203	2020-10-29T19:14:01:766
0,019107	-0,452729	0,068129	2020-10-29T19:14:01:788
0,058993	-0,401003	-0,051908	2020-10-29T19:14:01:806
-0,025527	-0,426615	-0,066533	2020-10-29T19:14:01:828
0,030275	-0,395291	-0,047992	2020-10-29T19:14:01:846
0,077495	-0,403077	-0,046637	2020-10-29T19:14:01:868
0,044834	-0,390681	-0,094020	2020-10-29T19:14:01:886
0,053152	-0,397203	-0,153380	2020-10-29T19:14:01:909
0,075931	-0,386742	-0,111125	2020-10-29T19:14:01:926
0,127416	-0,292180	-0,058856	2020-10-29T19:14:01:948
0,046776	-0,407519	-0,009209	2020-10-29T19:14:01:967
0,056994	-0,468662	0,009058	2020-10-29T19:14:01:988
0,065744	-0,467911	-0,133497	2020-10-29T19:14:02:007
0,006958	-0,420966	-0,141057	2020-10-29T19:14:02:028
0,057481	-0,341109	-0,071262	2020-10-29T19:14:02:047
0,055596	-0,438326	-0,025461	2020-10-29T19:14:02:068
0,115118	-0,535070	-0,078451	2020-10-29T19:14:02:087
0,095325	-0,495013	-0,101034	2020-10-29T19:14:02:108
0,124815	-0,469356	0,006916	2020-10-29T19:14:02:126
0,076617	-0,490902	-0,022038	2020-10-29T19:14:02:149
0,080791	-0,614306	-0,011251	2020-10-29T19:14:02:169
0,040586	-0,546426	0,025018	2020-10-29T19:14:02:188
-0,025870	-0,581322	-0,082413	2020-10-29T19:14:02:206
0,050040	-0,593381	-0,034807	2020-10-29T19:14:02:230
0,038054	-0,575090	-0,054436	2020-10-29T19:14:02:247
0,078728	-0,616970	-0,081203	2020-10-29T19:14:02:270
0,004877	-0,570270	-0,069580	2020-10-29T19:14:02:286
0,030879	-0,570598	-0,068350	2020-10-29T19:14:02:310
0,101502	-0,506602	-0,040075	2020-10-29T19:14:02:326
0,109061	-0,518752	-0,083570	2020-10-29T19:14:02:351
0,000402	-0,028038	-0,132295	2020-10-29T19:14:02:367
-0,110062	-0,094429	-0,136604	2020-10-29T19:14:02:391
-0,033492	-0,271498	-0,112676	2020-10-29T19:14:02:406
0,074650	-0,615689	0,023189	2020-10-29T19:14:02:430
-0,046375	-0,733537	0,091716	2020-10-29T19:14:02:446
0,046676	-0,809289	0,017828	2020-10-29T19:14:02:471
0,062274	-0,837036	0,004148	2020-10-29T19:14:02:487
0,049380	-0,648801	0,013600	2020-10-29T19:14:02:510
-0,052947	-0,599675	-0,010114	2020-10-29T19:14:02:527
0,004572	-0,643513	-0,024882	2020-10-29T19:14:02:549
-0,010220	-0,612632	-0,045377	2020-10-29T19:14:02:567
0,063581	-0,568823	-0,003927	2020-10-29T19:14:02:590
0,090910	-0,585029	-0,028006	2020-10-29T19:14:02:607
0,038260	-0,673324	-0,002236	2020-10-29T19:14:02:630
0,000042	-0,031512	-0,165817	2020-10-29T19:14:02:647
-0,054993	0,030701	-0,189745	2020-10-29T19:14:02:670
0,024591	-0,928513	0,075246	2020-10-29T19:14:02:687
-0,047808	-0,982324	0,061153	2020-10-29T19:14:02:710
-0,040481	-0,827851	0,001008	2020-10-29T19:14:02:727
-0,071598	-0,720307	0,035372	2020-10-29T19:14:02:750
-0,021469	-0,748238	-0,011995	2020-10-29T19:14:02:767
-0,005609	-0,734277	0,104921	2020-10-29T19:14:02:789
0,065996	-0,771954	0,020857	2020-10-29T19:14:02:807
0,009511	-0,794519	0,023258	2020-10-29T19:14:02:830
-0,005714	-0,675498	0,011378	2020-10-29T19:14:02:847
0,002358	-0,660085	0,022778	2020-10-29T19:14:02:870
0,000601	-0,023905	-0,132814	2020-10-29T19:14:02:887
0,031708	0,062236	-0,180671	2020-10-29T19:14:02:910
-0,029765	-0,139423	-0,118716	2020-10-29T19:14:02:927
-0,018105	-0,125138	-0,092191	2020-10-29T19:14:02:950
-0,000235	-0,203053	-0,124700	2020-10-29T19:14:02:967
-0,018046	-0,180637	-0,148805	2020-10-29T19:14:02:990
-0,048717	-0,283591	-0,096012	2020-10-29T19:14:03:007
0,012850	-0,259264	-0,062190	2020-10-29T19:14:03:029
-0,000558	-0,250027	-0,078865	2020-10-29T19:14:03:047
-0,063078	-0,228653	-0,092169	2020-10-29T19:14:03:075
0,047249	-0,277260	-0,117912	2020-10-29T19:14:03:087
0,041024	-0,248992	-0,107864	2020-10-29T19:14:03:110
0,055133	-0,286969	-0,121790	2020-10-29T19:14:03:127
0,073593	-0,227210	-0,091065	2020-10-29T19:14:03:150
0,072055	-0,367007	-0,078775	2020-10-29T19:14:03:167
0,034219	-0,344579	-0,118644	2020-10-29T19:14:03:189
-0,017810	-0,201427	-0,086431	2020-10-29T19:14:03:207
-0,006470	-0,298556	-0,026128	2020-10-29T19:14:03:230
0,007350	-0,509848	-0,005083	2020-10-29T19:14:03:248
0,096152	-0,444360	-0,033599	2020-10-29T19:14:03:270
0,039915	-0,422651	0,022889	2020-10-29T19:14:03:287
-0,053615	-0,375819	-0,064921	2020-10-29T19:14:03:310
0,006237	-0,362747	-0,075330	2020-10-29T19:14:03:327
0,004705	-0,417450	-0,107615	2020-10-29T19:14:03:352
-0,033703	-0,407242	-0,043864	2020-10-29T19:14:03:368
0,038280	-0,365856	-0,142175	2020-10-29T19:14:03:391
0,009549	-0,310953	-0,196223	2020-10-29T19:14:03:407
0,087847	-0,193877	-0,209570	2020-10-29T19:14:03:429
-0,000247	-0,017355	-0,098486	2020-10-29T19:14:03:448
0,035646	-0,132211	-0,206162	2020-10-29T19:14:03:471
-0,100849	0,891890	-0,052947	2020-10-29T19:14:03:487
-0,045208	0,983095	-0,219879	2020-10-29T19:14:03:510
-0,107850	1,214964	-0,327873	2020-10-29T19:14:03:528
-0,040047	1,731871	-0,244859	2020-10-29T19:14:03:551
0,019995	2,173401	-0,284379	2020-10-29T19:14:03:568
0,013651	2,282683	-0,245495	2020-10-29T19:14:03:591
-0,038587	2,394594	-0,302880	2020-10-29T19:14:03:608
-0,012629	2,864511	-0,236143	2020-10-29T19:14:03:631
-0,019181	3,535493	-0,076154	2020-10-29T19:14:03:648
-0,096596	4,123269	0,080149	2020-10-29T19:14:03:670
0,004174	-3,212517	0,979354	2020-10-29T19:14:03:688
0,062091	-2,801739	0,809535	2020-10-29T19:14:03:711
-0,007407	-3,045252	0,895123	2020-10-29T19:14:03:728
0,020417	-2,694398	0,729693	2020-10-29T19:14:03:750
0,002642	-2,631470	0,694489	2020-10-29T19:14:03:768
0,024345	-2,373853	0,567029	2020-10-29T19:14:03:791
0,008463	-2,391167	0,571012	2020-10-29T19:14:03:808
-0,015133	-2,161180	0,439255	2020-10-29T19:14:03:831
0,053887	-1,912355	0,419159	2020-10-29T19:14:03:848
0,036223	-2,068548	0,426948	2020-10-29T19:14:03:871
0,044248	-2,014755	0,398671	2020-10-29T19:14:03:889
0,041769	-2,013572	0,421587	2020-10-29T19:14:03:910
0,042104	-2,020189	0,365390	2020-10-29T19:14:03:928
-0,012245	-2,095684	0,412450	2020-10-29T19:14:03:951
0,009336	-1,847910	0,283573	2020-10-29T19:14:03:968
0,012833	-1,890183	0,428902	2020-10-29T19:14:03:990
0,014090	-1,761329	0,342570	2020-10-29T19:14:04:008
0,005046	-1,769139	0,269737	2020-10-29T19:14:04:031
-0,022496	-1,627524	0,273882	2020-10-29T19:14:04:049
-0,046292	-1,508361	0,182129	2020-10-29T19:14:04:072
-0,000038	-0,024876	-0,151888	2020-10-29T19:14:04:089
-0,059859	0,058873	-0,115996	2020-10-29T19:14:04:112
0,004211	-1,002109	0,035524	2020-10-29T19:14:04:128
-0,036063	-1,050655	0,092586	2020-10-29T19:14:04:151
0,007068	-0,926582	0,116551	2020-10-29T19:14:04:169
-0,033613	-1,025028	0,053790	2020-10-29T19:14:04:191
0,081667	-1,010308	0,077913	2020-10-29T19:14:04:208
0,029600	-1,204805	0,152830	2020-10-29T19:14:04:231
0,046991	-1,086765	0,158813	2020-10-29T19:14:04:249
0,027718	-1,089272	0,079140	2020-10-29T19:14:04:272
-0,062191	-1,124274	0,138223	2020-10-29T19:14:04:288
0,030468	-0,999833	0,082723	2020-10-29T19:14:04:311
0,055350	-0,952368	0,041418	2020-10-29T19:14:04:329
0,063690	-1,000372	0,064754	2020-10-29T19:14:04:352
0,010667	-1,032539	0,067577	2020-10-29T19:14:04:369
-0,036779	-0,981802	0,039868	2020-10-29T19:14:04:391
0,089992	-0,976192	0,022105	2020-10-29T19:14:04:409
0,090350	-1,050035	0,049014	2020-10-29T19:14:04:431
0,059884	-1,126157	0,133483	2020-10-29T19:14:04:448
0,095748	-1,278173	0,139823	2020-10-29T19:14:04:471
0,060279	-1,418454	0,145415	2020-10-29T19:14:04:489
-0,035923	-1,436230	0,133411	2020-10-29T19:14:04:512
-0,016172	-1,353684	0,180945	2020-10-29T19:14:04:529
0,050329	-1,292396	0,132257	2020-10-29T19:14:04:552
0,005291	-1,274805	0,119874	2020-10-29T19:14:04:569
0,067212	-1,108887	0,126202	2020-10-29T19:14:04:592
0,020738	-1,189558	0,118859	2020-10-29T19:14:04:609
0,017518	-1,099419	0,122480	2020-10-29T19:14:04:631
0,026551	-1,007688	0,068011	2020-10-29T19:14:04:649
-0,020036	-1,074655	0,108121	2020-10-29T19:14:04:672
0,093335	-1,025261	0,074408	2020-10-29T19:14:04:689
0,068572	-1,031914	0,055202	2020-10-29T19:14:04:711
0,093726	-1,013622	0,109815	2020-10-29T19:14:04:729
0,070230	-1,171324	0,138940	2020-10-29T19:14:04:752
-0,001962	-1,152957	0,126219	2020-10-29T19:14:04:769
0,132685	-1,203322	0,110499	2020-10-29T19:14:04:794
0,070743	-1,327916	0,195010	2020-10-29T19:14:04:809
0,036849	-1,343447	0,170804	2020-10-29T19:14:04:832
0,062148	-1,393736	0,145572	2020-10-29T19:14:04:849
0,039709	-1,424260	0,183647	2020-10-29T19:14:04:872
0,050033	-1,333257	0,194058	2020-10-29T19:14:04:889
0,059854	-1,387834	0,223305	2020-10-29T19:14:04:912
0,054693	-1,591071	0,183188	2020-10-29T19:14:04:929
0,068549	-1,458076	0,258018	2020-10-29T19:14:04:952
0,045862	-1,486157	0,270447	2020-10-29T19:14:04:969
-0,016184	-1,440225	0,165650	2020-10-29T19:14:04:992
0,000516	-0,021195	-0,137390	2020-10-29T19:14:05:010
0,064800	0,014978	-0,066189	2020-10-29T19:14:05:034
-0,038092	0,019763	-0,145151	2020-10-29T19:14:05:049
0,124499	-0,439230	-0,070055	2020-10-29T19:14:05:072
0,020075	-0,428985	-0,037701	2020-10-29T19:14:05:090
0,045517	-0,457500	-0,075003	2020-10-29T19:14:05:112
0,042123	-0,434008	-0,071678	2020-10-29T19:14:05:132
0,036029	-0,499071	-0,069101	2020-10-29T19:14:05:152
0,037309	-0,497492	-0,028158	2020-10-29T19:14:05:170
0,031169	-0,612975	-0,066624	2020-10-29T19:14:05:192
0,011491	-0,648507	-0,004158	2020-10-29T19:14:05:209
0,047970	-0,707239	-0,017336	2020-10-29T19:14:05:232
0,064962	-0,666962	-0,017655	2020-10-29T19:14:05:250
0,073836	-0,668746	-0,026803	2020-10-29T19:14:05:273
-0,015431	-0,746097	0,013946	2020-10-29T19:14:05:289
0,088807	-0,757353	-0,012842	2020-10-29T19:14:05:312
0,010166	-0,752240	0,039176	2020-10-29T19:14:05:329
0,000141	-0,023155	-0,140234	2020-10-29T19:14:05:353
-0,021395	-0,071012	-0,135448	2020-10-29T19:14:05:370
-0,059575	-1,146926	0,157062	2020-10-29T19:14:05:393
0,025130	-0,988377	0,053014	2020-10-29T19:14:05:410
0,034355	-1,011824	0,085030	2020-10-29T19:14:05:432
-0,000204	-1,096359	0,153912	2020-10-29T19:14:05:449
0,023837	-1,120913	0,142173	2020-10-29T19:14:05:473
-0,001538	-1,179861	0,124821	2020-10-29T19:14:05:490
0,026869	-1,043460	0,052127	2020-10-29T19:14:05:513
0,076337	-0,969520	0,042474	2020-10-29T19:14:05:530
0,001254	-1,154572	0,065353	2020-10-29T19:14:05:553
-0,032160	-1,172280	0,077608	2020-10-29T19:14:05:570
0,060715	-1,012681	0,074460	2020-10-29T19:14:05:592
0,023969	-0,997044	0,057768	2020-10-29T19:14:05:610
-0,040793	-1,076080	0,070926	2020-10-29T19:14:05:633
0,102509	-1,016909	0,091557	2020-10-29T19:14:05:650
0,044542	-1,058943	0,055808	2020-10-29T19:14:05:672
0,057079	-1,055661	0,065200	2020-10-29T19:14:05:690
0,013822	-1,192682	0,195912	2020-10-29T19:14:05:713
0,094439	-1,219640	0,181054	2020-10-29T19:14:05:730
0,002795	-1,266733	0,063968	2020-10-29T19:14:05:754
-0,012405	-1,047243	0,033669	2020-10-29T19:14:05:770
-0,068707	-0,873869	0,077960	2020-10-29T19:14:05:793
0,050234	-0,897714	0,029908	2020-10-29T19:14:05:810
0,118977	-0,964803	-0,056874	2020-10-29T19:14:05:832
0,041506	-1,119079	0,154432	2020-10-29T19:14:05:850
0,021290	-1,168086	0,132417	2020-10-29T19:14:05:873
-0,012472	-1,203243	0,108290	2020-10-29T19:14:05:890
0,072709	-0,949644	0,036309	2020-10-29T19:14:05:912
0,026422	-1,056152	0,119542	2020-10-29T19:14:05:930
0,004704	-1,108516	0,123270	2020-10-29T19:14:05:953
0,005040	-1,031735	0,090915	2020-10-29T19:14:05:970
-0,000501	-0,024175	-0,142366	2020-10-29T19:14:05:995
-0,000501	-0,016996	-0,123224	2020-10-29T19:14:06:009
-0,027267	0,578431	-0,213275	2020-10-29T19:14:06:033
-0,037790	0,668993	-0,228586	2020-10-29T19:14:06:050
-0,004699	0,795189	-0,269400	2020-10-29T19:14:06:073
-0,096705	0,959867	-0,232297	2020-10-29T19:14:06:090
-0,014365	1,244757	-0,252647	2020-10-29T19:14:06:114
0,001714	1,314912	-0,271080	2020-10-29T19:14:06:130
-0,008280	1,529017	-0,213341	2020-10-29T19:14:06:153
0,074286	1,803214	-0,188870	2020-10-29T19:14:06:170
-0,004524	1,660652	-0,311764	2020-10-29T19:14:06:193
-0,001290	1,824924	-0,284198	2020-10-29T19:14:06:210
0,012983	2,120735	-0,278046	2020-10-29T19:14:06:235
-0,056920	2,343221	-0,294203	2020-10-29T19:14:06:250
-0,044339	3,056834	-0,166820	2020-10-29T19:14:06:274
-0,042454	3,773859	-0,104502	2020-10-29T19:14:06:290
-0,000032	4,455226	0,132220	2020-10-29T19:14:06:312
-0,050894	4,794731	0,252664	2020-10-29T19:14:06:330
-0,045438	-3,209335	1,080314	2020-10-29T19:14:06:354
-0,025205	-2,749865	0,751514	2020-10-29T19:14:06:371
0,035304	-2,470782	0,537287	2020-10-29T19:14:06:393
-0,019493	-2,391230	0,515506	2020-10-29T19:14:06:411
-0,017121	-2,029338	0,406959	2020-10-29T19:14:06:434
0,014070	-1,833529	0,441975	2020-10-29T19:14:06:450
-0,057400	-1,816430	0,338853	2020-10-29T19:14:06:474
0,054248	-1,487772	0,246514	2020-10-29T19:14:06:490
0,010845	-1,504981	0,275455	2020-10-29T19:14:06:514
0,035353	-1,412556	0,275628	2020-10-29T19:14:06:531
0,039224	-1,527459	0,271686	2020-10-29T19:14:06:553
0,039692	-1,447266	0,186912	2020-10-29T19:14:06:571
0,028134	-1,334351	0,177605	2020-10-29T19:14:06:593
0,087391	-1,356254	0,201300	2020-10-29T19:14:06:611
-0,026699	-1,466295	0,206075	2020-10-29T19:14:06:633
0,094881	-1,236491	0,160188	2020-10-29T19:14:06:651
0,090472	-1,306079	0,161770	2020-10-29T19:14:06:674
0,028879	-1,355393	0,196362	2020-10-29T19:14:06:691
0,051817	-1,408209	0,219249	2020-10-29T19:14:06:715
0,001394	-1,303256	0,180527	2020-10-29T19:14:06:731
0,006410	-1,312339	0,153522	2020-10-29T19:14:06:754
-0,000553	-1,123487	0,181657	2020-10-29T19:14:06:771
0,035719	-1,032545	0,124415	2020-10-29T19:14:06:793
0,063472	-1,096420	0,086246	2020-10-29T19:14:06:811
0,075204	-1,109149	0,137790	2020-10-29T19:14:06:834
0,028483	-1,191311	0,076599	2020-10-29T19:14:06:851
0,049127	-1,120969	0,118543	2020-10-29T19:14:06:873
0,059098	-1,079125	0,108964	2020-10-29T19:14:06:891
0,114290	-1,075736	0,062570	2020-10-29T19:14:06:913
0,020474	-1,163683	0,181991	2020-10-29T19:14:06:931
0,034153	-1,174909	0,126958	2020-10-29T19:14:06:954
0,053831	-1,123938	0,047247	2020-10-29T19:14:06:971
0,058394	-1,082257	0,076000	2020-10-29T19:14:06:993
0,020065	-0,998677	0,063754	2020-10-29T19:14:07:011
-0,027893	-0,970022	0,097618	2020-10-29T19:14:07:033
0,012238	-0,984260	0,079190	2020-10-29T19:14:07:052
0,030585	-0,995056	0,022068	2020-10-29T19:14:07:073
0,064964	-0,892686	0,026930	2020-10-29T19:14:07:094
0,057447	-0,819839	0,053769	2020-10-29T19:14:07:118
0,083923	-0,893970	0,059364	2020-10-29T19:14:07:136
0,106199	-0,911721	0,038032	2020-10-29T19:14:07:155
-0,006726	-1,039857	0,112021	2020-10-29T19:14:07:174
0,111050	-0,992612	0,042484	2020-10-29T19:14:07:196
0,081435	-0,908042	0,068624	2020-10-29T19:14:07:211
0,079663	-0,890094	0,015404	2020-10-29T19:14:07:233
0,042860	-0,897739	0,091311	2020-10-29T19:14:07:251
0,048531	-1,069757	0,084419	2020-10-29T19:14:07:273
0,036257	-1,105958	0,141920	2020-10-29T19:14:07:291
0,032398	-1,044368	0,059775	2020-10-29T19:14:07:313
0,007237	-0,974240	0,083298	2020-10-29T19:14:07:331
-0,013889	-0,934151	0,053738	2020-10-29T19:14:07:353
0,037516	-0,870173	0,006593	2020-10-29T19:14:07:372
0,120005	-0,847608	0,018764	2020-10-29T19:14:07:393
0,138413	-0,964485	0,038952	2020-10-29T19:14:07:412
0,041017	-0,989329	0,122995	2020-10-29T19:14:07:434
0,082849	-1,015392	0,051149	2020-10-29T19:14:07:451
0,074018	-1,069675	0,086116	2020-10-29T19:14:07:473
0,027117	-1,087900	0,094757	2020-10-29T19:14:07:491
0,019457	-0,988310	0,107988	2020-10-29T19:14:07:513
0,000963	-0,031004	-0,181807	2020-10-29T19:14:07:532
0,035703	-0,009450	-0,192663	2020-10-29T19:14:07:554
0,040488	-0,028593	-0,142414	2020-10-29T19:14:07:572
0,086750	-0,408648	-0,047179	2020-10-29T19:14:07:593
0,006105	-0,514315	-0,069497	2020-10-29T19:14:07:612
0,051381	-0,518185	-0,077323	2020-10-29T19:14:07:633
0,036898	-0,539186	-0,050248	2020-10-29T19:14:07:653
0,044947	-0,545160	-0,014099	2020-10-29T19:14:07:675
-0,004727	-0,634944	-0,015525	2020-10-29T19:14:07:692
0,031297	-0,640310	0,021756	2020-10-29T19:14:07:713
0,066176	-0,672853	-0,040893	2020-10-29T19:14:07:732
0,015574	-0,743708	-0,014180	2020-10-29T19:14:07:754
0,027313	-0,660875	-0,000087	2020-10-29T19:14:07:772
0,052625	-0,760962	0,093361	2020-10-29T19:14:07:793
0,086113	-0,856377	-0,007903	2020-10-29T19:14:07:812
0,019822	-0,931246	0,072227	2020-10-29T19:14:07:833
0,016709	-0,868642	0,081702	2020-10-29T19:14:07:852
0,019049	-0,967599	0,066093	2020-10-29T19:14:07:874
0,015840	-0,977164	0,010177	2020-10-29T19:14:07:892
0,055581	-0,822135	0,044482	2020-10-29T19:14:07:915
0,010076	-0,855432	0,169996	2020-10-29T19:14:07:932
0,024491	-0,943343	0,059772	2020-10-29T19:14:07:954
0,093111	-0,973444	0,089952	2020-10-29T19:14:07:972
0,021511	-0,942466	0,062912	2020-10-29T19:14:07:994
0,021199	-0,956624	0,100126	2020-10-29T19:14:08:012
0,037132	-0,943122	0,044336	2020-10-29T19:14:08:034
0,114240	-0,978211	0,068041	2020-10-29T19:14:08:052
0,032492	-1,131862	0,139097	2020-10-29T19:14:08:075
0,060142	-1,108109	0,068348	2020-10-29T19:14:08:092
0,038212	-1,087115	0,094529	2020-10-29T19:14:08:114
0,043723	-1,036156	0,140503	2020-10-29T19:14:08:132
0,019959	-1,073486	0,084946	2020-10-29T19:14:08:155
0,000287	-0,033389	-0,189558	2020-10-29T19:14:08:173
-0,047569	0,021646	-0,115380	2020-10-29T19:14:08:194
0,066980	-0,629896	0,050603	2020-10-29T19:14:08:212
0,071315	-0,775897	0,004152	2020-10-29T19:14:08:234
-0,013525	-0,825414	0,112497	2020-10-29T19:14:08:252
0,004673	-0,748323	0,057204	2020-10-29T19:14:08:274
0,057715	-0,846654	0,055669	2020-10-29T19:14:08:292
0,016673	-0,871316	0,032174	2020-10-29T19:14:08:314
-0,015009	-0,833525	0,072998	2020-10-29T19:14:08:332
0,026605	-0,913915	0,059599	2020-10-29T19:14:08:355
0,000701	-0,028543	-0,163713	2020-10-29T19:14:08:373
-0,025620	-0,042901	-0,161321	2020-10-29T19:14:08:395
-0,005187	-0,270128	-0,087465	2020-10-29T19:14:08:413
0,062745	-0,310457	-0,129395	2020-10-29T19:14:08:434
-0,046139	-0,334948	-0,105095	2020-10-29T19:14:08:452
0,073936	-0,227386	-0,146573	2020-10-29T19:14:08:475
0,057418	-0,308507	-0,085299	2020-10-29T19:14:08:493
-0,016410	-0,487164	-0,006516	2020-10-29T19:14:08:514
-0,016757	-0,525881	-0,006620	2020-10-29T19:14:08:533
0,077774	-0,591057	-0,099004	2020-10-29T19:14:08:554
0,053625	-0,503059	-0,111646	2020-10-29T19:14:08:573
-0,068802	-0,431632	-0,071879	2020-10-29T19:14:08:594
0,059649	-0,375911	-0,035864	2020-10-29T19:14:08:613
0,078335	-0,542941	-0,085012	2020-10-29T19:14:08:635
0,078995	-0,540767	-0,044677	2020-10-29T19:14:08:653
0,055534	-0,553855	-0,011268	2020-10-29T19:14:08:675
0,031865	-0,553744	-0,036210	2020-10-29T19:14:08:692
0,023285	-0,515724	-0,094256	2020-10-29T19:14:08:715
-0,050009	-0,604943	-0,059330	2020-10-29T19:14:08:733
0,043433	-0,493507	-0,068590	2020-10-29T19:14:08:755
-0,003407	-0,588793	0,029112	2020-10-29T19:14:08:773
0,114458	-0,550571	-0,063292	2020-10-29T19:14:08:795
0,055609	-0,612777	-0,040980	2020-10-29T19:14:08:813
0,082251	-0,675543	-0,003956	2020-10-29T19:14:08:835
0,068933	-0,604252	-0,034039	2020-10-29T19:14:08:853
0,103928	-0,673914	0,017327	2020-10-29T19:14:08:876
0,001517	-0,020531	-0,116277	2020-10-29T19:14:08:893
0,042195	-0,068388	-0,178491	2020-10-29T19:14:08:915
0,066722	-0,126237	-0,180564	2020-10-29T19:14:08:933
0,061214	-0,120801	-0,118112	2020-10-29T19:14:08:955
0,092533	-0,157306	-0,104694	2020-10-29T19:14:08:973
0,076709	-0,290818	-0,067546	2020-10-29T19:14:08:995
0,065897	-0,245303	-0,111140	2020-10-29T19:14:09:013
0,079562	-0,175201	-0,058658	2020-10-29T19:14:09:035
0,095267	-0,171112	-0,143220	2020-10-29T19:14:09:053
0,079651	-0,204639	-0,094805	2020-10-29T19:14:09:075
0,000215	-0,012571	-0,071858	2020-10-29T19:14:09:094
-0,011749	-0,089142	-0,138857	2020-10-29T19:14:09:117
0,042038	-0,316601	-0,084696	2020-10-29T19:14:09:133
-0,055141	-0,345512	-0,034926	2020-10-29T19:14:09:155
0,032155	-0,370418	-0,097491	2020-10-29T19:14:09:173
0,042818	-0,455852	-0,123430	2020-10-29T19:14:09:195
0,026461	-0,547128	0,007917	2020-10-29T19:14:09:213
0,027754	-0,670310	-0,009109	2020-10-29T19:14:09:235
0,040725	-0,540228	0,002342	2020-10-29T19:14:09:253
-0,046974	-0,562648	-0,054809	2020-10-29T19:14:09:275
0,091832	-0,536857	-0,048943	2020-10-29T19:14:09:293
-0,043791	-0,638551	-0,007487	2020-10-29T19:14:09:315
-0,010559	-0,624455	-0,036959	2020-10-29T19:14:09:333
0,066481	-0,601840	-0,105797	2020-10-29T19:14:09:356
0,000417	-0,007619	-0,044135	2020-10-29T19:14:09:374
0,100916	-0,031547	-0,118313	2020-10-29T19:14:09:395
0,066170	-0,241399	-0,115406	2020-10-29T19:14:09:413
0,053996	-0,260536	-0,049732	2020-10-29T19:14:09:435
0,032490	-0,330999	-0,071295	2020-10-29T19:14:09:453
0,069596	-0,370018	-0,132598	2020-10-29T19:14:09:476
0,009204	-0,414068	-0,128994	2020-10-29T19:14:09:494
-0,000164	-0,394680	-0,060266	2020-10-29T19:14:09:515
0,050633	-0,373725	-0,067071	2020-10-29T19:14:09:534
0,067577	-0,568140	-0,061125	2020-10-29T19:14:09:555
0,032944	-0,560857	0,013048	2020-10-29T19:14:09:574
0,000933	-0,027862	-0,161049	2020-10-29T19:14:09:597
-0,022995	-0,102040	-0,184978	2020-10-29T19:14:09:613
0,018681	-0,112767	-0,102116	2020-10-29T19:14:09:635
0,006395	-0,248139	-0,080102	2020-10-29T19:14:09:654
0,057070	-0,198744	-0,102557	2020-10-29T19:14:09:676
0,028547	-0,369867	-0,115868	2020-10-29T19:14:09:693
0,024483	-0,252561	-0,024004	2020-10-29T19:14:09:715
0,064247	-0,308190	-0,099524	2020-10-29T19:14:09:734
0,016261	-0,340915	-0,108287	2020-10-29T19:14:09:756
0,080234	-0,260781	-0,048659	2020-10-29T19:14:09:774
0,040607	-0,331012	-0,138340	2020-10-29T19:14:09:796
0,022444	-0,321554	-0,092667	2020-10-29T19:14:09:814
0,062550	-0,481086	-0,005051	2020-10-29T19:14:09:836
0,054513	-0,412456	-0,095689	2020-10-29T19:14:09:855
0,040483	-0,461661	-0,056790	2020-10-29T19:14:09:876
0,058535	-0,401243	-0,088146	2020-10-29T19:14:09:894
0,024890	-0,456776	-0,037873	2020-10-29T19:14:09:916
0,076747	-0,532631	-0,043087	2020-10-29T19:14:09:934
0,000149	-0,024663	-0,148764	2020-10-29T19:14:09:956
-0,033350	0,016015	-0,182263	2020-10-29T19:14:09:974
-0,029887	-0,746904	-0,012945	2020-10-29T19:14:09:996
-0,044546	-0,714617	0,016140	2020-10-29T19:14:10:014
-0,027780	-0,725317	0,014343	2020-10-29T19:14:10:036
0,014408	-0,652532	-0,013034	2020-10-29T19:14:10:054
-0,000493	-0,025276	-0,151009	2020-10-29T19:14:10:078
-0,067492	-0,099453	-0,182116	2020-10-29T19:14:10:094
-0,047479	2,863231	-0,147265	2020-10-29T19:14:10:115
-0,048015	4,236927	0,079006	2020-10-29T19:14:10:134
-0,020326	-3,376226	1,057441	2020-10-29T19:14:10:156
0,006454	-2,870644	0,786717	2020-10-29T19:14:10:174
-0,043535	-2,631688	0,648499	2020-10-29T19:14:10:196
0,010660	-2,120539	0,420385	2020-10-29T19:14:10:214
-0,020227	-2,060981	0,383614	2020-10-29T19:14:10:423
-0,035063	-1,808148	0,306940	2020-10-29T19:14:10:424
0,025027	-1,497825	0,252109	2020-10-29T19:14:10:426
0,010068	-1,615535	0,299258	2020-10-29T19:14:10:429
0,001023	-0,022507	-0,140689	2020-10-29T19:14:10:429
0,015380	-0,003365	-0,159832	2020-10-29T19:14:10:430
0,000381	-0,012811	-0,076447	2020-10-29T19:14:10:431
-0,023547	-0,012811	-0,150623	2020-10-29T19:14:10:431
0,071688	-0,342131	-0,136449	2020-10-29T19:14:10:432
0,000314	-0,017897	-0,104707	2020-10-29T19:14:10:433
-0,039477	-0,167826	-0,143219	2020-10-29T19:14:10:435
-0,037358	-0,223268	-0,035678	2020-10-29T19:14:10:471
-0,001466	-0,271124	-0,148140	2020-10-29T19:14:10:476
0,013899	-0,396778	-0,116003	2020-10-29T19:14:10:493
0,037419	-0,341885	-0,023951	2020-10-29T19:14:10:521
0,029310	-0,418831	-0,024325	2020-10-29T19:14:10:536
-0,000149	-0,023944	-0,148357	2020-10-29T19:14:10:558
-0,026470	-0,045480	-0,136394	2020-10-29T19:14:10:575
-0,056117	-3,553497	1,193215	2020-10-29T19:14:10:596
-0,019542	-2,379889	0,562545	2020-10-29T19:14:10:614
-0,031984	-2,033925	0,467917	2020-10-29T19:14:10:636
0,006272	-1,813875	0,320727	2020-10-29T19:14:10:654
0,017967	-1,738611	0,267119	2020-10-29T19:14:10:677
-0,052007	-1,806004	0,288280	2020-10-29T19:14:10:695
-0,038869	-1,408721	0,221815	2020-10-29T19:14:10:716
0,013748	-1,281091	0,128867	2020-10-29T19:14:10:734
-0,017927	-1,290768	0,124104	2020-10-29T19:14:10:756
0,000064	-0,020775	-0,128183	2020-10-29T19:14:10:787
-0,023864	0,060581	-0,166469	2020-10-29T19:14:10:800
-0,061127	-1,089736	0,175730	2020-10-29T19:14:10:827
0,057148	-0,928085	0,061084	2020-10-29T19:14:10:844
0,000441	-0,027931	-0,175076	2020-10-29T19:14:10:858
-0,053434	-0,058152	-0,118002	2020-10-29T19:14:10:877
-0,039077	-0,086866	-0,125180	2020-10-29T19:14:10:899
0,039209	-0,260988	-0,091832	2020-10-29T19:14:11:023
0,073890	-0,351443	-0,018806	2020-10-29T19:14:11:039
0,001022	-0,026488	-0,162569	2020-10-29T19:14:11:054
0,020165	-0,074345	-0,129069	2020-10-29T19:14:11:079
0,014631	-0,241451	-0,158136	2020-10-29T19:14:11:095
0,059826	-0,237160	-0,082273	2020-10-29T19:14:11:117
0,049632	-0,255631	-0,130121	2020-10-29T19:14:11:135
0,009316	-0,236144	-0,076874	2020-10-29T19:14:11:157
-0,004614	-0,395879	-0,114493	2020-10-29T19:14:11:177
0,068254	-0,491586	-0,071454	2020-10-29T19:14:11:197
0,035913	-0,345433	-0,128027	2020-10-29T19:14:11:217
0,034703	-0,329175	-0,077217	2020-10-29T19:14:11:241
0,000476	-0,018773	-0,111773	2020-10-29T19:14:11:258
-0,021060	-0,049880	-0,154843	2020-10-29T19:14:11:284
-0,056306	-0,829675	-0,051228	2020-10-29T19:14:31:219
0,005048	-0,755732	-0,020514	2020-10-29T19:14:31:220
-0,022954	-0,759064	-0,034969	2020-10-29T19:14:31:221
0,024097	-0,775511	-0,083819	2020-10-29T19:14:31:222
-0,029784	-0,610991	-0,032594	2020-10-29T19:14:31:223
-0,035288	-0,604704	-0,092591	2020-10-29T19:14:31:263
-0,025207	-0,607856	-0,004871	2020-10-29T19:14:31:264
0,063006	-0,711752	-0,094981	2020-10-29T19:14:31:264
0,026108	-0,643713	-0,077274	2020-10-29T19:14:31:265
-0,039503	-0,537344	-0,060364	2020-10-29T19:14:31:350
0,047379	-0,585073	-0,043637	2020-10-29T19:14:31:350
-0,054978	-0,600866	-0,048580	2020-10-29T19:14:31:351
0,000709	-0,013039	-0,124037	2020-10-29T19:14:31:351
-0,046332	-0,053934	-0,109471	2020-10-29T19:14:31:352
-0,009336	0,001453	-0,125761	2020-10-29T19:14:31:352
-0,004551	0,034953	-0,161654	2020-10-29T19:14:31:352
-0,052169	-0,192120	-0,108078	2020-10-29T19:14:31:369
0,022404	-0,241782	-0,108105	2020-10-29T19:14:31:387
0,004853	-0,222019	-0,100072	2020-10-29T19:14:31:410
0,002408	-0,212370	-0,101836	2020-10-29T19:14:31:429
0,001146	-0,007757	-0,071295	2020-10-29T19:14:31:451
0,053788	-0,036471	-0,140686	2020-10-29T19:14:31:470
0,089909	-0,151302	-0,162430	2020-10-29T19:14:31:492
0,042351	-0,102117	-0,183599	2020-10-29T19:14:31:510
0,074448	-0,040613	-0,091742	2020-10-29T19:14:31:532
0,069374	-0,067611	-0,102230	2020-10-29T19:14:31:560
0,063767	-0,145620	-0,156259	2020-10-29T19:14:31:581
0,001582	-0,020846	-0,185889	2020-10-29T19:14:31:600
-0,013537	0,009778	-0,130444	2020-10-29T19:14:31:614
-0,032638	-0,017358	-0,118519	2020-10-29T19:14:31:630
-0,044405	-0,031264	-0,124015	2020-10-29T19:14:31:676
0,063272	-0,107834	-0,126408	2020-10-29T19:14:31:677
0,045587	-0,193496	-0,142525	2020-10-29T19:14:31:698
-0,000124	-0,217382	-0,100926	2020-10-29T19:14:31:710
0,053183	-0,157828	-0,090359	2020-10-29T19:14:31:732
-0,023539	-0,132063	-0,091112	2020-10-29T19:14:31:749
-0,023839	-0,214991	-0,149096	2020-10-29T19:14:31:772
0,063598	-0,236871	-0,125084	2020-10-29T19:14:31:790
-0,001565	-0,135296	-0,087741	2020-10-29T19:14:31:812
-0,041379	-0,167307	-0,080859	2020-10-29T19:14:31:830
0,009371	-0,233147	-0,077261	2020-10-29T19:14:31:852
0,025796	-0,258515	-0,117062	2020-10-29T19:14:31:871
0,010901	-0,218965	-0,122742	2020-10-29T19:14:31:899
0,080620	-0,213918	-0,123138	2020-10-29T19:14:31:911
-0,024945	-0,144087	-0,160160	2020-10-29T19:14:31:932
-0,022848	-0,235771	-0,093328	2020-10-29T19:14:31:950
0,000682	-0,234232	-0,082886	2020-10-29T19:14:31:973
0,020710	-0,297756	-0,136643	2020-10-29T19:14:31:990
0,092373	-0,251396	-0,133303	2020-10-29T19:14:32:012
0,045585	-0,295582	-0,106758	2020-10-29T19:14:32:030
0,118434	-0,266476	-0,117341	2020-10-29T19:14:32:053
-0,008423	-0,276116	-0,113759	2020-10-29T19:14:32:070
0,028515	-0,309738	-0,111301	2020-10-29T19:14:32:092
0,058953	-0,239890	-0,079513	2020-10-29T19:14:32:110
0,061679	-0,252788	-0,139748	2020-10-29T19:14:32:133
0,006867	-0,371123	-0,082694	2020-10-29T19:14:32:150
0,014465	-0,338048	-0,098057	2020-10-29T19:14:32:172
0,023761	-0,418381	-0,106101	2020-10-29T19:14:32:190
0,046278	-0,348044	-0,098492	2020-10-29T19:14:32:214
-0,027628	-0,249506	-0,084561	2020-10-29T19:14:32:244
0,050905	-0,327046	-0,082684	2020-10-29T19:15:01:315
0,058362	-0,337503	-0,111622	2020-10-29T19:15:01:316
0,015193	-0,387730	-0,047021	2020-10-29T19:15:01:317
0,045975	-0,336804	-0,101180	2020-10-29T19:15:01:318
0,003406	-0,374593	-0,075285	2020-10-29T19:15:01:320
0,077925	-0,304914	-0,069897	2020-10-29T19:15:01:323
0,129714	-0,382860	-0,102848	2020-10-29T19:15:01:355
0,004093	-0,404513	-0,049169	2020-10-29T19:15:01:356
0,090138	-0,329382	-0,068522	2020-10-29T19:15:01:360
0,007074	-0,327542	-0,077682	2020-10-29T19:15:01:360
0,047824	-0,321091	-0,107669	2020-10-29T19:15:01:361
0,072292	-0,379037	-0,112722	2020-10-29T19:15:01:369
0,026152	-0,367136	-0,067612	2020-10-29T19:15:01:370
0,077644	-0,326883	-0,050140	2020-10-29T19:15:01:370
0,004898	-0,365942	-0,097899	2020-10-29T19:15:01:381
0,060167	-0,352122	-0,066366	2020-10-29T19:15:01:399
0,141268	-0,295219	-0,066985	2020-10-29T19:15:01:413
0,010340	-0,317997	-0,065137	2020-10-29T19:15:01:431
0,015444	-0,329715	-0,017969	2020-10-29T19:15:01:454
0,055895	-0,294639	-0,095771	2020-10-29T19:15:01:473
0,014987	-0,358005	-0,108261	2020-10-29T19:15:01:496
0,064966	-0,364036	-0,031138	2020-10-29T19:15:01:514
0,088780	-0,324218	-0,077162	2020-10-29T19:15:01:537
0,000806	-0,013673	-0,135085	2020-10-29T19:15:01:554
-0,020729	0,070076	-0,178156	2020-10-29T19:15:01:575
-0,020769	-0,125659	-0,119880	2020-10-29T19:15:01:594
0,023944	-0,086390	-0,106556	2020-10-29T19:15:01:616
0,023245	-0,223389	-0,121468	2020-10-29T19:15:01:633
-0,001581	-0,214233	-0,065780	2020-10-29T19:15:01:655
0,039441	-0,223882	-0,115699	2020-10-29T19:15:01:674
0,033202	-0,176178	-0,140806	2020-10-29T19:15:01:697
0,001122	-0,148011	-0,096157	2020-10-29T19:15:01:730
0,322050	0,488459	-0,413467	2020-10-29T19:17:03:242
-0,052789	0,643357	-0,208603	2020-10-29T19:17:03:281
0,084780	0,365167	0,067693	2020-10-29T19:17:03:315
-0,067193	-0,174733	-0,127476	2020-10-29T19:17:03:317
0,237158	0,324049	-0,275956	2020-10-29T19:17:03:320
0,288879	0,000122	-0,251860	2020-10-29T19:17:03:321
0,101154	-0,161602	-0,184003	2020-10-29T19:17:03:322
0,280209	-0,556382	-0,082855	2020-10-29T19:17:03:746
0,535385	-0,585190	0,103847	2020-10-29T19:17:03:748
0,365987	-2,931148	0,855433	2020-10-29T19:17:03:749
0,544244	2,287265	-0,373189	2020-10-29T19:17:03:750
0,395471	0,715100	-0,269999	2020-10-29T19:17:03:754
0,634447	0,504013	-0,127957	2020-10-29T19:17:03:755
0,565080	0,146206	-0,337830	2020-10-29T19:17:03:756
0,367008	0,534942	-0,226875	2020-10-29T19:17:03:758
0,577924	0,847879	0,609303	2020-10-29T19:17:03:759
0,132815	0,755421	-0,284949	2020-10-29T19:17:03:760
-0,021505	-0,115388	-0,395267	2020-10-29T19:17:03:761
-0,163714	0,698583	-0,296767	2020-10-29T19:17:03:762
-0,142170	1,138011	-0,318404	2020-10-29T19:17:03:762
0,090885	1,152705	-0,234674	2020-10-29T19:17:03:763
0,000029	-0,020993	-0,114076	2020-10-29T19:17:03:763
-0,119613	-0,358382	-0,111682	2020-10-29T19:17:03:763
-0,140278	-1,033618	0,041173	2020-10-29T19:17:03:764
0,021418	-1,119324	0,095161	2020-10-29T19:17:03:764
0,003270	-0,015271	-0,120426	2020-10-29T19:17:03:766
0,254517	0,250333	-0,228103	2020-10-29T19:17:03:835
0,321462	0,198152	-0,103181	2020-10-29T19:17:03:836
-0,064045	0,283899	-0,150731	2020-10-29T19:17:03:836
0,186864	0,279854	-0,187638	2020-10-29T19:17:03:837
0,213030	0,344588	-0,123233	2020-10-29T19:17:03:838
-0,100411	0,160501	-0,195455	2020-10-29T19:17:03:844
-0,032068	-0,193278	-0,048397	2020-10-29T19:17:03:844
0,101169	0,125984	-0,086764	2020-10-29T19:17:03:845
-0,044456	0,254493	-0,163038	2020-10-29T19:17:03:857
-0,000967	-0,005299	-0,040762	2020-10-29T19:17:03:864
0,180887	0,473265	-0,088618	2020-10-29T19:17:03:864
-0,001092	-0,044674	-0,225725	2020-10-29T19:17:03:864
-0,309767	0,036682	-0,113263	2020-10-29T19:17:03:867
0,000391	0,010607	0,089268	2020-10-29T19:17:03:887
0,506044	-0,532207	0,066554	2020-10-29T19:17:03:904
1,255008	-2,176019	-1,159775	2020-10-29T19:17:03:941
-0,545493	0,785481	-0,268373	2020-10-29T19:17:03:996
-0,179271	0,788185	-0,258917	2020-10-29T19:17:03:996
-0,019940	0,717315	-0,275679	2020-10-29T19:17:03:997
-0,031905	0,171752	-0,110574	2020-10-29T19:17:04:009
0,000198	-0,004684	-0,040231	2020-10-29T19:17:04:026
-1,070821	-0,551954	-0,164653	2020-10-29T19:17:04:047
0,160655	0,282075	-0,108170	2020-10-29T19:17:04:069
0,659644	0,516276	-0,261218	2020-10-29T19:17:04:091
0,305597	1,265625	-0,208564	2020-10-29T19:17:04:108
0,599914	2,014578	-0,189421	2020-10-29T19:17:04:128
-0,104221	-0,582293	0,052701	2020-10-29T19:17:04:144
-0,004503	-0,057843	-0,269750	2020-10-29T19:17:04:169
0,081604	-0,036746	-0,287956	2020-10-29T19:17:04:186
-0,269348	-0,691386	-0,132989	2020-10-29T19:17:04:210
-0,136102	-0,981134	-0,098605	2020-10-29T19:17:04:227
0,639024	-1,203197	-0,064404	2020-10-29T19:17:04:251
-0,645922	-0,152748	-0,004584	2020-10-29T19:17:04:267
-0,009935	0,029937	0,573839	2020-10-29T19:17:04:295
1,071278	1,479285	-0,136241	2020-10-29T19:17:04:306
1,093103	1,783040	-0,628607	2020-10-29T19:17:04:362
0,100081	2,464994	-0,666892	2020-10-29T19:17:04:363
0,598425	0,802590	0,037191	2020-10-29T19:17:04:402
-0,022587	-0,032976	-0,373504	2020-10-29T19:17:04:403
0,305229	-1,014033	-0,256255	2020-10-29T19:17:04:409
-0,031872	-0,032593	-0,257597	2020-10-29T19:17:04:436
-0,293496	-0,432310	0,640409	2020-10-29T19:17:04:450
-0,233675	1,000991	-0,472255	2020-10-29T19:17:04:474
-0,012737	-0,021530	-0,128305	2020-10-29T19:17:04:494
-0,141949	0,071790	-0,374766	2020-10-29T19:17:04:505
-0,265919	0,070841	0,043063	2020-10-29T19:17:04:528
-0,347754	-0,641509	-0,062661	2020-10-29T19:17:04:551
0,155706	-0,998568	0,786380	2020-10-29T19:17:04:570
0,371371	-0,322137	-0,334950	2020-10-29T19:17:04:590
0,580546	-0,497046	-0,416090	2020-10-29T19:17:04:613
0,798576	0,181511	-0,125674	2020-10-29T19:17:04:630
0,264825	-0,480124	0,129057	2020-10-29T19:17:04:674
-0,052902	-0,611193	0,062152	2020-10-29T19:17:04:686
-0,330962	-0,502847	-0,085321	2020-10-29T19:17:04:698
-0,367685	-0,822720	-0,072200	2020-10-29T19:17:04:720
-1,329086	0,150296	0,017226	2020-10-29T19:17:04:737
-0,197388	0,231578	0,089364	2020-10-29T19:17:04:745
0,106540	-0,177800	-0,157365	2020-10-29T19:17:04:768
-0,064767	-0,092938	-0,027999	2020-10-29T19:17:04:785
-0,011419	-0,015569	-0,124737	2020-10-29T19:17:04:812
-0,336843	-0,202209	-0,241985	2020-10-29T19:17:04:830
-0,044588	0,030772	-0,240451	2020-10-29T19:17:04:849
-0,014653	0,015781	-0,208337	2020-10-29T19:17:04:867
0,000580	0,161379	-0,128512	2020-10-29T19:17:04:890
0,089662	0,215235	-0,026477	2020-10-29T19:17:04:909
0,075758	0,435630	-0,116423	2020-10-29T19:17:04:931
0,174196	1,312372	-0,589979	2020-10-29T19:17:04:952
-0,003143	-0,002964	-0,066158	2020-10-29T19:17:04:971
0,030889	0,764308	-0,212126	2020-10-29T19:17:05:007
0,275719	0,790772	-0,302055	2020-10-29T19:17:05:015
-0,017672	1,265510	-0,079826	2020-10-29T19:17:05:043
0,058898	1,291831	-0,311931	2020-10-29T19:17:05:056
-0,005135	-0,018247	-0,183387	2020-10-29T19:17:05:068
0,071685	0,513334	-0,258459	2020-10-29T19:17:05:091
-0,129312	0,262088	-0,055069	2020-10-29T19:17:05:106
-0,054089	0,237088	-0,195337	2020-10-29T19:17:05:130
0,409989	0,324306	-0,402846	2020-10-29T19:17:05:146
0,781471	-0,231492	-0,138084	2020-10-29T19:17:05:188
0,964001	0,436855	-0,073867	2020-10-29T19:17:05:188
0,978634	0,486028	0,169483	2020-10-29T19:17:05:252
0,727640	0,266448	0,014129	2020-10-29T19:17:05:252
0,391043	0,972691	-0,323490	2020-10-29T19:17:05:470
0,234150	1,315621	-0,228408	2020-10-29T19:17:05:470
-0,050667	-0,056772	-0,174389	2020-10-29T19:17:05:471
1,206028	-0,355689	-1,015591	2020-10-29T19:17:05:472
0,353770	0,423102	-0,071530	2020-10-29T19:17:05:473
0,164120	0,039546	-0,085523	2020-10-29T19:17:05:473
0,244152	0,267141	-0,158516	2020-10-29T19:17:05:474
0,119178	0,465862	-0,178177	2020-10-29T19:17:05:475
0,023867	0,357480	-0,263756	2020-10-29T19:17:05:475
-0,074230	0,561681	-0,255096	2020-10-29T19:17:05:485
1,128029	3,383350	-0,987679	2020-10-29T19:17:05:488
-0,344965	-0,328415	0,054993	2020-10-29T19:17:05:490
-0,780629	-0,349671	-0,133447	2020-10-29T19:17:05:512
0,159341	0,176579	-0,264194	2020-10-29T19:17:05:512
0,227272	0,489298	-0,278619	2020-10-29T19:17:05:543
0,054472	0,547710	-0,135553	2020-10-29T19:17:05:548
0,179844	0,402475	-0,197037	2020-10-29T19:17:05:585
0,004050	0,101952	-0,299105	2020-10-29T19:17:05:589
-0,055882	0,525376	-0,204607	2020-10-29T19:17:05:635
0,038939	0,717974	-0,227039	2020-10-29T19:17:05:636
-0,101658	0,630485	-0,305984	2020-10-29T19:17:05:663
-0,115301	0,387771	-0,283849	2020-10-29T19:17:05:679
0,120305	0,523045	-0,167428	2020-10-29T19:17:05:694
0,073936	0,577175	-0,180134	2020-10-29T19:17:05:722
0,097866	0,082476	-0,286359	2020-10-29T19:17:05:729
0,031288	-0,156139	-0,228965	2020-10-29T19:17:05:753
0,187524	0,649947	-0,176603	2020-10-29T19:17:05:770
0,223422	1,183928	-0,243234	2020-10-29T19:17:05:787
0,007063	1,146489	-0,208655	2020-10-29T19:17:05:822
-0,364740	0,741735	-0,414734	2020-10-29T19:17:05:830
-0,225661	0,483595	-0,355776	2020-10-29T19:17:05:851
-0,132193	0,552038	-0,048115	2020-10-29T19:17:05:867
-0,158070	0,199061	-0,133991	2020-10-29T19:17:05:889
0,273079	0,596364	-0,272588	2020-10-29T19:17:05:908
0,212659	0,779111	-0,164251	2020-10-29T19:17:05:931
0,130401	0,707071	-0,200037	2020-10-29T19:17:05:948
-0,022454	0,430601	-0,292958	2020-10-29T19:17:05:971
0,050211	0,357436	-0,305699	2020-10-29T19:17:05:987
0,174789	0,788062	-0,193834	2020-10-29T19:17:06:014
-0,001388	-0,019556	-0,126073	2020-10-29T19:17:06:028
0,040559	0,062923	-0,207548	2020-10-29T19:17:06:059
0,102772	0,177779	-0,152514	2020-10-29T19:17:06:075
0,112893	-0,007029	-0,133449	2020-10-29T19:17:06:092
0,060053	0,103496	-0,117634	2020-10-29T19:17:06:108
0,194386	0,368431	-0,124270	2020-10-29T19:17:06:146
-0,001245	-0,006712	-0,040750	2020-10-29T19:17:06:159
-0,120886	-0,506812	-0,150819	2020-10-29T19:17:06:170
-0,125723	-0,236092	-0,337027	2020-10-29T19:17:06:190
-0,040781	0,619778	-0,184192	2020-10-29T19:17:06:209
-0,023153	0,456080	-0,234098	2020-10-29T19:17:06:227
-0,170948	0,122738	-0,250259	2020-10-29T19:17:06:250
-0,283089	0,027368	-0,105007	2020-10-29T19:17:06:267
-0,036654	0,301377	-0,094160	2020-10-29T19:17:06:289
-0,001927	-0,040170	-0,230103	2020-10-29T19:17:06:307
0,359175	0,366222	-0,142815	2020-10-29T19:17:06:330
0,136643	-0,047736	-0,274420	2020-10-29T19:17:06:347
-0,068206	0,289435	-0,360674	2020-10-29T19:17:06:370
-0,004949	0,728504	-0,225204	2020-10-29T19:17:06:387
-0,000355	-0,010616	-0,052487	2020-10-29T19:17:06:410
0,159964	0,427271	-0,131450	2020-10-29T19:17:06:427
0,170400	-0,128267	0,039710	2020-10-29T19:17:06:449
0,142116	-0,900216	0,116031	2020-10-29T19:17:06:467
0,012195	-1,426901	0,092238	2020-10-29T19:17:06:491
0,074894	-0,960774	0,074191	2020-10-29T19:17:06:507
0,087510	-0,938860	0,036567	2020-10-29T19:17:06:529
-0,043891	-0,800893	-0,037785	2020-10-29T19:17:06:546
-0,047930	-0,229244	-0,084061	2020-10-29T19:17:06:571
0,010636	-0,128893	-0,034992	2020-10-29T19:17:06:587
-0,033530	0,115194	0,008218	2020-10-29T19:17:06:609
-0,483019	0,066258	-0,139463	2020-10-29T19:17:06:627
-0,018563	-0,167308	0,258738	2020-10-29T19:17:06:650
-0,069284	-0,942727	0,052128	2020-10-29T19:17:06:667
0,363509	-0,651940	-0,116628	2020-10-29T19:17:06:690
-0,057673	-0,003256	-0,368814	2020-10-29T19:17:06:707
-0,292719	-0,221431	-0,170625	2020-10-29T19:17:06:732
0,045305	-0,244921	-0,040345	2020-10-29T19:17:06:747
-0,001311	-0,014780	-0,083270	2020-10-29T19:17:06:770
-0,030025	0,028290	-0,236411	2020-10-29T19:17:06:787
0,086390	0,096478	-0,212862	2020-10-29T19:17:06:811
-0,019546	-0,007825	-0,086172	2020-10-29T19:17:06:827
-0,097382	-0,055009	-0,192457	2020-10-29T19:17:06:850
-0,012034	0,016730	-0,125546	2020-10-29T19:17:06:867
0,000301	0,030759	-0,197271	2020-10-29T19:17:06:891
0,049479	0,072888	-0,155622	2020-10-29T19:17:06:907
0,011163	0,109861	-0,123462	2020-10-29T19:17:06:930
0,013986	0,134614	-0,137897	2020-10-29T19:17:06:947
-0,002828	-0,041500	-0,242111	2020-10-29T19:17:06:972
-0,005221	0,023107	-0,160755	2020-10-29T19:17:06:987
0,095074	0,171992	-0,085856	2020-10-29T19:17:07:010
0,187319	0,171521	-0,142692	2020-10-29T19:17:07:028
0,048612	0,133124	-0,253938	2020-10-29T19:17:07:051
0,046010	0,157508	-0,190153	2020-10-29T19:17:07:068
0,000819	-0,048426	-0,294149	2020-10-29T19:17:07:089
0,381152	-0,169766	-0,420942	2020-10-29T19:17:07:107
-0,172890	1,453739	-0,139529	2020-10-29T19:17:07:131
0,321063	0,297065	0,078492	2020-10-29T19:17:07:147
0,239344	-0,005769	-0,152472	2020-10-29T19:17:07:171
0,004810	-0,023647	-0,114118	2020-10-29T19:17:07:188
0,561041	-0,833701	-0,353868	2020-10-29T19:17:07:213
0,754860	-0,429314	-0,124157	2020-10-29T19:17:07:232
0,018963	-0,699887	0,160547	2020-10-29T19:17:07:270
0,256441	-1,132987	0,124165	2020-10-29T19:17:07:355
0,275137	-1,747512	0,209552	2020-10-29T19:17:07:370
0,164206	-2,327625	0,541715	2020-10-29T19:17:07:370
0,141506	-2,783795	0,898981	2020-10-29T19:17:07:371
0,167589	-3,555218	1,241446	2020-10-29T19:17:07:371
0,197786	4,210933	-0,014050	2020-10-29T19:17:07:372
0,201718	3,149143	-0,190521	2020-10-29T19:17:07:389
0,229164	2,418455	-0,227589	2020-10-29T19:17:07:411
-0,001191	-0,020871	-0,125037	2020-10-29T19:17:07:428
0,079361	0,050260	-0,207850	2020-10-29T19:17:07:454
0,069947	0,086207	-0,159122	2020-10-29T19:17:07:469
0,012520	0,119707	-0,149551	2020-10-29T19:17:07:490
0,114196	0,306257	-0,234821	2020-10-29T19:17:07:508
0,080442	0,249869	-0,201105	2020-10-29T19:17:07:533
0,043947	0,335459	-0,159330	2020-10-29T19:17:07:549
0,068584	0,288695	-0,210427	2020-10-29T19:17:07:571
0,087113	0,288426	-0,217905	2020-10-29T19:17:07:608
0,047745	0,325093	-0,199206	2020-10-29T19:17:07:618
0,065141	0,258374	-0,233431	2020-10-29T19:17:07:638
0,055335	0,292312	-0,203063	2020-10-29T19:17:07:654
0,026612	0,286785	-0,201241	2020-10-29T19:17:07:673
-0,007732	0,288264	-0,176148	2020-10-29T19:17:07:693
0,086485	0,347229	-0,211555	2020-10-29T19:17:07:708
0,001377	0,350129	-0,165819	2020-10-29T19:17:07:731
0,109774	0,404404	-0,167391	2020-10-29T19:17:07:750
0,066612	0,305433	-0,139940	2020-10-29T19:17:07:773
0,127926	0,318839	-0,194838	2020-10-29T19:17:07:790
0,011941	0,327702	-0,160214	2020-10-29T19:17:07:812
0,030938	0,342433	-0,271351	2020-10-29T19:17:07:830
0,043844	0,443405	-0,285782	2020-10-29T19:17:07:853
0,040447	0,492436	-0,221679	2020-10-29T19:17:07:872
0,054741	0,571999	-0,199169	2020-10-29T19:17:07:892
0,048933	0,380499	-0,207329	2020-10-29T19:17:07:912
-0,004135	-0,031438	-0,197497	2020-10-29T19:17:07:937
0,067649	-0,067330	-0,032393	2020-10-29T19:17:07:951
-0,156701	0,081439	-0,120745	2020-10-29T19:17:07:972
-0,117298	0,271876	-0,158109	2020-10-29T19:17:07:991
-0,000913	0,322692	-0,186729	2020-10-29T19:17:08:013
-0,040493	0,381404	-0,194414	2020-10-29T19:17:08:031
-0,107987	0,296734	-0,197736	2020-10-29T19:17:08:052
-0,043333	0,263907	-0,264967	2020-10-29T19:17:08:072
-0,048521	0,331953	-0,243311	2020-10-29T19:17:08:092
0,027600	0,242514	-0,202221	2020-10-29T19:17:08:111
-0,007670	0,222526	-0,273536	2020-10-29T19:17:08:132
-0,043377	0,348790	-0,204104	2020-10-29T19:17:08:151
0,012380	0,277283	-0,204237	2020-10-29T19:17:08:174
-0,018947	0,263700	-0,371530	2020-10-29T19:17:08:192
-0,015420	0,349865	-0,359625	2020-10-29T19:17:08:213
-0,037363	0,383910	-0,176236	2020-10-29T19:17:08:231
-0,023322	0,246130	-0,145102	2020-10-29T19:17:08:253
0,016738	0,068062	-0,312214	2020-10-29T19:17:08:271
-0,026795	0,233436	-0,225817	2020-10-29T19:17:08:292
-0,065025	0,295655	-0,110347	2020-10-29T19:17:08:311
-0,110124	0,217130	-0,134410	2020-10-29T19:17:08:333
0,031394	0,222619	-0,264818	2020-10-29T19:17:08:350
0,031690	0,372657	-0,190210	2020-10-29T19:17:08:376
0,014097	0,262094	-0,180589	2020-10-29T19:17:08:392
0,035422	0,376986	-0,243167	2020-10-29T19:17:08:415
-0,074241	-0,061145	-0,402450	2020-10-29T19:17:08:431
0,010178	0,585575	-0,329442	2020-10-29T19:17:08:456
0,033147	0,618577	-0,138006	2020-10-29T19:17:08:470
0,111405	0,501350	-0,050538	2020-10-29T19:17:08:493
0,098155	0,321146	-0,226780	2020-10-29T19:17:08:510
0,057903	0,103374	-0,313239	2020-10-29T19:17:08:532
-0,093462	0,087404	-0,184138	2020-10-29T19:17:08:549
-0,032584	-0,314445	-0,357055	2020-10-29T19:17:08:572
0,041367	0,623880	-0,179738	2020-10-29T19:17:08:590
-0,051151	0,780529	-0,121187	2020-10-29T19:17:08:615
0,020677	0,774250	4,550537	2020-10-29T19:17:08:656
0,377375	0,017683	0,307381	2020-10-29T19:17:08:657
0,049721	0,243170	-0,272146	2020-10-29T19:17:08:670
-0,016730	0,227109	-0,232695	2020-10-29T19:17:08:692
0,147028	0,078882	-0,147305	2020-10-29T19:17:08:712
0,089601	0,131523	-0,243018	2020-10-29T19:17:08:733
-0,000976	-0,028425	-0,143211	2020-10-29T19:17:08:749
0,076955	-0,153041	-0,121899	2020-10-29T19:17:08:771
-0,000108	-0,216594	-0,185946	2020-10-29T19:17:08:790
0,035784	-0,106525	-0,157233	2020-10-29T19:17:08:811
0,093074	0,145616	-0,205952	2020-10-29T19:17:08:829
0,055404	0,236949	-0,210320	2020-10-29T19:17:08:855
0,079326	0,252258	-0,219174	2020-10-29T19:17:08:873
0,023308	0,186633	-0,191808	2020-10-29T19:17:08:894
-0,001064	-0,026600	-0,150975	2020-10-29T19:17:08:912
0,073113	0,004506	-0,177296	2020-10-29T19:17:08:936
0,030072	0,207877	-0,239892	2020-10-29T19:17:08:952
-0,012134	0,293249	-0,238890	2020-10-29T19:17:08:974
0,062397	0,287366	-0,199555	2020-10-29T19:17:08:991
0,083296	0,330329	-0,197515	2020-10-29T19:17:09:013
-0,004923	0,160231	-0,136900	2020-10-29T19:17:09:031
-0,105435	0,158934	-0,038818	2020-10-29T19:17:09:054
-0,152441	0,052453	0,054831	2020-10-29T19:17:09:072
-0,240736	-0,084666	0,086568	2020-10-29T19:17:09:092
-0,144260	-0,135728	0,117746	2020-10-29T19:17:09:111
-0,047918	-0,087302	0,176455	2020-10-29T19:17:09:136
-0,002206	-0,050326	-0,269969	2020-10-29T19:17:09:153
0,296897	0,516773	-0,380039	2020-10-29T19:17:09:173
0,514943	-1,118863	-0,095700	2020-10-29T19:17:09:191
0,370138	-1,304899	0,120158	2020-10-29T19:17:09:214
0,183148	-1,121655	-0,745821	2020-10-29T19:17:09:232
0,540878	-0,513949	-0,279311	2020-10-29T19:17:09:253
0,231510	-0,007226	-0,218709	2020-10-29T19:17:09:272
-0,202267	-0,418573	-0,200551	2020-10-29T19:17:09:294
-0,151770	-0,750371	0,004291	2020-10-29T19:17:09:311
-0,062191	-1,008348	0,240520	2020-10-29T19:17:09:333
-0,091462	-0,970346	0,222377	2020-10-29T19:17:09:352
-0,145462	-0,823939	-0,008067	2020-10-29T19:17:09:377
-0,095583	-0,732782	-0,056944	2020-10-29T19:17:09:392
-0,122314	-0,592029	-0,072968	2020-10-29T19:17:09:414
-0,219244	-0,414994	0,070426	2020-10-29T19:17:09:433
-0,000007	0,001136	0,004912	2020-10-29T19:17:09:455
0,052635	-0,180718	-0,090800	2020-10-29T19:17:09:474
0,160427	2,352750	-0,321029	2020-10-29T19:17:09:494
0,216756	2,011953	-0,376453	2020-10-29T19:17:09:512
0,242034	1,787543	-0,454012	2020-10-29T19:17:09:535
0,199144	1,619406	-0,459237	2020-10-29T19:17:09:552
0,254041	1,419674	-0,394351	2020-10-29T19:17:09:575
0,301007	1,325687	-0,321655	2020-10-29T19:17:09:592
0,333026	1,200027	-0,465266	2020-10-29T19:17:09:615
0,307837	1,030864	-0,430207	2020-10-29T19:17:09:632
0,138391	0,897170	-0,285854	2020-10-29T19:17:09:653
0,083173	0,589408	-0,251123	2020-10-29T19:17:09:672
0,121960	0,585458	-0,237385	2020-10-29T19:17:09:695
0,275774	0,611338	-0,383423	2020-10-29T19:17:09:712
0,172323	0,549911	-0,265800	2020-10-29T19:17:09:735
0,147558	0,563068	-0,180778	2020-10-29T19:17:09:755
0,023871	1,164487	-0,933225	2020-10-29T19:17:09:776
0,313185	1,083189	0,061734	2020-10-29T19:17:09:798
-0,282481	1,052717	0,747363	2020-10-29T19:17:09:814
0,009187	0,039110	0,206292	2020-10-29T19:17:09:831
-0,390414	0,524853	-0,272272	2020-10-29T19:17:09:856
-0,034526	-1,937094	-0,546265	2020-10-29T19:17:09:879
-0,188067	0,482675	-0,806867	2020-10-29T19:17:09:894
-0,130590	1,530125	-0,321757	2020-10-29T19:17:09:912
-0,004514	0,083993	0,254141	2020-10-29T19:17:09:935
0,324297	-1,347757	-0,030993	2020-10-29T19:17:09:952
