x	y	z	ts
-3,570000	3,010000	0,490000	2020-10-29T19:13:56:213
-8,330000	-33,250000	2,520000	2020-10-29T19:13:56:213
3,570000	1,260000	1,540000	2020-10-29T19:13:56:214
3,430000	1,190000	0,420000	2020-10-29T19:13:56:214
1,610000	0,700000	1,050000	2020-10-29T19:13:56:217
1,890000	1,470000	2,030000	2020-10-29T19:13:56:245
1,890000	2,520000	4,480000	2020-10-29T19:13:56:260
-1,960000	3,290000	6,230000	2020-10-29T19:13:56:279
-0,210000	4,340000	10,710000	2020-10-29T19:13:56:299
6,930000	7,420000	15,120000	2020-10-29T19:13:56:319
-0,770000	7,560000	14,560000	2020-10-29T19:13:56:339
-18,129999	6,860000	15,750000	2020-10-29T19:13:56:359
-25,480000	4,900000	16,379999	2020-10-29T19:13:56:379
-23,030001	2,450000	16,590000	2020-10-29T19:13:56:399
-19,040001	3,640000	14,770000	2020-10-29T19:13:56:419
-15,680000	1,540000	14,560000	2020-10-29T19:13:56:439
-19,250000	-0,070000	11,340000	2020-10-29T19:13:56:460
-24,010000	2,450000	9,100000	2020-10-29T19:13:56:479
-15,260000	10,360000	11,200000	2020-10-29T19:13:56:499
-3,360000	9,660000	2,800000	2020-10-29T19:13:56:519
-0,910000	1,470000	-6,090000	2020-10-29T19:13:56:539
-2,170000	-5,460000	-9,730000	2020-10-29T19:13:56:559
14,070000	-2,170000	-17,290001	2020-10-29T19:13:56:579
45,990002	1,890000	-22,400000	2020-10-29T19:13:56:600
56,770000	7,420000	-26,600000	2020-10-29T19:13:56:619
47,459999	11,480000	-28,280001	2020-10-29T19:13:56:639
43,680000	15,750000	-24,920000	2020-10-29T19:13:56:659
51,520000	18,969999	-13,860000	2020-10-29T19:13:56:679
45,639999	22,889999	8,750000	2020-10-29T19:13:56:699
10,150000	7,070000	17,920000	2020-10-29T19:13:56:719
-35,209999	-8,330000	8,540000	2020-10-29T19:13:56:739
-56,980000	-7,490000	6,160000	2020-10-29T19:13:56:760
-49,490002	2,170000	7,700000	2020-10-29T19:13:56:779
-28,350000	8,330000	8,260000	2020-10-29T19:13:56:800
-3,920000	4,900000	9,100000	2020-10-29T19:13:56:819
2,800000	0,350000	4,830000	2020-10-29T19:13:56:840
2,520000	2,380000	5,110000	2020-10-29T19:13:56:861
-0,420000	4,690000	6,580000	2020-10-29T19:13:56:879
-3,010000	4,830000	5,250000	2020-10-29T19:13:56:899
5,950000	8,960000	6,090000	2020-10-29T19:13:56:920
4,270000	9,730000	13,370000	2020-10-29T19:13:56:940
-7,420000	9,450000	11,690000	2020-10-29T19:13:56:960
-17,010000	8,050000	6,370000	2020-10-29T19:13:56:979
-20,650000	5,530000	1,540000	2020-10-29T19:13:57:000
-14,140000	2,590000	-1,470000	2020-10-29T19:13:57:019
-2,170000	-0,070000	-3,500000	2020-10-29T19:13:57:040
3,010000	-1,470000	-3,430000	2020-10-29T19:13:57:060
1,050000	-1,050000	-2,380000	2020-10-29T19:13:57:081
-3,920000	0,910000	-3,640000	2020-10-29T19:13:57:101
-9,170000	2,660000	-5,320000	2020-10-29T19:13:57:120
-10,500000	2,310000	-3,780000	2020-10-29T19:13:57:142
-6,580000	-0,140000	-5,740000	2020-10-29T19:13:57:160
-5,670000	-0,770000	-6,160000	2020-10-29T19:13:57:180
-3,430000	-0,770000	-4,060000	2020-10-29T19:13:57:200
-1,890000	0,910000	-3,360000	2020-10-29T19:13:57:219
-4,970000	-0,140000	-4,620000	2020-10-29T19:13:57:240
-5,600000	-0,210000	-2,590000	2020-10-29T19:13:57:261
-6,720000	-0,140000	-3,780000	2020-10-29T19:13:57:280
-6,860000	-0,560000	-3,430000	2020-10-29T19:13:57:301
-2,450000	0,140000	-1,750000	2020-10-29T19:13:57:320
-0,140000	1,820000	-1,750000	2020-10-29T19:13:57:342
-1,960000	1,750000	-0,980000	2020-10-29T19:13:57:360
-3,290000	0,070000	-0,560000	2020-10-29T19:13:57:381
-2,450000	0,280000	-0,840000	2020-10-29T19:13:57:400
-0,910000	0,490000	-0,630000	2020-10-29T19:13:57:421
-0,630000	0,280000	-0,420000	2020-10-29T19:13:57:442
0,910000	0,210000	0,210000	2020-10-29T19:13:57:463
-1,750000	-0,210000	-1,400000	2020-10-29T19:13:57:482
-3,080000	0,140000	0,420000	2020-10-29T19:13:57:504
-2,870000	0,840000	-0,140000	2020-10-29T19:13:57:522
-0,070000	0,420000	0,140000	2020-10-29T19:13:57:544
2,730000	1,050000	0,070000	2020-10-29T19:13:57:564
3,150000	0,630000	-0,770000	2020-10-29T19:13:57:584
2,100000	0,280000	-0,700000	2020-10-29T19:13:57:602
1,540000	0,280000	-1,120000	2020-10-29T19:13:57:623
1,960000	1,050000	-1,610000	2020-10-29T19:13:57:643
0,700000	0,070000	-2,380000	2020-10-29T19:13:57:664
-1,890000	-0,070000	-3,080000	2020-10-29T19:13:57:681
-3,430000	-0,070000	-2,730000	2020-10-29T19:13:57:703
-3,010000	0,560000	-2,520000	2020-10-29T19:13:57:721
-3,220000	0,560000	-2,660000	2020-10-29T19:13:57:742
-4,200000	-0,350000	-3,150000	2020-10-29T19:13:57:763
-3,850000	-0,420000	-3,080000	2020-10-29T19:13:57:783
-2,030000	-0,280000	-2,800000	2020-10-29T19:13:57:801
-1,750000	0,700000	-2,730000	2020-10-29T19:13:57:823
-2,730000	0,630000	-2,380000	2020-10-29T19:13:57:842
-2,940000	0,210000	-1,330000	2020-10-29T19:13:57:864
-1,540000	0,700000	-0,560000	2020-10-29T19:13:57:881
0,770000	1,680000	-0,210000	2020-10-29T19:13:57:904
1,890000	1,890000	0,490000	2020-10-29T19:13:57:921
0,280000	1,260000	0,770000	2020-10-29T19:13:57:944
-0,630000	0,490000	0,210000	2020-10-29T19:13:57:963
-0,210000	1,400000	-0,560000	2020-10-29T19:13:57:982
-1,330000	0,910000	-1,610000	2020-10-29T19:13:58:002
-3,640000	0,280000	-2,380000	2020-10-29T19:13:58:024
-4,480000	0,070000	-2,520000	2020-10-29T19:13:58:043
-4,270000	0,210000	-2,800000	2020-10-29T19:13:58:068
-2,520000	-0,210000	-2,520000	2020-10-29T19:13:58:082
-2,520000	0,840000	-1,120000	2020-10-29T19:13:58:104
-0,140000	1,190000	0,070000	2020-10-29T19:13:58:123
0,070000	1,190000	0,980000	2020-10-29T19:13:58:144
3,080000	1,890000	1,820000	2020-10-29T19:13:58:162
4,620000	2,240000	2,660000	2020-10-29T19:13:58:182
3,640000	2,100000	3,010000	2020-10-29T19:13:58:203
1,960000	1,820000	2,100000	2020-10-29T19:13:58:223
1,120000	1,890000	1,470000	2020-10-29T19:13:58:243
0,140000	1,330000	0,840000	2020-10-29T19:13:58:264
-0,840000	0,560000	0,210000	2020-10-29T19:13:58:282
-1,820000	-0,910000	-0,630000	2020-10-29T19:13:58:304
-1,540000	-1,820000	-1,190000	2020-10-29T19:13:58:322
-1,190000	-1,610000	-1,820000	2020-10-29T19:13:58:345
0,420000	-0,840000	-1,330000	2020-10-29T19:13:58:363
2,380000	-0,490000	-1,050000	2020-10-29T19:13:58:384
4,270000	0,980000	-0,490000	2020-10-29T19:13:58:403
3,430000	2,030000	1,470000	2020-10-29T19:13:58:424
2,940000	1,680000	1,470000	2020-10-29T19:13:58:443
1,820000	1,820000	1,960000	2020-10-29T19:13:58:465
2,240000	2,660000	3,850000	2020-10-29T19:13:58:483
1,610000	3,290000	4,340000	2020-10-29T19:13:58:504
-0,350000	2,380000	3,780000	2020-10-29T19:13:58:523
-0,700000	1,050000	2,940000	2020-10-29T19:13:58:545
-1,610000	2,100000	1,050000	2020-10-29T19:13:58:563
-3,080000	3,220000	0,700000	2020-10-29T19:13:58:584
-4,620000	3,150000	0,210000	2020-10-29T19:13:58:603
-6,440000	1,190000	-1,470000	2020-10-29T19:13:58:624
-4,900000	0,770000	-0,980000	2020-10-29T19:13:58:643
-2,240000	0,070000	-1,470000	2020-10-29T19:13:58:665
-0,770000	-0,560000	-1,890000	2020-10-29T19:13:58:683
1,330000	-0,490000	-2,030000	2020-10-29T19:13:58:705
3,220000	-0,910000	-2,590000	2020-10-29T19:13:58:723
3,710000	-0,490000	-2,800000	2020-10-29T19:13:58:745
1,960000	-0,980000	-3,570000	2020-10-29T19:13:58:764
0,910000	-1,470000	-5,040000	2020-10-29T19:13:58:785
2,030000	-1,470000	-5,530000	2020-10-29T19:13:58:803
0,630000	-1,190000	-6,930000	2020-10-29T19:13:58:825
-2,380000	-1,400000	-7,210000	2020-10-29T19:13:58:842
-6,300000	-1,400000	-5,180000	2020-10-29T19:13:58:865
-8,190000	0,210000	-2,800000	2020-10-29T19:13:58:884
-6,790000	1,610000	0,840000	2020-10-29T19:13:58:905
-3,080000	2,240000	3,080000	2020-10-29T19:13:58:924
2,450000	2,450000	4,270000	2020-10-29T19:13:58:944
7,910000	2,030000	3,920000	2020-10-29T19:13:58:964
11,340000	1,610000	2,940000	2020-10-29T19:13:58:985
10,360000	1,750000	2,590000	2020-10-29T19:13:59:004
8,260000	0,420000	2,590000	2020-10-29T19:13:59:027
6,930000	-0,490000	1,470000	2020-10-29T19:13:59:044
6,020000	-0,630000	0,420000	2020-10-29T19:13:59:065
4,760000	-0,210000	-0,840000	2020-10-29T19:13:59:084
3,500000	-0,210000	-1,470000	2020-10-29T19:13:59:105
1,470000	1,330000	-1,470000	2020-10-29T19:13:59:126
-1,120000	1,260000	-0,560000	2020-10-29T19:13:59:145
-3,360000	0,770000	-1,050000	2020-10-29T19:13:59:164
-5,810000	0,210000	-1,260000	2020-10-29T19:13:59:185
-8,190000	0,560000	-1,610000	2020-10-29T19:13:59:204
-8,680000	0,840000	-1,610000	2020-10-29T19:13:59:225
-6,230000	0,840000	-0,840000	2020-10-29T19:13:59:244
-4,830000	0,770000	-1,050000	2020-10-29T19:13:59:267
-5,320000	0,840000	-1,540000	2020-10-29T19:13:59:284
-6,300000	1,400000	-2,170000	2020-10-29T19:13:59:305
-6,720000	1,400000	-2,170000	2020-10-29T19:13:59:324
-6,580000	1,190000	-2,310000	2020-10-29T19:13:59:346
-7,210000	1,260000	-2,800000	2020-10-29T19:13:59:364
-8,190000	1,050000	-2,660000	2020-10-29T19:13:59:385
-7,910000	1,120000	-2,590000	2020-10-29T19:13:59:404
-5,740000	0,630000	-2,030000	2020-10-29T19:13:59:426
-3,920000	0,910000	-1,750000	2020-10-29T19:13:59:444
-2,450000	0,840000	-0,910000	2020-10-29T19:13:59:466
-0,770000	1,470000	0,070000	2020-10-29T19:13:59:484
0,490000	1,610000	0,490000	2020-10-29T19:13:59:507
0,910000	1,890000	0,490000	2020-10-29T19:13:59:524
0,560000	2,100000	0,630000	2020-10-29T19:13:59:546
-0,280000	1,960000	0,770000	2020-10-29T19:13:59:564
-0,840000	1,680000	0,770000	2020-10-29T19:13:59:586
-1,050000	1,050000	0,490000	2020-10-29T19:13:59:604
0,210000	0,210000	-0,070000	2020-10-29T19:13:59:625
1,610000	0,630000	-0,630000	2020-10-29T19:13:59:644
1,190000	1,330000	-0,350000	2020-10-29T19:13:59:666
-1,120000	1,470000	-0,070000	2020-10-29T19:13:59:684
-3,150000	1,330000	-0,420000	2020-10-29T19:13:59:706
-3,710000	0,980000	-0,350000	2020-10-29T19:13:59:725
-2,170000	0,840000	-0,630000	2020-10-29T19:13:59:748
-0,910000	1,120000	-0,700000	2020-10-29T19:13:59:765
-2,660000	1,260000	-1,190000	2020-10-29T19:13:59:786
-4,970000	1,050000	-1,680000	2020-10-29T19:13:59:804
-5,810000	1,190000	-2,450000	2020-10-29T19:13:59:826
-4,550000	0,840000	-2,310000	2020-10-29T19:13:59:845
-4,200000	0,980000	-2,730000	2020-10-29T19:13:59:866
-4,340000	0,630000	-3,080000	2020-10-29T19:13:59:885
-3,850000	0,490000	-2,730000	2020-10-29T19:13:59:906
-2,800000	0,140000	-2,590000	2020-10-29T19:13:59:924
-2,100000	0,420000	-1,890000	2020-10-29T19:13:59:946
-2,240000	0,560000	-1,680000	2020-10-29T19:13:59:965
-2,100000	0,700000	-1,050000	2020-10-29T19:13:59:988
-1,960000	0,840000	-0,700000	2020-10-29T19:14:00:004
-1,890000	1,400000	-0,280000	2020-10-29T19:14:00:026
-1,820000	1,120000	-0,280000	2020-10-29T19:14:00:044
-0,910000	1,120000	-0,210000	2020-10-29T19:14:00:067
-0,420000	1,400000	-0,210000	2020-10-29T19:14:00:085
-1,050000	1,680000	-0,210000	2020-10-29T19:14:00:106
-1,190000	1,190000	0,280000	2020-10-29T19:14:00:125
-1,680000	1,400000	-0,210000	2020-10-29T19:14:00:146
-2,030000	1,260000	-0,210000	2020-10-29T19:14:00:165
-1,960000	1,540000	-0,630000	2020-10-29T19:14:00:186
-2,240000	0,700000	-0,420000	2020-10-29T19:14:00:205
-1,470000	0,700000	-0,560000	2020-10-29T19:14:00:228
-1,260000	1,330000	-0,770000	2020-10-29T19:14:00:245
-1,260000	1,330000	-0,350000	2020-10-29T19:14:00:267
-1,960000	1,330000	-0,420000	2020-10-29T19:14:00:285
-2,170000	1,050000	-0,210000	2020-10-29T19:14:00:307
-0,770000	0,840000	-0,280000	2020-10-29T19:14:00:325
0,560000	1,120000	-0,280000	2020-10-29T19:14:00:347
0,560000	1,470000	-0,210000	2020-10-29T19:14:00:365
-0,770000	0,980000	-0,070000	2020-10-29T19:14:00:387
-1,400000	0,700000	-0,420000	2020-10-29T19:14:00:405
-0,210000	0,770000	-0,280000	2020-10-29T19:14:00:427
0,560000	1,190000	-0,630000	2020-10-29T19:14:00:446
0,140000	0,980000	-0,560000	2020-10-29T19:14:00:469
-0,840000	1,190000	-0,420000	2020-10-29T19:14:00:485
-1,120000	0,980000	-0,420000	2020-10-29T19:14:00:507
-0,910000	0,840000	-0,910000	2020-10-29T19:14:00:525
-1,400000	1,190000	-0,910000	2020-10-29T19:14:00:547
-0,980000	0,770000	-0,350000	2020-10-29T19:14:00:565
-0,630000	1,120000	-0,630000	2020-10-29T19:14:00:587
-1,330000	0,910000	-0,560000	2020-10-29T19:14:00:605
-1,680000	0,840000	-0,280000	2020-10-29T19:14:00:627
-2,100000	1,260000	-0,280000	2020-10-29T19:14:00:645
-1,890000	0,910000	0,140000	2020-10-29T19:14:00:667
-1,750000	0,980000	-0,070000	2020-10-29T19:14:00:685
-2,380000	1,120000	-0,210000	2020-10-29T19:14:00:708
-1,890000	1,120000	-0,420000	2020-10-29T19:14:00:724
-1,610000	1,190000	-0,420000	2020-10-29T19:14:00:748
-1,750000	1,050000	-0,280000	2020-10-29T19:14:00:766
-0,770000	1,400000	-0,280000	2020-10-29T19:14:00:787
-0,910000	1,190000	-0,420000	2020-10-29T19:14:00:805
-0,770000	1,050000	-0,420000	2020-10-29T19:14:00:827
0,140000	1,120000	0,210000	2020-10-29T19:14:00:846
1,540000	0,980000	0,280000	2020-10-29T19:14:00:869
1,470000	1,610000	0,210000	2020-10-29T19:14:00:885
1,190000	1,260000	0,210000	2020-10-29T19:14:00:907
1,120000	0,840000	-0,070000	2020-10-29T19:14:00:925
0,350000	0,980000	-0,210000	2020-10-29T19:14:00:951
0,350000	1,330000	-0,350000	2020-10-29T19:14:00:965
-0,210000	1,330000	-0,700000	2020-10-29T19:14:00:987
-1,750000	0,840000	-0,770000	2020-10-29T19:14:01:005
-1,820000	0,630000	-0,770000	2020-10-29T19:14:01:028
-1,120000	1,050000	-0,700000	2020-10-29T19:14:01:046
-1,050000	1,190000	-0,560000	2020-10-29T19:14:01:068
-1,190000	1,260000	-0,490000	2020-10-29T19:14:01:086
-1,330000	1,470000	-0,210000	2020-10-29T19:14:01:107
-1,610000	1,190000	-0,210000	2020-10-29T19:14:01:125
-1,680000	1,190000	0,350000	2020-10-29T19:14:01:148
-0,070000	1,330000	0,490000	2020-10-29T19:14:01:166
0,770000	1,610000	0,140000	2020-10-29T19:14:01:189
0,770000	1,750000	0,210000	2020-10-29T19:14:01:206
-1,120000	1,120000	0,140000	2020-10-29T19:14:01:228
-0,910000	1,190000	-0,070000	2020-10-29T19:14:01:246
-0,700000	1,120000	-0,140000	2020-10-29T19:14:01:268
-1,260000	1,470000	-0,280000	2020-10-29T19:14:01:286
-1,400000	1,190000	0,210000	2020-10-29T19:14:01:307
-0,700000	1,470000	0,070000	2020-10-29T19:14:01:326
-0,630000	1,470000	0,280000	2020-10-29T19:14:01:349
0,420000	1,400000	0,350000	2020-10-29T19:14:01:366
1,120000	1,400000	0,070000	2020-10-29T19:14:01:388
0,070000	1,400000	0,140000	2020-10-29T19:14:01:406
-0,560000	1,400000	0,070000	2020-10-29T19:14:01:429
-0,700000	1,260000	0,070000	2020-10-29T19:14:01:445
-1,750000	1,050000	0,280000	2020-10-29T19:14:01:468
-1,610000	1,120000	-0,070000	2020-10-29T19:14:01:486
-0,700000	1,120000	-0,210000	2020-10-29T19:14:01:508
-0,210000	1,330000	-0,140000	2020-10-29T19:14:01:526
-0,770000	1,190000	-0,140000	2020-10-29T19:14:01:548
-1,470000	1,260000	-0,140000	2020-10-29T19:14:01:566
-1,960000	1,330000	-0,070000	2020-10-29T19:14:01:588
-1,470000	1,330000	-0,070000	2020-10-29T19:14:01:605
-0,700000	1,260000	-0,070000	2020-10-29T19:14:01:628
-0,280000	1,400000	0,280000	2020-10-29T19:14:01:646
-0,280000	1,750000	0,350000	2020-10-29T19:14:01:669
-0,490000	1,610000	0,420000	2020-10-29T19:14:01:686
-1,050000	1,400000	0,560000	2020-10-29T19:14:01:708
-0,980000	2,030000	0,840000	2020-10-29T19:14:01:726
-1,190000	2,730000	1,120000	2020-10-29T19:14:01:748
-2,310000	2,240000	1,330000	2020-10-29T19:14:01:766
-1,820000	1,400000	1,120000	2020-10-29T19:14:01:788
1,120000	1,050000	0,840000	2020-10-29T19:14:01:806
3,080000	0,910000	0,630000	2020-10-29T19:14:01:828
2,310000	0,350000	0,350000	2020-10-29T19:14:01:846
2,590000	-0,210000	0,070000	2020-10-29T19:14:01:868
2,030000	0,280000	-0,490000	2020-10-29T19:14:01:887
0,420000	0,560000	-0,490000	2020-10-29T19:14:01:909
-1,260000	1,120000	-0,770000	2020-10-29T19:14:01:926
-1,680000	0,910000	-0,770000	2020-10-29T19:14:01:949
-1,470000	1,330000	-0,770000	2020-10-29T19:14:01:968
-1,330000	0,840000	-0,770000	2020-10-29T19:14:01:989
-0,560000	0,770000	-0,700000	2020-10-29T19:14:02:007
0,140000	1,330000	-0,700000	2020-10-29T19:14:02:028
-1,120000	1,540000	-0,420000	2020-10-29T19:14:02:047
-2,380000	1,190000	0,070000	2020-10-29T19:14:02:068
-1,960000	1,260000	0,070000	2020-10-29T19:14:02:087
-1,330000	1,470000	0,070000	2020-10-29T19:14:02:108
-0,840000	1,610000	-0,070000	2020-10-29T19:14:02:126
-1,470000	1,470000	-0,420000	2020-10-29T19:14:02:150
-2,100000	0,910000	-0,630000	2020-10-29T19:14:02:170
-1,960000	1,120000	-0,980000	2020-10-29T19:14:02:189
-1,750000	1,260000	-0,840000	2020-10-29T19:14:02:207
-2,030000	1,050000	-0,980000	2020-10-29T19:14:02:230
-2,520000	0,770000	-0,980000	2020-10-29T19:14:02:247
-1,960000	0,840000	-0,490000	2020-10-29T19:14:02:270
-1,260000	1,120000	-0,350000	2020-10-29T19:14:02:287
-1,470000	1,260000	-0,140000	2020-10-29T19:14:02:310
-1,050000	1,330000	-0,140000	2020-10-29T19:14:02:327
-0,420000	0,980000	-0,070000	2020-10-29T19:14:02:351
-1,190000	1,330000	-0,140000	2020-10-29T19:14:02:366
-3,290000	1,540000	0,070000	2020-10-29T19:14:02:389
-6,090000	1,330000	0,630000	2020-10-29T19:14:02:407
-6,580000	1,330000	1,050000	2020-10-29T19:14:02:431
-5,180000	1,330000	1,190000	2020-10-29T19:14:02:446
-3,290000	1,820000	0,630000	2020-10-29T19:14:02:471
-1,470000	1,050000	0,210000	2020-10-29T19:14:02:487
0,140000	1,400000	-0,350000	2020-10-29T19:14:02:510
0,840000	1,120000	-0,840000	2020-10-29T19:14:02:527
0,210000	0,910000	-0,700000	2020-10-29T19:14:02:550
-1,260000	0,630000	-0,980000	2020-10-29T19:14:02:567
-1,120000	0,700000	-1,050000	2020-10-29T19:14:02:590
-0,210000	0,840000	-0,770000	2020-10-29T19:14:02:607
-0,210000	1,050000	-0,630000	2020-10-29T19:14:02:630
0,070000	0,980000	-0,350000	2020-10-29T19:14:02:646
0,560000	1,610000	-0,350000	2020-10-29T19:14:02:670
0,070000	1,470000	-0,350000	2020-10-29T19:14:02:687
-0,420000	1,120000	-0,350000	2020-10-29T19:14:02:710
-0,140000	1,400000	0,140000	2020-10-29T19:14:02:727
-0,910000	1,680000	-0,070000	2020-10-29T19:14:02:750
-2,030000	1,400000	-0,070000	2020-10-29T19:14:02:767
-2,940000	0,910000	-0,420000	2020-10-29T19:14:02:789
-2,100000	0,840000	-0,280000	2020-10-29T19:14:02:807
-1,190000	0,840000	-0,770000	2020-10-29T19:14:02:830
-0,770000	1,330000	-0,980000	2020-10-29T19:14:02:847
-1,610000	1,330000	-0,700000	2020-10-29T19:14:02:871
-2,240000	0,700000	-0,700000	2020-10-29T19:14:02:886
-1,960000	0,700000	-0,770000	2020-10-29T19:14:02:910
-1,890000	1,400000	-0,980000	2020-10-29T19:14:02:927
-2,240000	1,190000	-0,840000	2020-10-29T19:14:02:950
-1,890000	0,560000	-0,840000	2020-10-29T19:14:02:967
-2,030000	0,910000	-0,630000	2020-10-29T19:14:02:990
-3,080000	0,840000	-0,560000	2020-10-29T19:14:03:007
-3,010000	0,700000	-0,770000	2020-10-29T19:14:03:029
-2,170000	0,910000	-0,910000	2020-10-29T19:14:03:048
-2,170000	0,910000	-0,770000	2020-10-29T19:14:03:075
-2,100000	0,280000	-1,120000	2020-10-29T19:14:03:088
-2,170000	0,700000	-1,400000	2020-10-29T19:14:03:110
-2,730000	0,840000	-1,260000	2020-10-29T19:14:03:127
-3,640000	0,840000	-1,540000	2020-10-29T19:14:03:151
-3,430000	0,630000	-1,400000	2020-10-29T19:14:03:168
-3,430000	0,980000	-1,400000	2020-10-29T19:14:03:190
-4,620000	1,540000	-1,400000	2020-10-29T19:14:03:207
-6,440000	1,890000	-0,980000	2020-10-29T19:14:03:230
-6,510000	0,280000	-0,770000	2020-10-29T19:14:03:248
-4,900000	0,490000	-0,910000	2020-10-29T19:14:03:270
-1,890000	0,770000	-0,700000	2020-10-29T19:14:03:287
1,260000	0,980000	-0,630000	2020-10-29T19:14:03:311
0,700000	0,420000	-1,120000	2020-10-29T19:14:03:328
-0,910000	-0,070000	-0,980000	2020-10-29T19:14:03:353
-1,050000	0,350000	-1,120000	2020-10-29T19:14:03:368
0,140000	0,770000	-0,840000	2020-10-29T19:14:03:391
0,840000	0,910000	-0,980000	2020-10-29T19:14:03:408
-0,420000	1,890000	-0,700000	2020-10-29T19:14:03:430
-2,030000	1,890000	-0,210000	2020-10-29T19:14:03:447
-2,310000	2,240000	-0,070000	2020-10-29T19:14:03:471
-4,130000	2,590000	-0,070000	2020-10-29T19:14:03:488
0,210000	1,120000	1,680000	2020-10-29T19:14:03:510
2,870000	1,400000	-0,070000	2020-10-29T19:14:03:528
1,960000	1,610000	0,210000	2020-10-29T19:14:03:551
0,490000	0,910000	-0,210000	2020-10-29T19:14:03:569
-0,070000	0,560000	-0,700000	2020-10-29T19:14:03:591
-1,050000	0,560000	-0,770000	2020-10-29T19:14:03:608
-2,310000	0,700000	-0,980000	2020-10-29T19:14:03:631
-2,100000	0,490000	-0,980000	2020-10-29T19:14:03:648
-1,400000	0,980000	-0,840000	2020-10-29T19:14:03:670
-1,610000	0,840000	-0,700000	2020-10-29T19:14:03:688
-1,540000	0,700000	-0,700000	2020-10-29T19:14:03:711
-2,030000	1,190000	-0,210000	2020-10-29T19:14:03:728
-2,800000	1,050000	-0,280000	2020-10-29T19:14:03:750
-3,290000	0,910000	-0,350000	2020-10-29T19:14:03:768
-3,010000	0,980000	-0,140000	2020-10-29T19:14:03:791
-2,310000	1,330000	-0,350000	2020-10-29T19:14:03:808
-2,590000	1,470000	-0,280000	2020-10-29T19:14:03:831
-3,220000	0,980000	-0,280000	2020-10-29T19:14:03:848
-2,660000	1,400000	-0,070000	2020-10-29T19:14:03:871
-2,170000	1,120000	-0,210000	2020-10-29T19:14:03:889
-1,820000	1,260000	-0,280000	2020-10-29T19:14:03:911
-2,170000	1,470000	-0,350000	2020-10-29T19:14:03:928
-3,220000	1,750000	-0,350000	2020-10-29T19:14:03:951
-4,690000	1,890000	-0,280000	2020-10-29T19:14:03:969
-6,300000	2,030000	-0,420000	2020-10-29T19:14:03:990
-4,970000	1,750000	0,070000	2020-10-29T19:14:04:008
-2,380000	1,680000	-0,140000	2020-10-29T19:14:04:031
-0,700000	1,610000	0,070000	2020-10-29T19:14:04:049
1,050000	0,910000	0,140000	2020-10-29T19:14:04:072
1,890000	1,120000	-0,210000	2020-10-29T19:14:04:088
1,960000	1,330000	0,280000	2020-10-29T19:14:04:112
0,840000	1,540000	0,490000	2020-10-29T19:14:04:129
-0,420000	1,470000	0,490000	2020-10-29T19:14:04:151
-1,120000	1,400000	0,350000	2020-10-29T19:14:04:169
-1,540000	1,750000	0,210000	2020-10-29T19:14:04:191
-2,450000	1,190000	0,210000	2020-10-29T19:14:04:209
-1,750000	0,980000	-0,280000	2020-10-29T19:14:04:231
-0,420000	0,980000	-0,840000	2020-10-29T19:14:04:249
-0,280000	0,980000	-1,330000	2020-10-29T19:14:04:272
-0,980000	1,540000	-0,840000	2020-10-29T19:14:04:289
-1,890000	1,120000	-0,560000	2020-10-29T19:14:04:312
-1,680000	0,630000	-0,770000	2020-10-29T19:14:04:329
-0,490000	1,330000	-0,490000	2020-10-29T19:14:04:352
-0,490000	1,610000	-0,070000	2020-10-29T19:14:04:369
-0,280000	1,400000	0,210000	2020-10-29T19:14:04:391
-0,350000	1,260000	0,350000	2020-10-29T19:14:04:409
0,210000	1,470000	0,490000	2020-10-29T19:14:04:432
0,070000	1,540000	0,420000	2020-10-29T19:14:04:449
-0,210000	1,610000	0,420000	2020-10-29T19:14:04:471
-0,560000	1,330000	0,210000	2020-10-29T19:14:04:489
-1,260000	1,610000	0,140000	2020-10-29T19:14:04:512
-1,820000	1,610000	0,070000	2020-10-29T19:14:04:529
-1,890000	1,470000	0,210000	2020-10-29T19:14:04:552
-1,120000	1,050000	0,070000	2020-10-29T19:14:04:569
-1,120000	1,120000	-0,140000	2020-10-29T19:14:04:592
0,560000	1,190000	-0,070000	2020-10-29T19:14:04:609
0,770000	1,260000	-0,070000	2020-10-29T19:14:04:631
0,350000	1,190000	-0,210000	2020-10-29T19:14:04:649
-0,840000	0,980000	-0,280000	2020-10-29T19:14:04:672
-1,120000	0,630000	-0,070000	2020-10-29T19:14:04:689
-0,420000	1,050000	-0,210000	2020-10-29T19:14:04:711
-0,420000	1,330000	-0,070000	2020-10-29T19:14:04:729
-0,350000	1,540000	-0,070000	2020-10-29T19:14:04:752
-0,140000	1,400000	0,210000	2020-10-29T19:14:04:769
0,140000	1,190000	0,280000	2020-10-29T19:14:04:794
0,420000	1,680000	0,490000	2020-10-29T19:14:04:809
0,490000	1,680000	0,770000	2020-10-29T19:14:04:832
0,840000	1,190000	0,700000	2020-10-29T19:14:04:849
0,840000	1,330000	0,210000	2020-10-29T19:14:04:872
-0,140000	1,330000	-0,140000	2020-10-29T19:14:04:889
-0,980000	1,260000	-0,280000	2020-10-29T19:14:04:912
-2,030000	0,980000	-0,490000	2020-10-29T19:14:04:929
-2,380000	1,050000	-0,700000	2020-10-29T19:14:04:952
-1,890000	1,050000	-0,770000	2020-10-29T19:14:04:969
-1,750000	1,050000	-0,560000	2020-10-29T19:14:04:993
-1,470000	1,190000	-0,490000	2020-10-29T19:14:05:009
-0,210000	1,260000	-0,420000	2020-10-29T19:14:05:032
0,070000	1,330000	-0,070000	2020-10-29T19:14:05:050
-0,840000	1,050000	-0,070000	2020-10-29T19:14:05:073
-1,190000	1,190000	-0,070000	2020-10-29T19:14:05:090
-0,210000	1,750000	0,210000	2020-10-29T19:14:05:112
-0,490000	1,540000	0,420000	2020-10-29T19:14:05:132
-1,190000	1,470000	0,210000	2020-10-29T19:14:05:153
-1,190000	1,400000	0,210000	2020-10-29T19:14:05:170
-1,260000	1,680000	0,420000	2020-10-29T19:14:05:192
-1,540000	1,750000	0,280000	2020-10-29T19:14:05:209
-1,050000	1,260000	0,210000	2020-10-29T19:14:05:232
-0,210000	1,190000	0,070000	2020-10-29T19:14:05:250
-0,210000	1,400000	0,140000	2020-10-29T19:14:05:273
-0,280000	1,470000	0,140000	2020-10-29T19:14:05:290
-0,490000	1,120000	0,140000	2020-10-29T19:14:05:313
0,140000	1,260000	0,140000	2020-10-29T19:14:05:330
0,210000	2,030000	0,490000	2020-10-29T19:14:05:352
-1,470000	1,540000	0,420000	2020-10-29T19:14:05:370
-1,400000	1,400000	0,560000	2020-10-29T19:14:05:393
0,070000	1,680000	0,280000	2020-10-29T19:14:05:410
-0,140000	1,540000	0,140000	2020-10-29T19:14:05:432
-0,350000	1,260000	0,490000	2020-10-29T19:14:05:449
-0,210000	1,050000	0,210000	2020-10-29T19:14:05:473
-0,070000	0,910000	-0,140000	2020-10-29T19:14:05:490
0,350000	1,400000	-0,280000	2020-10-29T19:14:05:513
0,210000	1,400000	-0,420000	2020-10-29T19:14:05:530
-1,120000	1,120000	-0,420000	2020-10-29T19:14:05:553
-1,890000	1,260000	0,140000	2020-10-29T19:14:05:570
-1,260000	1,050000	-0,070000	2020-10-29T19:14:05:592
0,070000	1,680000	-0,070000	2020-10-29T19:14:05:610
-0,560000	1,120000	0,070000	2020-10-29T19:14:05:633
-0,280000	1,120000	0,070000	2020-10-29T19:14:05:650
0,350000	1,400000	0,350000	2020-10-29T19:14:05:673
0,350000	1,330000	0,210000	2020-10-29T19:14:05:690
0,210000	1,120000	0,350000	2020-10-29T19:14:05:713
1,610000	0,840000	0,140000	2020-10-29T19:14:05:730
4,130000	0,630000	-0,070000	2020-10-29T19:14:05:754
5,250000	1,330000	-0,070000	2020-10-29T19:14:05:770
3,220000	1,540000	0,070000	2020-10-29T19:14:05:793
1,470000	0,910000	0,560000	2020-10-29T19:14:05:810
-0,210000	1,400000	0,420000	2020-10-29T19:14:05:833
-1,120000	1,750000	0,560000	2020-10-29T19:14:05:850
-0,560000	1,610000	0,630000	2020-10-29T19:14:05:873
-0,770000	1,540000	0,280000	2020-10-29T19:14:05:890
-0,770000	1,400000	0,210000	2020-10-29T19:14:05:912
-0,280000	1,750000	0,140000	2020-10-29T19:14:05:930
-1,330000	1,400000	0,210000	2020-10-29T19:14:05:953
-1,890000	1,120000	0,210000	2020-10-29T19:14:05:971
-0,560000	1,330000	0,280000	2020-10-29T19:14:05:992
0,700000	1,610000	0,420000	2020-10-29T19:14:06:010
0,350000	1,190000	0,490000	2020-10-29T19:14:06:033
0,350000	1,190000	0,420000	2020-10-29T19:14:06:051
-0,280000	1,610000	0,210000	2020-10-29T19:14:06:073
-0,140000	1,750000	0,350000	2020-10-29T19:14:06:091
-1,260000	1,610000	0,210000	2020-10-29T19:14:06:115
-1,610000	0,980000	0,350000	2020-10-29T19:14:06:130
-0,700000	1,540000	0,280000	2020-10-29T19:14:06:153
-0,700000	1,750000	0,630000	2020-10-29T19:14:06:170
-0,350000	1,540000	0,560000	2020-10-29T19:14:06:193
-0,350000	1,190000	0,490000	2020-10-29T19:14:06:210
0,420000	1,330000	0,490000	2020-10-29T19:14:06:235
0,630000	2,100000	0,490000	2020-10-29T19:14:06:250
-0,420000	1,400000	0,420000	2020-10-29T19:14:06:274
-0,980000	1,190000	0,280000	2020-10-29T19:14:06:291
-0,700000	1,330000	0,070000	2020-10-29T19:14:06:313
-0,350000	1,750000	0,070000	2020-10-29T19:14:06:331
-0,700000	1,610000	0,070000	2020-10-29T19:14:06:354
-2,030000	1,330000	0,070000	2020-10-29T19:14:06:371
-1,540000	0,980000	0,280000	2020-10-29T19:14:06:393
-0,490000	1,330000	0,070000	2020-10-29T19:14:06:411
0,280000	1,750000	0,350000	2020-10-29T19:14:06:434
-0,140000	1,610000	0,140000	2020-10-29T19:14:06:451
-0,630000	1,260000	0,210000	2020-10-29T19:14:06:474
-0,350000	1,190000	0,140000	2020-10-29T19:14:06:490
-0,070000	1,680000	0,210000	2020-10-29T19:14:06:515
-1,260000	1,610000	0,070000	2020-10-29T19:14:06:531
-1,470000	1,120000	0,070000	2020-10-29T19:14:06:553
-1,050000	1,050000	-0,280000	2020-10-29T19:14:06:571
-0,910000	1,540000	-0,140000	2020-10-29T19:14:06:594
-0,770000	1,400000	-0,140000	2020-10-29T19:14:06:611
-1,540000	1,190000	-0,210000	2020-10-29T19:14:06:633
-1,260000	1,400000	-0,070000	2020-10-29T19:14:06:651
-0,700000	1,400000	-0,210000	2020-10-29T19:14:06:674
-0,910000	1,330000	-0,140000	2020-10-29T19:14:06:691
-1,120000	1,120000	-0,140000	2020-10-29T19:14:06:716
-0,630000	1,190000	-0,140000	2020-10-29T19:14:06:731
-0,630000	1,260000	-0,140000	2020-10-29T19:14:06:754
0,070000	1,260000	-0,070000	2020-10-29T19:14:06:771
-0,700000	1,540000	-0,140000	2020-10-29T19:14:06:793
-1,330000	1,400000	-0,140000	2020-10-29T19:14:06:811
-1,400000	1,190000	-0,140000	2020-10-29T19:14:06:834
-0,770000	1,330000	-0,070000	2020-10-29T19:14:06:851
-0,770000	1,330000	-0,140000	2020-10-29T19:14:06:873
0,420000	1,470000	-0,140000	2020-10-29T19:14:06:891
-0,630000	1,400000	-0,140000	2020-10-29T19:14:06:913
-1,400000	1,260000	-0,140000	2020-10-29T19:14:06:931
-0,980000	0,980000	-0,140000	2020-10-29T19:14:06:956
-0,140000	1,120000	-0,140000	2020-10-29T19:14:06:971
0,490000	1,330000	-0,210000	2020-10-29T19:14:06:993
0,070000	1,540000	-0,280000	2020-10-29T19:14:07:011
-0,980000	1,330000	-0,070000	2020-10-29T19:14:07:033
-1,050000	0,980000	-0,070000	2020-10-29T19:14:07:052
-0,560000	1,050000	-0,210000	2020-10-29T19:14:07:073
0,070000	1,330000	-0,210000	2020-10-29T19:14:07:094
0,140000	1,400000	-0,210000	2020-10-29T19:14:07:118
-0,280000	1,190000	0,070000	2020-10-29T19:14:07:136
-0,560000	1,190000	0,070000	2020-10-29T19:14:07:155
-0,560000	1,190000	0,210000	2020-10-29T19:14:07:175
1,120000	1,050000	0,070000	2020-10-29T19:14:07:197
1,750000	1,050000	0,070000	2020-10-29T19:14:07:212
1,120000	1,470000	0,070000	2020-10-29T19:14:07:233
-0,630000	1,470000	0,070000	2020-10-29T19:14:07:251
-1,470000	0,980000	0,070000	2020-10-29T19:14:07:274
-1,330000	1,260000	-0,210000	2020-10-29T19:14:07:291
-0,840000	1,260000	-0,210000	2020-10-29T19:14:07:313
-0,350000	1,470000	-0,210000	2020-10-29T19:14:07:332
-0,490000	1,260000	-0,140000	2020-10-29T19:14:07:354
-0,490000	1,400000	-0,140000	2020-10-29T19:14:07:372
-0,420000	1,330000	-0,070000	2020-10-29T19:14:07:393
-0,630000	1,400000	0,070000	2020-10-29T19:14:07:412
-0,420000	1,540000	0,070000	2020-10-29T19:14:07:435
-0,070000	1,190000	0,070000	2020-10-29T19:14:07:451
-0,070000	1,050000	-0,070000	2020-10-29T19:14:07:474
0,490000	1,540000	-0,070000	2020-10-29T19:14:07:491
0,560000	1,260000	-0,070000	2020-10-29T19:14:07:513
0,280000	1,120000	-0,070000	2020-10-29T19:14:07:531
-0,350000	1,330000	-0,140000	2020-10-29T19:14:07:552
-0,630000	1,120000	-0,070000	2020-10-29T19:14:07:572
-0,490000	1,190000	-0,140000	2020-10-29T19:14:07:593
-0,910000	1,190000	-0,210000	2020-10-29T19:14:07:612
-0,840000	1,120000	-0,280000	2020-10-29T19:14:07:634
-0,560000	1,260000	-0,280000	2020-10-29T19:14:07:653
-0,840000	1,330000	-0,140000	2020-10-29T19:14:07:675
-0,700000	1,120000	-0,140000	2020-10-29T19:14:07:692
-0,490000	1,400000	-0,140000	2020-10-29T19:14:07:714
-0,700000	1,400000	-0,140000	2020-10-29T19:14:07:732
-0,560000	1,400000	-0,070000	2020-10-29T19:14:07:755
-0,910000	1,330000	-0,070000	2020-10-29T19:14:07:772
-1,330000	1,260000	-0,070000	2020-10-29T19:14:07:793
-0,700000	1,260000	-0,140000	2020-10-29T19:14:07:812
-0,070000	1,260000	-0,140000	2020-10-29T19:14:07:834
-0,280000	1,540000	-0,070000	2020-10-29T19:14:07:852
-0,630000	1,190000	-0,070000	2020-10-29T19:14:07:874
-0,490000	1,050000	-0,070000	2020-10-29T19:14:07:892
-0,210000	1,330000	0,070000	2020-10-29T19:14:07:915
-0,210000	1,470000	0,070000	2020-10-29T19:14:07:933
-0,070000	1,330000	-0,140000	2020-10-29T19:14:07:954
-0,280000	1,190000	-0,070000	2020-10-29T19:14:07:973
-0,280000	1,540000	-0,070000	2020-10-29T19:14:07:994
-0,280000	1,260000	-0,070000	2020-10-29T19:14:08:012
-0,700000	1,120000	-0,140000	2020-10-29T19:14:08:034
-0,840000	1,470000	-0,140000	2020-10-29T19:14:08:053
-0,210000	1,400000	-0,140000	2020-10-29T19:14:08:075
-0,210000	1,260000	-0,070000	2020-10-29T19:14:08:092
-0,630000	1,260000	-0,070000	2020-10-29T19:14:08:114
-0,350000	1,120000	-0,070000	2020-10-29T19:14:08:132
-0,140000	1,260000	-0,070000	2020-10-29T19:14:08:156
-0,910000	1,540000	-0,070000	2020-10-29T19:14:08:172
-1,190000	1,610000	0,070000	2020-10-29T19:14:08:194
-1,190000	1,400000	0,070000	2020-10-29T19:14:08:213
-1,330000	1,190000	-0,140000	2020-10-29T19:14:08:235
-0,770000	1,540000	-0,070000	2020-10-29T19:14:08:253
-0,210000	1,470000	-0,070000	2020-10-29T19:14:08:275
-0,350000	1,190000	-0,210000	2020-10-29T19:14:08:293
-0,840000	1,260000	-0,140000	2020-10-29T19:14:08:315
-0,840000	1,260000	-0,070000	2020-10-29T19:14:08:332
-0,840000	1,330000	-0,070000	2020-10-29T19:14:08:355
-1,050000	1,330000	-0,070000	2020-10-29T19:14:08:372
-0,770000	1,260000	-0,070000	2020-10-29T19:14:08:395
0,070000	1,470000	-0,070000	2020-10-29T19:14:08:413
-0,140000	0,840000	-0,140000	2020-10-29T19:14:08:434
-0,490000	1,400000	-0,140000	2020-10-29T19:14:08:452
-0,840000	1,820000	0,140000	2020-10-29T19:14:08:475
-2,590000	1,540000	0,140000	2020-10-29T19:14:08:493
-3,920000	1,820000	0,210000	2020-10-29T19:14:08:515
-3,010000	1,400000	0,210000	2020-10-29T19:14:08:533
-0,770000	0,560000	-0,140000	2020-10-29T19:14:08:554
1,400000	0,980000	-0,350000	2020-10-29T19:14:08:573
2,030000	1,470000	-0,280000	2020-10-29T19:14:08:595
0,630000	1,120000	-0,140000	2020-10-29T19:14:08:613
-1,260000	0,980000	-0,210000	2020-10-29T19:14:08:635
-1,260000	0,910000	-0,140000	2020-10-29T19:14:08:653
-0,350000	1,400000	-0,210000	2020-10-29T19:14:08:675
-0,210000	1,190000	-0,280000	2020-10-29T19:14:08:693
-0,560000	0,910000	-0,350000	2020-10-29T19:14:08:715
-0,700000	1,120000	-0,420000	2020-10-29T19:14:08:733
-1,120000	1,470000	-0,280000	2020-10-29T19:14:08:755
-1,750000	1,330000	-0,490000	2020-10-29T19:14:08:773
-1,050000	0,770000	-0,420000	2020-10-29T19:14:08:795
-0,490000	1,400000	-0,490000	2020-10-29T19:14:08:813
-0,700000	1,260000	-0,280000	2020-10-29T19:14:08:835
-0,770000	1,120000	-0,560000	2020-10-29T19:14:08:853
-1,120000	1,330000	-0,210000	2020-10-29T19:14:08:876
-0,770000	1,400000	-0,070000	2020-10-29T19:14:08:892
-0,420000	1,400000	-0,210000	2020-10-29T19:14:08:915
-0,560000	1,120000	-0,280000	2020-10-29T19:14:08:933
-0,700000	1,470000	-0,140000	2020-10-29T19:14:08:955
-1,120000	1,400000	-0,140000	2020-10-29T19:14:08:973
-1,190000	1,190000	0,070000	2020-10-29T19:14:08:995
-1,190000	1,190000	0,070000	2020-10-29T19:14:09:013
0,560000	1,260000	-0,210000	2020-10-29T19:14:09:035
-0,420000	1,540000	-0,140000	2020-10-29T19:14:09:053
-1,890000	1,400000	-0,070000	2020-10-29T19:14:09:075
-2,030000	1,050000	-0,070000	2020-10-29T19:14:09:093
-0,910000	0,980000	-0,070000	2020-10-29T19:14:09:117
-0,140000	1,400000	-0,210000	2020-10-29T19:14:09:133
0,420000	1,540000	-0,140000	2020-10-29T19:14:09:155
-0,420000	1,260000	-0,140000	2020-10-29T19:14:09:174
-2,030000	1,190000	-0,140000	2020-10-29T19:14:09:195
-1,960000	1,260000	-0,070000	2020-10-29T19:14:09:214
-0,770000	1,120000	-0,140000	2020-10-29T19:14:09:235
-0,630000	1,330000	-0,350000	2020-10-29T19:14:09:254
-0,280000	1,190000	-0,140000	2020-10-29T19:14:09:276
-0,560000	1,330000	-0,280000	2020-10-29T19:14:09:293
-1,820000	1,120000	-0,280000	2020-10-29T19:14:09:315
-1,960000	1,120000	-0,210000	2020-10-29T19:14:09:334
-0,910000	1,260000	-0,280000	2020-10-29T19:14:09:357
-1,050000	1,610000	-0,210000	2020-10-29T19:14:09:373
-0,980000	1,190000	-0,140000	2020-10-29T19:14:09:395
-0,980000	1,400000	-0,210000	2020-10-29T19:14:09:414
-1,470000	1,260000	-0,070000	2020-10-29T19:14:09:435
-1,750000	1,330000	-0,140000	2020-10-29T19:14:09:453
-1,610000	1,330000	-0,210000	2020-10-29T19:14:09:476
-1,470000	1,470000	-0,210000	2020-10-29T19:14:09:494
-1,540000	1,400000	-0,210000	2020-10-29T19:14:09:515
-1,890000	1,260000	-0,210000	2020-10-29T19:14:09:534
-2,100000	1,050000	-0,140000	2020-10-29T19:14:09:555
-1,400000	1,190000	-0,210000	2020-10-29T19:14:09:574
-0,840000	1,400000	-0,210000	2020-10-29T19:14:09:595
-1,120000	0,980000	-0,210000	2020-10-29T19:14:09:614
-1,400000	1,400000	-0,210000	2020-10-29T19:14:09:635
-1,330000	1,470000	-0,210000	2020-10-29T19:14:09:654
-1,470000	1,400000	-0,070000	2020-10-29T19:14:09:676
-1,330000	0,980000	-0,280000	2020-10-29T19:14:09:694
-1,190000	1,260000	-0,210000	2020-10-29T19:14:09:715
-0,980000	1,400000	-0,210000	2020-10-29T19:14:09:734
-1,120000	1,190000	-0,070000	2020-10-29T19:14:09:756
-1,190000	1,190000	-0,070000	2020-10-29T19:14:09:774
-1,050000	1,400000	-0,070000	2020-10-29T19:14:09:796
-1,470000	1,400000	-0,070000	2020-10-29T19:14:09:814
-1,540000	1,050000	-0,070000	2020-10-29T19:14:09:837
-0,770000	1,400000	-0,140000	2020-10-29T19:14:09:855
-0,770000	1,540000	-0,210000	2020-10-29T19:14:09:876
-1,050000	1,260000	-0,210000	2020-10-29T19:14:09:894
-1,050000	1,330000	-0,210000	2020-10-29T19:14:09:916
-1,540000	1,540000	0,070000	2020-10-29T19:14:09:934
-1,120000	1,260000	-0,070000	2020-10-29T19:14:09:955
-0,980000	1,400000	-0,070000	2020-10-29T19:14:09:974
-0,840000	1,470000	-0,210000	2020-10-29T19:14:09:996
-1,120000	1,260000	-0,280000	2020-10-29T19:14:10:014
-1,400000	1,190000	-0,210000	2020-10-29T19:14:10:036
-1,190000	1,260000	-0,210000	2020-10-29T19:14:10:055
-1,330000	1,330000	-0,140000	2020-10-29T19:14:10:076
-1,820000	1,470000	-0,140000	2020-10-29T19:14:10:095
-1,610000	1,330000	-0,210000	2020-10-29T19:14:10:116
-0,980000	1,190000	-0,140000	2020-10-29T19:14:10:134
-1,470000	1,330000	-0,350000	2020-10-29T19:14:10:157
-1,330000	1,330000	-0,350000	2020-10-29T19:14:10:174
-1,050000	1,470000	-0,210000	2020-10-29T19:14:10:196
-1,960000	1,540000	-0,280000	2020-10-29T19:14:10:214
-2,450000	1,330000	-0,280000	2020-10-29T19:14:10:423
-2,030000	1,330000	-0,280000	2020-10-29T19:14:10:424
-2,030000	1,540000	-0,070000	2020-10-29T19:14:10:426
-1,260000	1,260000	-0,070000	2020-10-29T19:14:10:429
-0,350000	0,980000	-0,280000	2020-10-29T19:14:10:429
0,070000	1,330000	-0,140000	2020-10-29T19:14:10:430
-0,630000	1,400000	-0,140000	2020-10-29T19:14:10:431
-1,260000	1,050000	-0,140000	2020-10-29T19:14:10:431
-0,910000	0,980000	-0,280000	2020-10-29T19:14:10:432
-0,280000	1,330000	-0,280000	2020-10-29T19:14:10:433
-0,910000	1,610000	-0,140000	2020-10-29T19:14:10:434
-1,960000	1,190000	-0,070000	2020-10-29T19:14:10:471
-1,470000	0,910000	-0,070000	2020-10-29T19:14:10:476
-0,490000	1,260000	-0,280000	2020-10-29T19:14:10:493
-0,210000	1,540000	-0,280000	2020-10-29T19:14:10:521
-1,050000	1,400000	-0,280000	2020-10-29T19:14:10:536
-1,400000	0,910000	-0,070000	2020-10-29T19:14:10:557
-0,560000	1,120000	-0,140000	2020-10-29T19:14:10:575
-0,560000	1,470000	-0,070000	2020-10-29T19:14:10:596
-0,140000	1,540000	0,070000	2020-10-29T19:14:10:615
-0,700000	1,400000	0,070000	2020-10-29T19:14:10:636
-0,770000	1,260000	0,210000	2020-10-29T19:14:10:654
-0,560000	1,400000	-0,070000	2020-10-29T19:14:10:677
-0,560000	1,470000	-0,070000	2020-10-29T19:14:10:695
-0,770000	1,260000	-0,210000	2020-10-29T19:14:10:716
-0,840000	1,190000	-0,280000	2020-10-29T19:14:10:734
-0,980000	1,050000	-0,210000	2020-10-29T19:14:10:757
-0,840000	1,190000	-0,280000	2020-10-29T19:14:10:787
-0,910000	1,330000	-0,210000	2020-10-29T19:14:10:800
-0,980000	1,330000	-0,070000	2020-10-29T19:14:10:827
-0,280000	1,120000	-0,070000	2020-10-29T19:14:10:844
-0,350000	1,470000	-0,140000	2020-10-29T19:14:10:858
-0,770000	1,400000	-0,140000	2020-10-29T19:14:10:876
-0,700000	1,120000	-0,210000	2020-10-29T19:14:10:900
-0,350000	1,400000	-0,420000	2020-10-29T19:14:11:023
-1,960000	0,980000	-0,420000	2020-10-29T19:14:11:039
-1,960000	1,050000	-0,700000	2020-10-29T19:14:11:054
-1,400000	1,120000	-0,490000	2020-10-29T19:14:11:079
-1,120000	1,330000	-0,350000	2020-10-29T19:14:11:095
-0,840000	1,050000	-0,280000	2020-10-29T19:14:11:117
-0,490000	1,260000	-0,490000	2020-10-29T19:14:11:135
-1,120000	1,540000	-0,280000	2020-10-29T19:14:11:157
-2,030000	1,470000	0,070000	2020-10-29T19:14:11:177
-1,610000	0,980000	0,070000	2020-10-29T19:14:11:197
-0,560000	1,330000	-0,140000	2020-10-29T19:14:11:217
0,350000	1,400000	-0,140000	2020-10-29T19:14:11:241
-0,210000	1,610000	-0,140000	2020-10-29T19:14:11:259
-1,470000	1,050000	0,070000	2020-10-29T19:14:11:284
-0,840000	1,330000	-0,070000	2020-10-29T19:14:31:220
-0,980000	1,400000	-0,070000	2020-10-29T19:14:31:220
-1,050000	1,260000	-0,140000	2020-10-29T19:14:31:221
-0,420000	0,980000	-0,280000	2020-10-29T19:14:31:222
0,070000	1,050000	-0,490000	2020-10-29T19:14:31:223
0,140000	1,470000	-0,210000	2020-10-29T19:14:31:263
-0,840000	1,330000	-0,140000	2020-10-29T19:14:31:264
-1,050000	0,980000	-0,140000	2020-10-29T19:14:31:264
-1,050000	1,190000	-0,070000	2020-10-29T19:14:31:337
0,280000	1,540000	0,140000	2020-10-29T19:14:31:350
-0,630000	1,330000	0,070000	2020-10-29T19:14:31:351
-1,190000	1,190000	0,070000	2020-10-29T19:14:31:351
-0,280000	1,190000	-0,070000	2020-10-29T19:14:31:351
-0,280000	1,400000	-0,280000	2020-10-29T19:14:31:352
-0,070000	1,330000	-0,140000	2020-10-29T19:14:31:352
-0,420000	1,190000	-0,350000	2020-10-29T19:14:31:353
-0,910000	1,190000	-0,210000	2020-10-29T19:14:31:369
-0,910000	1,260000	-0,140000	2020-10-29T19:14:31:387
-0,490000	1,190000	-0,140000	2020-10-29T19:14:31:410
-0,280000	1,330000	-0,070000	2020-10-29T19:14:31:430
-0,280000	1,470000	-0,140000	2020-10-29T19:14:31:450
-0,280000	1,190000	-0,140000	2020-10-29T19:14:31:470
-0,070000	0,980000	-0,210000	2020-10-29T19:14:31:492
0,140000	1,330000	-0,210000	2020-10-29T19:14:31:510
0,140000	1,470000	-0,070000	2020-10-29T19:14:31:535
0,070000	1,120000	-0,070000	2020-10-29T19:14:31:561
0,350000	1,050000	0,070000	2020-10-29T19:14:31:581
1,050000	1,330000	0,070000	2020-10-29T19:14:31:600
1,400000	1,400000	-0,280000	2020-10-29T19:14:31:614
0,770000	1,330000	-0,350000	2020-10-29T19:14:31:629
-0,140000	1,190000	-0,420000	2020-10-29T19:14:31:676
-0,210000	1,050000	-0,350000	2020-10-29T19:14:31:678
0,280000	0,840000	-0,560000	2020-10-29T19:14:31:699
0,350000	1,330000	-0,840000	2020-10-29T19:14:31:710
0,280000	1,050000	-0,700000	2020-10-29T19:14:31:732
-0,070000	1,540000	-0,350000	2020-10-29T19:14:31:750
-0,490000	1,120000	-0,140000	2020-10-29T19:14:31:772
0,140000	1,120000	-0,350000	2020-10-29T19:14:31:790
0,560000	1,470000	-0,070000	2020-10-29T19:14:31:812
0,070000	1,540000	0,070000	2020-10-29T19:14:31:830
0,280000	1,190000	0,630000	2020-10-29T19:14:31:852
0,490000	1,400000	0,560000	2020-10-29T19:14:31:871
1,330000	1,540000	0,700000	2020-10-29T19:14:31:899
1,820000	1,610000	0,350000	2020-10-29T19:14:31:911
1,400000	1,540000	0,560000	2020-10-29T19:14:31:933
0,350000	1,540000	0,560000	2020-10-29T19:14:31:950
0,210000	1,540000	0,700000	2020-10-29T19:14:31:973
0,210000	1,540000	0,560000	2020-10-29T19:14:31:990
-0,280000	1,470000	0,630000	2020-10-29T19:14:32:012
-0,420000	1,540000	0,490000	2020-10-29T19:14:32:030
-0,210000	1,540000	0,560000	2020-10-29T19:14:32:053
-0,280000	1,400000	0,350000	2020-10-29T19:14:32:070
-0,140000	1,470000	0,280000	2020-10-29T19:14:32:092
-0,140000	1,470000	0,140000	2020-10-29T19:14:32:110
-0,140000	1,470000	0,140000	2020-10-29T19:14:32:133
-1,050000	1,470000	0,070000	2020-10-29T19:14:32:150
-1,470000	1,330000	0,210000	2020-10-29T19:14:32:172
-0,700000	0,980000	0,210000	2020-10-29T19:14:32:190
-0,140000	1,120000	-0,280000	2020-10-29T19:14:32:214
-0,070000	1,400000	-0,280000	2020-10-29T19:14:32:244
-0,910000	1,260000	-0,280000	2020-10-29T19:15:01:315
-0,840000	1,260000	-0,070000	2020-10-29T19:15:01:316
-0,910000	1,330000	-0,140000	2020-10-29T19:15:01:317
-0,910000	1,260000	-0,140000	2020-10-29T19:15:01:319
-1,050000	1,330000	-0,140000	2020-10-29T19:15:01:320
-1,540000	1,400000	-0,070000	2020-10-29T19:15:01:323
-1,680000	1,260000	-0,070000	2020-10-29T19:15:01:355
-1,750000	1,190000	-0,140000	2020-10-29T19:15:01:356
-1,540000	1,260000	-0,140000	2020-10-29T19:15:01:360
-1,260000	1,330000	-0,140000	2020-10-29T19:15:01:360
-1,190000	1,330000	-0,070000	2020-10-29T19:15:01:361
-1,610000	1,330000	-0,140000	2020-10-29T19:15:01:369
-1,610000	1,190000	-0,140000	2020-10-29T19:15:01:370
-1,680000	1,330000	-0,140000	2020-10-29T19:15:01:371
-1,680000	1,330000	-0,140000	2020-10-29T19:15:01:381
-1,470000	1,260000	-0,070000	2020-10-29T19:15:01:399
-1,050000	1,260000	-0,070000	2020-10-29T19:15:01:413
-0,980000	1,540000	-0,070000	2020-10-29T19:15:01:431
-1,540000	1,400000	-0,070000	2020-10-29T19:15:01:455
-2,030000	1,190000	-0,140000	2020-10-29T19:15:01:473
-2,030000	1,330000	-0,140000	2020-10-29T19:15:01:496
-2,100000	1,470000	-0,070000	2020-10-29T19:15:01:514
-1,820000	1,260000	-0,070000	2020-10-29T19:15:01:537
-0,980000	1,260000	-0,140000	2020-10-29T19:15:01:553
-0,630000	1,260000	-0,210000	2020-10-29T19:15:01:575
-0,770000	1,400000	-0,210000	2020-10-29T19:15:01:594
-1,190000	1,330000	-0,210000	2020-10-29T19:15:01:616
-1,750000	1,260000	-0,070000	2020-10-29T19:15:01:633
-1,400000	1,260000	-0,070000	2020-10-29T19:15:01:655
-0,910000	1,330000	-0,070000	2020-10-29T19:15:01:674
-1,120000	1,400000	-0,070000	2020-10-29T19:15:01:697
-1,540000	1,330000	-0,070000	2020-10-29T19:15:01:731
-10,570000	6,090000	-16,940001	2020-10-29T19:17:03:242
-0,840000	8,470000	-11,620000	2020-10-29T19:17:03:281
-6,720000	4,830000	-1,050000	2020-10-29T19:17:03:316
-4,480000	0,490000	7,490000	2020-10-29T19:17:03:318
-0,210000	-1,960000	12,390000	2020-10-29T19:17:03:320
8,050000	-2,380000	19,950001	2020-10-29T19:17:03:322
11,200000	-1,470000	18,549999	2020-10-29T19:17:03:322
12,810000	-0,630000	18,620001	2020-10-29T19:17:03:746
12,460000	0,420000	13,090000	2020-10-29T19:17:03:748
8,750000	-0,980000	8,400000	2020-10-29T19:17:03:749
4,410000	-3,080000	5,600000	2020-10-29T19:17:03:750
3,710000	-0,980000	3,850000	2020-10-29T19:17:03:754
-6,720000	-0,420000	-1,050000	2020-10-29T19:17:03:755
-24,500000	1,400000	-10,710000	2020-10-29T19:17:03:756
-29,469999	6,580000	-19,530001	2020-10-29T19:17:03:758
-27,790001	7,420000	-15,540000	2020-10-29T19:17:03:759
-13,090000	10,220000	-6,650000	2020-10-29T19:17:03:760
-2,240000	10,220000	2,590000	2020-10-29T19:17:03:761
1,610000	11,760000	-6,160000	2020-10-29T19:17:03:762
6,720000	11,760000	-13,020000	2020-10-29T19:17:03:762
0,280000	10,010000	-10,920000	2020-10-29T19:17:03:763
2,660000	8,820000	-4,340000	2020-10-29T19:17:03:763
-2,030000	5,810000	-3,150000	2020-10-29T19:17:03:764
-4,480000	3,640000	-3,150000	2020-10-29T19:17:03:764
-2,030000	2,310000	0,770000	2020-10-29T19:17:03:765
-2,590000	1,680000	-2,240000	2020-10-29T19:17:03:766
-4,060000	-1,330000	-7,490000	2020-10-29T19:17:03:835
-4,970000	0,140000	-5,390000	2020-10-29T19:17:03:836
-4,970000	1,610000	-6,580000	2020-10-29T19:17:03:836
-7,980000	-0,560000	-7,420000	2020-10-29T19:17:03:837
-8,330000	-0,910000	-4,690000	2020-10-29T19:17:03:838
-4,270000	0,840000	0,700000	2020-10-29T19:17:03:844
-3,500000	-0,910000	0,700000	2020-10-29T19:17:03:844
0,140000	-2,240000	-3,920000	2020-10-29T19:17:03:845
5,950000	-0,070000	-2,940000	2020-10-29T19:17:03:857
6,790000	-3,010000	-3,010000	2020-10-29T19:17:03:864
7,560000	-0,560000	-5,600000	2020-10-29T19:17:03:864
4,410000	1,680000	1,820000	2020-10-29T19:17:03:865
-8,610000	2,030000	7,700000	2020-10-29T19:17:03:869
-20,230000	-4,690000	10,640000	2020-10-29T19:17:03:887
-12,110000	-6,300000	5,740000	2020-10-29T19:17:03:903
-1,190000	-0,840000	-4,200000	2020-10-29T19:17:03:941
16,309999	10,640000	-16,100000	2020-10-29T19:17:03:996
19,320000	2,800000	3,920000	2020-10-29T19:17:03:996
0,980000	-1,890000	-2,590000	2020-10-29T19:17:03:997
-4,480000	-0,980000	1,890000	2020-10-29T19:17:04:009
-0,350000	-0,490000	1,890000	2020-10-29T19:17:04:026
4,760000	-1,260000	-0,350000	2020-10-29T19:17:04:047
1,400000	-11,620000	18,830000	2020-10-29T19:17:04:064
-2,450000	-14,350000	6,510000	2020-10-29T19:17:04:091
10,640000	-6,860000	3,710000	2020-10-29T19:17:04:108
20,930000	-2,660000	-2,870000	2020-10-29T19:17:04:128
13,160000	-1,540000	-5,460000	2020-10-29T19:17:04:144
7,560000	-3,150000	0,840000	2020-10-29T19:17:04:168
-4,620000	-4,410000	4,270000	2020-10-29T19:17:04:185
-10,780000	-6,160000	6,510000	2020-10-29T19:17:04:210
-13,090000	-9,520000	10,360000	2020-10-29T19:17:04:226
-17,639999	-9,380000	4,200000	2020-10-29T19:17:04:249
-16,030001	-6,440000	-8,190000	2020-10-29T19:17:04:268
-0,350000	-16,520000	-18,900000	2020-10-29T19:17:04:295
10,710000	-24,219999	-49,700001	2020-10-29T19:17:04:306
17,710001	-16,730000	-30,799999	2020-10-29T19:17:04:362
15,540000	-10,360000	-18,969999	2020-10-29T19:17:04:363
-12,040000	-10,640000	7,140000	2020-10-29T19:17:04:402
-24,710001	-16,940001	-4,550000	2020-10-29T19:17:04:404
-16,660000	-10,780000	-1,540000	2020-10-29T19:17:04:429
-2,100000	-13,230000	-1,750000	2020-10-29T19:17:04:436
0,840000	-13,020000	-4,550000	2020-10-29T19:17:04:447
-0,490000	-16,660000	-5,810000	2020-10-29T19:17:04:475
-8,960000	-9,240000	-2,240000	2020-10-29T19:17:04:487
-6,230000	-9,870000	-9,310000	2020-10-29T19:17:04:505
-1,260000	-3,360000	-12,600000	2020-10-29T19:17:04:528
-2,590000	-3,430000	-16,309999	2020-10-29T19:17:04:552
-10,360000	-1,120000	-22,960001	2020-10-29T19:17:04:570
-20,719999	-15,190001	-24,710001	2020-10-29T19:17:04:602
-32,200001	-4,690000	-21,980000	2020-10-29T19:17:04:613
-9,730000	5,250000	-5,810000	2020-10-29T19:17:04:630
-12,040000	11,200000	2,520000	2020-10-29T19:17:04:674
-3,850000	11,970000	7,420000	2020-10-29T19:17:04:686
4,410000	9,870000	10,430000	2020-10-29T19:17:04:698
9,730000	9,030000	8,610000	2020-10-29T19:17:04:720
14,840000	7,910000	5,110000	2020-10-29T19:17:04:737
8,330000	8,750000	2,800000	2020-10-29T19:17:04:745
7,910000	9,520000	7,350000	2020-10-29T19:17:04:768
7,980000	9,520000	9,240000	2020-10-29T19:17:04:785
4,060000	5,880000	6,580000	2020-10-29T19:17:04:812
1,820000	6,090000	3,920000	2020-10-29T19:17:04:830
2,100000	6,440000	3,570000	2020-10-29T19:17:04:850
4,410000	8,960000	5,460000	2020-10-29T19:17:04:867
4,480000	9,100000	5,110000	2020-10-29T19:17:04:891
7,700000	7,700000	7,840000	2020-10-29T19:17:04:909
6,930000	5,320000	9,170000	2020-10-29T19:17:04:931
5,320000	5,880000	18,900000	2020-10-29T19:17:04:955
3,080000	13,930000	35,840000	2020-10-29T19:17:04:970
11,270000	8,470000	13,300000	2020-10-29T19:17:05:005
10,080000	7,070000	4,480000	2020-10-29T19:17:05:015
-0,630000	5,950000	-1,400000	2020-10-29T19:17:05:055
-6,860000	2,100000	1,330000	2020-10-29T19:17:05:056
-24,290001	3,500000	-1,400000	2020-10-29T19:17:05:068
-26,110001	0,980000	-12,600000	2020-10-29T19:17:05:091
-27,440001	0,840000	-22,750000	2020-10-29T19:17:05:106
-22,400000	-1,120000	-35,630001	2020-10-29T19:17:05:130
-21,770000	-0,560000	-50,119999	2020-10-29T19:17:05:146
-28,700001	-0,070000	-64,330002	2020-10-29T19:17:05:188
-11,970000	-0,070000	-57,330002	2020-10-29T19:17:05:188
5,600000	4,200000	-23,309999	2020-10-29T19:17:05:252
9,660000	1,680000	-11,340000	2020-10-29T19:17:05:253
15,470000	0,700000	5,110000	2020-10-29T19:17:05:470
10,570000	0,420000	24,360001	2020-10-29T19:17:05:470
9,660000	1,400000	35,560001	2020-10-29T19:17:05:471
26,389999	4,270000	28,840000	2020-10-29T19:17:05:472
28,490000	12,180000	27,299999	2020-10-29T19:17:05:473
12,950000	10,220000	16,030001	2020-10-29T19:17:05:474
1,680000	6,650000	7,210000	2020-10-29T19:17:05:475
3,220000	6,230000	7,000000	2020-10-29T19:17:05:475
-0,910000	6,440000	2,870000	2020-10-29T19:17:05:476
1,540000	7,700000	1,400000	2020-10-29T19:17:05:487
1,400000	7,770000	-0,280000	2020-10-29T19:17:05:488
9,100000	19,600000	42,209999	2020-10-29T19:17:05:490
-1,120000	6,090000	23,309999	2020-10-29T19:17:05:512
-3,220000	1,540000	1,540000	2020-10-29T19:17:05:513
0,280000	2,660000	-3,010000	2020-10-29T19:17:05:543
1,680000	4,550000	0,840000	2020-10-29T19:17:05:548
2,170000	4,830000	-2,940000	2020-10-29T19:17:05:585
3,080000	5,950000	-4,760000	2020-10-29T19:17:05:589
11,690000	6,720000	-5,040000	2020-10-29T19:17:05:635
10,080000	6,090000	-3,640000	2020-10-29T19:17:05:636
4,340000	4,620000	-2,870000	2020-10-29T19:17:05:663
-1,680000	2,310000	-0,070000	2020-10-29T19:17:05:679
-1,050000	1,050000	-1,610000	2020-10-29T19:17:05:694
0,070000	1,890000	-0,140000	2020-10-29T19:17:05:722
0,280000	1,540000	0,770000	2020-10-29T19:17:05:730
8,470000	3,220000	-0,980000	2020-10-29T19:17:05:753
20,719999	6,510000	-3,990000	2020-10-29T19:17:05:770
16,940001	7,700000	-5,180000	2020-10-29T19:17:05:789
5,740000	6,300000	-5,530000	2020-10-29T19:17:05:823
0,770000	4,900000	-0,280000	2020-10-29T19:17:05:830
-5,180000	2,310000	-0,280000	2020-10-29T19:17:05:851
-6,300000	1,050000	-1,680000	2020-10-29T19:17:05:867
-7,560000	-1,400000	-4,340000	2020-10-29T19:17:05:889
-4,970000	-3,080000	-9,100000	2020-10-29T19:17:05:908
-1,750000	-0,630000	-6,020000	2020-10-29T19:17:05:931
-2,240000	0,560000	-2,170000	2020-10-29T19:17:05:948
-2,870000	1,820000	-1,960000	2020-10-29T19:17:05:971
-2,660000	2,100000	-1,610000	2020-10-29T19:17:05:988
-2,590000	1,820000	4,550000	2020-10-29T19:17:06:015
-9,380000	1,820000	9,660000	2020-10-29T19:17:06:029
-7,840000	-0,140000	9,590000	2020-10-29T19:17:06:059
-5,600000	0,140000	7,070000	2020-10-29T19:17:06:075
-8,120000	0,210000	5,810000	2020-10-29T19:17:06:092
-5,810000	0,350000	3,990000	2020-10-29T19:17:06:108
-3,990000	0,980000	1,190000	2020-10-29T19:17:06:146
-4,410000	1,820000	0,560000	2020-10-29T19:17:06:165
-0,140000	3,080000	1,050000	2020-10-29T19:17:06:170
10,920000	5,320000	-0,490000	2020-10-29T19:17:06:190
16,030001	5,530000	-1,190000	2020-10-29T19:17:06:209
6,300000	3,780000	-0,070000	2020-10-29T19:17:06:227
0,420000	2,940000	-0,490000	2020-10-29T19:17:06:250
2,590000	2,240000	-0,070000	2020-10-29T19:17:06:267
4,970000	0,560000	-0,910000	2020-10-29T19:17:06:289
7,210000	0,630000	-1,400000	2020-10-29T19:17:06:306
14,840000	2,730000	0,420000	2020-10-29T19:17:06:330
15,540000	6,370000	6,160000	2020-10-29T19:17:06:347
17,850000	9,450000	10,710000	2020-10-29T19:17:06:370
13,650000	6,510000	3,780000	2020-10-29T19:17:06:387
0,630000	1,680000	-4,690000	2020-10-29T19:17:06:410
-6,090000	-1,400000	-7,840000	2020-10-29T19:17:06:427
-15,820000	-6,020000	0,700000	2020-10-29T19:17:06:450
-27,370001	-6,370000	3,430000	2020-10-29T19:17:06:468
-17,639999	-2,240000	3,710000	2020-10-29T19:17:06:491
-1,890000	1,330000	0,140000	2020-10-29T19:17:06:507
-0,980000	2,450000	-2,030000	2020-10-29T19:17:06:529
3,850000	3,990000	-4,200000	2020-10-29T19:17:06:546
9,450000	5,040000	-4,340000	2020-10-29T19:17:06:571
7,630000	4,270000	-3,850000	2020-10-29T19:17:06:587
7,350000	3,920000	-3,080000	2020-10-29T19:17:06:609
6,580000	3,570000	2,660000	2020-10-29T19:17:06:627
-16,940001	-0,630000	16,100000	2020-10-29T19:17:06:650
-27,370001	-6,160000	-2,450000	2020-10-29T19:17:06:667
-1,470000	-0,910000	3,010000	2020-10-29T19:17:06:690
10,430000	4,550000	-0,630000	2020-10-29T19:17:06:707
-3,360000	2,310000	0,630000	2020-10-29T19:17:06:732
-4,620000	-0,630000	0,420000	2020-10-29T19:17:06:747
3,990000	1,540000	-0,700000	2020-10-29T19:17:06:769
3,360000	1,610000	-0,770000	2020-10-29T19:17:06:787
-2,310000	0,490000	-0,350000	2020-10-29T19:17:06:811
-1,960000	1,120000	-0,070000	2020-10-29T19:17:06:828
0,350000	1,820000	-0,490000	2020-10-29T19:17:06:850
-1,400000	0,910000	-0,770000	2020-10-29T19:17:06:867
-1,750000	0,560000	-0,490000	2020-10-29T19:17:06:891
0,070000	1,120000	-0,420000	2020-10-29T19:17:06:907
0,210000	1,540000	-0,490000	2020-10-29T19:17:06:930
-0,980000	1,050000	-0,280000	2020-10-29T19:17:06:947
-0,700000	0,700000	-0,350000	2020-10-29T19:17:06:971
-0,280000	1,190000	-0,350000	2020-10-29T19:17:06:987
-0,070000	1,610000	-0,280000	2020-10-29T19:17:07:010
0,280000	0,910000	-0,210000	2020-10-29T19:17:07:028
-0,140000	1,050000	-0,140000	2020-10-29T19:17:07:051
-0,210000	1,190000	-0,140000	2020-10-29T19:17:07:068
1,050000	1,190000	-0,070000	2020-10-29T19:17:07:090
36,470001	-2,030000	0,700000	2020-10-29T19:17:07:108
34,090000	3,640000	-7,210000	2020-10-29T19:17:07:131
-4,060000	-1,050000	2,800000	2020-10-29T19:17:07:147
-15,680000	4,690000	3,780000	2020-10-29T19:17:07:171
-23,309999	6,160000	1,050000	2020-10-29T19:17:07:188
-22,540001	-4,760000	0,350000	2020-10-29T19:17:07:211
0,280000	0,910000	-0,070000	2020-10-29T19:17:07:233
8,540000	5,600000	-1,330000	2020-10-29T19:17:07:270
-2,870000	0,700000	0,840000	2020-10-29T19:17:07:369
-7,280000	-0,280000	0,420000	2020-10-29T19:17:07:370
0,910000	2,240000	0,280000	2020-10-29T19:17:07:370
2,030000	2,380000	-0,280000	2020-10-29T19:17:07:371
-3,080000	0,980000	0,280000	2020-10-29T19:17:07:371
-2,730000	1,260000	0,280000	2020-10-29T19:17:07:372
-0,350000	1,820000	-0,140000	2020-10-29T19:17:07:389
-1,400000	1,750000	0,140000	2020-10-29T19:17:07:411
-1,680000	1,330000	0,350000	2020-10-29T19:17:07:427
-0,490000	1,470000	0,070000	2020-10-29T19:17:07:455
-0,140000	1,680000	0,070000	2020-10-29T19:17:07:469
-0,770000	1,540000	0,140000	2020-10-29T19:17:07:490
-0,840000	1,330000	0,070000	2020-10-29T19:17:07:508
-1,050000	1,540000	0,070000	2020-10-29T19:17:07:533
-0,910000	1,330000	0,140000	2020-10-29T19:17:07:550
-0,560000	1,260000	-0,210000	2020-10-29T19:17:07:573
-0,490000	1,470000	0,070000	2020-10-29T19:17:07:608
-0,420000	1,400000	0,070000	2020-10-29T19:17:07:618
-0,350000	1,400000	0,070000	2020-10-29T19:17:07:638
-0,840000	1,260000	0,140000	2020-10-29T19:17:07:654
-0,770000	1,330000	0,070000	2020-10-29T19:17:07:673
-0,420000	1,400000	0,070000	2020-10-29T19:17:07:693
-0,420000	1,330000	0,070000	2020-10-29T19:17:07:708
-0,210000	1,470000	-0,210000	2020-10-29T19:17:07:731
-0,490000	1,260000	-0,140000	2020-10-29T19:17:07:750
-0,840000	1,050000	-0,280000	2020-10-29T19:17:07:773
-0,630000	1,190000	-0,210000	2020-10-29T19:17:07:790
-0,210000	1,330000	-0,070000	2020-10-29T19:17:07:812
0,420000	1,190000	-0,140000	2020-10-29T19:17:07:831
-0,140000	1,680000	-0,140000	2020-10-29T19:17:07:854
-1,050000	1,960000	0,140000	2020-10-29T19:17:07:872
-2,660000	1,890000	0,280000	2020-10-29T19:17:07:892
-4,900000	1,330000	0,770000	2020-10-29T19:17:07:912
-6,020000	1,050000	0,070000	2020-10-29T19:17:07:934
-2,870000	1,050000	-0,420000	2020-10-29T19:17:07:952
0,490000	1,820000	-0,350000	2020-10-29T19:17:07:972
1,400000	1,540000	-0,350000	2020-10-29T19:17:07:991
1,610000	0,700000	-0,770000	2020-10-29T19:17:08:013
1,610000	1,260000	-0,210000	2020-10-29T19:17:08:032
0,140000	1,400000	0,140000	2020-10-29T19:17:08:052
-0,420000	1,120000	0,070000	2020-10-29T19:17:08:072
-0,140000	1,190000	-0,210000	2020-10-29T19:17:08:093
-0,350000	0,980000	0,210000	2020-10-29T19:17:08:111
-0,070000	1,190000	-0,070000	2020-10-29T19:17:08:132
0,210000	1,680000	-0,280000	2020-10-29T19:17:08:151
0,280000	1,400000	-0,350000	2020-10-29T19:17:08:175
-0,280000	1,330000	-0,140000	2020-10-29T19:17:08:192
-2,170000	1,820000	-0,140000	2020-10-29T19:17:08:213
-3,850000	2,170000	0,140000	2020-10-29T19:17:08:231
-4,200000	1,400000	0,630000	2020-10-29T19:17:08:253
-3,500000	1,190000	0,280000	2020-10-29T19:17:08:271
-2,240000	1,680000	-0,070000	2020-10-29T19:17:08:293
-2,240000	1,960000	0,070000	2020-10-29T19:17:08:311
0,770000	1,120000	-0,350000	2020-10-29T19:17:08:333
0,350000	0,910000	-0,350000	2020-10-29T19:17:08:351
-0,420000	1,470000	-0,140000	2020-10-29T19:17:08:376
0,560000	1,400000	-0,210000	2020-10-29T19:17:08:392
0,350000	1,050000	-0,420000	2020-10-29T19:17:08:415
6,020000	-0,070000	-0,210000	2020-10-29T19:17:08:432
24,150000	-0,350000	-2,800000	2020-10-29T19:17:08:456
26,320000	-0,910000	-4,060000	2020-10-29T19:17:08:470
7,700000	0,910000	-1,260000	2020-10-29T19:17:08:493
-11,200000	0,980000	1,330000	2020-10-29T19:17:08:510
-22,680000	1,470000	2,660000	2020-10-29T19:17:08:532
-26,040001	3,150000	3,290000	2020-10-29T19:17:08:550
-10,570000	2,170000	1,890000	2020-10-29T19:17:08:573
12,460000	3,990000	-2,380000	2020-10-29T19:17:08:590
4,130000	2,100000	-1,260000	2020-10-29T19:17:08:615
-4,130000	-0,770000	1,120000	2020-10-29T19:17:08:656
-0,840000	0,560000	-0,140000	2020-10-29T19:17:08:657
1,890000	2,310000	0,070000	2020-10-29T19:17:08:670
-1,820000	0,980000	0,070000	2020-10-29T19:17:08:691
-2,660000	0,560000	-0,070000	2020-10-29T19:17:08:712
0,070000	1,260000	-0,280000	2020-10-29T19:17:08:733
0,630000	1,680000	-0,420000	2020-10-29T19:17:08:749
-1,190000	1,330000	-0,420000	2020-10-29T19:17:08:771
-1,400000	0,840000	-0,420000	2020-10-29T19:17:08:789
-0,770000	1,260000	-0,140000	2020-10-29T19:17:08:811
-0,280000	1,330000	-0,140000	2020-10-29T19:17:08:829
-0,140000	1,260000	-0,210000	2020-10-29T19:17:08:855
-0,770000	1,330000	-0,280000	2020-10-29T19:17:08:873
-1,610000	1,120000	-0,280000	2020-10-29T19:17:08:894
-0,980000	1,120000	0,140000	2020-10-29T19:17:08:911
-0,280000	1,260000	0,140000	2020-10-29T19:17:08:936
-0,210000	1,120000	-0,070000	2020-10-29T19:17:08:953
0,070000	1,050000	-0,070000	2020-10-29T19:17:08:974
-0,140000	1,120000	-0,070000	2020-10-29T19:17:08:991
-0,490000	0,910000	0,140000	2020-10-29T19:17:09:013
-1,190000	0,980000	0,140000	2020-10-29T19:17:09:032
-0,910000	0,280000	0,070000	2020-10-29T19:17:09:054
0,420000	-0,140000	-0,210000	2020-10-29T19:17:09:072
3,570000	-1,960000	-0,980000	2020-10-29T19:17:09:093
7,490000	-3,290000	-2,660000	2020-10-29T19:17:09:112
15,330000	-5,250000	-3,290000	2020-10-29T19:17:09:136
23,100000	-6,510000	-4,620000	2020-10-29T19:17:09:150
26,460001	-5,880000	-6,300000	2020-10-29T19:17:09:173
22,260000	-8,540000	-3,360000	2020-10-29T19:17:09:192
18,059999	-6,160000	-2,520000	2020-10-29T19:17:09:214
21,139999	-1,190000	-1,890000	2020-10-29T19:17:09:232
18,270000	-2,030000	-1,190000	2020-10-29T19:17:09:253
10,640000	4,690000	-0,560000	2020-10-29T19:17:09:272
-5,390000	5,600000	2,030000	2020-10-29T19:17:09:294
-13,860000	2,730000	1,820000	2020-10-29T19:17:09:312
-11,830000	3,080000	1,400000	2020-10-29T19:17:09:334
-7,070000	3,360000	1,540000	2020-10-29T19:17:09:352
-7,210000	3,430000	1,330000	2020-10-29T19:17:09:377
-7,630000	3,500000	0,910000	2020-10-29T19:17:09:392
-5,040000	3,640000	1,050000	2020-10-29T19:17:09:414
-1,470000	4,270000	1,890000	2020-10-29T19:17:09:433
-0,700000	4,130000	2,730000	2020-10-29T19:17:09:454
-1,260000	2,730000	2,800000	2020-10-29T19:17:09:474
0,840000	1,960000	1,960000	2020-10-29T19:17:09:494
4,130000	2,240000	1,050000	2020-10-29T19:17:09:512
5,670000	2,310000	0,700000	2020-10-29T19:17:09:535
5,390000	2,240000	0,210000	2020-10-29T19:17:09:552
3,990000	2,030000	-0,140000	2020-10-29T19:17:09:575
2,590000	1,470000	-0,700000	2020-10-29T19:17:09:592
1,260000	1,190000	-1,120000	2020-10-29T19:17:09:615
-0,350000	1,470000	-1,540000	2020-10-29T19:17:09:632
-2,450000	1,680000	-1,470000	2020-10-29T19:17:09:653
-3,850000	0,840000	-1,120000	2020-10-29T19:17:09:672
-4,480000	0,560000	-1,610000	2020-10-29T19:17:09:695
-2,100000	0,280000	-1,750000	2020-10-29T19:17:09:712
-0,350000	1,120000	-1,750000	2020-10-29T19:17:09:736
-2,380000	1,190000	-1,540000	2020-10-29T19:17:09:755
4,760000	10,920000	0,630000	2020-10-29T19:17:09:776
28,350000	17,850000	10,920000	2020-10-29T19:17:09:799
-6,860000	3,430000	-10,150000	2020-10-29T19:17:09:814
-13,160000	-6,160000	-0,910000	2020-10-29T19:17:09:831
-15,330000	-9,380000	2,870000	2020-10-29T19:17:09:856
-21,980000	-14,070000	5,250000	2020-10-29T19:17:09:879
6,860000	-3,290000	-19,600000	2020-10-29T19:17:09:895
26,110001	9,310000	-0,630000	2020-10-29T19:17:09:912
-0,910000	3,290000	0,140000	2020-10-29T19:17:09:933
-18,270000	-3,850000	3,990000	2020-10-29T19:17:09:951
