1605793232.000000, 1605793232.000000, 1605793232.000000
32.000000, 32.000000, 32.000000
-26,-58,-5
-26,-60,-4
-22,-62,-4
-18,-62,-5
-14,-61,-3
-12,-57,6
-15,-54,10
-17,-52,10
-18,-53,9
-18,-55,11
-22,-67,12
-26,-82,14
-27,-102,21
-24,-83,16
-21,-76,13
-20,-77,11
-23,-80,12
-27,-82,12
-25,-77,12
-17,-68,12
-15,-58,11
-15,-54,10
-18,-50,8
-19,-50,7
-18,-49,7
-17,-48,11
-16,-49,13
-15,-49,14
-14,-49,15
-12,-49,19
-9,-48,19
-9,-49,18
-12,-54,20
-15,-59,21
-16,-71,23
-17,-77,24
-18,-83,26
-21,-78,29
-21,-68,28
-20,-60,24
-18,-65,24
-22,-69,20
-21,-65,15
-19,-62,15
-17,-58,14
-19,-56,14
-24,-54,15
-27,-53,18
-26,-55,20
-25,-58,22
-23,-59,24
-17,-59,29
-6,-62,34
-4,-65,31
-7,-73,17
-7,-70,19
4,-75,27
-1,-75,22
-15,-73,17
-27,-70,17
-30,-65,13
-27,-64,9
-22,-70,10
-12,-78,12
-7,-74,13
-8,-67,11
-10,-61,11
-13,-61,11
-16,-60,9
-13,-59,5
-9,-56,4
-6,-47,7
-7,-47,9
-8,-51,10
-9,-54,8
-9,-58,7
-7,-61,11
-8,-62,14
-13,-70,17
-13,-75,16
-12,-78,17
-12,-70,22
-11,-61,22
-13,-50,14
-14,-61,11
-16,-74,14
-14,-76,17
-12,-68,16
-10,-57,13
-12,-55,12
-16,-53,10
-18,-53,14
-19,-56,16
-18,-64,18
-18,-63,22
-7,-65,31
-3,-61,26
-9,-63,19
-9,-69,18
-9,-70,17
-4,-71,20
-8,-68,19
-17,-68,13
-25,-77,-3
-36,-72,-6
-21,-62,7
-15,-71,2
-8,-76,10
-12,-80,17
-12,-77,17
-8,-69,13
-7,-67,10
-10,-63,10
-13,-62,10
-18,-64,8
-22,-64,9
-21,-64,10
-17,-60,10
-15,-57,9
-32,-60,3
-16,-51,12
-20,-47,11
-1,-40,18
3,-45,16
10,-53,18
0,-63,25
-7,-68,28
-13,-76,30
-14,-75,27
-17,-70,23
-16,-67,22
-16,-72,17
-23,-76,6
-25,-74,4
-39,-75,-8
-25,-72,0
-18,-70,9
-14,-72,11
-13,-75,9
-24,-68,8
-26,-67,13
-32,-64,20
-32,-56,26
-27,-60,30
-8,-59,41
1,-65,38
0,-70,33
-10,-73,34
-14,-74,34
-19,-74,32
-28,-73,24
-34,-59,16
-32,-61,20
-16,-68,22
-16,-63,25
-18,-67,29
-21,-70,24
-23,-68,22
-21,-64,24
-19,-63,23
-21,-61,22
-21,-60,24
-21,-62,24
-17,-62,24
-13,-62,24
-10,-60,24
-6,-59,25
-5,-57,25
-5,-48,25
-5,-47,24
-4,-44,23
-5,-38,24
-8,-39,25
-8,-46,28
-9,-48,27
-18,-49,34
-22,-50,43
-20,-47,40
-18,-52,36
-19,-54,33
-23,-62,23
-32,-71,19
-36,-77,18
-37,-82,18
-39,-84,17
-41,-79,16
-37,-74,17
-34,-71,19
-31,-67,23
-29,-65,25
-28,-63,30
-28,-64,31
-24,-64,32
-20,-65,31
-20,-67,29
-21,-70,28
-20,-71,27
-20,-75,25
-21,-73,24
-24,-76,23
-18,-71,21
-18,-68,16
-22,-67,11
-21,-70,10
-21,-71,10
-22,-72,11
-22,-72,11
-22,-69,11
-22,-63,10
-22,-60,9
-23,-60,7
-24,-59,6
-28,-60,7
-23,-60,10
-15,-55,15
-7,-51,16
-4,-50,19
-2,-49,22
-2,-47,22
-2,-48,23
-7,-63,27
-8,-69,28
1,-64,29
0,-69,30
4,-71,33
5,-64,33
2,-51,32
-3,-55,31
-6,-61,32
-13,-67,30
-16,-66,31
-20,-58,31
-24,-58,27
-25,-60,24
-25,-62,25
-25,-62,25
-29,-62,18
-30,-61,14
-33,-60,12
-33,-62,9
-31,-62,8
-26,-59,12
-17,-60,8
-20,-58,9
-28,-56,0
-26,-53,-1
-24,-52,-1
-24,-56,2
-31,-69,8
-40,-75,3
-42,-74,-3
-42,-70,-12
-39,-68,-11
-33,-70,-11
-30,-67,-11
-27,-63,-8
-23,-60,-2
-24,-58,-2
-28,-56,-3
-30,-59,-2
-30,-63,-2
-28,-68,0
-26,-67,2
-23,-67,5
-20,-66,7
-21,-64,8
-23,-61,7
-24,-62,7
-24,-60,8
-22,-59,9
-20,-55,14
-19,-53,16
-17,-52,16
-15,-53,16
-15,-54,17
-13,-61,20
-13,-67,21
-13,-70,21
-16,-69,21
-18,-66,20
-18,-62,17
-19,-57,15
-20,-61,14
-19,-62,13
-16,-62,13
3,-59,16
-8,-57,19
-14,-57,21
-12,-58,17
-10,-59,19
-9,-61,22
-10,-63,22
-12,-62,23
-12,-59,24
-13,-58,24
-14,-57,26
-16,-56,25
-20,-54,22
-20,-59,24
-18,-61,25
-17,-69,23
-17,-76,22
-17,-80,22
-18,-82,23
-17,-78,22
-15,-63,17
-15,-61,16
-14,-62,15
-14,-62,16
-17,-65,16
-16,-65,16
-15,-64,16
-14,-61,16
-14,-59,15
-15,-57,13
-14,-56,13
-13,-54,14
-13,-53,13
-13,-52,13
-13,-52,14
-12,-53,15
-11,-55,15
-10,-57,16
-9,-60,17
-11,-70,18
-12,-73,21
-13,-72,19
-17,-64,18
-17,-59,19
-19,-64,17
-19,-68,16
-17,-68,14
-17,-62,12
-17,-59,12
-19,-56,12
-22,-54,10
-27,-55,10
-26,-58,16
-25,-60,17
-22,-61,21
-20,-60,23
-17,-58,25
-17,-60,25
-17,-65,28
-12,-69,28
-11,-72,27
-9,-73,27
-12,-72,26
-22,-77,22
-22,-64,12
-23,-60,6
-22,-68,0
-21,-84,0
-22,-82,0
-17,-65,1
-16,-61,3
-19,-57,5
-21,-57,5
-25,-56,5
-24,-56,9
-22,-54,11
-27,-51,14
-28,-50,14
-30,-49,12
-31,-49,13
-31,-50,15
-30,-51,17
-31,-54,17
-33,-64,19
-35,-67,22
-34,-69,26
-25,-62,24
-21,-59,22
-21,-57,14
-23,-57,11
-31,-60,15
-33,-60,21
-32,-54,19
-32,-50,15
-31,-48,14
-33,-48,8
-36,-49,12
-33,-54,19
-32,-56,15
-32,-56,12
-29,-57,16
-25,-56,17
-27,-55,16
-25,-55,16
-24,-54,16
-20,-54,16
-17,-52,17
-13,-53,14
-18,-62,14
-21,-68,16
-22,-75,16
-21,-73,13
-20,-64,8
-18,-54,7
-22,-53,7
-35,-54,8
-38,-57,10
-35,-63,13
-34,-66,14
-24,-69,17
-17,-66,19
-16,-65,20
-18,-63,19
-18,-63,19
-23,-61,15
-13,-59,17
-16,-58,18
-15,-57,20
-13,-58,19
-14,-62,16
-13,-64,16
-6,-61,14
-9,-69,12
-8,-73,11
-8,-73,7
-7,-72,7
-11,-72,9
-2,-67,5
-4,-67,3
2,-64,8
2,-64,10
2,-61,13
-2,-56,14
-4,-55,15
-5,-58,18
-7,-57,17
-12,-57,13
-13,-58,14
-12,-58,15
-15,-55,16
-16,-53,16
-16,-52,17
-17,-57,17
-18,-63,18
-15,-66,20
-14,-70,22
-15,-75,23
-18,-78,22
-22,-79,21
-20,-66,19
-20,-60,14
-8,-67,18
-4,-67,21
-8,-69,19
-16,-65,15
-18,-63,14
-18,-58,12
-18,-56,12
-16,-54,12
-14,-53,12
-13,-52,11
-13,-52,11
-13,-52,11
-14,-52,11
-14,-54,11
-14,-58,13
-14,-65,20
-12,-73,31
0,-80,24
-4,-81,19
-12,-66,32
-19,-46,33
-24,-44,28
-26,-54,21
-22,-60,18
-14,-66,17
-12,-65,18
-12,-62,17
-16,-56,17
-19,-54,16
-25,-53,13
-26,-53,12
-22,-53,16
-18,-52,19
-16,-52,21
-16,-51,22
-17,-54,23
-19,-61,25
-20,-65,26
-21,-68,25
-20,-72,27
-20,-70,26
-22,-74,24
-22,-68,22
-21,-61,19
-19,-61,18
-18,-68,19
-17,-77,19
-16,-74,17
-14,-68,14
-12,-62,17
-13,-60,16
-15,-56,12
-15,-55,11
-15,-56,12
-12,-55,15
-12,-53,15
-12,-53,15
-12,-53,15
-11,-54,16
-10,-54,18
-9,-55,19
-10,-61,21
-11,-67,23
-13,-69,25
-14,-67,28
-13,-68,29
-10,-57,30
-9,-53,28
-6,-60,23
-5,-66,22
-7,-65,21
-12,-60,20
-14,-57,20
-17,-53,18
-19,-51,18
-22,-51,17
-19,-55,20
-17,-57,21
-13,-56,24
-11,-55,24
-15,-53,24
-10,-59,28
-9,-61,29
-11,-69,28
-11,-70,29
-13,-70,29
-15,-75,30
-21,-81,28
-19,-76,19
-16,-73,17
-10,-74,15
-8,-77,15
-7,-77,14
-8,-64,16
-9,-60,16
-8,-55,14
-10,-53,16
-15,-50,17
-12,-49,18
-10,-48,18
-8,-46,17
-8,-45,16
-11,-47,15
-11,-50,15
-10,-52,16
-14,-59,16
-18,-63,17
-23,-71,16
-23,-80,15
-24,-86,13
-26,-88,10
-26,-80,10
-29,-71,10
-29,-74,10
-24,-61,7
-20,-52,4
-16,-51,5
-12,-53,6
-13,-53,7
-18,-59,10
-19,-60,11
-20,-59,11
-20,-58,14
-21,-58,17
-20,-57,22
-20,-57,24
-16,-56,34
-15,-59,33
-18,-59,30
-19,-59,27
-15,-70,28
-15,-75,29
-16,-78,30
-17,-74,29
-15,-77,25
-13,-79,24
-13,-77,23
-11,-77,24
-10,-78,25
-9,-73,24
-8,-72,23
-8,-68,21
-8,-67,21
-8,-56,21
-8,-46,21
-7,-41,20
-7,-34,18
-7,-32,18
-10,-33,18
-10,-38,19
-10,-41,20
-15,-48,23
-20,-54,25
-23,-65,27
-20,-80,27
-18,-78,28
-18,-75,29
-17,-74,30
-20,-71,26
-20,-72,20
-17,-67,18
-9,-58,17
-6,-56,17
-8,-56,11
-11,-55,7
-19,-55,3
-20,-63,14
-16,-66,7
-25,-52,-2
-30,-51,6
-36,-53,17
-41,-56,21
-41,-60,26
-30,-63,30
-25,-64,29
-7,-74,28
-15,-73,41
-22,-75,40
-29,-79,36
-32,-79,33
-26,-62,24
-24,-59,19
-21,-66,15
-16,-82,15
-14,-85,14
-14,-76,10
-14,-73,8
-14,-70,9
-18,-64,7
-20,-59,5
-22,-54,3
-20,-53,3
-16,-50,6
-14,-48,9
-14,-48,11
-12,-47,13
-12,-49,14
-11,-54,18
-11,-57,21
-7,-63,25
-8,-68,26
-9,-72,27
-11,-68,36
-13,-61,38
-18,-55,31
-12,-67,22
-8,-70,21
-11,-68,24
-12,-63,24
-13,-58,26
-20,-55,24
-24,-55,23
-26,-56,20
-24,-57,20
-18,-58,22
-12,-58,22
-11,-56,22
-13,-57,21
-15,-58,20
-13,-64,22
-10,-64,23
-13,-67,21
-16,-67,22
-19,-67,21
-22,-77,20
-21,-76,19
-19,-75,13
-15,-82,13
-14,-83,13
-13,-79,13
-12,-74,13
-12,-67,12
-13,-60,9
-14,-58,7
-14,-56,7
-13,-57,7
-12,-56,7
-12,-52,8
-14,-44,8
-15,-41,8
-15,-43,9
-16,-45,12
-16,-43,12
-15,-46,12
-22,-62,16
-27,-72,21
-34,-79,29
-34,-80,30
-19,-76,36
-6,-66,44
-2,-64,44
-15,-59,35
-17,-59,32
-20,-54,28
-18,-56,26
-18,-59,26
-19,-65,24
-18,-66,22
-20,-66,18
-20,-66,16
-22,-64,14
-26,-60,11
-27,-60,10
-28,-63,10
-27,-63,10
-23,-61,8
-22,-63,5
-21,-64,4
-20,-66,2
-19,-68,1
-18,-70,0
-20,-71,0
-22,-75,0
-24,-66,2
-26,-62,1
-29,-70,-1
-27,-74,2
-23,-65,4
-22,-67,3
-20,-72,2
-16,-77,0
-13,-77,2
-8,-70,4
-8,-63,6
-11,-61,4
-14,-58,3
-16,-57,3
-18,-55,6
-18,-56,8
-18,-58,8
-18,-62,10
-18,-63,11
-15,-61,12
-13,-63,12
-13,-62,14
-13,-62,17
-13,-63,19
-13,-63,22
-13,-63,23
-14,-65,24
-13,-73,26
-12,-73,27
-9,-73,28
-7,-71,27
-6,-64,25
-6,-56,22
-6,-53,21
-9,-50,20
-12,-52,20
-18,-60,20
-22,-64,22
-21,-65,23
-19,-67,22
-16,-66,22
-13,-61,21
-14,-61,20
-16,-59,18
-17,-58,17
-16,-57,17
-14,-54,16
-14,-55,15
-13,-56,14
-14,-56,13
-15,-58,12
-16,-63,12
-18,-66,13
-21,-74,15
-20,-74,20
-21,-70,22
-20,-53,23
-19,-46,22
-16,-53,19
-16,-59,17
-16,-64,16
-17,-63,18
-17,-62,19
-20,-57,20
-22,-56,19
-27,-58,18
-24,-61,22
-23,-61,24
-17,-59,27
-14,-59,28
-10,-59,27
-11,-58,17
-7,-60,18
6,-69,24
2,-71,21
-12,-67,10
-17,-64,4
-18,-62,3
-20,-68,5
-22,-74,4
-24,-68,4
-21,-62,2
-18,-62,1
-10,-68,2
-10,-76,4
-6,-75,4
-6,-67,3
-5,-59,4
-8,-57,2
-7,-63,0
-7,-64,-2
-10,-65,-3
-6,-68,10
-18,-68,5
-20,-66,2
-21,-62,-1
-21,-61,-3
-17,-66,-6
-14,-66,-5
-15,-67,-3
-19,-70,-2
-22,-72,-1
-29,-68,2
-31,-70,2
-32,-72,10
-31,-59,21
-33,-55,22
-34,-53,25
-31,-53,26
-17,-50,37
-6,-50,33
-9,-53,31
-19,-57,21
-24,-59,15
-30,-57,9
-21,-56,12
-16,-58,14
-15,-58,15
-15,-58,15
-15,-58,15
-18,-57,15
-20,-54,16
-25,-52,14
-27,-49,13
-29,-48,11
-30,-48,12
-29,-51,15
-34,-49,13
-38,-47,11
-44,-43,10
-41,-44,11
-46,-49,16
-42,-45,17
-44,-43,15
-56,-43,16
-54,-41,17
-45,-41,21
-42,-42,22
-44,-45,22
-47,-43,26
-42,-45,29
-57,-37,40
-63,-36,47
-66,-37,40
-32,-31,25
-37,-31,27
-61,-28,42
-62,-26,41
-51,-24,33
-39,-23,34
-41,-26,37
-46,-31,42
-43,-31,41
-37,-28,36
-52,-29,43
-55,-33,50
-44,-28,50
-41,-22,44
-47,-13,42
-47,-13,45
-37,-10,39
-43,-12,47
-46,-14,49
-44,-16,53
-44,-16,55
-43,-12,53
-41,-11,48
-42,-11,46
-45,-12,44
-47,-12,44
-47,-12,48
-43,-13,53
-41,-13,53
-40,-11,51
-41,-11,49
-44,-13,46
-46,-14,47
-44,-13,46
-47,-15,50
-51,-16,50
-36,-10,43
-32,-6,44
-35,-5,45
-41,-11,51
-51,-13,61
-55,-3,48
-40,-11,51
-24,-19,62
-45,-24,53
-44,-24,55
-32,-22,57
-35,-22,57
-35,-27,35
-52,-42,35
-48,-44,43
-34,-41,46
-35,-39,43
-46,-43,36
-33,-42,39
-24,-45,46
-50,-70,57
-36,-75,50
-28,-74,31
-30,-70,29
-33,-67,42
-21,-62,34
-20,-59,29
-16,-49,26
-15,-46,28
-16,-40,35
-44,-44,36
-64,-37,27
-65,-26,23
-55,-26,20
-40,-24,17
-40,-27,14
-45,-27,3
-47,-21,0
-44,-17,1
-47,-14,0
-41,-10,-2
-38,-2,-7
-43,-4,-10
-45,-4,-10
-48,-7,-13
-51,-13,-11
-54,-31,-5
-31,-43,15
-17,-54,21
-44,-77,-9
-51,-79,-18
-59,-75,-14
-59,-66,-4
-58,-54,9
-25,-59,12
-13,-63,14
-2,-72,15
4,-82,17
-13,-72,7
-26,-53,0
-26,-54,1
-31,-53,2
-27,-53,6
-22,-54,10
-21,-51,13
-22,-49,14
-27,-50,14
-30,-54,17
-35,-66,21
-34,-71,20
-35,-80,16
-32,-79,19
-32,-78,19
-35,-75,15
-35,-71,12
-36,-66,5
-34,-72,5
-35,-76,5
-30,-79,4
-27,-78,3
-23,-69,3
-21,-64,4
-18,-58,5
-17,-49,3
-18,-47,2
-19,-44,3
-18,-41,6
-17,-42,6
-16,-45,8
-15,-48,9
-16,-53,10
-17,-57,10
-18,-69,13
-31,-76,12
-30,-75,14
-16,-71,25
-8,-61,28
1,-66,29
16,-73,29
13,-71,24
4,-69,19
2,-63,21
2,-57,26
-7,-53,19
-12,-52,16
-27,-51,12
-32,-55,15
-34,-62,22
-30,-62,25
-24,-60,29
-14,-62,34
-11,-63,34
-9,-67,28
-10,-70,25
-11,-73,22
-10,-76,24
-11,-73,23
-16,-76,20
-19,-78,18
-23,-68,12
-22,-66,8
-22,-69,6
-19,-74,9
-18,-73,8
-13,-73,7
-10,-66,8
-10,-63,9
-14,-56,9
-16,-54,7
-19,-51,7
-18,-51,7
-15,-49,11
-12,-47,16
-11,-47,17
-11,-48,19
-11,-51,20
-11,-55,20
-10,-61,20
-10,-65,21
-12,-71,22
-13,-75,22
-16,-79,25
-16,-58,24
-18,-50,21
-16,-61,20
-17,-69,21
-18,-74,19
-17,-74,16
-12,-66,17
-13,-58,20
-15,-54,19
-18,-49,20
-18,-49,22
-12,-51,28
-17,-58,29
-24,-59,26
-44,-58,22
-46,-62,20
-44,-64,19
-43,-66,15
-50,-71,10
-51,-73,4
-50,-72,1
-43,-69,2
-39,-67,2
-38,-67,1
-40,-72,-1
-40,-75,-1
-36,-72,-1
-31,-68,1
-23,-58,5
-22,-51,7
-21,-49,8
-20,-44,8
-20,-42,9
-15,-39,15
-10,-37,18
-8,-36,18
-7,-37,16
-7,-41,17
-6,-50,21
-7,-66,21
-9,-78,21
-14,-103,23
-18,-108,25
-19,-97,32
-19,-80,32
-17,-64,24
-16,-73,14
-17,-73,11
-16,-69,9
-15,-67,10
-15,-58,13
-20,-50,10
-24,-47,7
-33,-50,7
-35,-53,9
-31,-56,14
-23,-56,23
-19,-56,26
-16,-57,32
-15,-61,34
-12,-68,33
-14,-79,28
-12,-82,29
-13,-79,29
-13,-77,28
-19,-67,15
-22,-62,7
-6,-66,13
-21,-73,17
-27,-76,14
-31,-69,7
-27,-65,7
-19,-62,10
-21,-59,12
-22,-57,10
-23,-54,8
-23,-52,9
-22,-50,12
-22,-50,13
-20,-48,14
-20,-47,15
-22,-49,17
-21,-53,20
-21,-55,22
-22,-62,24
-24,-65,31
-24,-61,32
-24,-55,27
-26,-53,31
-23,-61,34
-23,-59,31
-26,-58,30
-29,-56,30
-32,-54,27
-28,-52,18
-36,-53,24
-34,-54,26
-35,-56,22
-34,-58,18
-32,-58,12
-30,-59,5
-28,-57,7
-25,-55,9
-26,-52,10
-29,-48,14
-32,-47,13
-27,-48,10
-26,-53,15
-28,-58,17
-40,-65,17
-42,-67,14
-40,-71,11
-23,-72,11
-27,-72,11
-31,-63,19
-38,-57,22
-52,-42,19
-56,-37,18
-49,-33,17
-44,-29,18
-46,-30,16
-53,-35,9
-53,-37,9
-60,-46,3
-59,-43,9
-55,-44,7
-40,-44,13
-36,-42,15
-42,-40,6
-50,-45,1
-50,-48,3
-48,-54,8
-48,-57,10
-51,-58,7
-53,-48,11
-55,-40,15
-52,-44,21
-51,-48,22
-51,-53,21
-50,-53,21
-45,-47,21
-42,-43,15
-38,-41,12
-36,-38,9
-38,-38,6
-41,-39,0
-36,-45,-4
-32,-46,-1
-32,-41,2
-34,-40,4
-42,-38,9
-43,-39,12
-46,-42,12
-52,-50,11
-57,-54,10
-72,-70,6
-78,-80,11
-56,-67,17
-37,-43,12
-39,-41,14
-52,-45,13
-51,-43,13
-55,-46,14
-46,-43,19
-45,-39,15
-40,-35,13
-35,-34,15
-27,-31,15
-22,-33,20
-18,-35,22
-11,-40,23
-13,-41,22
-25,-51,24
-25,-60,25
-30,-63,28
-37,-74,34
-41,-82,34
-45,-83,35
-41,-70,33
-37,-57,24
-41,-50,20
-41,-49,15
-36,-44,10
-36,-42,7
-37,-35,5
-42,-28,2
-42,-27,0
-52,-23,4
-55,-23,13
-46,-21,27
-56,-16,35
-64,-14,31
-70,-20,30
-68,-25,30
-76,-36,36
-79,-37,38
-61,-48,25
-74,-55,8
-59,-53,13
-28,-46,27
-37,-46,25
-58,-43,24
-58,-42,19
-55,-44,17
-48,-37,14
-45,-36,12
-44,-34,7
-34,-36,8
-28,-40,8
-26,-44,10
-25,-44,12
-19,-44,19
-20,-45,18
-27,-50,23
-34,-55,34
-36,-56,37
-40,-68,44
-42,-70,47
-37,-58,46
-50,-56,38
-57,-57,31
-45,-59,21
-40,-59,19
-32,-54,14
-30,-49,20
-31,-44,18
-38,-31,15
-44,-28,14
-49,-19,15
-38,-9,22
-36,-6,22
-44,-6,20
-47,-6,22
-51,-6,28
-56,-7,29
-68,-2,30
-86,-12,35
-96,-19,35
-95,-28,37
-77,-27,34
-66,-21,29
-62,-13,17
-70,-11,15
-72,-12,22
-69,-15,24
-59,-17,21
-51,-16,21
-54,-16,15
-50,-14,10
-47,-13,9
-38,-14,12
-34,-15,15
-35,-16,16
-41,-21,22
-46,-25,27
-40,-33,36
-35,-36,40
-35,-37,43
-41,-41,44
-45,-39,42
-44,-43,40
-44,-46,39
-32,-41,37
-24,-44,36
-23,-48,35
-22,-50,33
-23,-49,30
-25,-49,24
-24,-50,16
-29,-50,14
-33,-50,13
-34,-51,13
-33,-53,14
-33,-55,16
-29,-57,19
-33,-60,15
-34,-67,18
-29,-83,28
-31,-86,27
-29,-87,31
-27,-80,32
-26,-80,33
-25,-70,29
-25,-62,24
-22,-68,20
-16,-74,19
-14,-74,18
-15,-74,19
-16,-71,20
-14,-65,21
-15,-63,17
-17,-57,11
-14,-54,12
-12,-53,14
-9,-51,16
-8,-49,17
-7,-49,18
-8,-48,18
-9,-47,18
-9,-49,19
-8,-51,20
-8,-57,21
-9,-67,19
-9,-67,18
-16,-77,16
-19,-77,19
-23,-74,22
-21,-75,21
-17,-72,21
-15,-63,24
-14,-59,24
-17,-58,23
-18,-59,24
-25,-59,28
-30,-60,31
-30,-60,32
-26,-60,35
-24,-61,36
-17,-65,34
-15,-69,24
-15,-69,19
-16,-66,6
-20,-62,-3
-14,-71,-7
-4,-76,-9
-8,-70,-21
-10,-78,1
-16,-64,4
-22,-62,-21
-35,-64,-20
-34,-65,-5
-21,-64,-2
-18,-60,0
-19,-57,0
-24,-56,-4
-26,-55,-8
-25,-58,-7
-23,-60,-6
-22,-64,1
-23,-68,4
-27,-69,-5
-27,-70,-7
-22,-70,-8
-15,-68,-9
-15,-67,-9
-14,-70,-8
-16,-72,-7
-18,-68,-6
-18,-54,-9
-17,-54,-10
2,-69,-7
12,-71,-1
-4,-75,1
-8,-73,2
-1,-72,6
16,-65,20
-1,-59,9
-2,-54,11
-13,-56,8
-14,-50,4
-12,-54,11
-3,-54,18
-17,-52,12
-18,-52,13
-16,-54,15
-20,-58,14
-22,-61,12
-21,-65,11
-24,-71,12
-25,-86,19
-27,-82,12
-31,-75,8
-38,-74,7
-34,-76,9
-25,-80,8
-17,-79,8
-12,-78,10
-9,-69,12
-10,-66,11
-11,-61,9
-13,-56,7
-13,-54,7
-12,-51,7
-12,-50,8
-13,-49,7
-14,-48,7
-14,-52,9
-13,-55,11
-14,-57,12
-15,-70,13
-14,-74,14
-14,-74,17
-20,-70,22
-18,-66,23
-10,-71,20
-9,-71,17
-11,-66,15
-13,-59,16
-15,-54,16
-20,-51,13
-23,-53,12
-28,-58,13
-28,-62,15
-25,-62,20
-21,-56,23
-20,-54,25
-22,-58,28
-22,-62,29
-21,-70,25
-15,-82,27
-13,-81,29
-18,-80,25
-21,-78,21
-26,-65,14
-25,-63,6
-22,-67,5
-19,-74,9
-18,-71,11
-16,-64,10
-14,-61,8
-15,-59,7
-18,-56,7
-18,-56,7
-16,-55,7
-15,-55,6
-14,-51,7
-13,-52,11
-13,-51,11
-11,-56,12
-10,-58,13
-9,-69,14
-5,-70,15
-11,-71,14
-17,-74,17
-17,-70,17
-16,-64,17
-13,-69,14
-11,-69,14
-8,-63,14
-9,-60,13
-10,-54,13
-18,-55,13
-21,-57,15
-22,-61,19
-22,-64,21
-16,-65,27
-12,-63,28
-7,-57,26
-8,-57,23
-10,-60,23
-16,-70,21
-18,-79,19
-17,-92,18
-16,-79,13
-16,-69,6
-18,-72,1
-18,-80,2
-15,-92,-1
-11,-78,-1
-9,-75,-2
-4,-69,-2
-7,-65,0
-13,-62,0
-15,-58,-2
-14,-56,-1
-12,-49,4
-13,-47,5
-12,-44,8
-12,-41,9
-12,-39,11
-13,-44,15
-12,-46,17
-15,-49,22
-17,-51,23
-21,-58,27
-21,-65,26
-18,-75,25
-23,-94,35
-22,-88,40
-19,-77,32
-19,-73,27
-20,-76,22
-24,-78,23
-22,-69,24
-19,-49,21
-19,-47,19
-21,-53,17
-20,-58,17
-16,-58,18
-12,-60,20
-9,-60,22
-10,-59,18
-12,-55,14
-13,-53,12
-14,-52,12
-14,-54,13
-13,-59,12
-14,-60,11
-15,-61,10
-17,-67,9
-19,-72,9
-19,-88,9
-17,-86,12
-14,-61,15
-14,-52,17
3,-57,31
5,-72,55
-41,-61,26
-43,-48,6
-27,-52,15
-27,-56,14
-15,-58,20
-13,-58,21
-7,-59,27
-6,-60,30
-12,-62,26
-14,-64,22
-16,-64,21
-3,-62,28
-3,-57,26
-9,-53,22
-19,-56,18
-21,-59,18
-17,-66,18
-14,-69,18
-8,-77,16
-6,-80,17
-8,-71,18
-13,-68,15
-16,-69,15
-18,-70,17
-15,-59,21
-13,-52,21
-11,-43,21
-11,-42,20
-14,-42,18
-16,-45,18
-18,-55,22
-23,-63,26
-26,-67,29
-15,-77,35
-25,-79,31
-30,-70,34
-37,-65,34
-40,-61,33
-38,-54,30
-34,-53,29
-27,-58,31
-32,-64,32
-31,-67,31
-28,-70,25
-25,-71,22
-25,-73,17
-26,-76,13
-27,-82,5
-30,-79,-3
-30,-79,-8
-30,-71,-14
-29,-67,-15
-29,-61,-15
-27,-57,-14
-28,-56,-17
-29,-60,-18
-28,-59,-17
-26,-59,-12
-24,-65,-3
-22,-70,1
-15,-76,8
-13,-77,9
-9,-83,14
2,-78,25
2,-69,26
-5,-63,27
-7,-61,30
-9,-58,33
-7,-56,33
-4,-53,29
-2,-51,29
-3,-50,27
-9,-51,27
-12,-53,28
-17,-58,27
-18,-60,25
-17,-63,24
-15,-75,23
-15,-75,24
-17,-69,24
-22,-63,19
-24,-59,18
-29,-63,17
-31,-68,17
-25,-69,21
-24,-65,21
-19,-64,21
-18,-64,22
-18,-62,23
-18,-61,22
-17,-60,22
-15,-60,22
-13,-59,22
-13,-58,21
-11,-55,21
-10,-55,21
-8,-52,21
-8,-48,21
-9,-48,20
-9,-50,21
-10,-52,22
-10,-54,24
-10,-63,24
-11,-66,24
-10,-64,24
-11,-62,23
-12,-66,22
-12,-62,21
-16,-60,17
-19,-73,17
-20,-76,19
-21,-66,16
-20,-63,14
-17,-60,14
-19,-59,14
-21,-60,13
-23,-60,14
-24,-60,16
-23,-60,24
-19,-58,30
-14,-56,31
-5,-57,31
-1,-62,30
-7,-69,28
-9,-72,26
-12,-73,23
-11,-69,21
-13,-70,19
-19,-76,17
-20,-73,17
-19,-62,13
-16,-59,11
-16,-64,10
-16,-77,11
-16,-77,10
-17,-72,10
-13,-70,10
-14,-65,9
-16,-62,9
-17,-63,8
-19,-61,7
-17,-60,9
-15,-59,10
-13,-53,12
-13,-50,13
-14,-44,14
-15,-42,17
-17,-43,19
-20,-53,22
-20,-59,23
-18,-64,28
-17,-63,29
-12,-66,29
-10,-67,30
-9,-68,31
-10,-67,30
-11,-64,30
-9,-65,27
-9,-63,25
-12,-59,24
-19,-56,23
-22,-55,20
-24,-57,18
-25,-59,18
-24,-55,19
-25,-54,16
-25,-58,16
-24,-62,16
-24,-65,16
-22,-67,18
-20,-86,16
-19,-97,16
-17,-80,16
-18,-78,13
-16,-77,10
-14,-74,5
-14,-71,3
-10,-59,2
-9,-54,2
-11,-46,-2
-16,-44,-5
-19,-45,-7
-25,-50,-3
-27,-51,-1
-29,-55,3
-29,-57,3
-26,-54,3
-22,-52,5
-18,-53,7
-15,-69,9
-15,-84,10
-18,-108,14
-22,-91,17
-23,-83,15
-30,-85,10
-37,-84,5
-38,-78,-3
-35,-73,-3
-22,-71,4
-13,-66,9
-11,-61,10
-10,-54,11
-11,-50,12
-13,-46,12
-14,-45,12
-14,-44,13
-13,-45,17
-13,-45,19
-11,-52,21
-7,-58,22
-6,-61,23
-5,-70,25
-7,-73,25
-8,-73,25
-12,-76,25
-13,-72,26
-15,-62,23
-15,-63,21
-14,-69,19
-13,-71,19
-14,-66,18
-16,-58,16
-19,-54,15
-24,-51,15
-26,-51,16
-26,-55,19
-22,-57,21
-21,-56,23
-18,-56,26
-18,-57,26
-18,-64,27
-18,-74,25
-16,-78,25
-14,-80,26
-15,-80,27
-20,-75,24
-21,-71,20
-23,-67,11
-22,-76,14
-20,-82,14
-18,-77,12
-17,-71,12
-16,-64,12
-18,-56,10
-18,-52,9
-18,-48,8
-17,-47,9
-14,-44,10
-12,-42,11
-11,-42,11
-12,-44,11
-12,-48,12
-14,-54,15
-14,-63,16
-14,-71,17
-14,-73,21
-15,-75,22
-16,-83,27
-16,-76,28
-12,-69,24
-7,-74,21
-7,-72,19
-10,-62,16
-12,-56,16
-17,-50,14
-23,-47,14
-25,-49,14
-26,-54,16
-23,-57,18
-22,-63,22
-20,-63,28
-17,-60,28
-13,-58,28
-12,-60,28
-11,-64,26
-12,-68,26
-11,-73,26
-13,-76,24
-16,-77,23
-20,-70,17
-22,-68,11
-21,-74,14
-23,-77,15
-23,-78,14
-17,-74,13
-15,-69,13
-16,-67,11
-17,-68,6
-17,-66,5
-18,-62,5
-18,-60,6
-17,-56,7
-16,-50,8
-16,-47,9
-16,-42,12
-16,-40,14
-15,-40,19
-15,-43,20
-16,-50,23
-14,-59,25
-15,-66,26
-16,-61,31
-16,-56,31
-17,-66,29
-18,-68,32
-18,-67,33
-17,-68,33
-16,-69,33
-13,-66,31
-16,-65,30
-20,-64,27
-28,-63,25
-34,-65,20
-34,-60,14
-30,-58,12
-22,-55,12
-29,-52,6
-42,-52,-3
-42,-51,-10
-40,-50,-11
-32,-46,-8
-36,-52,1
-39,-56,-1
-43,-64,-3
-41,-63,-2
-34,-67,2
5,-78,38
-14,-77,27
-23,-76,14
-26,-70,10
-33,-66,8
-35,-63,5
-31,-59,2
-21,-56,11
-7,-58,21
-22,-56,17
-28,-54,14
-37,-50,9
-32,-46,8
-31,-44,9
-32,-40,15
-32,-40,18
-36,-42,19
-40,-47,25
-36,-50,36
-33,-59,35
-41,-58,34
-50,-57,21
-50,-51,15
-51,-58,15
-45,-60,19
-39,-59,19
-28,-53,18
-26,-47,18
-24,-41,16
-26,-38,13
-27,-39,12
-29,-44,14
-26,-48,16
-22,-51,16
-18,-55,19
-17,-57,20
-14,-61,22
-14,-63,23
-12,-67,23
-12,-74,21
-12,-75,22
-15,-72,21
-17,-70,20
-21,-63,17
-23,-64,17
-21,-59,15
-20,-63,15
-18,-66,16
-18,-66,15
-17,-64,14
-17,-58,12
-19,-54,11
-20,-53,11
-13,-54,21
1,-55,30
2,-57,29
-9,-57,20
-6,-57,22
-4,-60,23
-6,-63,22
-12,-70,21
-16,-71,18
-21,-72,17
-18,-70,21
-17,-67,22
-19,-63,21
-21,-65,21
-20,-58,20
-18,-56,16
-18,-60,16
-11,-78,24
-10,-80,24
-13,-74,16
-10,-64,15
-11,-61,15
-17,-58,12
-20,-58,10
-21,-58,9
-14,-55,12
-13,-53,13
-10,-51,15
-7,-49,14
-6,-47,14
-9,-52,15
-12,-61,16
-10,-67,17
-11,-71,17
-15,-75,21
-15,-75,21
-13,-73,20
-11,-59,20
-12,-48,17
-14,-52,10
-17,-58,9
-23,-66,11
-26,-67,9
-24,-64,10
-20,-64,11
-20,-60,12
-21,-59,15
-21,-59,17
-19,-61,19
-16,-61,23
-14,-61,24
-11,-61,26
-7,-64,21
4,-64,12
9,-66,29
11,-62,33
1,-67,23
-19,-72,19
-30,-77,17
-36,-79,13
-34,-72,11
-28,-69,11
-24,-73,13
-19,-89,16
-15,-88,11
-13,-81,10
-11,-73,9
-11,-70,8
-18,-65,5
-20,-64,3
-21,-61,2
-18,-55,4
-18,-51,5
-18,-46,7
-19,-45,8
-25,-45,10
-23,-46,12
-22,-47,13
-18,-48,17
-17,-50,20
-17,-53,27
-18,-56,30
-12,-63,44
5,-63,47
11,-61,45
13,-63,39
9,-66,37
-3,-66,35
-16,-64,30
-19,-60,28
-23,-53,23
-25,-53,21
-27,-55,20
-30,-60,17
-30,-62,17
-29,-66,18
-28,-65,18
-24,-64,17
-22,-64,15
-21,-66,15
-20,-66,14
-20,-66,13
-19,-69,12
-20,-71,10
-19,-76,11
-18,-78,10
-18,-71,11
-19,-59,10
-20,-61,9
-22,-69,9
-20,-67,13
-19,-63,14
-14,-60,17
-11,-57,19
-10,-54,20
-12,-54,18
-12,-55,19
-11,-55,23
-11,-54,25
-11,-51,25
-10,-50,25
-10,-49,24
-12,-51,24
-13,-53,25
-14,-56,27
-14,-57,28
-14,-58,27
-15,-59,24
-16,-63,23
-17,-78,24
-18,-77,24
-21,-77,22
-19,-72,23
-20,-64,20
-21,-63,14
-20,-67,15
-16,-72,16
-16,-68,15
-15,-67,15
-15,-64,14
-16,-62,14
-16,-60,11
-17,-59,11
-15,-56,12
-14,-54,13
-14,-53,14
-13,-53,15
-12,-53,16
-15,-54,17
-17,-52,16
-3,-52,18
-7,-54,21
-10,-57,22
-11,-70,24
-12,-77,27
-15,-81,29
-15,-65,36
-18,-56,33
-21,-58,26
-22,-62,27
-24,-70,23
-30,-61,25
-32,-60,29
-43,-55,25
-43,-52,22
-49,-47,21
-41,-46,27
-37,-47,30
-39,-45,26
-41,-44,23
-33,-48,31
-29,-42,35
-26,-40,36
-18,-31,37
-17,-28,39
-15,-25,41
-18,-26,39
-17,-27,41
-17,-31,40
-21,-34,42
-20,-40,48
-22,-43,44
-15,-46,36
-25,-67,25
-27,-76,21
-21,-65,12
-13,-64,8
-5,-67,9
-21,-64,16
-18,-64,15
5,-62,-3
7,-60,7
17,-64,9
13,-69,10
18,-71,7
18,-65,2
7,-64,1
20,-62,-1
22,-62,-4
14,-68,-11
18,-62,-12
18,-66,-8
25,-59,-11
28,-60,-10
41,-70,8
24,-68,-2
32,-72,-5
28,-61,-26
30,-57,-24
13,-60,-6
31,-69,-11
20,-66,-17
27,-61,-3
11,-55,-10
27,-51,-12
10,-71,-22
8,-73,-23
9,-69,-18
14,-59,-24
15,-59,-9
11,-62,-6
2,-72,-8
6,-62,-4
12,-56,2
-1,-66,-17
4,-68,-19
-4,-63,-16
-2,-67,0
-13,-64,-10
5,-65,-10
0,-63,-13
1,-63,-2
-2,-62,-3
-9,-66,-10
-18,-67,2
-19,-59,2
-11,-62,2
-14,-69,5
-14,-63,4
-4,-16,-11
-17,-45,36
-39,-66,8
-32,-51,0
-2,-67,5
-47,-70,1
-45,-74,9
-38,-52,4
-33,-51,14
-32,-48,19
-37,-51,11
-35,-47,9
-38,-51,20
-36,-48,23
-43,-44,26
-40,-43,26
-40,-44,31
-39,-40,33
-42,-39,33
-35,-38,35
-38,-36,39
-31,-28,39
-32,-30,46
-33,-29,47
-38,-29,44
-34,-32,44
-41,-26,47
-44,-26,44
-42,-25,47
-38,-19,46
-35,-17,47
-44,-16,46
-51,-15,50
-30,-12,57
-19,-4,64
-21,-2,63
-40,-5,54
-38,-2,60
-35,0,58
-33,1,57
-30,1,59
-31,0,55
-35,0,56
-31,1,56
-32,2,58
-34,1,57
-31,1,58
-30,2,58
-28,3,58
-29,2,58
-31,1,58
-34,0,58
-33,1,56
-30,1,55
-27,1,58
-31,0,57
-33,-3,58
-36,-2,58
-37,-1,57
-35,-2,58
-32,-5,57
-34,-6,56
-34,-5,56
-35,-10,55
-34,-12,56
-37,-17,50
-33,-22,52
-34,-21,50
-38,-23,42
-45,-33,46
-38,-37,40
-25,-37,38
-28,-47,42
-36,-38,34
-28,-40,36
-24,-47,29
-25,-49,23
-28,-53,20
-16,-61,17
-13,-62,14
-16,-72,6
-20,-91,2
-5,-65,18
-4,-67,11
-7,-69,0
-9,-64,5
-10,-58,7
-3,-51,16
-2,-69,3
-13,-75,-11
-11,-77,-1
3,-78,7
-10,-60,6
-11,-64,10
-8,-87,20
-28,-122,33
-12,-107,39
58,-86,2
55,-80,-1
12,-70,11
-22,-60,-6
-12,-70,1
-3,-53,0
0,-51,11
-29,-55,7
-42,-53,6
-53,-57,12
-54,-47,3
-53,-46,5
-53,-45,14
-57,-43,12
-49,-47,13
-58,-53,23
-46,-58,26
-35,-52,24
-29,-49,28
-18,-48,31
-12,-43,30
-3,-40,33
9,-34,36
10,-31,34
3,-24,33
3,-24,37
4,-24,40
1,-33,40
1,-37,41
0,-50,39
-3,-59,37
-7,-63,35
-16,-78,32
-20,-89,32
-28,-100,17
-21,-98,18
-25,-109,14
-32,-106,10
-32,-101,7
-34,-83,5
-33,-74,5
-31,-59,4
-31,-52,5
-31,-49,6
-27,-47,10
-27,-49,9
-30,-51,15
-29,-54,17
-33,-56,22
-31,-61,27
-29,-64,28
-19,-73,27
-16,-75,24
-14,-77,20
-8,-75,17
-6,-72,14
-3,-64,16
-5,-60,17
-10,-54,17
-14,-58,14
-14,-58,13
-16,-64,12
-16,-69,13
-18,-79,13
-17,-83,12
-17,-80,12
-16,-70,15
-19,-62,15
-26,-56,12
-30,-66,12
-29,-70,13
-19,-69,21
-16,-66,23
-13,-62,30
-11,-63,33
-13,-57,33
-14,-48,33
-15,-44,33
-11,-38,31
-8,-38,30
-4,-42,26
-7,-49,24
-10,-53,25
-14,-55,21
-15,-58,16
-25,-62,11
-28,-62,14
-31,-75,13
-49,-79,26
-61,-70,23
-58,-58,21
-57,-54,25
-59,-51,27
-61,-47,13
-61,-43,7
-54,-41,7
-53,-43,7
-51,-46,11
-47,-49,17
-42,-50,19
-33,-49,19
-29,-46,18
-24,-42,20
-23,-42,20
-23,-43,17
-24,-43,16
-24,-43,16
-25,-41,19
-31,-41,17
-31,-41,16
-30,-52,15
-29,-61,13
-32,-72,6
-36,-77,3
-38,-86,8
-35,-83,12
-35,-80,10
-33,-71,9
-29,-69,6
-22,-73,5
-25,-71,4
-28,-71,0
-31,-70,-3
-30,-68,-3
-23,-67,-1
-21,-64,2
-21,-56,3
-22,-53,4
-23,-52,4
-24,-56,6
-25,-59,7
-19,-62,13
-17,-59,16
-17,-60,17
-21,-70,25
-19,-78,32
2,-81,34
30,-78,33
21,-78,39
-2,-64,40
-10,-64,38
-21,-63,22
-19,-54,17
-15,-54,20
-8,-57,23
-5,-60,26
-1,-64,28
-4,-63,25
-10,-56,28
-18,-52,25
-22,-53,23
-18,-57,22
-14,-58,20
-6,-59,19
-3,-62,18
-5,-63,16
-7,-67,15
-8,-69,14
-6,-71,14
-3,-68,16
-4,-67,18
-10,-65,23
-12,-61,26
-17,-45,24
-23,-41,24
-30,-44,25
-42,-45,31
-44,-42,34
-46,-37,30
-40,-36,27
-39,-39,25
-35,-48,24
-33,-53,24
-29,-64,24
-28,-66,23
-29,-70,18
-33,-73,18
-35,-72,20
-36,-70,23
-33,-71,25
-24,-67,26
-14,-64,27
-9,-62,27
-6,-59,26
-8,-60,25
-13,-65,25
-15,-71,23
-19,-59,21
-23,-49,19
-24,-48,14
-28,-60,7
-28,-65,8
-23,-84,15
-14,-81,17
-13,-73,15
-19,-63,11
-25,-60,8
-23,-55,4
-26,-54,3
-29,-53,-1
-13,-50,11
-14,-52,18
-20,-50,19
-23,-49,16
-31,-53,13
-24,-60,24
-25,-62,14
-27,-67,13
-34,-71,11
-7,-76,38
-34,-72,20
-19,-66,26
-19,-56,16
-18,-49,15
-25,-51,18
-31,-56,25
-33,-60,25
-30,-58,23
-26,-59,26
-21,-54,33
-18,-50,25
-14,-49,21
-12,-48,23
-11,-47,25
-8,-47,26
-6,-47,24
-14,-50,18
-19,-55,22
-5,-58,34
-13,-59,-16
-38,-64,29
-3,-79,29
12,-56,32
12,-65,18
-7,-76,28
-9,-74,30
-9,-68,20
-6,-71,12
-8,-76,13
-19,-86,11
-8,-80,15
-16,-68,-5
-18,-59,-10
-19,-44,-16
-28,-41,-19
-34,-44,-19
-47,-47,-11
-31,-48,1
-37,-55,11
-45,-54,6
-48,-61,13
-24,-59,-14
-70,-96,53
-53,-72,34
-47,-76,61
-39,-73,60
-26,-68,32
-26,-62,28
-7,-63,28
-3,-64,13
27,-69,15
-10,-81,28
-6,-79,25
-17,-75,15
-9,-70,16
-16,-67,13
-23,-60,5
-17,-59,7
-7,-56,14
-6,-53,12
1,-44,1
2,-46,9
6,-50,9
8,-53,9
4,-57,13
8,-73,20
17,-78,-3
-8,-117,71
-21,-74,23
-6,-62,37
-14,-54,32
-12,-52,29
-8,-62,13
-18,-65,3
-19,-60,1
-18,-60,-1
-23,-56,0
-19,-56,-3
-27,-59,-6
-27,-62,-3
-26,-64,6
-22,-65,10
-19,-66,21
-16,-63,32
-15,-59,29
2,-69,48
1,-69,68
-34,-70,38
-28,-66,40
-20,-64,18
-12,-72,33
-37,-69,14
-30,-70,9
-43,-71,1
-33,-82,12
-30,-91,22
-33,-88,18
-19,-77,10
-25,-71,10
-19,-67,12
-27,-59,4
-24,-55,7
-19,-54,9
-19,-54,9
-16,-48,9
-15,-45,11
-15,-42,12
-13,-37,15
-12,-36,17
-12,-33,24
-7,-33,29
-9,-37,42
-14,-50,47
-26,-53,50
-33,-63,54
-34,-67,56
-39,-63,54
-41,-60,49
-38,-60,45
-30,-56,42
-28,-52,38
-26,-49,33
-26,-53,32
-26,-52,29
-22,-53,44
-34,-51,32
-44,-49,13
-45,-51,15
-41,-47,17
-36,-45,17
-37,-44,15
-36,-43,13
-35,-44,9
-34,-56,5
-41,-69,-7
-28,-80,-2
-30,-105,-21
-20,-99,-21
-14,-91,-23
-13,-91,-22
-20,-85,-25
5,-76,-13
21,-72,5
-8,-58,-3
-19,-55,-12
-25,-54,-18
-15,-53,-14
-17,-53,-13
-13,-58,-6
-7,-54,2
-11,-48,10
-10,-42,16
-3,-40,23
-13,-49,24
-27,-59,19
-33,-112,16
-15,-123,15
-5,-99,15
6,-80,20
3,-67,24
-26,-63,22
-40,-68,16
-53,-77,16
-45,-84,22
-35,-78,24
-26,-68,21
-24,-61,19
-18,-52,17
-17,-50,18
-21,-51,19
-18,-59,19
-13,-56,20
-4,-45,21
7,-37,23
11,-36,28
12,-32,35
10,-31,40
11,-32,47
15,-35,45
-4,-51,45
-21,-70,64
-22,-76,68
-16,-81,52
-22,-77,38
-28,-77,31
-32,-77,15
-35,-75,9
-41,-75,1
-40,-74,-3
-38,-69,-9
-40,-67,-12
-42,-68,-9
-42,-67,-8
-41,-66,-10
-42,-61,-9
-38,-66,-7
-48,-72,5
-42,-73,28
-42,-78,33
-58,-76,40
-60,-74,40
-52,-62,42
-42,-55,39
-41,-57,35
-39,-71,24
-37,-84,17
-23,-103,9
-10,-105,16
-7,-104,17
-6,-84,15
-8,-74,11
-12,-60,5
-16,-50,4
-14,-48,7
-13,-46,11
-10,-45,13
-6,-45,16
-4,-44,18
-3,-44,23
-2,-48,29
-1,-50,30
-2,-57,33
-4,-60,35
-13,-66,46
-11,-64,42
-12,-61,38
-9,-65,36
-8,-66,35
-12,-67,30
-15,-66,19
-18,-63,14
-24,-51,10
-27,-48,9
-31,-49,10
-34,-58,18
-34,-60,19
-27,-60,21
-23,-59,26
-17,-55,34
-19,-56,35
-24,-60,37
-26,-69,38
-24,-76,39
-20,-76,36
-19,-80,34
-17,-77,26
-18,-87,14
-16,-93,11
-9,-91,14
-7,-86,16
-8,-73,17
-13,-68,14
-15,-66,9
-21,-60,2
-22,-59,0
-18,-59,2
-15,-57,3
-11,-51,8
-13,-44,11
-14,-40,11
-18,-35,15
-20,-34,19
-26,-35,26
-30,-45,26
-33,-54,26
-31,-59,38
-27,-52,40
-19,-52,37
-19,-60,38
-23,-65,39
-30,-68,36
-30,-66,37
-23,-65,38
-19,-62,33
-19,-61,30
-21,-59,24
-21,-59,23
-20,-58,22
-20,-57,22
-19,-55,22
-17,-54,19
-18,-55,18
-19,-55,16
-20,-59,16
-21,-65,17
-21,-63,18
-22,-62,17
-22,-64,17
-22,-66,17
-21,-69,17
-20,-69,18
-15,-66,17
-16,-71,15
-16,-74,15
-16,-72,14
-19,-68,11
-6,-64,12
-8,-58,13
-10,-56,14
-16,-55,13
-16,-55,14
-20,-54,12
-17,-51,11
-17,-53,12
-18,-58,14
-19,-60,14
-22,-65,15
-9,-64,19
-10,-64,18
-10,-67,16
-13,-66,16
-13,-68,14
-11,-62,15
-11,-58,15
-13,-57,13
-16,-59,13
-20,-64,13
-23,-65,13
-22,-64,11
-20,-63,10
-19,-62,10
-21,-63,10
-24,-65,10
-29,-64,11
-29,-64,12
-26,-65,13
-20,-63,15
-15,-62,18
-15,-60,18
-15,-61,17
-11,-63,24
-21,-63,18
-20,-62,17
-23,-63,14
-25,-61,9
-18,-61,9
-15,-62,7
-14,-63,8
-10,-63,12
-15,-66,13
-19,-75,10
-18,-81,5
-14,-81,6
-6,-72,13
-8,-68,16
-14,-62,19
-19,-55,16
-12,-54,18
-2,-50,26
-2,-50,29
-9,-49,26
-11,-47,23
-11,-45,20
-15,-43,15
-16,-45,15
-21,-53,15
-24,-60,17
-29,-67,21
-31,-78,22
-28,-83,24
-27,-86,30
-29,-82,30
-29,-72,26
-23,-69,21
-21,-72,20
-18,-71,22
-16,-72,22
-13,-71,23
-13,-70,23
-12,-66,21
-12,-60,15
-11,-58,15
-10,-51,15
-10,-48,15
-9,-43,14
-8,-42,12
-8,-42,12
-7,-45,12
-7,-46,13
-9,-55,14
-13,-71,15
-17,-78,16
-21,-83,20
-21,-74,24
-20,-54,26
-16,-63,23
-14,-69,21
-10,-77,17
-7,-78,16
-6,-70,17
-8,-64,16
-21,-56,9
-38,-51,6
-43,-52,7
-40,-54,11
-33,-53,15
-22,-50,23
-17,-53,30
-17,-59,31
-21,-70,31
-24,-75,30
-21,-76,32
-17,-71,28
-17,-74,27
-16,-73,29
-16,-68,26
-18,-65,20
-16,-73,21
-16,-78,22
-17,-76,23
-16,-72,21
-14,-69,16
-14,-63,14
-16,-57,10
-17,-52,8
-17,-49,8
-14,-45,8
-13,-44,9
-14,-44,10
-16,-47,10
-15,-50,11
-14,-55,14
-14,-58,18
-14,-67,29
-7,-67,46
-3,-70,50
3,-71,59
7,-73,58
6,-76,46
0,-77,38
-16,-74,32
-37,-62,32
-41,-56,31
-44,-45,27
-50,-41,21
-58,-28,7
-71,-22,7
-69,-21,16
-45,-16,23
-34,-12,13
-78,-9,-7
-65,-7,-1
-57,-4,8
-60,-1,7
-58,1,8
-58,3,9
-58,3,8
-52,0,9
-52,-3,9
-50,-4,9
-61,-13,16
-63,-18,17
-76,-33,12
-75,-37,20
-70,-34,23
-53,-26,13
-52,-28,17
-43,-31,35
-30,-25,34
-22,-25,34
-17,-28,42
-17,-29,41
-17,-36,34
-17,-45,47
-17,-47,45
-23,-60,31
-22,-67,40
-11,-74,45
-8,-77,45
-13,-74,37
-21,-65,27
-20,-67,24
-12,-77,18
-11,-80,15
-7,-74,10
1,-60,3
-5,-59,-3
-27,-58,-7
-26,-54,-2
-21,-56,3
-18,-59,6
-13,-57,10
-11,-56,16
-15,-59,18
-26,-64,23
-28,-66,27
-23,-71,33
-12,-69,40
-10,-73,40
-9,-80,36
-11,-73,30
-13,-70,18
-9,-82,18
-6,-87,21
-9,-85,20
-10,-79,19
-11,-70,14
-16,-63,8
-22,-62,4
-27,-62,1
-27,-62,0
-22,-60,3
-18,-59,4
-14,-55,8
-18,-47,10
-21,-44,11
-26,-40,16
-28,-39,19
-31,-40,21
-31,-46,24
-30,-49,27
-25,-58,30
-24,-59,33
-21,-56,34
-21,-65,30
-20,-67,29
-16,-68,27
-11,-69,26
-3,-67,27
-1,-66,29
-6,-63,27
-15,-63,21
-21,-61,18
-28,-56,14
-26,-57,13
-25,-58,12
-25,-53,16
-25,-51,15
-26,-61,12
-24,-61,15
-22,-57,19
-16,-76,21
-18,-73,22
-21,-75,20
-23,-76,18
-25,-81,14
-25,-81,11
-23,-77,11
-19,-71,13
-17,-69,13
-16,-64,9
-27,-62,3
-9,-62,-5
-5,-53,-2
-5,-51,3
-7,-49,13
-8,-47,15
-11,-46,14
-12,-46,15
-15,-45,15
-18,-50,18
-20,-53,21
-21,-58,26
-22,-77,26
-21,-90,28
-18,-98,35
-17,-87,35
-20,-67,19
-20,-71,14
-20,-76,17
-16,-79,21
-14,-76,22
-11,-70,19
-10,-67,16
-13,-64,13
-16,-64,14
-17,-63,15
-15,-58,15
-11,-54,16
-8,-48,15
-7,-45,16
-8,-46,16
-2,-49,17
0,-49,17
-1,-55,18
-3,-66,23
-5,-71,24
-8,-77,26
-8,-73,27
-9,-62,26
-5,-67,24
-4,-72,23
-2,-75,17
-4,-76,11
-4,-76,4
-9,-73,-2
-22,-61,-5
-33,-61,-8
-38,-59,-12
-39,-54,-13
-38,-54,-9
-32,-58,2
-31,-58,6
-32,-59,6
-45,-63,17
-43,-68,22
-36,-81,36
-29,-83,45
-19,-91,52
-26,-71,45
-30,-61,39
-32,-62,26
-30,-69,20
-17,-91,14
-3,-95,16
-2,-87,17
-5,-79,13
-8,-76,11
-14,-70,5
-19,-63,0
-19,-61,2
-14,-57,7
-13,-53,8
-11,-47,12
-10,-41,13
-10,-39,14
-8,-42,18
-7,-44,21
-5,-44,27
-6,-45,27
-11,-56,30
-13,-71,40
-12,-71,48
4,-64,52
7,-70,40
9,-84,30
1,-87,22
-9,-84,18
-26,-74,19
-31,-67,19
-36,-58,20
-28,-55,21
-26,-53,17
-30,-50,14
-32,-49,13
-38,-46,10
-42,-46,10
-47,-52,10
-47,-58,13
-45,-63,17
-39,-61,22
-41,-64,25
-44,-76,30
-40,-67,32
-37,-63,31
-31,-64,33
-32,-71,34
-27,-93,41
-18,-84,43
-17,-72,44
-21,-57,40
-22,-52,42
-21,-46,39
-18,-40,38
-21,-31,35
-23,-21,36
-21,-16,32
-26,-9,28
-32,-10,29
-38,-14,35
-50,-12,42
-55,-10,45
-68,-5,42
-65,6,37
-64,8,36
-54,9,39
-54,9,36
-50,2,34
-50,0,37
-43,-2,40
-48,0,28
-59,1,27
-54,0,31
-51,-1,34
-46,-3,35
-48,-5,34
-42,-9,41
-30,-15,45
-26,-15,44
-23,-19,36
-27,-16,31
-28,-15,31
-30,-20,37
-30,-21,41
-48,-27,42
-53,-28,48
-34,-23,67
-9,-28,79
-14,-35,77
-36,-38,66
-48,-39,64
-54,-45,67
-51,-49,70
-46,-53,69
-49,-43,57
-51,-37,52
-62,-31,49
-64,-28,49
-52,-22,47
-42,-18,46
-40,-16,46
-35,-11,44
-32,-9,43
-26,-6,40
-23,-3,37
-20,-2,36
-13,-1,32
-11,-2,31
-2,-5,28
-4,-8,26
-24,-26,26
-41,-44,39
-31,-47,40
-20,-58,40
-12,-69,44
-2,-93,45
-10,-102,42
-17,-94,40
-32,-75,27
-33,-73,22
-24,-74,15
-12,-71,16
-7,-67,20
-6,-59,19
-10,-55,16
-23,-49,9
-32,-47,7
-34,-50,7
-29,-57,15
-25,-58,19
-19,-52,24
-18,-49,26
-21,-50,31
-20,-57,34
-17,-61,33
-12,-70,29
-11,-75,28
-17,-79,30
-21,-81,29
-20,-71,25
-20,-61,15
-18,-62,14
-15,-68,14
-18,-73,14
-19,-69,12
-17,-62,11
-17,-60,11
-18,-59,13
-21,-59,11
-24,-59,11
-22,-58,8
-21,-57,10
-20,-51,12
-18,-49,14
-20,-48,15
-23,-43,17
-23,-42,21
-32,-43,23
-27,-45,27
-25,-39,31
-15,-47,35
-13,-47,37
-21,-45,34
-17,-44,38
-18,-58,34
-17,-52,34
-17,-53,33
-16,-61,33
-11,-65,37
-10,-62,31
-13,-61,26
-16,-62,26
-14,-61,29
-15,-58,25
-13,-53,29
-7,-58,34
11,-61,44
-4,-59,33
-10,-58,25
-6,-59,24
-7,-61,20
-15,-67,25
-1,-68,26
-9,-61,31
9,-63,34
0,-63,35
-3,-66,34
-6,-64,29
-11,-64,24
-1,-55,21
13,-53,25
3,-57,32
9,-57,31
15,-59,28
12,-60,25
11,-57,24
15,-54,15
19,-53,17
19,-51,22
-19,-68,9
-12,-70,7
15,-77,11
21,-82,14
2,-64,16
9,-63,9
4,-58,20
16,-66,13
13,-65,7
10,-61,3
12,-61,-3
11,-63,2
7,-66,9
4,-65,8
14,-71,5
13,-70,3
8,-64,7
6,-67,-6
7,-68,-8
11,-68,7
20,-64,0
3,-56,-12
0,-61,0
2,-58,-7
13,-69,-6
12,-69,-6
8,-63,-2
9,-63,-2
4,-65,6
2,-69,4
1,-69,3
10,-68,-4
13,-62,-5
20,-57,-8
25,-51,-6
21,-57,-12
3,-59,-2
4,-62,-7
-11,-58,-2
2,-63,10
6,-67,10
2,-63,13
6,-64,17
15,-68,20
20,-72,18
-3,-60,18
-5,-73,12
5,-82,5
4,-70,14
1,-62,20
-16,-63,23
-3,-71,18
-7,-68,27
-23,-71,17
-27,-62,-1
-7,-44,19
-31,-42,52
-29,-44,42
-39,-60,17
-31,-56,10
-32,-53,33
18,-47,66
0,-52,51
-38,-89,26
-41,-103,10
-40,-92,-21
-24,-77,-13
-26,-61,7
-21,-55,11
-19,-51,12
-16,-49,18
-23,-53,25
-11,-55,39
-19,-60,28
-18,-69,27
-25,-76,48
-19,-66,45
-22,-59,39
-15,-55,46
-13,-48,39
-13,-46,21
-19,-47,21
-12,-41,27
-9,-39,25
-10,-41,19
-15,-50,14
-18,-57,12
-22,-82,8
-23,-83,11
-26,-69,16
-31,-63,22
-33,-62,23
-27,-55,22
-20,-52,22
-2,-51,28
15,-54,32
24,-57,31
5,-58,28
4,-60,35
-10,-60,35
-18,-58,25
-19,-54,22
-16,-49,18
-15,-50,18
-13,-58,21
-13,-59,23
-18,-58,24
-19,-67,31
-25,-79,27
-28,-86,26
-23,-78,26
-13,-61,24
-14,-66,21
-17,-72,19
-19,-75,16
-16,-73,15
-13,-65,15
-14,-58,17
-12,-50,20
-20,-48,18
-16,-46,24
-21,-45,19
-25,-45,20
-24,-44,19
-24,-38,20
-24,-35,22
-16,-36,18
-10,-36,22
-18,-40,31
-14,-61,24
-10,-65,27
-4,-62,32
3,-68,38
-14,-70,25
-58,-70,-1
-56,-67,11
-17,-55,45
12,-47,51
2,-54,46
-5,-59,40
-27,-68,42
-21,-63,33
-27,-67,30
-12,-65,30
-16,-63,23
-15,-56,21
-13,-54,29
-8,-58,36
-12,-46,39
0,-49,49
-20,-63,47
-10,-62,21
-5,-60,15
2,-51,31
-31,-36,30
-20,-69,30
-1,-60,20
-1,-55,4
8,-52,7
13,-59,7
14,-73,14
-5,-78,15
1,-66,10
7,-64,16
12,-65,12
3,-63,-5
3,-58,3
3,-65,6
7,-68,7
-5,-68,3
-1,-72,3
5,-71,-2
5,-49,-5
4,-59,2
7,-62,6
13,-70,6
5,-60,7
1,-69,-22
15,-67,-17
9,-75,-12
18,-64,2
12,-62,-2
6,-64,2
5,-66,8
5,-60,3
15,-58,3
18,-59,2
12,-66,-13
6,-70,-15
14,-66,-4
2,-50,9
3,-51,12
13,-72,-10
18,-73,-21
16,-71,-11
15,-63,-8
6,-57,-2
3,-60,-8
4,-64,-7
19,-67,-14
23,-65,-5
7,-66,19
5,-65,4
5,-70,-2
15,-65,-12
13,-62,-11
12,-63,2
4,-68,5
6,-65,5
6,-63,1
6,-72,2
-4,-68,8
10,-59,9
12,-61,8
-6,-67,10
-6,-64,13
7,-89,27
2,-71,15
-8,-66,35
3,-47,32
4,-40,17
2,-44,19
8,-52,23
12,-57,23
11,-66,26
-1,-73,22
6,-72,25
9,-74,22
6,-75,23
6,-75,32
-6,-70,27
1,-65,20
-1,-60,12
-24,-64,6
-19,-56,14
4,-45,37
2,-39,35
2,-39,30
-8,-44,26
-9,-47,28
-14,-56,28
-14,-65,30
-10,-68,36
-2,-66,30
-6,-61,21
-14,-60,15
-8,-64,17
-7,-64,16
-12,-65,15
-16,-68,16
-20,-76,19
-19,-72,20
-20,-63,14
-18,-62,12
-17,-59,14
-18,-61,15
-19,-62,16
-20,-63,17
-22,-63,17
-23,-65,17
-24,-69,19
-25,-69,18
-28,-65,17
-30,-63,16
-30,-62,14
-30,-63,12
-28,-64,11
-23,-68,12
-22,-70,12
-20,-72,13
-21,-73,13
-22,-74,12
-20,-73,11
-19,-71,10
-18,-69,9
-16,-65,10
-16,-63,9
-15,-57,8
-15,-54,7
-15,-51,7
-17,-54,7
-19,-55,9
-22,-52,10
-22,-50,9
-25,-57,13
-33,-66,19
-37,-59,19
-42,-49,20
-42,-50,18
-45,-60,18
-40,-62,20
-29,-64,23
-19,-59,29
-12,-59,28
-27,-57,29
-29,-53,28
-25,-50,24
-24,-51,18
-24,-52,18
-22,-51,19
-20,-51,20
-16,-49,21
-19,-47,21
-20,-49,23
-24,-51,23
-26,-52,23
-26,-60,24
-28,-62,27
-11,-67,41
-38,-63,21
-38,-58,16
-33,-54,15
-26,-61,18
-27,-67,17
-30,-67,14
-31,-65,15
-28,-59,20
-25,-55,22
-28,-51,18
-28,-50,15
-27,-52,15
-24,-56,18
-23,-56,19
-22,-56,20
-21,-58,21
-22,-58,20
-22,-59,19
-22,-60,20
-21,-61,22
-21,-64,23
-19,-63,26
-15,-62,25
-13,-59,26
-13,-56,25
-15,-56,25
-17,-56,22
-17,-64,23
-17,-64,22
-18,-61,20
-18,-60,20
-20,-55,20
-20,-52,20
-21,-52,21
-20,-54,24
-20,-54,24
-22,-58,24
-23,-57,24
-23,-55,24
-22,-55,23
-22,-56,22
-22,-58,22
-21,-59,21
-20,-60,17
-22,-56,16
-24,-59,14
-24,-68,10
-23,-67,9
-20,-63,8
-19,-68,4
-18,-70,3
-20,-73,-4
-21,-73,-6
-20,-67,-7
-19,-61,-5
-20,-60,-2
-25,-63,-3
-27,-67,-6
-29,-69,-7
-26,-69,-5
-22,-68,0
-17,-69,5
-15,-68,7
-13,-63,7
-13,-63,7
-15,-64,7
-17,-60,10
-17,-61,11
-15,-59,12
-14,-57,13
-12,-57,15
-13,-58,15
-14,-64,16
-11,-71,17
-7,-69,17
-3,-60,17
-5,-62,16
-6,-73,16
-6,-71,14
-6,-67,13
-7,-60,16
-8,-56,18
-11,-51,15
-12,-51,15
-12,-53,16
-14,-58,17
-14,-62,18
-16,-58,21
-18,-56,22
-24,-56,22
-19,-52,24
-16,-54,25
-15,-61,28
-20,-63,25
-20,-69,24
-18,-74,24
-19,-78,23
-21,-81,21
-20,-77,20
-20,-66,17
-20,-61,14
-20,-63,14
-19,-71,16
-21,-73,16
-19,-74,13
-16,-66,14
-17,-63,13
-19,-56,12
-21,-55,11
-20,-54,11
-17,-53,12
-15,-49,14
-13,-48,15
-13,-49,15
-12,-50,16
-12,-51,17
-11,-55,18
-10,-64,20
-11,-69,21
-13,-73,24
-13,-74,28
-11,-69,31
-8,-55,30
-7,-51,29
-4,-60,23
-4,-62,23
-5,-70,24
-8,-71,27
-10,-68,29
-13,-57,24
-16,-53,17
-21,-47,14
-25,-47,12
-36,-51,13
-34,-52,16
-35,-50,17
-33,-51,19
-34,-49,18
-36,-57,23
-34,-67,23
-32,-72,23
-26,-68,26
-25,-66,26
-32,-72,23
-32,-68,16
-31,-69,13
-24,-77,12
-20,-86,12
-11,-93,13
-9,-90,14
-6,-80,13
-9,-67,13
-11,-63,13
-13,-53,10
-14,-50,10
-13,-47,13
-10,-46,17
-9,-44,20
-5,-45,25
-4,-46,26
-2,-52,30
0,-58,35
-1,-65,35
-3,-81,33
-4,-83,35
-5,-70,37
-5,-52,26
-4,-50,20
-7,-55,9
-10,-65,7
-18,-79,9
-29,-79,7
-29,-69,0
-30,-62,-3
-30,-62,1
-30,-65,11
-33,-65,9
-31,-61,5
-35,-62,1
-33,-60,5
-19,-59,25
-17,-59,28
-20,-62,38
-20,-66,42
-32,-77,45
-34,-74,46
-32,-75,41
-30,-81,32
-28,-82,26
-26,-83,9
-8,-94,2
1,-99,7
8,-94,21
2,-80,20
-6,-64,10
-19,-55,-1
-25,-51,-3
-19,-48,-4
-9,-46,-3
3,-38,-9
0,-55,-5
3,-56,-2
-3,-55,-13
-2,-60,-15
-3,-73,-12
-4,-80,-1
-1,-83,4
-11,-95,-4
-14,-95,2
-22,-103,4
-46,-108,6
-36,-83,32
-19,-85,8
-8,-98,0
3,-82,16
-7,-80,16
-18,-69,12
-32,-49,8
-28,-52,8
-33,-46,9
-37,-47,11
-31,-48,8
-28,-49,9
-23,-54,11
-18,-49,28
-35,-44,22
-62,-43,19
-69,-37,-16
-67,-30,-12
-62,-25,20
-63,-22,18
-57,-11,-11
-58,-16,-16
-62,-34,-34
-52,-13,-44
-65,-13,-35
-74,-15,-35
-83,-23,-35
-81,-17,-32
-60,-9,-28
-47,5,-23
-52,-5,-14
-53,-13,-2
-46,4,4
-53,-1,-3
-62,-4,-13
-26,-14,15
-86,-6,-28
-46,-10,-26
-42,-7,-18
-41,-4,-14
-69,-20,-33
-66,-19,-27
-73,-14,-9
-63,-17,-15
-54,-11,-30
-68,-35,-28
-80,-36,-30
-78,-30,-28
-71,-26,-25
-53,-25,-22
-54,-26,-20
-52,-24,-18
-49,-22,-17
-48,-19,-18
-52,-21,-21
-53,-23,-18
-55,-26,-19
-60,-28,-17
-59,-28,-19
-61,-32,-21
-61,-31,-18
-52,-18,1
-59,-28,1
-67,-33,-2
-65,-61,-8
-68,-49,-5
-49,-56,6
-52,-83,8
-52,-97,6
-62,-91,28
-80,-84,22
-90,-75,22
-82,-58,32
-75,-21,49
-79,-6,45
-75,-8,50
-74,-11,46
-72,-7,35
-81,13,17
-69,15,-15
-58,3,-36
-70,-19,-37
-63,-13,-17
-46,-27,-14
-51,-37,-22
-50,-37,-17
-50,-40,-9
-49,-38,-13
-47,-34,-15
-46,-32,-15
-42,-36,-16
-40,-37,-10
-38,-38,-8
-45,-40,-25
-53,-33,-17
-81,-29,-21
-65,-3,-42
-88,17,-47
-93,-18,-19
-93,-21,-13
-62,-53,-21
-1,-53,-22
9,-45,-24
-30,-46,-31
-1,-44,-3
-39,-47,-4
-24,-51,7
-23,-60,8
-15,-65,8
-5,-72,3
-39,-87,-23
-47,-85,-17
-56,-93,-21
-50,-72,-6
-40,-76,-11
-11,-70,-30
-9,-73,-33
-8,-74,-21
13,-61,-22
19,-63,-19
21,-71,-12
12,-72,-13
9,-63,-8
12,-60,-3
12,-57,6
6,-55,4
3,-56,1
-6,-61,3
-14,-64,6
-26,-69,19
-23,-67,32
-23,-63,34
-15,-60,39
-10,-64,40
-4,-77,34
-3,-85,26
-2,-86,25
-6,-77,24
-8,-72,25
-17,-65,23
-23,-66,26
-28,-68,24
-31,-67,14
-29,-69,11
-24,-75,12
-22,-79,17
-20,-81,17
-18,-75,11
-18,-69,9
-21,-63,8
-22,-61,7
-24,-56,8
-21,-51,10
-19,-49,11
-13,-47,13
-8,-48,14
-1,-48,17
-2,-54,17
-3,-56,18
-5,-66,26
-3,-71,30
-2,-68,32
0,-63,32
0,-63,30
-2,-70,27
-3,-69,25
-10,-66,16
-11,-64,15
-11,-60,14
-16,-59,12
-17,-59,14
-22,-60,17
-23,-61,18
-24,-61,23
-23,-59,30
-21,-56,33
-16,-57,36
-14,-61,36
-9,-73,35
-8,-89,31
-8,-95,30
-8,-89,29
-11,-75,24
-29,-61,17
-26,-67,21
-17,-79,13
-14,-81,16
-15,-81,16
-7,-75,13
-7,-73,11
-8,-66,6
-12,-60,5
-15,-58,4
-18,-56,5
-16,-55,5
-11,-48,11
-25,-48,10
-21,-49,12
-15,-52,14
-14,-53,17
-9,-53,22
-6,-56,23
-1,-57,26
2,-62,29
-3,-65,27
-4,-63,26
-17,-66,24
-27,-71,20
-22,-75,21
-20,-71,22
-17,-65,23
-19,-64,22
-22,-62,19
-22,-57,18
-22,-56,19
-20,-59,23
-20,-60,24
-18,-60,27
-18,-57,25
-19,-56,25
-20,-63,26
-20,-68,26
-14,-76,23
-11,-75,23
-9,-73,21
-16,-75,11
-21,-75,10
-21,-69,13
-19,-62,9
-17,-62,0
-11,-72,-1
-9,-78,2
-9,-76,3
-12,-72,1
-12,-70,2
-11,-66,4
-14,-64,3
-14,-63,2
-12,-61,4
-8,-54,7
-9,-52,7
-10,-53,7
-11,-53,9
-12,-54,10
-12,-56,11
-12,-56,13
-11,-63,12
-13,-76,11
-14,-82,11
-19,-77,10
-21,-77,8
-21,-83,10
-18,-78,13
-17,-71,10
-14,-59,8
-13,-60,8
-14,-63,10
-16,-65,11
-16,-61,12
-15,-56,13
-15,-54,16
-14,-51,19
-13,-51,20
-11,-52,21
-15,-56,18
-3,-55,26
3,-58,34
2,-55,35
-7,-56,30
-22,-59,24
-27,-66,23
-44,-84,23
-33,-78,29
-32,-69,17
-22,-71,20
-20,-70,23
-23,-61,19
-24,-57,16
-25,-49,12
-26,-49,11
-29,-47,11
-31,-51,11
-23,-54,13
-19,-60,16
-18,-61,17
-17,-61,16
-18,-60,15
-18,-59,17
-16,-57,20
-13,-56,21
-12,-56,21
-12,-58,20
-12,-60,20
-13,-64,19
-14,-69,18
-13,-80,18
-14,-81,18
-17,-71,18
-18,-55,18
-16,-55,18
-14,-67,17
-13,-68,17
-8,-63,16
-5,-54,15
-5,-52,15
0,-50,22
-1,-51,22
-3,-54,24
-12,-54,20
-13,-55,20
-15,-55,19
-14,-54,19
-15,-55,18
-17,-60,19
-17,-69,22
-14,-76,23
-12,-79,23
-13,-76,25
-15,-74,26
-18,-68,25
-18,-63,22
-18,-63,20
-16,-72,19
-14,-76,21
-13,-79,22
-13,-71,18
-13,-67,17
-14,-61,15
-16,-59,14
-17,-53,12
-17,-52,18
-19,-53,21
-18,-58,28
-19,-61,38
-25,-66,55
-28,-69,52
-41,-61,53
-54,-46,66
-68,-39,67
-76,-22,63
-80,-16,61
-66,-7,51
-50,2,37
-44,4,30
-26,12,21
-15,17,19
-5,26,14
8,23,10
10,25,9
23,27,10
19,34,5
18,40,11
18,38,19
15,47,22
8,60,25
3,64,25
5,65,31
2,68,27
5,67,20
29,70,20
31,70,21
7,72,14
1,72,13
-14,67,8
0,64,7
2,66,8
8,61,6
4,61,7
11,61,21
13,59,25
13,58,21
6,57,14
8,55,15
10,53,16
5,53,13
11,52,21
16,56,20
13,59,15
11,63,22
12,64,24
9,68,25
1,71,31
7,65,37
4,67,32
5,67,33
-6,53,33
-4,49,25
3,49,29
8,53,24
5,55,20
8,58,16
14,60,18
14,60,16
15,58,19
15,58,19
17,62,12
15,59,9
19,56,16
19,53,13
21,53,12
12,62,7
9,64,8
10,61,15
15,62,16
17,63,12
17,61,8
13,63,5
5,64,0
1,73,-1
-13,76,3
-23,72,21
-21,68,23
-19,58,26
-17,56,28
-13,50,32
-11,43,33
-11,39,32
-5,33,26
2,29,24
20,21,30
9,3,35
-6,-1,37
13,1,41
8,-8,50
-41,-25,72
-39,-26,73
-14,-44,69
-25,-60,64
-33,-61,57
-40,-63,45
-43,-69,44
-35,-79,41
-21,-83,35
-17,-87,33
-19,-82,26
-22,-80,20
-24,-78,10
-22,-77,10
-21,-76,11
-19,-71,13
-20,-67,12
-23,-61,8
-25,-59,5
-24,-58,6
-21,-55,8
-20,-50,10
-22,-42,12
-23,-42,11
-23,-47,9
-28,-54,12
-24,-58,13
-27,-69,12
-26,-75,12
-29,-84,14
-31,-94,15
-32,-96,14
-35,-79,11
-32,-69,13
-27,-59,18
-25,-58,20
-26,-57,19
-26,-57,14
-24,-58,14
-17,-62,18
-11,-59,19
-10,-59,18
-8,-62,18
-11,-60,15
-17,-60,13
-18,-61,14
-16,-61,16
-13,-64,20
-9,-64,22
-2,-75,22
0,-78,23
-1,-68,30
-2,-62,33
-2,-63,32
3,-59,30
4,-53,26
2,-42,17
-3,-36,15
-7,-34,14
-16,-36,12
-19,-40,13
-22,-54,20
-21,-64,24
-18,-74,22
-22,-65,24
-20,-60,28
-18,-60,29
-21,-63,29
-23,-67,28
-19,-68,30
-17,-70,30
-18,-72,31
-21,-74,32
-22,-78,31
-18,-75,25
-16,-70,22
-14,-69,18
-11,-70,20
-12,-73,18
-11,-72,18
-14,-65,17
-15,-57,15
-16,-54,13
-19,-51,11
-19,-51,11
-16,-49,13
-14,-47,15
-13,-48,16
-12,-49,17
-11,-53,17
-10,-60,18
-8,-63,22
-9,-65,22
-10,-69,22
-11,-66,21
-13,-65,24
-12,-62,30
-12,-60,27
-6,-61,24
-5,-61,22
-8,-58,22
-11,-56,22
-17,-50,20
-19,-48,18
-20,-49,17
-23,-53,16
-24,-57,18
-22,-62,23
-21,-59,25
-20,-57,26
-16,-64,29
-15,-67,29
-12,-75,30
-9,-75,31
-8,-74,32
-14,-77,30
-17,-79,30
-17,-65,27
-18,-58,24
-20,-54,20
-20,-62,21
-18,-67,21
-13,-73,18
-12,-74,19
-7,-66,17
-9,-60,11
-12,-59,11
-17,-58,8
-20,-56,7
-20,-54,8
-15,-56,10
-14,-56,11
-13,-60,12
-12,-62,13
-10,-63,18
-9,-63,20
-6,-60,26
-3,-55,31
-3,-52,31
-6,-49,32
-7,-45,31
-8,-51,33
-6,-63,32
-6,-66,32
-8,-66,29
-8,-63,28
-13,-54,23
-18,-50,20
-20,-50,20
-21,-53,20
-20,-55,20
-17,-59,23
-16,-61,26
-16,-61,27
-17,-62,29
-16,-63,29
-12,-68,29
-11,-70,29
-9,-76,29
-12,-79,28
-15,-82,26
-18,-78,24
-18,-67,20
-18,-63,13
-13,-69,13
-13,-69,14
-14,-69,15
-13,-67,16
-12,-60,13
-13,-58,10
-14,-59,9
-15,-62,10
-13,-62,11
-13,-59,11
-14,-58,11
-15,-54,11
-14,-51,14
-14,-52,15
-12,-54,19
-11,-55,19
-9,-60,21
-8,-69,21
-8,-67,23
-11,-62,24
-13,-60,24
-13,-61,24
-12,-67,23
-10,-72,23
-4,-73,24
-5,-69,22
-11,-61,16
-13,-60,15
-18,-61,15
-15,-61,16
-13,-60,15
-10,-59,16
-12,-60,16
-15,-60,15
-14,-61,16
-12,-60,18
-10,-61,21
-9,-62,21
-5,-60,22
-16,-63,21
-12,-63,24
-16,-70,29
-28,-74,27
-48,-73,23
-53,-68,16
-41,-65,14
-27,-63,20
-23,-59,23
-21,-50,21
-24,-46,19
-30,-40,18
-32,-39,17
-31,-42,18
-26,-47,23
-22,-49,24
-16,-52,23
-15,-55,22
-17,-56,21
-19,-55,21
-18,-53,22
-15,-53,23
-19,-58,17
-22,-64,19
-17,-75,25
-15,-84,25
-11,-87,22
-11,-82,21
-9,-67,23
-18,-62,11
-18,-64,9
-19,-61,5
-18,-58,4
-11,-55,5
-12,-51,3
-13,-49,2
-20,-45,-3
-25,-46,-3
-33,-52,5
-30,-57,18
-29,-59,21
-15,-59,33
-6,-59,37
3,-62,46
1,-68,48
-17,-73,33
-27,-73,25
-24,-73,24
-16,-78,29
-14,-80,34
-15,-75,32
-21,-68,20
-21,-74,17
-17,-84,15
-14,-86,13
-7,-79,12
-6,-70,11
-6,-66,10
-13,-58,8
-17,-55,7
-21,-50,8
-17,-45,9
-14,-43,10
-8,-42,13
-7,-41,15
-6,-44,19
-5,-49,21
-6,-52,20
-8,-63,21
-10,-65,23
-13,-69,28
-14,-70,29
-11,-70,30
-7,-74,24
-4,-76,21
-5,-72,20
-7,-68,23
-15,-61,22
-22,-56,20
-25,-53,20
-25,-52,20
-23,-54,23
-19,-60,27
-17,-61,28
-14,-60,28
-13,-65,27
-15,-69,27
-17,-75,28
-17,-77,27
-12,-77,29
-13,-67,27
-14,-68,25
-17,-62,24
-19,-55,18
-20,-56,15
-18,-72,18
-17,-79,20
-15,-78,18
-14,-74,17
-8,-64,16
-9,-59,15
-13,-58,14
-17,-56,10
-18,-54,10
-15,-51,13
-12,-50,14
-11,-48,14
-10,-47,14
-11,-49,15
-11,-53,18
-10,-54,19
-10,-62,23
-8,-64,25
-8,-66,25
-8,-71,25
-9,-68,25
-9,-65,22
-9,-66,20
-10,-66,20
-11,-64,21
-11,-62,20
-14,-57,19
-16,-56,19
-19,-56,18
-23,-56,19
-23,-59,21
-22,-61,24
-20,-62,25
-16,-61,27
-13,-60,27
-13,-63,27
-13,-68,29
-14,-70,28
-12,-72,25
-14,-68,24
-16,-70,24
-23,-78,22
-23,-75,19
-21,-67,11
-17,-69,10
-12,-81,13
-12,-80,14
-14,-72,13
-13,-65,11
-13,-64,12
-13,-62,11
-12,-61,11
-11,-58,11
-9,-54,13
-9,-53,13
-10,-51,13
-10,-53,13
-9,-53,13
-8,-54,14
-8,-53,15
-7,-54,15
-9,-55,15
-10,-59,16
-15,-73,16
-20,-73,17
-16,-69,22
-15,-70,21
-4,-74,23
-2,-77,20
-2,-82,17
-5,-91,12
-8,-90,7
-14,-83,-2
-29,-79,-8
-36,-75,-7
-39,-68,-5
-32,-60,1
-16,-49,14
-7,-47,14
-5,-47,11
-10,-53,4
-12,-57,3
-17,-62,4
-17,-61,2
-31,-61,-1
-44,-65,13
-53,-67,18
-45,-64,22
-43,-68,19
-44,-80,23
-46,-93,16
-47,-93,16
-39,-73,23
-33,-70,31
-30,-70,36
-33,-65,32
-31,-61,31
-24,-57,29
-22,-58,27
-17,-62,23
-15,-64,21
-11,-66,19
-9,-64,21
-8,-62,21
-11,-59,19
-13,-58,18
-15,-56,17
-12,-54,17
-10,-55,17
-7,-71,20
-4,-74,23
-3,-70,27
-6,-59,28
-6,-54,27
-7,-56,25
-6,-63,25
-2,-67,21
-1,-60,21
-3,-55,21
-9,-51,17
-13,-52,15
-16,-58,23
-12,-60,22
-18,-53,9
-21,-59,20
-22,-63,20
-30,-62,18
-34,-63,21
-33,-65,25
-30,-68,27
-25,-69,30
-19,-80,32
-15,-83,32
-18,-74,27
-19,-75,25
-18,-76,25
-21,-73,17
-21,-77,14
-16,-89,12
-11,-90,14
-7,-86,15
-7,-80,13
-7,-73,12
-13,-63,9
-15,-59,7
-20,-54,8
-5,-48,8
-3,-45,10
-5,-42,15
-5,-43,16
-6,-44,18
-7,-46,20
-8,-49,22
-13,-56,26
-14,-58,28
-17,-65,31
-15,-71,30
-15,-67,29
-17,-67,27
-21,-71,28
-24,-72,27
-26,-71,24
-22,-65,21
-18,-59,21
-18,-57,20
-20,-57,18
-22,-57,19
-25,-55,22
-26,-52,24
-24,-51,25
-21,-51,27
-21,-55,29
-19,-63,30
-18,-66,30
-16,-69,28
-13,-71,31
-14,-69,30
-18,-75,28
-19,-72,29
-24,-64,25
-34,-74,30
-36,-84,31
-39,-102,24
-36,-99,33
-40,-76,36
-43,-59,37
-40,-53,38
-50,-47,26
-49,-39,25
0,-31,47
-15,-25,50
-23,-19,46
-21,-6,39
-13,-3,35
1,6,34
-1,6,36
13,6,45
26,5,57
30,7,65
32,7,64
25,9,61
-2,14,52
7,15,60
14,15,62
5,19,53
-1,21,52
8,21,60
10,24,55
4,26,51
2,27,51
4,27,53
5,29,60
4,28,58
0,27,53
-6,27,51
-11,29,54
-25,30,50
-26,31,53
-23,31,60
-38,39,57
-38,36,54
-48,38,42
-58,38,41
-54,36,45
-46,32,46
-44,30,45
-45,24,36
-41,24,38
-42,28,36
-41,25,42
-41,26,42
-38,23,41
-38,22,38
-41,24,39
-38,24,41
-41,23,38
-42,24,37
-40,25,38
-38,28,42
-39,27,42
-47,27,39
-44,27,40
-45,26,40
-44,25,43
-45,23,44
-52,27,44
-55,26,45
-54,27,46
-51,28,43
-49,29,44
-51,31,47
-55,32,38
-46,26,31
-43,24,32
-42,23,32
-47,23,30
-48,26,31
-49,27,37
-48,28,39
-48,26,36
-45,25,33
-43,24,37
-52,23,41
-49,21,49
-44,19,49
-52,22,42
-51,21,41
-38,22,50
-44,19,49
-46,20,46
-53,21,36
-48,19,39
-43,19,40
-41,20,40
-44,22,39
-46,22,42
-43,21,44
-45,23,41
-49,23,41
-42,22,48
-38,24,46
-36,26,46
-31,25,58
-32,26,55
-32,27,46
-36,28,42
-39,27,40
-48,27,31
-45,26,33
-52,26,32
-54,27,33
-41,36,39
-56,40,32
-55,40,30
-42,31,36
-44,30,35
-49,29,45
-59,26,31
-60,29,21
-46,29,21
-44,27,31
-39,26,40
-38,28,38
-42,28,42
-45,31,40
-41,31,36
-42,27,32
-48,28,30
-44,28,31
-43,31,37
-43,32,41
-43,36,38
-44,34,35
-45,32,38
-46,31,39
-47,33,39
-48,29,45
-51,28,43
-55,18,43
-57,15,38
-54,17,37
-53,19,39
-48,20,41
-45,22,38
-46,24,37
-44,28,32
-41,31,30
-42,32,32
-39,32,34
-39,31,34
-41,30,36
-40,32,35
-39,33,35
-39,36,37
-40,37,40
-43,37,40
-47,34,40
-47,34,40
-46,35,40
-43,36,39
-48,39,37
-50,32,33
-49,31,32
-46,34,29
-46,36,28
-51,34,30
-50,33,35
-47,31,31
-37,31,32
-38,34,32
-41,33,33
-43,33,32
-42,31,29
-40,30,31
-42,30,30
-44,30,31
-40,31,32
-38,29,34
-45,29,41
-50,28,39
-55,28,35
-54,28,39
-58,30,35
-59,29,33
-58,30,31
-59,27,29
-60,23,28
-54,16,28
-54,16,27
-54,17,24
-55,16,26
-58,17,28
-54,18,30
-52,21,30
-50,25,31
-47,28,31
-47,29,30
-46,28,30
-46,27,29
-49,27,29
-50,27,30
-49,28,30
-46,29,33
-47,31,34
-49,35,34
-49,33,32
-52,31,29
-56,33,30
-54,31,33
-53,31,31
-54,31,28
-59,30,25
-62,24,22
-61,24,19
-59,27,15
-57,27,16
-56,29,18
-55,26,21
-56,25,20
-54,23,22
-52,23,24
-49,25,31
-45,27,32
-46,31,30
-46,28,26
-47,28,25
-52,30,21
-51,30,23
-50,28,26
-50,26,31
-51,26,31
-52,27,31
-53,27,32
-56,27,31
-54,30,34
-60,25,32
-58,19,30
-55,19,28
-53,21,31
-53,20,34
-56,19,31
-55,17,33
-58,17,31
-52,21,33
-45,23,38
-48,23,44
-43,23,46
-45,23,43
-31,25,39
-31,26,39
-37,32,25
-6,32,50
-40,25,32
-48,20,36
-61,23,31
-42,15,52
-45,11,54
-42,7,59
-46,9,59
-39,9,60
-20,8,67
-19,9,69
-26,23,69
-13,9,64
-13,7,60
-27,17,58
-27,15,62
-30,15,62
-31,18,53
-30,14,54
-35,13,54
-31,15,55
-27,19,48
-13,19,58
-7,15,60
-25,19,57
-28,21,57
-33,23,56
-36,22,58
-37,28,56
-29,29,55
-23,27,55
-29,23,58
-30,22,60
-31,25,55
-30,21,57
-27,22,54
-27,18,51
-20,20,50
-20,21,54
-27,23,55
-22,25,53
-20,22,54
-22,23,56
-15,27,55
-17,25,57
-20,24,57
-17,26,55
-16,27,56
-16,27,56
-18,25,56
-17,27,57
-20,25,56
-20,26,56
-15,27,56
-14,26,56
-18,26,58
-22,28,58
-20,28,58
-19,27,58
