1602622601.00
64.000000
-0.00
-0.00
-0.00
-0.00
-0.00
-0.00
-0.00
-0.00
-0.00
-0.00
0.00
0.01
0.01
-0.00
-0.03
-0.05
-0.05
0.00
0.13
0.36
0.66
1.01
1.37
1.72
2.06
2.40
2.79
3.24
3.80
4.42
5.06
5.66
6.20
6.68
7.15
7.68
8.31
9.14
10.09
11.04
11.88
12.56
13.14
13.76
14.65
15.96
17.91
20.32
22.90
25.38
27.58
29.57
31.68
34.32
37.81
42.54
48.15
54.10
59.83
64.97
69.58
74.14
79.34
85.71
93.76
103.00
112.62
121.73
129.77
136.75
143.30
150.75
157.77
166.64
177.95
191.79
206.97
220.57
228.25
225.36
208.53
176.87
132.76
80.05
23.07
-34.94
-92.44
-149.16
-205.23
-260.37
-313.74
-363.87
-409.83
-450.91
-486.50
-515.74
-537.23
-549.22
-549.96
-538.37
-514.21
-478.67
-433.88
-382.45
-327.02
-269.84
-212.63
-156.66
-102.95
-52.37
-5.90
35.58
71.43
101.35
125.50
144.38
158.69
169.15
176.37
180.75
182.57
182.07
179.51
175.23
169.65
163.18
156.15
148.81
141.30
133.69
126.02
118.33
110.69
103.16
95.80
88.68
81.83
75.25
68.95
62.95
57.25
51.86
46.78
42.03
37.59
33.45
29.61
26.07
22.81
19.83
17.11
14.67
12.48
10.54
8.83
7.35
6.07
4.97
4.05
3.27
2.62
2.09
1.65
1.30
1.01
0.79
0.61
0.48
0.37
0.29
0.24
0.21
0.19
0.18
0.18
0.20
0.22
0.25
0.28
0.32
0.37
0.41
0.45
0.50
0.55
0.60
0.65
0.71
0.77
0.83
0.90
0.98
1.06
1.16
1.26
1.38
1.51
1.66
1.83
2.01
2.22
2.45
2.70
2.98
3.29
3.63
4.00
4.41
4.85
5.33
5.84
6.39
6.99
7.62
8.30
9.03
9.79
10.61
11.47
12.37
13.32
14.33
15.39
16.53
17.72
18.97
20.26
21.53
22.74
23.78
24.57
24.97
24.86
24.13
22.70
20.55
17.66
14.14
10.06
5.61
1.02
-3.52
-7.78
-11.57
-14.75
-17.20
-18.89
-19.81
-20.00
-19.56
-18.60
-17.23
-15.60
-13.83
-12.02
-10.23
-8.49
-6.78
-5.09
-3.41
-1.74
-0.06
1.63
3.29
4.95
6.65
8.52
10.51
12.64
14.91
17.28
19.70
22.13
24.55
27.07
29.89
32.95
36.27
39.82
43.50
47.12
50.50
53.59
56.51
59.69
63.10
66.87
70.99
75.26
79.30
82.69
85.22
87.02
88.65
90.13
91.65
93.04
93.69
92.57
88.34
79.61
64.83
47.30
28.46
9.42
-9.24
-27.53
-45.86
-64.97
-85.70
-108.75
-134.32
-162.26
-190.79
-216.60
-235.61
-244.36
-241.31
-227.54
-206.29
-181.65
-157.61
-136.37
-118.40
-103.20
-90.16
-79.07
-70.09
-63.26
-58.12
-54.11
-50.39
-46.39
-42.05
-37.86
-34.64
-33.12
-33.67
-36.14
-39.99
-44.35
-48.19
-50.56
-50.66
-47.93
-42.07
-33.06
-21.23
-7.33
7.63
22.50
36.21
47.96
57.31
64.21
68.90
71.78
73.28
73.82
73.70
73.12
72.16
70.85
69.15
67.05
64.60
61.94
59.28
56.81
54.64
52.68
50.72
48.43
45.54
41.93
37.70
33.14
28.57
24.21
20.09
16.04
11.80
7.13
1.98
-3.55
-9.21
-14.80
-20.21
-25.52
-30.90
-36.62
-42.83
-49.54
-56.45
-62.96
-68.18
-71.11
-70.84
-66.79
-58.91
-47.76
-34.35
-19.94
-5.78
7.09
18.02
26.78
33.41
38.14
41.24
43.00
43.65
43.47
42.80
41.91
40.94
39.92
38.73
37.25
35.49
33.53
31.56
29.74
28.12
26.59
24.94
22.90
20.29
17.00
13.08
8.64
3.88
-1.05
-6.04
-11.09
-16.29
-21.78
-27.74
-34.34
-41.62
-49.36
-57.02
-63.65
-68.11
-69.34
-66.69
-60.15
-50.31
-38.19
-24.95
-11.64
0.95
12.25
21.90
29.68
35.57
39.65
42.16
43.38
43.62
43.14
42.15
40.83
39.36
37.87
36.46
35.14
33.84
32.46
30.93
29.21
27.32
25.26
23.01
20.46
17.45
13.84
9.56
4.73
-0.42
-5.60
-10.56
-15.21
-19.64
-24.03
-28.67
-33.82
-39.67
-46.26
-53.39
-60.57
-66.96
-71.52
-73.20
-71.22
-65.31
-55.82
-43.61
-29.92
-16.06
-3.16
8.09
17.41
24.92
30.94
35.75
39.56
42.39
44.26
45.24
45.52
45.34
44.86
44.15
43.20
42.02
40.73
39.51
38.56
37.89
37.37
36.71
35.62
33.87
31.41
28.34
24.82
21.03
17.07
12.95
8.65
4.07
-0.83
-6.02
-11.41
-16.85
-22.20
-27.37
-32.39
-37.33
-42.40
-47.87
-53.94
-60.65
-67.74
-74.51
-79.92
-82.80
-82.17
-77.54
-69.07
-57.52
-44.03
-29.86
-16.13
-3.67
7.08
16.03
23.32
29.23
33.99
37.81
40.74
42.83
44.15
44.84
45.11
45.17
45.16
45.16
45.18
45.21
45.22
45.18
45.05
44.77
44.24
43.36
42.00
40.11
37.63
34.60
31.10
27.21
23.03
18.61
14.06
9.49
5.05
0.80
-3.29
-7.35
-11.55
-15.97
-20.54
-25.08
-29.40
-33.42
-37.24
-41.06
-45.14
-49.78
-55.22
-61.55
-68.59
-75.76
-82.00
-86.00
-86.56
-82.91
-75.07
-63.76
-50.15
-35.58
-21.23
-8.00
3.53
13.10
20.73
26.62
31.10
34.48
36.93
38.58
39.52
39.90
39.96
39.89
39.84
39.89
40.01
40.18
40.38
40.58
40.75
40.76
40.45
39.66
38.31
36.32
33.71
30.59
27.07
23.36
19.58
15.81
12.00
8.03
3.76
-0.82
-5.66
-10.60
-15.48
-20.18
-24.63
-28.81
-32.75
-36.63
-40.71
-45.39
-50.97
-57.54
-64.70
-71.63
-77.17
-80.11
-79.50
-74.93
-66.55
-55.04
-41.45
-26.98
-12.81
0.12
11.17
20.11
27.04
32.27
36.17
39.06
41.12
42.45
43.11
43.22
42.91
42.42
41.92
41.58
41.44
41.45
41.48
41.42
41.16
40.70
40.06
39.14
37.80
35.83
33.12
29.74
25.92
21.93
17.92
13.83
9.40
4.39
-1.29
-7.46
-13.78
-19.85
-25.39
-30.30
-34.69
-38.89
-43.31
-48.44
-54.62
-61.90
-69.86
-77.59
-83.81
-87.18
-86.65
-81.75
-72.75
-60.51
-46.34
-31.60
-17.48
-4.71
6.41
15.87
23.88
30.64
36.28
40.83
44.33
46.86
48.53
49.55
50.08
50.31
50.34
50.25
50.12
50.00
49.93
49.90
49.78
49.33
48.29
46.45
43.74
40.31
36.42
32.37
28.31
24.25
20.03
15.43
10.31
4.62
-1.45
-7.66
-13.66
-19.18
-24.11
-28.56
-32.87
-37.56
-43.16
-49.96
-57.85
-66.15
-73.72
-79.14
-81.17
-78.98
-72.51
-62.38
-49.71
-35.81
-21.87
-8.76
2.98
13.10
21.56
28.45
33.93
38.26
41.69
44.42
46.59
48.22
49.25
49.66
49.47
48.82
47.92
46.98
46.14
45.42
44.71
43.85
42.64
40.99
38.84
36.22
33.13
29.52
25.35
20.64
15.48
10.10
4.72
-0.53
-5.66
-10.78
-15.99
-21.32
-26.70
-32.06
-37.45
-43.11
-49.35
-56.41
-64.03
-71.46
-77.46
-80.63
-79.85
-74.66
-65.42
-53.19
-39.41
-25.54
-12.68
-1.48
7.86
15.39
21.32
25.81
29.04
31.19
32.46
33.08
33.28
33.20
32.96
32.60
32.20
31.80
31.47
31.20
30.91
30.46
29.74
28.63
27.06
25.00
22.37
19.12
15.21
10.66
5.60
0.24
-5.18
-10.50
-15.63
-20.69
-25.91
-31.62
-38.13
-45.50
-53.49
-61.44
-68.28
-72.80
-73.84
-70.71
-63.35
-52.41
-39.09
-24.82
-10.96
1.50
12.07
20.67
27.48
32.79
36.78
39.59
41.32
42.12
42.23
41.93
41.48
40.99
40.47
39.86
39.15
38.40
37.68
37.02
36.33
35.41
34.05
32.13
29.64
26.68
23.33
19.56
15.25
10.28
4.63
-1.54
-7.95
-14.29
-20.36
-26.16
-31.83
-37.64
-43.86
-50.69
-58.16
-65.98
-73.55
-79.88
-83.84
-84.36
-80.80
-73.19
-62.26
-49.20
-35.38
-21.92
-9.55
1.43
11.01
19.34
26.54
32.73
37.99
42.39
45.99
48.78
50.76
51.93
52.36
52.24
51.81
51.34
51.00
50.82
50.68
50.41
49.81
48.74
47.13
44.99
42.34
39.22
35.68
31.79
27.61
23.24
18.73
14.14
9.50
4.78
-0.08
-5.11
-10.31
-15.61
-20.90
-26.05
-31.02
-35.91
-40.91
-46.30
-52.43
-59.50
-67.46
-75.90
-83.94
-90.32
-93.66
-92.83
-87.32
-77.43
-64.23
-49.21
-33.89
-19.50
-6.72
4.20
13.39
21.11
27.69
33.39
38.39
42.77
46.51
49.57
51.91
53.54
54.54
55.07
55.29
55.36
55.43
55.54
55.65
55.64
55.34
54.62
53.41
51.73
49.65
47.22
44.42
41.19
37.49
33.32
28.79
24.09
19.36
14.68
10.06
5.44
0.76
-3.96
-8.71
-13.46
-18.20
-22.93
-27.59
-32.11
-36.38
-40.47
-44.60
-49.20
-54.60
-60.89
-67.64
-73.90
-78.41
-79.93
-77.65
-71.39
-61.65
-49.46
-36.05
-22.64
-10.15
0.82
10.03
17.48
23.35
27.83
31.13
33.44
34.97
35.92
36.49
36.81
36.93
36.89
36.73
36.53
36.45
36.58
36.93
37.29
37.34
36.73
35.16
32.57
29.13
25.14
20.97
16.89
12.98
9.16
5.23
1.00
-3.60
-8.51
-13.52
-18.40
-22.98
-27.24
-31.34
-35.56
-40.26
-45.65
-51.76
-58.27
-64.51
-69.58
-72.46
-72.25
-68.41
-60.91
-50.33
-37.71
-24.37
-11.57
-0.21
9.25
16.83
22.78
27.43
30.98
33.55
35.24
36.18
36.65
36.90
37.11
37.29
37.40
37.34
37.14
36.83
36.51
36.14
35.57
34.55
32.80
30.20
26.81
22.92
18.90
15.08
11.58
8.27
4.82
0.84
-3.90
-9.36
-15.22
-21.06
-26.50
-31.33
-35.67
-39.85
-44.34
-49.57
-55.74
-62.63
-69.59
-75.53
-79.23
-79.64
-76.17
-68.91
-58.59
-46.34
-33.47
-21.11
-10.05
-0.67
7.02
13.31
18.55
23.10
27.13
30.62
33.43
35.38
36.41
36.62
36.32
35.88
35.63
35.75
36.26
37.02
37.88
38.65
39.23
39.49
39.30
38.47
36.88
34.48
31.33
27.66
23.77
19.89
16.18
12.59
8.98
5.16
1.03
-3.34
-7.77
-12.04
-16.03
-19.78
-23.44
-27.19
-31.20
-35.61
-40.55
-46.13
-52.34
-58.91
-65.20
-70.28
-73.15
-73.06
-69.74
-63.43
-54.81
-44.66
-33.78
-22.82
-12.33
-2.73
5.72
12.91
18.92
23.91
28.08
31.52
34.21
36.12
37.23
37.61
37.38
36.68
35.67
34.45
33.17
31.92
30.80
29.84
29.00
28.16
27.16
25.86
24.11
21.81
18.97
15.72
12.33
9.14
6.39
4.10
2.07
-0.06
-2.64
-5.82
-9.54
-13.55
-17.57
-21.43
-25.13
-28.88
-32.94
-37.58
-42.92
-48.81
-54.82
-60.24
-64.17
-65.77
-64.43
-59.95
-52.55
-42.85
-31.76
-20.26
-9.27
0.47
8.57
14.92
19.74
23.32
25.98
27.91
29.19
29.80
29.80
29.37
28.74
28.13
27.64
27.22
26.72
25.99
24.99
23.82
22.58
21.32
19.91
18.06
15.46
11.93
7.57
2.69
-2.28
-6.99
-11.28
-15.22
-19.04
-22.97
-27.19
-31.79
-36.86
-42.40
-48.34
-54.40
-60.01
-64.32
-66.38
-65.40
-60.94
-53.13
-42.61
-30.40
-17.67
-5.48
5.39
14.51
21.79
27.35
31.40
34.19
35.94
36.85
37.14
37.01
36.58
35.88
34.90
33.61
32.06
30.40
28.81
27.45
26.30
25.27
24.06
22.43
20.11
16.94
12.90
8.10
2.77
-2.80
-8.36
-13.82
-19.22
-24.80
-30.86
-37.70
-45.41
-53.80
-62.37
-70.31
-76.61
-80.22
-80.29
-76.35
-68.47
-57.29
-43.87
-29.44
-15.17
-1.96
9.67
19.54
27.71
34.33
39.57
43.62
46.60
48.61
49.78
50.27
50.24
49.88
49.27
48.40
47.22
45.64
43.70
41.52
39.35
37.34
35.49
33.60
31.32
28.30
24.30
19.29
13.43
7.02
0.36
-6.31
-12.84
-19.21
-25.49
-31.78
-38.19
-44.83
-51.73
-58.84
-65.79
-71.90
-76.18
-77.50
-74.91
-68.03
-57.29
-43.76
-28.92
-14.17
-0.50
11.63
22.17
31.22
38.86
45.10
49.95
53.51
55.97
57.57
58.50
58.82
58.53
57.63
56.21
54.43
52.52
50.66
48.94
47.36
45.83
44.19
42.28
39.95
37.05
33.52
29.34
24.58
19.33
13.70
7.77
1.60
-4.79
-11.34
-17.95
-24.50
-30.90
-37.27
-43.91
-51.18
-59.22
-67.69
-75.59
-81.51
-83.96
-81.91
-75.20
-64.46
-50.96
-36.14
-21.33
-7.49
4.75
15.05
23.32
29.65
34.28
37.53
39.69
41.02
41.68
41.81
41.52
40.86
39.85
38.50
36.84
34.96
33.03
31.30
29.86
28.72
27.67
26.34
24.40
21.55
17.65
12.79
7.22
1.30
-4.60
-10.18
-15.33
-20.20
-25.16
-30.75
-37.43
-45.40
-54.35
-63.40
-71.29
-76.61
-78.21
-75.50
-68.50
-57.86
-44.62
-30.06
-15.39
-1.69
10.31
20.20
27.91
33.62
37.64
40.29
41.86
42.62
42.79
42.56
42.06
41.34
40.43
39.33
38.11
36.83
35.52
34.15
32.62
30.76
28.39
25.36
21.61
17.16
12.11
6.65
0.97
-4.75
-10.40
-16.03
-21.79
-27.99
-34.95
-42.87
-51.68
-60.91
-69.69
-76.90
-81.32
-81.99
-78.35
-70.44
-58.91
-44.89
-29.77
-14.86
-1.22
10.57
20.40
28.44
34.99
40.29
44.43
47.43
49.33
50.22
50.31
49.82
48.97
47.89
46.65
45.30
43.91
42.54
41.18
39.73
38.00
35.79
32.96
29.51
25.53
21.07
16.15
10.75
4.84
-1.49
-8.06
-14.62
-20.99
-27.15
-33.26
-39.69
-46.81
-54.84
-63.64
-72.61
-80.68
-86.53
-88.90
-86.95
-80.49
-70.01
-56.56
-41.44
-25.97
-11.25
2.02
13.44
23.03
30.97
37.53
42.93
47.35
50.86
53.49
55.29
56.28
56.55
56.16
55.26
54.02
52.66
51.40
50.36
49.53
48.69
47.51
45.64
42.85
39.13
34.70
29.94
25.22
20.73
16.44
12.10
7.37
1.99
-4.07
-10.61
-17.32
-23.86
-30.05
-35.86
-41.52
-47.38
-53.83
-61.16
-69.29
-77.67
-85.25
-90.67
-92.57
-90.02
-82.79
-71.45
-57.23
-41.69
-26.37
-12.41
-0.43
9.49
17.64
24.45
30.25
35.14
39.06
41.93
43.78
44.84
45.41
45.76
45.98
45.98
45.65
44.92
43.85
42.58
41.21
39.71
37.89
35.56
32.55
28.88
24.62
19.87
14.68
9.07
3.06
-3.20
-9.52
-15.63
-21.40
-26.92
-32.50
-38.59
-45.53
-53.42
-61.90
-70.18
-77.14
-81.58
-82.47
-79.24
-71.87
-61.00
-47.70
-33.34
-19.17
-6.19
5.05
14.39
21.98
28.10
32.96
36.72
39.46
41.22
42.07
42.14
41.53
40.38
38.83
37.00
35.05
33.12
31.35
29.77
28.23
26.48
24.15
20.94
16.67
11.40
5.36
-1.05
-7.44
-13.54
-19.27
-24.85
-30.72
-37.40
-45.21
-54.13
-63.55
-72.37
-79.20
-82.69
-81.96
-76.83
-67.82
-56.04
-42.78
-29.22
-16.17
-4.10
6.83
16.52
24.88
31.79
37.14
40.98
43.49
44.99
45.79
46.12
46.04
45.48
44.38
42.76
40.81
38.80
36.92
35.20
33.41
31.14
27.93
23.50
17.84
11.23
4.11
-3.12
-10.18
-16.99
-23.64
-30.37
-37.46
-45.23
-53.86
-63.32
-73.21
-82.69
-90.60
-95.66
-96.78
-93.40
-85.64
-74.29
-60.60
-45.92
-31.43
-17.86
-5.51
5.68
15.94
25.43
34.13
41.84
48.28
53.24
56.71
58.88
60.11
60.74
61.05
61.16
61.07
60.73
60.08
59.03
57.53
55.51
52.87
49.55
45.52
40.77
35.34
29.32
22.78
15.87
8.72
1.48
-5.79
-13.06
-20.42
-28.07
-36.28
-45.27
-55.20
-65.93
-76.98
-87.48
-96.20
-101.85
-103.34
-100.11
-92.30
-80.76
-66.77
-51.65
-36.43
-21.67
-7.54
5.99
18.83
30.69
41.19
49.92
56.75
61.78
65.32
67.76
69.38
70.40
70.95
71.14
71.11
70.93
70.57
69.87
68.57
66.46
63.47
59.64
55.16
50.16
44.72
38.79
32.26
25.06
17.21
8.88
0.37
-8.03
-16.06
-23.67
-31.05
-38.63
-46.96
-56.43
-67.03
-78.10
-88.37
-96.20
-100.03
-98.90
-92.70
-82.23
-68.81
-53.87
-38.56
-23.55
-9.14
4.57
17.42
29.11
39.29
47.61
53.94
58.36
61.15
62.74
63.57
64.00
64.23
64.34
64.29
63.98
63.30
62.19
60.57
58.35
55.45
51.76
47.18
41.73
35.48
28.63
21.45
14.16
6.94
-0.19
-7.32
-14.56
-22.06
-29.97
-38.44
-47.67
-57.74
-68.44
-79.09
-88.55
-95.38
-98.22
-96.30
-89.61
-78.86
-65.26
-50.04
-34.21
-18.43
-3.12
11.40
24.78
36.72
46.98
55.48
62.26
67.46
71.24
73.68
74.89
75.01
74.24
72.88
71.27
69.65
68.15
66.70
65.15
63.26
60.82
57.71
53.89
49.38
44.24
38.56
32.39
25.80
18.85
11.56
3.94
-3.96
-12.07
-20.18
-28.10
-35.62
-42.74
-49.64
-56.74
-64.49
-73.20
-82.75
-92.53
-101.43
-108.08
-111.22
-109.94
-104.00
-93.76
-80.15
-64.33
-47.45
-30.49
-14.08
1.35
15.57
28.38
39.63
49.14
56.77
62.51
66.46
68.89
70.13
70.52
70.31
69.66
68.71
67.56
66.33
65.10
63.89
62.54
60.79
58.31
54.92
50.63
45.68
40.47
35.33
30.44
25.74
20.99
15.89
10.25
4.05
-2.57
-9.31
-15.95
-22.33
-28.43
-34.39
-40.43
-46.81
-53.78
-61.50
-69.94
-78.80
-87.43
-94.81
-99.80
-101.35
-98.87
-92.34
-82.39
-70.00
-56.28
-42.15
-28.25
-14.97
-2.58
8.73
18.77
27.40
34.52
40.12
44.23
46.95
48.41
48.82
48.50
47.77
46.92
46.16
45.56
45.04
44.47
43.68
42.50
40.83
38.58
35.72
32.30
28.33
23.86
18.88
13.44
7.59
1.41
-4.91
-11.20
-17.25
-23.02
-28.53
-33.95
-39.56
-45.66
-52.47
-59.96
-67.72
-75.00
-80.76
-83.95
-83.81
-80.03
-72.83
-62.83
-50.92
-37.98
-24.80
-12.00
-0.08
10.66
20.04
28.03
34.65
39.94
43.93
46.63
48.11
48.55
48.18
47.30
46.21
45.10
44.10
43.22
42.45
41.64
40.62
39.17
37.15
34.49
31.27
27.58
23.54
19.13
14.25
8.81
2.79
-3.69
-10.34
-16.86
-23.04
-28.80
-34.24
-39.57
-45.08
-51.04
-57.57
-64.61
-71.76
-78.30
-83.24
-85.64
-84.72
-80.25
-72.51
-62.26
-50.50
-38.18
-26.04
-14.52
-3.78
6.14
15.24
23.50
30.80
37.02
42.03
45.76
48.27
49.73
50.34
50.34
49.89
49.15
48.25
47.34
46.53
45.85
45.12
44.02
42.21
39.43
35.71
31.31
26.66
22.13
17.88
13.82
9.71
5.26
0.34
-4.99
-10.45
-15.67
-20.38
-24.57
-28.47
-32.57
-37.35
-43.15
-49.94
-57.29
-64.45
-70.51
-74.59
-76.01
-74.38
-69.72
-62.38
-52.96
-42.28
-31.19
-20.36
-10.29
-1.20
6.87
14.04
20.37
25.88
30.50
34.12
36.68
38.17
38.73
38.58
38.01
37.27
36.57
36.01
35.57
35.11
34.46
33.42
31.86
29.76
27.15
24.16
20.86
17.33
13.60
9.67
5.58
1.42
-2.71
-6.72
-10.56
-14.30
-18.07
-22.02
-26.28
-30.97
-36.15
-41.80
-47.74
-53.51
-58.35
-61.34
-61.69
-59.01
-53.49
-45.80
-36.92
-27.78
-19.00
-10.91
-3.59
2.94
8.61
13.32
16.98
19.64
21.48
22.79
23.83
24.73
25.45
25.83
25.66
24.88
23.53
21.86
20.16
18.66
17.43
16.31
14.99
13.11
10.46
7.01
3.00
-1.24
-5.38
-9.26
-12.93
-16.61
-20.62
-25.22
-30.52
-36.42
-42.56
-48.29
-52.81
-55.35
-55.30
-52.47
-47.06
-39.62
-30.87
-21.58
-12.46
-4.05
3.25
9.23
13.88
17.35
19.92
21.84
23.31
24.40
25.10
25.36
25.19
24.67
23.97
23.24
22.60
22.06
21.50
20.81
19.88
18.64
17.06
15.07
12.57
9.49
5.79
1.61
-2.80
-7.17
-11.31
-15.21
-19.15
-23.46
-28.51
-34.36
-40.69
-46.86
-52.00
-55.30
-56.18
-54.41
-50.14
-43.78
-35.97
-27.38
-18.70
-10.47
-3.01
3.57
9.36
14.53
19.15
23.18
26.42
28.71
30.00
30.43
30.27
29.83
29.24
28.54
27.68
26.63
25.46
24.37
23.49
22.82
22.14
21.04
19.12
16.12
12.12
7.45
2.57
-2.09
-6.34
-10.16
-13.77
-17.46
-21.51
-26.11
-31.25
-36.74
-42.15
-46.87
-50.22
-51.57
-50.52
-46.99
-41.27
-33.92
-25.67
-17.26
-9.28
-2.07
4.28
9.89
14.91
19.39
23.25
26.31
28.41
29.55
29.91
29.85
29.68
29.64
29.76
29.90
29.86
29.45
28.55
27.19
25.47
23.50
21.38
19.11
16.63
13.86
10.71
7.26
3.59
-0.11
-3.72
-7.18
-10.54
-13.95
-17.57
-21.56
-26.00
-30.85
-35.91
-40.83
-45.12
-48.22
-49.57
-48.72
-45.48
-39.94
-32.55
-24.00
-15.15
-6.78
0.51
6.41
10.89
14.14
16.41
17.96
18.98
19.63
20.01
20.25
20.41
20.53
20.55
20.38
19.93
19.18
18.23
17.25
16.33
15.43
14.32
12.67
10.19
6.85
2.84
-1.48
-5.71
-9.67
-13.37
-17.06
-21.04
-25.57
-30.70
-36.25
-41.76
-46.59
-50.04
-51.44
-50.36
-46.71
-40.70
-32.89
-23.97
-14.76
-5.97
1.83
8.34
13.50
17.46
20.50
22.81
24.58
25.91
26.87
27.54
28.02
28.34
28.51
28.45
28.09
27.44
26.56
25.59
24.60
23.54
22.21
20.34
17.70
14.23
10.06
5.48
0.81
-3.74
-8.12
-12.40
-16.77
-21.45
-26.62
-32.43
-38.89
-45.77
-52.57
-58.49
-62.56
-63.90
-61.98
-56.81
-48.93
-39.21
-28.69
-18.23
-8.45
0.31
7.96
14.51
20.10
24.85
28.90
32.30
35.05
37.07
38.30
38.73
38.48
37.79
36.93
36.16
35.62
35.30
35.05
34.63
33.84
32.52
30.66
28.36
25.78
23.04
20.15
17.01
13.51
9.55
5.17
0.50
-4.31
-9.16
-14.05
-19.08
-24.37
-30.07
-36.29
-43.00
-50.02
-56.90
-62.90
-67.12
-68.67
-66.90
-61.61
-53.17
-42.39
-30.40
-18.34
-7.09
2.84
11.37
18.68
25.10
30.85
36.03
40.59
44.37
47.26
49.17
50.09
50.06
49.15
47.55
45.49
43.30
41.26
39.60
38.31
37.20
35.96
34.25
31.86
28.75
25.12
21.22
17.25
13.33
9.40
5.40
1.26
-3.03
-7.41
-11.84
-16.25
-20.65
-25.00
-29.30
-33.64
-38.27
-43.46
-49.47
-56.17
-62.98
-68.87
-72.62
-73.22
-70.11
-63.44
-53.94
-42.65
-30.71
-19.07
-8.40
1.01
9.10
16.01
21.91
26.97
31.19
34.55
36.95
38.38
38.90
38.73
38.15
37.50
37.05
36.95
37.19
37.61
37.93
37.87
37.22
35.93
34.05
31.68
28.89
25.63
21.86
17.57
12.86
7.95
3.00
-1.82
-6.56
-11.34
-16.34
-21.64
-27.29
-33.26
-39.54
-46.04
-52.48
-58.31
-62.67
-64.59
-63.33
-58.61
-50.79
-40.72
-29.48
-18.08
-7.21
2.75
11.71
19.67
26.65
32.63
37.57
41.46
44.37
46.41
47.76
48.63
49.18
49.49
49.59
49.45
49.04
48.42
47.69
46.91
46.06
44.97
43.40
41.16
38.18
34.60
30.69
26.75
22.97
19.39
15.90
12.31
8.44
4.19
-0.43
-5.28
-10.22
-15.11
-19.90
-24.68
-29.72
-35.38
-42.02
-49.73
-58.23
-66.76
-74.23
-79.47
-81.57
-80.09
-75.10
-67.16
-57.05
-45.62
-33.70
-21.95
-10.88
-0.76
8.38
16.66
24.29
31.36
37.76
43.23
47.48
50.33
51.88
52.43
52.45
52.29
52.16
52.04
51.85
51.53
51.05
50.44
49.67
48.60
47.01
44.71
41.66
38.00
34.03
30.01
26.09
22.24
18.32
14.18
9.76
5.12
0.40
-4.25
-8.76
-13.12
-17.36
-21.57
-25.79
-30.16
-34.85
-40.09
-46.04
-52.61
-59.40
-65.65
-70.37
-72.64
-71.81
-67.69
-60.58
-51.11
-40.10
-28.45
-16.98
-6.35
2.99
10.91
17.47
22.90
27.40
31.13
34.15
36.39
37.84
38.50
38.47
37.93
37.15
36.38
35.86
35.70
35.90
36.33
36.74
36.82
36.32
35.07
33.04
30.32
27.11
23.60
19.99
16.36
12.71
8.96
5.00
0.75
-3.78
-8.52
-13.30
-17.93
-22.27
-26.34
-30.36
-34.63
-39.46
-44.90
-50.71
-56.28
-60.81
-63.44
-63.54
-60.78
-55.25
-47.37
-37.84
-27.45
-17.02
-7.22
1.47
8.79
14.67
19.18
22.48
24.74
26.16
26.93
27.22
27.21
27.04
26.78
26.51
26.22
25.95
25.69
25.43
25.13
24.67
23.95
22.84
21.31
19.33
16.96
14.23
11.14
7.66
3.81
-0.34
-4.60
-8.81
-12.91
-16.95
-21.11
-25.62
-30.64
-36.20
-42.18
-48.27
-53.95
-58.56
-61.41
-61.86
-59.59
-54.62
-47.38
-38.54
-28.91
-19.18
-9.90
-1.43
6.05
12.47
17.83
22.24
25.82
28.72
30.99
32.66
33.67
33.96
33.56
32.64
31.53
30.58
30.09
30.09
30.39
30.63
30.49
29.70
28.23
26.21
23.77
21.06
18.13
15.01
11.71
8.23
4.56
0.69
-3.41
-7.73
-12.21
-16.76
-21.27
-25.72
-30.23
-35.07
-40.48
-46.56
-53.12
-59.52
-64.86
-68.11
-68.48
-65.59
-59.61
-51.14
-41.08
-30.34
-19.69
-9.72
-0.84
6.75
12.96
17.91
21.83
25.00
27.67
29.93
31.75
33.01
33.61
33.58
33.10
32.41
31.75
31.26
30.96
30.72
30.37
29.72
28.64
27.11
25.15
22.78
20.05
16.98
13.58
9.91
6.05
2.13
-1.77
-5.57
-9.31
-13.02
-16.82
-20.82
-25.20
-30.15
-35.73
-41.79
-47.85
-53.11
-56.61
-57.52
-55.37
-50.22
-42.57
-33.23
-23.12
-13.03
-3.53
5.01
12.40
18.58
23.53
27.25
29.82
31.38
32.08
32.14
31.75
31.09
30.31
29.55
28.95
28.60
28.53
28.59
28.59
28.23
27.33
25.87
23.91
21.65
19.17
16.50
13.59
10.30
6.58
2.44
-2.03
-6.63
-11.13
-15.39
-19.33
-23.11
-27.02
-31.50
-36.85
-43.06
-49.68
-55.82
-60.41
-62.53
-61.67
-57.82
-51.41
-43.13
-33.70
-23.81
-14.00
-4.76
3.50
10.48
16.00
20.05
22.78
24.39
25.12
25.19
24.79
24.07
23.17
22.22
21.30
20.48
19.81
19.32
18.97
18.63
18.11
17.12
15.40
12.82
9.39
5.29
0.81
-3.74
-8.12
-12.22
-16.10
-19.97
-24.18
-29.03
-34.73
-41.14
-47.78
-53.79
-58.19
-60.07
-58.87
-54.51
-47.34
-38.08
-27.57
-16.66
-6.03
3.77
12.38
19.60
25.37
29.74
32.85
34.86
35.93
36.19
35.75
34.73
33.24
31.41
29.36
27.25
25.19
23.27
21.46
19.64
17.56
14.97
11.71
7.73
3.17
-1.71
-6.68
-11.53
-16.23
-20.87
-25.74
-31.12
-37.19
-43.80
-50.37
-55.92
-59.37
-59.80
-56.83
-50.68
-42.07
-31.94
-21.26
-10.78
-1.03
7.64
15.06
21.15
25.95
29.57
32.18
33.93
34.97
35.35
35.14
34.34
33.04
31.34
29.45
27.53
25.72
24.03
22.35
20.47
18.18
15.37
11.96
8.01
3.61
-1.13
-6.14
-11.43
-17.13
-23.44
-30.43
-37.97
-45.54
-52.21
-56.88
-58.57
-56.70
-51.29
-42.88
-32.37
-20.81
-9.14
1.89
11.79
20.30
27.40
33.19
37.84
41.42
43.97
45.47
45.95
45.55
44.54
43.21
41.79
40.38
38.97
37.53
36.04
34.50
32.88
31.06
28.79
25.87
22.16
17.73
12.85
7.90
3.18
-1.18
-5.30
-9.44
-13.98
-19.24
-25.45
-32.61
-40.51
-48.60
-56.06
-61.86
-64.96
-64.59
-60.43
-52.76
-42.35
-30.26
-17.55
-5.11
6.42
16.69
25.47
32.68
38.28
42.35
45.10
46.84
47.93
48.63
49.14
49.46
49.54
49.34
48.84
48.17
47.41
46.66
45.91
45.01
43.76
41.95
39.50
36.46
33.02
29.43
25.87
22.36
18.77
14.88
10.48
5.53
0.13
-5.44
-10.92
-16.10
-20.92
-25.46
-29.90
-34.49
-39.55
-45.31
-51.91
-59.14
-66.38
-72.63
-76.64
-77.33
-74.04
-66.84
-56.46
-44.05
-30.86
-17.95
-6.02
4.53
13.51
20.85
26.54
30.68
33.44
35.11
36.01
36.40
36.46
36.27
35.87
35.32
34.75
34.33
34.22
34.44
34.85
35.15
34.99
34.09
32.35
29.84
26.72
23.17
19.27
15.03
10.45
5.55
0.43
-4.72
-9.75
-14.52
-19.02
-23.31
-27.59
-32.12
-37.14
-42.79
-48.95
-55.13
-60.55
-64.22
-65.26
-63.07
-57.55
-49.12
-38.54
-26.81
-14.89
-3.53
6.72
15.56
22.86
28.64
33.00
36.16
38.33
39.70
40.40
40.48
40.01
39.12
38.07
37.11
36.48
36.20
36.10
35.87
35.22
33.98
32.08
29.59
26.63
23.30
19.69
15.88
11.94
7.90
3.72
-0.65
-5.27
-10.13
-15.12
-20.13
-25.06
-29.98
-35.09
-40.70
-47.03
-54.01
-61.16
-67.57
-72.10
-73.69
-71.70
-66.06
-57.26
-46.23
-34.01
-21.62
-9.82
0.91
10.31
18.30
24.91
30.26
34.47
37.67
39.98
41.47
42.24
42.39
42.07
41.49
40.84
40.29
39.83
39.42
38.97
38.39
37.63
36.72
35.62
34.28
32.58
30.43
27.81
24.76
21.44
18.01
14.59
11.18
7.69
3.95
-0.18
-4.73
-9.61
-14.63
-19.56
-24.26
-28.69
-32.94
-37.13
-41.45
-46.12
-51.32
-57.07
-63.12
-68.83
-73.28
-75.49
-74.65
-70.44
-63.07
-53.18
-41.70
-29.60
-17.78
-6.91
2.54
10.35
16.58
21.44
25.24
28.26
30.67
32.52
33.79
34.46
34.60
34.36
33.95
33.60
33.44
33.50
33.70
33.93
34.05
34.00
33.72
33.18
32.33
31.06
29.32
27.06
24.38
21.41
18.34
15.29
12.35
9.52
6.78
4.06
1.28
-1.63
-4.80
-8.30
-12.12
-16.16
-20.22
-24.12
-27.80
-31.39
-35.24
-39.74
-45.14
-51.29
-57.60
-63.06
-66.57
-67.32
-64.91
-59.54
-51.77
-42.34
-32.02
-21.50
-11.36
-2.16
5.67
11.85
16.41
19.65
22.06
24.11
26.14
28.17
30.02
31.43
32.21
32.40
32.15
31.71
31.25
30.81
30.28
29.57
28.63
27.48
26.16
24.63
22.76
20.45
17.70
14.62
11.44
8.34
5.35
2.35
-0.83
-4.32
-8.04
-11.83
-15.47
-18.83
-21.97
-25.08
-28.44
-32.28
-36.74
-41.72
-46.87
-51.58
-55.08
-56.62
-55.65
-52.01
-45.97
-38.12
-29.21
-19.99
-11.03
-2.76
4.55
10.71
15.64
19.39
22.07
23.87
24.93
25.33
25.14
24.41
23.33
22.07
20.86
19.79
18.88
18.05
17.21
16.34
15.39
14.37
13.21
11.81
10.08
7.94
5.43
2.69
-0.12
-2.89
-5.59
-8.31
-11.21
-14.46
-18.24
-22.68
-27.85
-33.70
-39.90
-45.83
-50.61
-53.29
-53.18
-50.04
-44.19
-36.41
-27.57
-18.51
-9.79
-1.78
5.34
11.46
16.51
20.52
23.55
25.76
27.27
28.21
28.61
28.49
27.88
26.87
25.65
24.41
23.39
22.69
22.38
22.36
22.44
22.35
21.81
20.61
18.65
16.05
13.06
9.98
7.00
4.13
1.20
-1.98
-5.54
-9.41
-13.38
-17.21
-20.72
-23.94
-27.06
-30.38
-34.17
-38.56
-43.39
-48.22
-52.38
-55.13
-55.78
-53.91
-49.43
-42.61
-34.02
-24.49
-14.88
-5.96
1.76
8.07
13.08
17.02
20.19
22.77
24.83
26.38
27.42
28.02
28.28
28.36
28.37
28.42
28.56
28.81
29.14
29.51
29.88
30.14
30.20
29.87
28.96
27.35
25.06
22.25
19.21
16.22
13.46
10.92
8.49
5.99
3.30
0.36
-2.80
-6.12
-9.54
-12.98
-16.32
-19.48
-22.39
-25.06
-27.70
-30.59
-34.04
-38.18
-42.84
-47.47
-51.26
-53.41
-53.30
-50.73
-45.86
-39.12
-31.10
-22.37
-13.51
-5.07
2.44
8.64
13.41
16.87
19.35
21.22
22.70
23.88
24.74
25.24
25.46
25.54
25.64
25.81
25.99
26.13
26.19
26.23
26.37
26.63
26.91
26.95
26.52
25.48
23.91
21.98
19.93
17.87
15.78
13.54
10.98
8.01
4.62
0.90
-3.02
-6.98
-10.82
-14.41
-17.69
-20.65
-23.34
-25.86
-28.42
-31.27
-34.66
-38.69
-43.18
-47.59
-51.09
-52.88
-52.35
-49.40
-44.37
-37.91
-30.69
-23.23
-15.82
-8.64
-1.89
4.17
9.29
13.34
16.37
18.52
19.98
20.87
21.26
21.19
20.79
20.28
19.94
19.97
20.42
21.21
22.08
22.78
23.08
22.81
21.92
20.42
18.39
15.89
13.00
9.76
6.28
2.63
-1.07
-4.73
-8.28
-11.74
-15.23
-18.90
-22.95
-27.51
-32.59
-37.99
-43.29
-47.85
-50.96
-52.00
-50.56
-46.59
-40.40
-32.60
-23.93
-15.10
-6.66
1.00
7.70
13.37
18.00
21.61
24.22
25.92
26.85
27.24
27.31
27.22
27.09
26.92
26.73
26.54
26.42
26.40
26.45
26.44
26.13
25.29
23.79
21.67
19.10
16.27
13.28
10.13
6.72
2.96
-1.13
-5.41
-9.69
-13.82
-17.80
-21.75
-25.93
-30.62
-35.97
-41.94
-48.18
-54.09
-58.86
-61.67
-61.91
-59.29
-53.91
-46.23
-36.95
-26.91
-16.88
-7.49
0.91
8.23
14.62
20.29
25.32
29.62
32.99
35.27
36.49
36.91
36.89
36.72
36.57
36.42
36.20
35.92
35.66
35.53
35.56
35.59
35.32
34.46
32.82
30.49
27.71
24.76
21.84
18.90
15.74
12.08
7.79
2.95
-2.15
-7.15
-11.77
-15.94
-19.77
-23.55
-27.61
-32.19
-37.45
-43.38
-49.77
-56.22
-62.02
-66.35
-68.35
-67.39
-63.25
-56.21
-46.99
-36.51
-25.70
-15.28
-5.71
2.83
10.31
16.84
22.56
27.58
32.02
35.85
39.00
41.32
42.75
43.35
43.36
43.10
42.85
42.75
42.72
42.65
42.43
42.02
41.42
40.57
39.34
37.56
35.15
32.20
28.94
25.70
22.70
19.95
17.29
14.44
11.22
7.52
3.40
-0.98
-5.43
-9.81
-14.03
-18.11
-22.15
-26.33
-30.87
-36.01
-41.88
-48.51
-55.61
-62.58
-68.53
-72.46
-73.53
-71.23
-65.57
-57.04
-46.47
-34.87
-23.19
-12.19
-2.35
6.11
13.26
19.24
24.23
28.36
31.65
34.12
35.83
36.92
37.55
37.93
38.16
38.32
38.43
38.51
38.57
38.58
38.47
38.10
37.33
36.00
34.08
31.64
28.80
25.69
22.36
18.74
14.71
10.16
5.03
-0.58
-6.45
-12.28
-17.77
-22.77
-27.29
-31.58
-36.07
-41.16
-47.13
-53.86
-60.74
-66.77
-70.80
-71.87
-69.52
-63.84
-55.46
-45.25
-34.11
-22.76
-11.70
-1.33
8.07
16.26
23.06
28.45
32.54
35.55
37.73
39.28
40.29
40.77
40.71
40.13
39.19
38.11
37.14
36.45
36.01
35.60
34.87
33.52
31.37
28.53
25.24
21.78
18.22
14.49
10.33
5.58
0.20
-5.63
-11.61
-17.41
-22.91
-28.13
-33.33
-38.86
-45.06
-52.11
-59.76
-67.35
-73.74
-77.65
-77.99
-74.21
-66.49
-55.62
-42.81
-29.29
-16.10
-3.98
6.72
15.93
23.79
30.53
36.39
41.41
45.59
48.80
51.05
52.50
53.42
54.10
54.70
55.22
55.55
55.66
55.59
55.48
55.45
55.51
55.51
55.27
54.69
53.75
52.39
50.44
47.53
43.21
37.17
29.44
20.37
10.51
0.47
-9.33
-18.57
-27.05
-34.51
-40.78
-45.76
-49.66
-53.07
-56.87
-61.93
-68.79
-77.26
-86.31
-94.25
-99.20
-99.63
-94.90
-85.37
-72.19
-56.82
-40.54
-24.26
-8.44
6.63
20.72
33.50
44.72
54.24
62.11
68.50
73.60
77.50
80.17
81.53
81.61
80.63
79.03
77.34
76.03
75.33
75.17
75.31
75.48
75.44
74.98
73.87
71.77
68.29
63.13
56.25
47.94
38.72
29.16
19.72
10.59
1.71
-7.11
-16.10
-25.39
-34.95
-44.65
-54.25
-63.49
-72.10
-79.88
-86.71
-92.62
-97.79
-102.52
-107.16
-111.89
-116.55
-120.57
-122.97
-122.74
-119.11
-111.88
-101.40
-88.44
-73.91
-58.67
-43.34
-28.45
-14.42
-1.61
9.69
19.43
27.70
34.77
40.91
46.28
50.87
54.60
57.36
59.16
60.18
60.73
61.13
61.62
62.27
63.02
63.70
64.14
64.20
63.78
62.75
60.99
58.40
54.96
50.71
45.75
40.20
34.10
27.48
20.37
12.89
5.25
-2.26
-9.40
-16.04
-22.16
-27.92
-33.54
-39.37
-45.80
-53.12
-61.41
-70.28
-78.86
-85.85
-89.85
-89.80
-85.29
-76.73
-65.18
-52.01
-38.52
-25.61
-13.70
-2.92
6.76
15.37
22.78
28.87
33.53
36.81
38.88
40.02
40.48
40.46
40.09
39.43
38.55
37.54
36.48
35.44
34.46
33.48
32.39
31.07
29.38
27.16
24.31
20.76
16.55
11.83
6.76
1.52
-3.84
-9.38
-15.20
-21.42
-28.14
-35.42
-43.23
-51.38
-59.33
-66.18
-70.79
-72.14
-69.63
-63.39
-54.15
-42.97
-30.90
-18.71
-6.88
4.25
14.31
22.96
29.92
35.18
38.93
41.54
43.30
44.32
44.56
43.98
42.66
40.89
39.15
37.81
37.11
36.97
37.09
37.11
36.73
35.82
34.41
32.55
30.20
27.26
23.53
18.93
13.50
7.47
1.14
-5.23
-11.58
-18.03
-24.83
-32.21
-40.36
-49.35
-59.18
-69.68
-80.39
-90.43
-98.56
-103.35
-103.63
-98.86
-89.32
-76.11
-60.68
-44.50
-28.75
-14.18
-1.16
10.13
19.67
27.47
33.64
38.32
41.68
43.89
45.11
45.46
45.13
44.29
43.20
42.11
41.25
40.79
40.76
41.07
41.47
41.64
41.26
40.09
38.00
35.00
31.18
26.71
21.71
16.28
10.49
4.44
-1.74
-7.92
-13.95
-19.79
-25.45
-31.10
-37.02
-43.55
-50.99
-59.43
-68.51
-77.40
-84.80
-89.18
-89.20
-84.11
-74.00
-59.79
-42.99
-25.30
-8.24
7.10
20.11
30.63
38.76
44.80
49.05
51.79
53.27
53.68
53.23
52.11
50.56
48.81
47.07
45.48
44.13
43.02
42.07
41.12
39.99
38.52
36.59
34.12
31.05
27.36
22.98
17.89
12.13
5.85
-0.74
-7.33
-13.72
-19.76
-25.43
-30.91
-36.50
-42.66
-49.76
-57.92
-66.69
-75.02
-81.39
-84.25
-82.47
-75.76
-64.71
-50.57
-34.91
-19.18
-4.48
8.45
19.18
27.51
33.46
37.29
39.37
40.23
40.31
39.92
39.14
37.94
36.24
34.05
31.50
28.81
26.27
24.04
22.21
20.65
19.11
17.23
14.64
11.10
6.58
1.26
-4.53
-10.46
-16.33
-22.10
-27.91
-34.09
-41.04
-49.07
-58.32
-68.46
-78.61
-87.34
-92.97
-94.01
-89.63
-79.85
-65.57
-48.26
-29.62
-11.18
5.85
20.72
33.06
42.82
50.11
55.17
58.24
59.62
59.63
58.67
57.14
55.32
53.33
51.10
48.53
45.56
42.37
39.21
36.30
33.68
31.08
28.01
23.97
18.64
12.02
4.48
-3.40
-11.08
-18.24
-24.89
-31.40
-38.34
-46.32
-55.81
-67.01
-79.62
-92.79
-105.01
-114.33
-118.78
-116.93
-108.39
-93.99
-75.56
-55.34
-35.36
-16.96
-0.66
13.61
26.13
37.11
46.57
54.42
60.60
65.21
68.42
70.51
71.66
71.98
71.53
70.32
68.45
66.07
63.36
60.51
57.69
54.91
52.05
48.83
44.82
39.64
33.12
25.32
16.59
7.42
-1.77
-10.73
-19.37
-27.78
-36.11
-44.63
-53.68
-63.69
-74.90
-87.04
-99.05
-109.11
-115.01
-114.92
-107.98
-94.66
-76.56
-55.79
-34.38
-13.80
5.14
22.09
36.96
49.70
60.34
68.96
75.66
80.62
83.92
85.64
85.82
84.61
82.29
79.23
75.92
72.80
70.22
68.31
66.95
65.78
64.30
61.96
58.42
53.59
47.68
41.05
33.99
26.61
18.83
10.43
1.31
-8.49
-18.69
-28.91
-38.81
-48.17
-57.07
-65.82
-75.00
-85.21
-96.76
-109.35
-121.78
-132.15
-138.21
-138.06
-130.74
-116.51
-96.75
-73.56
-49.16
-25.46
-3.80
15.06
30.85
43.64
53.74
61.52
67.37
71.56
74.28
75.66
75.90
75.21
73.90
72.20
70.20
67.88
65.17
62.13
58.94
55.81
52.87
49.99
46.74
42.57
36.97
29.78
21.17
11.64
1.80
-7.87
-17.16
-26.13
-35.12
-44.58
-55.00
-66.74
-79.83
-93.83
-107.67
-119.65
-127.72
-129.93
-124.99
-112.68
-93.99
-70.87
-45.66
-20.59
2.75
23.43
41.13
55.91
67.91
77.31
84.25
88.89
91.45
92.19
91.44
89.50
86.69
83.32
79.73
76.22
73.04
70.27
67.77
65.17
62.05
58.03
53.01
47.17
40.85
34.30
27.58
20.47
12.63
3.84
-5.87
-16.20
-26.68
-36.97
-46.84
-56.36
-65.72
-75.32
-85.63
-97.11
-109.87
-123.41
-136.32
-146.41
-151.20
-148.58
-137.61
-118.81
-94.05
-65.96
-37.22
-9.96
14.51
35.63
53.36
67.87
79.42
88.24
94.56
98.68
100.93
101.69
101.25
99.85
97.63
94.76
91.48
88.10
85.03
82.56
80.78
79.51
78.36
76.81
74.39
70.76
65.79
59.60
52.49
44.89
37.22
29.75
22.53
15.31
7.73
-0.46
-9.35
-18.69
-28.13
-37.27
-45.92
-54.08
-61.92
-69.79
-78.12
-87.42
-98.06
-110.10
-122.89
-135.00
-144.32
-148.49
-145.58
-134.65
-116.13
-91.74
-64.00
-35.64
-9.00
14.40
33.89
49.46
61.54
70.67
77.36
82.07
85.13
86.89
87.67
87.71
87.14
85.99
84.23
81.89
79.12
76.19
73.42
70.99
68.95
67.08
64.98
62.19
58.35
53.29
47.12
40.20
33.04
26.12
19.75
13.93
8.38
2.63
-3.73
-10.92
-18.87
-27.23
-35.54
-43.36
-50.53
-57.14
-63.58
-70.42
-78.21
-87.34
-97.68
-108.51
-118.44
-125.65
-128.24
-124.78
-114.72
-98.54
-77.70
-54.27
-30.47
-8.23
11.10
26.87
39.01
47.85
53.94
57.79
59.84
60.45
59.97
58.78
57.28
55.82
54.60
53.68
52.98
52.37
51.73
50.94
49.87
48.33
46.09
42.98
38.96
34.16
28.81
23.13
17.24
11.09
4.55
-2.51
-10.10
-18.05
-26.15
-34.18
-42.09
-50.00
-58.22
-67.08
-76.70
-86.85
-96.73
-105.10
-110.39
-111.13
-106.27
-95.54
-79.52
-59.61
-37.71
-15.87
4.14
21.15
34.63
44.70
51.86
56.69
59.71
61.26
61.59
60.92
59.49
57.57
55.38
53.04
50.65
48.28
46.06
44.06
42.29
40.64
38.83
36.55
33.56
29.74
25.17
20.01
14.50
8.72
2.73
-3.59
-10.24
-17.17
-24.21
-31.08
-37.53
-43.51
-49.28
-55.34
-62.30
-70.56
-80.04
-89.94
-98.81
-104.86
-106.41
-102.46
-92.89
-78.56
-61.00
-41.99
-23.23
-5.97
9.01
21.37
31.16
38.59
43.97
47.61
49.80
50.77
50.80
50.15
49.11
47.88
46.52
45.04
43.35
41.42
39.34
37.23
35.20
33.23
31.12
28.56
25.26
21.05
15.94
10.15
3.99
-2.24
-8.35
-14.26
-20.03
-25.82
-31.80
-38.21
-45.27
-53.14
-61.78
-70.77
-79.17
-85.66
-88.73
-87.13
-80.31
-68.61
-53.23
-35.92
-18.52
-2.61
10.82
21.33
29.00
34.21
37.40
39.01
39.41
38.87
37.62
35.86
33.72
31.27
28.55
25.64
22.71
20.04
17.90
16.40
15.37
14.37
12.83
10.30
6.58
1.82
-3.63
-9.34
-14.96
-20.26
-25.23
-30.11
-35.35
-41.50
-48.91
-57.44
-66.26
-73.94
-78.81
-79.46
-75.17
-66.11
-53.26
-38.02
-21.96
-6.48
7.31
18.65
27.16
32.83
35.96
37.09
36.84
35.75
34.21
32.44
30.48
28.35
26.05
23.66
21.25
18.97
16.88
15.02
13.32
11.58
9.49
6.71
2.96
-1.83
-7.51
-13.72
-20.04
-26.22
-32.25
-38.47
-45.40
-53.46
-62.63
-72.34
-81.37
-88.17
-91.16
-89.28
-82.20
-70.48
-55.38
-38.55
-21.64
-5.95
7.64
18.75
27.35
33.64
37.93
40.59
41.98
42.45
42.25
41.52
40.29
38.53
36.26
33.62
30.84
28.24
26.04
24.26
22.65
20.72
17.92
13.79
8.17
1.26
-6.39
-14.15
-21.51
-28.33
-34.93
-41.96
-50.17
-60.00
-71.33
-83.27
-94.26
-102.39
-105.88
-103.55
-95.14
-81.43
-63.99
-44.76
-25.60
-7.86
7.75
21.13
32.54
42.31
50.61
57.36
62.40
65.60
67.05
67.11
66.31
65.13
63.88
62.61
61.18
59.40
57.17
54.57
51.77
48.95
46.13
43.07
39.35
34.46
28.09
20.25
11.33
1.97
-7.20
-15.80
-23.88
-31.86
-40.37
-49.98
-61.04
-73.46
-86.64
-99.45
-110.26
-117.24
-118.70
-113.63
-102.07
-85.21
-65.09
-43.96
-23.72
-5.42
10.71
24.93
37.56
48.64
57.94
65.15
70.11
73.03
74.41
74.83
74.74
74.31
73.48
72.12
70.17
67.76
65.12
62.47
59.88
57.18
53.99
49.83
44.24
37.06
28.42
18.78
8.73
-1.20
-10.68
-19.66
-28.36
-37.16
-46.55
-57.04
-68.92
-82.07
-95.68
-108.15
-117.34
-121.11
-117.98
-107.75
-91.57
-71.54
-50.04
-28.97
-9.38
8.47
24.74
39.62
53.03
64.71
74.32
81.71
86.97
90.40
92.28
92.88
92.39
91.09
89.32
87.53
86.08
85.04
84.15
82.87
80.58
76.81
71.47
64.78
57.20
49.11
40.72
32.02
22.83
13.04
2.66
-8.06
-18.81
-29.23
-39.11
-48.45
-57.52
-66.90
-77.22
-89.01
-102.33
-116.47
-129.92
-140.52
-146.01
-144.71
-135.96
-120.38
-99.60
-75.71
-50.69
-26.05
-2.65
19.08
38.93
56.75
72.31
85.41
95.94
103.93
109.60
113.26
115.28
116.01
115.79
114.88
113.47
111.76
109.92
108.06
106.22
104.28
101.93
98.78
94.48
88.84
81.96
74.15
65.85
57.45
49.21
41.19
33.30
25.36
17.17
8.55
-0.56
-10.09
-19.85
-29.54
-38.88
-47.73
-56.17
-64.55
-73.41
-83.39
-94.96
-108.14
-122.21
-135.64
-146.29
-151.84
-150.52
-141.65
-125.88
-105.01
-81.33
-57.00
-33.56
-11.78
8.13
26.19
42.37
56.54
68.52
78.23
85.70
91.09
94.53
96.18
96.23
94.96
92.80
90.25
87.75
85.61
83.95
82.67
81.50
80.06
77.86
74.49
69.66
63.41
56.08
48.20
40.30
32.74
25.57
18.61
11.52
4.02
-4.00
-12.45
-21.04
-29.42
-37.39
-44.86
-52.04
-59.32
-67.23
-76.23
-86.54
-97.91
-109.57
-120.15
-127.96
-131.34
-129.11
-120.92
-107.35
-89.75
-69.90
-49.47
-29.83
-11.80
4.21
18.13
30.03
40.03
48.23
54.68
59.47
62.71
64.55
65.19
64.84
63.80
62.37
60.83
59.42
58.20
57.02
55.57
53.52
50.59
46.71
42.01
36.67
30.88
24.73
18.17
11.13
3.61
-4.28
-12.32
-20.25
-27.84
-34.97
-41.72
-48.34
-55.28
-63.03
-72.02
-82.35
-93.58
-104.56
-113.62
-118.93
-118.99
-113.17
-101.84
-86.25
-68.14
-49.15
-30.58
-13.19
2.67
16.88
29.41
40.24
49.33
56.69
62.33
66.28
68.65
69.61
69.40
68.31
66.64
64.67
62.61
60.65
58.93
57.50
56.20
54.73
52.63
49.46
44.97
39.26
32.75
26.01
19.55
13.59
7.98
2.33
-3.88
-10.96
-18.94
-27.51
-36.16
-44.39
-51.88
-58.66
-65.09
-71.80
-79.41
-88.34
-98.46
-109.00
-118.60
-125.50
-128.07
-125.22
-116.71
-103.25
-86.23
-67.35
-48.08
-29.52
-12.24
3.51
17.68
30.20
40.99
49.99
57.22
62.88
67.14
70.22
72.17
73.00
72.66
71.28
69.17
66.80
64.66
63.02
61.84
60.77
59.30
56.98
53.59
49.19
44.05
38.53
32.87
27.20
21.46
15.52
9.24
2.58
-4.40
-11.54
-18.61
-25.37
-31.71
-37.68
-43.53
-49.72
-56.73
-64.91
-74.23
-84.18
-93.72
-101.43
-105.80
-105.54
-100.06
-89.58
-75.17
-58.44
-41.13
-24.67
-9.89
2.95
14.00
23.54
31.70
38.51
43.82
47.57
49.85
50.91
51.12
50.84
50.29
49.56
48.60
47.38
45.94
44.45
43.05
41.74
40.33
38.51
35.95
32.49
28.13
23.03
17.34
11.18
4.62
-2.23
-9.21
-16.08
-22.64
-28.86
-34.91
-41.12
-47.93
-55.62
-64.24
-73.36
-82.09
-89.13
-93.01
-92.50
-87.01
-76.78
-62.87
-46.86
-30.41
-14.86
-1.02
10.84
20.82
29.19
36.17
41.86
46.21
49.17
50.71
51.01
50.40
49.23
47.81
46.22
44.41
42.24
39.72
37.05
34.50
32.27
30.30
28.24
25.56
21.87
17.01
11.22
4.91
-1.48
-7.69
-13.72
-19.71
-25.84
-32.24
-38.94
-46.02
-53.59
-61.74
-70.35
-78.85
-86.18
-90.91
-91.69
-87.71
-79.02
-66.51
-51.67
-36.09
-21.07
-7.42
4.60
15.01
24.00
31.71
38.18
43.44
47.54
50.58
52.69
53.98
54.46
54.15
53.08
51.36
49.27
47.06
44.96
43.00
41.05
38.86
36.16
32.75
28.53
23.50
17.75
11.43
4.74
-2.12
-8.93
-15.52
-21.80
-27.79
-33.66
-39.76
-46.57
-54.46
-63.45
-73.04
-82.10
-89.16
-92.74
-91.80
-86.03
-75.91
-62.53
-47.27
-31.50
-16.36
-2.59
9.43
19.67
28.31
35.59
41.75
46.89
51.06
54.23
56.37
57.53
57.75
57.19
56.06
54.60
52.98
51.36
49.80
48.25
46.66
44.90
42.86
40.38
37.30
33.46
28.80
23.36
17.31
10.86
4.19
-2.56
-9.28
-15.90
-22.34
-28.61
-34.83
-41.30
-48.31
-56.02
-64.14
-71.91
-78.12
-81.47
-80.88
-75.86
-66.63
-54.05
-39.49
-24.45
-10.27
2.10
12.22
20.14
26.20
30.83
34.32
36.85
38.48
39.29
39.42
39.07
38.36
37.31
35.89
34.09
32.01
29.93
28.10
26.66
25.51
24.31
22.57
19.91
16.17
11.48
6.16
0.66
-4.66
-9.63
-14.36
-19.20
-24.69
-31.29
-39.22
-48.21
-57.50
-65.92
-72.22
-75.27
-74.33
-69.20
-60.20
-48.15
-34.28
-19.94
-6.42
5.34
14.93
22.40
28.09
32.32
35.22
36.83
37.17
36.44
35.01
33.29
31.58
29.94
28.28
26.52
24.67
22.83
21.11
19.44
17.55
15.13
11.94
7.94
3.31
-1.68
-6.80
-11.92
-17.06
-22.40
-28.24
-34.93
-42.66
-51.35
-60.39
-68.75
-75.06
-77.98
-76.59
-70.60
-60.47
-47.29
-32.54
-17.69
-3.97
7.87
17.55
25.12
30.83
34.89
37.44
38.63
38.72
38.08
37.14
36.24
35.45
34.69
33.71
32.34
30.59
28.59
26.51
24.44
22.30
19.86
16.81
12.89
8.02
2.29
-4.00
-10.43
-16.68
-22.56
-28.15
-33.86
-40.29
-47.91
-56.81
-66.43
-75.55
-82.47
-85.60
-83.83
-76.98
-65.70
-51.36
-35.52
-19.67
-4.87
8.18
19.18
28.08
34.96
40.04
43.57
45.84
47.17
47.81
47.95
47.72
47.11
46.12
44.75
43.08
41.27
39.51
37.96
36.67
35.50
34.18
32.30
29.51
25.60
20.56
14.66
8.25
1.74
-4.54
-10.44
-16.03
-21.60
-27.65
-34.72
-43.18
-53.02
-63.66
-73.92
-82.26
-87.14
-87.38
-82.49
-72.80
-59.33
-43.54
-27.06
-11.31
2.71
14.51
24.06
31.65
37.69
42.50
46.32
49.18
51.11
52.12
52.31
51.85
50.97
49.88
48.69
47.42
46.05
44.51
42.76
40.84
38.74
36.39
33.64
30.24
25.96
20.71
14.57
7.86
0.99
-5.64
-11.82
-17.61
-23.33
-29.42
-36.32
-44.30
-53.31
-62.91
-72.24
-80.12
-85.27
-86.52
-83.12
-74.93
-62.54
-47.13
-30.31
-13.70
1.36
14.08
24.27
32.15
38.15
42.58
45.66
47.46
48.14
48.00
47.46
46.90
46.47
46.05
45.33
44.09
42.31
40.21
38.11
36.21
34.44
32.45
29.77
26.03
21.10
15.11
8.40
1.38
-5.64
-12.45
-19.04
-25.56
-32.36
-39.89
-48.48
-58.15
-68.43
-78.27
-86.21
-90.72
-90.58
-85.22
-74.93
-60.76
-44.29
-27.24
-11.03
3.38
15.70
26.05
34.79
42.27
48.64
53.84
57.82
60.59
62.33
63.33
63.86
64.09
64.07
63.78
63.25
62.57
61.84
61.05
60.01
58.32
55.61
51.63
46.42
40.28
33.65
26.93
20.28
13.67
6.88
-0.25
-7.73
-15.38
-22.91
-30.03
-36.63
-42.88
-49.18
-56.09
-64.08
-73.25
-83.10
-92.53
-99.97
-103.78
-102.69
-96.22
-84.76
-69.50
-52.09
-34.21
-17.22
-1.98
11.23
22.56
32.36
40.95
48.49
54.98
60.35
64.59
67.82
70.27
72.16
73.62
74.68
75.33
75.63
75.78
75.97
76.34
76.79
77.01
76.54
75.00
72.24
68.44
63.99
59.29
54.59
49.86
44.86
39.29
32.90
25.60
17.47
8.75
-0.24
-9.15
-17.66
-25.53
-32.69
-39.28
-45.67
-52.37
-59.84
-68.26
-77.31
-86.08
-93.22
-97.24
-96.97
-91.88
-82.29
-69.23
-54.12
-38.41
-23.22
-9.27
3.05
13.57
22.23
29.00
33.94
37.22
39.13
39.99
40.12
39.77
39.03
37.98
36.65
35.13
33.62
32.30
31.36
30.84
30.62
30.44
29.97
28.92
27.09
24.49
21.22
17.55
13.74
10.03
6.53
3.18
-0.25
-4.04
-8.43
-13.46
-18.91
-24.38
-29.44
-33.80
-37.46
-40.77
-44.31
-48.70
-54.38
-61.32
-68.94
-76.12
-81.43
-83.49
-81.37
-74.87
-64.54
-51.49
-37.07
-22.52
-8.78
3.52
14.00
22.45
28.77
32.97
35.19
35.72
34.90
33.15
30.89
28.58
26.65
25.42
25.02
25.37
26.09
26.70
26.78
26.12
24.75
22.88
20.72
18.29
15.47
12.04
7.84
2.94
-2.40
-7.80
-12.98
-17.83
-22.46
-27.15
-32.22
-37.98
-44.63
-52.20
-60.46
-68.75
-76.01
-80.87
-82.00
-78.54
-70.41
-58.40
-43.98
-28.80
-14.31
-1.43
9.41
18.18
25.06
30.27
34.06
36.68
38.40
39.48
40.04
40.12
39.72
38.85
37.63
36.25
34.90
33.69
32.58
31.44
30.08
28.34
26.17
23.59
20.62
17.30
13.60
9.47
4.88
-0.08
-5.25
-10.40
-15.33
-19.97
-24.38
-28.74
-33.25
-38.14
-43.58
-49.76
-56.69
-64.19
-71.62
-77.87
-81.53
-81.30
-76.43
-67.07
-54.24
-39.48
-24.40
-10.28
2.16
12.69
21.33
28.22
33.47
37.17
39.51
40.79
41.38
41.63
41.77
41.84
41.75
41.39
40.76
40.01
39.36
39.02
39.02
39.17
39.10
38.42
36.85
34.33
31.01
27.18
23.13
19.07
15.06
11.05
6.92
2.54
-2.13
-7.05
-12.11
-17.16
-22.06
-26.75
-31.27
-35.82
-40.74
-46.44
-53.19
-60.83
-68.67
-75.39
-79.49
-79.59
-74.95
-65.70
-52.84
-37.87
-22.44
-7.90
4.83
15.40
23.81
30.34
35.37
39.20
42.08
44.12
45.35
45.77
45.40
44.32
42.65
40.62
38.49
36.54
34.97
33.86
33.10
32.39
31.38
29.76
27.40
24.38
20.90
17.14
13.19
9.07
4.67
-0.02
-4.94
-9.96
-14.93
-19.74
-24.39
-28.98
-33.70
-38.82
-44.58
-51.15
-58.40
-65.80
-72.40
-76.91
-78.09
-75.08
-67.74
-56.75
-43.36
-29.09
-15.30
-2.96
7.50
16.02
22.77
27.95
31.74
34.26
35.68
36.23
36.17
35.74
35.07
34.19
33.08
31.71
30.14
28.53
27.08
25.89
24.88
23.80
22.26
19.87
16.37
11.75
6.22
0.18
-5.88
-11.62
-16.88
-21.77
-26.60
-31.84
-37.90
-44.99
-52.99
-61.25
-68.71
-74.01
-75.84
-73.35
-66.40
-55.64
-42.31
-27.88
-13.63
-0.46
11.24
21.39
30.04
37.20
42.79
46.72
48.95
49.64
49.09
47.70
45.90
43.93
41.93
39.88
37.73
35.48
33.18
30.93
28.77
26.67
24.45
21.91
18.79
14.94
10.34
5.14
-0.44
-6.15
-11.81
-17.38
-22.91
-28.53
-34.42
-40.83
-47.93
-55.73
-63.91
-71.66
-77.80
-80.98
-80.10
-74.66
-64.90
-51.79
-36.67
-20.96
-5.87
7.79
19.53
29.24
37.04
43.16
47.89
51.45
53.98
55.49
55.99
55.52
54.21
52.36
50.31
48.41
46.86
45.68
44.72
43.71
42.39
40.59
38.24
35.38
32.13
28.58
24.76
20.63
16.12
11.15
5.68
-0.20
-6.32
-12.43
-18.37
-24.06
-29.68
-35.53
-42.01
-49.39
-57.71
-66.59
-75.19
-82.31
-86.61
-86.98
-82.78
-74.06
-61.58
-46.58
-30.50
-14.63
0.03
12.90
23.77
32.69
39.82
45.41
49.68
52.83
55.02
56.37
56.93
56.76
55.92
54.50
52.70
50.79
49.04
47.65
46.60
45.71
44.61
42.95
40.50
37.24
33.38
29.20
25.00
20.91
16.89
12.78
8.37
3.53
-1.74
-7.33
-12.97
-18.40
-23.42
-28.00
-32.37
-36.95
-42.22
-48.59
-56.15
-64.52
-72.82
-79.85
-84.26
-85.02
-81.53
-73.88
-62.72
-49.15
-34.42
-19.74
-6.06
6.00
16.13
24.32
30.67
35.40
38.74
40.91
42.09
42.48
42.19
41.34
40.02
38.33
36.43
34.47
32.64
31.01
29.62
28.38
27.21
26.00
24.63
22.96
20.78
17.91
14.21
9.72
4.64
-0.77
-6.29
-11.82
-17.41
-23.14
-29.10
-35.41
-42.15
-49.41
-57.08
-64.77
-71.61
-76.43
-78.02
-75.49
-68.65
-58.06
-44.84
-30.34
-15.84
-2.33
9.58
19.58
27.63
33.86
38.47
41.67
43.66
44.60
44.67
44.06
43.05
41.83
40.56
39.24
37.78
36.10
34.19
32.11
29.97
27.88
25.80
23.61
21.17
18.33
15.02
11.23
6.99
2.31
-2.78
-8.22
-13.92
-19.72
-25.51
-31.30
-37.29
-43.79
-51.07
-59.12
-67.44
-75.09
-80.82
-83.46
-82.24
-76.95
-68.00
-56.24
-42.76
-28.66
-14.91
-2.29
8.73
17.93
25.44
31.52
36.55
40.84
44.51
47.49
49.60
50.70
50.78
50.02
48.76
47.35
46.04
44.90
43.81
42.51
40.76
38.41
35.50
32.13
28.45
24.54
20.33
15.74
10.62
5.01
-0.97
-7.07
-13.06
-18.82
-24.38
-29.88
-35.51
-41.51
-48.13
-55.54
-63.77
-72.42
-80.66
-87.22
-90.68
-89.92
-84.45
-74.59
-61.35
-46.12
-30.28
-14.95
-0.86
11.65
22.51
31.79
39.58
45.98
51.00
54.67
57.00
58.10
58.17
57.49
56.33
54.96
53.56
52.26
51.12
50.13
49.16
47.99
46.29
43.80
40.37
36.09
31.25
26.20
21.25
16.49
11.79
6.89
1.57
-4.26
-10.46
-16.80
-23.03
-29.01
-34.74
-40.42
-46.36
-52.94
-60.44
-68.84
-77.65
-85.83
-91.95
-94.55
-92.60
-85.81
-74.71
-60.45
-44.47
-28.09
-12.36
2.05
14.72
25.41
34.03
40.52
44.94
47.45
48.35
48.06
47.07
45.79
44.46
43.12
41.67
39.99
38.10
36.12
34.22
32.49
30.86
29.08
26.82
23.86
20.06
15.48
10.26
4.58
-1.37
-7.43
-13.48
-19.44
-25.29
-31.12
-37.20
-43.84
-51.32
-59.62
-68.22
-76.05
-81.70
-83.80
-81.42
-74.41
-63.38
-49.52
-34.22
-18.74
-4.10
9.01
20.16
29.18
36.11
41.12
44.46
46.41
47.20
47.04
46.13
44.70
42.97
41.17
39.45
37.91
36.58
35.39
34.25
33.04
31.56
29.68
27.20
23.92
19.63
14.24
7.82
0.64
-6.85
-14.17
-21.01
-27.33
-33.45
-39.91
-47.35
-56.18
-66.39
-77.31
-87.68
-95.87
-100.27
-99.75
-93.93
-83.26
-68.78
-51.86
-33.83
-15.88
1.06
16.26
29.26
39.90
48.31
54.81
59.79
63.52
66.12
67.58
67.89
67.20
65.76
64.00
62.30
60.96
60.08
59.56
59.12
58.42
57.12
54.92
51.68
47.41
42.31
36.67
30.80
24.87
18.88
12.66
5.97
-1.38
-9.32
-17.61
-25.82
-33.55
-40.61
-47.11
-53.49
-60.43
-68.59
-78.32
-89.35
-100.69
-110.65
-117.28
-118.85
-114.40
-103.97
-88.61
-70.02
-50.02
-30.23
-11.75
4.82
19.28
31.69
42.20
50.99
58.22
64.00
68.43
71.61
73.68
74.81
75.19
75.00
74.39
73.49
72.49
71.57
70.87
70.33
69.68
68.49
66.30
62.85
58.13
52.42
46.15
39.72
33.37
27.11
20.73
13.95
6.56
-1.49
-10.01
-18.57
-26.75
-34.22
-40.97
-47.29
-53.71
-60.82
-69.06
-78.52
-88.76
-98.78
-107.08
-111.93
-111.87
-106.05
-94.61
-78.62
-59.88
-40.32
-21.59
-4.74
9.85
22.29
32.88
41.88
49.35
55.16
59.18
61.44
62.16
61.76
60.74
59.46
58.16
56.90
55.64
54.35
52.99
51.49
49.71
47.47
44.58
40.89
36.36
31.06
25.13
18.79
12.22
5.61
-1.02
-7.65
-14.35
-21.18
-28.13
-35.26
-42.68
-50.68
-59.60
-69.59
-80.33
-90.83
-99.51
-104.60
-104.64
-98.96
-87.85
-72.48
-54.44
-35.39
-16.69
0.64
16.02
29.12
39.89
48.45
55.04
59.92
63.27
65.27
65.99
65.62
64.41
62.70
60.80
58.96
57.32
55.90
54.62
53.37
51.97
50.17
47.72
44.38
40.09
34.90
29.04
22.71
16.06
9.12
1.83
-5.83
-13.74
-21.71
-29.51
-37.08
-44.53
-52.25
-60.77
-70.53
-81.63
-93.57
-105.19
-114.79
-120.52
-120.88
-115.15
-103.62
-87.41
-68.18
-47.62
-27.19
-7.89
9.64
25.04
38.14
48.92
57.50
64.11
69.02
72.47
74.60
75.53
75.35
74.25
72.55
70.62
68.83
67.39
66.34
65.44
64.34
62.64
60.05
56.48
52.01
46.86
41.21
35.19
28.77
21.85
14.38
6.37
-2.02
-10.51
-18.80
-26.66
-33.97
-40.82
-47.53
-54.60
-62.59
-71.86
-82.31
-93.12
-102.79
-109.47
-111.44
-107.63
-97.97
-83.40
-65.47
-45.97
-26.49
-8.17
8.23
22.33
33.95
43.07
49.83
54.48
57.35
58.78
59.14
58.71
57.73
56.38
54.74
52.84
50.65
48.20
45.58
42.95
40.41
37.97
35.42
32.36
28.32
22.99
16.31
8.55
0.25
-8.00
-15.78
-22.97
-29.77
-36.60
-43.96
-52.27
-61.68
-71.85
-81.94
-90.55
-95.96
-96.55
-91.27
-80.00
-63.68
-44.06
-23.27
-3.24
14.60
29.50
41.27
50.14
56.49
60.75
63.33
64.54
64.64
63.77
62.05
59.60
56.59
53.29
49.99
46.98
44.38
42.13
39.94
37.41
34.12
29.81
24.37
17.91
10.64
2.85
-5.23
-13.55
-22.24
-31.59
-41.98
-53.51
-65.87
-78.04
-88.40
-95.02
-96.16
-90.92
-79.48
-63.13
-43.84
-23.77
-4.72
12.15
26.32
37.67
46.35
52.51
56.36
58.17
58.25
56.95
54.60
51.49
47.85
43.91
39.86
35.88
32.10
28.57
25.25
21.98
18.53
14.69
10.27
5.23
-0.35
-6.32
-12.54
-18.96
-25.74
-33.27
-41.98
-52.22
-63.87
-76.13
-87.43
-95.73
-99.04
-96.01
-86.41
-71.19
-52.19
-31.64
-11.56
6.56
21.91
34.22
43.62
50.46
55.11
57.93
59.15
58.86
57.12
54.02
49.84
45.04
40.17
35.72
31.96
28.85
26.07
23.13
19.59
15.17
9.84
3.74
-2.80
-9.52
-16.25
-23.01
-30.10
-37.99
-47.18
-57.98
-70.18
-82.88
-94.41
-102.65
-105.55
-101.77
-91.15
-74.84
-54.93
-33.82
-13.57
4.56
20.13
33.22
44.11
52.95
59.72
64.32
66.76
67.22
66.00
63.49
60.11
56.27
52.33
48.62
45.34
42.43
39.62
36.49
32.60
27.63
21.48
14.25
6.21
-2.27
-10.85
-19.36
-27.92
-36.91
-46.90
-58.29
-70.93
-83.93
-95.57
-103.77
-106.58
-102.82
-92.41
-76.38
-56.52
-34.94
-13.51
6.43
24.16
39.48
52.48
63.40
72.38
79.45
84.52
87.52
88.48
87.67
85.55
82.71
79.69
76.86
74.29
71.88
69.35
66.47
63.07
59.11
54.67
49.81
44.52
38.70
32.16
24.72
16.34
7.22
-2.28
-11.68
-20.58
-28.83
-36.51
-43.94
-51.59
-59.92
-69.30
-79.90
-91.50
-103.31
-113.97
-121.71
-124.75
-121.83
-112.60
-97.75
-78.83
-57.82
-36.59
-16.53
1.60
17.56
31.49
43.61
54.06
62.89
70.03
75.44
79.14
81.25
81.98
81.62
80.44
78.68
76.56
74.26
71.93
69.67
67.53
65.45
63.28
60.76
57.66
53.82
49.24
44.04
38.45
32.65
26.79
20.97
15.21
9.52
3.88
-1.84
-7.75
-14.01
-20.66
-27.62
-34.68
-41.60
-48.21
-54.46
-60.54
-66.82
-73.80
-81.88
-91.02
-100.58
-109.30
-115.49
-117.53
-114.32
-105.62
-92.06
-74.98
-55.98
-36.69
-18.40
-2.01
12.00
23.54
32.80
40.11
45.81
50.16
53.33
55.45
56.69
57.22
57.27
56.99
56.50
55.78
54.80
53.56
52.18
50.78
49.46
48.21
46.84
45.05
42.56
39.22
35.08
30.40
25.50
20.66
16.03
11.55
7.06
2.36
-2.76
-8.35
-14.35
-20.56
-26.72
-32.57
-37.91
-42.76
-47.29
-51.90
-57.05
-63.15
-70.29
-78.04
-85.43
-91.03
-93.28
-90.96
-83.58
-71.56
-56.16
-39.07
-22.00
-6.30
7.27
18.47
27.35
34.07
38.84
41.81
43.17
43.20
42.22
40.56
38.50
36.31
34.20
32.37
30.97
30.01
29.34
28.69
27.75
26.31
24.32
21.85
18.99
15.82
12.32
8.47
4.25
-0.33
-5.27
-10.50
-15.97
-21.58
-27.16
-32.59
-37.83
-43.09
-48.68
-54.92
-61.88
-69.08
-75.58
-80.10
-81.41
-78.63
-71.61
-60.86
-47.44
-32.67
-17.82
-3.95
8.25
18.38
26.38
32.36
36.60
39.40
41.05
41.73
41.64
40.92
39.75
38.33
36.85
35.42
34.04
32.67
31.22
29.63
27.93
26.13
24.24
22.20
19.91
17.20
13.99
10.25
6.06
1.57
-3.11
-7.93
-12.84
-17.86
-22.96
-28.12
-33.36
-38.84
-44.80
-51.48
-58.86
-66.45
-73.29
-78.08
-79.60
-77.05
-70.34
-60.08
-47.35
-33.39
-19.35
-6.10
5.72
15.75
23.81
29.93
34.30
37.25
39.11
40.15
40.56
40.41
39.75
38.71
37.40
36.03
34.75
33.66
32.77
32.05
31.39
30.63
29.57
27.99
25.74
22.71
18.95
14.62
9.93
5.08
0.19
-4.68
-9.54
-14.37
-19.13
-23.72
-28.09
-32.28
-36.50
-41.15
-46.66
-53.24
-60.68
-68.19
-74.51
-78.21
-78.11
-73.62
-64.99
-53.10
-39.26
-24.81
-10.90
1.68
12.47
21.25
28.04
33.02
36.54
38.97
40.63
41.68
42.11
41.86
40.90
39.36
37.53
35.75
34.30
33.29
32.67
32.27
31.86
31.22
30.21
28.75
26.78
24.33
21.36
17.87
13.82
9.19
4.08
-1.33
-6.76
-11.99
-16.91
-21.53
-25.99
-30.50
-35.33
-40.68
-46.71
-53.25
-59.77
-65.29
-68.62
-68.63
-64.67
-56.80
-45.77
-32.82
-19.29
-6.34
5.20
14.89
22.60
28.40
32.50
35.17
36.70
37.34
37.29
36.72
35.77
34.56
33.21
31.79
30.39
29.04
27.80
26.72
25.82
25.03
24.23
23.19
21.67
19.50
16.57
12.99
8.92
4.56
0.10
-4.35
-8.72
-12.98
-17.13
-21.19
-25.27
-29.59
-34.47
-40.14
-46.59
-53.41
-59.80
-64.67
-66.90
-65.70
-60.82
-52.64
-42.01
-30.07
-17.95
-6.56
3.46
11.76
18.23
22.93
26.07
27.91
28.75
28.88
28.51
27.79
26.75
25.42
23.89
22.27
20.74
19.49
18.62
18.11
17.79
17.40
16.67
15.32
13.18
10.15
6.31
1.80
-3.09
-8.08
-12.96
-17.65
-22.24
-26.93
-32.03
-37.76
-44.20
-51.11
-57.88
-63.57
-67.06
-67.39
-63.95
-56.83
-46.66
-34.54
-21.74
-9.37
1.78
11.32
19.19
25.56
30.64
34.61
37.55
39.46
40.33
40.28
39.57
38.53
37.48
36.57
35.84
35.14
34.35
33.37
32.22
30.92
29.44
27.70
25.55
22.83
19.40
15.23
10.38
5.04
-0.52
-6.05
-11.39
-16.56
-21.70
-27.05
-32.81
-39.14
-46.09
-53.62
-61.46
-69.05
-75.47
-79.58
-80.29
-76.90
-69.38
-58.38
-45.07
-30.80
-16.77
-3.88
7.45
17.10
25.23
32.05
37.76
42.42
46.01
48.46
49.79
50.14
49.76
48.93
47.87
46.71
45.51
44.35
43.31
42.49
41.90
41.36
40.62
39.30
37.12
33.99
30.05
25.68
21.27
17.14
13.35
9.76
6.00
1.75
-3.16
-8.65
-14.47
-20.24
-25.65
-30.59
-35.13
-39.57
-44.36
-49.91
-56.47
-63.93
-71.64
-78.50
-83.11
-84.16
-80.79
-72.86
-61.05
-46.61
-31.08
-15.87
-2.07
9.73
19.35
26.94
32.83
37.39
40.95
43.81
46.12
47.98
49.37
50.25
50.61
50.49
50.04
49.47
48.97
48.62
48.38
48.07
47.50
46.51
45.01
43.01
40.54
37.65
34.41
30.84
27.03
23.06
19.02
14.94
10.79
6.49
1.95
-2.86
-7.88
-12.96
-17.95
-22.72
-27.23
-31.57
-35.95
-40.63
-45.94
-52.18
-59.47
-67.56
-75.72
-82.74
-87.15
-87.67
-83.58
-75.00
-62.84
-48.49
-33.43
-18.87
-5.59
6.01
15.83
23.84
30.09
34.67
37.75
39.58
40.45
40.66
40.46
40.01
39.44
38.83
38.27
37.82
37.57
37.50
37.50
37.38
36.86
35.70
33.76
31.06
27.73
23.98
19.99
15.82
11.48
6.89
2.02
-3.12
-8.45
-13.85
-19.21
-24.49
-29.74
-35.08
-40.75
-46.96
-53.84
-61.25
-68.71
-75.33
-80.00
-81.56
-79.21
-72.64
-62.26
-49.01
-34.18
-19.10
-4.85
7.89
18.82
27.93
35.27
40.89
44.86
47.30
48.51
48.94
49.05
49.16
49.30
49.30
48.92
48.09
46.97
45.86
45.03
44.50
44.02
43.17
41.56
39.06
35.74
31.90
27.86
23.82
19.86
15.91
11.85
7.53
2.90
-2.09
-7.41
-13.01
-18.82
-24.69
-30.48
-36.15
-41.77
-47.65
-54.21
-61.75
-70.24
-79.08
-87.14
-92.97
-95.21
-93.05
-86.36
-75.74
-62.26
-47.19
-31.69
-16.70
-2.90
9.28
19.64
28.23
35.18
40.75
45.15
48.54
51.04
52.69
53.56
53.71
53.30
52.54
51.74
51.19
51.09
51.45
52.06
52.56
52.57
51.83
50.19
47.66
44.30
40.22
35.56
30.55
25.43
20.41
15.50
10.56
5.32
-0.42
-6.67
-13.22
-19.69
-25.74
-31.22
-36.21
-41.00
-46.02
-51.71
-58.39
-66.08
-74.41
-82.53
-89.24
-93.25
-93.51
-89.47
-81.21
-69.44
-55.22
-39.77
-24.27
-9.68
3.30
14.30
23.25
30.34
35.94
40.39
43.97
46.80
48.90
50.26
50.91
50.95
50.50
49.71
48.72
47.70
46.83
46.22
45.95
45.88
45.71
45.04
43.53
41.01
37.60
33.58
29.36
25.24
21.32
17.47
13.44
8.90
3.71
-2.07
-8.22
-14.41
-20.32
-25.79
-30.79
-35.49
-40.25
-45.52
-51.74
-59.11
-67.35
-75.62
-82.59
-86.80
-87.06
-82.84
-74.42
-62.67
-48.87
-34.32
-20.13
-7.14
4.14
13.44
20.68
26.00
29.61
31.80
32.90
33.26
33.14
32.78
32.31
31.77
31.18
30.51
29.75
28.92
28.07
27.26
26.54
25.92
25.27
24.40
23.00
20.78
17.56
13.35
8.33
2.82
-2.87
-8.56
-14.24
-20.00
-26.08
-32.73
-40.11
-48.23
-56.83
-65.30
-72.68
-77.84
-79.67
-77.44
-70.98
-60.78
-47.84
-33.43
-18.79
-4.91
7.55
18.19
26.79
33.27
37.64
40.09
40.97
40.74
39.90
38.80
37.64
36.47
35.26
34.00
32.76
31.62
30.62
29.69
28.69
27.45
25.80
23.61
20.78
17.21
12.87
7.81
2.21
-3.65
-9.54
-15.32
-21.14
-27.29
-34.21
-42.27
-51.66
-62.17
-73.12
-83.40
-91.54
-96.09
-95.88
-90.37
-79.82
-65.27
-48.30
-30.66
-13.90
0.96
13.45
23.62
31.86
38.57
44.05
48.37
51.51
53.38
54.06
53.75
52.76
51.43
50.06
48.79
47.70
46.76
45.87
44.93
43.81
42.38
40.47
37.90
34.47
30.06
24.70
18.54
11.90
5.12
-1.57
-8.06
-14.44
-20.85
-27.40
-34.18
-41.25
-48.76
-56.94
-65.92
-75.48
-84.76
-92.32
-96.48
-95.82
-89.69
-78.48
-63.43
-46.29
-28.74
-12.11
2.85
15.78
26.64
35.53
42.61
48.10
52.33
55.66
58.34
60.51
62.06
62.82
62.65
61.65
60.19
58.79
57.91
57.71
57.99
58.26
57.91
56.46
53.64
49.52
44.36
38.62
32.70
26.95
21.48
16.21
10.86
5.16
-1.03
-7.59
-14.20
-20.41
-25.94
-30.85
-35.56
-40.79
-47.25
-55.46
-65.38
-76.36
-87.08
-95.80
-100.74
-100.55
-94.75
-83.79
-68.99
-52.07
-34.64
-17.90
-2.54
11.13
23.01
33.06
41.29
47.79
52.75
56.47
59.16
60.91
61.69
61.47
60.33
58.56
56.67
55.12
54.26
54.13
54.45
54.75
54.57
53.51
51.40
48.27
44.28
39.72
34.86
29.93
24.99
19.94
14.57
8.63
1.97
-5.34
-13.07
-20.84
-28.30
-35.22
-41.63
-47.84
-54.40
-61.89
-70.66
-80.58
-90.80
-99.87
-106.04
-107.74
-104.05
-94.94
-81.26
-64.44
-46.11
-27.77
-10.53
4.95
18.41
29.90
39.58
47.60
53.99
58.73
61.77
63.23
63.37
62.60
61.34
59.94
58.66
57.60
56.78
56.18
55.73
55.28
54.61
53.39
51.29
48.00
43.41
37.56
30.71
23.24
15.49
7.69
-0.06
-7.78
-15.51
-23.24
-30.99
-38.93
-47.34
-56.66
-67.13
-78.56
-90.00
-99.87
-106.27
-107.56
-102.86
-92.38
-77.25
-59.14
-39.77
-20.50
-2.27
14.39
29.20
41.97
52.66
61.32
68.11
73.28
77.04
79.57
80.97
81.34
80.77
79.46
77.65
75.63
73.67
72.00
70.71
69.69
68.70
67.32
65.15
61.86
57.38
51.84
45.52
38.78
31.91
25.11
18.39
11.70
4.87
-2.23
-9.68
-17.46
-25.34
-33.06
-40.33
-47.06
-53.39
-59.80
-66.90
-75.25
-85.05
-95.88
-106.62
-115.59
-120.93
-121.10
-115.30
-103.72
-87.50
-68.33
-48.09
-28.31
-10.07
6.13
20.20
32.26
42.50
51.06
58.01
63.42
67.34
69.91
71.31
71.73
71.41
70.54
69.35
68.07
66.89
65.90
65.09
64.28
63.23
61.66
59.38
56.35
52.59
48.22
43.43
38.39
33.26
28.15
23.07
18.01
12.91
7.67
2.24
-3.45
-9.44
-15.75
-22.36
-29.15
-35.90
-42.42
-48.56
-54.37
-60.12
-66.32
-73.45
-81.74
-90.87
-99.87
-107.26
-111.35
-110.82
-105.04
-94.27
-79.53
-62.26
-43.96
-25.99
-9.34
5.27
17.52
27.35
34.96
40.76
45.11
48.36
50.71
52.26
53.15
53.49
53.40
53.01
52.39
51.62
50.83
50.16
49.66
49.26
48.68
47.56
45.53
42.41
38.27
33.41
28.21
23.00
17.93
13.00
8.03
2.86
-2.62
-8.35
-14.17
-19.86
-25.23
-30.20
-34.92
-39.71
-44.99
-51.16
-58.39
-66.41
-74.45
-81.35
-85.77
-86.56
-83.07
-75.33
-64.04
-50.30
-35.46
-20.73
-7.12
4.74
14.61
22.56
28.87
33.87
37.71
40.42
41.89
42.12
41.29
39.76
38.00
36.39
35.07
34.00
33.01
31.97
30.86
29.74
28.61
27.33
25.60
23.03
19.34
14.51
8.84
2.79
-3.14
-8.64
-13.67
-18.39
-23.10
-28.14
-33.79
-40.27
-47.61
-55.58
-63.65
-70.94
-76.44
-79.13
-78.32
-73.79
-65.87
-55.36
-43.24
-30.57
-18.19
-6.72
3.53
12.41
19.87
25.91
30.55
33.87
35.93
36.86
36.83
36.01
34.58
32.77
30.82
28.94
27.34
26.13
25.29
24.71
24.20
23.56
22.58
21.08
18.94
16.15
12.70
8.70
4.20
-0.81
-6.41
-12.78
-20.02
-28.17
-36.95
-45.76
-53.77
-60.05
-63.80
-64.57
-62.34
-57.44
-50.42
-41.89
-32.37
-22.33
-12.18
-2.34
6.73
14.66
21.18
26.25
29.93
32.40
33.81
34.28
33.90
32.83
31.26
29.48
27.79
26.40
25.32
24.41
23.41
22.08
20.28
18.00
15.26
12.12
8.55
4.54
0.08
-4.70
-9.71
-14.87
-20.27
-26.17
-32.83
-40.30
-48.28
-55.99
-62.34
-66.25
-66.96
-64.19
-58.25
-49.78
-39.63
-28.63
-17.50
-6.83
2.96
11.63
19.08
25.35
30.49
34.58
37.62
39.62
40.56
40.54
39.69
38.20
36.28
34.13
31.99
30.06
28.46
27.20
26.12
24.98
23.52
21.59
19.10
16.12
12.71
9.01
5.08
0.98
-3.25
-7.62
-12.15
-16.84
-21.68
-26.68
-31.89
-37.40
-43.38
-49.90
-56.85
-63.75
-69.84
-74.17
-75.91
-74.54
-70.00
-62.66
-53.22
-42.47
-31.16
-19.89
-9.12
0.81
9.64
17.16
23.26
27.87
31.01
32.73
33.16
32.50
31.05
29.18
27.29
25.74
24.76
24.37
24.43
24.68
24.81
24.59
23.91
22.76
21.13
19.00
16.31
12.95
8.87
4.14
-1.03
-6.37
-11.62
-16.66
-21.58
-26.55
-31.80
-37.56
-43.97
-51.04
-58.54
-65.96
-72.46
-77.05
-78.77
-76.98
-71.53
-62.79
-51.56
-38.80
-25.53
-12.61
-0.73
9.68
18.43
25.59
31.34
35.88
39.36
41.82
43.22
43.53
42.80
41.19
38.94
36.39
33.87
31.70
30.05
28.94
28.16
27.35
26.07
23.97
20.88
16.83
11.98
6.59
0.85
-5.06
-11.08
-17.21
-23.55
-30.31
-37.70
-45.80
-54.30
-62.43
-68.99
-72.66
-72.38
-67.68
-58.90
-47.00
-33.33
-19.19
-5.62
6.74
17.62
26.93
34.64
40.72
45.16
47.99
49.39
49.64
49.03
47.89
46.38
44.67
42.83
41.00
39.29
37.77
36.34
34.79
32.77
29.97
26.25
21.71
16.66
11.49
6.48
1.68
-3.16
-8.49
-14.80
-22.35
-31.07
-40.38
-49.33
-56.69
-61.25
-62.11
-58.82
-51.53
-40.90
-28.02
-14.10
-0.36
12.24
23.10
31.98
38.96
44.27
48.16
50.77
52.17
52.36
51.40
49.45
46.78
43.70
40.50
37.42
34.66
32.36
30.51
28.97
27.39
25.32
22.42
18.57
13.93
8.89
3.89
-0.87
-5.43
-10.20
-15.67
-22.22
-29.86
-38.11
-46.03
-52.42
-56.09
-56.15
-52.24
-44.55
-33.81
-21.13
-7.72
5.24
16.81
26.40
33.80
39.10
42.65
44.82
45.93
46.24
45.93
45.20
44.22
43.18
42.17
41.24
40.35
39.44
38.42
37.25
35.86
34.19
32.18
29.75
26.86
23.52
19.76
15.69
11.44
7.09
2.67
-1.89
-6.67
-11.75
-17.12
-22.65
-28.16
-33.51
-38.67
-43.80
-49.22
-55.23
-61.92
-68.94
-75.47
-80.40
-82.57
-81.14
-75.83
-66.89
-55.00
-41.01
-25.81
-10.30
4.62
18.08
29.42
38.24
44.56
48.73
51.25
52.56
52.97
52.56
51.39
49.56
47.28
44.89
42.71
41.01
39.84
39.17
38.85
38.79
38.86
39.01
39.11
38.97
38.37
37.12
35.12
32.34
28.79
24.35
18.84
12.11
4.13
-4.81
-14.13
-23.11
-31.08
-37.64
-42.67
-46.33
-48.90
-50.75
-52.23
-53.69
-55.31
-56.98
-58.12
-57.80
-54.98
-49.02
-40.02
-28.94
-17.30
-6.65
1.99
8.39
12.90
16.17
18.58
20.14
20.55
19.53
17.08
13.60
9.82
6.43
3.97
2.62
2.29
2.68
3.45
4.33
5.09
5.63
5.86
5.73
5.17
4.18
2.89
1.48
0.25
-0.60
-1.04
-1.26
-1.62
-2.51
-4.16
-6.61
-9.65
-12.93
-16.22
-19.40
-22.60
-26.02
-29.82
-33.86
-37.69
-40.58
-41.78
-40.68
-37.07
-31.15
-23.48
-14.79
-5.88
2.54
9.93
15.97
20.49
23.54
25.26
25.86
25.54
24.48
22.86
20.83
18.59
16.31
14.14
12.20
10.59
9.39
8.71
8.55
8.84
9.33
9.63
9.36
8.25
6.25
3.57
0.54
-2.53
-5.54
-8.61
-11.98
-15.88
-20.39
-25.37
-30.48
-35.18
-38.87
-40.95
-40.98
-38.72
-34.28
-28.04
-20.61
-12.70
-4.95
2.08
8.01
12.63
15.89
17.84
18.69
18.69
18.12
17.21
16.12
14.92
13.59
12.10
10.48
8.80
7.20
5.79
4.58
3.51
2.41
1.09
-0.55
-2.53
-4.81
-7.30
-9.91
-12.58
-15.27
-17.98
-20.78
-23.80
-27.18
-30.88
-34.57
-37.63
-39.26
-38.79
-35.90
-30.76
-23.94
-16.20
-8.21
-0.49
6.61
12.84
17.92
21.58
23.66
24.19
23.42
21.84
19.94
18.07
16.38
14.84
13.37
11.95
10.73
9.87
9.50
9.53
9.68
9.66
9.21
8.31
7.06
5.61
4.05
2.38
0.53
-1.56
-3.95
-6.72
-10.01
-13.93
-18.44
-23.20
-27.52
-30.52
-31.45
-29.88
-25.91
-20.10
-13.23
-6.12
0.59
6.46
11.27
14.93
17.44
18.94
19.61
19.67
19.30
18.60
17.65
16.48
15.14
13.75
12.49
11.50
10.90
10.73
10.90
11.19
11.33
11.04
10.16
8.68
6.74
4.56
2.32
0.01
-2.47
-5.34
-8.75
-12.79
-17.45
-22.56
-27.85
-32.83
-36.84
-39.17
-39.20
-36.72
-32.02
-25.76
-18.80
-11.87
-5.51
0.00
4.49
7.87
10.10
11.31
11.78
11.88
11.93
12.08
12.29
12.39
12.24
11.81
11.20
10.64
10.30
10.27
10.45
10.58
10.43
9.78
8.56
6.88
4.92
2.87
0.81
-1.24
-3.32
-5.51
-7.93
-10.72
-14.12
-18.28
-23.19
-28.50
-33.44
-37.08
-38.59
-37.54
-34.07
-28.78
-22.50
-15.93
-9.58
-3.66
1.68
6.30
10.03
12.69
14.25
14.83
14.68
14.10
13.37
12.60
11.81
10.98
10.05
9.04
8.05
7.18
6.53
6.06
5.62
5.00
4.01
2.58
0.77
-1.24
-3.34
-5.52
-7.90
-10.72
-14.17
-18.23
-22.69
-27.07
-30.82
-33.39
-34.38
-33.61
-31.13
-27.12
-21.95
-16.05
-9.88
-3.87
1.64
6.45
10.44
13.61
16.01
17.70
18.75
19.20
19.08
18.45
17.37
15.98
14.44
12.92
11.55
10.43
9.52
8.73
7.94
7.04
5.97
4.66
3.06
1.08
-1.30
-4.11
-7.38
-11.11
-15.36
-20.16
-25.48
-31.05
-36.43
-40.88
-43.74
-44.48
-42.92
-39.29
-34.05
-27.83
-21.14
-14.37
-7.72
-1.26
4.96
10.84
16.17
20.70
24.20
26.56
27.82
28.21
28.06
27.74
27.53
27.58
27.87
28.27
28.59
28.62
28.23
27.33
25.97
24.21
22.11
19.63
16.73
13.33
9.47
5.35
1.31
-2.35
-5.52
-8.29
-11.04
-14.14
-17.88
-22.32
-27.39
-32.95
-38.82
-44.70
-50.06
-54.14
-56.05
-55.10
-51.05
-44.28
-35.67
-26.26
-17.01
-8.49
-0.86
5.98
12.25
18.05
23.31
27.79
31.26
33.56
34.79
35.24
35.26
35.17
35.10
35.07
35.02
34.93
34.87
34.93
35.14
35.40
35.50
35.17
34.20
32.50
30.12
27.25
24.12
20.88
17.59
14.17
10.47
6.33
1.75
-3.12
-8.01
-12.62
-16.74
-20.35
-23.65
-27.01
-30.87
-35.56
-41.16
-47.37
-53.49
-58.53
-61.47
-61.53
-58.39
-52.32
-43.98
-34.34
-24.29
-14.57
-5.55
2.66
10.15
17.06
23.48
29.36
34.61
39.09
42.67
45.19
46.50
46.51
45.20
42.79
39.68
36.43
33.49
31.14
29.37
27.93
26.54
24.98
23.19
21.24
19.23
17.28
15.40
13.57
11.66
9.54
7.09
4.20
0.83
-2.93
-6.99
-11.17
-15.36
-19.49
-23.65
-28.00
-32.82
-38.36
-44.71
-51.69
-58.70
-64.82
-68.96
-70.16
-67.88
-62.15
-53.57
-43.07
-31.65
-20.20
-9.34
0.56
9.33
16.93
23.37
28.71
33.00
36.27
38.55
39.89
40.43
40.39
40.09
39.81
39.73
39.79
39.81
39.54
38.77
37.48
35.75
33.69
31.40
28.83
25.87
22.39
18.34
13.77
8.82
3.70
-1.41
-6.43
-11.29
-16.03
-20.73
-25.57
-30.82
-36.77
-43.54
-50.85
-57.94
-63.57
-66.42
-65.50
-60.54
-52.09
-41.28
-29.43
-17.70
-6.88
2.57
10.48
16.85
21.85
25.81
29.16
32.21
35.05
37.52
39.31
40.15
39.99
38.94
37.29
35.28
33.13
31.00
28.97
27.05
25.23
23.34
21.16
18.40
14.79
10.25
4.87
-1.01
-6.96
-12.59
-17.68
-22.35
-26.98
-32.13
-38.34
-45.84
-54.41
-63.31
-71.35
-77.18
-79.58
-77.80
-71.73
-61.99
-49.68
-36.16
-22.63
-10.03
1.16
10.81
19.07
26.14
32.19
37.26
41.25
44.03
45.55
45.93
45.46
44.57
43.67
43.01
42.64
42.41
42.06
41.37
40.19
38.57
36.58
34.26
31.51
28.17
24.02
18.98
13.17
6.85
0.31
-6.21
-12.64
-19.02
-25.45
-32.07
-39.05
-46.66
-55.15
-64.60
-74.67
-84.44
-92.51
-97.31
-97.66
-93.09
-83.97
-71.41
-56.78
-41.43
-26.35
-12.14
0.94
12.82
23.52
33.04
41.27
48.09
53.38
57.09
59.36
60.45
60.74
60.60
60.29
59.97
59.66
59.29
58.67
57.61
55.89
53.36
49.96
45.75
40.81
35.24
29.11
22.46
15.36
7.91
0.24
-7.49
-15.16
-22.68
-30.03
-37.29
-44.67
-52.49
-61.01
-70.25
-79.72
-88.35
-94.65
-97.14
-94.83
-87.50
-75.78
-60.93
-44.47
-27.79
-11.96
2.40
15.07
26.15
35.94
44.67
52.42
59.04
64.24
67.80
69.79
70.55
70.61
70.44
70.25
70.00
69.50
68.63
67.40
65.91
64.18
62.07
59.33
55.68
50.95
45.20
38.62
31.51
24.16
16.76
9.42
2.19
-4.94
-12.01
-19.14
-26.57
-34.59
-43.53
-53.51
-64.24
-74.88
-84.06
-90.11
-91.61
-87.73
-78.57
-65.13
-48.97
-31.77
-14.94
0.61
14.48
26.52
36.80
45.33
52.15
57.31
60.94
63.20
64.29
64.36
63.52
61.91
59.71
57.19
54.69
52.52
50.86
49.69
48.75
47.52
45.43
41.97
36.88
30.31
22.74
14.84
7.24
0.29
-6.00
-11.94
-18.04
-24.78
-32.48
-41.15
-50.34
-59.16
-66.33
-70.47
-70.44
-65.67
-56.32
-43.23
-27.64
-10.91
5.73
21.36
35.33
47.22
56.83
64.09
69.11
72.11
73.45
73.58
73.06
72.38
71.88
71.61
71.22
70.11
67.58
63.24
57.07
49.53
41.28
32.89
24.68
16.57
8.40
0.08
-8.26
-16.29
-23.70
-30.40
-36.63
-42.90
-49.77
-57.68
-66.63
-76.17
-85.35
-92.96
-97.79
-98.89
-95.83
-88.80
-78.46
-65.81
-51.92
-37.76
-24.12
-11.53
-0.35
9.22
17.09
23.24
27.69
30.52
31.93
32.15
31.49
30.28
28.77
27.23
25.82
24.71
23.94
23.42
22.92
22.13
20.74
18.59
15.69
12.20
8.31
4.13
-0.32
-5.13
-10.46
-16.46
-23.26
-30.92
-39.36
-48.19
-56.73
-64.03
-69.05
-70.88
-69.08
-63.68
-55.25
-44.70
-33.03
-21.16
-9.78
0.69
10.07
18.23
25.13
30.71
34.89
37.64
39.03
39.25
38.49
36.99
34.96
32.60
30.11
27.71
25.54
23.58
21.62
19.30
16.20
12.09
6.98
1.13
-5.03
-11.14
-17.00
-22.64
-28.36
-34.55
-41.59
-49.58
-58.21
-66.69
-73.83
-78.38
-79.34
-76.28
-69.47
-59.73
-48.16
-35.80
-23.45
-11.61
-0.53
9.62
18.63
26.31
32.46
36.97
39.83
41.16
41.23
40.34
38.85
37.05
35.17
33.25
31.24
28.99
26.35
23.22
19.60
15.57
11.23
6.65
1.85
-3.21
-8.63
-14.61
-21.35
-29.07
-37.79
-47.15
-56.35
-64.22
-69.44
-71.00
-68.39
-61.78
-51.84
-39.56
-26.04
-12.30
0.84
12.73
23.02
31.58
38.48
43.91
48.04
50.92
52.58
53.01
52.30
50.67
48.41
45.82
43.18
40.68
38.36
36.17
33.84
31.08
27.62
23.34
18.32
12.79
7.04
1.24
-4.66
-10.88
-17.78
-25.66
-34.64
-44.54
-54.75
-64.33
-72.05
-76.66
-77.22
-73.30
-65.20
-53.84
-40.54
-26.69
-13.39
-1.32
9.30
18.50
26.44
33.19
38.73
42.99
45.95
47.69
48.40
48.38
47.86
47.02
45.91
44.53
42.91
41.12
39.33
37.66
36.14
34.61
32.76
30.21
26.67
22.07
16.61
10.68
4.65
-1.21
-6.81
-12.23
-17.63
-23.19
-29.10
-35.57
-42.82
-50.85
-59.34
-67.43
-73.88
-77.39
-76.96
-72.35
-64.05
-53.18
-41.01
-28.68
-16.85
-5.86
4.20
13.27
21.23
27.88
33.04
36.70
38.98
40.19
40.68
40.75
40.59
40.21
39.54
38.52
37.13
35.45
33.62
31.75
29.81
27.72
25.29
22.30
18.65
14.29
9.37
4.10
-1.25
-6.47
-11.52
-16.47
-21.47
-26.75
-32.48
-38.84
-45.88
-53.42
-60.98
-67.68
-72.42
-74.14
-72.17
-66.45
-57.53
-46.39
-34.17
-21.87
-10.27
0.12
9.05
16.46
22.46
27.20
30.84
33.50
35.21
36.05
36.21
35.91
35.40
34.87
34.40
34.00
33.60
33.12
32.41
31.29
29.52
26.96
23.60
19.62
15.34
11.03
6.77
2.40
-2.47
-8.30
-15.45
-24.11
-34.04
-44.59
-54.68
-62.96
-68.02
-68.89
-65.22
-57.48
-46.79
-34.57
-22.11
-10.35
0.19
9.30
16.92
23.03
27.69
31.03
33.31
34.79
35.70
36.11
35.98
35.26
33.96
32.19
30.20
28.23
26.44
24.87
23.41
21.80
19.70
16.80
12.92
8.07
2.51
-3.37
-9.19
-14.70
-19.91
-25.11
-30.73
-37.20
-44.70
-53.01
-61.41
-68.83
-74.08
-76.15
-74.52
-69.24
-60.87
-50.31
-38.56
-26.52
-14.89
-4.14
5.49
13.91
21.12
27.16
32.06
35.84
38.56
40.33
41.30
41.57
41.27
40.45
39.20
37.64
35.93
34.25
32.69
31.22
29.63
27.63
24.92
21.28
16.66
11.18
5.15
-1.03
-6.98
-12.54
-17.78
-23.02
-28.72
-35.30
-42.94
-51.38
-59.89
-67.40
-72.68
-74.79
-73.21
-68.05
-59.88
-49.57
-38.07
-26.21
-14.67
-3.87
5.91
14.56
22.09
28.58
34.11
38.75
42.51
45.42
47.46
48.65
48.99
48.52
47.33
45.67
43.81
42.02
40.39
38.75
36.80
34.15
30.54
25.93
20.47
14.42
8.10
1.80
-4.28
-10.01
-15.52
-21.10
-27.22
-34.25
-42.20
-50.54
-58.20
-63.85
-66.30
-64.91
-59.76
-51.51
-41.12
-29.59
-17.72
-6.09
4.86
14.76
23.32
30.40
35.98
40.17
43.13
45.02
45.99
46.16
45.66
44.67
43.34
41.84
40.27
38.72
37.27
35.91
34.50
32.81
30.55
27.49
23.52
18.70
13.24
7.46
1.62
-4.06
-9.55
-15.05
-20.93
-27.62
-35.33
-43.83
-52.40
-59.91
-65.14
-67.16
-65.57
-60.55
-52.70
-42.86
-31.91
-20.62
-9.64
0.45
9.25
16.55
22.37
26.93
30.57
33.50
35.82
37.45
38.20
38.02
36.97
35.39
33.61
31.96
30.49
29.09
27.47
25.30
22.40
18.67
14.24
9.31
4.14
-1.04
-6.09
-10.98
-15.88
-21.05
-26.84
-33.54
-41.21
-49.46
-57.50
-64.17
-68.24
-68.81
-65.54
-58.82
-49.53
-38.85
-27.79
-17.08
-7.11
1.99
10.14
17.24
23.21
27.99
31.61
34.18
35.87
36.82
37.09
36.67
35.59
33.92
31.81
29.49
27.08
24.62
21.99
18.99
15.41
11.13
6.14
0.52
-5.52
-11.81
-18.16
-24.55
-31.10
-38.02
-45.48
-53.45
-61.52
-68.92
-74.63
-77.70
-77.51
-73.86
-67.10
-57.93
-47.27
-36.06
-25.05
-14.75
-5.36
3.14
10.88
17.90
24.09
29.21
32.99
35.31
36.25
36.10
35.30
34.23
33.19
32.29
31.54
30.86
30.17
29.40
28.48
27.26
25.56
23.17
19.99
16.04
11.46
6.39
0.88
-5.18
-12.02
-19.86
-28.66
-37.99
-47.08
-54.90
-60.46
-62.99
-62.14
-57.99
-50.98
-41.81
-31.28
-20.17
-9.10
1.53
11.51
20.77
29.32
37.05
43.77
49.20
53.14
55.56
56.64
56.70
56.02
54.79
53.08
50.91
48.38
45.62
42.76
39.80
36.56
32.73
28.07
22.58
16.52
10.33
4.39
-1.18
-6.64
-12.46
-19.07
-26.58
-34.69
-42.65
-49.52
-54.37
-56.55
-55.73
-52.02
-45.76
-37.54
-28.05
-17.98
-8.00
1.36
9.73
16.93
22.94
27.86
31.77
34.74
36.84
38.07
38.52
38.27
37.43
36.14
34.51
32.67
30.78
28.92
27.10
25.17
22.93
20.15
16.72
12.68
8.23
3.59
-1.11
-5.89
-10.97
-16.66
-23.23
-30.74
-38.87
-46.91
-53.82
-58.56
-60.30
-58.69
-53.95
-46.73
-37.95
-28.55
-19.28
-10.62
-2.86
3.97
9.90
15.01
19.39
23.04
25.98
28.22
29.81
30.83
31.40
31.61
31.55
31.32
30.95
30.48
29.85
28.92
27.46
25.26
22.11
18.01
13.07
7.56
1.77
-4.08
-9.95
-15.97
-22.27
-28.93
-35.77
-42.26
-47.66
-51.10
-51.88
-49.69
-44.67
-37.40
-28.71
-19.51
-10.55
-2.33
4.89
11.06
16.22
20.51
24.04
26.91
29.16
30.68
31.36
31.10
29.93
28.13
26.10
24.22
22.68
21.37
19.99
18.19
15.81
12.86
9.48
5.78
1.76
-2.63
-7.37
-12.37
-17.43
-22.44
-27.45
-32.59
-37.86
-42.97
-47.26
-49.87
-50.08
-47.56
-42.51
-35.49
-27.19
-18.27
-9.22
-0.38
7.97
15.59
22.32
28.04
32.77
36.54
39.38
41.31
42.34
42.54
42.05
41.08
39.79
38.29
36.57
34.61
32.35
29.84
27.17
24.42
21.58
18.46
14.86
10.61
5.76
0.49
-4.90
-10.16
-15.18
-20.03
-24.98
-30.34
-36.40
-43.23
-50.60
-57.86
-64.09
-68.25
-69.53
-67.54
-62.45
-54.84
-45.50
-35.23
-24.65
-14.27
-4.47
4.43
12.25
18.90
24.38
28.76
32.11
34.44
35.80
36.29
36.12
35.57
34.94
34.41
34.01
33.60
32.99
31.97
30.47
28.58
26.47
24.32
22.19
19.98
17.53
14.62
11.16
7.17
2.74
-1.97
-6.83
-11.73
-16.54
-21.18
-25.67
-30.16
-34.98
-40.49
-46.79
-53.55
-59.97
-64.93
-67.39
-66.72
-62.90
-56.50
-48.45
-39.60
-30.60
-21.69
-12.91
-4.23
4.23
12.22
19.37
25.40
30.14
33.54
35.72
36.80
36.92
36.25
35.00
33.45
31.90
30.56
29.49
28.57
27.59
26.35
24.70
22.64
20.18
17.37
14.25
10.81
7.08
3.10
-1.02
-5.11
-9.02
-12.65
-16.05
-19.42
-23.10
-27.39
-32.34
-37.64
-42.65
-46.51
-48.49
-48.15
-45.49
-40.77
-34.47
-27.10
-19.17
-11.19
-3.65
3.00
8.51
12.84
16.16
18.73
20.73
22.24
23.19
23.54
23.32
22.70
21.93
21.27
20.88
20.83
21.04
21.38
21.70
21.82
21.53
20.68
19.20
17.14
14.67
12.04
9.43
6.86
4.06
0.67
-3.76
-9.44
-16.17
-23.29
-29.81
-34.69
-37.11
-36.72
-33.68
-28.51
-21.93
-14.67
-7.29
-0.25
6.15
11.76
16.54
20.62
24.17
27.32
30.06
32.15
33.22
32.95
31.23
28.34
24.77
21.13
17.87
15.15
12.84
10.72
8.56
6.31
3.97
1.55
-1.04
-3.97
-7.41
-11.42
-16.03
-21.17
-26.81
-32.83
-38.89
-44.37
-48.42
-50.23
-49.35
-45.87
-40.40
-33.90
-27.32
-21.33
-16.21
-11.93
-8.29
-5.07
-2.17
0.41
2.64
4.48
5.96
7.25
8.53
9.91
11.41
12.86
13.99
14.57
14.52
13.93
12.98
11.88
10.73
9.53
8.25
6.81
5.17
3.26
0.94
-1.92
-5.34
-9.18
-12.98
-16.08
-17.82
-17.77
-15.82
-12.24
-7.52
-2.19
3.27
8.51
13.25
17.23
20.28
22.27
23.23
23.28
22.58
21.28
19.43
17.11
14.41
11.54
8.78
6.39
4.54
3.19
2.22
1.40
0.57
-0.38
-1.48
-2.73
-4.12
-5.69
-7.44
-9.40
-11.68
-14.40
-17.70
-21.47
-25.32
-28.56
-30.36
-30.08
-27.52
-23.00
-17.23
-11.02
-5.04
0.34
5.00
8.94
12.14
14.59
16.23
17.05
17.13
16.59
15.58
14.25
12.74
11.21
9.77
8.55
7.54
6.70
5.88
4.96
3.84
2.55
1.12
-0.42
-2.08
-3.98
-6.21
-8.81
-11.72
-14.86
-18.22
-21.82
-25.66
-29.52
-32.92
-35.12
-35.40
-33.33
-28.99
-22.93
-16.04
-9.17
-2.90
2.58
7.39
11.74
15.76
19.38
22.40
24.54
25.67
25.85
25.38
24.58
23.69
22.81
21.89
20.88
19.76
18.58
17.39
16.17
14.80
13.15
11.14
8.77
6.20
3.57
1.03
-1.44
-3.95
-6.75
-10.08
-14.13
-18.92
-24.22
-29.54
-34.12
-37.18
-38.06
-36.41
-32.35
-26.35
-19.12
-11.45
-4.01
2.69
8.34
12.81
16.03
18.07
19.09
19.30
18.99
18.34
17.47
16.39
15.09
13.67
12.32
11.31
10.87
11.04
11.62
12.21
12.35
11.67
10.05
7.61
4.67
1.57
-1.38
-4.05
-6.44
-8.71
-11.10
-13.87
-17.19
-21.03
-25.09
-28.74
-31.20
-31.75
-29.91
-25.76
-19.79
-12.89
-5.91
0.45
5.91
10.42
14.06
16.90
18.92
20.12
20.56
20.39
19.85
19.07
18.15
17.10
15.90
14.64
13.43
12.40
11.61
10.99
10.41
9.75
8.95
8.02
6.92
5.52
3.63
1.03
-2.28
-6.14
-10.25
-14.33
-18.23
-21.90
-25.31
-28.23
-30.23
-30.78
-29.50
-26.30
-21.52
-15.76
-9.64
-3.70
1.74
6.51
10.49
13.63
15.80
17.01
17.28
16.79
15.77
14.50
13.22
12.13
11.30
10.70
10.17
9.54
8.66
7.44
5.93
4.21
2.40
0.56
-1.31
-3.25
-5.27
-7.43
-9.67
-12.05
-14.67
-17.67
-21.11
-24.91
-28.65
-31.75
-33.56
-33.62
-31.80
-28.29
-23.54
-18.05
-12.26
-6.48
-0.93
4.16
8.60
12.15
14.65
16.06
16.47
16.12
15.27
14.13
12.86
11.55
10.27
9.09
8.07
7.22
6.49
5.78
5.02
4.16
3.25
2.28
1.21
-0.13
-1.95
-4.44
-7.71
-11.72
-16.25
-20.90
-25.17
-28.46
-30.18
-29.92
-27.53
-23.21
-17.51
-11.17
-4.92
0.71
5.46
9.38
12.66
15.55
18.19
20.46
22.13
22.93
22.73
21.65
20.02
18.30
16.85
15.80
15.05
14.33
13.39
12.08
10.45
8.60
6.67
4.73
2.70
0.45
-2.11
-5.04
-8.33
-11.98
-16.00
-20.46
-25.32
-30.32
-34.89
-38.24
-39.62
-38.55
-35.07
-29.68
-23.12
-16.17
-9.32
-2.79
3.27
8.77
13.52
17.28
19.90
21.44
22.16
22.39
22.37
22.14
21.56
20.50
18.94
17.14
15.50
14.38
13.85
13.63
13.20
11.99
9.77
6.63
3.01
-0.62
-3.96
-6.97
-9.76
-12.49
-15.19
-17.90
-20.65
-23.61
-26.90
-30.48
-33.95
-36.66
-37.81
-36.91
-33.86
-29.05
-23.07
-16.56
-9.94
-3.48
2.62
8.12
12.77
16.32
18.69
19.97
20.47
20.49
20.38
20.33
20.47
20.81
21.32
21.96
22.68
23.38
23.95
24.21
23.95
22.98
21.20
18.65
15.48
11.95
8.29
4.68
1.17
-2.34
-6.01
-10.10
-14.81
-20.26
-26.35
-32.64
-38.42
-42.79
-44.98
-44.54
-41.48
-36.28
-29.64
-22.30
-14.82
-7.57
-0.75
5.43
10.80
15.19
18.51
20.82
22.27
23.07
23.45
23.58
23.60
23.55
23.48
23.37
23.19
22.94
22.64
22.30
21.87
21.23
20.16
18.43
15.92
12.69
8.96
5.02
1.15
-2.54
-6.08
-9.73
-13.78
-18.47
-23.83
-29.63
-35.29
-40.04
-43.07
-43.73
-41.79
-37.38
-31.04
-23.46
-15.37
-7.36
0.20
7.10
13.21
18.35
22.35
25.06
26.48
26.78
26.33
25.50
24.57
23.61
22.57
21.36
19.99
18.60
17.42
16.52
15.82
15.05
13.85
12.00
9.41
6.25
2.75
-0.85
-4.43
-7.99
-11.61
-15.44
-19.64
-24.32
-29.46
-34.88
-40.15
-44.60
-47.51
-48.19
-46.31
-41.89
-35.39
-27.47
-18.92
-10.38
-2.38
4.71
10.64
15.27
18.59
20.78
22.10
22.85
23.27
23.49
23.53
23.39
23.11
22.76
22.48
22.32
22.24
22.10
21.75
21.02
19.82
18.14
16.00
13.48
10.71
7.83
4.96
2.15
-0.63
-3.54
-6.78
-10.50
-14.74
-19.32
-23.78
-27.52
-29.91
-30.49
-29.09
-25.85
-21.16
-15.51
-9.35
-3.03
3.15
8.92
13.99
18.17
21.41
23.83
25.67
27.10
28.19
28.89
29.11
28.91
28.44
28.01
27.85
28.03
28.42
28.77
28.82
28.39
27.42
25.97
24.11
21.93
19.45
16.75
13.92
11.07
8.23
5.31
2.05
-1.89
-6.74
-12.47
-18.65
-24.52
-29.23
-32.05
-32.58
-30.77
-26.82
-20.96
-13.44
-4.54
5.22
15.04
23.87
30.66
34.67
35.70
34.14
30.79
26.57
22.26
18.35
15.02
12.28
10.11
8.58
7.72
7.59
8.07
8.91
9.75
10.21
9.98
8.89
6.93
4.25
1.09
-2.33
-5.82
-9.34
-12.90
-16.59
-20.43
-24.46
-28.66
-32.96
-37.20
-41.04
-44.01
-45.54
-45.13
-42.53
-37.84
-31.52
-24.20
-16.54
-9.11
-2.32
3.50
8.14
11.50
13.69
14.98
15.75
16.30
16.76
17.06
16.96
16.28
14.99
13.24
11.31
9.49
7.93
6.57
5.20
3.57
1.45
-1.20
-4.28
-7.60
-10.95
-14.23
-17.45
-20.67
-24.04
-27.62
-31.42
-35.35
-39.24
-42.76
-45.48
-46.82
-46.30
-43.60
-38.70
-31.94
-23.93
-15.34
-6.86
0.96
7.68
12.99
16.68
18.71
19.26
18.69
17.39
15.79
14.13
12.53
11.03
9.70
8.58
7.77
7.26
6.88
6.33
5.27
3.47
0.83
-2.52
-6.37
-10.51
-14.77
-19.20
-23.89
-29.04
-34.71
-40.75
-46.70
-51.84
-55.37
-56.58
-55.08
-50.86
-44.28
-35.93
-26.46
-16.58
-6.91
2.06
9.95
16.54
21.81
25.78
28.60
30.36
31.14
31.06
30.26
28.99
27.48
25.94
24.48
23.09
21.72
20.23
18.58
16.77
14.94
13.23
11.79
10.56
9.27
7.40
4.28
-0.68
-7.82
-17.02
-27.66
-38.68
-48.73
-56.54
-61.11
-61.97
-59.22
-53.44
-45.48
-36.30
-26.78
-17.65
-9.33
-1.92
4.71
10.90
16.97
22.97
28.71
33.74
37.62
40.09
41.20
41.23
40.51
39.28
37.71
35.96
34.20
32.62
31.24
29.89
28.12
25.48
21.73
16.98
11.67
6.37
1.41
-3.21
-7.81
-12.85
-18.72
-25.54
-33.09
-40.90
-48.27
-54.43
-58.55
-59.96
-58.26
-53.42
-45.81
-36.11
-25.12
-13.65
-2.37
8.33
18.24
27.29
35.49
42.73
48.84
53.57
56.76
58.40
58.71
58.06
56.86
55.46
54.11
52.98
52.13
51.58
51.21
50.83
50.14
48.84
46.77
43.93
40.47
36.60
32.49
28.19
23.60
18.61
13.14
7.27
1.21
-4.75
-10.31
-15.36
-19.98
-24.49
-29.35
-34.98
-41.55
-48.86
-56.20
-62.48
-66.47
-67.07
-63.69
-56.44
-46.11
-34.03
-21.69
-10.39
-0.90
6.58
12.37
17.04
21.11
24.80
28.07
30.73
32.71
34.16
35.43
36.92
38.81
40.96
42.97
44.35
44.76
44.11
42.58
40.44
37.87
34.97
31.67
27.89
23.57
18.78
13.67
8.42
3.19
-1.86
-6.64
-11.18
-15.56
-19.97
-24.68
-29.97
-36.13
-43.27
-51.29
-59.66
-67.48
-73.53
-76.60
-75.82
-70.90
-62.29
-50.90
-37.83
-24.10
-10.44
2.60
14.61
25.17
33.94
40.66
45.33
48.19
49.62
50.00
49.63
48.67
47.16
45.17
42.81
40.30
37.87
35.69
33.80
32.08
30.34
28.38
26.08
23.38
20.25
16.69
12.69
8.22
3.35
-1.83
-7.09
-12.22
-17.04
-21.55
-25.95
-30.63
-36.01
-42.40
-49.76
-57.60
-65.02
-70.86
-74.00
-73.63
-69.44
-61.69
-51.09
-38.63
-25.39
-12.38
-0.39
10.08
18.87
26.14
32.24
37.56
42.28
46.42
49.75
52.06
53.28
53.59
53.36
52.98
52.71
52.67
52.82
53.07
53.34
53.54
53.50
52.97
51.70
49.59
46.66
43.16
39.41
35.68
32.08
28.55
24.93
21.06
16.90
12.50
7.92
3.19
-1.81
-7.32
-13.60
-20.86
-29.17
-38.43
-48.37
-58.60
-68.47
-77.19
-83.81
-87.43
-87.42
-83.68
-76.62
-67.08
-56.07
-44.48
-32.94
-21.81
-11.28
-1.50
7.36
15.12
21.66
26.99
31.23
34.55
37.13
39.05
40.39
41.23
41.69
41.93
42.08
42.19
42.23
42.12
41.78
41.13
40.09
38.57
36.47
33.74
30.48
26.92
23.32
19.83
16.42
12.92
9.11
4.90
0.37
-4.28
-8.80
-13.06
-17.08
-20.96
-24.93
-29.25
-34.20
-39.92
-46.35
-53.01
-59.07
-63.49
-65.25
-63.76
-58.98
-51.47
-42.12
-31.89
-21.58
-11.72
-2.59
5.65
12.87
19.02
24.02
27.87
30.64
32.50
33.63
34.21
34.37
34.20
33.78
33.19
32.51
31.82
31.16
30.49
29.68
28.53
26.87
24.61
21.81
18.64
15.30
11.97
8.73
5.60
2.49
-0.68
-3.93
-7.26
-10.59
-13.80
-16.78
-19.45
-21.81
-24.04
-26.41
-29.27
-32.89
-37.28
-42.14
-46.79
-50.31
-51.84
-50.80
-47.12
-41.23
-33.92
-26.02
-18.23
-10.91
-4.19
1.90
7.29
11.84
15.42
17.94
19.52
20.35
20.70
20.76
20.61
20.27
19.78
19.25
18.83
18.62
18.60
18.64
18.54
18.13
17.32
16.12
14.61
12.85
10.83
8.46
5.70
2.52
-0.96
-4.59
-8.20
-11.66
-14.98
-18.30
-21.85
-25.88
-30.55
-35.77
-41.10
-45.89
-49.34
-50.82
-49.99
-46.87
-41.81
-35.32
-27.96
-20.27
-12.72
-5.74
0.39
5.52
9.73
13.19
16.06
18.41
20.19
21.30
21.73
21.55
20.97
20.21
19.48
18.85
18.32
17.80
17.21
16.44
15.42
14.09
12.41
10.44
8.28
6.03
3.76
1.48
-0.90
-3.48
-6.28
-9.26
-12.26
-15.20
-18.03
-20.83
-23.79
-27.08
-30.80
-34.85
-38.96
-42.60
-45.15
-46.02
-44.85
-41.58
-36.48
-30.02
-22.78
-15.29
-8.00
-1.26
4.68
9.68
13.74
16.92
19.39
21.22
22.49
23.22
23.51
23.53
23.47
23.50
23.68
23.97
24.26
24.45
24.44
24.22
23.72
22.85
21.46
19.41
16.60
13.05
8.94
4.58
0.27
-3.74
-7.32
-10.52
-13.44
-16.21
-18.94
-21.72
-24.67
-28.00
-31.86
-36.28
-40.94
-45.18
-48.11
-48.92
-47.19
-43.01
-36.96
-29.89
-22.63
-15.73
-9.48
-3.92
0.98
5.20
8.71
11.50
13.58
15.08
16.14
16.92
17.49
17.85
17.95
17.74
17.22
16.47
15.68
15.02
14.60
14.36
14.11
13.55
12.43
10.65
8.31
5.65
2.93
0.35
-2.03
-4.26
-6.42
-8.64
-11.01
-13.65
-16.67
-20.10
-23.78
-27.28
-30.01
-31.31
-30.73
-28.20
-23.99
-18.65
-12.76
-6.75
-0.91
4.58
9.58
13.88
17.26
19.64
21.06
21.72
21.84
21.58
21.04
20.20
19.04
17.58
15.90
14.15
12.46
10.96
9.72
8.75
7.91
7.04
5.94
4.48
2.68
0.65
-1.47
-3.65
-5.91
-8.44
-11.38
-14.86
-18.92
-23.46
-28.24
-32.86
-36.73
-39.25
-39.93
-38.53
-35.23
-30.45
-24.78
-18.76
-12.78
-7.02
-1.59
3.36
7.70
11.26
13.92
15.70
16.68
17.00
16.79
16.16
15.15
13.82
12.22
10.50
8.80
7.32
6.21
5.49
5.09
4.81
4.41
3.67
2.43
0.65
-1.66
-4.35
-7.30
-10.37
-13.48
-16.69
-20.08
-23.80
-27.84
-32.00
-35.78
-38.51
-39.58
-38.63
-35.68
-31.12
-25.55
-19.58
-13.70
-8.17
-3.10
1.52
5.68
9.41
12.70
15.50
17.79
19.57
20.84
21.64
21.96
21.78
21.06
19.76
17.96
15.85
13.67
11.66
9.92
8.39
6.88
5.17
3.13
0.72
-1.97
-4.81
-7.75
-10.83
-14.21
-18.13
-22.77
-28.08
-33.76
-39.14
-43.37
-45.59
-45.23
-42.15
-36.70
-29.56
-21.54
-13.41
-5.73
1.15
7.09
12.06
16.16
19.53
22.29
24.52
26.21
27.36
28.02
28.28
28.30
28.15
27.86
27.36
26.61
25.68
24.72
23.89
23.24
22.65
21.82
20.40
18.19
15.15
11.50
7.50
3.36
-0.85
-5.14
-9.61
-14.33
-19.36
-24.81
-30.79
-37.37
-44.41
-51.44
-57.60
-61.84
-63.22
-61.26
-56.15
-48.66
-39.93
-30.99
-22.51
-14.69
-7.39
-0.38
6.40
12.79
18.48
23.17
26.74
29.32
31.14
32.42
33.25
33.57
33.25
32.27
30.76
29.05
27.49
26.33
25.57
24.98
24.18
22.79
20.58
17.55
13.92
10.01
6.13
2.42
-1.15
-4.74
-8.61
-13.00
-18.11
-24.05
-30.77
-37.98
-45.09
-51.18
-55.23
-56.37
-54.20
-48.87
-41.11
-31.89
-22.17
-12.67
-3.77
4.37
11.69
18.17
23.74
28.37
32.11
35.03
37.23
38.77
39.67
39.94
39.62
38.83
37.79
36.72
35.83
35.22
34.77
34.26
33.33
31.66
29.06
25.50
21.17
16.35
11.31
6.15
0.87
-4.75
-10.91
-17.78
-25.35
-33.36
-41.27
-48.25
-53.34
-55.63
-54.59
-50.16
-42.87
-33.64
-23.48
-13.27
-3.54
5.47
13.71
21.11
27.54
32.78
36.67
39.14
40.32
40.50
40.07
39.37
38.60
37.83
36.97
35.92
34.65
33.19
31.63
29.99
28.23
26.16
23.57
20.35
16.53
12.31
7.93
3.60
-0.63
-4.87
-9.34
-14.32
-20.06
-26.77
-34.42
-42.77
-51.13
-58.52
-63.71
-65.62
-63.62
-57.76
-48.73
-37.61
-25.55
-13.51
-2.13
8.20
17.26
24.90
31.08
35.83
39.27
41.63
43.11
43.92
44.19
44.00
43.45
42.65
41.74
40.84
40.02
39.24
38.39
37.33
35.96
34.22
32.17
29.86
27.32
24.49
21.24
17.40
12.95
7.98
2.73
-2.53
-7.63
-12.55
-17.42
-22.47
-28.00
-34.24
-41.29
-49.00
-56.87
-64.09
-69.58
-72.26
-71.32
-66.57
-58.40
-47.78
-35.92
-23.97
-12.79
-2.83
5.74
13.00
19.05
23.93
27.69
30.39
32.16
33.24
33.95
34.53
35.09
35.58
35.86
35.81
35.45
34.94
34.44
34.03
33.60
32.93
31.68
29.63
26.68
22.82
18.20
13.06
7.63
2.14
-3.22
-8.41
-13.52
-18.81
-24.61
-31.19
-38.57
-46.44
-54.00
-60.16
-63.75
-63.88
-60.15
-52.90
-42.95
-31.46
-19.47
-7.79
3.07
12.82
21.21
27.98
32.91
35.95
37.22
37.11
36.12
34.70
33.16
31.65
30.16
28.66
27.14
25.65
24.30
23.15
22.15
21.14
19.86
18.07
15.59
12.43
8.71
4.60
0.28
-4.13
-8.60
-13.13
-17.81
-22.80
-28.34
-34.67
-41.86
-49.68
-57.41
-63.96
-68.14
-68.96
-65.93
-59.20
-49.50
-37.83
-25.34
-13.02
-1.63
8.35
16.71
23.49
28.85
33.03
36.24
38.64
40.32
41.35
41.80
41.76
41.35
40.66
39.78
38.76
37.61
36.33
34.89
33.30
31.58
29.76
27.84
25.78
23.46
20.72
17.43
13.61
9.35
4.84
0.27
-4.30
-8.90
-13.59
-18.46
-23.56
-28.95
-34.76
-41.17
-48.21
-55.61
-62.59
-67.98
-70.54
-69.38
-64.34
-56.09
-45.76
-34.65
-23.72
-13.51
-4.22
4.10
11.39
17.62
22.81
27.12
30.76
33.89
36.53
38.54
39.76
40.17
39.98
39.47
38.92
38.40
37.85
37.10
36.04
34.65
32.98
31.08
28.97
26.61
23.97
21.06
17.94
14.66
11.24
7.66
3.90
-0.00
-3.99
-7.96
-11.91
-15.94
-20.29
-25.25
-31.05
-37.75
-45.05
-52.29
-58.59
-62.98
-64.70
-63.38
-59.11
-52.38
-43.90
-34.45
-24.68
-15.16
-6.27
1.74
8.76
14.79
19.84
23.93
27.08
29.29
30.65
31.27
31.32
30.94
30.24
29.32
28.30
27.35
26.65
26.30
26.16
25.97
25.32
23.88
21.49
18.23
14.33
10.08
5.70
1.31
-3.04
-7.38
-11.74
-16.27
-21.15
-26.62
-32.84
-39.67
-46.69
-53.12
-58.06
-60.76
-60.85
-58.37
-53.79
-47.77
-40.94
-33.82
-26.69
-19.76
-13.12
-6.84
-1.00
4.38
9.29
13.71
17.56
20.69
22.88
24.05
24.25
23.71
22.79
21.89
21.27
21.05
21.10
21.17
20.90
19.95
18.09
15.28
11.70
7.62
3.39
-0.78
-4.81
-8.82
-13.01
-17.66
-23.03
-29.32
-36.48
-44.14
-51.56
-57.72
-61.62
-62.54
-60.32
-55.31
-48.22
-39.78
-30.58
-20.99
-11.21
-1.45
8.01
16.85
24.74
31.47
36.97
41.23
44.34
46.34
47.27
47.25
46.50
45.31
44.05
42.98
42.23
41.71
41.21
40.49
39.40
37.87
35.91
33.56
30.82
27.68
24.09
20.03
15.54
10.67
5.48
0.07
-5.50
-11.15
-16.87
-22.70
-28.82
-35.45
-42.78
-50.74
-58.92
-66.48
-72.34
-75.47
-75.24
-71.60
-65.06
-56.49
-46.76
-36.54
-26.18
-15.85
-5.69
4.07
13.08
21.02
27.66
33.00
37.18
40.36
42.67
44.16
44.87
44.91
44.51
43.99
43.68
43.77
44.21
44.78
45.09
44.84
43.85
42.11
39.74
36.92
33.77
30.34
26.59
22.46
17.93
13.05
7.90
2.61
-2.75
-8.12
-13.44
-18.70
-23.90
-29.12
-34.53
-40.35
-46.75
-53.70
-60.78
-67.23
-72.06
-74.32
-73.43
-69.33
-62.49
-53.66
-43.68
-33.23
-22.78
-12.60
-2.96
5.88
13.63
20.08
25.19
29.06
31.97
34.19
35.95
37.38
38.52
39.39
40.06
40.63
41.23
41.96
42.77
43.47
43.81
43.54
42.55
40.89
38.72
36.23
33.53
30.64
27.51
24.13
20.55
16.85
13.09
9.22
5.12
0.70
-4.06
-8.96
-13.74
-18.22
-22.37
-26.41
-30.74
-35.77
-41.78
-48.81
-56.53
-64.29
-71.15
-76.05
-78.05
-76.56
-71.47
-63.20
-52.56
-40.53
-28.00
-15.72
-4.27
5.91
14.51
21.38
26.52
30.16
32.63
34.32
35.50
36.34
36.87
37.08
36.98
36.66
36.29
36.08
36.22
36.76
37.58
38.38
38.79
38.47
37.26
35.19
32.53
29.60
26.67
23.83
20.94
17.76
14.08
9.81
5.04
0.02
-4.96
-9.67
-14.02
-18.10
-22.18
-26.62
-31.75
-37.77
-44.60
-51.78
-58.52
-63.76
-66.47
-65.86
-61.64
-54.06
-43.90
-32.24
-20.20
-8.79
1.34
9.82
16.58
21.72
25.44
28.03
29.70
30.68
31.13
31.26
31.22
31.20
31.27
31.42
31.53
31.44
31.06
30.41
29.63
28.86
28.08
27.17
25.84
23.87
21.13
17.70
13.80
9.64
5.40
1.14
-3.15
-7.48
-11.84
-16.24
-20.76
-25.53
-30.77
-36.67
-43.14
-49.76
-55.72
-60.00
-61.62
-59.98
-54.96
-47.04
-37.06
-26.03
-14.92
-4.51
4.66
12.29
18.29
22.68
25.61
27.27
27.91
27.80
27.18
26.28
25.27
24.22
23.16
22.10
21.01
19.94
18.96
18.10
17.34
16.51
15.30
13.39
10.55
6.73
2.17
-2.70
-7.42
-11.69
-15.53
-19.26
-23.43
-28.55
-34.84
-42.07
-49.52
-56.09
-60.62
-62.16
-60.27
-55.05
-47.17
-37.56
-27.21
-16.94
-7.28
1.45
9.12
15.66
21.00
25.12
28.01
29.80
30.67
30.89
30.71
30.31
29.80
29.25
28.67
28.13
27.67
27.30
26.93
26.37
25.39
23.82
21.57
18.64
15.12
11.16
6.90
2.47
-2.02
-6.52
-11.10
-15.90
-21.12
-26.99
-33.63
-41.02
-48.83
-56.45
-62.91
-67.16
-68.27
-65.73
-59.63
-50.65
-39.76
-27.99
-16.22
-5.04
5.16
14.11
21.64
27.67
32.24
35.50
37.68
39.00
39.64
39.77
39.52
38.95
38.08
36.95
35.61
34.22
32.98
32.08
31.57
31.31
30.99
30.25
28.78
26.43
23.23
19.36
15.07
10.66
6.35
2.19
-1.92
-6.26
-11.13
-16.70
-22.88
-29.36
-35.75
-41.76
-47.34
-52.64
-57.79
-62.62
-66.49
-68.31
-66.87
-61.26
-51.44
-38.32
-23.75
-9.89
1.44
9.37
14.18
16.98
19.13
21.81
25.72
31.17
38.28
47.07
57.29
68.04
77.60
83.80
84.74
79.53
68.54
52.79
33.06
9.41
-18.46
-49.77
-81.23
-106.68
-118.61
-111.08
-82.59
-37.29
16.30
68.52
111.91
143.02
162.02
170.93
171.64
165.13
151.84
132.68
109.90
87.25
69.28
60.22
62.52
75.64
95.37
114.69
125.88
123.33
105.88
77.16
44.02
13.48
-9.71
-24.05
-30.46
-30.50
-25.18
-14.90
-0.30
16.77
33.17
45.58
51.84
52.05
48.49
44.64
43.59
46.89
54.07
63.17
71.78
78.13
81.59
82.66
82.34
81.54
80.61
