v1	v2	v3	v4	ts
0,000000	0,000000	0,000000	0,000000	2020-11-19T14:21:39:619
0,000000	0,000000	0,000000	0,000000	2020-11-19T14:21:39:643
0,000000	0,000000	0,000000	0,000000	2020-11-19T14:21:39:684
0,000000	0,000000	0,000000	0,000000	2020-11-19T14:21:39:724
0,000000	0,000000	0,000000	0,000000	2020-11-19T14:21:39:763
0,000000	0,000000	0,000000	0,000000	2020-11-19T14:21:39:803
0,000000	0,000000	0,000000	0,000000	2020-11-19T14:21:39:844
0,000000	0,000000	0,000000	0,000000	2020-11-19T14:21:39:884
0,000000	0,000000	0,000000	0,000000	2020-11-19T14:21:39:924
0,000000	0,000000	0,000000	0,000000	2020-11-19T14:21:39:965
0,000000	0,000000	0,000000	0,000000	2020-11-19T14:21:40:003
0,000000	0,000000	0,000000	0,000000	2020-11-19T14:21:40:044
0,000000	0,000000	0,000000	0,000000	2020-11-19T14:21:40:084
0,000000	0,000000	0,000000	0,000000	2020-11-19T14:21:40:124
0,000000	0,000000	0,000000	0,000000	2020-11-19T14:21:40:164
0,000000	0,000000	0,000000	0,000000	2020-11-19T14:21:40:204
0,000000	0,000000	0,000000	0,000000	2020-11-19T14:21:40:244
0,000000	0,000000	0,000000	0,000000	2020-11-19T14:21:40:284
0,000000	0,000000	0,000000	0,000000	2020-11-19T14:21:40:324
0,000000	0,000000	0,000000	0,000000	2020-11-19T14:21:40:364
0,000000	0,000000	0,000000	0,000000	2020-11-19T14:21:40:404
0,000000	0,000000	0,000000	0,000000	2020-11-19T14:21:40:446
0,000000	0,000000	0,000000	0,000000	2020-11-19T14:21:40:484
0,000000	0,000000	0,000000	0,000000	2020-11-19T14:21:40:524
0,000000	0,000000	0,000000	0,000000	2020-11-19T14:21:40:564
0,000000	0,000000	0,000000	0,000000	2020-11-19T14:21:40:606
0,000000	0,000000	0,000000	0,000000	2020-11-19T14:21:40:648
0,000000	0,000000	0,000000	0,000000	2020-11-19T14:21:40:692
0,000000	0,000000	0,000000	0,000000	2020-11-19T14:21:40:728
0,000000	0,000000	0,000000	0,000000	2020-11-19T14:21:40:768
0,000000	0,000000	0,000000	0,000000	2020-11-19T14:21:40:807
0,000000	0,000000	0,000000	0,000000	2020-11-19T14:21:40:848
0,000000	0,000000	0,000000	0,000000	2020-11-19T14:21:40:888
0,000000	0,000000	0,000000	0,000000	2020-11-19T14:21:40:930
0,000000	0,000000	0,000000	0,000000	2020-11-19T14:21:40:968
0,000000	0,000000	0,000000	0,000000	2020-11-19T14:21:41:008
0,000000	0,000000	0,000000	0,000000	2020-11-19T14:21:41:048
0,000000	0,000000	0,000000	0,000000	2020-11-19T14:21:41:088
0,000000	0,000000	0,000000	0,000000	2020-11-19T14:21:41:137
0,000000	0,000000	0,000000	0,000000	2020-11-19T14:21:41:189
0,000000	0,000000	0,000000	0,000000	2020-11-19T14:21:41:214
0,000000	0,000000	0,000000	0,000000	2020-11-19T14:21:41:248
0,000000	0,000000	0,000000	0,000000	2020-11-19T14:21:41:289
0,000000	0,000000	0,000000	0,000000	2020-11-19T14:21:41:328
0,000000	0,000000	0,000000	0,000000	2020-11-19T14:21:41:368
0,000000	0,000000	0,000000	0,000000	2020-11-19T14:21:41:409
0,000000	0,000000	0,000000	0,000000	2020-11-19T14:21:41:448
0,000000	0,000000	0,000000	0,000000	2020-11-19T14:21:41:488
0,000000	0,000000	0,000000	0,000000	2020-11-19T14:21:41:530
0,000000	0,000000	0,000000	0,000000	2020-11-19T14:21:41:568
0,000000	0,000000	0,000000	0,000000	2020-11-19T14:21:41:608
0,000000	0,000000	0,000000	0,000000	2020-11-19T14:21:41:649
0,000000	0,000000	0,000000	0,000000	2020-11-19T14:21:41:690
0,000000	0,000000	0,000000	0,000000	2020-11-19T14:21:41:729
0,000000	0,000000	0,000000	0,000000	2020-11-19T14:21:41:772
0,000000	0,000000	0,000000	0,000000	2020-11-19T14:21:41:809
0,000000	0,000000	0,000000	0,000000	2020-11-19T14:21:41:849
0,000000	0,000000	0,000000	0,000000	2020-11-19T14:21:41:891
0,000000	0,000000	0,000000	0,000000	2020-11-19T14:21:41:929
0,000000	0,000000	0,000000	0,000000	2020-11-19T14:21:41:969
0,000000	0,000000	0,000000	0,000000	2020-11-19T14:21:42:009
0,000000	0,000000	0,000000	0,000000	2020-11-19T14:21:42:049
0,000000	0,000000	0,000000	0,000000	2020-11-19T14:21:42:089
0,000000	0,000000	0,000000	0,000000	2020-11-19T14:21:42:132
0,000000	0,000000	0,000000	0,000000	2020-11-19T14:21:42:168
0,000000	0,000000	0,000000	0,000000	2020-11-19T14:21:42:209
0,000000	0,000000	0,000000	0,000000	2020-11-19T14:21:42:249
0,000000	0,000000	0,000000	0,000000	2020-11-19T14:21:42:289
0,000000	0,000000	0,000000	0,000000	2020-11-19T14:21:42:329
0,000000	0,000000	0,000000	0,000000	2020-11-19T14:21:42:370
0,000000	0,000000	0,000000	0,000000	2020-11-19T14:21:42:408
0,000000	0,000000	0,000000	0,000000	2020-11-19T14:21:42:449
0,000000	0,000000	0,000000	0,000000	2020-11-19T14:21:42:489
0,000000	0,000000	0,000000	0,000000	2020-11-19T14:21:42:529
0,000000	0,000000	0,000000	0,000000	2020-11-19T14:21:42:569
0,000000	0,000000	0,000000	0,000000	2020-11-19T14:21:42:611
0,000000	0,000000	0,000000	0,000000	2020-11-19T14:21:42:650
0,000000	0,000000	0,000000	0,000000	2020-11-19T14:21:42:690
0,000000	0,000000	0,000000	0,000000	2020-11-19T14:21:42:730
0,000000	0,000000	0,000000	0,000000	2020-11-19T14:21:42:789
0,000000	0,000000	0,000000	0,000000	2020-11-19T14:21:42:833
0,000000	0,000000	0,000000	0,000000	2020-11-19T14:21:42:853
0,000000	0,000000	0,000000	0,000000	2020-11-19T14:21:42:891
0,000000	0,000000	0,000000	0,000000	2020-11-19T14:21:42:930
0,000000	0,000000	0,000000	0,000000	2020-11-19T14:21:42:971
0,000000	0,000000	0,000000	0,000000	2020-11-19T14:21:43:010
0,000000	0,000000	0,000000	0,000000	2020-11-19T14:21:43:050
0,000000	0,000000	0,000000	0,000000	2020-11-19T14:21:43:092
0,000000	0,000000	0,000000	0,000000	2020-11-19T14:21:43:131
0,000000	0,000000	0,000000	0,000000	2020-11-19T14:21:43:171
0,000000	0,000000	0,000000	0,000000	2020-11-19T14:21:43:210
0,000000	0,000000	0,000000	0,000000	2020-11-19T14:21:43:251
0,000000	0,000000	0,000000	0,000000	2020-11-19T14:21:43:291
0,000000	0,000000	0,000000	0,000000	2020-11-19T14:21:43:333
0,000000	0,000000	0,000000	0,000000	2020-11-19T14:21:43:371
0,000000	0,000000	0,000000	0,000000	2020-11-19T14:21:43:411
0,000000	0,000000	0,000000	0,000000	2020-11-19T14:21:43:451
0,000000	0,000000	0,000000	0,000000	2020-11-19T14:21:43:491
0,000000	0,000000	0,000000	0,000000	2020-11-19T14:21:43:532
0,000000	0,000000	0,000000	0,000000	2020-11-19T14:21:43:573
0,000000	0,000000	0,000000	0,000000	2020-11-19T14:21:43:612
0,000000	0,000000	0,000000	0,000000	2020-11-19T14:21:43:652
0,000000	0,000000	0,000000	0,000000	2020-11-19T14:21:43:692
0,000000	0,000000	0,000000	0,000000	2020-11-19T14:21:43:732
0,000000	0,000000	0,000000	0,000000	2020-11-19T14:21:43:772
0,000000	0,000000	0,000000	0,000000	2020-11-19T14:21:43:813
0,000000	0,000000	0,000000	0,000000	2020-11-19T14:21:43:852
0,000000	0,000000	0,000000	0,000000	2020-11-19T14:21:43:892
0,000000	0,000000	0,000000	0,000000	2020-11-19T14:21:43:932
0,000000	0,000000	0,000000	0,000000	2020-11-19T14:21:43:972
0,000000	0,000000	0,000000	0,000000	2020-11-19T14:21:44:012
0,000000	0,000000	0,000000	0,000000	2020-11-19T14:21:44:053
0,000000	0,000000	0,000000	0,000000	2020-11-19T14:21:44:092
0,000000	0,000000	0,000000	0,000000	2020-11-19T14:21:44:132
0,000000	0,000000	0,000000	0,000000	2020-11-19T14:21:44:173
0,000000	0,000000	0,000000	0,000000	2020-11-19T14:21:44:212
0,000000	0,000000	0,000000	0,000000	2020-11-19T14:21:44:252
0,000000	0,000000	0,000000	0,000000	2020-11-19T14:21:44:294
0,000000	0,000000	0,000000	0,000000	2020-11-19T14:21:44:332
0,000000	0,000000	0,000000	0,000000	2020-11-19T14:21:44:372
0,000000	0,000000	0,000000	0,000000	2020-11-19T14:21:44:412
0,000000	0,000000	0,000000	0,000000	2020-11-19T14:21:44:452
0,000000	0,000000	0,000000	0,000000	2020-11-19T14:21:44:493
0,000000	0,000000	0,000000	0,000000	2020-11-19T14:21:44:534
0,000000	0,000000	0,000000	0,000000	2020-11-19T14:21:44:573
0,000000	0,000000	0,000000	0,000000	2020-11-19T14:21:44:613
0,000000	0,000000	0,000000	0,000000	2020-11-19T14:21:44:653
0,000000	0,000000	0,000000	0,000000	2020-11-19T14:21:44:693
0,000000	0,000000	0,000000	0,000000	2020-11-19T14:21:44:733
0,000000	0,000000	0,000000	0,000000	2020-11-19T14:21:44:774
0,000000	0,000000	0,000000	0,000000	2020-11-19T14:21:44:813
0,000000	0,000000	0,000000	0,000000	2020-11-19T14:21:44:854
0,000000	0,000000	0,000000	0,000000	2020-11-19T14:21:44:893
0,000000	0,000000	0,000000	0,000000	2020-11-19T14:21:44:933
0,000000	0,000000	0,000000	0,000000	2020-11-19T14:21:44:973
0,000000	0,000000	0,000000	0,000000	2020-11-19T14:21:45:013
0,000000	0,000000	0,000000	0,000000	2020-11-19T14:21:45:053
0,000000	0,000000	0,000000	0,000000	2020-11-19T14:21:45:094
0,000000	0,000000	0,000000	0,000000	2020-11-19T14:21:45:135
0,000000	0,000000	0,000000	0,000000	2020-11-19T14:21:45:173
0,000000	0,000000	0,000000	0,000000	2020-11-19T14:21:45:213
0,000000	0,000000	0,000000	0,000000	2020-11-19T14:21:45:254
0,000000	0,000000	0,000000	0,000000	2020-11-19T14:21:45:293
0,000000	0,000000	0,000000	0,000000	2020-11-19T14:21:45:333
0,000000	0,000000	0,000000	0,000000	2020-11-19T14:21:45:374
0,000000	0,000000	0,000000	0,000000	2020-11-19T14:21:45:413
0,000000	0,000000	0,000000	0,000000	2020-11-19T14:21:45:454
0,000000	0,000000	0,000000	0,000000	2020-11-19T14:21:45:495
0,000000	0,000000	0,000000	0,000000	2020-11-19T14:21:45:534
0,000000	0,000000	0,000000	0,000000	2020-11-19T14:21:45:574
0,000000	0,000000	0,000000	0,000000	2020-11-19T14:21:45:614
0,000000	0,000000	0,000000	0,000000	2020-11-19T14:21:45:654
0,000000	0,000000	0,000000	0,000000	2020-11-19T14:21:45:694
0,000000	0,000000	0,000000	0,000000	2020-11-19T14:21:45:736
0,000000	0,000000	0,000000	0,000000	2020-11-19T14:21:45:774
0,000000	0,000000	0,000000	0,000000	2020-11-19T14:21:45:815
0,000000	0,000000	0,000000	0,000000	2020-11-19T14:21:45:854
0,000000	0,000000	0,000000	0,000000	2020-11-19T14:21:45:895
0,000000	0,000000	0,000000	0,000000	2020-11-19T14:21:45:934
0,000000	0,000000	0,000000	0,000000	2020-11-19T14:21:45:976
0,000000	0,000000	0,000000	0,000000	2020-11-19T14:21:46:014
0,000000	0,000000	0,000000	0,000000	2020-11-19T14:21:46:055
0,000000	0,000000	0,000000	0,000000	2020-11-19T14:21:46:094
0,000000	0,000000	0,000000	0,000000	2020-11-19T14:21:46:135
0,000000	0,000000	0,000000	0,000000	2020-11-19T14:21:46:174
0,000000	0,000000	0,000000	0,000000	2020-11-19T14:21:46:216
0,000000	0,000000	0,000000	0,000000	2020-11-19T14:21:46:254
0,000000	0,000000	0,000000	0,000000	2020-11-19T14:21:46:295
0,000000	0,000000	0,000000	0,000000	2020-11-19T14:21:46:334
0,000000	0,000000	0,000000	0,000000	2020-11-19T14:21:46:375
0,000000	0,000000	0,000000	0,000000	2020-11-19T14:21:46:415
0,000000	0,000000	0,000000	0,000000	2020-11-19T14:21:46:458
0,000000	0,000000	0,000000	0,000000	2020-11-19T14:21:46:495
0,000000	0,000000	0,000000	0,000000	2020-11-19T14:21:46:536
0,000000	0,000000	0,000000	0,000000	2020-11-19T14:21:46:574
0,000000	0,000000	0,000000	0,000000	2020-11-19T14:21:46:615
0,000000	0,000000	0,000000	0,000000	2020-11-19T14:21:46:655
0,000000	0,000000	0,000000	0,000000	2020-11-19T14:21:46:697
0,000000	0,000000	0,000000	0,000000	2020-11-19T14:21:46:735
0,000000	0,000000	0,000000	0,000000	2020-11-19T14:21:46:776
0,000000	0,000000	0,000000	0,000000	2020-11-19T14:21:46:815
0,000000	0,000000	0,000000	0,000000	2020-11-19T14:21:46:856
0,000000	0,000000	0,000000	0,000000	2020-11-19T14:21:46:896
0,000000	0,000000	0,000000	0,000000	2020-11-19T14:21:46:938
0,000000	0,000000	0,000000	0,000000	2020-11-19T14:21:46:977
0,000000	0,000000	0,000000	0,000000	2020-11-19T14:21:47:016
0,000000	0,000000	0,000000	0,000000	2020-11-19T14:21:47:055
0,000000	0,000000	0,000000	0,000000	2020-11-19T14:21:47:096
0,000000	0,000000	0,000000	0,000000	2020-11-19T14:21:47:136
0,000000	0,000000	0,000000	0,000000	2020-11-19T14:21:47:177
0,000000	0,000000	0,000000	0,000000	2020-11-19T14:21:47:215
0,000000	0,000000	0,000000	0,000000	2020-11-19T14:21:47:256
0,000000	0,000000	0,000000	0,000000	2020-11-19T14:21:47:296
0,000000	0,000000	0,000000	0,000000	2020-11-19T14:21:47:336
0,000000	0,000000	0,000000	0,000000	2020-11-19T14:21:47:375
0,000000	0,000000	0,000000	0,000000	2020-11-19T14:21:47:418
0,000000	0,000000	0,000000	0,000000	2020-11-19T14:21:47:455
0,000000	0,000000	0,000000	0,000000	2020-11-19T14:21:47:497
0,000000	0,000000	0,000000	0,000000	2020-11-19T14:21:47:536
0,000000	0,000000	0,000000	0,000000	2020-11-19T14:21:47:576
0,000000	0,000000	0,000000	0,000000	2020-11-19T14:21:47:616
0,000000	0,000000	0,000000	0,000000	2020-11-19T14:21:47:658
0,000000	0,000000	0,000000	0,000000	2020-11-19T14:21:47:696
0,000000	0,000000	0,000000	0,000000	2020-11-19T14:21:47:737
0,000000	0,000000	0,000000	0,000000	2020-11-19T14:21:47:776
0,000000	0,000000	0,000000	0,000000	2020-11-19T14:21:47:817
0,000000	0,000000	0,000000	0,000000	2020-11-19T14:21:47:860
0,000000	0,000000	0,000000	0,000000	2020-11-19T14:21:47:898
0,000000	0,000000	0,000000	0,000000	2020-11-19T14:21:47:936
0,000000	0,000000	0,000000	0,000000	2020-11-19T14:21:47:978
0,000000	0,000000	0,000000	0,000000	2020-11-19T14:21:48:016
0,000000	0,000000	0,000000	0,000000	2020-11-19T14:21:48:057
0,000000	0,000000	0,000000	0,000000	2020-11-19T14:21:48:097
0,000000	0,000000	0,000000	0,000000	2020-11-19T14:21:48:138
0,000000	0,000000	0,000000	0,000000	2020-11-19T14:21:48:176
0,000000	0,000000	0,000000	0,000000	2020-11-19T14:21:48:217
0,000000	0,000000	0,000000	0,000000	2020-11-19T14:21:48:256
0,000000	0,000000	0,000000	0,000000	2020-11-19T14:21:48:298
0,000000	0,000000	0,000000	0,000000	2020-11-19T14:21:48:337
0,000000	0,000000	0,000000	0,000000	2020-11-19T14:21:48:379
0,000000	0,000000	0,000000	0,000000	2020-11-19T14:21:48:416
0,000000	0,000000	0,000000	0,000000	2020-11-19T14:21:48:457
0,000000	0,000000	0,000000	0,000000	2020-11-19T14:21:48:497
0,000000	0,000000	0,000000	0,000000	2020-11-19T14:21:48:538
0,000000	0,000000	0,000000	0,000000	2020-11-19T14:21:48:577
0,000000	0,000000	0,000000	0,000000	2020-11-19T14:21:48:619
0,000000	0,000000	0,000000	0,000000	2020-11-19T14:21:48:657
0,000000	0,000000	0,000000	0,000000	2020-11-19T14:21:48:698
0,000000	0,000000	0,000000	0,000000	2020-11-19T14:21:48:737
0,000000	0,000000	0,000000	0,000000	2020-11-19T14:21:48:777
0,000000	0,000000	0,000000	0,000000	2020-11-19T14:21:48:817
0,000000	0,000000	0,000000	0,000000	2020-11-19T14:21:48:859
0,000000	0,000000	0,000000	0,000000	2020-11-19T14:21:48:897
0,000000	0,000000	0,000000	0,000000	2020-11-19T14:21:48:938
0,000000	0,000000	0,000000	0,000000	2020-11-19T14:21:48:977
0,000000	0,000000	0,000000	0,000000	2020-11-19T14:21:49:018
0,000000	0,000000	0,000000	0,000000	2020-11-19T14:21:49:057
0,000000	0,000000	0,000000	0,000000	2020-11-19T14:21:49:100
0,000000	0,000000	0,000000	0,000000	2020-11-19T14:21:49:138
0,000000	0,000000	0,000000	0,000000	2020-11-19T14:21:49:178
0,000000	0,000000	0,000000	0,000000	2020-11-19T14:21:49:217
0,000000	0,000000	0,000000	0,000000	2020-11-19T14:21:49:258
0,000000	0,000000	0,000000	0,000000	2020-11-19T14:21:49:298
0,000000	0,000000	0,000000	0,000000	2020-11-19T14:21:49:339
0,000000	0,000000	0,000000	0,000000	2020-11-19T14:21:49:377
0,000000	0,000000	0,000000	0,000000	2020-11-19T14:21:49:418
0,000000	0,000000	0,000000	0,000000	2020-11-19T14:21:49:458
0,000000	0,000000	0,000000	0,000000	2020-11-19T14:21:49:498
0,000000	0,000000	0,000000	0,000000	2020-11-19T14:21:49:538
0,000000	0,000000	0,000000	0,000000	2020-11-19T14:21:49:580
0,000000	0,000000	0,000000	0,000000	2020-11-19T14:21:49:617
0,000000	0,000000	0,000000	0,000000	2020-11-19T14:21:49:658
0,000000	0,000000	0,000000	0,000000	2020-11-19T14:21:49:698
0,000000	0,000000	0,000000	0,000000	2020-11-19T14:21:49:739
0,000000	0,000000	0,000000	0,000000	2020-11-19T14:21:49:778
0,000000	0,000000	0,000000	0,000000	2020-11-19T14:21:49:820
0,000000	0,000000	0,000000	0,000000	2020-11-19T14:21:49:858
0,000000	0,000000	0,000000	0,000000	2020-11-19T14:21:49:899
0,000000	0,000000	0,000000	0,000000	2020-11-19T14:21:49:938
0,000000	0,000000	0,000000	0,000000	2020-11-19T14:21:49:979
0,000000	0,000000	0,000000	0,000000	2020-11-19T14:21:50:018
0,000000	0,000000	0,000000	0,000000	2020-11-19T14:21:50:060
0,000000	0,000000	0,000000	0,000000	2020-11-19T14:21:50:098
0,000000	0,000000	0,000000	0,000000	2020-11-19T14:21:50:139
0,000000	0,000000	0,000000	0,000000	2020-11-19T14:21:50:178
0,000000	0,000000	0,000000	0,000000	2020-11-19T14:21:50:219
0,000000	0,000000	0,000000	0,000000	2020-11-19T14:21:50:258
0,000000	0,000000	0,000000	0,000000	2020-11-19T14:21:50:300
0,000000	0,000000	0,000000	0,000000	2020-11-19T14:21:50:338
0,000000	0,000000	0,000000	0,000000	2020-11-19T14:21:50:379
0,000000	0,000000	0,000000	0,000000	2020-11-19T14:21:50:418
0,000000	0,000000	0,000000	0,000000	2020-11-19T14:21:50:459
0,000000	0,000000	0,000000	0,000000	2020-11-19T14:21:50:499
0,000000	0,000000	0,000000	0,000000	2020-11-19T14:21:50:541
0,000000	0,000000	0,000000	0,000000	2020-11-19T14:21:50:578
0,000000	0,000000	0,000000	0,000000	2020-11-19T14:21:50:619
0,000000	0,000000	0,000000	0,000000	2020-11-19T14:21:50:658
0,000000	0,000000	0,000000	0,000000	2020-11-19T14:21:50:700
0,000000	0,000000	0,000000	0,000000	2020-11-19T14:21:50:739
84,000000	0,000000	0,000000	0,000000	2020-11-19T14:21:50:781
84,000000	0,000000	0,000000	0,000000	2020-11-19T14:21:50:818
84,000000	0,000000	0,000000	0,000000	2020-11-19T14:21:50:858
84,000000	0,000000	0,000000	0,000000	2020-11-19T14:21:50:898
84,000000	0,000000	0,000000	0,000000	2020-11-19T14:21:50:939
84,000000	0,000000	0,000000	0,000000	2020-11-19T14:21:50:979
84,000000	0,000000	0,000000	0,000000	2020-11-19T14:21:51:020
84,000000	0,000000	0,000000	0,000000	2020-11-19T14:21:51:058
84,000000	0,000000	0,000000	0,000000	2020-11-19T14:21:51:098
84,000000	0,000000	0,000000	0,000000	2020-11-19T14:21:51:138
83,000000	0,000000	0,000000	0,000000	2020-11-19T14:21:51:178
83,000000	0,000000	0,000000	0,000000	2020-11-19T14:21:51:218
83,000000	0,000000	0,000000	0,000000	2020-11-19T14:21:51:260
84,000000	0,000000	0,000000	0,000000	2020-11-19T14:21:51:298
84,000000	0,000000	0,000000	0,000000	2020-11-19T14:21:51:338
83,000000	0,000000	0,000000	0,000000	2020-11-19T14:21:51:377
83,000000	0,000000	0,000000	0,000000	2020-11-19T14:21:51:418
84,000000	0,000000	0,000000	0,000000	2020-11-19T14:21:51:458
84,000000	0,000000	0,000000	0,000000	2020-11-19T14:21:51:500
83,000000	0,000000	0,000000	0,000000	2020-11-19T14:21:51:538
83,000000	0,000000	0,000000	0,000000	2020-11-19T14:21:51:578
83,000000	0,000000	0,000000	0,000000	2020-11-19T14:21:51:618
83,000000	0,000000	0,000000	0,000000	2020-11-19T14:21:51:658
83,000000	0,000000	0,000000	0,000000	2020-11-19T14:21:51:698
83,000000	0,000000	0,000000	0,000000	2020-11-19T14:21:51:739
83,000000	0,000000	0,000000	0,000000	2020-11-19T14:21:51:777
83,000000	0,000000	0,000000	0,000000	2020-11-19T14:21:51:818
83,000000	0,000000	0,000000	0,000000	2020-11-19T14:21:51:858
83,000000	0,000000	0,000000	0,000000	2020-11-19T14:21:51:898
83,000000	0,000000	0,000000	0,000000	2020-11-19T14:21:51:938
83,000000	0,000000	0,000000	0,000000	2020-11-19T14:21:51:980
83,000000	0,000000	0,000000	0,000000	2020-11-19T14:21:52:018
83,000000	0,000000	0,000000	0,000000	2020-11-19T14:21:52:058
83,000000	0,000000	0,000000	0,000000	2020-11-19T14:21:52:111
83,000000	0,000000	0,000000	0,000000	2020-11-19T14:21:52:141
83,000000	0,000000	0,000000	0,000000	2020-11-19T14:21:52:177
83,000000	0,000000	0,000000	0,000000	2020-11-19T14:21:52:220
83,000000	0,000000	0,000000	0,000000	2020-11-19T14:21:52:259
83,000000	0,000000	0,000000	0,000000	2020-11-19T14:21:52:299
83,000000	0,000000	0,000000	0,000000	2020-11-19T14:21:52:339
83,000000	0,000000	0,000000	0,000000	2020-11-19T14:21:52:379
83,000000	0,000000	0,000000	0,000000	2020-11-19T14:21:52:419
83,000000	0,000000	0,000000	0,000000	2020-11-19T14:21:52:460
83,000000	0,000000	0,000000	0,000000	2020-11-19T14:21:52:499
83,000000	0,000000	0,000000	0,000000	2020-11-19T14:21:52:540
83,000000	0,000000	0,000000	0,000000	2020-11-19T14:21:52:579
83,000000	0,000000	0,000000	0,000000	2020-11-19T14:21:52:619
83,000000	0,000000	0,000000	0,000000	2020-11-19T14:21:52:659
83,000000	0,000000	707,000000	0,000000	2020-11-19T14:21:52:701
83,000000	0,000000	707,000000	0,000000	2020-11-19T14:21:52:739
83,000000	0,000000	707,000000	0,000000	2020-11-19T14:21:52:779
83,000000	0,000000	707,000000	0,000000	2020-11-19T14:21:52:819
83,000000	0,000000	707,000000	0,000000	2020-11-19T14:21:52:859
83,000000	0,000000	707,000000	0,000000	2020-11-19T14:21:52:904
83,000000	0,000000	707,000000	0,000000	2020-11-19T14:21:52:940
83,000000	0,000000	707,000000	0,000000	2020-11-19T14:21:52:979
83,000000	0,000000	707,000000	0,000000	2020-11-19T14:21:53:020
83,000000	0,000000	707,000000	0,000000	2020-11-19T14:21:53:059
83,000000	0,000000	707,000000	0,000000	2020-11-19T14:21:53:100
83,000000	0,000000	707,000000	0,000000	2020-11-19T14:21:53:140
83,000000	0,000000	707,000000	0,000000	2020-11-19T14:21:53:312
83,000000	0,000000	707,000000	0,000000	2020-11-19T14:21:53:313
83,000000	0,000000	707,000000	0,000000	2020-11-19T14:21:53:321
83,000000	0,000000	707,000000	0,000000	2020-11-19T14:21:53:322
83,000000	0,000000	707,000000	0,000000	2020-11-19T14:21:53:360
83,000000	0,000000	707,000000	0,000000	2020-11-19T14:21:53:426
83,000000	0,000000	707,000000	0,000000	2020-11-19T14:21:53:427
83,000000	0,000000	707,000000	0,000000	2020-11-19T14:21:53:457
83,000000	0,000000	707,000000	0,000000	2020-11-19T14:21:53:498
83,000000	0,000000	707,000000	0,000000	2020-11-19T14:21:53:549
83,000000	0,000000	707,000000	0,000000	2020-11-19T14:21:53:581
83,000000	0,000000	707,000000	0,000000	2020-11-19T14:21:53:619
83,000000	0,000000	729,000000	0,000000	2020-11-19T14:21:53:663
83,000000	0,000000	729,000000	0,000000	2020-11-19T14:21:53:700
83,000000	0,000000	729,000000	0,000000	2020-11-19T14:21:53:741
83,000000	0,000000	729,000000	0,000000	2020-11-19T14:21:53:780
83,000000	0,000000	729,000000	0,000000	2020-11-19T14:21:53:819
83,000000	0,000000	729,000000	0,000000	2020-11-19T14:21:53:910
83,000000	0,000000	729,000000	0,000000	2020-11-19T14:21:53:911
83,000000	0,000000	729,000000	0,000000	2020-11-19T14:21:53:945
83,000000	0,000000	729,000000	0,000000	2020-11-19T14:21:53:981
83,000000	0,000000	729,000000	0,000000	2020-11-19T14:21:54:021
83,000000	0,000000	729,000000	0,000000	2020-11-19T14:21:54:060
83,000000	0,000000	729,000000	0,000000	2020-11-19T14:21:54:101
83,000000	0,000000	729,000000	0,000000	2020-11-19T14:21:54:141
83,000000	0,000000	729,000000	0,000000	2020-11-19T14:21:54:180
83,000000	0,000000	729,000000	0,000000	2020-11-19T14:21:54:220
83,000000	0,000000	729,000000	0,000000	2020-11-19T14:21:54:260
83,000000	0,000000	729,000000	0,000000	2020-11-19T14:21:54:301
83,000000	0,000000	729,000000	0,000000	2020-11-19T14:21:54:341
83,000000	0,000000	761,000000	0,000000	2020-11-19T14:21:54:383
83,000000	0,000000	761,000000	0,000000	2020-11-19T14:21:54:420
83,000000	0,000000	761,000000	0,000000	2020-11-19T14:21:54:461
83,000000	0,000000	761,000000	0,000000	2020-11-19T14:21:54:500
83,000000	0,000000	761,000000	0,000000	2020-11-19T14:21:54:541
83,000000	0,000000	761,000000	0,000000	2020-11-19T14:21:54:582
83,000000	0,000000	761,000000	0,000000	2020-11-19T14:21:54:623
83,000000	0,000000	761,000000	0,000000	2020-11-19T14:21:54:662
83,000000	0,000000	761,000000	0,000000	2020-11-19T14:21:54:701
83,000000	0,000000	761,000000	0,000000	2020-11-19T14:21:54:741
83,000000	0,000000	761,000000	0,000000	2020-11-19T14:21:54:781
83,000000	0,000000	761,000000	0,000000	2020-11-19T14:21:54:821
83,000000	0,000000	761,000000	0,000000	2020-11-19T14:21:54:863
83,000000	0,000000	761,000000	0,000000	2020-11-19T14:21:54:901
83,000000	0,000000	761,000000	0,000000	2020-11-19T14:21:54:942
83,000000	0,000000	761,000000	0,000000	2020-11-19T14:21:54:982
83,000000	0,000000	761,000000	0,000000	2020-11-19T14:21:55:021
83,000000	0,000000	761,000000	0,000000	2020-11-19T14:21:55:061
83,000000	0,000000	758,000000	0,000000	2020-11-19T14:21:55:103
83,000000	0,000000	758,000000	0,000000	2020-11-19T14:21:55:142
83,000000	0,000000	758,000000	0,000000	2020-11-19T14:21:55:181
83,000000	0,000000	758,000000	0,000000	2020-11-19T14:21:55:221
83,000000	0,000000	758,000000	0,000000	2020-11-19T14:21:55:261
83,000000	0,000000	758,000000	0,000000	2020-11-19T14:21:55:301
83,000000	0,000000	758,000000	0,000000	2020-11-19T14:21:55:343
83,000000	0,000000	758,000000	0,000000	2020-11-19T14:21:55:381
83,000000	0,000000	758,000000	0,000000	2020-11-19T14:21:55:422
83,000000	0,000000	758,000000	0,000000	2020-11-19T14:21:55:462
83,000000	0,000000	758,000000	0,000000	2020-11-19T14:21:55:501
83,000000	0,000000	758,000000	0,000000	2020-11-19T14:21:55:542
83,000000	0,000000	758,000000	0,000000	2020-11-19T14:21:55:583
83,000000	0,000000	758,000000	0,000000	2020-11-19T14:21:55:621
83,000000	0,000000	758,000000	0,000000	2020-11-19T14:21:55:662
83,000000	0,000000	758,000000	0,000000	2020-11-19T14:21:55:702
83,000000	0,000000	758,000000	0,000000	2020-11-19T14:21:55:742
83,000000	0,000000	758,000000	0,000000	2020-11-19T14:21:55:782
83,000000	0,000000	782,000000	0,000000	2020-11-19T14:21:55:823
83,000000	0,000000	782,000000	0,000000	2020-11-19T14:21:55:862
83,000000	0,000000	782,000000	0,000000	2020-11-19T14:21:55:903
83,000000	0,000000	782,000000	0,000000	2020-11-19T14:21:55:942
83,000000	0,000000	782,000000	0,000000	2020-11-19T14:21:55:982
83,000000	0,000000	782,000000	0,000000	2020-11-19T14:21:56:022
83,000000	0,000000	782,000000	0,000000	2020-11-19T14:21:56:063
83,000000	0,000000	782,000000	0,000000	2020-11-19T14:21:56:102
83,000000	0,000000	782,000000	0,000000	2020-11-19T14:21:56:143
83,000000	0,000000	782,000000	0,000000	2020-11-19T14:21:56:182
83,000000	0,000000	782,000000	0,000000	2020-11-19T14:21:56:222
83,000000	0,000000	782,000000	0,000000	2020-11-19T14:21:56:262
83,000000	0,000000	782,000000	0,000000	2020-11-19T14:21:56:304
83,000000	0,000000	782,000000	0,000000	2020-11-19T14:21:56:343
83,000000	0,000000	782,000000	0,000000	2020-11-19T14:21:56:383
83,000000	0,000000	782,000000	0,000000	2020-11-19T14:21:56:422
82,000000	0,000000	782,000000	0,000000	2020-11-19T14:21:56:462
82,000000	0,000000	782,000000	0,000000	2020-11-19T14:21:56:503
83,000000	0,000000	755,000000	0,000000	2020-11-19T14:21:56:545
83,000000	0,000000	755,000000	0,000000	2020-11-19T14:21:56:582
82,000000	0,000000	755,000000	0,000000	2020-11-19T14:21:56:623
82,000000	0,000000	755,000000	0,000000	2020-11-19T14:21:56:663
82,000000	0,000000	755,000000	0,000000	2020-11-19T14:21:56:703
83,000000	0,000000	755,000000	0,000000	2020-11-19T14:21:56:743
82,000000	0,000000	755,000000	0,000000	2020-11-19T14:21:56:784
82,000000	0,000000	755,000000	0,000000	2020-11-19T14:21:56:823
82,000000	0,000000	755,000000	0,000000	2020-11-19T14:21:56:863
82,000000	0,000000	755,000000	0,000000	2020-11-19T14:21:56:903
82,000000	0,000000	755,000000	0,000000	2020-11-19T14:21:56:943
82,000000	0,000000	755,000000	0,000000	2020-11-19T14:21:56:983
82,000000	0,000000	755,000000	0,000000	2020-11-19T14:21:57:024
82,000000	0,000000	755,000000	0,000000	2020-11-19T14:21:57:063
82,000000	0,000000	755,000000	0,000000	2020-11-19T14:21:57:103
82,000000	0,000000	755,000000	0,000000	2020-11-19T14:21:57:143
82,000000	0,000000	755,000000	0,000000	2020-11-19T14:21:57:183
82,000000	0,000000	755,000000	0,000000	2020-11-19T14:21:57:223
82,000000	0,000000	742,000000	0,000000	2020-11-19T14:21:57:265
82,000000	0,000000	742,000000	0,000000	2020-11-19T14:21:57:303
82,000000	0,000000	742,000000	0,000000	2020-11-19T14:21:57:343
82,000000	0,000000	742,000000	0,000000	2020-11-19T14:21:57:382
82,000000	0,000000	742,000000	0,000000	2020-11-19T14:21:57:423
82,000000	0,000000	742,000000	0,000000	2020-11-19T14:21:57:464
82,000000	0,000000	742,000000	0,000000	2020-11-19T14:21:57:504
82,000000	0,000000	742,000000	0,000000	2020-11-19T14:21:57:544
82,000000	0,000000	742,000000	0,000000	2020-11-19T14:21:57:584
82,000000	0,000000	742,000000	0,000000	2020-11-19T14:21:57:624
82,000000	0,000000	742,000000	0,000000	2020-11-19T14:21:57:664
82,000000	0,000000	742,000000	0,000000	2020-11-19T14:21:57:704
82,000000	0,000000	742,000000	0,000000	2020-11-19T14:21:57:746
82,000000	0,000000	742,000000	0,000000	2020-11-19T14:21:57:784
82,000000	0,000000	742,000000	0,000000	2020-11-19T14:21:57:824
82,000000	0,000000	742,000000	0,000000	2020-11-19T14:21:57:864
82,000000	0,000000	742,000000	0,000000	2020-11-19T14:21:57:904
82,000000	0,000000	742,000000	0,000000	2020-11-19T14:21:57:944
82,000000	0,000000	733,000000	0,000000	2020-11-19T14:21:57:986
82,000000	0,000000	733,000000	0,000000	2020-11-19T14:21:58:024
82,000000	0,000000	733,000000	0,000000	2020-11-19T14:21:58:064
82,000000	0,000000	733,000000	0,000000	2020-11-19T14:21:58:104
82,000000	0,000000	733,000000	0,000000	2020-11-19T14:21:58:144
82,000000	0,000000	733,000000	0,000000	2020-11-19T14:21:58:184
82,000000	0,000000	733,000000	0,000000	2020-11-19T14:21:58:225
82,000000	0,000000	733,000000	0,000000	2020-11-19T14:21:58:264
82,000000	0,000000	733,000000	0,000000	2020-11-19T14:21:58:305
82,000000	0,000000	733,000000	0,000000	2020-11-19T14:21:58:345
82,000000	0,000000	733,000000	0,000000	2020-11-19T14:21:58:384
82,000000	0,000000	733,000000	0,000000	2020-11-19T14:21:58:424
82,000000	0,000000	733,000000	0,000000	2020-11-19T14:21:58:466
82,000000	0,000000	733,000000	0,000000	2020-11-19T14:21:58:505
82,000000	0,000000	733,000000	0,000000	2020-11-19T14:21:58:545
82,000000	0,000000	733,000000	0,000000	2020-11-19T14:21:58:585
82,000000	0,000000	733,000000	0,000000	2020-11-19T14:21:58:624
82,000000	0,000000	733,000000	0,000000	2020-11-19T14:21:58:665
82,000000	0,000000	716,000000	0,000000	2020-11-19T14:21:58:706
82,000000	0,000000	716,000000	0,000000	2020-11-19T14:21:58:745
82,000000	0,000000	716,000000	0,000000	2020-11-19T14:21:58:785
82,000000	0,000000	716,000000	0,000000	2020-11-19T14:21:58:825
82,000000	0,000000	716,000000	0,000000	2020-11-19T14:21:58:865
82,000000	0,000000	716,000000	0,000000	2020-11-19T14:21:58:905
82,000000	0,000000	716,000000	0,000000	2020-11-19T14:21:58:951
82,000000	0,000000	716,000000	0,000000	2020-11-19T14:21:58:985
82,000000	0,000000	716,000000	0,000000	2020-11-19T14:21:59:025
82,000000	0,000000	716,000000	0,000000	2020-11-19T14:21:59:065
82,000000	0,000000	716,000000	0,000000	2020-11-19T14:21:59:105
82,000000	0,000000	716,000000	0,000000	2020-11-19T14:21:59:145
82,000000	0,000000	716,000000	0,000000	2020-11-19T14:21:59:187
82,000000	0,000000	716,000000	0,000000	2020-11-19T14:21:59:225
82,000000	0,000000	716,000000	0,000000	2020-11-19T14:21:59:265
82,000000	0,000000	716,000000	0,000000	2020-11-19T14:21:59:305
82,000000	0,000000	716,000000	0,000000	2020-11-19T14:21:59:345
82,000000	0,000000	716,000000	0,000000	2020-11-19T14:21:59:386
82,000000	0,000000	705,000000	0,000000	2020-11-19T14:21:59:427
82,000000	0,000000	705,000000	0,000000	2020-11-19T14:21:59:465
82,000000	0,000000	705,000000	0,000000	2020-11-19T14:21:59:506
82,000000	0,000000	705,000000	0,000000	2020-11-19T14:21:59:546
82,000000	0,000000	705,000000	0,000000	2020-11-19T14:21:59:586
82,000000	0,000000	705,000000	0,000000	2020-11-19T14:21:59:626
82,000000	0,000000	705,000000	0,000000	2020-11-19T14:21:59:667
82,000000	0,000000	705,000000	0,000000	2020-11-19T14:21:59:706
82,000000	0,000000	705,000000	0,000000	2020-11-19T14:21:59:746
82,000000	0,000000	705,000000	0,000000	2020-11-19T14:21:59:786
82,000000	0,000000	705,000000	0,000000	2020-11-19T14:21:59:826
82,000000	0,000000	705,000000	0,000000	2020-11-19T14:21:59:866
82,000000	0,000000	705,000000	0,000000	2020-11-19T14:21:59:907
82,000000	0,000000	705,000000	0,000000	2020-11-19T14:21:59:946
82,000000	0,000000	705,000000	0,000000	2020-11-19T14:21:59:986
82,000000	0,000000	705,000000	0,000000	2020-11-19T14:22:00:026
82,000000	0,000000	705,000000	0,000000	2020-11-19T14:22:00:066
82,000000	0,000000	705,000000	0,000000	2020-11-19T14:22:00:106
83,000000	0,000000	705,000000	0,000000	2020-11-19T14:22:00:148
83,000000	0,000000	705,000000	0,000000	2020-11-19T14:22:00:186
82,000000	0,000000	705,000000	0,000000	2020-11-19T14:22:00:226
82,000000	0,000000	705,000000	0,000000	2020-11-19T14:22:00:266
82,000000	0,000000	705,000000	0,000000	2020-11-19T14:22:00:306
82,000000	0,000000	705,000000	0,000000	2020-11-19T14:22:00:347
82,000000	0,000000	705,000000	0,000000	2020-11-19T14:22:00:388
82,000000	0,000000	705,000000	0,000000	2020-11-19T14:22:00:426
82,000000	0,000000	705,000000	0,000000	2020-11-19T14:22:00:466
82,000000	0,000000	705,000000	0,000000	2020-11-19T14:22:00:506
83,000000	0,000000	705,000000	0,000000	2020-11-19T14:22:00:547
83,000000	0,000000	705,000000	0,000000	2020-11-19T14:22:00:586
82,000000	0,000000	705,000000	0,000000	2020-11-19T14:22:00:628
82,000000	0,000000	705,000000	0,000000	2020-11-19T14:22:00:667
83,000000	0,000000	705,000000	0,000000	2020-11-19T14:22:00:707
82,000000	0,000000	705,000000	0,000000	2020-11-19T14:22:00:746
83,000000	0,000000	705,000000	0,000000	2020-11-19T14:22:00:787
83,000000	0,000000	705,000000	0,000000	2020-11-19T14:22:00:827
83,000000	0,000000	709,000000	0,000000	2020-11-19T14:22:00:868
83,000000	0,000000	709,000000	0,000000	2020-11-19T14:22:00:907
83,000000	0,000000	709,000000	0,000000	2020-11-19T14:22:00:948
83,000000	0,000000	709,000000	0,000000	2020-11-19T14:22:00:987
83,000000	0,000000	709,000000	0,000000	2020-11-19T14:22:01:027
83,000000	0,000000	709,000000	0,000000	2020-11-19T14:22:01:067
83,000000	0,000000	709,000000	0,000000	2020-11-19T14:22:01:108
83,000000	0,000000	709,000000	0,000000	2020-11-19T14:22:01:147
83,000000	0,000000	709,000000	0,000000	2020-11-19T14:22:01:187
83,000000	0,000000	709,000000	0,000000	2020-11-19T14:22:01:227
83,000000	0,000000	709,000000	0,000000	2020-11-19T14:22:01:267
83,000000	0,000000	709,000000	0,000000	2020-11-19T14:22:01:308
83,000000	0,000000	709,000000	0,000000	2020-11-19T14:22:01:349
83,000000	0,000000	709,000000	0,000000	2020-11-19T14:22:01:387
83,000000	0,000000	709,000000	0,000000	2020-11-19T14:22:01:428
83,000000	0,000000	709,000000	0,000000	2020-11-19T14:22:01:467
83,000000	0,000000	709,000000	0,000000	2020-11-19T14:22:01:508
83,000000	0,000000	709,000000	0,000000	2020-11-19T14:22:01:548
83,000000	0,000000	701,000000	0,000000	2020-11-19T14:22:01:589
83,000000	0,000000	701,000000	0,000000	2020-11-19T14:22:01:628
83,000000	0,000000	701,000000	0,000000	2020-11-19T14:22:01:668
83,000000	0,000000	701,000000	0,000000	2020-11-19T14:22:01:708
83,000000	0,000000	701,000000	0,000000	2020-11-19T14:22:01:748
83,000000	0,000000	701,000000	0,000000	2020-11-19T14:22:01:788
83,000000	0,000000	701,000000	0,000000	2020-11-19T14:22:01:829
83,000000	0,000000	701,000000	0,000000	2020-11-19T14:22:01:868
83,000000	0,000000	701,000000	0,000000	2020-11-19T14:22:01:908
83,000000	0,000000	701,000000	0,000000	2020-11-19T14:22:01:948
83,000000	0,000000	701,000000	0,000000	2020-11-19T14:22:01:988
83,000000	0,000000	701,000000	0,000000	2020-11-19T14:22:02:028
83,000000	0,000000	701,000000	0,000000	2020-11-19T14:22:02:068
83,000000	0,000000	701,000000	0,000000	2020-11-19T14:22:02:108
83,000000	0,000000	701,000000	0,000000	2020-11-19T14:22:02:149
83,000000	0,000000	701,000000	0,000000	2020-11-19T14:22:02:188
84,000000	0,000000	701,000000	0,000000	2020-11-19T14:22:02:228
84,000000	0,000000	701,000000	0,000000	2020-11-19T14:22:02:268
84,000000	0,000000	755,000000	0,000000	2020-11-19T14:22:02:310
83,000000	0,000000	755,000000	0,000000	2020-11-19T14:22:02:351
83,000000	0,000000	755,000000	0,000000	2020-11-19T14:22:02:389
83,000000	0,000000	755,000000	0,000000	2020-11-19T14:22:02:428
83,000000	0,000000	755,000000	0,000000	2020-11-19T14:22:02:469
83,000000	0,000000	755,000000	0,000000	2020-11-19T14:22:02:509
83,000000	0,000000	755,000000	0,000000	2020-11-19T14:22:02:550
83,000000	0,000000	755,000000	0,000000	2020-11-19T14:22:02:588
84,000000	0,000000	755,000000	0,000000	2020-11-19T14:22:02:629
84,000000	0,000000	755,000000	0,000000	2020-11-19T14:22:02:669
83,000000	0,000000	755,000000	0,000000	2020-11-19T14:22:02:709
83,000000	0,000000	755,000000	0,000000	2020-11-19T14:22:02:749
83,000000	0,000000	755,000000	0,000000	2020-11-19T14:22:02:790
84,000000	0,000000	755,000000	0,000000	2020-11-19T14:22:02:829
83,000000	0,000000	755,000000	0,000000	2020-11-19T14:22:02:869
83,000000	0,000000	755,000000	0,000000	2020-11-19T14:22:02:909
84,000000	0,000000	755,000000	0,000000	2020-11-19T14:22:02:949
84,000000	0,000000	755,000000	0,000000	2020-11-19T14:22:02:989
84,000000	0,000000	736,000000	0,000000	2020-11-19T14:22:03:031
84,000000	0,000000	736,000000	0,000000	2020-11-19T14:22:03:069
84,000000	0,000000	736,000000	0,000000	2020-11-19T14:22:03:109
84,000000	0,000000	736,000000	0,000000	2020-11-19T14:22:03:149
84,000000	0,000000	736,000000	0,000000	2020-11-19T14:22:03:189
84,000000	0,000000	736,000000	0,000000	2020-11-19T14:22:03:251
84,000000	0,000000	736,000000	0,000000	2020-11-19T14:22:03:272
84,000000	0,000000	736,000000	0,000000	2020-11-19T14:22:03:309
84,000000	0,000000	736,000000	0,000000	2020-11-19T14:22:03:350
84,000000	0,000000	736,000000	0,000000	2020-11-19T14:22:03:389
84,000000	0,000000	736,000000	0,000000	2020-11-19T14:22:03:430
84,000000	0,000000	736,000000	0,000000	2020-11-19T14:22:03:470
84,000000	0,000000	736,000000	0,000000	2020-11-19T14:22:03:511
84,000000	0,000000	736,000000	0,000000	2020-11-19T14:22:03:550
84,000000	0,000000	736,000000	0,000000	2020-11-19T14:22:03:590
84,000000	0,000000	736,000000	0,000000	2020-11-19T14:22:03:629
84,000000	0,000000	736,000000	0,000000	2020-11-19T14:22:03:669
84,000000	0,000000	736,000000	0,000000	2020-11-19T14:22:03:709
84,000000	0,000000	657,000000	0,000000	2020-11-19T14:22:03:752
84,000000	0,000000	657,000000	0,000000	2020-11-19T14:22:03:789
84,000000	0,000000	657,000000	0,000000	2020-11-19T14:22:03:829
84,000000	0,000000	657,000000	0,000000	2020-11-19T14:22:03:871
84,000000	0,000000	657,000000	0,000000	2020-11-19T14:22:03:910
84,000000	0,000000	657,000000	0,000000	2020-11-19T14:22:03:956
84,000000	0,000000	657,000000	0,000000	2020-11-19T14:22:03:992
84,000000	0,000000	657,000000	0,000000	2020-11-19T14:22:04:031
84,000000	0,000000	657,000000	0,000000	2020-11-19T14:22:04:071
84,000000	0,000000	657,000000	0,000000	2020-11-19T14:22:04:111
84,000000	0,000000	657,000000	0,000000	2020-11-19T14:22:04:150
84,000000	0,000000	657,000000	0,000000	2020-11-19T14:22:04:191
84,000000	0,000000	657,000000	0,000000	2020-11-19T14:22:04:231
84,000000	0,000000	657,000000	0,000000	2020-11-19T14:22:04:271
84,000000	0,000000	657,000000	0,000000	2020-11-19T14:22:04:311
84,000000	0,000000	657,000000	0,000000	2020-11-19T14:22:04:351
84,000000	0,000000	657,000000	0,000000	2020-11-19T14:22:04:390
84,000000	0,000000	657,000000	0,000000	2020-11-19T14:22:04:431
84,000000	0,000000	796,000000	0,000000	2020-11-19T14:22:04:472
84,000000	0,000000	796,000000	0,000000	2020-11-19T14:22:04:511
84,000000	0,000000	796,000000	0,000000	2020-11-19T14:22:04:551
84,000000	0,000000	796,000000	0,000000	2020-11-19T14:22:04:592
84,000000	0,000000	796,000000	0,000000	2020-11-19T14:22:04:630
84,000000	0,000000	796,000000	0,000000	2020-11-19T14:22:04:671
84,000000	0,000000	796,000000	0,000000	2020-11-19T14:22:04:712
84,000000	0,000000	796,000000	0,000000	2020-11-19T14:22:04:752
84,000000	0,000000	796,000000	0,000000	2020-11-19T14:22:04:791
84,000000	0,000000	796,000000	0,000000	2020-11-19T14:22:04:834
84,000000	0,000000	796,000000	0,000000	2020-11-19T14:22:04:871
84,000000	0,000000	796,000000	0,000000	2020-11-19T14:22:04:912
84,000000	0,000000	796,000000	0,000000	2020-11-19T14:22:04:953
84,000000	0,000000	796,000000	0,000000	2020-11-19T14:22:04:992
84,000000	0,000000	796,000000	0,000000	2020-11-19T14:22:05:031
84,000000	0,000000	796,000000	0,000000	2020-11-19T14:22:05:072
84,000000	0,000000	796,000000	0,000000	2020-11-19T14:22:05:111
84,000000	0,000000	796,000000	0,000000	2020-11-19T14:22:05:153
84,000000	0,000000	665,000000	0,000000	2020-11-19T14:22:05:192
84,000000	0,000000	665,000000	0,000000	2020-11-19T14:22:05:232
84,000000	0,000000	665,000000	0,000000	2020-11-19T14:22:05:271
84,000000	0,000000	665,000000	0,000000	2020-11-19T14:22:05:312
84,000000	0,000000	665,000000	0,000000	2020-11-19T14:22:05:352
84,000000	0,000000	665,000000	0,000000	2020-11-19T14:22:05:393
84,000000	0,000000	665,000000	0,000000	2020-11-19T14:22:05:433
84,000000	0,000000	665,000000	0,000000	2020-11-19T14:22:05:473
84,000000	0,000000	665,000000	0,000000	2020-11-19T14:22:05:512
84,000000	0,000000	665,000000	0,000000	2020-11-19T14:22:05:553
84,000000	0,000000	665,000000	0,000000	2020-11-19T14:22:05:592
84,000000	0,000000	665,000000	0,000000	2020-11-19T14:22:05:633
84,000000	0,000000	665,000000	0,000000	2020-11-19T14:22:05:672
84,000000	0,000000	665,000000	0,000000	2020-11-19T14:22:05:713
84,000000	0,000000	665,000000	0,000000	2020-11-19T14:22:05:752
84,000000	0,000000	665,000000	0,000000	2020-11-19T14:22:05:793
84,000000	0,000000	665,000000	0,000000	2020-11-19T14:22:05:833
84,000000	0,000000	665,000000	0,000000	2020-11-19T14:22:05:873
84,000000	0,000000	695,000000	0,000000	2020-11-19T14:22:05:914
84,000000	0,000000	695,000000	0,000000	2020-11-19T14:22:05:953
84,000000	0,000000	695,000000	0,000000	2020-11-19T14:22:05:992
84,000000	0,000000	695,000000	0,000000	2020-11-19T14:22:06:033
84,000000	0,000000	695,000000	0,000000	2020-11-19T14:22:06:072
84,000000	0,000000	695,000000	0,000000	2020-11-19T14:22:06:113
84,000000	0,000000	695,000000	0,000000	2020-11-19T14:22:06:154
84,000000	0,000000	695,000000	0,000000	2020-11-19T14:22:06:193
84,000000	0,000000	695,000000	0,000000	2020-11-19T14:22:06:232
84,000000	0,000000	695,000000	0,000000	2020-11-19T14:22:06:274
84,000000	0,000000	695,000000	0,000000	2020-11-19T14:22:06:312
84,000000	0,000000	695,000000	0,000000	2020-11-19T14:22:06:354
84,000000	0,000000	695,000000	0,000000	2020-11-19T14:22:06:394
84,000000	0,000000	695,000000	0,000000	2020-11-19T14:22:06:434
84,000000	0,000000	695,000000	0,000000	2020-11-19T14:22:06:473
84,000000	0,000000	695,000000	0,000000	2020-11-19T14:22:06:514
84,000000	0,000000	695,000000	0,000000	2020-11-19T14:22:06:553
84,000000	0,000000	695,000000	0,000000	2020-11-19T14:22:06:594
84,000000	0,000000	783,000000	0,000000	2020-11-19T14:22:06:634
84,000000	0,000000	783,000000	0,000000	2020-11-19T14:22:06:674
84,000000	0,000000	783,000000	0,000000	2020-11-19T14:22:06:713
84,000000	0,000000	783,000000	0,000000	2020-11-19T14:22:06:754
84,000000	0,000000	783,000000	0,000000	2020-11-19T14:22:06:793
84,000000	0,000000	783,000000	0,000000	2020-11-19T14:22:06:835
84,000000	0,000000	783,000000	0,000000	2020-11-19T14:22:06:875
84,000000	0,000000	783,000000	0,000000	2020-11-19T14:22:06:914
84,000000	0,000000	783,000000	0,000000	2020-11-19T14:22:06:954
84,000000	0,000000	783,000000	0,000000	2020-11-19T14:22:06:994
84,000000	0,000000	783,000000	0,000000	2020-11-19T14:22:07:034
84,000000	0,000000	783,000000	0,000000	2020-11-19T14:22:07:075
84,000000	0,000000	783,000000	0,000000	2020-11-19T14:22:07:115
84,000000	0,000000	783,000000	0,000000	2020-11-19T14:22:07:155
84,000000	0,000000	783,000000	0,000000	2020-11-19T14:22:07:193
84,000000	0,000000	783,000000	0,000000	2020-11-19T14:22:07:234
84,000000	0,000000	783,000000	0,000000	2020-11-19T14:22:07:273
84,000000	0,000000	783,000000	0,000000	2020-11-19T14:22:07:315
84,000000	0,000000	712,000000	0,000000	2020-11-19T14:22:07:356
84,000000	0,000000	712,000000	0,000000	2020-11-19T14:22:07:394
84,000000	0,000000	712,000000	0,000000	2020-11-19T14:22:07:434
84,000000	0,000000	712,000000	0,000000	2020-11-19T14:22:07:475
84,000000	0,000000	712,000000	0,000000	2020-11-19T14:22:07:514
84,000000	0,000000	712,000000	0,000000	2020-11-19T14:22:07:555
84,000000	0,000000	712,000000	0,000000	2020-11-19T14:22:07:596
84,000000	0,000000	712,000000	0,000000	2020-11-19T14:22:07:635
84,000000	0,000000	712,000000	0,000000	2020-11-19T14:22:07:674
84,000000	0,000000	712,000000	0,000000	2020-11-19T14:22:07:715
84,000000	0,000000	712,000000	0,000000	2020-11-19T14:22:07:754
84,000000	0,000000	712,000000	0,000000	2020-11-19T14:22:07:795
84,000000	0,000000	712,000000	0,000000	2020-11-19T14:22:07:834
84,000000	0,000000	712,000000	0,000000	2020-11-19T14:22:07:875
84,000000	0,000000	712,000000	0,000000	2020-11-19T14:22:07:914
84,000000	0,000000	712,000000	0,000000	2020-11-19T14:22:07:955
84,000000	0,000000	712,000000	0,000000	2020-11-19T14:22:07:994
84,000000	0,000000	712,000000	0,000000	2020-11-19T14:22:08:035
84,000000	0,000000	682,000000	0,000000	2020-11-19T14:22:08:076
84,000000	0,000000	682,000000	0,000000	2020-11-19T14:22:08:115
84,000000	0,000000	682,000000	0,000000	2020-11-19T14:22:08:155
84,000000	0,000000	682,000000	0,000000	2020-11-19T14:22:08:195
84,000000	0,000000	682,000000	0,000000	2020-11-19T14:22:08:234
84,000000	0,000000	682,000000	0,000000	2020-11-19T14:22:08:275
84,000000	0,000000	682,000000	0,000000	2020-11-19T14:22:08:316
84,000000	0,000000	682,000000	0,000000	2020-11-19T14:22:08:356
84,000000	0,000000	682,000000	0,000000	2020-11-19T14:22:08:394
84,000000	0,000000	682,000000	0,000000	2020-11-19T14:22:08:436
84,000000	0,000000	682,000000	0,000000	2020-11-19T14:22:08:474
84,000000	0,000000	682,000000	0,000000	2020-11-19T14:22:08:516
84,000000	0,000000	682,000000	0,000000	2020-11-19T14:22:08:556
84,000000	0,000000	682,000000	0,000000	2020-11-19T14:22:08:596
84,000000	0,000000	682,000000	0,000000	2020-11-19T14:22:08:635
84,000000	0,000000	682,000000	0,000000	2020-11-19T14:22:08:676
84,000000	0,000000	682,000000	0,000000	2020-11-19T14:22:08:715
84,000000	0,000000	682,000000	0,000000	2020-11-19T14:22:08:756
84,000000	0,000000	666,000000	0,000000	2020-11-19T14:22:08:795
84,000000	0,000000	666,000000	0,000000	2020-11-19T14:22:08:836
84,000000	0,000000	666,000000	0,000000	2020-11-19T14:22:08:875
84,000000	0,000000	666,000000	0,000000	2020-11-19T14:22:08:916
84,000000	0,000000	666,000000	0,000000	2020-11-19T14:22:08:960
85,000000	0,000000	666,000000	0,000000	2020-11-19T14:22:08:997
84,000000	0,000000	666,000000	0,000000	2020-11-19T14:22:09:037
84,000000	0,000000	666,000000	0,000000	2020-11-19T14:22:09:076
84,000000	0,000000	666,000000	0,000000	2020-11-19T14:22:09:115
84,000000	0,000000	666,000000	0,000000	2020-11-19T14:22:09:156
84,000000	0,000000	666,000000	0,000000	2020-11-19T14:22:09:195
84,000000	0,000000	666,000000	0,000000	2020-11-19T14:22:09:236
84,000000	0,000000	669,000000	0,000000	2020-11-19T14:22:09:276
85,000000	0,000000	669,000000	0,000000	2020-11-19T14:22:09:317
85,000000	0,000000	669,000000	0,000000	2020-11-19T14:22:09:356
85,000000	0,000000	669,000000	0,000000	2020-11-19T14:22:09:397
85,000000	0,000000	669,000000	0,000000	2020-11-19T14:22:09:436
85,000000	0,000000	669,000000	0,000000	2020-11-19T14:22:09:477
85,000000	0,000000	669,000000	0,000000	2020-11-19T14:22:09:517
85,000000	0,000000	669,000000	0,000000	2020-11-19T14:22:09:557
85,000000	0,000000	669,000000	0,000000	2020-11-19T14:22:09:597
85,000000	0,000000	669,000000	0,000000	2020-11-19T14:22:09:637
85,000000	0,000000	669,000000	0,000000	2020-11-19T14:22:09:676
85,000000	0,000000	669,000000	0,000000	2020-11-19T14:22:09:716
85,000000	0,000000	669,000000	0,000000	2020-11-19T14:22:09:758
85,000000	0,000000	669,000000	0,000000	2020-11-19T14:22:09:797
85,000000	0,000000	669,000000	0,000000	2020-11-19T14:22:09:836
85,000000	0,000000	669,000000	0,000000	2020-11-19T14:22:09:877
85,000000	0,000000	669,000000	0,000000	2020-11-19T14:22:09:916
85,000000	0,000000	669,000000	0,000000	2020-11-19T14:22:09:957
85,000000	0,000000	674,000000	0,000000	2020-11-19T14:22:09:998
85,000000	0,000000	674,000000	0,000000	2020-11-19T14:22:10:038
85,000000	0,000000	674,000000	0,000000	2020-11-19T14:22:10:076
85,000000	0,000000	674,000000	0,000000	2020-11-19T14:22:10:117
85,000000	0,000000	674,000000	0,000000	2020-11-19T14:22:10:157
85,000000	0,000000	674,000000	0,000000	2020-11-19T14:22:10:197
85,000000	0,000000	674,000000	0,000000	2020-11-19T14:22:10:238
85,000000	0,000000	674,000000	0,000000	2020-11-19T14:22:10:278
85,000000	0,000000	674,000000	0,000000	2020-11-19T14:22:10:317
85,000000	0,000000	674,000000	0,000000	2020-11-19T14:22:10:358
85,000000	0,000000	674,000000	0,000000	2020-11-19T14:22:10:396
85,000000	0,000000	674,000000	0,000000	2020-11-19T14:22:10:438
85,000000	0,000000	674,000000	0,000000	2020-11-19T14:22:10:478
85,000000	0,000000	674,000000	0,000000	2020-11-19T14:22:10:518
85,000000	0,000000	674,000000	0,000000	2020-11-19T14:22:10:557
85,000000	0,000000	674,000000	0,000000	2020-11-19T14:22:10:598
85,000000	0,000000	674,000000	0,000000	2020-11-19T14:22:10:637
85,000000	0,000000	674,000000	0,000000	2020-11-19T14:22:10:678
85,000000	0,000000	685,000000	0,000000	2020-11-19T14:22:10:718
85,000000	0,000000	685,000000	0,000000	2020-11-19T14:22:10:758
85,000000	0,000000	685,000000	0,000000	2020-11-19T14:22:10:797
85,000000	0,000000	685,000000	0,000000	2020-11-19T14:22:10:838
85,000000	0,000000	685,000000	0,000000	2020-11-19T14:22:10:877
85,000000	0,000000	685,000000	0,000000	2020-11-19T14:22:10:918
85,000000	0,000000	685,000000	0,000000	2020-11-19T14:22:10:958
85,000000	0,000000	685,000000	0,000000	2020-11-19T14:22:10:998
85,000000	0,000000	685,000000	0,000000	2020-11-19T14:22:11:037
85,000000	0,000000	685,000000	0,000000	2020-11-19T14:22:11:078
85,000000	0,000000	685,000000	0,000000	2020-11-19T14:22:11:118
85,000000	0,000000	685,000000	0,000000	2020-11-19T14:22:11:159
85,000000	0,000000	685,000000	0,000000	2020-11-19T14:22:11:199
85,000000	0,000000	685,000000	0,000000	2020-11-19T14:22:11:238
85,000000	0,000000	685,000000	0,000000	2020-11-19T14:22:11:278
85,000000	0,000000	685,000000	0,000000	2020-11-19T14:22:11:318
85,000000	0,000000	685,000000	0,000000	2020-11-19T14:22:11:358
85,000000	0,000000	685,000000	0,000000	2020-11-19T14:22:11:399
85,000000	0,000000	718,000000	0,000000	2020-11-19T14:22:11:439
85,000000	0,000000	718,000000	0,000000	2020-11-19T14:22:11:479
85,000000	0,000000	718,000000	0,000000	2020-11-19T14:22:11:518
85,000000	0,000000	718,000000	0,000000	2020-11-19T14:22:11:559
85,000000	0,000000	718,000000	0,000000	2020-11-19T14:22:11:598
85,000000	0,000000	718,000000	0,000000	2020-11-19T14:22:11:639
85,000000	0,000000	718,000000	0,000000	2020-11-19T14:22:11:678
85,000000	0,000000	718,000000	0,000000	2020-11-19T14:22:11:718
86,000000	0,000000	718,000000	0,000000	2020-11-19T14:22:11:758
85,000000	0,000000	718,000000	0,000000	2020-11-19T14:22:11:799
85,000000	0,000000	718,000000	0,000000	2020-11-19T14:22:11:838
85,000000	0,000000	718,000000	0,000000	2020-11-19T14:22:11:879
85,000000	0,000000	718,000000	0,000000	2020-11-19T14:22:11:919
85,000000	0,000000	718,000000	0,000000	2020-11-19T14:22:11:959
85,000000	0,000000	718,000000	0,000000	2020-11-19T14:22:11:998
85,000000	0,000000	718,000000	0,000000	2020-11-19T14:22:12:039
85,000000	0,000000	718,000000	0,000000	2020-11-19T14:22:12:078
85,000000	0,000000	718,000000	0,000000	2020-11-19T14:22:12:119
85,000000	0,000000	744,000000	0,000000	2020-11-19T14:22:12:160
85,000000	0,000000	744,000000	0,000000	2020-11-19T14:22:12:199
85,000000	0,000000	744,000000	0,000000	2020-11-19T14:22:12:238
85,000000	0,000000	744,000000	0,000000	2020-11-19T14:22:12:279
85,000000	0,000000	744,000000	0,000000	2020-11-19T14:22:12:318
85,000000	0,000000	744,000000	0,000000	2020-11-19T14:22:12:360
85,000000	0,000000	744,000000	0,000000	2020-11-19T14:22:12:401
85,000000	0,000000	744,000000	0,000000	2020-11-19T14:22:12:439
85,000000	0,000000	744,000000	0,000000	2020-11-19T14:22:12:478
85,000000	0,000000	744,000000	0,000000	2020-11-19T14:22:12:520
85,000000	0,000000	744,000000	0,000000	2020-11-19T14:22:12:559
85,000000	0,000000	744,000000	0,000000	2020-11-19T14:22:12:600
85,000000	0,000000	744,000000	0,000000	2020-11-19T14:22:12:639
85,000000	0,000000	744,000000	0,000000	2020-11-19T14:22:12:680
85,000000	0,000000	744,000000	0,000000	2020-11-19T14:22:12:719
85,000000	0,000000	744,000000	0,000000	2020-11-19T14:22:12:760
85,000000	0,000000	744,000000	0,000000	2020-11-19T14:22:12:799
85,000000	0,000000	744,000000	0,000000	2020-11-19T14:22:12:840
85,000000	0,000000	744,000000	0,000000	2020-11-19T14:22:12:880
85,000000	0,000000	744,000000	0,000000	2020-11-19T14:22:12:920
85,000000	0,000000	744,000000	0,000000	2020-11-19T14:22:12:959
85,000000	0,000000	744,000000	0,000000	2020-11-19T14:22:13:000
85,000000	0,000000	744,000000	0,000000	2020-11-19T14:22:13:039
85,000000	0,000000	744,000000	0,000000	2020-11-19T14:22:13:080
85,000000	0,000000	735,000000	0,000000	2020-11-19T14:22:13:120
85,000000	0,000000	735,000000	0,000000	2020-11-19T14:22:13:161
85,000000	0,000000	735,000000	0,000000	2020-11-19T14:22:13:199
85,000000	0,000000	735,000000	0,000000	2020-11-19T14:22:13:240
85,000000	0,000000	735,000000	0,000000	2020-11-19T14:22:13:280
85,000000	0,000000	735,000000	0,000000	2020-11-19T14:22:13:320
85,000000	0,000000	735,000000	0,000000	2020-11-19T14:22:13:361
85,000000	0,000000	735,000000	0,000000	2020-11-19T14:22:13:400
85,000000	0,000000	735,000000	0,000000	2020-11-19T14:22:13:439
85,000000	0,000000	735,000000	0,000000	2020-11-19T14:22:13:518
85,000000	0,000000	735,000000	0,000000	2020-11-19T14:22:13:522
85,000000	0,000000	735,000000	0,000000	2020-11-19T14:22:13:561
85,000000	0,000000	735,000000	0,000000	2020-11-19T14:22:13:600
84,000000	0,000000	735,000000	0,000000	2020-11-19T14:22:13:641
85,000000	0,000000	735,000000	0,000000	2020-11-19T14:22:13:680
85,000000	0,000000	735,000000	0,000000	2020-11-19T14:22:13:721
85,000000	0,000000	735,000000	0,000000	2020-11-19T14:22:13:760
85,000000	0,000000	735,000000	0,000000	2020-11-19T14:22:13:801
85,000000	0,000000	804,000000	0,000000	2020-11-19T14:22:13:841
85,000000	0,000000	804,000000	0,000000	2020-11-19T14:22:13:881
84,000000	0,000000	804,000000	0,000000	2020-11-19T14:22:13:920
84,000000	0,000000	804,000000	0,000000	2020-11-19T14:22:13:986
84,000000	0,000000	804,000000	0,000000	2020-11-19T14:22:14:000
84,000000	0,000000	804,000000	0,000000	2020-11-19T14:22:14:058
84,000000	0,000000	804,000000	0,000000	2020-11-19T14:22:14:083
84,000000	0,000000	804,000000	0,000000	2020-11-19T14:22:14:259
84,000000	0,000000	804,000000	0,000000	2020-11-19T14:22:14:260
84,000000	0,000000	804,000000	0,000000	2020-11-19T14:22:14:262
84,000000	0,000000	804,000000	0,000000	2020-11-19T14:22:14:265
84,000000	0,000000	804,000000	0,000000	2020-11-19T14:22:14:323
84,000000	0,000000	804,000000	0,000000	2020-11-19T14:22:14:332
84,000000	0,000000	804,000000	0,000000	2020-11-19T14:22:14:360
84,000000	0,000000	804,000000	0,000000	2020-11-19T14:22:14:400
84,000000	0,000000	804,000000	0,000000	2020-11-19T14:22:14:442
84,000000	0,000000	804,000000	0,000000	2020-11-19T14:22:14:481
84,000000	0,000000	804,000000	0,000000	2020-11-19T14:22:14:521
84,000000	0,000000	806,000000	0,000000	2020-11-19T14:22:14:561
84,000000	0,000000	806,000000	0,000000	2020-11-19T14:22:14:605
84,000000	0,000000	806,000000	0,000000	2020-11-19T14:22:14:641
84,000000	0,000000	806,000000	0,000000	2020-11-19T14:22:14:681
84,000000	0,000000	806,000000	0,000000	2020-11-19T14:22:14:720
84,000000	0,000000	806,000000	0,000000	2020-11-19T14:22:14:762
84,000000	0,000000	806,000000	0,000000	2020-11-19T14:22:14:802
84,000000	0,000000	806,000000	0,000000	2020-11-19T14:22:14:842
84,000000	0,000000	806,000000	0,000000	2020-11-19T14:22:14:881
84,000000	0,000000	806,000000	0,000000	2020-11-19T14:22:14:922
84,000000	0,000000	806,000000	0,000000	2020-11-19T14:22:14:961
84,000000	0,000000	806,000000	0,000000	2020-11-19T14:22:15:002
84,000000	0,000000	806,000000	0,000000	2020-11-19T14:22:15:042
84,000000	0,000000	806,000000	0,000000	2020-11-19T14:22:15:082
84,000000	0,000000	806,000000	0,000000	2020-11-19T14:22:15:121
84,000000	0,000000	806,000000	0,000000	2020-11-19T14:22:15:162
84,000000	0,000000	806,000000	0,000000	2020-11-19T14:22:15:201
84,000000	0,000000	806,000000	0,000000	2020-11-19T14:22:15:242
84,000000	0,000000	745,000000	0,000000	2020-11-19T14:22:15:282
84,000000	0,000000	745,000000	0,000000	2020-11-19T14:22:15:322
84,000000	0,000000	745,000000	0,000000	2020-11-19T14:22:15:362
84,000000	0,000000	745,000000	0,000000	2020-11-19T14:22:15:402
84,000000	0,000000	745,000000	0,000000	2020-11-19T14:22:15:441
83,000000	0,000000	745,000000	0,000000	2020-11-19T14:22:15:482
83,000000	0,000000	745,000000	0,000000	2020-11-19T14:22:15:523
84,000000	0,000000	745,000000	0,000000	2020-11-19T14:22:15:562
84,000000	0,000000	745,000000	0,000000	2020-11-19T14:22:15:601
83,000000	0,000000	745,000000	0,000000	2020-11-19T14:22:15:642
83,000000	0,000000	745,000000	0,000000	2020-11-19T14:22:15:681
84,000000	0,000000	745,000000	0,000000	2020-11-19T14:22:15:722
84,000000	0,000000	745,000000	0,000000	2020-11-19T14:22:15:763
83,000000	0,000000	745,000000	0,000000	2020-11-19T14:22:15:802
83,000000	0,000000	745,000000	0,000000	2020-11-19T14:22:15:842
83,000000	0,000000	745,000000	0,000000	2020-11-19T14:22:15:883
83,000000	0,000000	745,000000	0,000000	2020-11-19T14:22:15:922
83,000000	0,000000	745,000000	0,000000	2020-11-19T14:22:15:963
83,000000	0,000000	727,000000	0,000000	2020-11-19T14:22:16:003
83,000000	0,000000	727,000000	0,000000	2020-11-19T14:22:16:043
83,000000	0,000000	727,000000	0,000000	2020-11-19T14:22:16:082
83,000000	0,000000	727,000000	0,000000	2020-11-19T14:22:16:123
83,000000	0,000000	727,000000	0,000000	2020-11-19T14:22:16:162
83,000000	0,000000	727,000000	0,000000	2020-11-19T14:22:16:203
83,000000	0,000000	727,000000	0,000000	2020-11-19T14:22:16:243
83,000000	0,000000	727,000000	0,000000	2020-11-19T14:22:16:283
83,000000	0,000000	727,000000	0,000000	2020-11-19T14:22:16:322
83,000000	0,000000	727,000000	0,000000	2020-11-19T14:22:16:364
83,000000	0,000000	727,000000	0,000000	2020-11-19T14:22:16:402
83,000000	0,000000	727,000000	0,000000	2020-11-19T14:22:16:443
83,000000	0,000000	727,000000	0,000000	2020-11-19T14:22:16:484
83,000000	0,000000	727,000000	0,000000	2020-11-19T14:22:16:523
83,000000	0,000000	727,000000	0,000000	2020-11-19T14:22:16:563
83,000000	0,000000	727,000000	0,000000	2020-11-19T14:22:16:603
83,000000	0,000000	727,000000	0,000000	2020-11-19T14:22:16:642
83,000000	0,000000	727,000000	0,000000	2020-11-19T14:22:16:684
83,000000	0,000000	765,000000	0,000000	2020-11-19T14:22:16:724
83,000000	0,000000	765,000000	0,000000	2020-11-19T14:22:16:764
83,000000	0,000000	765,000000	0,000000	2020-11-19T14:22:16:802
83,000000	0,000000	765,000000	0,000000	2020-11-19T14:22:16:844
83,000000	0,000000	765,000000	0,000000	2020-11-19T14:22:16:882
83,000000	0,000000	765,000000	0,000000	2020-11-19T14:22:16:924
83,000000	0,000000	765,000000	0,000000	2020-11-19T14:22:16:964
83,000000	0,000000	765,000000	0,000000	2020-11-19T14:22:17:004
83,000000	0,000000	765,000000	0,000000	2020-11-19T14:22:17:043
83,000000	0,000000	765,000000	0,000000	2020-11-19T14:22:17:084
83,000000	0,000000	765,000000	0,000000	2020-11-19T14:22:17:123
83,000000	0,000000	765,000000	0,000000	2020-11-19T14:22:17:164
83,000000	0,000000	765,000000	0,000000	2020-11-19T14:22:17:203
83,000000	0,000000	765,000000	0,000000	2020-11-19T14:22:17:244
83,000000	0,000000	765,000000	0,000000	2020-11-19T14:22:17:283
83,000000	0,000000	765,000000	0,000000	2020-11-19T14:22:17:324
82,000000	0,000000	765,000000	0,000000	2020-11-19T14:22:17:363
83,000000	0,000000	765,000000	0,000000	2020-11-19T14:22:17:404
83,000000	0,000000	712,000000	0,000000	2020-11-19T14:22:17:444
83,000000	0,000000	712,000000	0,000000	2020-11-19T14:22:17:485
83,000000	0,000000	712,000000	0,000000	2020-11-19T14:22:17:523
82,000000	0,000000	712,000000	0,000000	2020-11-19T14:22:17:565
83,000000	0,000000	712,000000	0,000000	2020-11-19T14:22:17:602
83,000000	0,000000	712,000000	0,000000	2020-11-19T14:22:17:644
82,000000	0,000000	712,000000	0,000000	2020-11-19T14:22:17:683
82,000000	0,000000	712,000000	0,000000	2020-11-19T14:22:17:726
82,000000	0,000000	712,000000	0,000000	2020-11-19T14:22:17:764
83,000000	0,000000	712,000000	0,000000	2020-11-19T14:22:17:804
83,000000	0,000000	712,000000	0,000000	2020-11-19T14:22:17:843
82,000000	0,000000	712,000000	0,000000	2020-11-19T14:22:17:885
82,000000	0,000000	712,000000	0,000000	2020-11-19T14:22:17:925
82,000000	0,000000	712,000000	0,000000	2020-11-19T14:22:17:965
83,000000	0,000000	712,000000	0,000000	2020-11-19T14:22:18:004
82,000000	0,000000	712,000000	0,000000	2020-11-19T14:22:18:045
82,000000	0,000000	712,000000	0,000000	2020-11-19T14:22:18:084
82,000000	0,000000	712,000000	0,000000	2020-11-19T14:22:18:125
83,000000	0,000000	712,000000	0,000000	2020-11-19T14:22:18:166
83,000000	0,000000	712,000000	0,000000	2020-11-19T14:22:18:205
82,000000	0,000000	712,000000	0,000000	2020-11-19T14:22:18:244
82,000000	0,000000	712,000000	0,000000	2020-11-19T14:22:18:285
82,000000	0,000000	712,000000	0,000000	2020-11-19T14:22:18:324
82,000000	0,000000	712,000000	0,000000	2020-11-19T14:22:18:366
82,000000	0,000000	724,000000	0,000000	2020-11-19T14:22:18:405
82,000000	0,000000	724,000000	0,000000	2020-11-19T14:22:18:445
82,000000	0,000000	724,000000	0,000000	2020-11-19T14:22:18:484
83,000000	0,000000	724,000000	0,000000	2020-11-19T14:22:18:525
83,000000	0,000000	724,000000	0,000000	2020-11-19T14:22:18:565
82,000000	0,000000	724,000000	0,000000	2020-11-19T14:22:18:605
82,000000	0,000000	724,000000	0,000000	2020-11-19T14:22:18:646
82,000000	0,000000	724,000000	0,000000	2020-11-19T14:22:18:685
82,000000	0,000000	724,000000	0,000000	2020-11-19T14:22:18:725
82,000000	0,000000	724,000000	0,000000	2020-11-19T14:22:18:766
82,000000	0,000000	724,000000	0,000000	2020-11-19T14:22:18:804
82,000000	0,000000	724,000000	0,000000	2020-11-19T14:22:18:846
83,000000	0,000000	724,000000	0,000000	2020-11-19T14:22:18:886
83,000000	0,000000	724,000000	0,000000	2020-11-19T14:22:18:926
82,000000	0,000000	724,000000	0,000000	2020-11-19T14:22:18:965
82,000000	0,000000	724,000000	0,000000	2020-11-19T14:22:19:006
82,000000	0,000000	724,000000	0,000000	2020-11-19T14:22:19:044
82,000000	0,000000	724,000000	0,000000	2020-11-19T14:22:19:086
82,000000	0,000000	734,000000	0,000000	2020-11-19T14:22:19:126
82,000000	0,000000	734,000000	0,000000	2020-11-19T14:22:19:166
82,000000	0,000000	734,000000	0,000000	2020-11-19T14:22:19:210
83,000000	0,000000	734,000000	0,000000	2020-11-19T14:22:19:246
83,000000	0,000000	734,000000	0,000000	2020-11-19T14:22:19:285
82,000000	0,000000	734,000000	0,000000	2020-11-19T14:22:19:332
82,000000	0,000000	734,000000	0,000000	2020-11-19T14:22:19:367
82,000000	0,000000	734,000000	0,000000	2020-11-19T14:22:19:407
82,000000	0,000000	734,000000	0,000000	2020-11-19T14:22:19:445
82,000000	0,000000	734,000000	0,000000	2020-11-19T14:22:19:486
82,000000	0,000000	734,000000	0,000000	2020-11-19T14:22:19:525
82,000000	0,000000	734,000000	0,000000	2020-11-19T14:22:19:567
82,000000	0,000000	734,000000	0,000000	2020-11-19T14:22:19:610
82,000000	0,000000	734,000000	0,000000	2020-11-19T14:22:19:646
82,000000	0,000000	734,000000	0,000000	2020-11-19T14:22:19:685
82,000000	0,000000	734,000000	0,000000	2020-11-19T14:22:19:726
82,000000	0,000000	734,000000	0,000000	2020-11-19T14:22:19:766
82,000000	0,000000	734,000000	0,000000	2020-11-19T14:22:19:807
82,000000	0,000000	734,000000	0,000000	2020-11-19T14:22:19:846
82,000000	0,000000	734,000000	0,000000	2020-11-19T14:22:19:886
82,000000	0,000000	734,000000	0,000000	2020-11-19T14:22:19:926
82,000000	0,000000	734,000000	0,000000	2020-11-19T14:22:19:967
82,000000	0,000000	734,000000	0,000000	2020-11-19T14:22:20:006
82,000000	0,000000	734,000000	0,000000	2020-11-19T14:22:20:047
82,000000	0,000000	716,000000	0,000000	2020-11-19T14:22:20:087
82,000000	0,000000	716,000000	0,000000	2020-11-19T14:22:20:126
82,000000	0,000000	716,000000	0,000000	2020-11-19T14:22:20:166
82,000000	0,000000	716,000000	0,000000	2020-11-19T14:22:20:206
82,000000	0,000000	716,000000	0,000000	2020-11-19T14:22:20:246
82,000000	0,000000	716,000000	0,000000	2020-11-19T14:22:20:287
82,000000	0,000000	716,000000	0,000000	2020-11-19T14:22:20:327
82,000000	0,000000	716,000000	0,000000	2020-11-19T14:22:20:367
82,000000	0,000000	716,000000	0,000000	2020-11-19T14:22:20:406
82,000000	0,000000	716,000000	0,000000	2020-11-19T14:22:20:447
82,000000	0,000000	716,000000	0,000000	2020-11-19T14:22:20:486
82,000000	0,000000	716,000000	0,000000	2020-11-19T14:22:20:527
82,000000	0,000000	716,000000	0,000000	2020-11-19T14:22:20:567
82,000000	0,000000	716,000000	0,000000	2020-11-19T14:22:20:607
83,000000	0,000000	716,000000	0,000000	2020-11-19T14:22:20:646
83,000000	0,000000	716,000000	0,000000	2020-11-19T14:22:20:687
82,000000	0,000000	716,000000	0,000000	2020-11-19T14:22:20:726
82,000000	0,000000	716,000000	0,000000	2020-11-19T14:22:20:768
82,000000	0,000000	716,000000	0,000000	2020-11-19T14:22:20:808
83,000000	0,000000	716,000000	0,000000	2020-11-19T14:22:20:847
83,000000	0,000000	716,000000	0,000000	2020-11-19T14:22:20:886
82,000000	0,000000	716,000000	0,000000	2020-11-19T14:22:20:928
83,000000	0,000000	716,000000	0,000000	2020-11-19T14:22:20:967
83,000000	0,000000	716,000000	0,000000	2020-11-19T14:22:21:008
83,000000	0,000000	716,000000	0,000000	2020-11-19T14:22:21:047
83,000000	0,000000	716,000000	0,000000	2020-11-19T14:22:21:088
83,000000	0,000000	716,000000	0,000000	2020-11-19T14:22:21:127
83,000000	0,000000	716,000000	0,000000	2020-11-19T14:22:21:168
83,000000	0,000000	716,000000	0,000000	2020-11-19T14:22:21:207
83,000000	0,000000	716,000000	0,000000	2020-11-19T14:22:21:248
83,000000	0,000000	716,000000	0,000000	2020-11-19T14:22:21:288
83,000000	0,000000	716,000000	0,000000	2020-11-19T14:22:21:329
83,000000	0,000000	716,000000	0,000000	2020-11-19T14:22:21:367
83,000000	0,000000	716,000000	0,000000	2020-11-19T14:22:21:408
83,000000	0,000000	716,000000	0,000000	2020-11-19T14:22:21:447
83,000000	0,000000	716,000000	0,000000	2020-11-19T14:22:21:488
83,000000	0,000000	716,000000	0,000000	2020-11-19T14:22:21:530
83,000000	0,000000	716,000000	0,000000	2020-11-19T14:22:21:568
83,000000	0,000000	716,000000	0,000000	2020-11-19T14:22:21:607
83,000000	0,000000	716,000000	0,000000	2020-11-19T14:22:21:648
83,000000	0,000000	716,000000	0,000000	2020-11-19T14:22:21:687
82,000000	0,000000	716,000000	0,000000	2020-11-19T14:22:21:728
83,000000	0,000000	716,000000	0,000000	2020-11-19T14:22:21:769
83,000000	0,000000	716,000000	0,000000	2020-11-19T14:22:21:808
83,000000	0,000000	716,000000	0,000000	2020-11-19T14:22:21:847
83,000000	0,000000	716,000000	0,000000	2020-11-19T14:22:21:888
83,000000	0,000000	716,000000	0,000000	2020-11-19T14:22:21:928
83,000000	0,000000	716,000000	0,000000	2020-11-19T14:22:21:969
83,000000	0,000000	716,000000	0,000000	2020-11-19T14:22:22:009
83,000000	0,000000	716,000000	0,000000	2020-11-19T14:22:22:048
82,000000	0,000000	716,000000	0,000000	2020-11-19T14:22:22:088
83,000000	0,000000	716,000000	0,000000	2020-11-19T14:22:22:129
83,000000	0,000000	716,000000	0,000000	2020-11-19T14:22:22:168
83,000000	0,000000	716,000000	0,000000	2020-11-19T14:22:22:209
83,000000	0,000000	716,000000	0,000000	2020-11-19T14:22:22:248
82,000000	0,000000	716,000000	0,000000	2020-11-19T14:22:22:289
83,000000	0,000000	716,000000	0,000000	2020-11-19T14:22:22:328
83,000000	0,000000	716,000000	0,000000	2020-11-19T14:22:22:369
82,000000	0,000000	716,000000	0,000000	2020-11-19T14:22:22:407
82,000000	0,000000	716,000000	0,000000	2020-11-19T14:22:22:449
82,000000	0,000000	716,000000	0,000000	2020-11-19T14:22:22:490
83,000000	0,000000	716,000000	0,000000	2020-11-19T14:22:22:529
83,000000	0,000000	716,000000	0,000000	2020-11-19T14:22:22:568
83,000000	0,000000	716,000000	0,000000	2020-11-19T14:22:22:609
82,000000	0,000000	716,000000	0,000000	2020-11-19T14:22:22:648
82,000000	0,000000	716,000000	0,000000	2020-11-19T14:22:22:689
83,000000	0,000000	729,000000	0,000000	2020-11-19T14:22:22:730
82,000000	0,000000	729,000000	0,000000	2020-11-19T14:22:22:770
82,000000	0,000000	729,000000	0,000000	2020-11-19T14:22:22:808
82,000000	0,000000	729,000000	0,000000	2020-11-19T14:22:22:852
83,000000	0,000000	729,000000	0,000000	2020-11-19T14:22:22:888
83,000000	0,000000	729,000000	0,000000	2020-11-19T14:22:22:930
83,000000	0,000000	729,000000	0,000000	2020-11-19T14:22:22:970
82,000000	0,000000	729,000000	0,000000	2020-11-19T14:22:23:009
82,000000	0,000000	729,000000	0,000000	2020-11-19T14:22:23:048
83,000000	0,000000	729,000000	0,000000	2020-11-19T14:22:23:090
82,000000	0,000000	729,000000	0,000000	2020-11-19T14:22:23:129
82,000000	0,000000	729,000000	0,000000	2020-11-19T14:22:23:170
82,000000	0,000000	729,000000	0,000000	2020-11-19T14:22:23:210
83,000000	0,000000	729,000000	0,000000	2020-11-19T14:22:23:250
83,000000	0,000000	729,000000	0,000000	2020-11-19T14:22:23:289
83,000000	0,000000	729,000000	0,000000	2020-11-19T14:22:23:330
82,000000	0,000000	729,000000	0,000000	2020-11-19T14:22:23:369
82,000000	0,000000	729,000000	0,000000	2020-11-19T14:22:23:410
83,000000	0,000000	729,000000	0,000000	2020-11-19T14:22:23:453
82,000000	0,000000	729,000000	0,000000	2020-11-19T14:22:23:490
82,000000	0,000000	729,000000	0,000000	2020-11-19T14:22:23:529
82,000000	0,000000	729,000000	0,000000	2020-11-19T14:22:23:570
83,000000	0,000000	729,000000	0,000000	2020-11-19T14:22:23:609
83,000000	0,000000	729,000000	0,000000	2020-11-19T14:22:23:650
83,000000	0,000000	729,000000	0,000000	2020-11-19T14:22:23:691
82,000000	0,000000	729,000000	0,000000	2020-11-19T14:22:23:741
82,000000	0,000000	729,000000	0,000000	2020-11-19T14:22:23:770
83,000000	0,000000	729,000000	0,000000	2020-11-19T14:22:23:810
83,000000	0,000000	729,000000	0,000000	2020-11-19T14:22:23:862
82,000000	0,000000	729,000000	0,000000	2020-11-19T14:22:23:890
82,000000	0,000000	729,000000	0,000000	2020-11-19T14:22:23:930
82,000000	0,000000	729,000000	0,000000	2020-11-19T14:22:23:971
83,000000	0,000000	729,000000	0,000000	2020-11-19T14:22:24:009
83,000000	0,000000	729,000000	0,000000	2020-11-19T14:22:24:051
82,000000	0,000000	729,000000	0,000000	2020-11-19T14:22:24:089
82,000000	0,000000	729,000000	0,000000	2020-11-19T14:22:24:131
82,000000	0,000000	728,000000	0,000000	2020-11-19T14:22:24:170
82,000000	0,000000	728,000000	0,000000	2020-11-19T14:22:24:210
82,000000	0,000000	728,000000	0,000000	2020-11-19T14:22:24:249
82,000000	0,000000	728,000000	0,000000	2020-11-19T14:22:24:290
82,000000	0,000000	728,000000	0,000000	2020-11-19T14:22:24:330
82,000000	0,000000	728,000000	0,000000	2020-11-19T14:22:24:371
82,000000	0,000000	728,000000	0,000000	2020-11-19T14:22:24:411
82,000000	0,000000	728,000000	0,000000	2020-11-19T14:22:24:451
82,000000	0,000000	728,000000	0,000000	2020-11-19T14:22:24:489
82,000000	0,000000	728,000000	0,000000	2020-11-19T14:22:24:530
82,000000	0,000000	728,000000	0,000000	2020-11-19T14:22:24:571
82,000000	0,000000	728,000000	0,000000	2020-11-19T14:22:24:613
82,000000	0,000000	728,000000	0,000000	2020-11-19T14:22:24:652
82,000000	0,000000	728,000000	0,000000	2020-11-19T14:22:24:691
82,000000	0,000000	728,000000	0,000000	2020-11-19T14:22:24:731
82,000000	0,000000	728,000000	0,000000	2020-11-19T14:22:24:772
82,000000	0,000000	728,000000	0,000000	2020-11-19T14:22:24:811
82,000000	0,000000	728,000000	0,000000	2020-11-19T14:22:24:854
82,000000	0,000000	788,000000	0,000000	2020-11-19T14:22:24:892
82,000000	0,000000	788,000000	0,000000	2020-11-19T14:22:24:932
82,000000	0,000000	788,000000	0,000000	2020-11-19T14:22:24:971
82,000000	0,000000	788,000000	0,000000	2020-11-19T14:22:25:012
82,000000	0,000000	788,000000	0,000000	2020-11-19T14:22:25:050
82,000000	0,000000	788,000000	0,000000	2020-11-19T14:22:25:092
82,000000	0,000000	788,000000	0,000000	2020-11-19T14:22:25:132
82,000000	0,000000	788,000000	0,000000	2020-11-19T14:22:25:171
82,000000	0,000000	788,000000	0,000000	2020-11-19T14:22:25:210
82,000000	0,000000	788,000000	0,000000	2020-11-19T14:22:25:251
82,000000	0,000000	788,000000	0,000000	2020-11-19T14:22:25:290
82,000000	0,000000	788,000000	0,000000	2020-11-19T14:22:25:331
82,000000	0,000000	788,000000	0,000000	2020-11-19T14:22:25:372
82,000000	0,000000	788,000000	0,000000	2020-11-19T14:22:25:413
82,000000	0,000000	788,000000	0,000000	2020-11-19T14:22:25:451
82,000000	0,000000	788,000000	0,000000	2020-11-19T14:22:25:491
82,000000	0,000000	788,000000	0,000000	2020-11-19T14:22:25:530
82,000000	0,000000	788,000000	0,000000	2020-11-19T14:22:25:572
82,000000	0,000000	818,000000	0,000000	2020-11-19T14:22:25:612
82,000000	0,000000	818,000000	0,000000	2020-11-19T14:22:25:652
82,000000	0,000000	818,000000	0,000000	2020-11-19T14:22:25:691
82,000000	0,000000	818,000000	0,000000	2020-11-19T14:22:25:732
82,000000	0,000000	818,000000	0,000000	2020-11-19T14:22:25:771
82,000000	0,000000	818,000000	0,000000	2020-11-19T14:22:25:812
82,000000	0,000000	818,000000	0,000000	2020-11-19T14:22:25:852
82,000000	0,000000	818,000000	0,000000	2020-11-19T14:22:25:892
82,000000	0,000000	818,000000	0,000000	2020-11-19T14:22:25:931
82,000000	0,000000	818,000000	0,000000	2020-11-19T14:22:25:973
82,000000	0,000000	818,000000	0,000000	2020-11-19T14:22:26:012
82,000000	0,000000	818,000000	0,000000	2020-11-19T14:22:26:053
82,000000	0,000000	818,000000	0,000000	2020-11-19T14:22:26:093
82,000000	0,000000	818,000000	0,000000	2020-11-19T14:22:26:133
82,000000	0,000000	818,000000	0,000000	2020-11-19T14:22:26:172
81,000000	0,000000	818,000000	0,000000	2020-11-19T14:22:26:213
82,000000	0,000000	818,000000	0,000000	2020-11-19T14:22:26:252
82,000000	0,000000	818,000000	0,000000	2020-11-19T14:22:26:293
82,000000	0,000000	667,000000	0,000000	2020-11-19T14:22:26:333
82,000000	0,000000	667,000000	0,000000	2020-11-19T14:22:26:374
81,000000	0,000000	667,000000	0,000000	2020-11-19T14:22:26:412
82,000000	0,000000	667,000000	0,000000	2020-11-19T14:22:26:453
82,000000	0,000000	667,000000	0,000000	2020-11-19T14:22:26:492
81,000000	0,000000	667,000000	0,000000	2020-11-19T14:22:26:533
81,000000	0,000000	667,000000	0,000000	2020-11-19T14:22:26:574
81,000000	0,000000	667,000000	0,000000	2020-11-19T14:22:26:613
82,000000	0,000000	667,000000	0,000000	2020-11-19T14:22:26:652
82,000000	0,000000	667,000000	0,000000	2020-11-19T14:22:26:693
81,000000	0,000000	667,000000	0,000000	2020-11-19T14:22:26:732
81,000000	0,000000	667,000000	0,000000	2020-11-19T14:22:26:774
81,000000	0,000000	667,000000	0,000000	2020-11-19T14:22:26:814
82,000000	0,000000	667,000000	0,000000	2020-11-19T14:22:26:854
81,000000	0,000000	667,000000	0,000000	2020-11-19T14:22:26:902
81,000000	0,000000	667,000000	0,000000	2020-11-19T14:22:26:934
81,000000	0,000000	667,000000	0,000000	2020-11-19T14:22:26:973
81,000000	0,000000	667,000000	0,000000	2020-11-19T14:22:27:014
81,000000	0,000000	766,000000	0,000000	2020-11-19T14:22:27:054
81,000000	0,000000	766,000000	0,000000	2020-11-19T14:22:27:094
81,000000	0,000000	766,000000	0,000000	2020-11-19T14:22:27:133
81,000000	0,000000	766,000000	0,000000	2020-11-19T14:22:27:174
81,000000	0,000000	766,000000	0,000000	2020-11-19T14:22:27:213
81,000000	0,000000	766,000000	0,000000	2020-11-19T14:22:27:254
81,000000	0,000000	766,000000	0,000000	2020-11-19T14:22:27:294
81,000000	0,000000	766,000000	0,000000	2020-11-19T14:22:27:334
81,000000	0,000000	766,000000	0,000000	2020-11-19T14:22:27:373
81,000000	0,000000	766,000000	0,000000	2020-11-19T14:22:27:414
81,000000	0,000000	766,000000	0,000000	2020-11-19T14:22:27:453
81,000000	0,000000	766,000000	0,000000	2020-11-19T14:22:27:494
81,000000	0,000000	766,000000	0,000000	2020-11-19T14:22:27:535
81,000000	0,000000	766,000000	0,000000	2020-11-19T14:22:27:575
81,000000	0,000000	766,000000	0,000000	2020-11-19T14:22:27:613
81,000000	0,000000	766,000000	0,000000	2020-11-19T14:22:27:654
81,000000	0,000000	766,000000	0,000000	2020-11-19T14:22:27:693
81,000000	0,000000	766,000000	0,000000	2020-11-19T14:22:27:735
81,000000	0,000000	766,000000	0,000000	2020-11-19T14:22:27:775
81,000000	0,000000	766,000000	0,000000	2020-11-19T14:22:27:814
81,000000	0,000000	766,000000	0,000000	2020-11-19T14:22:27:854
81,000000	0,000000	766,000000	0,000000	2020-11-19T14:22:27:895
81,000000	0,000000	766,000000	0,000000	2020-11-19T14:22:27:934
81,000000	0,000000	766,000000	0,000000	2020-11-19T14:22:27:975
81,000000	0,000000	738,000000	0,000000	2020-11-19T14:22:28:016
81,000000	0,000000	738,000000	0,000000	2020-11-19T14:22:28:055
81,000000	0,000000	738,000000	0,000000	2020-11-19T14:22:28:094
81,000000	0,000000	738,000000	0,000000	2020-11-19T14:22:28:135
81,000000	0,000000	738,000000	0,000000	2020-11-19T14:22:28:174
81,000000	0,000000	738,000000	0,000000	2020-11-19T14:22:28:215
81,000000	0,000000	738,000000	0,000000	2020-11-19T14:22:28:254
81,000000	0,000000	738,000000	0,000000	2020-11-19T14:22:28:295
81,000000	0,000000	738,000000	0,000000	2020-11-19T14:22:28:334
81,000000	0,000000	738,000000	0,000000	2020-11-19T14:22:28:376
81,000000	0,000000	738,000000	0,000000	2020-11-19T14:22:28:414
81,000000	0,000000	738,000000	0,000000	2020-11-19T14:22:28:455
81,000000	0,000000	738,000000	0,000000	2020-11-19T14:22:28:495
81,000000	0,000000	738,000000	0,000000	2020-11-19T14:22:28:535
81,000000	0,000000	738,000000	0,000000	2020-11-19T14:22:28:575
81,000000	0,000000	738,000000	0,000000	2020-11-19T14:22:28:615
81,000000	0,000000	738,000000	0,000000	2020-11-19T14:22:28:654
81,000000	0,000000	738,000000	0,000000	2020-11-19T14:22:28:695
81,000000	0,000000	774,000000	0,000000	2020-11-19T14:22:28:736
81,000000	0,000000	774,000000	0,000000	2020-11-19T14:22:28:775
81,000000	0,000000	774,000000	0,000000	2020-11-19T14:22:28:814
81,000000	0,000000	774,000000	0,000000	2020-11-19T14:22:28:855
81,000000	0,000000	774,000000	0,000000	2020-11-19T14:22:28:895
81,000000	0,000000	774,000000	0,000000	2020-11-19T14:22:28:935
81,000000	0,000000	774,000000	0,000000	2020-11-19T14:22:28:975
81,000000	0,000000	774,000000	0,000000	2020-11-19T14:22:29:016
81,000000	0,000000	774,000000	0,000000	2020-11-19T14:22:29:055
81,000000	0,000000	774,000000	0,000000	2020-11-19T14:22:29:095
81,000000	0,000000	774,000000	0,000000	2020-11-19T14:22:29:135
81,000000	0,000000	774,000000	0,000000	2020-11-19T14:22:29:176
81,000000	0,000000	774,000000	0,000000	2020-11-19T14:22:29:217
81,000000	0,000000	774,000000	0,000000	2020-11-19T14:22:29:255
81,000000	0,000000	774,000000	0,000000	2020-11-19T14:22:29:295
81,000000	0,000000	774,000000	0,000000	2020-11-19T14:22:29:336
81,000000	0,000000	774,000000	0,000000	2020-11-19T14:22:29:375
81,000000	0,000000	774,000000	0,000000	2020-11-19T14:22:29:416
81,000000	0,000000	755,000000	0,000000	2020-11-19T14:22:29:455
81,000000	0,000000	755,000000	0,000000	2020-11-19T14:22:29:496
81,000000	0,000000	755,000000	0,000000	2020-11-19T14:22:29:535
81,000000	0,000000	755,000000	0,000000	2020-11-19T14:22:29:576
81,000000	0,000000	755,000000	0,000000	2020-11-19T14:22:29:616
81,000000	0,000000	755,000000	0,000000	2020-11-19T14:22:29:656
81,000000	0,000000	755,000000	0,000000	2020-11-19T14:22:29:697
81,000000	0,000000	755,000000	0,000000	2020-11-19T14:22:29:736
81,000000	0,000000	755,000000	0,000000	2020-11-19T14:22:29:776
81,000000	0,000000	755,000000	0,000000	2020-11-19T14:22:29:816
81,000000	0,000000	755,000000	0,000000	2020-11-19T14:22:29:855
81,000000	0,000000	755,000000	0,000000	2020-11-19T14:22:29:896
81,000000	0,000000	755,000000	0,000000	2020-11-19T14:22:29:937
81,000000	0,000000	755,000000	0,000000	2020-11-19T14:22:29:976
80,000000	0,000000	755,000000	0,000000	2020-11-19T14:22:30:016
81,000000	0,000000	755,000000	0,000000	2020-11-19T14:22:30:056
81,000000	0,000000	755,000000	0,000000	2020-11-19T14:22:30:096
81,000000	0,000000	755,000000	0,000000	2020-11-19T14:22:30:136
81,000000	0,000000	769,000000	0,000000	2020-11-19T14:22:30:178
80,000000	0,000000	769,000000	0,000000	2020-11-19T14:22:30:216
81,000000	0,000000	769,000000	0,000000	2020-11-19T14:22:30:256
81,000000	0,000000	769,000000	0,000000	2020-11-19T14:22:30:296
80,000000	0,000000	769,000000	0,000000	2020-11-19T14:22:30:336
80,000000	0,000000	769,000000	0,000000	2020-11-19T14:22:30:377
80,000000	0,000000	769,000000	0,000000	2020-11-19T14:22:30:417
81,000000	0,000000	769,000000	0,000000	2020-11-19T14:22:30:456
81,000000	0,000000	769,000000	0,000000	2020-11-19T14:22:30:496
80,000000	0,000000	769,000000	0,000000	2020-11-19T14:22:30:537
80,000000	0,000000	769,000000	0,000000	2020-11-19T14:22:30:576
80,000000	0,000000	769,000000	0,000000	2020-11-19T14:22:30:617
80,000000	0,000000	769,000000	0,000000	2020-11-19T14:22:30:656
80,000000	0,000000	769,000000	0,000000	2020-11-19T14:22:30:697
80,000000	0,000000	769,000000	0,000000	2020-11-19T14:22:30:736
80,000000	0,000000	769,000000	0,000000	2020-11-19T14:22:30:777
80,000000	0,000000	769,000000	0,000000	2020-11-19T14:22:30:816
80,000000	0,000000	769,000000	0,000000	2020-11-19T14:22:30:857
80,000000	0,000000	755,000000	0,000000	2020-11-19T14:22:30:898
80,000000	0,000000	755,000000	0,000000	2020-11-19T14:22:30:937
80,000000	0,000000	755,000000	0,000000	2020-11-19T14:22:30:977
80,000000	0,000000	755,000000	0,000000	2020-11-19T14:22:31:017
80,000000	0,000000	755,000000	0,000000	2020-11-19T14:22:31:056
80,000000	0,000000	755,000000	0,000000	2020-11-19T14:22:31:098
80,000000	0,000000	755,000000	0,000000	2020-11-19T14:22:31:138
80,000000	0,000000	755,000000	0,000000	2020-11-19T14:22:31:177
80,000000	0,000000	755,000000	0,000000	2020-11-19T14:22:31:217
80,000000	0,000000	755,000000	0,000000	2020-11-19T14:22:31:257
80,000000	0,000000	755,000000	0,000000	2020-11-19T14:22:31:297
80,000000	0,000000	755,000000	0,000000	2020-11-19T14:22:31:338
80,000000	0,000000	755,000000	0,000000	2020-11-19T14:22:31:378
80,000000	0,000000	755,000000	0,000000	2020-11-19T14:22:31:417
80,000000	0,000000	755,000000	0,000000	2020-11-19T14:22:31:457
80,000000	0,000000	755,000000	0,000000	2020-11-19T14:22:31:498
80,000000	0,000000	755,000000	0,000000	2020-11-19T14:22:31:537
80,000000	0,000000	755,000000	0,000000	2020-11-19T14:22:31:578
80,000000	0,000000	755,000000	0,000000	2020-11-19T14:22:31:617
80,000000	0,000000	755,000000	0,000000	2020-11-19T14:22:31:658
80,000000	0,000000	755,000000	0,000000	2020-11-19T14:22:31:697
80,000000	0,000000	755,000000	0,000000	2020-11-19T14:22:31:738
80,000000	0,000000	755,000000	0,000000	2020-11-19T14:22:31:777
80,000000	0,000000	755,000000	0,000000	2020-11-19T14:22:31:818
80,000000	0,000000	768,000000	0,000000	2020-11-19T14:22:31:858
80,000000	0,000000	768,000000	0,000000	2020-11-19T14:22:31:898
80,000000	0,000000	768,000000	0,000000	2020-11-19T14:22:31:937
80,000000	0,000000	768,000000	0,000000	2020-11-19T14:22:31:978
80,000000	0,000000	768,000000	0,000000	2020-11-19T14:22:32:017
80,000000	0,000000	768,000000	0,000000	2020-11-19T14:22:32:059
80,000000	0,000000	768,000000	0,000000	2020-11-19T14:22:32:099
80,000000	0,000000	768,000000	0,000000	2020-11-19T14:22:32:139
80,000000	0,000000	768,000000	0,000000	2020-11-19T14:22:32:178
80,000000	0,000000	768,000000	0,000000	2020-11-19T14:22:32:219
80,000000	0,000000	768,000000	0,000000	2020-11-19T14:22:32:257
80,000000	0,000000	768,000000	0,000000	2020-11-19T14:22:32:299
80,000000	0,000000	768,000000	0,000000	2020-11-19T14:22:32:339
80,000000	0,000000	768,000000	0,000000	2020-11-19T14:22:32:379
80,000000	0,000000	768,000000	0,000000	2020-11-19T14:22:32:418
80,000000	0,000000	768,000000	0,000000	2020-11-19T14:22:32:458
80,000000	0,000000	768,000000	0,000000	2020-11-19T14:22:32:497
80,000000	0,000000	768,000000	0,000000	2020-11-19T14:22:32:539
80,000000	0,000000	779,000000	0,000000	2020-11-19T14:22:32:579
80,000000	0,000000	779,000000	0,000000	2020-11-19T14:22:32:619
80,000000	0,000000	779,000000	0,000000	2020-11-19T14:22:32:659
80,000000	0,000000	779,000000	0,000000	2020-11-19T14:22:32:699
80,000000	0,000000	779,000000	0,000000	2020-11-19T14:22:32:738
80,000000	0,000000	779,000000	0,000000	2020-11-19T14:22:32:779
80,000000	0,000000	779,000000	0,000000	2020-11-19T14:22:32:819
80,000000	0,000000	779,000000	0,000000	2020-11-19T14:22:32:860
80,000000	0,000000	779,000000	0,000000	2020-11-19T14:22:32:898
80,000000	0,000000	779,000000	0,000000	2020-11-19T14:22:32:939
80,000000	0,000000	779,000000	0,000000	2020-11-19T14:22:32:978
80,000000	0,000000	779,000000	0,000000	2020-11-19T14:22:33:020
80,000000	0,000000	779,000000	0,000000	2020-11-19T14:22:33:078
80,000000	0,000000	779,000000	0,000000	2020-11-19T14:22:33:100
80,000000	0,000000	779,000000	0,000000	2020-11-19T14:22:33:139
80,000000	0,000000	779,000000	0,000000	2020-11-19T14:22:33:180
80,000000	0,000000	779,000000	0,000000	2020-11-19T14:22:33:218
80,000000	0,000000	779,000000	0,000000	2020-11-19T14:22:33:260
80,000000	0,000000	774,000000	0,000000	2020-11-19T14:22:33:300
80,000000	0,000000	774,000000	0,000000	2020-11-19T14:22:33:340
80,000000	0,000000	774,000000	0,000000	2020-11-19T14:22:33:379
80,000000	0,000000	774,000000	0,000000	2020-11-19T14:22:33:420
79,000000	0,000000	774,000000	0,000000	2020-11-19T14:22:33:459
80,000000	0,000000	774,000000	0,000000	2020-11-19T14:22:33:500
80,000000	0,000000	774,000000	0,000000	2020-11-19T14:22:33:540
80,000000	0,000000	774,000000	0,000000	2020-11-19T14:22:33:582
80,000000	0,000000	774,000000	0,000000	2020-11-19T14:22:33:618
80,000000	0,000000	774,000000	0,000000	2020-11-19T14:22:33:663
80,000000	0,000000	774,000000	0,000000	2020-11-19T14:22:33:700
80,000000	0,000000	774,000000	0,000000	2020-11-19T14:22:33:752
80,000000	0,000000	774,000000	0,000000	2020-11-19T14:22:33:784
80,000000	0,000000	774,000000	0,000000	2020-11-19T14:22:33:827
79,000000	0,000000	774,000000	0,000000	2020-11-19T14:22:33:869
79,000000	0,000000	774,000000	0,000000	2020-11-19T14:22:33:920
79,000000	0,000000	774,000000	0,000000	2020-11-19T14:22:33:937
79,000000	0,000000	774,000000	0,000000	2020-11-19T14:22:33:979
79,000000	0,000000	794,000000	0,000000	2020-11-19T14:22:34:019
79,000000	0,000000	794,000000	0,000000	2020-11-19T14:22:34:059
79,000000	0,000000	794,000000	0,000000	2020-11-19T14:22:34:098
79,000000	0,000000	794,000000	0,000000	2020-11-19T14:22:34:139
79,000000	0,000000	794,000000	0,000000	2020-11-19T14:22:34:178
79,000000	0,000000	794,000000	0,000000	2020-11-19T14:22:34:219
79,000000	0,000000	794,000000	0,000000	2020-11-19T14:22:34:259
79,000000	0,000000	794,000000	0,000000	2020-11-19T14:22:34:299
79,000000	0,000000	794,000000	0,000000	2020-11-19T14:22:34:338
79,000000	0,000000	794,000000	0,000000	2020-11-19T14:22:34:379
79,000000	0,000000	794,000000	0,000000	2020-11-19T14:22:34:418
79,000000	0,000000	794,000000	0,000000	2020-11-19T14:22:34:459
79,000000	0,000000	794,000000	0,000000	2020-11-19T14:22:34:498
79,000000	0,000000	794,000000	0,000000	2020-11-19T14:22:34:539
79,000000	0,000000	794,000000	0,000000	2020-11-19T14:22:34:580
79,000000	0,000000	794,000000	0,000000	2020-11-19T14:22:34:620
79,000000	0,000000	794,000000	0,000000	2020-11-19T14:22:34:658
79,000000	0,000000	794,000000	0,000000	2020-11-19T14:22:34:788
79,000000	0,000000	794,000000	0,000000	2020-11-19T14:22:34:790
79,000000	0,000000	794,000000	0,000000	2020-11-19T14:22:34:791
79,000000	0,000000	794,000000	0,000000	2020-11-19T14:22:34:818
79,000000	0,000000	794,000000	0,000000	2020-11-19T14:22:34:860
79,000000	0,000000	794,000000	0,000000	2020-11-19T14:22:34:900
79,000000	0,000000	794,000000	0,000000	2020-11-19T14:22:34:938
79,000000	0,000000	752,000000	0,000000	2020-11-19T14:22:34:981
79,000000	0,000000	752,000000	0,000000	2020-11-19T14:22:35:019
79,000000	0,000000	752,000000	0,000000	2020-11-19T14:22:35:058
79,000000	0,000000	752,000000	0,000000	2020-11-19T14:22:35:099
79,000000	0,000000	752,000000	0,000000	2020-11-19T14:22:35:138
79,000000	0,000000	752,000000	0,000000	2020-11-19T14:22:35:180
79,000000	0,000000	752,000000	0,000000	2020-11-19T14:22:35:219
79,000000	0,000000	752,000000	0,000000	2020-11-19T14:22:35:259
79,000000	0,000000	752,000000	0,000000	2020-11-19T14:22:35:299
79,000000	0,000000	752,000000	0,000000	2020-11-19T14:22:35:339
79,000000	0,000000	752,000000	0,000000	2020-11-19T14:22:35:381
79,000000	0,000000	752,000000	0,000000	2020-11-19T14:22:35:422
79,000000	0,000000	752,000000	0,000000	2020-11-19T14:22:35:462
79,000000	0,000000	752,000000	0,000000	2020-11-19T14:22:35:502
79,000000	0,000000	752,000000	0,000000	2020-11-19T14:22:35:542
79,000000	0,000000	752,000000	0,000000	2020-11-19T14:22:35:582
79,000000	0,000000	752,000000	0,000000	2020-11-19T14:22:35:622
79,000000	0,000000	752,000000	0,000000	2020-11-19T14:22:35:662
79,000000	0,000000	774,000000	0,000000	2020-11-19T14:22:35:702
79,000000	0,000000	774,000000	0,000000	2020-11-19T14:22:35:748
79,000000	0,000000	774,000000	0,000000	2020-11-19T14:22:35:783
79,000000	0,000000	774,000000	0,000000	2020-11-19T14:22:35:821
79,000000	0,000000	774,000000	0,000000	2020-11-19T14:22:35:860
79,000000	0,000000	774,000000	0,000000	2020-11-19T14:22:35:901
79,000000	0,000000	774,000000	0,000000	2020-11-19T14:22:35:942
79,000000	0,000000	774,000000	0,000000	2020-11-19T14:22:35:983
79,000000	0,000000	774,000000	0,000000	2020-11-19T14:22:36:022
79,000000	0,000000	774,000000	0,000000	2020-11-19T14:22:36:062
79,000000	0,000000	774,000000	0,000000	2020-11-19T14:22:36:101
79,000000	0,000000	774,000000	0,000000	2020-11-19T14:22:36:142
79,000000	0,000000	774,000000	0,000000	2020-11-19T14:22:36:183
79,000000	0,000000	774,000000	0,000000	2020-11-19T14:22:36:222
79,000000	0,000000	774,000000	0,000000	2020-11-19T14:22:36:262
79,000000	0,000000	774,000000	0,000000	2020-11-19T14:22:36:302
79,000000	0,000000	774,000000	0,000000	2020-11-19T14:22:36:342
79,000000	0,000000	774,000000	0,000000	2020-11-19T14:22:36:384
79,000000	0,000000	802,000000	0,000000	2020-11-19T14:22:36:423
79,000000	0,000000	802,000000	0,000000	2020-11-19T14:22:36:463
79,000000	0,000000	802,000000	0,000000	2020-11-19T14:22:36:502
79,000000	0,000000	802,000000	0,000000	2020-11-19T14:22:36:543
79,000000	0,000000	802,000000	0,000000	2020-11-19T14:22:36:582
78,000000	0,000000	802,000000	0,000000	2020-11-19T14:22:36:623
79,000000	0,000000	802,000000	0,000000	2020-11-19T14:22:36:663
79,000000	0,000000	802,000000	0,000000	2020-11-19T14:22:36:703
79,000000	0,000000	802,000000	0,000000	2020-11-19T14:22:36:742
79,000000	0,000000	802,000000	0,000000	2020-11-19T14:22:36:783
78,000000	0,000000	802,000000	0,000000	2020-11-19T14:22:36:822
79,000000	0,000000	802,000000	0,000000	2020-11-19T14:22:36:864
79,000000	0,000000	802,000000	0,000000	2020-11-19T14:22:36:903
78,000000	0,000000	802,000000	0,000000	2020-11-19T14:22:36:944
78,000000	0,000000	802,000000	0,000000	2020-11-19T14:22:36:983
78,000000	0,000000	802,000000	0,000000	2020-11-19T14:22:37:023
79,000000	0,000000	802,000000	0,000000	2020-11-19T14:22:37:062
79,000000	0,000000	802,000000	0,000000	2020-11-19T14:22:37:104
78,000000	0,000000	741,000000	0,000000	2020-11-19T14:22:37:143
78,000000	0,000000	741,000000	0,000000	2020-11-19T14:22:37:184
78,000000	0,000000	741,000000	0,000000	2020-11-19T14:22:37:223
78,000000	0,000000	741,000000	0,000000	2020-11-19T14:22:37:263
78,000000	0,000000	741,000000	0,000000	2020-11-19T14:22:37:303
78,000000	0,000000	741,000000	0,000000	2020-11-19T14:22:37:344
78,000000	0,000000	741,000000	0,000000	2020-11-19T14:22:37:384
78,000000	0,000000	741,000000	0,000000	2020-11-19T14:22:37:424
78,000000	0,000000	741,000000	0,000000	2020-11-19T14:22:37:464
78,000000	0,000000	741,000000	0,000000	2020-11-19T14:22:37:504
78,000000	0,000000	741,000000	0,000000	2020-11-19T14:22:37:543
78,000000	0,000000	741,000000	0,000000	2020-11-19T14:22:37:585
78,000000	0,000000	741,000000	0,000000	2020-11-19T14:22:37:624
78,000000	0,000000	741,000000	0,000000	2020-11-19T14:22:37:664
78,000000	0,000000	741,000000	0,000000	2020-11-19T14:22:37:703
78,000000	0,000000	741,000000	0,000000	2020-11-19T14:22:37:744
78,000000	0,000000	741,000000	0,000000	2020-11-19T14:22:37:783
78,000000	0,000000	741,000000	0,000000	2020-11-19T14:22:37:825
78,000000	0,000000	741,000000	0,000000	2020-11-19T14:22:37:864
78,000000	0,000000	741,000000	0,000000	2020-11-19T14:22:37:904
78,000000	0,000000	741,000000	0,000000	2020-11-19T14:22:37:943
78,000000	0,000000	741,000000	0,000000	2020-11-19T14:22:37:984
78,000000	0,000000	741,000000	0,000000	2020-11-19T14:22:38:023
78,000000	0,000000	741,000000	0,000000	2020-11-19T14:22:38:065
78,000000	0,000000	790,000000	0,000000	2020-11-19T14:22:38:104
78,000000	0,000000	790,000000	0,000000	2020-11-19T14:22:38:144
78,000000	0,000000	790,000000	0,000000	2020-11-19T14:22:38:184
78,000000	0,000000	790,000000	0,000000	2020-11-19T14:22:38:224
78,000000	0,000000	790,000000	0,000000	2020-11-19T14:22:38:263
78,000000	0,000000	790,000000	0,000000	2020-11-19T14:22:38:305
78,000000	0,000000	790,000000	0,000000	2020-11-19T14:22:38:344
78,000000	0,000000	790,000000	0,000000	2020-11-19T14:22:38:385
78,000000	0,000000	790,000000	0,000000	2020-11-19T14:22:38:424
78,000000	0,000000	790,000000	0,000000	2020-11-19T14:22:38:465
78,000000	0,000000	790,000000	0,000000	2020-11-19T14:22:38:504
78,000000	0,000000	790,000000	0,000000	2020-11-19T14:22:38:545
78,000000	0,000000	790,000000	0,000000	2020-11-19T14:22:38:585
78,000000	0,000000	790,000000	0,000000	2020-11-19T14:22:38:625
78,000000	0,000000	790,000000	0,000000	2020-11-19T14:22:38:664
78,000000	0,000000	790,000000	0,000000	2020-11-19T14:22:38:705
78,000000	0,000000	790,000000	0,000000	2020-11-19T14:22:38:744
78,000000	0,000000	790,000000	0,000000	2020-11-19T14:22:38:785
78,000000	0,000000	799,000000	0,000000	2020-11-19T14:22:38:827
78,000000	0,000000	799,000000	0,000000	2020-11-19T14:22:38:865
78,000000	0,000000	799,000000	0,000000	2020-11-19T14:22:38:904
78,000000	0,000000	799,000000	0,000000	2020-11-19T14:22:38:945
78,000000	0,000000	799,000000	0,000000	2020-11-19T14:22:38:984
78,000000	0,000000	799,000000	0,000000	2020-11-19T14:22:39:025
78,000000	0,000000	799,000000	0,000000	2020-11-19T14:22:39:066
78,000000	0,000000	799,000000	0,000000	2020-11-19T14:22:39:105
78,000000	0,000000	799,000000	0,000000	2020-11-19T14:22:39:144
78,000000	0,000000	799,000000	0,000000	2020-11-19T14:22:39:185
78,000000	0,000000	799,000000	0,000000	2020-11-19T14:22:39:224
78,000000	0,000000	799,000000	0,000000	2020-11-19T14:22:39:265
78,000000	0,000000	799,000000	0,000000	2020-11-19T14:22:39:305
78,000000	0,000000	799,000000	0,000000	2020-11-19T14:22:39:345
78,000000	0,000000	799,000000	0,000000	2020-11-19T14:22:39:385
78,000000	0,000000	799,000000	0,000000	2020-11-19T14:22:39:426
78,000000	0,000000	799,000000	0,000000	2020-11-19T14:22:39:464
78,000000	0,000000	799,000000	0,000000	2020-11-19T14:22:39:506
78,000000	0,000000	853,000000	0,000000	2020-11-19T14:22:39:546
78,000000	0,000000	853,000000	0,000000	2020-11-19T14:22:39:586
78,000000	0,000000	853,000000	0,000000	2020-11-19T14:22:39:626
78,000000	0,000000	853,000000	0,000000	2020-11-19T14:22:39:666
78,000000	0,000000	853,000000	0,000000	2020-11-19T14:22:39:705
78,000000	0,000000	853,000000	0,000000	2020-11-19T14:22:39:746
77,000000	0,000000	853,000000	0,000000	2020-11-19T14:22:39:787
78,000000	0,000000	853,000000	0,000000	2020-11-19T14:22:39:826
78,000000	0,000000	853,000000	0,000000	2020-11-19T14:22:39:865
78,000000	0,000000	853,000000	0,000000	2020-11-19T14:22:39:906
78,000000	0,000000	853,000000	0,000000	2020-11-19T14:22:39:945
78,000000	0,000000	853,000000	0,000000	2020-11-19T14:22:39:986
78,000000	0,000000	853,000000	0,000000	2020-11-19T14:22:40:027
78,000000	0,000000	853,000000	0,000000	2020-11-19T14:22:40:066
78,000000	0,000000	853,000000	0,000000	2020-11-19T14:22:40:105
77,000000	0,000000	853,000000	0,000000	2020-11-19T14:22:40:146
77,000000	0,000000	853,000000	0,000000	2020-11-19T14:22:40:186
77,000000	0,000000	853,000000	0,000000	2020-11-19T14:22:40:227
78,000000	0,000000	853,000000	0,000000	2020-11-19T14:22:40:267
77,000000	0,000000	853,000000	0,000000	2020-11-19T14:22:40:306
77,000000	0,000000	853,000000	0,000000	2020-11-19T14:22:40:346
77,000000	0,000000	853,000000	0,000000	2020-11-19T14:22:40:387
77,000000	0,000000	853,000000	0,000000	2020-11-19T14:22:40:425
77,000000	0,000000	853,000000	0,000000	2020-11-19T14:22:40:467
77,000000	0,000000	740,000000	0,000000	2020-11-19T14:22:40:507
77,000000	0,000000	740,000000	0,000000	2020-11-19T14:22:40:546
77,000000	0,000000	740,000000	0,000000	2020-11-19T14:22:40:587
77,000000	0,000000	740,000000	0,000000	2020-11-19T14:22:40:627
77,000000	0,000000	740,000000	0,000000	2020-11-19T14:22:40:666
77,000000	0,000000	740,000000	0,000000	2020-11-19T14:22:40:707
77,000000	0,000000	740,000000	0,000000	2020-11-19T14:22:40:747
77,000000	0,000000	740,000000	0,000000	2020-11-19T14:22:40:790
77,000000	0,000000	740,000000	0,000000	2020-11-19T14:22:40:826
77,000000	0,000000	740,000000	0,000000	2020-11-19T14:22:40:866
77,000000	0,000000	740,000000	0,000000	2020-11-19T14:22:40:906
77,000000	0,000000	740,000000	0,000000	2020-11-19T14:22:40:947
77,000000	0,000000	740,000000	0,000000	2020-11-19T14:22:40:987
77,000000	0,000000	740,000000	0,000000	2020-11-19T14:22:41:028
77,000000	0,000000	740,000000	0,000000	2020-11-19T14:22:41:066
77,000000	0,000000	740,000000	0,000000	2020-11-19T14:22:41:107
77,000000	0,000000	740,000000	0,000000	2020-11-19T14:22:41:150
77,000000	0,000000	740,000000	0,000000	2020-11-19T14:22:41:209
77,000000	0,000000	809,000000	0,000000	2020-11-19T14:22:41:234
77,000000	0,000000	809,000000	0,000000	2020-11-19T14:22:41:266
77,000000	0,000000	809,000000	0,000000	2020-11-19T14:22:41:307
77,000000	0,000000	809,000000	0,000000	2020-11-19T14:22:41:348
77,000000	0,000000	809,000000	0,000000	2020-11-19T14:22:41:387
77,000000	0,000000	809,000000	0,000000	2020-11-19T14:22:41:428
77,000000	0,000000	809,000000	0,000000	2020-11-19T14:22:41:467
77,000000	0,000000	809,000000	0,000000	2020-11-19T14:22:41:508
77,000000	0,000000	809,000000	0,000000	2020-11-19T14:22:41:547
77,000000	0,000000	809,000000	0,000000	2020-11-19T14:22:41:588
77,000000	0,000000	809,000000	0,000000	2020-11-19T14:22:41:627
77,000000	0,000000	809,000000	0,000000	2020-11-19T14:22:41:668
77,000000	0,000000	809,000000	0,000000	2020-11-19T14:22:41:707
77,000000	0,000000	809,000000	0,000000	2020-11-19T14:22:41:748
77,000000	0,000000	809,000000	0,000000	2020-11-19T14:22:41:787
77,000000	0,000000	809,000000	0,000000	2020-11-19T14:22:41:828
77,000000	0,000000	809,000000	0,000000	2020-11-19T14:22:41:867
77,000000	0,000000	809,000000	0,000000	2020-11-19T14:22:41:908
77,000000	0,000000	797,000000	0,000000	2020-11-19T14:22:41:948
77,000000	0,000000	797,000000	0,000000	2020-11-19T14:22:41:988
77,000000	0,000000	797,000000	0,000000	2020-11-19T14:22:42:027
77,000000	0,000000	797,000000	0,000000	2020-11-19T14:22:42:068
77,000000	0,000000	797,000000	0,000000	2020-11-19T14:22:42:108
77,000000	0,000000	797,000000	0,000000	2020-11-19T14:22:42:148
77,000000	0,000000	797,000000	0,000000	2020-11-19T14:22:42:189
77,000000	0,000000	797,000000	0,000000	2020-11-19T14:22:42:228
77,000000	0,000000	797,000000	0,000000	2020-11-19T14:22:42:267
77,000000	0,000000	797,000000	0,000000	2020-11-19T14:22:42:309
77,000000	0,000000	797,000000	0,000000	2020-11-19T14:22:42:348
77,000000	0,000000	797,000000	0,000000	2020-11-19T14:22:42:389
77,000000	0,000000	797,000000	0,000000	2020-11-19T14:22:42:429
77,000000	0,000000	797,000000	0,000000	2020-11-19T14:22:42:469
77,000000	0,000000	797,000000	0,000000	2020-11-19T14:22:42:508
77,000000	0,000000	797,000000	0,000000	2020-11-19T14:22:42:549
77,000000	0,000000	797,000000	0,000000	2020-11-19T14:22:42:588
77,000000	0,000000	797,000000	0,000000	2020-11-19T14:22:42:629
77,000000	0,000000	797,000000	0,000000	2020-11-19T14:22:42:669
77,000000	0,000000	797,000000	0,000000	2020-11-19T14:22:42:709
77,000000	0,000000	797,000000	0,000000	2020-11-19T14:22:42:748
77,000000	0,000000	797,000000	0,000000	2020-11-19T14:22:42:789
77,000000	0,000000	797,000000	0,000000	2020-11-19T14:22:42:829
77,000000	0,000000	797,000000	0,000000	2020-11-19T14:22:42:869
77,000000	0,000000	824,000000	0,000000	2020-11-19T14:22:42:908
77,000000	0,000000	824,000000	0,000000	2020-11-19T14:22:42:949
77,000000	0,000000	824,000000	0,000000	2020-11-19T14:22:42:988
77,000000	0,000000	824,000000	0,000000	2020-11-19T14:22:43:029
77,000000	0,000000	824,000000	0,000000	2020-11-19T14:22:43:068
77,000000	0,000000	824,000000	0,000000	2020-11-19T14:22:43:110
77,000000	0,000000	824,000000	0,000000	2020-11-19T14:22:43:149
77,000000	0,000000	824,000000	0,000000	2020-11-19T14:22:43:189
77,000000	0,000000	824,000000	0,000000	2020-11-19T14:22:43:228
77,000000	0,000000	824,000000	0,000000	2020-11-19T14:22:43:270
77,000000	0,000000	824,000000	0,000000	2020-11-19T14:22:43:308
76,000000	0,000000	824,000000	0,000000	2020-11-19T14:22:43:349
77,000000	0,000000	824,000000	0,000000	2020-11-19T14:22:43:391
77,000000	0,000000	824,000000	0,000000	2020-11-19T14:22:43:430
77,000000	0,000000	824,000000	0,000000	2020-11-19T14:22:43:469
77,000000	0,000000	824,000000	0,000000	2020-11-19T14:22:43:510
77,000000	0,000000	824,000000	0,000000	2020-11-19T14:22:43:549
77,000000	0,000000	824,000000	0,000000	2020-11-19T14:22:43:590
77,000000	0,000000	756,000000	0,000000	2020-11-19T14:22:43:632
77,000000	0,000000	756,000000	0,000000	2020-11-19T14:22:43:670
77,000000	0,000000	756,000000	0,000000	2020-11-19T14:22:43:709
76,000000	0,000000	756,000000	0,000000	2020-11-19T14:22:43:750
77,000000	0,000000	756,000000	0,000000	2020-11-19T14:22:43:789
77,000000	0,000000	756,000000	0,000000	2020-11-19T14:22:43:829
77,000000	0,000000	756,000000	0,000000	2020-11-19T14:22:43:870
77,000000	0,000000	756,000000	0,000000	2020-11-19T14:22:43:910
77,000000	0,000000	756,000000	0,000000	2020-11-19T14:22:43:949
77,000000	0,000000	756,000000	0,000000	2020-11-19T14:22:43:990
77,000000	0,000000	756,000000	0,000000	2020-11-19T14:22:44:030
77,000000	0,000000	756,000000	0,000000	2020-11-19T14:22:44:070
76,000000	0,000000	756,000000	0,000000	2020-11-19T14:22:44:111
77,000000	0,000000	756,000000	0,000000	2020-11-19T14:22:44:150
77,000000	0,000000	756,000000	0,000000	2020-11-19T14:22:44:193
77,000000	0,000000	756,000000	0,000000	2020-11-19T14:22:44:229
77,000000	0,000000	756,000000	0,000000	2020-11-19T14:22:44:269
77,000000	0,000000	756,000000	0,000000	2020-11-19T14:22:44:310
77,000000	0,000000	766,000000	0,000000	2020-11-19T14:22:44:350
77,000000	0,000000	766,000000	0,000000	2020-11-19T14:22:44:391
77,000000	0,000000	766,000000	0,000000	2020-11-19T14:22:44:430
77,000000	0,000000	766,000000	0,000000	2020-11-19T14:22:44:470
77,000000	0,000000	766,000000	0,000000	2020-11-19T14:22:44:510
77,000000	0,000000	766,000000	0,000000	2020-11-19T14:22:44:550
77,000000	0,000000	766,000000	0,000000	2020-11-19T14:22:44:589
77,000000	0,000000	766,000000	0,000000	2020-11-19T14:22:44:631
77,000000	0,000000	766,000000	0,000000	2020-11-19T14:22:44:669
77,000000	0,000000	766,000000	0,000000	2020-11-19T14:22:44:710
77,000000	0,000000	766,000000	0,000000	2020-11-19T14:22:44:749
77,000000	0,000000	766,000000	0,000000	2020-11-19T14:22:44:792
77,000000	0,000000	766,000000	0,000000	2020-11-19T14:22:44:834
77,000000	0,000000	766,000000	0,000000	2020-11-19T14:22:44:871
77,000000	0,000000	766,000000	0,000000	2020-11-19T14:22:44:911
77,000000	0,000000	766,000000	0,000000	2020-11-19T14:22:44:951
77,000000	0,000000	766,000000	0,000000	2020-11-19T14:22:44:990
77,000000	0,000000	766,000000	0,000000	2020-11-19T14:22:45:032
77,000000	0,000000	745,000000	0,000000	2020-11-19T14:22:45:072
77,000000	0,000000	745,000000	0,000000	2020-11-19T14:22:45:111
77,000000	0,000000	745,000000	0,000000	2020-11-19T14:22:45:150
77,000000	0,000000	745,000000	0,000000	2020-11-19T14:22:45:191
77,000000	0,000000	745,000000	0,000000	2020-11-19T14:22:45:230
77,000000	0,000000	745,000000	0,000000	2020-11-19T14:22:45:271
77,000000	0,000000	745,000000	0,000000	2020-11-19T14:22:45:312
77,000000	0,000000	745,000000	0,000000	2020-11-19T14:22:45:351
77,000000	0,000000	745,000000	0,000000	2020-11-19T14:22:45:390
77,000000	0,000000	745,000000	0,000000	2020-11-19T14:22:45:431
77,000000	0,000000	745,000000	0,000000	2020-11-19T14:22:45:470
77,000000	0,000000	745,000000	0,000000	2020-11-19T14:22:45:511
77,000000	0,000000	745,000000	0,000000	2020-11-19T14:22:45:551
77,000000	0,000000	745,000000	0,000000	2020-11-19T14:22:45:592
77,000000	0,000000	745,000000	0,000000	2020-11-19T14:22:45:630
77,000000	0,000000	745,000000	0,000000	2020-11-19T14:22:45:671
77,000000	0,000000	745,000000	0,000000	2020-11-19T14:22:45:710
77,000000	0,000000	745,000000	0,000000	2020-11-19T14:22:45:752
77,000000	0,000000	803,000000	0,000000	2020-11-19T14:22:45:792
77,000000	0,000000	803,000000	0,000000	2020-11-19T14:22:45:832
77,000000	0,000000	803,000000	0,000000	2020-11-19T14:22:45:870
77,000000	0,000000	803,000000	0,000000	2020-11-19T14:22:45:911
77,000000	0,000000	803,000000	0,000000	2020-11-19T14:22:45:950
77,000000	0,000000	803,000000	0,000000	2020-11-19T14:22:45:992
77,000000	0,000000	803,000000	0,000000	2020-11-19T14:22:46:032
77,000000	0,000000	803,000000	0,000000	2020-11-19T14:22:46:072
77,000000	0,000000	803,000000	0,000000	2020-11-19T14:22:46:111
77,000000	0,000000	803,000000	0,000000	2020-11-19T14:22:46:152
77,000000	0,000000	803,000000	0,000000	2020-11-19T14:22:46:192
77,000000	0,000000	803,000000	0,000000	2020-11-19T14:22:46:232
77,000000	0,000000	803,000000	0,000000	2020-11-19T14:22:46:272
77,000000	0,000000	803,000000	0,000000	2020-11-19T14:22:46:312
77,000000	0,000000	803,000000	0,000000	2020-11-19T14:22:46:352
77,000000	0,000000	803,000000	0,000000	2020-11-19T14:22:46:393
77,000000	0,000000	803,000000	0,000000	2020-11-19T14:22:46:431
77,000000	0,000000	803,000000	0,000000	2020-11-19T14:22:46:473
77,000000	0,000000	728,000000	0,000000	2020-11-19T14:22:46:513
77,000000	0,000000	728,000000	0,000000	2020-11-19T14:22:46:552
77,000000	0,000000	728,000000	0,000000	2020-11-19T14:22:46:592
77,000000	0,000000	728,000000	0,000000	2020-11-19T14:22:46:633
77,000000	0,000000	728,000000	0,000000	2020-11-19T14:22:46:671
77,000000	0,000000	728,000000	0,000000	2020-11-19T14:22:46:713
77,000000	0,000000	728,000000	0,000000	2020-11-19T14:22:46:753
77,000000	0,000000	728,000000	0,000000	2020-11-19T14:22:46:793
77,000000	0,000000	728,000000	0,000000	2020-11-19T14:22:46:832
77,000000	0,000000	728,000000	0,000000	2020-11-19T14:22:46:873
77,000000	0,000000	728,000000	0,000000	2020-11-19T14:22:46:912
77,000000	0,000000	728,000000	0,000000	2020-11-19T14:22:46:953
77,000000	0,000000	728,000000	0,000000	2020-11-19T14:22:46:994
77,000000	0,000000	728,000000	0,000000	2020-11-19T14:22:47:033
77,000000	0,000000	728,000000	0,000000	2020-11-19T14:22:47:072
77,000000	0,000000	728,000000	0,000000	2020-11-19T14:22:47:113
77,000000	0,000000	728,000000	0,000000	2020-11-19T14:22:47:152
77,000000	0,000000	728,000000	0,000000	2020-11-19T14:22:47:194
77,000000	0,000000	728,000000	0,000000	2020-11-19T14:22:47:233
77,000000	0,000000	728,000000	0,000000	2020-11-19T14:22:47:273
77,000000	0,000000	728,000000	0,000000	2020-11-19T14:22:47:312
77,000000	0,000000	728,000000	0,000000	2020-11-19T14:22:47:354
77,000000	0,000000	728,000000	0,000000	2020-11-19T14:22:47:393
77,000000	0,000000	728,000000	0,000000	2020-11-19T14:22:47:434
77,000000	0,000000	769,000000	0,000000	2020-11-19T14:22:47:473
77,000000	0,000000	769,000000	0,000000	2020-11-19T14:22:47:514
77,000000	0,000000	769,000000	0,000000	2020-11-19T14:22:47:553
77,000000	0,000000	769,000000	0,000000	2020-11-19T14:22:47:593
77,000000	0,000000	769,000000	0,000000	2020-11-19T14:22:47:633
77,000000	0,000000	769,000000	0,000000	2020-11-19T14:22:47:674
77,000000	0,000000	769,000000	0,000000	2020-11-19T14:22:47:715
77,000000	0,000000	769,000000	0,000000	2020-11-19T14:22:47:754
77,000000	0,000000	769,000000	0,000000	2020-11-19T14:22:47:794
77,000000	0,000000	769,000000	0,000000	2020-11-19T14:22:47:836
77,000000	0,000000	769,000000	0,000000	2020-11-19T14:22:47:875
77,000000	0,000000	769,000000	0,000000	2020-11-19T14:22:47:914
77,000000	0,000000	769,000000	0,000000	2020-11-19T14:22:47:955
77,000000	0,000000	769,000000	0,000000	2020-11-19T14:22:47:994
78,000000	0,000000	769,000000	0,000000	2020-11-19T14:22:48:034
77,000000	0,000000	769,000000	0,000000	2020-11-19T14:22:48:074
77,000000	0,000000	769,000000	0,000000	2020-11-19T14:22:48:113
77,000000	0,000000	769,000000	0,000000	2020-11-19T14:22:48:154
77,000000	0,000000	747,000000	0,000000	2020-11-19T14:22:48:195
77,000000	0,000000	747,000000	0,000000	2020-11-19T14:22:48:234
77,000000	0,000000	747,000000	0,000000	2020-11-19T14:22:48:273
77,000000	0,000000	747,000000	0,000000	2020-11-19T14:22:48:315
77,000000	0,000000	747,000000	0,000000	2020-11-19T14:22:48:353
78,000000	0,000000	747,000000	0,000000	2020-11-19T14:22:48:395
78,000000	0,000000	747,000000	0,000000	2020-11-19T14:22:48:435
78,000000	0,000000	747,000000	0,000000	2020-11-19T14:22:48:476
77,000000	0,000000	747,000000	0,000000	2020-11-19T14:22:48:514
77,000000	0,000000	747,000000	0,000000	2020-11-19T14:22:48:555
77,000000	0,000000	747,000000	0,000000	2020-11-19T14:22:48:594
78,000000	0,000000	747,000000	0,000000	2020-11-19T14:22:48:635
77,000000	0,000000	747,000000	0,000000	2020-11-19T14:22:48:675
77,000000	0,000000	747,000000	0,000000	2020-11-19T14:22:48:715
78,000000	0,000000	747,000000	0,000000	2020-11-19T14:22:48:754
78,000000	0,000000	747,000000	0,000000	2020-11-19T14:22:48:795
78,000000	0,000000	747,000000	0,000000	2020-11-19T14:22:48:834
78,000000	0,000000	747,000000	0,000000	2020-11-19T14:22:48:875
78,000000	0,000000	753,000000	0,000000	2020-11-19T14:22:48:915
78,000000	0,000000	753,000000	0,000000	2020-11-19T14:22:48:955
78,000000	0,000000	753,000000	0,000000	2020-11-19T14:22:48:994
78,000000	0,000000	753,000000	0,000000	2020-11-19T14:22:49:035
78,000000	0,000000	753,000000	0,000000	2020-11-19T14:22:49:074
78,000000	0,000000	753,000000	0,000000	2020-11-19T14:22:49:115
78,000000	0,000000	753,000000	0,000000	2020-11-19T14:22:49:156
78,000000	0,000000	753,000000	0,000000	2020-11-19T14:22:49:195
78,000000	0,000000	753,000000	0,000000	2020-11-19T14:22:49:234
78,000000	0,000000	753,000000	0,000000	2020-11-19T14:22:49:275
78,000000	0,000000	753,000000	0,000000	2020-11-19T14:22:49:314
78,000000	0,000000	753,000000	0,000000	2020-11-19T14:22:49:355
78,000000	0,000000	753,000000	0,000000	2020-11-19T14:22:49:397
78,000000	0,000000	753,000000	0,000000	2020-11-19T14:22:49:436
78,000000	0,000000	753,000000	0,000000	2020-11-19T14:22:49:475
78,000000	0,000000	753,000000	0,000000	2020-11-19T14:22:49:516
78,000000	0,000000	753,000000	0,000000	2020-11-19T14:22:49:555
78,000000	0,000000	753,000000	0,000000	2020-11-19T14:22:49:596
78,000000	0,000000	799,000000	0,000000	2020-11-19T14:22:49:637
78,000000	0,000000	799,000000	0,000000	2020-11-19T14:22:49:676
78,000000	0,000000	799,000000	0,000000	2020-11-19T14:22:49:715
78,000000	0,000000	799,000000	0,000000	2020-11-19T14:22:49:756
78,000000	0,000000	799,000000	0,000000	2020-11-19T14:22:49:795
78,000000	0,000000	799,000000	0,000000	2020-11-19T14:22:49:836
78,000000	0,000000	799,000000	0,000000	2020-11-19T14:22:49:876
78,000000	0,000000	799,000000	0,000000	2020-11-19T14:22:49:916
78,000000	0,000000	799,000000	0,000000	2020-11-19T14:22:49:955
78,000000	0,000000	799,000000	0,000000	2020-11-19T14:22:49:996
78,000000	0,000000	799,000000	0,000000	2020-11-19T14:22:50:035
78,000000	0,000000	799,000000	0,000000	2020-11-19T14:22:50:076
78,000000	0,000000	799,000000	0,000000	2020-11-19T14:22:50:117
78,000000	0,000000	799,000000	0,000000	2020-11-19T14:22:50:156
78,000000	0,000000	799,000000	0,000000	2020-11-19T14:22:50:196
78,000000	0,000000	799,000000	0,000000	2020-11-19T14:22:50:236
78,000000	0,000000	799,000000	0,000000	2020-11-19T14:22:50:275
78,000000	0,000000	799,000000	0,000000	2020-11-19T14:22:50:317
78,000000	0,000000	761,000000	0,000000	2020-11-19T14:22:50:355
78,000000	0,000000	761,000000	0,000000	2020-11-19T14:22:50:397
78,000000	0,000000	761,000000	0,000000	2020-11-19T14:22:50:436
78,000000	0,000000	761,000000	0,000000	2020-11-19T14:22:50:476
78,000000	0,000000	761,000000	0,000000	2020-11-19T14:22:50:515
78,000000	0,000000	761,000000	0,000000	2020-11-19T14:22:50:557
78,000000	0,000000	761,000000	0,000000	2020-11-19T14:22:50:597
78,000000	0,000000	761,000000	0,000000	2020-11-19T14:22:50:637
78,000000	0,000000	761,000000	0,000000	2020-11-19T14:22:50:676
78,000000	0,000000	761,000000	0,000000	2020-11-19T14:22:50:717
78,000000	0,000000	761,000000	0,000000	2020-11-19T14:22:50:756
78,000000	0,000000	761,000000	0,000000	2020-11-19T14:22:50:797
78,000000	0,000000	761,000000	0,000000	2020-11-19T14:22:50:837
78,000000	0,000000	761,000000	0,000000	2020-11-19T14:22:50:877
78,000000	0,000000	761,000000	0,000000	2020-11-19T14:22:50:916
78,000000	0,000000	761,000000	0,000000	2020-11-19T14:22:50:957
78,000000	0,000000	761,000000	0,000000	2020-11-19T14:22:50:996
78,000000	0,000000	761,000000	0,000000	2020-11-19T14:22:51:038
78,000000	0,000000	761,000000	0,000000	2020-11-19T14:22:51:078
78,000000	0,000000	761,000000	0,000000	2020-11-19T14:22:51:118
78,000000	0,000000	761,000000	0,000000	2020-11-19T14:22:51:156
78,000000	0,000000	761,000000	0,000000	2020-11-19T14:22:51:197
78,000000	0,000000	761,000000	0,000000	2020-11-19T14:22:51:236
78,000000	0,000000	761,000000	0,000000	2020-11-19T14:22:51:277
78,000000	0,000000	770,000000	0,000000	2020-11-19T14:22:51:318
78,000000	0,000000	770,000000	0,000000	2020-11-19T14:22:51:358
78,000000	0,000000	770,000000	0,000000	2020-11-19T14:22:51:397
78,000000	0,000000	770,000000	0,000000	2020-11-19T14:22:51:437
78,000000	0,000000	770,000000	0,000000	2020-11-19T14:22:51:476
78,000000	0,000000	770,000000	0,000000	2020-11-19T14:22:51:518
78,000000	0,000000	770,000000	0,000000	2020-11-19T14:22:51:558
78,000000	0,000000	770,000000	0,000000	2020-11-19T14:22:51:598
78,000000	0,000000	770,000000	0,000000	2020-11-19T14:22:51:637
78,000000	0,000000	770,000000	0,000000	2020-11-19T14:22:51:678
78,000000	0,000000	770,000000	0,000000	2020-11-19T14:22:51:717
78,000000	0,000000	770,000000	0,000000	2020-11-19T14:22:51:758
78,000000	0,000000	770,000000	0,000000	2020-11-19T14:22:51:798
78,000000	0,000000	770,000000	0,000000	2020-11-19T14:22:51:838
78,000000	0,000000	770,000000	0,000000	2020-11-19T14:22:51:877
78,000000	0,000000	770,000000	0,000000	2020-11-19T14:22:51:917
78,000000	0,000000	770,000000	0,000000	2020-11-19T14:22:51:957
78,000000	0,000000	770,000000	0,000000	2020-11-19T14:22:51:998
78,000000	0,000000	782,000000	0,000000	2020-11-19T14:22:52:039
78,000000	0,000000	782,000000	0,000000	2020-11-19T14:22:52:078
78,000000	0,000000	782,000000	0,000000	2020-11-19T14:22:52:117
78,000000	0,000000	782,000000	0,000000	2020-11-19T14:22:52:158
78,000000	0,000000	782,000000	0,000000	2020-11-19T14:22:52:197
78,000000	0,000000	782,000000	0,000000	2020-11-19T14:22:52:238
78,000000	0,000000	782,000000	0,000000	2020-11-19T14:22:52:279
78,000000	0,000000	782,000000	0,000000	2020-11-19T14:22:52:318
78,000000	0,000000	782,000000	0,000000	2020-11-19T14:22:52:357
78,000000	0,000000	782,000000	0,000000	2020-11-19T14:22:52:399
78,000000	0,000000	782,000000	0,000000	2020-11-19T14:22:52:437
78,000000	0,000000	782,000000	0,000000	2020-11-19T14:22:52:479
78,000000	0,000000	782,000000	0,000000	2020-11-19T14:22:52:519
78,000000	0,000000	782,000000	0,000000	2020-11-19T14:22:52:559
78,000000	0,000000	782,000000	0,000000	2020-11-19T14:22:52:598
78,000000	0,000000	782,000000	0,000000	2020-11-19T14:22:52:638
78,000000	0,000000	782,000000	0,000000	2020-11-19T14:22:52:678
78,000000	0,000000	782,000000	0,000000	2020-11-19T14:22:52:719
78,000000	0,000000	782,000000	0,000000	2020-11-19T14:22:52:760
78,000000	0,000000	782,000000	0,000000	2020-11-19T14:22:52:799
78,000000	0,000000	782,000000	0,000000	2020-11-19T14:22:52:838
78,000000	0,000000	782,000000	0,000000	2020-11-19T14:22:52:879
78,000000	0,000000	782,000000	0,000000	2020-11-19T14:22:52:918
78,000000	0,000000	782,000000	0,000000	2020-11-19T14:22:52:959
78,000000	0,000000	782,000000	0,000000	2020-11-19T14:22:52:998
78,000000	0,000000	782,000000	0,000000	2020-11-19T14:22:53:038
78,000000	0,000000	782,000000	0,000000	2020-11-19T14:22:53:078
78,000000	0,000000	782,000000	0,000000	2020-11-19T14:22:53:119
78,000000	0,000000	782,000000	0,000000	2020-11-19T14:22:53:158
78,000000	0,000000	782,000000	0,000000	2020-11-19T14:22:53:200
78,000000	0,000000	782,000000	0,000000	2020-11-19T14:22:53:240
78,000000	0,000000	782,000000	0,000000	2020-11-19T14:22:53:279
78,000000	0,000000	782,000000	0,000000	2020-11-19T14:22:53:318
78,000000	0,000000	782,000000	0,000000	2020-11-19T14:22:53:359
78,000000	0,000000	782,000000	0,000000	2020-11-19T14:22:53:399
78,000000	0,000000	782,000000	0,000000	2020-11-19T14:22:53:440
78,000000	0,000000	796,000000	0,000000	2020-11-19T14:22:53:479
78,000000	0,000000	796,000000	0,000000	2020-11-19T14:22:53:519
78,000000	0,000000	796,000000	0,000000	2020-11-19T14:22:53:559
78,000000	0,000000	796,000000	0,000000	2020-11-19T14:22:53:600
78,000000	0,000000	796,000000	0,000000	2020-11-19T14:22:53:639
78,000000	0,000000	796,000000	0,000000	2020-11-19T14:22:53:680
78,000000	0,000000	796,000000	0,000000	2020-11-19T14:22:53:720
77,000000	0,000000	796,000000	0,000000	2020-11-19T14:22:53:760
78,000000	0,000000	796,000000	0,000000	2020-11-19T14:22:53:799
78,000000	0,000000	796,000000	0,000000	2020-11-19T14:22:53:851
78,000000	0,000000	796,000000	0,000000	2020-11-19T14:22:53:879
78,000000	0,000000	796,000000	0,000000	2020-11-19T14:22:53:920
78,000000	0,000000	796,000000	0,000000	2020-11-19T14:22:53:960
78,000000	0,000000	796,000000	0,000000	2020-11-19T14:22:54:000
78,000000	0,000000	796,000000	0,000000	2020-11-19T14:22:54:039
78,000000	0,000000	796,000000	0,000000	2020-11-19T14:22:54:080
78,000000	0,000000	796,000000	0,000000	2020-11-19T14:22:54:119
77,000000	0,000000	796,000000	0,000000	2020-11-19T14:22:54:160
78,000000	0,000000	796,000000	0,000000	2020-11-19T14:22:54:201
78,000000	0,000000	796,000000	0,000000	2020-11-19T14:22:54:240
78,000000	0,000000	796,000000	0,000000	2020-11-19T14:22:54:279
78,000000	0,000000	796,000000	0,000000	2020-11-19T14:22:54:320
78,000000	0,000000	796,000000	0,000000	2020-11-19T14:22:54:359
78,000000	0,000000	796,000000	0,000000	2020-11-19T14:22:54:401
78,000000	0,000000	762,000000	0,000000	2020-11-19T14:22:54:447
78,000000	0,000000	762,000000	0,000000	2020-11-19T14:22:54:480
77,000000	0,000000	762,000000	0,000000	2020-11-19T14:22:54:520
78,000000	0,000000	762,000000	0,000000	2020-11-19T14:22:54:560
78,000000	0,000000	762,000000	0,000000	2020-11-19T14:22:54:600
78,000000	0,000000	762,000000	0,000000	2020-11-19T14:22:54:641
78,000000	0,000000	762,000000	0,000000	2020-11-19T14:22:54:680
78,000000	0,000000	762,000000	0,000000	2020-11-19T14:22:54:720
78,000000	0,000000	762,000000	0,000000	2020-11-19T14:22:54:760
78,000000	0,000000	762,000000	0,000000	2020-11-19T14:22:54:801
78,000000	0,000000	762,000000	0,000000	2020-11-19T14:22:54:840
78,000000	0,000000	762,000000	0,000000	2020-11-19T14:22:54:881
77,000000	0,000000	762,000000	0,000000	2020-11-19T14:22:54:921
78,000000	0,000000	762,000000	0,000000	2020-11-19T14:22:54:961
78,000000	0,000000	762,000000	0,000000	2020-11-19T14:22:55:000
78,000000	0,000000	762,000000	0,000000	2020-11-19T14:22:55:041
78,000000	0,000000	762,000000	0,000000	2020-11-19T14:22:55:080
78,000000	0,000000	762,000000	0,000000	2020-11-19T14:22:55:121
78,000000	0,000000	781,000000	0,000000	2020-11-19T14:22:55:162
78,000000	0,000000	781,000000	0,000000	2020-11-19T14:22:55:201
78,000000	0,000000	781,000000	0,000000	2020-11-19T14:22:55:240
77,000000	0,000000	781,000000	0,000000	2020-11-19T14:22:55:281
77,000000	0,000000	781,000000	0,000000	2020-11-19T14:22:55:320
78,000000	0,000000	781,000000	0,000000	2020-11-19T14:22:55:361
78,000000	0,000000	781,000000	0,000000	2020-11-19T14:22:55:402
78,000000	0,000000	781,000000	0,000000	2020-11-19T14:22:55:441
78,000000	0,000000	781,000000	0,000000	2020-11-19T14:22:55:480
77,000000	0,000000	781,000000	0,000000	2020-11-19T14:22:55:521
77,000000	0,000000	781,000000	0,000000	2020-11-19T14:22:55:560
78,000000	0,000000	781,000000	0,000000	2020-11-19T14:22:55:602
78,000000	0,000000	781,000000	0,000000	2020-11-19T14:22:55:642
77,000000	0,000000	781,000000	0,000000	2020-11-19T14:22:55:681
77,000000	0,000000	781,000000	0,000000	2020-11-19T14:22:55:721
77,000000	0,000000	781,000000	0,000000	2020-11-19T14:22:55:761
78,000000	0,000000	781,000000	0,000000	2020-11-19T14:22:55:801
78,000000	0,000000	781,000000	0,000000	2020-11-19T14:22:55:873
77,000000	0,000000	801,000000	0,000000	2020-11-19T14:22:55:884
77,000000	0,000000	801,000000	0,000000	2020-11-19T14:22:55:923
77,000000	0,000000	801,000000	0,000000	2020-11-19T14:22:55:964
77,000000	0,000000	801,000000	0,000000	2020-11-19T14:22:56:009
77,000000	0,000000	801,000000	0,000000	2020-11-19T14:22:56:041
77,000000	0,000000	801,000000	0,000000	2020-11-19T14:22:56:082
77,000000	0,000000	801,000000	0,000000	2020-11-19T14:22:56:122
77,000000	0,000000	801,000000	0,000000	2020-11-19T14:22:56:163
78,000000	0,000000	801,000000	0,000000	2020-11-19T14:22:56:201
77,000000	0,000000	801,000000	0,000000	2020-11-19T14:22:56:242
77,000000	0,000000	801,000000	0,000000	2020-11-19T14:22:56:281
77,000000	0,000000	801,000000	0,000000	2020-11-19T14:22:56:322
77,000000	0,000000	801,000000	0,000000	2020-11-19T14:22:56:362
77,000000	0,000000	801,000000	0,000000	2020-11-19T14:22:56:402
