x	y	z	ts
4,072228	1,528152	-1,416916	2020-11-19T14:21:39:591
-0,426484	-1,559152	-1,117181	2020-11-19T14:21:39:591
-0,564832	-1,635526	-1,098389	2020-11-19T14:21:39:592
-0,640948	-1,686615	-0,032987	2020-11-19T14:21:39:592
-0,976167	-2,031613	0,641603	2020-11-19T14:21:39:592
-1,250881	-3,293578	0,464641	2020-11-19T14:21:39:593
-1,240208	-3,121923	-0,195972	2020-11-19T14:21:39:593
-1,036500	-2,630338	-0,974109	2020-11-19T14:21:39:594
-1,162553	-2,890999	-0,538924	2020-11-19T14:21:39:594
-0,847244	-3,052195	0,005767	2020-11-19T14:21:39:617
-0,155592	-3,330434	0,467783	2020-11-19T14:21:39:619
0,075663	-3,355618	0,330052	2020-11-19T14:21:39:623
0,190519	-2,159207	-0,177226	2020-11-19T14:21:39:643
-0,101544	-1,594310	-0,509428	2020-11-19T14:21:39:663
-0,584526	-2,521733	-0,299582	2020-11-19T14:21:39:683
-0,675409	-3,047543	0,096780	2020-11-19T14:21:39:703
-1,127181	-2,127401	0,691994	2020-11-19T14:21:39:724
-1,508593	-1,634018	1,170444	2020-11-19T14:21:39:743
-2,224764	-0,810482	2,824125	2020-11-19T14:21:39:763
-2,127611	-1,162530	4,121154	2020-11-19T14:21:39:784
-1,332278	-1,687270	1,540962	2020-11-19T14:21:39:803
-1,311373	-1,443006	-0,256621	2020-11-19T14:21:39:824
-1,498411	-0,301838	-0,754107	2020-11-19T14:21:39:844
-1,139841	0,611329	-0,442531	2020-11-19T14:21:39:863
-0,942506	0,406660	0,264395	2020-11-19T14:21:39:884
-0,777846	0,167158	0,742057	2020-11-19T14:21:39:903
-0,494205	-0,034490	0,443343	2020-11-19T14:21:39:924
-0,582662	0,060021	0,052876	2020-11-19T14:21:39:943
-0,550450	0,095675	0,030307	2020-11-19T14:21:39:964
-0,592572	-0,096613	0,123829	2020-11-19T14:21:39:984
-0,672433	-0,397992	0,213010	2020-11-19T14:21:40:003
-0,494910	-0,440244	0,235259	2020-11-19T14:21:40:024
0,338809	-1,316236	-1,439132	2020-11-19T14:21:40:043
0,113062	-1,059801	-1,189631	2020-11-19T14:21:40:064
0,077562	0,193277	-0,529088	2020-11-19T14:21:40:084
-0,380004	-0,152844	0,372410	2020-11-19T14:21:40:104
-0,403628	-0,718513	0,533541	2020-11-19T14:21:40:124
-0,363337	-0,559549	-0,112795	2020-11-19T14:21:40:144
-0,392468	-0,510533	-0,413539	2020-11-19T14:21:40:163
-0,221981	-0,630330	-0,163561	2020-11-19T14:21:40:185
-0,152367	-0,478732	0,077537	2020-11-19T14:21:40:204
-0,026848	-0,239687	0,046608	2020-11-19T14:21:40:224
-0,007706	-0,124831	-0,147210	2020-11-19T14:21:40:243
-0,078572	-0,131280	-0,305199	2020-11-19T14:21:40:264
-0,145090	-0,213657	-0,125197	2020-11-19T14:21:40:284
-0,195340	-0,271084	-0,110840	2020-11-19T14:21:40:304
-0,153076	-0,444734	0,021930	2020-11-19T14:21:40:324
-0,169665	-0,455065	-0,078841	2020-11-19T14:21:40:344
-0,173290	-0,306484	-0,113971	2020-11-19T14:21:40:364
-0,184140	-0,156669	-0,225158	2020-11-19T14:21:40:385
-0,097218	0,008199	-0,246209	2020-11-19T14:21:40:404
-0,152065	-0,069258	-0,127361	2020-11-19T14:21:40:424
-0,149820	-0,145827	0,134571	2020-11-19T14:21:40:444
-0,110225	-0,432137	-0,006909	2020-11-19T14:21:40:464
-0,083904	-0,147391	-0,258156	2020-11-19T14:21:40:484
-0,065204	0,078157	-0,334856	2020-11-19T14:21:40:504
-0,133355	0,065354	-0,223861	2020-11-19T14:21:40:524
-0,188339	0,098812	0,021232	2020-11-19T14:21:40:544
-0,101830	-0,017289	-0,110343	2020-11-19T14:21:40:564
-0,013099	-0,014429	-0,214272	2020-11-19T14:21:40:586
0,023431	-0,192027	-0,236702	2020-11-19T14:21:40:606
-0,081599	-0,179491	0,013894	2020-11-19T14:21:40:626
-0,087371	-0,105331	-0,085107	2020-11-19T14:21:40:647
-0,042655	0,046254	-0,271749	2020-11-19T14:21:40:666
-0,035714	-0,070348	-0,245929	2020-11-19T14:21:40:691
0,014388	-0,185093	0,018649	2020-11-19T14:21:40:706
-0,028103	-0,262727	0,027236	2020-11-19T14:21:40:727
0,012440	-0,144252	-0,140281	2020-11-19T14:21:40:746
-0,023564	-0,047345	-0,352390	2020-11-19T14:21:40:768
-0,125773	0,082347	-0,193576	2020-11-19T14:21:40:787
0,024460	0,075939	-0,163206	2020-11-19T14:21:40:808
0,005317	-0,005417	-0,258920	2020-11-19T14:21:40:827
-0,013567	-0,170133	-0,074018	2020-11-19T14:21:40:847
-0,031540	-0,217073	0,008046	2020-11-19T14:21:40:867
0,029999	-0,134063	-0,157861	2020-11-19T14:21:40:888
0,015891	0,051941	-0,224249	2020-11-19T14:21:40:906
0,023423	0,207848	-0,268501	2020-11-19T14:21:40:930
0,057558	0,195897	-0,176025	2020-11-19T14:21:40:947
0,024059	-0,079277	-0,030063	2020-11-19T14:21:40:968
0,134419	-0,176952	-0,123649	2020-11-19T14:21:40:987
0,105706	-0,131489	-0,035114	2020-11-19T14:21:41:007
-0,070244	-0,202914	-0,221528	2020-11-19T14:21:41:027
0,253521	-0,200741	-0,437072	2020-11-19T14:21:41:048
0,202182	-0,406419	-0,347457	2020-11-19T14:21:41:067
0,134554	-0,074468	-0,154468	2020-11-19T14:21:41:088
0,235286	0,211063	-0,455894	2020-11-19T14:21:41:136
-0,819330	0,479367	-0,758142	2020-11-19T14:21:41:137
-1,179260	0,558487	-1,099158	2020-11-19T14:21:41:154
-2,118813	0,121840	0,944828	2020-11-19T14:21:41:189
-3,245114	-1,575086	1,717043	2020-11-19T14:21:41:190
-4,245654	-1,358035	1,601872	2020-11-19T14:21:41:214
-4,811114	-0,510491	0,851144	2020-11-19T14:21:41:227
-4,709293	-0,490837	0,846746	2020-11-19T14:21:41:248
-4,251869	-1,622363	1,792768	2020-11-19T14:21:41:267
-3,614848	-2,325669	1,548960	2020-11-19T14:21:41:288
-3,286208	-1,280208	0,610656	2020-11-19T14:21:41:307
-2,683048	-0,391871	0,107658	2020-11-19T14:21:41:327
-1,821445	-0,044398	-0,079727	2020-11-19T14:21:41:347
-1,823837	-0,312394	0,362945	2020-11-19T14:21:41:368
-1,533781	-0,421246	0,391860	2020-11-19T14:21:41:387
-1,115254	-0,335031	0,005023	2020-11-19T14:21:41:410
-0,931093	-0,313091	-0,274861	2020-11-19T14:21:41:428
-0,849737	-0,296341	-0,303576	2020-11-19T14:21:41:448
-0,812689	-0,304264	-0,120699	2020-11-19T14:21:41:467
-0,644239	-0,247531	-0,090776	2020-11-19T14:21:41:488
-0,661418	-0,438660	-0,009433	2020-11-19T14:21:41:507
-0,533121	-0,427559	-0,001929	2020-11-19T14:21:41:529
-0,571489	-0,301642	-0,178195	2020-11-19T14:21:41:547
-0,549915	-0,302281	-0,081484	2020-11-19T14:21:41:568
-0,450010	-0,455477	-0,071461	2020-11-19T14:21:41:588
-0,399761	-0,259265	-0,131281	2020-11-19T14:21:41:608
-0,359703	-0,229767	-0,231480	2020-11-19T14:21:41:627
-0,286286	-0,152233	-0,132187	2020-11-19T14:21:41:650
-0,256157	-0,240105	-0,167144	2020-11-19T14:21:41:668
-0,253764	-0,199427	-0,191072	2020-11-19T14:21:41:690
-0,283208	-0,364278	-0,000432	2020-11-19T14:21:41:707
-0,232121	-0,554652	0,095134	2020-11-19T14:21:41:729
-0,176985	-0,389334	-0,125323	2020-11-19T14:21:41:747
-0,163481	-0,131215	-0,210788	2020-11-19T14:21:41:771
-0,223612	0,121571	-0,304880	2020-11-19T14:21:41:787
-0,190844	0,033977	-0,188598	2020-11-19T14:21:41:809
-0,188359	-0,256960	0,001405	2020-11-19T14:21:41:828
-0,133303	-0,384394	-0,031425	2020-11-19T14:21:41:849
-0,127099	-0,429090	-0,202389	2020-11-19T14:21:41:867
-0,156663	-0,014296	-0,204331	2020-11-19T14:21:41:890
-0,098309	-0,003449	-0,038345	2020-11-19T14:21:41:908
0,004583	-0,147019	-0,117309	2020-11-19T14:21:41:929
-0,028481	0,008630	-0,229468	2020-11-19T14:21:41:947
-0,115087	-0,094901	-0,148304	2020-11-19T14:21:41:969
-0,092947	-0,353805	0,062187	2020-11-19T14:21:41:988
-0,103557	-0,389184	-0,063764	2020-11-19T14:21:42:008
-0,052497	0,055725	-0,283695	2020-11-19T14:21:42:028
0,014345	0,025291	-0,247256	2020-11-19T14:21:42:049
-0,018569	-0,065450	-0,083047	2020-11-19T14:21:42:067
-0,005065	-0,153399	-0,068878	2020-11-19T14:21:42:089
-0,018247	-0,109284	-0,252364	2020-11-19T14:21:42:107
-0,005047	-0,101942	-0,160764	2020-11-19T14:21:42:129
-0,053753	-0,038551	-0,093296	2020-11-19T14:21:42:149
-0,038705	-0,028826	-0,167151	2020-11-19T14:21:42:169
-0,045883	-0,086254	-0,167151	2020-11-19T14:21:42:188
0,062609	-0,064484	-0,113429	2020-11-19T14:21:42:209
-0,008562	-0,011053	-0,174692	2020-11-19T14:21:42:228
0,011113	-0,131377	0,014599	2020-11-19T14:21:42:248
-0,033502	-0,575562	0,276741	2020-11-19T14:21:42:268
-0,005269	-0,344746	-0,045539	2020-11-19T14:21:42:289
0,004871	-0,001886	-0,360182	2020-11-19T14:21:42:308
-0,093235	0,141684	-0,247720	2020-11-19T14:21:42:329
-0,030351	0,104631	-0,041848	2020-11-19T14:21:42:348
-0,088535	-0,281839	0,163306	2020-11-19T14:21:42:369
-0,018983	-0,541423	-0,000924	2020-11-19T14:21:42:388
0,002444	-0,167670	-0,251057	2020-11-19T14:21:42:409
-0,033474	0,065694	-0,285187	2020-11-19T14:21:42:428
-0,033474	0,312155	-0,203832	2020-11-19T14:21:42:448
0,050221	0,257201	-0,228184	2020-11-19T14:21:42:468
0,046551	-0,123915	0,044229	2020-11-19T14:21:42:489
-0,005692	-0,593806	0,156740	2020-11-19T14:21:42:508
-0,008427	-0,403360	-0,202070	2020-11-19T14:21:42:530
-0,011485	0,032248	-0,235393	2020-11-19T14:21:42:548
-0,028235	0,283494	-0,199500	2020-11-19T14:21:42:569
0,008678	0,237828	-0,195275	2020-11-19T14:21:42:589
0,013343	-0,059614	-0,069299	2020-11-19T14:21:42:610
-0,007374	-0,206941	-0,098558	2020-11-19T14:21:42:629
0,009375	-0,135156	-0,184700	2020-11-19T14:21:42:649
-0,071316	-0,011857	-0,247198	2020-11-19T14:21:42:668
-0,001161	0,142842	-0,250899	2020-11-19T14:21:42:690
-0,013216	0,197309	0,056825	2020-11-19T14:21:42:708
0,005986	-0,716202	0,219694	2020-11-19T14:21:42:730
-0,032975	-0,368001	-0,043954	2020-11-19T14:21:42:750
0,091452	-0,212467	-0,230593	2020-11-19T14:21:42:806
-0,077057	-0,039428	-0,037979	2020-11-19T14:21:42:807
-0,131057	-0,221219	-0,063266	2020-11-19T14:21:42:832
-0,090491	-0,097440	-0,211934	2020-11-19T14:21:42:833
-0,007281	0,082618	-0,465435	2020-11-19T14:21:42:852
0,179554	0,243111	-0,661634	2020-11-19T14:21:42:872
0,163339	0,104083	-0,489312	2020-11-19T14:21:42:890
0,282083	-0,250802	-0,499194	2020-11-19T14:21:42:908
0,277584	-0,361555	-0,554257	2020-11-19T14:21:42:930
0,181076	-0,063582	-0,356839	2020-11-19T14:21:42:949
-0,217298	-0,047459	0,155222	2020-11-19T14:21:42:970
-0,384005	0,059928	0,663805	2020-11-19T14:21:42:989
-0,251530	-0,346220	0,323277	2020-11-19T14:21:43:010
-0,183717	-0,531401	-0,102649	2020-11-19T14:21:43:029
-0,325273	-0,478619	-0,195404	2020-11-19T14:21:43:050
-0,473310	-0,565210	0,395126	2020-11-19T14:21:43:069
-0,638271	-1,048857	0,267361	2020-11-19T14:21:43:093
-1,250834	-0,965109	0,090292	2020-11-19T14:21:43:110
-1,030785	-1,156236	0,057745	2020-11-19T14:21:43:131
-0,402506	-0,983102	-0,054956	2020-11-19T14:21:43:149
-0,695020	-1,140742	0,146453	2020-11-19T14:21:43:170
-1,120139	-2,074963	0,763017	2020-11-19T14:21:43:190
-1,539153	-3,748046	1,805924	2020-11-19T14:21:43:210
-1,719162	3,905004	1,591117	2020-11-19T14:21:43:229
-1,783818	2,798034	0,652225	2020-11-19T14:21:43:250
-1,765389	2,303258	0,116720	2020-11-19T14:21:43:269
-1,632935	2,190854	-0,242746	2020-11-19T14:21:43:291
-1,593305	1,600794	-0,732428	2020-11-19T14:21:43:309
-1,498984	1,722852	-0,817727	2020-11-19T14:21:43:331
-1,438787	1,667088	-0,693152	2020-11-19T14:21:43:349
-1,352448	1,308257	-0,698159	2020-11-19T14:21:43:370
-1,163108	1,278865	-0,729817	2020-11-19T14:21:43:389
-0,776682	1,277875	-0,770251	2020-11-19T14:21:43:411
-0,713620	1,059148	-0,826189	2020-11-19T14:21:43:429
-0,684695	0,958471	-0,816357	2020-11-19T14:21:43:451
-0,595036	0,881695	-0,839721	2020-11-19T14:21:43:469
-0,456997	0,866622	-0,600972	2020-11-19T14:21:43:491
-0,528067	0,633497	-0,230607	2020-11-19T14:21:43:509
-0,420888	0,468459	-0,295278	2020-11-19T14:21:43:531
0,058367	0,157905	-0,482182	2020-11-19T14:21:43:549
0,533962	-0,696607	-0,561874	2020-11-19T14:21:43:572
0,619984	-1,443616	-0,599872	2020-11-19T14:21:43:589
1,253930	-1,133814	-0,439465	2020-11-19T14:21:43:611
1,826735	-0,703363	-0,389305	2020-11-19T14:21:43:629
1,990808	-0,951532	-0,533519	2020-11-19T14:21:43:651
1,769543	-1,711325	-0,619028	2020-11-19T14:21:43:669
1,653869	-2,619853	0,097353	2020-11-19T14:21:43:692
2,503391	-2,768392	0,065567	2020-11-19T14:21:43:709
3,449554	-2,146034	-0,826152	2020-11-19T14:21:43:732
3,416512	-1,845232	-1,596419	2020-11-19T14:21:43:756
3,411778	-1,840065	-2,383427	2020-11-19T14:21:43:771
4,131843	-2,277902	-2,549819	2020-11-19T14:21:43:790
4,233988	-1,948236	-2,229653	2020-11-19T14:21:43:812
3,797593	-2,446712	-2,409322	2020-11-19T14:21:43:829
3,008999	-3,194259	-1,516994	2020-11-19T14:21:43:851
3,785435	-1,115876	2,176783	2020-11-19T14:21:43:870
-0,046436	-6,202405	3,521920	2020-11-19T14:21:43:892
1,550099	-1,227431	-0,400979	2020-11-19T14:21:43:909
2,934936	0,870844	-1,466764	2020-11-19T14:21:43:932
0,980693	-0,135707	0,815465	2020-11-19T14:21:43:950
-0,486866	-0,789146	0,074129	2020-11-19T14:21:43:972
0,619187	-0,225885	-0,398027	2020-11-19T14:21:43:990
0,419282	-0,489443	-0,192982	2020-11-19T14:21:44:012
-0,124715	-0,717871	-0,333762	2020-11-19T14:21:44:030
0,310018	-0,379037	-0,267791	2020-11-19T14:21:44:054
0,362660	-0,424501	-0,186436	2020-11-19T14:21:44:072
0,394302	-0,950923	-0,161723	2020-11-19T14:21:44:093
0,262697	-1,453416	-0,669002	2020-11-19T14:21:44:110
0,513957	-1,747928	-0,487267	2020-11-19T14:21:44:132
0,643003	-1,608510	0,352215	2020-11-19T14:21:44:150
0,186562	-0,185626	-0,399909	2020-11-19T14:21:44:172
0,328646	-0,388795	-0,466864	2020-11-19T14:21:44:190
0,211398	-1,180820	-0,749217	2020-11-19T14:21:44:212
0,162468	-1,768250	-0,358636	2020-11-19T14:21:44:230
0,071541	-1,564861	-0,571597	2020-11-19T14:21:44:252
0,055079	-1,185039	-0,504959	2020-11-19T14:21:44:270
0,293994	-0,854676	-0,284616	2020-11-19T14:21:44:293
0,161648	-0,388941	-0,212441	2020-11-19T14:21:44:310
-0,091991	0,190123	-0,293797	2020-11-19T14:21:44:332
0,220693	0,259929	0,213902	2020-11-19T14:21:44:350
0,158032	-0,278153	-0,143590	2020-11-19T14:21:44:372
-0,105993	-1,182545	-0,401707	2020-11-19T14:21:44:390
0,006168	-0,808388	-0,557843	2020-11-19T14:21:44:412
0,179727	-0,750356	-0,235347	2020-11-19T14:21:44:430
0,131871	-0,585251	-0,515307	2020-11-19T14:21:44:452
-0,044180	-0,423428	-0,280365	2020-11-19T14:21:44:470
-0,030751	-0,084448	-0,243670	2020-11-19T14:21:44:493
-0,048171	-0,251869	-0,236223	2020-11-19T14:21:44:510
-0,158371	-0,141546	-0,124895	2020-11-19T14:21:44:533
-0,187657	-0,213399	-0,251060	2020-11-19T14:21:44:550
-0,185265	0,525982	-0,160132	2020-11-19T14:21:44:573
0,198413	0,057538	-0,010578	2020-11-19T14:21:44:591
0,071593	-0,413848	-0,041684	2020-11-19T14:21:44:612
0,018506	-0,648151	-0,190063	2020-11-19T14:21:44:630
-0,116941	-0,396405	-0,150198	2020-11-19T14:21:44:652
-0,048275	-0,209302	-0,259275	2020-11-19T14:21:44:670
-0,054399	-0,155289	-0,166131	2020-11-19T14:21:44:693
0,101987	-0,096646	-0,079695	2020-11-19T14:21:44:710
0,012867	-0,155252	-0,135657	2020-11-19T14:21:44:734
0,089437	-0,236608	-0,130872	2020-11-19T14:21:44:750
0,193382	-0,182299	-0,105925	2020-11-19T14:21:44:775
0,074819	-0,174740	-0,107224	2020-11-19T14:21:44:790
0,079605	-0,177132	-0,164653	2020-11-19T14:21:44:812
0,027168	-0,105303	-0,107482	2020-11-19T14:21:44:831
0,020808	-0,052847	-0,188211	2020-11-19T14:21:44:854
0,045655	0,001672	-0,111126	2020-11-19T14:21:44:870
0,145682	-0,200199	-0,115813	2020-11-19T14:21:44:894
0,217467	-0,238484	-0,146919	2020-11-19T14:21:44:910
0,224587	-0,094077	-0,114138	2020-11-19T14:21:44:933
0,137462	-0,043306	-0,112912	2020-11-19T14:21:44:951
0,063860	-0,029697	-0,102721	2020-11-19T14:21:44:973
-0,008137	-0,092054	-0,169281	2020-11-19T14:21:44:990
-0,118359	-0,052814	-0,165805	2020-11-19T14:21:45:014
-0,073582	-0,121701	-0,159363	2020-11-19T14:21:45:031
0,012559	0,050582	-0,030149	2020-11-19T14:21:45:053
0,069814	0,002347	-0,091976	2020-11-19T14:21:45:072
0,057850	-0,107723	-0,132654	2020-11-19T14:21:45:093
0,194961	-0,045319	-0,087205	2020-11-19T14:21:45:110
0,145371	-0,135151	-0,101528	2020-11-19T14:21:45:134
-0,014065	0,008582	-0,090224	2020-11-19T14:21:45:151
-0,085850	0,030117	-0,111759	2020-11-19T14:21:45:173
0,040499	0,136261	-0,079895	2020-11-19T14:21:45:191
0,039619	0,073604	-0,043574	2020-11-19T14:21:45:213
-0,019288	0,026135	-0,109261	2020-11-19T14:21:45:230
0,167261	0,033705	-0,085305	2020-11-19T14:21:45:255
0,080396	-0,194559	-0,144716	2020-11-19T14:21:45:271
0,066039	0,035152	-0,044217	2020-11-19T14:21:45:293
0,021372	0,134152	-0,068000	2020-11-19T14:21:45:310
0,051993	0,061488	-0,125501	2020-11-19T14:21:45:333
0,003424	0,108180	-0,064252	2020-11-19T14:21:45:351
0,077180	0,010192	-0,104946	2020-11-19T14:21:45:373
0,079115	0,055322	-0,036878	2020-11-19T14:21:45:391
0,095083	0,039412	-0,027823	2020-11-19T14:21:45:413
0,112850	-0,096058	-0,071465	2020-11-19T14:21:45:431
0,090887	0,080244	-0,018269	2020-11-19T14:21:45:453
0,083135	0,001256	-0,030704	2020-11-19T14:21:45:471
0,045667	0,040739	-0,038984	2020-11-19T14:21:45:496
0,112924	0,109700	-0,056250	2020-11-19T14:21:45:512
0,072246	0,169520	-0,068213	2020-11-19T14:21:45:534
0,093014	0,077864	-0,104536	2020-11-19T14:21:45:552
-0,002699	0,106578	-0,066252	2020-11-19T14:21:45:573
0,022070	0,082191	-0,118563	2020-11-19T14:21:45:592
0,031641	0,122869	-0,051563	2020-11-19T14:21:45:613
0,087233	0,093613	-0,063673	2020-11-19T14:21:45:631
0,123944	0,066665	-0,021486	2020-11-19T14:21:45:654
0,082210	-0,123881	-0,036368	2020-11-19T14:21:45:671
0,096437	0,005660	-0,049262	2020-11-19T14:21:45:694
0,110634	0,066351	-0,079359	2020-11-19T14:21:45:711
0,048334	0,035592	-0,040277	2020-11-19T14:21:45:737
0,128825	0,100358	-0,067029	2020-11-19T14:21:45:752
0,016362	0,100358	-0,062243	2020-11-19T14:21:45:774
0,087339	0,136508	-0,057135	2020-11-19T14:21:45:792
0,058625	0,131723	-0,071492	2020-11-19T14:21:45:814
0,035207	0,066961	-0,063303	2020-11-19T14:21:45:832
0,084074	0,057524	-0,025170	2020-11-19T14:21:45:853
0,065047	-0,022145	0,014492	2020-11-19T14:21:45:871
0,077501	0,005369	-0,119646	2020-11-19T14:21:45:894
0,118068	0,159932	-0,087279	2020-11-19T14:21:45:911
0,132581	0,089426	-0,024879	2020-11-19T14:21:45:934
0,122595	0,116528	-0,033532	2020-11-19T14:21:45:951
0,057545	0,115436	-0,022461	2020-11-19T14:21:45:976
0,075824	0,135807	-0,079132	2020-11-19T14:21:45:992
0,031317	0,108779	-0,037587	2020-11-19T14:21:46:014
0,059310	0,093025	0,003770	2020-11-19T14:21:46:032
0,059730	-0,146681	-0,177176	2020-11-19T14:21:46:055
0,119210	0,017913	-0,007194	2020-11-19T14:21:46:071
0,070369	0,419344	0,011506	2020-11-19T14:21:46:094
0,056226	0,286222	-0,003119	2020-11-19T14:21:46:111
-0,027782	0,188888	0,029342	2020-11-19T14:21:46:135
0,001888	0,014441	-0,029520	2020-11-19T14:21:46:151
0,114370	0,004222	0,043018	2020-11-19T14:21:46:174
0,114548	0,127441	-0,044683	2020-11-19T14:21:46:192
0,068546	0,103840	-0,022076	2020-11-19T14:21:46:215
0,094339	0,233486	0,044007	2020-11-19T14:21:46:232
0,076788	0,171206	0,002517	2020-11-19T14:21:46:254
0,081631	0,173633	0,008701	2020-11-19T14:21:46:271
0,088591	-0,113576	-0,094253	2020-11-19T14:21:46:295
0,093847	0,112179	-0,059005	2020-11-19T14:21:46:312
0,026594	0,189967	0,079236	2020-11-19T14:21:46:334
-0,018674	0,447672	0,074670	2020-11-19T14:21:46:352
-0,040210	0,174890	-0,004292	2020-11-19T14:21:46:375
0,051687	0,081791	-0,029296	2020-11-19T14:21:46:392
0,142636	-0,002002	-0,043676	2020-11-19T14:21:46:414
-0,375491	0,344245	-0,918277	2020-11-19T14:21:46:432
-0,027975	0,272760	-0,008189	2020-11-19T14:21:46:457
0,128441	0,251450	-0,048820	2020-11-19T14:21:46:472
-0,019914	0,220343	0,061251	2020-11-19T14:21:46:494
0,097032	0,214987	0,052879	2020-11-19T14:21:46:512
0,160357	0,123163	-0,065951	2020-11-19T14:21:46:536
0,086901	0,091341	-0,005048	2020-11-19T14:21:46:552
0,112157	0,110162	-0,028268	2020-11-19T14:21:46:574
0,000779	0,190858	-0,030131	2020-11-19T14:21:46:592
-0,013354	0,201154	0,013011	2020-11-19T14:21:46:615
0,039280	0,133677	0,010150	2020-11-19T14:21:46:632
0,076739	0,098290	-0,039642	2020-11-19T14:21:46:654
0,053907	0,185051	0,010666	2020-11-19T14:21:46:672
0,033442	0,246481	-0,042133	2020-11-19T14:21:46:696
0,136344	0,295007	0,040937	2020-11-19T14:21:46:713
0,138737	-0,028024	0,017010	2020-11-19T14:21:46:735
0,059978	0,077527	-0,011050	2020-11-19T14:21:46:752
0,090587	0,121641	-0,031219	2020-11-19T14:21:46:776
0,074635	0,141052	-0,040922	2020-11-19T14:21:46:792
-0,006169	0,125030	-0,023781	2020-11-19T14:21:46:814
0,028319	0,110000	-0,008820	2020-11-19T14:21:46:833
0,102497	0,191356	0,000752	2020-11-19T14:21:46:855
0,054014	0,189616	0,014298	2020-11-19T14:21:46:872
0,151764	0,101160	-0,030801	2020-11-19T14:21:46:895
0,018013	0,050884	-0,006577	2020-11-19T14:21:46:912
-0,009100	0,103705	-0,074646	2020-11-19T14:21:46:937
0,071963	0,120404	-0,050416	2020-11-19T14:21:46:953
0,057606	0,129976	-0,059988	2020-11-19T14:21:46:976
0,069598	0,135405	-0,053539	2020-11-19T14:21:46:994
0,100705	0,164119	-0,003289	2020-11-19T14:21:47:016
0,075464	0,124939	-0,058878	2020-11-19T14:21:47:033
0,028007	0,058545	0,007068	2020-11-19T14:21:47:055
0,113830	0,177753	-0,002733	2020-11-19T14:21:47:073
0,066519	0,182207	-0,070124	2020-11-19T14:21:47:096
0,142860	0,158526	-0,006414	2020-11-19T14:21:47:112
0,100785	0,114789	-0,050299	2020-11-19T14:21:47:136
0,034606	0,112422	-0,044703	2020-11-19T14:21:47:153
0,042471	0,124305	-0,063729	2020-11-19T14:21:47:178
0,030507	0,145841	-0,035016	2020-11-19T14:21:47:193
0,102375	0,083540	-0,007317	2020-11-19T14:21:47:214
-0,032853	0,012804	-0,019391	2020-11-19T14:21:47:233
0,092672	0,128799	-0,036544	2020-11-19T14:21:47:256
0,117462	0,098267	-0,066242	2020-11-19T14:21:47:272
0,040514	0,071318	-0,031028	2020-11-19T14:21:47:295
0,050437	0,124031	0,016912	2020-11-19T14:21:47:312
0,116869	0,028624	-0,022324	2020-11-19T14:21:47:336
0,058774	0,085472	-0,060674	2020-11-19T14:21:47:353
0,077917	0,219470	-0,022388	2020-11-19T14:21:47:375
0,130205	0,138068	-0,047325	2020-11-19T14:21:47:393
0,082324	0,065877	-0,024282	2020-11-19T14:21:47:417
0,077906	0,008248	-0,035640	2020-11-19T14:21:47:433
0,097528	0,126851	-0,012836	2020-11-19T14:21:47:455
0,093020	0,180232	-0,028192	2020-11-19T14:21:47:473
0,016672	0,080398	-0,013468	2020-11-19T14:21:47:496
0,138780	0,036620	0,136999	2020-11-19T14:21:47:513
0,058249	0,090619	-0,120398	2020-11-19T14:21:47:535
0,056479	0,281072	0,029689	2020-11-19T14:21:47:553
0,140899	0,095644	-0,018066	2020-11-19T14:21:47:576
-0,023198	-0,044818	-0,044996	2020-11-19T14:21:47:593
0,070645	0,074018	-0,055312	2020-11-19T14:21:47:615
0,105498	0,158040	-0,042400	2020-11-19T14:21:47:633
0,057304	0,095797	-0,053370	2020-11-19T14:21:47:658
0,040412	0,075433	0,006914	2020-11-19T14:21:47:673
-0,002008	0,050673	-0,030631	2020-11-19T14:21:47:696
0,044160	0,073123	-0,033597	2020-11-19T14:21:47:713
0,114037	0,120440	-0,059081	2020-11-19T14:21:47:736
0,108311	0,156078	-0,011816	2020-11-19T14:21:47:753
0,159860	0,103315	-0,018149	2020-11-19T14:21:47:775
0,035363	0,064147	-0,090014	2020-11-19T14:21:47:793
0,080074	0,249194	-0,026241	2020-11-19T14:21:47:816
0,076347	0,182378	-0,005401	2020-11-19T14:21:47:834
-0,042252	0,133938	-0,085788	2020-11-19T14:21:47:859
0,088106	0,017402	-0,066255	2020-11-19T14:21:47:873
0,108679	0,105129	-0,019218	2020-11-19T14:21:47:899
0,060823	0,169735	0,007103	2020-11-19T14:21:47:913
0,038970	0,019336	-0,059797	2020-11-19T14:21:47:936
0,064333	0,091137	-0,043180	2020-11-19T14:21:47:954
0,006905	0,141387	0,004676	2020-11-19T14:21:47:977
0,085612	0,130708	-0,041924	2020-11-19T14:21:47:993
0,059653	0,103042	-0,076273	2020-11-19T14:21:48:016
0,014153	0,134013	0,023177	2020-11-19T14:21:48:034
0,105081	0,119656	-0,062964	2020-11-19T14:21:48:056
0,069527	0,113968	-0,050682	2020-11-19T14:21:48:073
0,072770	0,114399	-0,037430	2020-11-19T14:21:48:096
0,055729	0,122232	-0,039594	2020-11-19T14:21:48:113
0,051418	0,119133	0,025848	2020-11-19T14:21:48:140
0,032276	0,076062	-0,055507	2020-11-19T14:21:48:154
0,045354	0,014447	-0,023005	2020-11-19T14:21:48:176
0,158573	0,117782	-0,037483	2020-11-19T14:21:48:194
0,035058	0,151948	-0,018624	2020-11-19T14:21:48:217
0,024476	0,120885	-0,069646	2020-11-19T14:21:48:234
0,065080	0,095681	-0,042529	2020-11-19T14:21:48:256
0,023884	0,082802	-0,065920	2020-11-19T14:21:48:274
0,019854	0,164647	-0,027323	2020-11-19T14:21:48:297
0,104270	0,215739	-0,021679	2020-11-19T14:21:48:314
0,091464	0,091026	-0,062526	2020-11-19T14:21:48:336
0,100973	0,160542	-0,047484	2020-11-19T14:21:48:354
0,105496	0,030911	-0,004968	2020-11-19T14:21:48:379
0,092637	-0,002291	-0,044017	2020-11-19T14:21:48:394
0,075788	0,122432	0,030507	2020-11-19T14:21:48:416
0,099924	0,087332	-0,088123	2020-11-19T14:21:48:434
0,097531	0,113653	0,000410	2020-11-19T14:21:48:457
0,109046	0,048034	-0,024343	2020-11-19T14:21:48:474
0,041953	0,019668	-0,023561	2020-11-19T14:21:48:496
0,066372	0,103369	-0,027302	2020-11-19T14:21:48:514
0,109443	0,151225	-0,022516	2020-11-19T14:21:48:537
0,041763	0,141803	-0,059777	2020-11-19T14:21:48:554
0,042687	0,046332	0,007453	2020-11-19T14:21:48:576
0,115229	0,088036	0,001802	2020-11-19T14:21:48:594
0,095529	0,132405	-0,033968	2020-11-19T14:21:48:618
0,091456	0,088921	-0,106163	2020-11-19T14:21:48:634
0,046918	0,208528	0,009465	2020-11-19T14:21:48:656
0,100355	0,060867	-0,042373	2020-11-19T14:21:48:674
0,071527	0,039568	-0,091883	2020-11-19T14:21:48:697
0,095181	0,116677	-0,072955	2020-11-19T14:21:48:714
0,158176	0,136449	0,053899	2020-11-19T14:21:48:737
0,053085	0,183336	0,009777	2020-11-19T14:21:48:754
0,020447	0,129023	-0,076940	2020-11-19T14:21:48:777
0,013875	0,088671	-0,099313	2020-11-19T14:21:48:794
0,098354	0,109772	-0,056379	2020-11-19T14:21:48:816
0,038918	0,109104	-0,036801	2020-11-19T14:21:48:834
0,069014	0,083955	-0,052866	2020-11-19T14:21:48:858
0,069886	0,147425	-0,051218	2020-11-19T14:21:48:874
0,048351	0,094783	-0,063182	2020-11-19T14:21:48:897
-0,007738	0,114281	-0,043412	2020-11-19T14:21:48:914
0,037726	0,157351	-0,036233	2020-11-19T14:21:48:938
0,118260	0,226923	-0,020187	2020-11-19T14:21:48:954
-0,006633	0,150105	0,034729	2020-11-19T14:21:48:977
0,093941	0,053184	0,007914	2020-11-19T14:21:48:995
0,046084	0,215896	-0,008836	2020-11-19T14:21:49:017
0,123401	0,229261	0,039109	2020-11-19T14:21:49:034
0,115661	0,057146	-0,020004	2020-11-19T14:21:49:058
0,074983	0,054753	-0,034362	2020-11-19T14:21:49:075
0,091240	0,071003	-0,044607	2020-11-19T14:21:49:099
0,040881	0,127371	-0,002391	2020-11-19T14:21:49:115
0,038488	0,151299	-0,009569	2020-11-19T14:21:49:137
0,077018	0,137089	-0,011527	2020-11-19T14:21:49:155
-0,016074	0,194736	-0,052081	2020-11-19T14:21:49:178
0,047570	0,123348	0,024538	2020-11-19T14:21:49:195
0,076284	0,156847	-0,008962	2020-11-19T14:21:49:217
0,033188	0,044381	0,003998	2020-11-19T14:21:49:235
0,035581	0,044381	-0,007967	2020-11-19T14:21:49:258
0,080865	0,197382	-0,036764	2020-11-19T14:21:49:275
0,016259	0,183025	-0,029587	2020-11-19T14:21:49:298
0,071476	0,096271	0,007811	2020-11-19T14:21:49:315
0,032423	0,183015	-0,041954	2020-11-19T14:21:49:340
0,097733	0,144130	-0,008946	2020-11-19T14:21:49:355
0,104912	0,191987	0,000626	2020-11-19T14:21:49:377
-0,029059	0,124709	-0,096540	2020-11-19T14:21:49:395
0,066925	0,100560	-0,056627	2020-11-19T14:21:49:418
0,119672	0,120094	-0,029129	2020-11-19T14:21:49:435
0,072035	0,086716	-0,049924	2020-11-19T14:21:49:457
0,094621	0,093662	-0,019155	2020-11-19T14:21:49:474
0,022270	0,187046	-0,003850	2020-11-19T14:21:49:498
0,013098	0,100617	0,000213	2020-11-19T14:21:49:515
0,056428	0,092654	-0,017877	2020-11-19T14:21:49:538
0,026186	0,026617	-0,057025	2020-11-19T14:21:49:555
0,049391	0,072232	0,029036	2020-11-19T14:21:49:580
0,042748	0,185550	-0,039919	2020-11-19T14:21:49:596
0,065671	0,165650	0,006813	2020-11-19T14:21:49:617
0,082754	0,144232	-0,077841	2020-11-19T14:21:49:637
0,088385	0,105955	-0,037382	2020-11-19T14:21:49:659
0,052493	0,239954	-0,046954	2020-11-19T14:21:49:675
0,056929	0,134584	-0,054833	2020-11-19T14:21:49:698
0,024523	0,176289	-0,019698	2020-11-19T14:21:49:715
0,034325	0,088821	-0,011649	2020-11-19T14:21:49:739
0,067403	0,208534	-0,078678	2020-11-19T14:21:49:755
0,062369	0,119513	-0,051203	2020-11-19T14:21:49:777
0,052546	0,074343	0,056561	2020-11-19T14:21:49:795
0,099927	0,117125	-0,010628	2020-11-19T14:21:49:819
0,052036	0,125603	0,007711	2020-11-19T14:21:49:836
0,027533	0,109281	-0,074546	2020-11-19T14:21:49:857
0,081848	0,098408	-0,064281	2020-11-19T14:21:49:876
0,044840	0,135254	-0,016186	2020-11-19T14:21:49:899
0,052215	0,141470	-0,027128	2020-11-19T14:21:49:915
0,107250	0,112756	-0,036700	2020-11-19T14:21:49:938
0,087049	0,114918	-0,044467	2020-11-19T14:21:49:956
0,070761	0,200942	-0,020864	2020-11-19T14:21:49:979
0,149339	0,112116	-0,046645	2020-11-19T14:21:49:996
0,048840	0,081010	-0,013146	2020-11-19T14:21:50:018
-0,020375	0,114126	-0,017070	2020-11-19T14:21:50:036
0,093923	0,131643	-0,048592	2020-11-19T14:21:50:060
0,079566	0,184285	-0,010307	2020-11-19T14:21:50:076
0,060705	0,114080	-0,010543	2020-11-19T14:21:50:098
0,006437	0,195455	-0,026117	2020-11-19T14:21:50:115
0,036120	0,120488	-0,047436	2020-11-19T14:21:50:139
0,056526	0,083204	0,016433	2020-11-19T14:21:50:156
0,119253	-0,028354	-0,048063	2020-11-19T14:21:50:178
0,003613	0,006084	-0,100244	2020-11-19T14:21:50:197
0,053862	0,125725	-0,014102	2020-11-19T14:21:50:218
0,092651	0,207656	-0,017179	2020-11-19T14:21:50:236
0,084404	0,075224	-0,083276	2020-11-19T14:21:50:258
0,030250	0,050152	-0,017368	2020-11-19T14:21:50:276
0,074232	0,101746	-0,021804	2020-11-19T14:21:50:301
0,131820	0,108180	-0,010800	2020-11-19T14:21:50:316
0,028929	0,103394	-0,041908	2020-11-19T14:21:50:338
0,047901	0,049738	-0,054380	2020-11-19T14:21:50:356
0,038330	0,152630	-0,042417	2020-11-19T14:21:50:379
0,115768	0,149391	-0,055607	2020-11-19T14:21:50:396
0,119627	0,177921	-0,038004	2020-11-19T14:21:50:418
0,092244	0,081201	-0,063829	2020-11-19T14:21:50:436
0,094149	0,150569	-0,011600	2020-11-19T14:21:50:458
0,074909	0,154230	-0,046907	2020-11-19T14:21:50:476
0,080717	0,043910	-0,069729	2020-11-19T14:21:50:499
0,095593	0,057411	-0,020504	2020-11-19T14:21:50:516
0,098876	0,032398	-0,063977	2020-11-19T14:21:50:542
0,054042	0,182439	-0,034071	2020-11-19T14:21:50:556
0,044471	0,144154	-0,005357	2020-11-19T14:21:50:578
0,071720	0,045269	-0,000766	2020-11-19T14:21:50:596
0,023092	0,145005	-0,082950	2020-11-19T14:21:50:619
0,054099	0,162185	-0,053739	2020-11-19T14:21:50:636
0,076397	0,163421	-0,032578	2020-11-19T14:21:50:658
0,101738	0,089893	-0,028654	2020-11-19T14:21:50:676
0,037429	0,017988	-0,061500	2020-11-19T14:21:50:699
0,088909	0,258043	0,017554	2020-11-19T14:21:50:716
0,132853	0,112897	-0,054694	2020-11-19T14:21:50:739
0,077315	0,084697	-0,049502	2020-11-19T14:21:50:756
0,118192	0,079214	-0,052888	2020-11-19T14:21:50:782
0,002236	0,158879	-0,038727	2020-11-19T14:21:50:797
0,059664	0,101451	-0,014798	2020-11-19T14:21:50:818
0,062389	0,155111	-0,014328	2020-11-19T14:21:50:836
0,045825	0,039671	-0,074366	2020-11-19T14:21:50:858
0,030265	0,180963	0,009201	2020-11-19T14:21:50:876
0,081773	0,153509	-0,016025	2020-11-19T14:21:50:898
0,004006	0,140188	-0,055041	2020-11-19T14:21:50:916
0,076585	0,102354	-0,059196	2020-11-19T14:21:50:938
0,115433	0,066311	-0,051730	2020-11-19T14:21:50:956
0,084327	0,150060	-0,051730	2020-11-19T14:21:50:978
0,074171	0,121783	-0,010952	2020-11-19T14:21:50:997
0,066518	0,131751	-0,029994	2020-11-19T14:21:51:019
0,044867	0,088394	0,022512	2020-11-19T14:21:51:037
0,110171	0,165185	0,003559	2020-11-19T14:21:51:057
0,067647	0,201520	-0,031012	2020-11-19T14:21:51:075
0,017994	0,072037	0,020600	2020-11-19T14:21:51:098
0,010608	0,107304	-0,031000	2020-11-19T14:21:51:115
0,043982	0,189395	-0,059092	2020-11-19T14:21:51:137
0,102080	0,141184	-0,064931	2020-11-19T14:21:51:155
0,080864	0,129714	-0,024335	2020-11-19T14:21:51:177
0,001158	0,114224	-0,033484	2020-11-19T14:21:51:196
0,045561	0,127957	-0,082475	2020-11-19T14:21:51:217
0,033299	0,144551	-0,045355	2020-11-19T14:21:51:236
0,069361	0,126293	-0,025484	2020-11-19T14:21:51:259
0,057809	0,122645	0,034869	2020-11-19T14:21:51:276
0,087152	0,134867	-0,015183	2020-11-19T14:21:51:298
-0,003493	0,101268	0,007688	2020-11-19T14:21:51:316
0,010863	0,165874	-0,059312	2020-11-19T14:21:51:338
0,119413	0,131607	-0,073531	2020-11-19T14:21:51:355
0,045134	0,166224	-0,020771	2020-11-19T14:21:51:377
-0,013274	0,124578	-0,004229	2020-11-19T14:21:51:396
0,029065	0,065404	-0,003386	2020-11-19T14:21:51:417
0,014370	0,078180	0,050889	2020-11-19T14:21:51:436
0,081643	0,225406	-0,055880	2020-11-19T14:21:51:457
0,026786	0,145791	-0,023632	2020-11-19T14:21:51:476
0,067155	0,145296	0,000385	2020-11-19T14:21:51:499
0,026041	0,136585	-0,067320	2020-11-19T14:21:51:516
-0,000947	0,071704	0,021346	2020-11-19T14:21:51:538
0,092242	0,129688	-0,061849	2020-11-19T14:21:51:556
0,066076	0,107191	-0,005142	2020-11-19T14:21:51:578
0,033549	0,202345	-0,078023	2020-11-19T14:21:51:597
0,086191	0,140132	-0,032560	2020-11-19T14:21:51:617
0,003402	0,177633	-0,047448	2020-11-19T14:21:51:636
0,092556	0,158328	0,026089	2020-11-19T14:21:51:658
0,064245	0,168284	-0,032462	2020-11-19T14:21:51:676
-0,005486	0,083538	-0,025747	2020-11-19T14:21:51:698
0,122362	0,056344	-0,001379	2020-11-19T14:21:51:716
0,088863	0,099415	-0,056414	2020-11-19T14:21:51:739
0,062993	0,149976	-0,080486	2020-11-19T14:21:51:756
0,113756	0,118464	-0,023494	2020-11-19T14:21:51:778
0,059142	0,239487	-0,021068	2020-11-19T14:21:51:797
0,030428	0,098311	-0,042603	2020-11-19T14:21:51:818
0,041520	0,090594	0,020598	2020-11-19T14:21:51:836
0,060949	0,177508	0,006604	2020-11-19T14:21:51:858
0,072622	0,112195	0,013506	2020-11-19T14:21:51:876
0,100574	0,089397	-0,060646	2020-11-19T14:21:51:898
0,076646	0,218609	-0,005611	2020-11-19T14:21:51:916
0,083195	0,008165	-0,033962	2020-11-19T14:21:51:938
0,043342	0,121100	0,035006	2020-11-19T14:21:51:956
0,082289	0,130381	-0,067913	2020-11-19T14:21:51:979
0,078169	0,177388	-0,068510	2020-11-19T14:21:51:997
0,015670	0,092036	-0,059648	2020-11-19T14:21:52:018
0,061542	0,133296	0,020949	2020-11-19T14:21:52:036
0,049702	0,142302	-0,031910	2020-11-19T14:21:52:058
0,060049	0,129118	-0,061023	2020-11-19T14:21:52:088
0,014473	0,138496	-0,037192	2020-11-19T14:21:52:111
0,061619	0,099532	-0,044415	2020-11-19T14:21:52:132
0,140079	0,095776	-0,046450	2020-11-19T14:21:52:141
0,037756	0,180844	-0,063245	2020-11-19T14:21:52:157
0,015675	0,071521	-0,018208	2020-11-19T14:21:52:178
0,041996	0,160055	-0,113920	2020-11-19T14:21:52:196
0,170048	0,118658	-0,042260	2020-11-19T14:21:52:220
0,063550	0,097791	-0,021291	2020-11-19T14:21:52:237
0,092264	0,133684	-0,069147	2020-11-19T14:21:52:258
0,054396	0,171778	0,023816	2020-11-19T14:21:52:277
0,030346	0,142219	-0,020619	2020-11-19T14:21:52:299
0,076581	-0,029555	0,009811	2020-11-19T14:21:52:316
0,026852	0,119050	-0,067318	2020-11-19T14:21:52:338
0,019488	0,162829	-0,033215	2020-11-19T14:21:52:357
0,089869	0,094400	-0,039454	2020-11-19T14:21:52:378
0,058717	0,244410	-0,001816	2020-11-19T14:21:52:397
0,083944	0,219715	-0,029199	2020-11-19T14:21:52:418
-0,004880	0,123968	-0,044603	2020-11-19T14:21:52:437
0,083706	0,032399	-0,055971	2020-11-19T14:21:52:461
0,052599	0,008471	0,006242	2020-11-19T14:21:52:477
0,087053	0,027541	-0,048091	2020-11-19T14:21:52:499
0,105573	0,152589	-0,041136	2020-11-19T14:21:52:517
0,051936	0,088036	-0,086717	2020-11-19T14:21:52:539
0,046979	0,139872	-0,032101	2020-11-19T14:21:52:557
0,077738	0,118262	-0,012700	2020-11-19T14:21:52:578
0,020445	0,156310	0,020720	2020-11-19T14:21:52:598
-0,048101	0,175643	0,037006	2020-11-19T14:21:52:619
0,111783	0,241765	-0,014994	2020-11-19T14:21:52:637
0,141572	0,148203	-0,052112	2020-11-19T14:21:52:659
0,094252	0,097694	-0,074354	2020-11-19T14:21:52:677
0,047403	0,108201	0,005799	2020-11-19T14:21:52:700
0,050318	0,134567	0,015464	2020-11-19T14:21:52:717
0,062195	0,058370	-0,023675	2020-11-19T14:21:52:739
0,002378	0,128908	-0,015021	2020-11-19T14:21:52:757
0,044324	0,167317	-0,076667	2020-11-19T14:21:52:779
0,100188	0,270018	0,004196	2020-11-19T14:21:52:798
0,049939	0,145591	-0,072374	2020-11-19T14:21:52:818
0,088221	0,016352	-0,038887	2020-11-19T14:21:52:837
0,084183	0,096509	-0,022275	2020-11-19T14:21:52:859
0,030406	0,143747	0,016589	2020-11-19T14:21:52:877
-0,006462	0,047032	-0,024306	2020-11-19T14:21:52:903
0,092735	0,109009	-0,053027	2020-11-19T14:21:52:917
0,023794	0,275974	-0,022675	2020-11-19T14:21:52:942
0,063672	0,092271	-0,044096	2020-11-19T14:21:52:957
0,079168	0,125614	-0,081629	2020-11-19T14:21:52:980
0,100703	0,132793	-0,074450	2020-11-19T14:21:53:002
0,012322	0,105306	-0,028790	2020-11-19T14:21:53:020
0,050228	0,113473	-0,016131	2020-11-19T14:21:53:039
0,076585	0,142395	-0,008861	2020-11-19T14:21:53:059
0,113847	0,229255	-0,052773	2020-11-19T14:21:53:077
-0,012293	0,270426	0,005020	2020-11-19T14:21:53:100
0,050902	0,103608	-0,010159	2020-11-19T14:21:53:118
0,089759	0,085956	0,007289	2020-11-19T14:21:53:140
0,062656	0,093782	-0,072916	2020-11-19T14:21:53:159
0,074947	0,092017	-0,074008	2020-11-19T14:21:53:312
0,138658	0,052589	-0,023366	2020-11-19T14:21:53:313
0,055830	0,140806	-0,072233	2020-11-19T14:21:53:320
0,042429	0,168778	0,010012	2020-11-19T14:21:53:321
0,132382	0,149010	-0,016296	2020-11-19T14:21:53:323
-0,024592	0,123405	-0,053419	2020-11-19T14:21:53:323
0,035415	0,186683	-0,059463	2020-11-19T14:21:53:324
0,037307	0,093989	-0,028823	2020-11-19T14:21:53:325
0,076781	0,156834	-0,066680	2020-11-19T14:21:53:359
0,054234	0,133314	-0,072429	2020-11-19T14:21:53:360
0,010612	0,142143	-0,027350	2020-11-19T14:21:53:426
0,138717	0,059957	-0,032299	2020-11-19T14:21:53:427
0,015028	0,070289	0,000538	2020-11-19T14:21:53:428
0,068914	0,055677	-0,059286	2020-11-19T14:21:53:437
0,028718	0,161434	-0,012565	2020-11-19T14:21:53:457
0,040214	0,148414	0,000629	2020-11-19T14:21:53:476
0,110856	0,094207	-0,009415	2020-11-19T14:21:53:498
0,001491	0,094235	-0,034968	2020-11-19T14:21:53:518
0,090296	0,183312	0,003917	2020-11-19T14:21:53:549
0,047225	0,101956	-0,051118	2020-11-19T14:21:53:559
0,026773	-0,012212	-0,042508	2020-11-19T14:21:53:580
0,033433	0,114252	-0,077689	2020-11-19T14:21:53:601
0,023083	0,206499	-0,033037	2020-11-19T14:21:53:620
0,073332	0,239999	0,048318	2020-11-19T14:21:53:639
0,046629	0,077269	0,008057	2020-11-19T14:21:53:663
0,063137	0,060710	-0,017228	2020-11-19T14:21:53:678
-0,003848	0,093912	-0,027328	2020-11-19T14:21:53:700
0,059682	0,141212	0,012243	2020-11-19T14:21:53:718
0,110023	0,115142	-0,069989	2020-11-19T14:21:53:741
0,097527	0,081956	-0,015238	2020-11-19T14:21:53:762
0,073605	0,195503	0,004019	2020-11-19T14:21:53:780
0,097460	0,166157	-0,035532	2020-11-19T14:21:53:800
0,079912	0,073004	-0,040361	2020-11-19T14:21:53:819
0,041625	0,023283	-0,045333	2020-11-19T14:21:53:842
0,085912	0,070546	0,022184	2020-11-19T14:21:53:909
0,108800	0,113935	-0,065367	2020-11-19T14:21:53:911
-0,003527	0,238840	-0,005666	2020-11-19T14:21:53:912
0,106884	0,152713	-0,041763	2020-11-19T14:21:53:917
-0,010300	0,046687	-0,044791	2020-11-19T14:21:53:942
0,086279	0,107934	-0,025994	2020-11-19T14:21:53:956
0,103591	0,184489	-0,002330	2020-11-19T14:21:53:980
0,081409	0,139949	-0,016329	2020-11-19T14:21:53:998
0,041190	0,106351	-0,008063	2020-11-19T14:21:54:020
0,080349	0,161202	-0,053481	2020-11-19T14:21:54:039
0,053870	0,150792	0,016939	2020-11-19T14:21:54:061
0,046558	0,149606	-0,086464	2020-11-19T14:21:54:079
0,113557	0,154392	-0,031428	2020-11-19T14:21:54:100
0,088509	0,148129	-0,025354	2020-11-19T14:21:54:118
0,088408	0,088178	-0,028150	2020-11-19T14:21:54:142
0,108288	0,241155	-0,032824	2020-11-19T14:21:54:158
0,038897	0,195691	-0,049574	2020-11-19T14:21:54:180
0,014488	0,140418	-0,026467	2020-11-19T14:21:54:198
0,107669	0,051890	-0,069221	2020-11-19T14:21:54:220
0,103512	0,102659	-0,060093	2020-11-19T14:21:54:239
0,030082	0,136008	-0,021108	2020-11-19T14:21:54:260
0,007682	0,109366	-0,054526	2020-11-19T14:21:54:278
0,020110	0,089630	-0,050988	2020-11-19T14:21:54:300
0,091325	0,115164	-0,057245	2020-11-19T14:21:54:318
0,022993	0,154534	-0,035445	2020-11-19T14:21:54:341
0,077680	0,108571	0,085673	2020-11-19T14:21:54:358
0,033471	0,090969	-0,113514	2020-11-19T14:21:54:383
-0,000028	0,110111	-0,070443	2020-11-19T14:21:54:398
0,086873	0,106309	-0,000200	2020-11-19T14:21:54:420
-0,004059	0,064760	-0,041577	2020-11-19T14:21:54:439
0,129717	-0,017261	-0,028589	2020-11-19T14:21:54:461
0,134838	0,083533	-0,024709	2020-11-19T14:21:54:479
0,064120	0,170568	-0,039215	2020-11-19T14:21:54:500
0,054822	0,085902	-0,025202	2020-11-19T14:21:54:519
-0,021748	0,128973	-0,041952	2020-11-19T14:21:54:541
0,143468	0,134211	-0,033897	2020-11-19T14:21:54:559
0,089200	0,189020	-0,001056	2020-11-19T14:21:54:581
0,042236	0,147804	-0,071877	2020-11-19T14:21:54:599
0,105663	0,095473	0,033707	2020-11-19T14:21:54:622
0,112615	0,079077	-0,057440	2020-11-19T14:21:54:639
0,026001	0,109876	-0,025866	2020-11-19T14:21:54:662
0,126400	0,223321	-0,001207	2020-11-19T14:21:54:679
0,035202	0,195420	-0,000840	2020-11-19T14:21:54:701
0,043901	0,105969	0,019532	2020-11-19T14:21:54:719
0,060735	0,074877	-0,071378	2020-11-19T14:21:54:741
0,014729	0,163264	0,041942	2020-11-19T14:21:54:759
0,075403	0,125299	-0,031578	2020-11-19T14:21:54:781
0,088619	0,107530	0,013304	2020-11-19T14:21:54:799
0,019986	0,136109	-0,104228	2020-11-19T14:21:54:821
0,106359	0,159521	-0,059939	2020-11-19T14:21:54:844
0,056110	0,221735	-0,016868	2020-11-19T14:21:54:862
0,117813	0,169963	-0,041086	2020-11-19T14:21:54:879
0,083638	0,063467	-0,037229	2020-11-19T14:21:54:901
0,045814	0,070874	-0,057946	2020-11-19T14:21:54:919
0,063463	0,176503	-0,025582	2020-11-19T14:21:54:941
0,080616	0,131614	-0,043029	2020-11-19T14:21:54:959
0,056312	0,103764	-0,021188	2020-11-19T14:21:54:981
0,037468	0,152562	-0,042292	2020-11-19T14:21:55:000
0,050281	0,184445	-0,047630	2020-11-19T14:21:55:021
0,038984	0,110606	-0,019672	2020-11-19T14:21:55:039
0,061331	0,096681	-0,057667	2020-11-19T14:21:55:061
0,025475	0,179481	-0,013992	2020-11-19T14:21:55:080
-0,006865	0,196914	-0,065778	2020-11-19T14:21:55:102
0,044690	0,139163	-0,028102	2020-11-19T14:21:55:120
0,065057	0,184310	-0,011312	2020-11-19T14:21:55:141
0,028939	0,071255	-0,048470	2020-11-19T14:21:55:160
0,068602	0,114795	-0,106915	2020-11-19T14:21:55:181
0,059312	0,110051	-0,043655	2020-11-19T14:21:55:199
0,044809	0,160743	0,009149	2020-11-19T14:21:55:221
0,031426	0,065987	-0,017630	2020-11-19T14:21:55:240
0,069711	0,106666	-0,000880	2020-11-19T14:21:55:261
0,028124	0,133379	-0,017595	2020-11-19T14:21:55:280
0,101016	0,153479	-0,034782	2020-11-19T14:21:55:301
0,044020	0,121308	0,021931	2020-11-19T14:21:55:320
0,111019	0,094987	-0,090531	2020-11-19T14:21:55:342
0,052795	0,142523	-0,079226	2020-11-19T14:21:55:360
-0,059668	0,164059	0,021274	2020-11-19T14:21:55:381
0,066425	0,075213	-0,077048	2020-11-19T14:21:55:400
0,097748	0,022744	-0,039074	2020-11-19T14:21:55:421
0,056259	0,130136	-0,031546	2020-11-19T14:21:55:440
0,040885	0,143518	-0,025979	2020-11-19T14:21:55:461
0,049320	0,116800	-0,050958	2020-11-19T14:21:55:480
-0,028984	0,103592	-0,011427	2020-11-19T14:21:55:502
0,085394	0,107496	-0,056330	2020-11-19T14:21:55:520
0,054287	0,191245	-0,032402	2020-11-19T14:21:55:542
0,046340	0,107738	-0,016316	2020-11-19T14:21:55:560
0,086262	0,167480	-0,058194	2020-11-19T14:21:55:582
0,074692	0,135855	-0,028644	2020-11-19T14:21:55:601
0,108192	0,152605	-0,028644	2020-11-19T14:21:55:621
0,033076	0,131373	-0,031044	2020-11-19T14:21:55:641
0,021112	0,136158	0,002455	2020-11-19T14:21:55:662
0,029877	0,132385	-0,052928	2020-11-19T14:21:55:680
0,038853	0,154197	0,024013	2020-11-19T14:21:55:701
0,121024	0,099913	-0,026804	2020-11-19T14:21:55:720
0,168963	0,029518	0,004469	2020-11-19T14:21:55:742
0,061575	0,056932	0,061000	2020-11-19T14:21:55:760
0,056789	0,150253	-0,008392	2020-11-19T14:21:55:782
0,046731	0,139434	0,056962	2020-11-19T14:21:55:801
0,003164	0,134837	0,035775	2020-11-19T14:21:55:822
0,011781	0,168351	-0,050528	2020-11-19T14:21:55:841
0,054852	0,063067	-0,009850	2020-11-19T14:21:55:862
0,071557	0,112275	-0,093088	2020-11-19T14:21:55:880
0,041800	0,092323	-0,074479	2020-11-19T14:21:55:902
0,001537	0,115847	-0,124881	2020-11-19T14:21:55:920
0,049792	0,177120	-0,022020	2020-11-19T14:21:55:942
0,134507	0,066659	-0,008693	2020-11-19T14:21:55:960
0,082798	0,071359	-0,034600	2020-11-19T14:21:55:982
0,013046	0,149361	-0,007385	2020-11-19T14:21:56:001
0,008671	0,263814	-0,036484	2020-11-19T14:21:56:022
0,104384	0,127423	0,025729	2020-11-19T14:21:56:042
0,143420	0,091434	-0,030931	2020-11-19T14:21:56:063
-0,006955	0,116261	-0,016833	2020-11-19T14:21:56:080
0,061915	0,086977	-0,041734	2020-11-19T14:21:56:101
0,113789	0,188338	-0,026031	2020-11-19T14:21:56:121
0,046790	0,075875	-0,004496	2020-11-19T14:21:56:142
0,017709	0,077191	-0,001604	2020-11-19T14:21:56:160
-0,040910	0,201531	-0,087610	2020-11-19T14:21:56:182
0,073070	0,176260	-0,048931	2020-11-19T14:21:56:200
0,092475	0,157729	0,004057	2020-11-19T14:21:56:222
0,048643	0,106857	-0,069435	2020-11-19T14:21:56:241
0,085280	0,091907	-0,075758	2020-11-19T14:21:56:262
0,049261	0,104763	-0,069621	2020-11-19T14:21:56:281
0,013450	0,103901	0,004156	2020-11-19T14:21:56:303
0,031026	0,046293	-0,009864	2020-11-19T14:21:56:321
0,064526	0,259254	-0,038577	2020-11-19T14:21:56:343
0,170383	0,153846	0,018275	2020-11-19T14:21:56:360
0,073303	0,079601	-0,067384	2020-11-19T14:21:56:382
0,071874	0,115091	-0,050008	2020-11-19T14:21:56:401
-0,005106	0,202068	-0,006649	2020-11-19T14:21:56:422
0,122720	0,112216	-0,045993	2020-11-19T14:21:56:441
0,087094	0,132673	-0,077200	2020-11-19T14:21:56:463
0,022488	0,158994	0,011335	2020-11-19T14:21:56:480
0,088409	0,121827	-0,030683	2020-11-19T14:21:56:502
0,127397	0,088644	-0,018829	2020-11-19T14:21:56:521
0,013810	0,062678	-0,025365	2020-11-19T14:21:56:543
-0,058170	0,137099	-0,012301	2020-11-19T14:21:56:561
0,025579	0,141884	-0,026658	2020-11-19T14:21:56:582
0,072486	0,127448	-0,025088	2020-11-19T14:21:56:601
0,069142	0,107549	-0,051860	2020-11-19T14:21:56:623
0,097318	0,144244	-0,034855	2020-11-19T14:21:56:641
0,030774	0,050722	-0,068715	2020-11-19T14:21:56:662
0,015630	0,048192	-0,059369	2020-11-19T14:21:56:681
-0,006292	0,118862	0,045343	2020-11-19T14:21:56:703
0,056149	0,196042	-0,026810	2020-11-19T14:21:56:721
0,116248	0,148006	-0,053113	2020-11-19T14:21:56:744
-0,005786	0,109721	-0,031578	2020-11-19T14:21:56:761
0,119553	0,064463	-0,031017	2020-11-19T14:21:56:783
0,097365	0,036483	-0,018187	2020-11-19T14:21:56:801
0,105219	0,183703	-0,071944	2020-11-19T14:21:56:822
0,076661	0,139902	-0,008963	2020-11-19T14:21:56:841
0,041219	0,146646	0,051793	2020-11-19T14:21:56:863
0,115322	0,138776	-0,028464	2020-11-19T14:21:56:881
0,052526	0,247762	0,004158	2020-11-19T14:21:56:903
0,057825	0,220513	-0,019680	2020-11-19T14:21:56:921
0,110978	0,072113	-0,027798	2020-11-19T14:21:56:943
0,086591	0,051564	-0,062694	2020-11-19T14:21:56:961
0,061194	0,140794	-0,095117	2020-11-19T14:21:56:983
0,056427	0,180858	0,010318	2020-11-19T14:21:57:002
0,063605	0,128216	-0,042325	2020-11-19T14:21:57:024
0,034938	0,218120	-0,028386	2020-11-19T14:21:57:042
0,102785	0,108869	-0,054831	2020-11-19T14:21:57:063
0,076648	0,109294	-0,035826	2020-11-19T14:21:57:081
0,052163	0,051599	-0,066132	2020-11-19T14:21:57:103
0,009840	0,054184	-0,109486	2020-11-19T14:21:57:121
0,033768	0,140326	-0,087950	2020-11-19T14:21:57:143
0,043747	0,173047	-0,050584	2020-11-19T14:21:57:162
0,117925	0,144334	0,021200	2020-11-19T14:21:57:183
0,080152	0,069487	0,021712	2020-11-19T14:21:57:201
0,087958	0,118318	-0,100167	2020-11-19T14:21:57:223
0,083510	0,159367	-0,016557	2020-11-19T14:21:57:243
0,047618	-0,005738	-0,054842	2020-11-19T14:21:57:264
0,027335	0,109843	-0,011756	2020-11-19T14:21:57:282
0,010585	0,148128	-0,047647	2020-11-19T14:21:57:303
0,094849	0,258556	-0,020301	2020-11-19T14:21:57:323
0,001539	0,095340	-0,026352	2020-11-19T14:21:57:344
0,046950	0,075659	-0,027982	2020-11-19T14:21:57:362
0,033384	0,142974	-0,031125	2020-11-19T14:21:57:384
0,071669	0,131010	-0,031125	2020-11-19T14:21:57:402
0,094275	0,105883	-0,034204	2020-11-19T14:21:57:423
0,073012	0,070884	-0,055670	2020-11-19T14:21:57:442
0,084730	0,208343	-0,035125	2020-11-19T14:21:57:463
0,080170	0,196308	-0,004945	2020-11-19T14:21:57:482
0,044929	0,077603	-0,063291	2020-11-19T14:21:57:505
0,085607	0,142210	-0,017827	2020-11-19T14:21:57:522
0,029033	0,132033	-0,006332	2020-11-19T14:21:57:544
0,071037	0,066606	-0,054342	2020-11-19T14:21:57:562
0,092300	0,129901	0,006885	2020-11-19T14:21:57:584
0,141748	0,098709	0,016307	2020-11-19T14:21:57:602
0,036401	0,207872	-0,056541	2020-11-19T14:21:57:623
-0,009071	0,151742	0,033682	2020-11-19T14:21:57:642
0,132106	0,027315	0,040859	2020-11-19T14:21:57:663
0,088094	0,060048	-0,013316	2020-11-19T14:21:57:682
0,079537	0,092729	-0,059720	2020-11-19T14:21:57:704
0,026427	0,164074	-0,039832	2020-11-19T14:21:57:722
0,078781	0,102193	-0,006891	2020-11-19T14:21:57:745
0,056864	0,167178	-0,013967	2020-11-19T14:21:57:762
-0,010018	0,288463	0,001494	2020-11-19T14:21:57:783
-0,011502	0,093637	-0,015791	2020-11-19T14:21:57:802
0,113658	0,052763	-0,059902	2020-11-19T14:21:57:824
-0,014594	0,078636	0,000453	2020-11-19T14:21:57:843
0,018906	0,188705	-0,080902	2020-11-19T14:21:57:863
0,062420	0,173853	-0,010907	2020-11-19T14:21:57:883
0,124634	0,073355	-0,018085	2020-11-19T14:21:57:904
0,068408	0,162088	-0,058196	2020-11-19T14:21:57:922
0,080563	0,113337	-0,027434	2020-11-19T14:21:57:944
0,078850	0,131006	0,006204	2020-11-19T14:21:57:964
0,062100	0,059222	-0,113437	2020-11-19T14:21:57:984
0,110029	0,149723	0,012811	2020-11-19T14:21:58:002
0,037837	0,181367	-0,021855	2020-11-19T14:21:58:024
0,064486	0,076098	-0,016611	2020-11-19T14:21:58:043
0,010652	0,045446	-0,023768	2020-11-19T14:21:58:064
0,075914	0,094362	-0,041386	2020-11-19T14:21:58:082
0,093159	0,191700	-0,035787	2020-11-19T14:21:58:104
0,114695	0,155808	-0,074072	2020-11-19T14:21:58:122
0,056660	0,014520	-0,036255	2020-11-19T14:21:58:144
0,011196	0,089134	-0,026909	2020-11-19T14:21:58:162
0,075484	0,135091	-0,045554	2020-11-19T14:21:58:184
0,028997	0,126462	-0,022373	2020-11-19T14:21:58:203
0,076805	0,067443	-0,036404	2020-11-19T14:21:58:226
0,067233	0,146406	-0,010083	2020-11-19T14:21:58:243
0,128573	0,117893	-0,047008	2020-11-19T14:21:58:264
0,086338	0,201415	0,045663	2020-11-19T14:21:58:282
0,087678	0,057074	-0,010832	2020-11-19T14:21:58:304
0,060204	0,177705	-0,021554	2020-11-19T14:21:58:322
0,063012	0,137271	-0,046316	2020-11-19T14:21:58:344
0,096437	0,090035	-0,043676	2020-11-19T14:21:58:362
0,046480	0,110955	-0,048017	2020-11-19T14:21:58:384
0,127202	0,146900	-0,001554	2020-11-19T14:21:58:403
0,000382	0,113401	-0,032660	2020-11-19T14:21:58:424
0,085855	0,100756	-0,015953	2020-11-19T14:21:58:444
0,100212	0,131862	0,041473	2020-11-19T14:21:58:465
0,056427	0,073672	-0,054987	2020-11-19T14:21:58:483
0,042070	0,099993	-0,066952	2020-11-19T14:21:58:504
0,097517	0,178819	-0,025205	2020-11-19T14:21:58:523
0,035304	0,202747	-0,044348	2020-11-19T14:21:58:545
0,050962	0,117430	-0,002735	2020-11-19T14:21:58:563
0,051594	0,017627	-0,057394	2020-11-19T14:21:58:584
0,054267	0,123311	-0,048030	2020-11-19T14:21:58:603
0,083182	0,104174	-0,033643	2020-11-19T14:21:58:624
0,132253	0,145955	0,028865	2020-11-19T14:21:58:643
0,040215	0,130630	-0,012701	2020-11-19T14:21:58:664
0,039081	0,111807	-0,026752	2020-11-19T14:21:58:683
0,076421	0,074497	-0,054859	2020-11-19T14:21:58:705
-0,022369	0,228873	-0,052376	2020-11-19T14:21:58:723
0,018309	0,130767	-0,049983	2020-11-19T14:21:58:745
0,056517	0,107111	-0,006476	2020-11-19T14:21:58:763
0,044461	0,126811	-0,032579	2020-11-19T14:21:58:785
0,061638	0,157742	-0,027806	2020-11-19T14:21:58:803
0,068794	0,104024	-0,042614	2020-11-19T14:21:58:825
0,089698	0,119758	-0,037344	2020-11-19T14:21:58:843
0,085670	0,086352	-0,025570	2020-11-19T14:21:58:864
0,050561	0,099662	-0,025236	2020-11-19T14:21:58:883
0,015162	0,182258	0,020811	2020-11-19T14:21:58:905
0,079112	0,149429	-0,052438	2020-11-19T14:21:58:923
0,090222	0,165239	0,011660	2020-11-19T14:21:58:950
0,146347	0,087600	-0,025523	2020-11-19T14:21:58:964
0,141562	0,128278	-0,042273	2020-11-19T14:21:58:985
0,088441	0,049083	0,004350	2020-11-19T14:21:59:004
0,059727	0,101725	-0,055470	2020-11-19T14:21:59:025
0,010026	0,117167	-0,072763	2020-11-19T14:21:59:044
0,065061	0,071703	-0,032085	2020-11-19T14:21:59:065
0,100171	0,129449	-0,030000	2020-11-19T14:21:59:084
0,014029	0,117485	0,005893	2020-11-19T14:21:59:105
0,076393	0,059493	0,001225	2020-11-19T14:21:59:123
-0,012704	0,096285	-0,038163	2020-11-19T14:21:59:145
0,096765	0,155673	-0,053517	2020-11-19T14:21:59:164
0,039944	0,130661	0,000817	2020-11-19T14:21:59:186
0,095580	0,170077	-0,049872	2020-11-19T14:21:59:203
0,027050	0,070442	-0,067470	2020-11-19T14:21:59:225
0,093094	0,175989	0,022367	2020-11-19T14:21:59:243
0,074923	0,151862	-0,057870	2020-11-19T14:21:59:265
0,046622	0,107298	0,009561	2020-11-19T14:21:59:284
0,061672	0,158498	-0,025841	2020-11-19T14:21:59:305
0,081014	0,114972	-0,054715	2020-11-19T14:21:59:324
0,096599	0,111736	0,013761	2020-11-19T14:21:59:346
0,000290	0,170695	-0,019516	2020-11-19T14:21:59:364
0,050539	0,074982	-0,088907	2020-11-19T14:21:59:385
0,043023	0,121231	-0,028873	2020-11-19T14:21:59:404
0,054389	0,141576	0,029305	2020-11-19T14:21:59:426
0,066169	0,148664	-0,010039	2020-11-19T14:21:59:445
0,104454	0,117557	0,006710	2020-11-19T14:21:59:465
0,010995	0,069349	-0,051282	2020-11-19T14:21:59:484
0,101922	0,121991	-0,039318	2020-11-19T14:21:59:505
0,007087	0,111414	-0,038951	2020-11-19T14:21:59:524
0,043430	0,200528	-0,007204	2020-11-19T14:21:59:545
0,044540	0,180436	-0,015623	2020-11-19T14:21:59:564
0,057624	0,092685	-0,044850	2020-11-19T14:21:59:586
0,034178	0,142985	-0,005480	2020-11-19T14:21:59:604
0,052367	0,220609	-0,003443	2020-11-19T14:21:59:625
0,031393	0,115621	0,009121	2020-11-19T14:21:59:645
0,061741	0,109273	-0,002267	2020-11-19T14:21:59:667
0,085964	0,184075	-0,066572	2020-11-19T14:21:59:684
0,049082	0,145830	-0,007871	2020-11-19T14:21:59:705
0,021223	0,113480	0,008482	2020-11-19T14:21:59:724
0,013147	0,165856	-0,003382	2020-11-19T14:21:59:746
0,116078	0,149614	0,003353	2020-11-19T14:21:59:764
0,076105	0,087580	-0,029246	2020-11-19T14:21:59:785
0,090580	0,117051	-0,046000	2020-11-19T14:21:59:804
0,103046	0,145991	-0,082064	2020-11-19T14:21:59:826
0,034204	0,188755	-0,032199	2020-11-19T14:21:59:844
0,033336	0,113324	-0,045465	2020-11-19T14:21:59:866
0,078975	0,117348	-0,026614	2020-11-19T14:21:59:884
-0,004742	0,075400	-0,022686	2020-11-19T14:21:59:906
-0,019860	0,097313	0,032735	2020-11-19T14:21:59:924
0,179205	0,170239	0,039792	2020-11-19T14:21:59:946
0,071845	0,117972	-0,052929	2020-11-19T14:21:59:964
0,027076	0,078764	-0,010219	2020-11-19T14:21:59:986
0,055322	0,091707	-0,061193	2020-11-19T14:22:00:005
-0,014070	0,213741	-0,018122	2020-11-19T14:22:00:025
0,086593	0,058841	-0,019152	2020-11-19T14:22:00:045
0,062113	0,032851	-0,017104	2020-11-19T14:22:00:066
0,047745	0,108728	-0,082403	2020-11-19T14:22:00:085
0,039300	0,227618	-0,059218	2020-11-19T14:22:00:106
0,062229	0,102648	-0,050013	2020-11-19T14:22:00:125
0,057443	0,152898	-0,021299	2020-11-19T14:22:00:147
0,042903	0,082880	-0,009621	2020-11-19T14:22:00:165
0,083581	0,142701	-0,026371	2020-11-19T14:22:00:186
0,108468	0,104399	-0,021793	2020-11-19T14:22:00:204
0,007889	0,113258	-0,004692	2020-11-19T14:22:00:226
0,081375	0,111888	-0,028951	2020-11-19T14:22:00:244
0,034164	0,180560	-0,067780	2020-11-19T14:22:00:266
0,044886	0,108797	-0,056637	2020-11-19T14:22:00:284
0,030766	0,128196	0,015286	2020-11-19T14:22:00:306
0,100206	0,119857	-0,048728	2020-11-19T14:22:00:325
0,088242	0,048072	0,018271	2020-11-19T14:22:00:346
0,075801	0,004313	0,011984	2020-11-19T14:22:00:365
-0,017519	0,162240	-0,035872	2020-11-19T14:22:00:387
0,056786	0,093091	-0,028900	2020-11-19T14:22:00:405
0,049904	0,087398	-0,049777	2020-11-19T14:22:00:426
0,053821	0,182155	-0,040794	2020-11-19T14:22:00:445
0,087871	0,127589	0,006339	2020-11-19T14:22:00:466
0,057791	0,057368	0,029732	2020-11-19T14:22:00:484
0,080215	0,072736	-0,034664	2020-11-19T14:22:00:506
0,075822	0,112191	-0,024887	2020-11-19T14:22:00:525
0,162467	0,127035	-0,069014	2020-11-19T14:22:00:547
0,104647	0,157580	0,023352	2020-11-19T14:22:00:564
0,081244	0,076934	-0,051783	2020-11-19T14:22:00:586
0,018287	0,107782	-0,036643	2020-11-19T14:22:00:605
0,101140	0,154977	-0,019961	2020-11-19T14:22:00:627
0,062709	0,127036	0,017300	2020-11-19T14:22:00:645
0,017672	0,103993	-0,051665	2020-11-19T14:22:00:666
0,053177	0,187844	0,001630	2020-11-19T14:22:00:685
0,050784	0,130416	-0,046227	2020-11-19T14:22:00:707
0,044835	0,078529	-0,009850	2020-11-19T14:22:00:725
0,036906	0,218182	-0,016031	2020-11-19T14:22:00:747
0,075191	0,194253	-0,054317	2020-11-19T14:22:00:765
0,081461	0,175303	0,051330	2020-11-19T14:22:00:786
0,101466	0,054823	-0,014827	2020-11-19T14:22:00:805
0,041957	0,123406	-0,073291	2020-11-19T14:22:00:827
0,093707	0,210365	-0,005745	2020-11-19T14:22:00:845
0,032402	0,138072	0,029153	2020-11-19T14:22:00:868
0,082651	0,056716	-0,016310	2020-11-19T14:22:00:885
0,056490	0,070756	-0,042083	2020-11-19T14:22:00:907
0,062812	0,111401	-0,068536	2020-11-19T14:22:00:926
0,062812	0,190365	0,024785	2020-11-19T14:22:00:947
0,057246	0,160633	-0,059077	2020-11-19T14:22:00:965
0,083644	0,223699	-0,026203	2020-11-19T14:22:00:987
0,087452	0,171288	-0,023431	2020-11-19T14:22:01:005
0,044959	0,058971	-0,053321	2020-11-19T14:22:01:027
0,062590	0,075627	0,049232	2020-11-19T14:22:01:046
0,100794	0,095278	-0,059651	2020-11-19T14:22:01:067
0,044144	0,198499	-0,037215	2020-11-19T14:22:01:086
0,055260	0,122177	-0,016352	2020-11-19T14:22:01:108
0,080400	0,126368	0,053949	2020-11-19T14:22:01:125
0,091420	0,141013	-0,036989	2020-11-19T14:22:01:147
0,108288	0,144121	-0,048066	2020-11-19T14:22:01:166
0,070003	0,050802	-0,024137	2020-11-19T14:22:01:187
-0,004465	0,175096	-0,065395	2020-11-19T14:22:01:205
0,071517	0,115216	-0,036194	2020-11-19T14:22:01:227
-0,026044	0,088923	-0,056437	2020-11-19T14:22:01:246
0,068286	0,127277	-0,031340	2020-11-19T14:22:01:268
0,064085	0,127856	-0,108977	2020-11-19T14:22:01:286
0,004264	0,108714	-0,034801	2020-11-19T14:22:01:307
0,105655	0,039631	-0,042778	2020-11-19T14:22:01:326
0,040938	0,168936	-0,007587	2020-11-19T14:22:01:348
0,051274	0,176982	0,004182	2020-11-19T14:22:01:366
0,041703	0,035805	0,042466	2020-11-19T14:22:01:387
0,150954	0,180594	0,033244	2020-11-19T14:22:01:405
0,008434	0,132905	-0,017462	2020-11-19T14:22:01:427
0,044205	0,130070	-0,054349	2020-11-19T14:22:01:446
-0,061099	-0,020551	-0,041070	2020-11-19T14:22:01:467
-0,028509	0,055856	-0,085081	2020-11-19T14:22:01:486
-0,005456	0,254035	0,020596	2020-11-19T14:22:01:507
-0,015553	0,150505	0,004547	2020-11-19T14:22:01:525
0,015407	0,168484	0,032092	2020-11-19T14:22:01:548
-0,009392	0,145219	-0,060344	2020-11-19T14:22:01:566
-0,004007	0,237077	-0,001689	2020-11-19T14:22:01:588
-0,038878	-0,110948	-0,211743	2020-11-19T14:22:01:606
-0,022128	0,130727	0,032325	2020-11-19T14:22:01:627
0,005572	0,301884	0,036158	2020-11-19T14:22:01:646
0,098704	0,207042	0,067595	2020-11-19T14:22:01:667
0,076093	0,233393	0,049664	2020-11-19T14:22:01:686
0,011154	0,099202	-0,093676	2020-11-19T14:22:01:707
0,001365	0,240727	0,079161	2020-11-19T14:22:01:726
0,016831	0,111006	0,024806	2020-11-19T14:22:01:748
0,091080	0,144369	-0,053838	2020-11-19T14:22:01:766
0,098916	0,125973	-0,002172	2020-11-19T14:22:01:787
-0,069660	0,200336	-0,008076	2020-11-19T14:22:01:807
0,058128	0,239401	-0,026332	2020-11-19T14:22:01:828
0,032986	0,129732	-0,021518	2020-11-19T14:22:01:846
0,066485	0,081876	-0,055017	2020-11-19T14:22:01:867
0,082197	0,145561	0,002883	2020-11-19T14:22:01:886
0,065235	0,156357	0,065556	2020-11-19T14:22:01:908
0,103664	0,006733	0,007579	2020-11-19T14:22:01:926
0,023265	0,113172	0,026628	2020-11-19T14:22:01:948
0,103132	0,240391	0,063172	2020-11-19T14:22:01:966
0,094221	0,174123	0,104590	2020-11-19T14:22:01:988
0,146665	0,118592	-0,000569	2020-11-19T14:22:02:006
-0,064007	0,124933	-0,094590	2020-11-19T14:22:02:028
-0,083405	0,219296	0,034175	2020-11-19T14:22:02:046
-0,141409	0,625688	-0,583409	2020-11-19T14:22:02:069
-0,064908	0,184170	0,026371	2020-11-19T14:22:02:086
0,157625	0,124349	0,014407	2020-11-19T14:22:02:108
0,041476	0,071248	-0,056489	2020-11-19T14:22:02:126
0,062088	0,167175	-0,058846	2020-11-19T14:22:02:148
0,101448	0,085622	-0,047126	2020-11-19T14:22:02:166
-0,343147	0,700762	-0,255798	2020-11-19T14:22:02:188
-0,055739	0,152914	0,207824	2020-11-19T14:22:02:206
-0,275241	0,007564	-1,803509	2020-11-19T14:22:02:228
-0,424014	0,393145	0,287533	2020-11-19T14:22:02:248
0,253145	-0,050419	-0,098155	2020-11-19T14:22:02:269
-0,048351	0,057259	-0,047907	2020-11-19T14:22:02:287
0,091878	0,071129	0,013040	2020-11-19T14:22:02:309
0,219219	0,120771	0,019381	2020-11-19T14:22:02:326
0,073657	0,080472	-0,014170	2020-11-19T14:22:02:351
0,072246	0,170600	0,009565	2020-11-19T14:22:02:367
0,042280	0,336047	0,078486	2020-11-19T14:22:02:388
0,068398	0,299037	0,020247	2020-11-19T14:22:02:407
0,053544	0,123013	-0,077063	2020-11-19T14:22:02:428
0,043539	0,101469	0,031475	2020-11-19T14:22:02:447
0,169622	0,043443	-0,012500	2020-11-19T14:22:02:468
0,184194	-0,012587	-0,009381	2020-11-19T14:22:02:487
0,114802	0,052019	0,052833	2020-11-19T14:22:02:508
0,134303	0,158427	0,011726	2020-11-19T14:22:02:527
0,069756	0,170944	-0,047065	2020-11-19T14:22:02:550
0,062811	0,107255	0,031365	2020-11-19T14:22:02:568
0,170488	0,140755	0,146220	2020-11-19T14:22:02:588
0,191366	0,185303	-0,005983	2020-11-19T14:22:02:607
0,193046	0,268793	0,023995	2020-11-19T14:22:02:629
0,097027	0,163180	-0,035098	2020-11-19T14:22:02:648
0,001314	0,218215	0,039079	2020-11-19T14:22:02:668
0,121311	0,140167	-0,045490	2020-11-19T14:22:02:687
0,117081	0,041607	0,001544	2020-11-19T14:22:02:709
0,078257	0,016799	-0,032102	2020-11-19T14:22:02:727
0,120607	0,145390	-0,031783	2020-11-19T14:22:02:749
0,097873	0,247757	0,023869	2020-11-19T14:22:02:767
0,063559	0,180929	-0,044778	2020-11-19T14:22:02:791
0,021790	0,239814	-0,007240	2020-11-19T14:22:02:808
-0,011472	0,102255	-0,068380	2020-11-19T14:22:02:830
0,050742	0,095076	-0,027702	2020-11-19T14:22:02:847
0,069541	0,004991	-0,062173	2020-11-19T14:22:02:869
0,108440	0,160051	-0,004498	2020-11-19T14:22:02:887
0,062247	0,168262	-0,040512	2020-11-19T14:22:02:909
0,047453	0,128417	-0,076181	2020-11-19T14:22:02:927
0,063345	0,049030	0,001041	2020-11-19T14:22:02:949
0,156777	0,117236	0,040467	2020-11-19T14:22:02:967
0,124138	0,118065	-0,015259	2020-11-19T14:22:02:989
0,069413	0,133989	-0,005764	2020-11-19T14:22:03:007
0,052698	0,103378	-0,006952	2020-11-19T14:22:03:030
0,097853	0,077529	-0,018759	2020-11-19T14:22:03:048
0,038291	0,082548	-0,070594	2020-11-19T14:22:03:069
0,078201	0,076574	-0,018531	2020-11-19T14:22:03:088
0,024374	0,188384	-0,032316	2020-11-19T14:22:03:109
0,092909	0,122080	-0,002748	2020-11-19T14:22:03:127
0,096798	0,138551	0,024299	2020-11-19T14:22:03:149
0,169891	0,095044	-0,039680	2020-11-19T14:22:03:168
0,057940	0,026019	-0,062401	2020-11-19T14:22:03:190
0,043584	0,160017	-0,031295	2020-11-19T14:22:03:207
0,135593	0,045618	-0,134860	2020-11-19T14:22:03:250
0,084124	0,042524	-0,002037	2020-11-19T14:22:03:252
0,041456	0,098874	-0,032878	2020-11-19T14:22:03:272
0,087680	0,164917	-0,025997	2020-11-19T14:22:03:290
0,071817	0,120425	0,036723	2020-11-19T14:22:03:309
0,092321	0,056868	0,004876	2020-11-19T14:22:03:328
0,042165	0,126517	-0,025434	2020-11-19T14:22:03:349
0,074761	0,149513	-0,031751	2020-11-19T14:22:03:368
0,053225	0,065764	-0,022179	2020-11-19T14:22:03:389
0,010221	0,016195	-0,042371	2020-11-19T14:22:03:408
0,114138	0,103364	-0,019192	2020-11-19T14:22:03:429
0,106437	0,141120	0,000262	2020-11-19T14:22:03:448
0,063056	0,020830	-0,014835	2020-11-19T14:22:03:469
0,053225	0,075799	-0,027230	2020-11-19T14:22:03:488
0,071091	0,208407	-0,006490	2020-11-19T14:22:03:510
0,074134	0,093194	-0,048301	2020-11-19T14:22:03:528
0,084002	0,206034	-0,039917	2020-11-19T14:22:03:549
0,141811	0,132687	0,000111	2020-11-19T14:22:03:568
0,085861	0,167118	-0,062227	2020-11-19T14:22:03:589
0,181441	0,169976	-0,028572	2020-11-19T14:22:03:608
0,107252	0,014081	0,000278	2020-11-19T14:22:03:629
0,030407	0,078444	-0,041212	2020-11-19T14:22:03:649
0,097406	0,099979	-0,084284	2020-11-19T14:22:03:669
0,003165	0,063256	-0,046824	2020-11-19T14:22:03:688
0,081738	0,083971	-0,045847	2020-11-19T14:22:03:709
0,110791	0,117033	-0,029591	2020-11-19T14:22:03:728
0,059822	0,094182	-0,016264	2020-11-19T14:22:03:751
0,019977	0,190629	-0,021287	2020-11-19T14:22:03:768
0,003227	0,061417	0,016998	2020-11-19T14:22:03:788
0,056733	0,088336	-0,009940	2020-11-19T14:22:03:808
0,114160	0,097908	-0,050618	2020-11-19T14:22:03:829
0,082042	0,147803	-0,041706	2020-11-19T14:22:03:848
0,101697	0,144420	-0,098479	2020-11-19T14:22:03:870
0,101163	0,017658	-0,040099	2020-11-19T14:22:03:888
0,045320	0,163689	-0,053868	2020-11-19T14:22:03:910
0,068882	0,219110	0,004004	2020-11-19T14:22:03:928
0,035065	0,114320	-0,048154	2020-11-19T14:22:03:956
0,035437	0,032268	0,004232	2020-11-19T14:22:03:968
-0,364811	0,308472	-0,852059	2020-11-19T14:22:03:991
0,135532	0,018567	0,035322	2020-11-19T14:22:04:008
0,176799	0,096352	-0,049916	2020-11-19T14:22:04:031
0,195249	0,066819	-0,028519	2020-11-19T14:22:04:048
0,134886	0,086862	0,063046	2020-11-19T14:22:04:070
0,081618	0,140347	-0,091176	2020-11-19T14:22:04:088
0,080538	0,228812	0,162641	2020-11-19T14:22:04:111
0,116876	0,216053	-0,033446	2020-11-19T14:22:04:128
0,085041	0,032513	-0,033224	2020-11-19T14:22:04:150
0,083521	0,096889	0,001978	2020-11-19T14:22:04:168
0,093749	0,144773	-0,053295	2020-11-19T14:22:04:191
0,049505	0,073059	-0,000793	2020-11-19T14:22:04:208
0,113458	0,053515	-0,060905	2020-11-19T14:22:04:231
0,030071	0,177663	-0,044245	2020-11-19T14:22:04:249
0,039642	0,259019	-0,022709	2020-11-19T14:22:04:271
0,026253	0,202467	0,011003	2020-11-19T14:22:04:288
0,039065	0,117473	-0,091945	2020-11-19T14:22:04:311
0,033703	0,100374	0,010693	2020-11-19T14:22:04:328
0,144697	0,100543	-0,021589	2020-11-19T14:22:04:351
0,028717	0,042495	-0,033679	2020-11-19T14:22:04:369
0,100502	0,061637	-0,055215	2020-11-19T14:22:04:390
0,142308	0,173336	-0,052661	2020-11-19T14:22:04:408
0,075439	0,254941	-0,064825	2020-11-19T14:22:04:431
0,152158	0,159971	0,011435	2020-11-19T14:22:04:449
0,139391	0,067309	-0,034210	2020-11-19T14:22:04:471
0,035873	0,052613	-0,044747	2020-11-19T14:22:04:488
0,047790	0,049073	-0,046650	2020-11-19T14:22:04:511
0,032200	0,162273	-0,064301	2020-11-19T14:22:04:528
0,013279	0,222745	-0,082787	2020-11-19T14:22:04:551
0,069698	0,132248	-0,004107	2020-11-19T14:22:04:568
0,112424	0,150125	-0,020416	2020-11-19T14:22:04:592
0,074569	0,113298	-0,017673	2020-11-19T14:22:04:609
0,084037	0,144912	-0,021226	2020-11-19T14:22:04:630
0,137725	0,076973	-0,021819	2020-11-19T14:22:04:649
-0,033003	0,138263	-0,032608	2020-11-19T14:22:04:671
0,024772	0,116812	0,008843	2020-11-19T14:22:04:689
0,027276	0,172185	0,014494	2020-11-19T14:22:04:713
0,039240	0,227220	-0,042933	2020-11-19T14:22:04:729
0,099128	0,171658	-0,103617	2020-11-19T14:22:04:752
0,101091	0,147766	-0,090664	2020-11-19T14:22:04:768
0,027518	0,092027	-0,008824	2020-11-19T14:22:04:790
0,111162	0,117514	-0,052574	2020-11-19T14:22:04:810
0,139876	0,179728	-0,071716	2020-11-19T14:22:04:834
0,062706	0,189627	0,011780	2020-11-19T14:22:04:852
0,066370	0,055720	-0,014284	2020-11-19T14:22:04:870
0,084290	0,013006	-0,051586	2020-11-19T14:22:04:889
0,075629	0,054453	-0,061420	2020-11-19T14:22:04:911
0,030359	0,213451	-0,021647	2020-11-19T14:22:04:929
0,072860	0,221782	-0,043072	2020-11-19T14:22:04:952
0,072256	0,077052	-0,100695	2020-11-19T14:22:04:969
0,038885	0,114043	-0,087243	2020-11-19T14:22:04:992
0,096893	0,117664	0,005631	2020-11-19T14:22:05:009
0,027771	0,168503	-0,055286	2020-11-19T14:22:05:031
0,101544	0,159495	-0,048629	2020-11-19T14:22:05:049
-0,024062	0,099886	-0,043950	2020-11-19T14:22:05:071
0,026028	0,096981	0,029269	2020-11-19T14:22:05:090
0,042292	0,159362	-0,030223	2020-11-19T14:22:05:111
0,041566	0,126232	-0,082467	2020-11-19T14:22:05:129
0,039180	0,000455	-0,012631	2020-11-19T14:22:05:153
0,035939	0,067407	-0,017918	2020-11-19T14:22:05:170
0,057108	0,153865	-0,032181	2020-11-19T14:22:05:193
0,059424	0,113786	0,006365	2020-11-19T14:22:05:210
0,057031	0,142499	-0,043884	2020-11-19T14:22:05:232
0,060645	0,064339	-0,061820	2020-11-19T14:22:05:250
0,060645	0,097839	0,017143	2020-11-19T14:22:05:271
0,025590	0,077446	-0,012324	2020-11-19T14:22:05:289
0,138694	0,206031	0,009037	2020-11-19T14:22:05:312
0,066646	0,128318	0,032126	2020-11-19T14:22:05:329
0,096535	0,053178	-0,011523	2020-11-19T14:22:05:351
0,045150	0,071213	-0,047401	2020-11-19T14:22:05:370
0,062119	0,091243	-0,020696	2020-11-19T14:22:05:392
0,118581	0,261524	-0,002562	2020-11-19T14:22:05:410
0,124573	0,126453	-0,035649	2020-11-19T14:22:05:434
0,045610	0,088168	-0,035649	2020-11-19T14:22:05:450
0,040769	0,079040	-0,033096	2020-11-19T14:22:05:472
-0,007372	0,250499	-0,026325	2020-11-19T14:22:05:489
0,071427	0,191349	-0,060911	2020-11-19T14:22:05:512
0,019561	0,029085	0,008781	2020-11-19T14:22:05:529
0,039399	0,119798	-0,069167	2020-11-19T14:22:05:553
0,003616	0,135082	-0,079355	2020-11-19T14:22:05:570
0,036144	0,136198	-0,004151	2020-11-19T14:22:05:591
0,134319	0,050999	-0,052615	2020-11-19T14:22:05:610
0,101187	0,048466	-0,008201	2020-11-19T14:22:05:633
0,122764	0,061610	0,024092	2020-11-19T14:22:05:650
-0,004589	0,214411	-0,033208	2020-11-19T14:22:05:674
0,034838	0,238125	0,006876	2020-11-19T14:22:05:690
-0,032161	0,032342	-0,029016	2020-11-19T14:22:05:713
0,018953	0,087938	-0,007799	2020-11-19T14:22:05:730
0,071595	0,250650	-0,005407	2020-11-19T14:22:05:752
0,161221	0,124271	-0,033409	2020-11-19T14:22:05:770
0,073661	0,067487	-0,056581	2020-11-19T14:22:05:792
0,042356	0,136097	0,014482	2020-11-19T14:22:05:810
0,004470	0,125573	-0,027574	2020-11-19T14:22:05:832
0,047248	0,146577	0,033689	2020-11-19T14:22:05:850
0,001878	0,069201	-0,017919	2020-11-19T14:22:05:873
0,011536	0,087164	-0,043367	2020-11-19T14:22:05:890
0,092357	0,225239	-0,093647	2020-11-19T14:22:05:913
0,011255	0,191818	0,034614	2020-11-19T14:22:05:930
0,045260	0,145415	-0,035777	2020-11-19T14:22:05:953
0,078231	0,094245	-0,058805	2020-11-19T14:22:05:970
0,008878	0,121371	-0,016755	2020-11-19T14:22:05:992
0,080001	0,125162	0,016574	2020-11-19T14:22:06:011
0,063251	0,072520	-0,055210	2020-11-19T14:22:06:033
0,079751	0,078971	-0,031978	2020-11-19T14:22:06:050
0,038853	0,156627	-0,064021	2020-11-19T14:22:06:072
0,055178	0,251283	0,031528	2020-11-19T14:22:06:090
0,149078	0,158174	-0,033578	2020-11-19T14:22:06:113
0,029414	0,044741	-0,039484	2020-11-19T14:22:06:130
0,069310	0,094319	-0,020741	2020-11-19T14:22:06:153
0,045281	0,243405	-0,042652	2020-11-19T14:22:06:170
0,071602	0,202727	-0,004366	2020-11-19T14:22:06:193
0,100286	0,001887	-0,093538	2020-11-19T14:22:06:211
0,033287	0,090421	-0,038505	2020-11-19T14:22:06:232
0,103538	0,153412	-0,011725	2020-11-19T14:22:06:251
0,096425	0,134963	-0,048682	2020-11-19T14:22:06:273
0,025508	0,161412	-0,005779	2020-11-19T14:22:06:290
-0,017852	0,091602	-0,074694	2020-11-19T14:22:06:313
0,070683	0,031781	-0,017265	2020-11-19T14:22:06:330
0,084167	0,042830	-0,073170	2020-11-19T14:22:06:354
0,021864	0,131449	-0,047174	2020-11-19T14:22:06:371
0,068397	0,161140	-0,027106	2020-11-19T14:22:06:394
0,105084	0,196172	-0,020182	2020-11-19T14:22:06:411
0,088334	0,136352	-0,058467	2020-11-19T14:22:06:433
0,028773	0,045228	-0,066042	2020-11-19T14:22:06:451
0,082881	0,181233	-0,020876	2020-11-19T14:22:06:472
0,060865	0,176059	0,001793	2020-11-19T14:22:06:491
0,147007	0,180844	0,016150	2020-11-19T14:22:06:513
0,120052	0,024822	-0,005011	2020-11-19T14:22:06:531
0,081288	0,104563	-0,043734	2020-11-19T14:22:06:553
0,052152	0,094202	-0,019181	2020-11-19T14:22:06:571
0,088348	0,068351	0,019348	2020-11-19T14:22:06:594
0,050940	0,087434	-0,039695	2020-11-19T14:22:06:611
0,083720	0,097951	-0,028800	2020-11-19T14:22:06:635
0,043042	0,208021	0,026235	2020-11-19T14:22:06:651
0,050360	0,161672	-0,000098	2020-11-19T14:22:06:674
0,037327	0,055441	0,017462	2020-11-19T14:22:06:691
0,006220	0,124833	-0,035180	2020-11-19T14:22:06:713
0,066773	0,141939	-0,034574	2020-11-19T14:22:06:732
0,042182	0,085913	-0,032701	2020-11-19T14:22:06:754
0,025221	0,139591	-0,001184	2020-11-19T14:22:06:771
0,045075	0,228460	-0,097671	2020-11-19T14:22:06:793
0,083345	0,122458	-0,004310	2020-11-19T14:22:06:811
0,097161	0,172436	-0,025013	2020-11-19T14:22:06:835
0,120996	0,060001	-0,035951	2020-11-19T14:22:06:852
0,059948	0,037230	-0,034962	2020-11-19T14:22:06:874
0,074324	0,124981	-0,028467	2020-11-19T14:22:06:891
0,085970	0,119213	-0,000219	2020-11-19T14:22:06:914
0,010763	0,144176	-0,038886	2020-11-19T14:22:06:932
0,058619	0,148962	-0,062815	2020-11-19T14:22:06:953
0,072383	0,173711	-0,046821	2020-11-19T14:22:06:971
0,081954	0,113891	-0,013320	2020-11-19T14:22:06:994
0,053467	0,089473	-0,049734	2020-11-19T14:22:07:011
0,077034	0,178536	0,024618	2020-11-19T14:22:07:034
0,046907	0,097656	-0,085098	2020-11-19T14:22:07:051
0,069160	0,118173	0,042409	2020-11-19T14:22:07:074
0,104127	0,221606	-0,063795	2020-11-19T14:22:07:091
0,018041	0,161295	-0,040052	2020-11-19T14:22:07:114
0,057817	0,170538	0,021219	2020-11-19T14:22:07:131
0,150083	0,052181	-0,059380	2020-11-19T14:22:07:154
0,032276	0,117544	-0,068380	2020-11-19T14:22:07:171
0,060003	0,074852	-0,087162	2020-11-19T14:22:07:193
0,075564	0,138169	0,035171	2020-11-19T14:22:07:212
0,073171	0,071169	-0,043793	2020-11-19T14:22:07:234
0,082945	0,108088	-0,009154	2020-11-19T14:22:07:252
0,068588	0,108088	-0,068974	2020-11-19T14:22:07:273
0,017751	0,162874	0,005355	2020-11-19T14:22:07:292
0,041679	0,129374	-0,009003	2020-11-19T14:22:07:314
0,073863	0,084018	-0,004017	2020-11-19T14:22:07:332
0,004250	0,151239	-0,074721	2020-11-19T14:22:07:355
0,016438	0,182893	-0,018376	2020-11-19T14:22:07:373
0,109658	0,176801	-0,033647	2020-11-19T14:22:07:395
0,088122	0,035625	-0,012112	2020-11-19T14:22:07:411
0,074604	0,060125	0,009086	2020-11-19T14:22:07:433
0,037977	0,081603	-0,018740	2020-11-19T14:22:07:452
0,007452	0,075016	-0,018404	2020-11-19T14:22:07:474
0,080938	0,082855	-0,013094	2020-11-19T14:22:07:492
0,041144	0,062101	-0,017763	2020-11-19T14:22:07:513
0,096774	0,187992	-0,026626	2020-11-19T14:22:07:531
0,049252	0,160223	-0,011806	2020-11-19T14:22:07:555
-0,000823	0,100517	-0,003179	2020-11-19T14:22:07:572
0,028268	0,096317	-0,004927	2020-11-19T14:22:07:594
0,059817	0,181985	0,035613	2020-11-19T14:22:07:612
-0,036747	0,091529	-0,090768	2020-11-19T14:22:07:634
0,082468	0,088690	-0,017530	2020-11-19T14:22:07:652
0,099917	0,209141	-0,029394	2020-11-19T14:22:07:674
0,095631	0,190331	-0,048308	2020-11-19T14:22:07:692
0,067741	0,144044	-0,028360	2020-11-19T14:22:07:714
0,008387	0,129462	0,038610	2020-11-19T14:22:07:732
0,008840	0,126064	0,031412	2020-11-19T14:22:07:754
0,059119	0,164599	-0,026576	2020-11-19T14:22:07:772
0,011013	0,133366	-0,037250	2020-11-19T14:22:07:794
0,101581	0,039657	-0,010801	2020-11-19T14:22:07:812
0,083362	0,098969	-0,031079	2020-11-19T14:22:07:835
0,055553	0,171576	-0,010080	2020-11-19T14:22:07:853
0,014875	0,154826	0,009063	2020-11-19T14:22:07:875
0,144194	0,103275	-0,010272	2020-11-19T14:22:07:892
0,056409	0,076695	-0,000376	2020-11-19T14:22:07:914
0,061807	0,129971	-0,075576	2020-11-19T14:22:07:932
0,050497	0,154964	-0,031960	2020-11-19T14:22:07:955
0,063614	0,118337	-0,015355	2020-11-19T14:22:07:972
0,102469	0,088933	-0,021729	2020-11-19T14:22:07:994
0,020864	0,190359	-0,070261	2020-11-19T14:22:08:012
0,037614	0,149681	-0,058296	2020-11-19T14:22:08:035
0,017814	0,099829	-0,014806	2020-11-19T14:22:08:052
0,127291	0,039171	-0,044993	2020-11-19T14:22:08:075
0,064206	0,023361	-0,069349	2020-11-19T14:22:08:092
-0,006873	0,073618	-0,068577	2020-11-19T14:22:08:115
0,043665	0,175148	-0,055438	2020-11-19T14:22:08:132
0,060414	0,261290	0,009169	2020-11-19T14:22:08:154
0,072400	0,138504	-0,013353	2020-11-19T14:22:08:172
0,078470	0,059047	-0,040045	2020-11-19T14:22:08:195
0,070590	0,096909	0,002390	2020-11-19T14:22:08:212
0,049426	0,075805	-0,092064	2020-11-19T14:22:08:234
0,010526	0,097214	-0,018032	2020-11-19T14:22:08:253
0,030221	0,159284	0,007286	2020-11-19T14:22:08:275
0,041446	0,172804	-0,042733	2020-11-19T14:22:08:293
0,036660	0,165625	0,012302	2020-11-19T14:22:08:315
0,109846	0,117802	-0,055501	2020-11-19T14:22:08:333
0,045740	0,114944	0,014439	2020-11-19T14:22:08:355
0,021006	0,086284	-0,003077	2020-11-19T14:22:08:373
0,073648	0,155675	-0,058112	2020-11-19T14:22:08:394
0,100612	0,191884	-0,026776	2020-11-19T14:22:08:412
0,077922	0,171571	-0,029839	2020-11-19T14:22:08:435
0,084490	0,113191	-0,073405	2020-11-19T14:22:08:454
0,067219	0,191372	-0,054673	2020-11-19T14:22:08:475
0,064509	0,149280	-0,076860	2020-11-19T14:22:08:493
0,093223	0,118173	0,004496	2020-11-19T14:22:08:515
0,006208	0,107350	-0,065556	2020-11-19T14:22:08:533
0,097135	0,059493	-0,060770	2020-11-19T14:22:08:556
0,076615	0,169653	-0,027777	2020-11-19T14:22:08:573
0,018326	0,224262	0,047461	2020-11-19T14:22:08:595
0,135628	0,163160	-0,027933	2020-11-19T14:22:08:613
0,069987	-0,001836	-0,058469	2020-11-19T14:22:08:635
0,037679	-0,006074	-0,052951	2020-11-19T14:22:08:653
0,000229	0,177717	-0,021237	2020-11-19T14:22:08:676
-0,035355	0,196828	-0,008550	2020-11-19T14:22:08:693
0,051858	0,155953	-0,025556	2020-11-19T14:22:08:715
0,075151	0,118888	-0,031956	2020-11-19T14:22:08:733
0,168739	0,131615	-0,066460	2020-11-19T14:22:08:756
0,074580	0,156683	0,014573	2020-11-19T14:22:08:773
0,124998	0,086196	-0,031004	2020-11-19T14:22:08:796
0,043642	0,047911	-0,054932	2020-11-19T14:22:08:813
0,118325	0,154355	0,008868	2020-11-19T14:22:08:836
0,063917	0,137969	-0,019936	2020-11-19T14:22:08:853
0,057662	0,151445	0,028711	2020-11-19T14:22:08:874
0,101699	0,169557	-0,025591	2020-11-19T14:22:08:893
-0,036250	0,154868	-0,045098	2020-11-19T14:22:08:916
0,096927	0,089824	-0,028999	2020-11-19T14:22:08:933
0,038054	-0,039652	-0,079925	2020-11-19T14:22:08:959
0,082872	0,033952	-0,022174	2020-11-19T14:22:08:973
0,069843	0,118130	-0,051204	2020-11-19T14:22:08:996
0,054624	0,127232	-0,049136	2020-11-19T14:22:09:013
0,030968	0,109398	-0,061525	2020-11-19T14:22:09:036
-0,010533	0,133527	-0,092319	2020-11-19T14:22:09:053
0,114956	0,168493	-0,003683	2020-11-19T14:22:09:076
0,123953	0,153693	-0,000539	2020-11-19T14:22:09:093
0,053348	0,123583	-0,059080	2020-11-19T14:22:09:115
0,046512	0,122388	-0,032199	2020-11-19T14:22:09:133
0,059078	0,111441	0,006608	2020-11-19T14:22:09:156
0,058135	0,051298	-0,024773	2020-11-19T14:22:09:173
0,078974	0,108481	-0,000027	2020-11-19T14:22:09:195
0,094355	0,159964	-0,007895	2020-11-19T14:22:09:213
0,065918	0,216798	0,000096	2020-11-19T14:22:09:236
0,166892	0,084545	-0,034633	2020-11-19T14:22:09:254
0,066830	0,053439	0,014298	2020-11-19T14:22:09:277
0,035723	0,101295	-0,038344	2020-11-19T14:22:09:293
0,051721	0,136227	-0,037497	2020-11-19T14:22:09:316
0,059230	0,074408	0,004766	2020-11-19T14:22:09:333
-0,003866	0,097819	0,021169	2020-11-19T14:22:09:355
0,101080	0,055952	0,001811	2020-11-19T14:22:09:374
0,076876	0,020117	-0,069306	2020-11-19T14:22:09:396
0,111959	0,140461	-0,074250	2020-11-19T14:22:09:414
0,097595	0,192892	0,004280	2020-11-19T14:22:09:435
-0,001557	0,068881	-0,013465	2020-11-19T14:22:09:454
0,062004	0,093927	-0,040143	2020-11-19T14:22:09:476
0,012153	0,184895	-0,003148	2020-11-19T14:22:09:494
0,050379	0,226769	-0,042641	2020-11-19T14:22:09:516
-0,011169	0,104147	0,012924	2020-11-19T14:22:09:534
0,103687	0,099362	-0,075610	2020-11-19T14:22:09:556
0,069530	0,148181	0,003328	2020-11-19T14:22:09:573
0,175831	0,157365	-0,024379	2020-11-19T14:22:09:596
0,088724	0,106622	-0,027802	2020-11-19T14:22:09:614
0,025904	0,129390	-0,040693	2020-11-19T14:22:09:636
0,023473	0,111073	-0,031461	2020-11-19T14:22:09:654
-0,005241	0,161323	-0,017104	2020-11-19T14:22:09:675
0,112999	0,055932	0,011023	2020-11-19T14:22:09:694
0,089966	0,051511	0,004128	2020-11-19T14:22:09:717
0,068430	0,108938	-0,084407	2020-11-19T14:22:09:734
0,019482	0,175488	0,003780	2020-11-19T14:22:09:757
0,095094	0,137091	-0,019648	2020-11-19T14:22:09:774
0,044848	0,102092	0,020050	2020-11-19T14:22:09:796
0,054854	0,133829	-0,020297	2020-11-19T14:22:09:814
0,021084	0,053635	-0,016076	2020-11-19T14:22:09:836
0,034591	0,137437	-0,041131	2020-11-19T14:22:09:854
0,031144	0,099133	-0,040949	2020-11-19T14:22:09:877
0,071075	0,103550	-0,027884	2020-11-19T14:22:09:894
0,001871	0,114632	-0,027210	2020-11-19T14:22:09:916
-0,016949	0,126135	0,028014	2020-11-19T14:22:09:934
0,086536	0,107399	-0,005907	2020-11-19T14:22:09:957
0,034338	0,191272	0,015402	2020-11-19T14:22:09:974
0,095403	0,102036	-0,021636	2020-11-19T14:22:09:997
0,040954	0,141674	0,000218	2020-11-19T14:22:10:014
0,054225	0,117153	-0,064454	2020-11-19T14:22:10:038
0,054499	0,095756	-0,006927	2020-11-19T14:22:10:054
0,054315	0,134351	-0,009213	2020-11-19T14:22:10:076
0,118514	0,128081	0,040341	2020-11-19T14:22:10:094
0,048123	0,157957	-0,003740	2020-11-19T14:22:10:117
0,088043	0,128992	-0,035062	2020-11-19T14:22:10:135
0,066508	0,011744	-0,023098	2020-11-19T14:22:10:156
0,074287	0,169912	0,055367	2020-11-19T14:22:10:174
0,096434	0,127434	-0,049570	2020-11-19T14:22:10:197
0,075047	0,205936	0,093483	2020-11-19T14:22:10:214
0,055096	0,034024	-0,020979	2020-11-19T14:22:10:237
0,044048	0,073053	0,012619	2020-11-19T14:22:10:254
0,108016	0,119254	-0,079114	2020-11-19T14:22:10:277
-0,006151	0,046992	0,007607	2020-11-19T14:22:10:294
0,071161	0,126669	-0,064795	2020-11-19T14:22:10:316
-0,034750	0,138879	0,030935	2020-11-19T14:22:10:334
0,035921	0,173175	-0,020159	2020-11-19T14:22:10:359
0,007817	0,118930	0,009323	2020-11-19T14:22:10:375
0,007736	0,167225	-0,017504	2020-11-19T14:22:10:397
0,124984	0,138511	0,027960	2020-11-19T14:22:10:414
0,036701	0,105459	-0,064449	2020-11-19T14:22:10:437
0,109140	0,144224	-0,030650	2020-11-19T14:22:10:455
0,021344	0,036006	-0,058808	2020-11-19T14:22:10:479
0,073345	0,214982	-0,058762	2020-11-19T14:22:10:495
0,056595	0,133626	-0,063548	2020-11-19T14:22:10:517
0,065827	0,176932	-0,057340	2020-11-19T14:22:10:534
0,067801	0,136681	-0,000812	2020-11-19T14:22:10:557
0,138772	0,019179	-0,072820	2020-11-19T14:22:10:575
0,149344	0,154130	-0,018265	2020-11-19T14:22:10:598
0,075671	0,188837	-0,057666	2020-11-19T14:22:10:615
0,039481	0,112599	-0,044230	2020-11-19T14:22:10:636
0,031033	0,099108	-0,079594	2020-11-19T14:22:10:655
0,039129	0,150664	0,035951	2020-11-19T14:22:10:678
0,111452	0,122316	-0,022267	2020-11-19T14:22:10:695
0,067919	0,169073	-0,070998	2020-11-19T14:22:10:719
0,115663	0,140337	-0,025899	2020-11-19T14:22:10:735
0,058235	0,125980	-0,045041	2020-11-19T14:22:10:758
0,108704	0,064518	-0,001619	2020-11-19T14:22:10:775
0,089486	0,203189	-0,036885	2020-11-19T14:22:10:797
0,064569	0,211835	-0,086298	2020-11-19T14:22:10:815
0,017443	0,147644	-0,012861	2020-11-19T14:22:10:838
0,101296	0,059707	-0,091218	2020-11-19T14:22:10:855
0,013114	0,146259	-0,062966	2020-11-19T14:22:10:877
0,096680	0,135811	-0,019957	2020-11-19T14:22:10:894
0,063006	0,159360	-0,016717	2020-11-19T14:22:10:918
0,043245	0,125569	-0,029915	2020-11-19T14:22:10:935
0,103799	0,034739	-0,074561	2020-11-19T14:22:10:959
0,052669	0,191470	-0,072465	2020-11-19T14:22:10:976
0,062240	0,141221	-0,046144	2020-11-19T14:22:10:998
0,043210	0,029303	-0,088967	2020-11-19T14:22:11:015
0,138600	0,085330	-0,037998	2020-11-19T14:22:11:037
-0,012148	0,140365	0,000287	2020-11-19T14:22:11:055
0,163032	0,162928	-0,070304	2020-11-19T14:22:11:078
0,121737	-0,015266	-0,040442	2020-11-19T14:22:11:095
-0,038017	0,118322	-0,055241	2020-11-19T14:22:11:118
0,031679	0,260055	-0,005056	2020-11-19T14:22:11:136
0,060393	0,123665	-0,050520	2020-11-19T14:22:11:158
0,120425	0,023884	-0,064540	2020-11-19T14:22:11:176
0,025401	0,031441	-0,034191	2020-11-19T14:22:11:198
0,043489	0,195602	0,027812	2020-11-19T14:22:11:216
0,124678	0,153129	-0,005784	2020-11-19T14:22:11:238
0,081607	0,169878	-0,034497	2020-11-19T14:22:11:255
0,039219	0,016912	-0,035686	2020-11-19T14:22:11:277
0,009148	0,196554	-0,009488	2020-11-19T14:22:11:295
0,018807	0,225972	-0,037207	2020-11-19T14:22:11:318
0,054350	0,131523	-0,040816	2020-11-19T14:22:11:335
0,085775	-0,035937	0,008122	2020-11-19T14:22:11:357
0,012822	0,119018	-0,079123	2020-11-19T14:22:11:375
0,045195	0,171901	-0,051156	2020-11-19T14:22:11:398
0,037324	0,048645	0,001202	2020-11-19T14:22:11:415
0,035617	0,039283	-0,021514	2020-11-19T14:22:11:438
0,052774	0,025751	-0,052546	2020-11-19T14:22:11:456
0,036024	0,140607	-0,064510	2020-11-19T14:22:11:478
0,094660	0,112861	-0,012309	2020-11-19T14:22:11:495
0,047511	0,204264	0,023549	2020-11-19T14:22:11:517
0,038388	0,111223	-0,028572	2020-11-19T14:22:11:535
0,070093	0,093935	0,016746	2020-11-19T14:22:11:559
0,085749	0,158143	-0,031436	2020-11-19T14:22:11:576
-0,009342	0,150942	-0,047079	2020-11-19T14:22:11:597
0,103535	0,139480	-0,002029	2020-11-19T14:22:11:616
0,083814	0,040694	-0,062561	2020-11-19T14:22:11:638
0,070689	0,141667	-0,005435	2020-11-19T14:22:11:656
0,078322	0,086885	0,000552	2020-11-19T14:22:11:679
0,114214	0,173026	0,019695	2020-11-19T14:22:11:696
0,076981	0,118189	-0,020056	2020-11-19T14:22:11:719
0,058894	0,095044	-0,032903	2020-11-19T14:22:11:736
0,034966	0,171614	-0,061617	2020-11-19T14:22:11:758
0,047105	0,106689	-0,011143	2020-11-19T14:22:11:776
0,083788	0,024674	0,011248	2020-11-19T14:22:11:798
0,058563	0,115714	0,015560	2020-11-19T14:22:11:816
0,025230	0,141982	-0,022724	2020-11-19T14:22:11:838
0,017429	0,112226	0,034505	2020-11-19T14:22:11:856
-0,025966	0,189199	-0,075101	2020-11-19T14:22:11:879
-0,030515	0,149277	-0,098342	2020-11-19T14:22:11:896
0,077162	0,235418	-0,000236	2020-11-19T14:22:11:919
0,079992	0,111702	-0,016616	2020-11-19T14:22:11:936
0,108706	0,075810	0,007312	2020-11-19T14:22:11:959
0,095196	0,122423	-0,016681	2020-11-19T14:22:11:976
0,057021	0,290637	-0,063186	2020-11-19T14:22:11:998
0,124196	0,136158	0,009768	2020-11-19T14:22:12:016
-0,002927	-0,002503	-0,043201	2020-11-19T14:22:12:039
0,080648	0,027704	-0,019701	2020-11-19T14:22:12:056
0,013673	0,150277	-0,127486	2020-11-19T14:22:12:078
0,052240	0,276175	0,013675	2020-11-19T14:22:12:095
0,101625	0,158443	-0,064930	2020-11-19T14:22:12:119
0,069553	0,044046	-0,042303	2020-11-19T14:22:12:136
0,033067	0,099367	-0,081920	2020-11-19T14:22:12:161
0,013925	0,230972	0,009008	2020-11-19T14:22:12:176
0,090812	0,004388	-0,084290	2020-11-19T14:22:12:198
0,017410	-0,047601	-0,021352	2020-11-19T14:22:12:216
0,069907	0,167807	0,021374	2020-11-19T14:22:12:238
0,033253	0,219563	-0,020818	2020-11-19T14:22:12:256
0,063701	0,062597	-0,038961	2020-11-19T14:22:12:279
0,099336	0,061702	-0,008616	2020-11-19T14:22:12:296
0,106687	0,180873	-0,029642	2020-11-19T14:22:12:318
0,144574	0,260349	0,008812	2020-11-19T14:22:12:336
0,032214	0,104477	0,009724	2020-11-19T14:22:12:360
0,022983	0,087848	0,000252	2020-11-19T14:22:12:376
0,106132	0,183494	0,003891	2020-11-19T14:22:12:400
0,056177	0,126488	-0,083388	2020-11-19T14:22:12:417
0,004130	0,123387	-0,006015	2020-11-19T14:22:12:439
0,023347	0,143013	-0,038960	2020-11-19T14:22:12:456
0,068378	0,123826	0,013939	2020-11-19T14:22:12:478
0,077182	0,153540	-0,013085	2020-11-19T14:22:12:497
0,059223	0,141618	-0,016652	2020-11-19T14:22:12:519
0,049293	0,101926	-0,031661	2020-11-19T14:22:12:536
0,085171	0,095156	-0,043453	2020-11-19T14:22:12:559
0,107581	0,053765	-0,097983	2020-11-19T14:22:12:576
0,112540	0,163213	-0,034303	2020-11-19T14:22:12:600
0,103322	0,140492	-0,030643	2020-11-19T14:22:12:618
0,065037	0,121349	-0,013893	2020-11-19T14:22:12:639
0,070039	0,084320	-0,022899	2020-11-19T14:22:12:657
0,014070	0,087498	-0,010729	2020-11-19T14:22:12:680
0,049324	0,135221	-0,075147	2020-11-19T14:22:12:696
0,113859	0,153746	0,037041	2020-11-19T14:22:12:719
0,024740	0,070701	-0,026310	2020-11-19T14:22:12:736
0,101971	0,102934	0,017335	2020-11-19T14:22:12:760
0,119954	0,108108	-0,007946	2020-11-19T14:22:12:777
0,013957	0,165305	-0,044369	2020-11-19T14:22:12:798
0,093297	0,232341	-0,023453	2020-11-19T14:22:12:817
0,052220	0,132750	-0,025163	2020-11-19T14:22:12:840
0,008572	0,155725	-0,086512	2020-11-19T14:22:12:857
0,031657	0,199259	-0,052264	2020-11-19T14:22:12:879
0,038352	0,120397	-0,060152	2020-11-19T14:22:12:897
0,032194	0,098231	-0,016187	2020-11-19T14:22:12:920
0,093080	0,090880	-0,036626	2020-11-19T14:22:12:937
0,069970	0,143418	0,000024	2020-11-19T14:22:12:959
0,027347	0,229386	0,014369	2020-11-19T14:22:12:977
0,065613	0,110397	-0,073205	2020-11-19T14:22:13:000
0,087631	0,086848	-0,000169	2020-11-19T14:22:13:017
0,053008	0,113471	-0,054210	2020-11-19T14:22:13:039
0,080442	0,187564	0,049824	2020-11-19T14:22:13:057
0,048573	0,158565	-0,006464	2020-11-19T14:22:13:080
0,068625	-0,027987	-0,037404	2020-11-19T14:22:13:097
0,061510	0,083725	-0,016870	2020-11-19T14:22:13:120
-0,057315	0,153671	-0,066094	2020-11-19T14:22:13:137
0,076683	0,206313	-0,046951	2020-11-19T14:22:13:160
0,060810	0,053580	-0,005969	2020-11-19T14:22:13:177
0,108043	0,066493	-0,002234	2020-11-19T14:22:13:199
0,012314	0,129302	-0,010862	2020-11-19T14:22:13:217
0,067529	0,152863	0,022841	2020-11-19T14:22:13:240
0,107658	0,131413	-0,026082	2020-11-19T14:22:13:257
0,057784	0,127388	-0,038005	2020-11-19T14:22:13:280
0,039457	0,138363	0,015355	2020-11-19T14:22:13:297
0,079203	0,171586	-0,051557	2020-11-19T14:22:13:320
-0,028368	0,106303	0,027131	2020-11-19T14:22:13:338
0,105168	0,178256	-0,015257	2020-11-19T14:22:13:360
0,062331	0,161965	0,033858	2020-11-19T14:22:13:378
0,079561	0,147842	-0,052115	2020-11-19T14:22:13:401
-0,042473	0,090414	-0,028188	2020-11-19T14:22:13:417
0,009476	0,181484	-0,019005	2020-11-19T14:22:13:439
0,096156	0,164616	-0,065128	2020-11-19T14:22:13:458
0,075260	0,064635	-0,013880	2020-11-19T14:22:13:520
0,029163	0,047292	-0,035759	2020-11-19T14:22:13:522
0,044573	0,128345	-0,009418	2020-11-19T14:22:13:523
0,113815	0,157885	-0,024809	2020-11-19T14:22:13:538
0,063565	0,153100	-0,043951	2020-11-19T14:22:13:561
0,063653	0,206418	-0,063819	2020-11-19T14:22:13:578
0,088683	0,160879	-0,001480	2020-11-19T14:22:13:602
0,033649	0,139344	-0,032586	2020-11-19T14:22:13:618
0,021671	0,114986	-0,064907	2020-11-19T14:22:13:640
0,050588	0,154995	0,019951	2020-11-19T14:22:13:658
0,099063	0,229173	-0,012094	2020-11-19T14:22:13:679
0,092333	0,111234	-0,021894	2020-11-19T14:22:13:698
-0,019574	0,119105	-0,031430	2020-11-19T14:22:13:720
0,035708	0,108867	-0,041940	2020-11-19T14:22:13:737
0,042215	0,162786	-0,053110	2020-11-19T14:22:13:760
0,077487	0,109408	-0,029243	2020-11-19T14:22:13:778
0,081428	0,093711	-0,081556	2020-11-19T14:22:13:800
0,119220	0,160908	-0,042232	2020-11-19T14:22:13:818
0,075714	0,154330	-0,014688	2020-11-19T14:22:13:840
-0,009024	0,085122	-0,077991	2020-11-19T14:22:13:858
0,060608	0,153122	-0,022150	2020-11-19T14:22:13:880
-0,016911	0,097727	0,012428	2020-11-19T14:22:13:898
0,141085	0,131821	-0,054989	2020-11-19T14:22:13:920
0,095444	0,165863	-0,030167	2020-11-19T14:22:13:938
0,083266	0,119630	-0,015139	2020-11-19T14:22:13:985
0,074374	0,100319	-0,113560	2020-11-19T14:22:13:987
0,068573	0,154386	0,052010	2020-11-19T14:22:14:000
0,017589	0,147388	-0,051579	2020-11-19T14:22:14:018
0,094160	0,082782	-0,015686	2020-11-19T14:22:14:053
0,055102	0,069390	-0,058793	2020-11-19T14:22:14:059
0,061529	0,209555	-0,034383	2020-11-19T14:22:14:082
0,077102	0,117908	-0,046467	2020-11-19T14:22:14:100
0,060740	0,057527	-0,109200	2020-11-19T14:22:14:232
0,072272	0,071739	-0,035500	2020-11-19T14:22:14:260
0,061983	0,212733	-0,049016	2020-11-19T14:22:14:260
0,024210	0,161298	0,002173	2020-11-19T14:22:14:261
0,083536	0,099888	-0,062843	2020-11-19T14:22:14:262
0,127809	0,132588	-0,028832	2020-11-19T14:22:14:263
0,023520	0,136512	-0,048875	2020-11-19T14:22:14:265
0,053036	0,061575	-0,025157	2020-11-19T14:22:14:266
0,030130	0,042121	-0,022071	2020-11-19T14:22:14:320
0,018598	0,073142	-0,099989	2020-11-19T14:22:14:330
0,061159	0,182302	-0,070378	2020-11-19T14:22:14:332
0,051795	0,093095	0,000129	2020-11-19T14:22:14:335
0,116635	0,079711	-0,025745	2020-11-19T14:22:14:359
0,084864	0,156058	-0,034821	2020-11-19T14:22:14:380
0,068399	0,160014	-0,022133	2020-11-19T14:22:14:400
0,176757	0,037158	0,043257	2020-11-19T14:22:14:419
0,102203	0,023730	-0,058584	2020-11-19T14:22:14:443
0,004097	0,133799	-0,072942	2020-11-19T14:22:14:460
0,075183	0,088678	-0,077013	2020-11-19T14:22:14:480
0,105639	0,159898	-0,002147	2020-11-19T14:22:14:499
0,019123	0,138307	-0,025110	2020-11-19T14:22:14:521
0,078187	0,106405	-0,041972	2020-11-19T14:22:14:539
0,008224	0,165817	-0,032322	2020-11-19T14:22:14:562
0,044116	0,196924	-0,027536	2020-11-19T14:22:14:580
0,049518	0,134782	0,013612	2020-11-19T14:22:14:603
0,066136	0,045004	0,022636	2020-11-19T14:22:14:620
0,065287	0,115098	-0,021628	2020-11-19T14:22:14:640
0,078265	0,108440	-0,035955	2020-11-19T14:22:14:660
0,056729	0,134761	-0,059883	2020-11-19T14:22:14:681
0,013601	0,160909	-0,036037	2020-11-19T14:22:14:699
0,092160	0,078382	-0,026688	2020-11-19T14:22:14:720
0,116647	0,129160	-0,049626	2020-11-19T14:22:14:739
0,037538	0,122410	0,000452	2020-11-19T14:22:14:762
0,069308	0,159485	-0,043042	2020-11-19T14:22:14:780
0,069400	0,089158	0,016061	2020-11-19T14:22:14:802
0,148364	0,062837	-0,000689	2020-11-19T14:22:14:819
0,016165	0,071179	-0,031023	2020-11-19T14:22:14:842
-0,003481	0,149788	-0,037071	2020-11-19T14:22:14:859
0,049784	0,174312	-0,035028	2020-11-19T14:22:14:880
0,055074	0,045647	-0,045316	2020-11-19T14:22:14:898
0,088887	0,098053	0,057166	2020-11-19T14:22:14:922
0,058369	0,153339	0,013953	2020-11-19T14:22:14:938
0,073053	0,108793	-0,005774	2020-11-19T14:22:14:961
0,000432	0,083070	-0,051099	2020-11-19T14:22:14:978
0,048297	0,083054	-0,033002	2020-11-19T14:22:15:002
0,064725	0,092052	-0,001162	2020-11-19T14:22:15:019
0,048953	0,170866	-0,018170	2020-11-19T14:22:15:041
-0,010693	0,233819	0,006446	2020-11-19T14:22:15:059
0,071459	0,114092	-0,053637	2020-11-19T14:22:15:082
0,023555	0,132342	-0,072146	2020-11-19T14:22:15:099
0,061580	0,192688	-0,004627	2020-11-19T14:22:15:120
0,073133	0,171371	0,036441	2020-11-19T14:22:15:138
0,128875	0,061766	-0,011094	2020-11-19T14:22:15:162
0,074311	0,033481	-0,036812	2020-11-19T14:22:15:178
0,051940	0,098234	-0,030043	2020-11-19T14:22:15:200
0,039649	0,184206	-0,029829	2020-11-19T14:22:15:219
0,082720	0,119600	-0,005900	2020-11-19T14:22:15:242
0,070663	0,105178	-0,017217	2020-11-19T14:22:15:260
0,026917	0,012878	-0,021682	2020-11-19T14:22:15:282
0,067238	0,142435	0,013288	2020-11-19T14:22:15:299
0,129451	0,197470	-0,020211	2020-11-19T14:22:15:322
0,051872	0,150994	-0,031706	2020-11-19T14:22:15:338
0,066886	0,143206	-0,029482	2020-11-19T14:22:15:362
0,016426	0,126004	-0,084739	2020-11-19T14:22:15:379
0,088113	0,148287	-0,036246	2020-11-19T14:22:15:402
0,026546	0,092174	-0,087196	2020-11-19T14:22:15:418
0,064208	0,144937	0,000261	2020-11-19T14:22:15:441
0,103277	0,190837	-0,084544	2020-11-19T14:22:15:460
0,086527	0,186052	-0,036688	2020-11-19T14:22:15:482
0,144988	0,049249	-0,023712	2020-11-19T14:22:15:499
0,052443	0,108362	-0,012957	2020-11-19T14:22:15:522
0,024795	0,112764	0,040689	2020-11-19T14:22:15:539
-0,004051	0,203978	0,041805	2020-11-19T14:22:15:563
0,088145	0,174265	-0,044916	2020-11-19T14:22:15:579
0,071395	0,124016	-0,009025	2020-11-19T14:22:15:601
0,052094	0,042336	-0,041664	2020-11-19T14:22:15:618
0,039087	0,162642	0,011096	2020-11-19T14:22:15:642
0,019546	0,244661	-0,042009	2020-11-19T14:22:15:660
0,079774	0,096281	-0,067599	2020-11-19T14:22:15:681
0,017456	0,102720	-0,014287	2020-11-19T14:22:15:699
0,019849	0,100327	-0,062144	2020-11-19T14:22:15:722
0,091836	0,129618	-0,036587	2020-11-19T14:22:15:740
0,054269	0,063218	-0,062884	2020-11-19T14:22:15:762
0,048050	0,096361	-0,027358	2020-11-19T14:22:15:780
0,076764	0,134646	-0,103929	2020-11-19T14:22:15:802
0,022643	0,141316	-0,026424	2020-11-19T14:22:15:820
-0,002891	0,129610	-0,001943	2020-11-19T14:22:15:841
0,019575	0,129116	0,022239	2020-11-19T14:22:15:860
0,080976	0,188069	0,000553	2020-11-19T14:22:15:882
0,086796	0,154132	-0,039132	2020-11-19T14:22:15:900
0,106852	0,096524	-0,060951	2020-11-19T14:22:15:921
0,052158	0,092163	-0,014569	2020-11-19T14:22:15:940
0,019709	0,108795	-0,063698	2020-11-19T14:22:15:963
0,030001	0,183772	-0,029085	2020-11-19T14:22:15:981
0,032394	0,119166	-0,024300	2020-11-19T14:22:16:003
0,045503	0,170084	-0,040264	2020-11-19T14:22:16:020
0,079003	0,177263	0,007592	2020-11-19T14:22:16:042
0,040181	0,101495	-0,000344	2020-11-19T14:22:16:060
0,029750	0,144507	-0,056555	2020-11-19T14:22:16:082
0,055882	0,102339	-0,079785	2020-11-19T14:22:16:100
0,071072	0,152311	0,050451	2020-11-19T14:22:16:123
0,048827	0,133175	-0,036815	2020-11-19T14:22:16:140
0,082918	0,133223	-0,051065	2020-11-19T14:22:16:162
0,110997	0,084352	-0,026636	2020-11-19T14:22:16:180
0,027692	0,099622	-0,003957	2020-11-19T14:22:16:203
0,106158	0,177456	-0,010325	2020-11-19T14:22:16:221
0,054181	0,097746	0,001073	2020-11-19T14:22:16:244
0,052478	0,156910	-0,044574	2020-11-19T14:22:16:261
-0,012128	0,147338	-0,025432	2020-11-19T14:22:16:283
0,030216	0,119792	-0,073240	2020-11-19T14:22:16:300
0,082258	0,153942	-0,012886	2020-11-19T14:22:16:322
0,097868	0,212543	-0,001607	2020-11-19T14:22:16:340
0,110857	0,194985	-0,022318	2020-11-19T14:22:16:363
0,021984	0,157892	-0,057404	2020-11-19T14:22:16:381
0,072233	0,191391	-0,004762	2020-11-19T14:22:16:402
0,035402	0,087035	-0,008939	2020-11-19T14:22:16:420
0,053057	0,045778	-0,070249	2020-11-19T14:22:16:443
0,090785	0,068501	-0,040080	2020-11-19T14:22:16:461
0,078300	0,129133	0,022070	2020-11-19T14:22:16:483
0,077222	0,102877	-0,030690	2020-11-19T14:22:16:501
0,007830	0,189019	0,007595	2020-11-19T14:22:16:523
0,029421	0,187816	0,000594	2020-11-19T14:22:16:540
-0,001141	0,104057	-0,056411	2020-11-19T14:22:16:562
0,058749	0,111982	-0,024639	2020-11-19T14:22:16:580
0,086231	0,118388	-0,032320	2020-11-19T14:22:16:603
0,052575	0,179275	-0,023673	2020-11-19T14:22:16:621
0,142567	0,129040	0,019627	2020-11-19T14:22:16:642
0,101383	0,157930	0,010762	2020-11-19T14:22:16:661
0,023157	0,097103	-0,040147	2020-11-19T14:22:16:684
0,088440	0,102342	-0,069948	2020-11-19T14:22:16:701
0,057334	0,133449	-0,012521	2020-11-19T14:22:16:723
0,017786	0,202672	0,029284	2020-11-19T14:22:16:741
0,115676	0,049908	0,000044	2020-11-19T14:22:16:764
0,093154	-0,106356	0,007124	2020-11-19T14:22:16:780
0,038333	0,069824	-0,079396	2020-11-19T14:22:16:802
0,005801	0,122428	0,007883	2020-11-19T14:22:16:821
0,012443	0,217030	-0,043601	2020-11-19T14:22:16:843
0,075893	0,019847	-0,005200	2020-11-19T14:22:16:861
0,006242	0,032951	-0,054317	2020-11-19T14:22:16:882
0,093733	0,146693	0,009648	2020-11-19T14:22:16:901
0,113144	0,130994	-0,012753	2020-11-19T14:22:16:924
0,103257	0,011773	-0,070378	2020-11-19T14:22:16:941
0,019518	0,106042	0,005914	2020-11-19T14:22:16:964
0,089918	0,104981	-0,049434	2020-11-19T14:22:16:981
0,042694	0,069290	-0,037627	2020-11-19T14:22:17:004
0,070511	0,154604	-0,057246	2020-11-19T14:22:17:021
0,068119	0,137854	-0,042890	2020-11-19T14:22:17:042
0,097903	0,152104	0,024925	2020-11-19T14:22:17:062
0,069189	0,020499	0,010568	2020-11-19T14:22:17:083
0,068024	0,099687	-0,011386	2020-11-19T14:22:17:101
0,125158	0,229656	-0,032639	2020-11-19T14:22:17:122
0,024028	0,171689	-0,028145	2020-11-19T14:22:17:141
0,111396	0,094835	-0,065009	2020-11-19T14:22:17:164
0,031594	-0,053124	-0,064264	2020-11-19T14:22:17:182
0,065311	0,087575	-0,045999	2020-11-19T14:22:17:204
0,048561	0,149788	-0,007713	2020-11-19T14:22:17:221
0,060467	0,031410	-0,018796	2020-11-19T14:22:17:244
0,076542	0,147105	0,027955	2020-11-19T14:22:17:261
0,092225	0,142900	0,015071	2020-11-19T14:22:17:283
0,011433	0,179725	-0,024088	2020-11-19T14:22:17:301
0,058632	0,130435	-0,047017	2020-11-19T14:22:17:324
0,023828	0,069264	-0,026260	2020-11-19T14:22:17:342
0,064506	0,133870	-0,014297	2020-11-19T14:22:17:363
0,130283	0,152423	-0,006165	2020-11-19T14:22:17:381
0,038197	0,160401	0,026171	2020-11-19T14:22:17:404
0,051583	0,033110	-0,033657	2020-11-19T14:22:17:421
0,040253	0,069557	-0,071972	2020-11-19T14:22:17:444
0,041443	0,211155	-0,025143	2020-11-19T14:22:17:462
0,137932	0,110759	-0,048573	2020-11-19T14:22:17:485
0,112537	0,050342	0,004310	2020-11-19T14:22:17:501
-0,019310	0,123937	-0,063647	2020-11-19T14:22:17:523
0,035351	0,215496	0,013795	2020-11-19T14:22:17:542
0,093678	0,037261	-0,010159	2020-11-19T14:22:17:564
0,095864	0,100278	-0,016327	2020-11-19T14:22:17:582
0,103973	0,207186	-0,067430	2020-11-19T14:22:17:603
0,042172	0,186172	-0,030909	2020-11-19T14:22:17:622
0,034993	0,080887	-0,052444	2020-11-19T14:22:17:644
0,119276	0,078753	-0,005776	2020-11-19T14:22:17:662
0,071540	0,104956	-0,036546	2020-11-19T14:22:17:684
0,061893	0,110859	-0,055223	2020-11-19T14:22:17:702
0,100178	0,089323	0,009384	2020-11-19T14:22:17:725
0,061991	0,019876	-0,054534	2020-11-19T14:22:17:741
0,031241	0,092600	0,002998	2020-11-19T14:22:17:764
0,041716	0,187917	-0,028155	2020-11-19T14:22:17:781
0,092697	0,096343	-0,017392	2020-11-19T14:22:17:804
0,102901	0,119834	-0,016794	2020-11-19T14:22:17:822
-0,011541	0,113946	-0,026081	2020-11-19T14:22:17:843
0,081523	0,208141	0,044319	2020-11-19T14:22:17:862
0,098273	0,133963	-0,005931	2020-11-19T14:22:17:884
0,010403	0,060472	0,006094	2020-11-19T14:22:17:902
0,024760	0,122686	-0,005871	2020-11-19T14:22:17:924
0,089672	0,145916	-0,001317	2020-11-19T14:22:17:942
0,082494	0,143523	0,001076	2020-11-19T14:22:17:964
0,052249	0,040057	-0,011340	2020-11-19T14:22:17:982
0,019481	0,023437	0,002823	2020-11-19T14:22:18:004
0,045743	0,281493	-0,038044	2020-11-19T14:22:18:022
0,074016	0,115191	0,019483	2020-11-19T14:22:18:044
0,018928	0,116737	-0,010972	2020-11-19T14:22:18:062
0,141652	0,040701	-0,026052	2020-11-19T14:22:18:083
0,031028	0,257357	-0,047771	2020-11-19T14:22:18:102
0,029502	0,127414	0,006367	2020-11-19T14:22:18:125
0,010910	0,016231	-0,053872	2020-11-19T14:22:18:142
0,040145	0,118504	-0,021954	2020-11-19T14:22:18:164
0,043704	0,096807	0,006845	2020-11-19T14:22:18:182
0,065300	0,100566	0,004018	2020-11-19T14:22:18:204
-0,068002	0,166601	-0,008592	2020-11-19T14:22:18:222
-0,005482	0,056007	-0,076144	2020-11-19T14:22:18:244
0,061171	0,125322	-0,053311	2020-11-19T14:22:18:262
0,063690	0,240716	0,001975	2020-11-19T14:22:18:285
0,117960	0,150521	0,015827	2020-11-19T14:22:18:302
0,078476	0,068073	-0,042570	2020-11-19T14:22:18:324
0,028172	0,000427	0,023818	2020-11-19T14:22:18:342
0,052825	0,220197	-0,073298	2020-11-19T14:22:18:366
0,050694	0,213795	0,022084	2020-11-19T14:22:18:382
0,077195	0,163604	-0,025389	2020-11-19T14:22:18:406
0,031732	0,036784	-0,022997	2020-11-19T14:22:18:423
0,065941	0,097075	-0,040777	2020-11-19T14:22:18:445
0,014660	0,227023	0,008631	2020-11-19T14:22:18:462
0,070365	0,063888	-0,014740	2020-11-19T14:22:18:484
0,059743	0,117754	-0,009570	2020-11-19T14:22:18:502
0,040880	0,196550	-0,076602	2020-11-19T14:22:18:525
0,081063	0,255995	-0,005754	2020-11-19T14:22:18:542
0,071506	0,133161	-0,096710	2020-11-19T14:22:18:564
0,070578	0,052959	-0,020788	2020-11-19T14:22:18:582
0,005137	0,190833	-0,001096	2020-11-19T14:22:18:605
0,056317	0,142731	-0,008952	2020-11-19T14:22:18:623
0,042717	0,023221	-0,043665	2020-11-19T14:22:18:645
0,079137	0,127689	0,007007	2020-11-19T14:22:18:663
0,010570	0,159841	0,003789	2020-11-19T14:22:18:685
0,025731	0,174358	-0,042210	2020-11-19T14:22:18:702
0,010841	0,150314	0,027718	2020-11-19T14:22:18:724
0,084696	0,145455	-0,051682	2020-11-19T14:22:18:742
-0,013755	0,255419	0,010775	2020-11-19T14:22:18:765
0,028697	0,179537	-0,022202	2020-11-19T14:22:18:783
-0,013449	0,129001	-0,013312	2020-11-19T14:22:18:804
0,052959	0,106101	-0,068336	2020-11-19T14:22:18:822
0,006952	0,134492	-0,008732	2020-11-19T14:22:18:846
0,139714	0,170328	0,014307	2020-11-19T14:22:18:863
0,104745	0,145743	0,047997	2020-11-19T14:22:18:887
0,076031	0,303670	-0,014215	2020-11-19T14:22:18:903
-0,015904	0,157665	-0,029076	2020-11-19T14:22:18:925
-0,116793	0,101223	0,035592	2020-11-19T14:22:18:943
-0,018537	0,116062	-0,069381	2020-11-19T14:22:18:965
0,053212	0,029411	-0,083544	2020-11-19T14:22:18:983
0,035514	0,088005	-0,108412	2020-11-19T14:22:19:006
-0,024444	0,063704	-0,004001	2020-11-19T14:22:19:023
0,080841	0,149845	-0,015965	2020-11-19T14:22:19:044
0,079482	0,180705	0,007928	2020-11-19T14:22:19:063
0,017000	0,183107	0,022534	2020-11-19T14:22:19:086
0,048355	0,166604	0,018539	2020-11-19T14:22:19:102
0,057279	0,151105	-0,064120	2020-11-19T14:22:19:127
0,050101	0,208533	-0,006692	2020-11-19T14:22:19:142
0,030745	0,198026	-0,018760	2020-11-19T14:22:19:166
0,072462	0,156092	-0,003423	2020-11-19T14:22:19:183
0,075441	0,103401	-0,062153	2020-11-19T14:22:19:205
0,091173	0,113069	-0,015768	2020-11-19T14:22:19:223
0,119384	0,121226	-0,088573	2020-11-19T14:22:19:246
0,053514	0,135127	-0,007938	2020-11-19T14:22:19:263
0,105255	0,098943	0,007540	2020-11-19T14:22:19:285
0,115417	0,183668	-0,005629	2020-11-19T14:22:19:303
0,067718	0,079171	0,042261	2020-11-19T14:22:19:331
0,084990	0,162389	-0,014642	2020-11-19T14:22:19:343
0,128879	0,070199	0,009542	2020-11-19T14:22:19:366
0,075548	0,085606	0,009193	2020-11-19T14:22:19:383
0,059571	0,110921	-0,059852	2020-11-19T14:22:19:407
0,059250	0,216243	-0,023998	2020-11-19T14:22:19:423
0,014943	0,211794	0,011181	2020-11-19T14:22:19:445
0,026812	0,037084	-0,001493	2020-11-19T14:22:19:463
0,063632	0,033396	-0,032347	2020-11-19T14:22:19:486
0,019281	0,077220	0,032053	2020-11-19T14:22:19:503
0,099500	0,103024	0,005349	2020-11-19T14:22:19:525
0,201143	0,084846	-0,000890	2020-11-19T14:22:19:543
0,074324	0,063310	-0,005675	2020-11-19T14:22:19:566
0,075985	0,029776	-0,081676	2020-11-19T14:22:19:584
0,063695	0,144426	-0,032241	2020-11-19T14:22:19:609
0,116174	0,097141	-0,035770	2020-11-19T14:22:19:624
0,170814	0,009246	-0,014684	2020-11-19T14:22:19:646
0,062738	0,061670	-0,071208	2020-11-19T14:22:19:664
0,093429	0,115860	-0,028897	2020-11-19T14:22:19:685
0,058224	0,170549	0,018575	2020-11-19T14:22:19:703
0,027602	0,012500	-0,020722	2020-11-19T14:22:19:726
0,067523	0,209159	-0,011071	2020-11-19T14:22:19:743
0,076966	0,181183	-0,029576	2020-11-19T14:22:19:765
0,047579	0,092825	-0,042583	2020-11-19T14:22:19:783
0,101448	0,103335	-0,045772	2020-11-19T14:22:19:806
0,085448	0,099329	-0,015923	2020-11-19T14:22:19:824
0,089414	0,096654	-0,001106	2020-11-19T14:22:19:847
0,058727	0,078367	-0,073825	2020-11-19T14:22:19:864
0,056334	0,109474	-0,016397	2020-11-19T14:22:19:886
0,082703	0,050246	-0,102271	2020-11-19T14:22:19:903
0,038041	0,046411	-0,031643	2020-11-19T14:22:19:925
0,047222	0,107568	0,033505	2020-11-19T14:22:19:943
0,041223	0,041936	0,010336	2020-11-19T14:22:19:967
0,061780	0,134455	-0,033198	2020-11-19T14:22:19:984
0,057873	0,219147	-0,060028	2020-11-19T14:22:20:006
0,041269	0,198564	0,028216	2020-11-19T14:22:20:024
0,129009	0,002199	0,020143	2020-11-19T14:22:20:046
0,024644	0,076762	-0,084477	2020-11-19T14:22:20:065
0,041394	0,220331	-0,034228	2020-11-19T14:22:20:086
0,111535	0,205829	0,038243	2020-11-19T14:22:20:104
0,055775	0,216572	-0,044777	2020-11-19T14:22:20:126
0,063007	0,012500	0,040382	2020-11-19T14:22:20:144
0,040961	0,166512	-0,053997	2020-11-19T14:22:20:166
0,081090	0,136175	-0,011370	2020-11-19T14:22:20:184
-0,006863	0,113153	-0,048850	2020-11-19T14:22:20:207
0,045779	0,137081	0,008577	2020-11-19T14:22:20:224
0,048734	0,194708	0,002926	2020-11-19T14:22:20:245
0,084378	0,242606	-0,037432	2020-11-19T14:22:20:264
0,072974	0,114302	-0,047554	2020-11-19T14:22:20:287
0,068736	0,083767	-0,095421	2020-11-19T14:22:20:304
0,077371	0,122711	0,005924	2020-11-19T14:22:20:327
0,050646	0,111666	-0,015273	2020-11-19T14:22:20:344
0,084145	0,027917	-0,015273	2020-11-19T14:22:20:367
0,014561	0,130569	-0,013680	2020-11-19T14:22:20:384
0,051792	0,232439	-0,033075	2020-11-19T14:22:20:406
0,100229	0,054536	-0,038471	2020-11-19T14:22:20:424
0,018872	0,095214	-0,050434	2020-11-19T14:22:20:447
0,028319	0,104852	-0,002235	2020-11-19T14:22:20:465
0,083354	0,171851	-0,030949	2020-11-19T14:22:20:486
0,095139	0,100375	-0,020235	2020-11-19T14:22:20:504
0,100236	-0,017477	-0,054619	2020-11-19T14:22:20:527
0,046964	0,061283	0,005389	2020-11-19T14:22:20:544
0,051818	0,099006	-0,047809	2020-11-19T14:22:20:568
0,079551	0,232710	-0,020391	2020-11-19T14:22:20:585
0,065194	0,127425	-0,041926	2020-11-19T14:22:20:606
0,043305	0,030617	-0,042773	2020-11-19T14:22:20:624
0,077715	0,156991	-0,051698	2020-11-19T14:22:20:646
0,129716	0,109302	-0,030179	2020-11-19T14:22:20:665
0,131084	0,046821	-0,022550	2020-11-19T14:22:20:687
0,025317	0,074543	-0,056153	2020-11-19T14:22:20:704
0,002332	0,113597	-0,024566	2020-11-19T14:22:20:726
0,070302	0,202782	-0,002282	2020-11-19T14:22:20:744
0,031814	0,093885	0,012868	2020-11-19T14:22:20:768
0,117918	0,091151	-0,037535	2020-11-19T14:22:20:784
0,037958	0,117486	-0,027385	2020-11-19T14:22:20:807
0,052986	0,073503	0,034524	2020-11-19T14:22:20:826
0,055148	0,230681	0,005454	2020-11-19T14:22:20:847
0,091261	0,073202	-0,018975	2020-11-19T14:22:20:865
0,029688	0,036482	-0,049644	2020-11-19T14:22:20:886
0,026326	0,144801	0,016476	2020-11-19T14:22:20:904
0,070672	0,133812	-0,018502	2020-11-19T14:22:20:927
0,053205	0,165301	0,018811	2020-11-19T14:22:20:945
0,053491	0,099668	-0,018524	2020-11-19T14:22:20:966
0,098866	0,116547	-0,013695	2020-11-19T14:22:20:985
0,026327	0,162897	-0,011022	2020-11-19T14:22:21:008
0,021924	0,206760	-0,030476	2020-11-19T14:22:21:026
0,060534	0,145777	-0,034033	2020-11-19T14:22:21:047
0,066117	0,129155	-0,021902	2020-11-19T14:22:21:065
0,066103	0,160556	-0,021776	2020-11-19T14:22:21:087
0,090204	0,097388	0,006549	2020-11-19T14:22:21:105
0,010333	0,041715	-0,105281	2020-11-19T14:22:21:126
0,025815	0,083094	0,029190	2020-11-19T14:22:21:145
-0,012497	0,266196	-0,056082	2020-11-19T14:22:21:168
0,001876	0,152624	-0,014897	2020-11-19T14:22:21:185
0,021581	0,111003	-0,007714	2020-11-19T14:22:21:206
0,100078	0,109647	-0,050067	2020-11-19T14:22:21:225
0,119861	0,118820	0,019944	2020-11-19T14:22:21:248
0,011667	0,171568	-0,011523	2020-11-19T14:22:21:265
0,042936	0,118792	-0,079260	2020-11-19T14:22:21:287
0,075299	0,232194	0,031393	2020-11-19T14:22:21:305
0,024361	0,183578	0,033681	2020-11-19T14:22:21:328
0,073905	0,048620	-0,024960	2020-11-19T14:22:21:345
0,049420	0,134416	0,007989	2020-11-19T14:22:21:367
0,076330	0,216908	-0,007863	2020-11-19T14:22:21:385
0,088294	0,195373	0,042386	2020-11-19T14:22:21:408
0,082355	0,043967	-0,095485	2020-11-19T14:22:21:425
0,072790	0,125426	-0,020552	2020-11-19T14:22:21:446
0,035194	0,087498	-0,033621	2020-11-19T14:22:21:465
0,030162	0,155483	-0,022285	2020-11-19T14:22:21:488
0,047105	0,118028	-0,074203	2020-11-19T14:22:21:505
0,113761	0,103118	-0,019436	2020-11-19T14:22:21:527
0,092383	0,091565	-0,023318	2020-11-19T14:22:21:545
0,030912	0,233926	-0,032606	2020-11-19T14:22:21:568
0,037755	0,194755	-0,032388	2020-11-19T14:22:21:585
0,027589	0,194114	-0,026274	2020-11-19T14:22:21:607
0,010459	0,126880	-0,015163	2020-11-19T14:22:21:625
0,058304	0,126704	-0,022082	2020-11-19T14:22:21:648
0,057960	0,147447	-0,017688	2020-11-19T14:22:21:666
0,057879	0,167292	-0,008861	2020-11-19T14:22:21:687
0,117058	0,125966	-0,070088	2020-11-19T14:22:21:706
0,094641	0,021000	-0,024949	2020-11-19T14:22:21:728
0,015976	0,160405	-0,023602	2020-11-19T14:22:21:746
0,011191	0,134084	-0,061887	2020-11-19T14:22:21:768
0,090667	0,112607	-0,023168	2020-11-19T14:22:21:785
0,000798	0,121285	-0,027492	2020-11-19T14:22:21:808
0,089637	0,119451	-0,012511	2020-11-19T14:22:21:825
0,099891	0,207855	-0,003238	2020-11-19T14:22:21:847
0,090987	0,107263	-0,017558	2020-11-19T14:22:21:866
0,050664	0,134678	-0,051907	2020-11-19T14:22:21:888
-0,002259	0,193836	0,016126	2020-11-19T14:22:21:906
0,082874	0,152687	-0,015695	2020-11-19T14:22:21:927
0,022504	0,153137	-0,039512	2020-11-19T14:22:21:945
0,049135	0,068747	0,002297	2020-11-19T14:22:21:969
0,098590	0,042587	0,035754	2020-11-19T14:22:21:986
0,014256	0,146913	0,028776	2020-11-19T14:22:22:008
0,123312	0,124914	0,037313	2020-11-19T14:22:22:026
0,107093	0,055722	-0,036011	2020-11-19T14:22:22:048
0,000914	0,094394	-0,035275	2020-11-19T14:22:22:066
0,080182	0,167785	-0,029422	2020-11-19T14:22:22:088
0,069496	0,129723	-0,023332	2020-11-19T14:22:22:106
0,009558	0,177682	-0,008946	2020-11-19T14:22:22:128
0,071580	0,117108	-0,079383	2020-11-19T14:22:22:146
0,001118	0,179551	-0,055505	2020-11-19T14:22:22:168
0,059019	0,112133	-0,041956	2020-11-19T14:22:22:186
0,082839	0,131773	0,001313	2020-11-19T14:22:22:209
0,057532	0,085685	-0,032646	2020-11-19T14:22:22:226
0,066033	0,102956	-0,053082	2020-11-19T14:22:22:250
0,015784	0,107741	-0,088973	2020-11-19T14:22:22:266
0,056091	0,057403	-0,042237	2020-11-19T14:22:22:288
0,072683	0,082359	-0,031218	2020-11-19T14:22:22:306
0,090971	0,164831	-0,006927	2020-11-19T14:22:22:328
0,153438	0,220170	0,009989	2020-11-19T14:22:22:346
0,028082	0,098468	-0,022460	2020-11-19T14:22:22:369
0,110552	0,091876	0,018624	2020-11-19T14:22:22:386
0,028954	0,149903	-0,001654	2020-11-19T14:22:22:408
0,074418	0,109225	-0,016010	2020-11-19T14:22:22:426
0,062807	0,053399	0,002511	2020-11-19T14:22:22:449
0,095022	0,083927	0,017467	2020-11-19T14:22:22:467
0,064360	0,173363	-0,037450	2020-11-19T14:22:22:489
0,114608	0,122979	0,011716	2020-11-19T14:22:22:506
0,042173	0,043368	-0,063159	2020-11-19T14:22:22:529
-0,033448	0,067062	-0,051505	2020-11-19T14:22:22:546
0,048274	0,176100	-0,015682	2020-11-19T14:22:22:568
0,064853	0,091826	0,004576	2020-11-19T14:22:22:586
0,083995	0,175575	-0,026531	2020-11-19T14:22:22:609
0,059277	0,042434	-0,046442	2020-11-19T14:22:22:626
0,083009	0,098343	-0,021138	2020-11-19T14:22:22:648
0,084168	0,181723	-0,074109	2020-11-19T14:22:22:667
0,082355	0,189725	0,007689	2020-11-19T14:22:22:689
0,121119	0,135513	-0,013415	2020-11-19T14:22:22:706
0,093671	0,097317	0,045959	2020-11-19T14:22:22:729
-0,011694	0,152115	-0,028659	2020-11-19T14:22:22:746
0,058497	0,228700	0,025796	2020-11-19T14:22:22:769
0,058606	0,024961	0,018830	2020-11-19T14:22:22:786
0,084332	0,176533	0,000981	2020-11-19T14:22:22:808
0,054189	0,146707	-0,079677	2020-11-19T14:22:22:826
0,034891	0,205185	-0,032414	2020-11-19T14:22:22:851
0,000133	-0,027550	-0,007229	2020-11-19T14:22:22:866
0,038478	0,111742	-0,070608	2020-11-19T14:22:22:888
0,083122	0,142766	-0,074188	2020-11-19T14:22:22:906
0,067996	0,104352	0,014185	2020-11-19T14:22:22:929
0,103185	0,128165	-0,043390	2020-11-19T14:22:22:947
0,087427	0,106134	0,017051	2020-11-19T14:22:22:969
0,016765	0,171433	-0,078540	2020-11-19T14:22:22:986
0,029033	0,120406	0,010033	2020-11-19T14:22:23:010
0,038604	0,139549	-0,018682	2020-11-19T14:22:23:026
0,090915	0,011542	-0,016842	2020-11-19T14:22:23:048
0,110203	0,125831	-0,048844	2020-11-19T14:22:23:067
0,091611	0,156915	-0,015606	2020-11-19T14:22:23:089
0,042566	0,233259	0,016608	2020-11-19T14:22:23:107
0,088839	0,109793	-0,012261	2020-11-19T14:22:23:128
0,103495	0,071919	0,057019	2020-11-19T14:22:23:147
0,050201	0,065969	-0,076869	2020-11-19T14:22:23:170
0,007263	0,130959	-0,003880	2020-11-19T14:22:23:187
0,058984	0,118767	-0,040691	2020-11-19T14:22:23:209
0,071581	0,090996	-0,026172	2020-11-19T14:22:23:227
0,016546	0,119709	0,000150	2020-11-19T14:22:23:249
0,067205	0,087022	-0,027835	2020-11-19T14:22:23:267
0,073843	0,200539	0,049113	2020-11-19T14:22:23:289
0,073844	0,069417	-0,004673	2020-11-19T14:22:23:307
0,059487	0,055060	0,031220	2020-11-19T14:22:23:330
0,078522	0,147221	-0,065350	2020-11-19T14:22:23:347
0,063572	0,151561	0,006165	2020-11-19T14:22:23:369
0,061313	0,061541	-0,013596	2020-11-19T14:22:23:387
0,063252	0,180464	-0,041655	2020-11-19T14:22:23:410
0,000878	0,082508	-0,068957	2020-11-19T14:22:23:427
0,094867	0,109646	0,026154	2020-11-19T14:22:23:449
0,083220	0,136613	-0,024102	2020-11-19T14:22:23:468
0,053648	0,034740	-0,009425	2020-11-19T14:22:23:490
0,003448	0,146406	-0,043601	2020-11-19T14:22:23:507
0,068610	0,152623	0,020995	2020-11-19T14:22:23:529
0,092029	0,167516	-0,008584	2020-11-19T14:22:23:547
0,099346	0,118795	0,020819	2020-11-19T14:22:23:570
0,018156	0,075896	-0,003339	2020-11-19T14:22:23:587
0,039369	0,131407	-0,032934	2020-11-19T14:22:23:609
0,105504	0,158446	-0,049169	2020-11-19T14:22:23:627
0,022400	0,148585	-0,032781	2020-11-19T14:22:23:650
0,134079	0,095130	-0,006589	2020-11-19T14:22:23:668
0,029780	0,155097	-0,013196	2020-11-19T14:22:23:690
0,065705	0,115667	0,009205	2020-11-19T14:22:23:716
0,009112	0,220755	-0,063916	2020-11-19T14:22:23:741
0,073178	0,180267	-0,023603	2020-11-19T14:22:23:748
0,109071	0,170695	-0,009246	2020-11-19T14:22:23:769
0,035416	0,123830	-0,078469	2020-11-19T14:22:23:787
0,080471	0,126904	-0,031414	2020-11-19T14:22:23:810
0,134666	0,111338	-0,057341	2020-11-19T14:22:23:856
-0,012148	0,116191	-0,008870	2020-11-19T14:22:23:860
-0,032362	0,200505	-0,008120	2020-11-19T14:22:23:871
0,087203	0,123391	-0,025486	2020-11-19T14:22:23:891
0,044132	0,243032	0,031941	2020-11-19T14:22:23:908
0,052296	0,148246	-0,045822	2020-11-19T14:22:23:931
0,054689	0,131496	-0,048214	2020-11-19T14:22:23:948
-0,016397	0,054001	-0,021167	2020-11-19T14:22:23:971
0,054427	0,097980	-0,024005	2020-11-19T14:22:23:988
0,096018	0,151348	-0,040648	2020-11-19T14:22:24:010
0,027277	0,100064	-0,064934	2020-11-19T14:22:24:028
0,046420	0,164670	-0,033828	2020-11-19T14:22:24:051
0,038727	0,161611	-0,019496	2020-11-19T14:22:24:068
0,103062	0,190017	-0,037445	2020-11-19T14:22:24:090
0,119558	-0,000870	0,008581	2020-11-19T14:22:24:108
0,038202	0,123556	-0,005774	2020-11-19T14:22:24:131
0,098498	0,209905	-0,047328	2020-11-19T14:22:24:148
0,010357	0,157873	-0,033352	2020-11-19T14:22:24:171
0,007965	0,107623	0,012112	2020-11-19T14:22:24:188
0,011027	0,168128	0,003596	2020-11-19T14:22:24:211
0,034955	0,139414	-0,065796	2020-11-19T14:22:24:228
0,018472	0,155455	-0,002148	2020-11-19T14:22:24:250
0,059847	0,151319	-0,044842	2020-11-19T14:22:24:269
0,009454	0,202085	-0,072680	2020-11-19T14:22:24:291
0,076956	0,130817	-0,047422	2020-11-19T14:22:24:309
0,062599	0,104496	-0,030673	2020-11-19T14:22:24:330
0,037261	0,210677	-0,012362	2020-11-19T14:22:24:348
-0,029824	0,089189	-0,046334	2020-11-19T14:22:24:370
0,081643	0,128062	-0,030129	2020-11-19T14:22:24:389
0,050093	0,113704	-0,071886	2020-11-19T14:22:24:412
0,078461	0,241627	-0,026713	2020-11-19T14:22:24:429
0,116746	0,107629	-0,017141	2020-11-19T14:22:24:450
0,081882	0,134710	-0,019739	2020-11-19T14:22:24:470
0,019080	0,164925	-0,050279	2020-11-19T14:22:24:489
0,031167	0,135533	-0,028681	2020-11-19T14:22:24:508
0,040091	0,184736	-0,002564	2020-11-19T14:22:24:530
0,043038	0,080682	-0,061452	2020-11-19T14:22:24:548
-0,045307	0,109328	-0,065205	2020-11-19T14:22:24:571
0,035133	0,063761	-0,024019	2020-11-19T14:22:24:588
0,130487	0,132939	-0,057663	2020-11-19T14:22:24:612
0,065670	0,175107	0,016768	2020-11-19T14:22:24:628
0,061823	0,140761	-0,016977	2020-11-19T14:22:24:651
0,046226	0,197395	0,003338	2020-11-19T14:22:24:669
0,074758	0,145724	-0,048919	2020-11-19T14:22:24:692
0,068097	0,168760	-0,100845	2020-11-19T14:22:24:708
0,103989	0,140046	-0,048203	2020-11-19T14:22:24:731
0,145276	0,051770	0,012505	2020-11-19T14:22:24:748
0,095970	0,088073	-0,040837	2020-11-19T14:22:24:772
0,066784	0,162510	-0,043520	2020-11-19T14:22:24:788
0,076038	0,105724	-0,075421	2020-11-19T14:22:24:810
0,087134	0,043026	0,004239	2020-11-19T14:22:24:831
0,027477	0,120185	-0,049825	2020-11-19T14:22:24:853
0,035528	0,185655	-0,020282	2020-11-19T14:22:24:870
0,052106	0,091254	-0,055634	2020-11-19T14:22:24:892
0,094951	0,095895	-0,003419	2020-11-19T14:22:24:909
0,025559	0,162894	-0,048882	2020-11-19T14:22:24:931
0,048371	0,169137	-0,014242	2020-11-19T14:22:24:948
0,162727	0,139187	-0,039796	2020-11-19T14:22:24:970
0,080838	0,084455	-0,033557	2020-11-19T14:22:24:989
0,076053	0,132311	-0,043128	2020-11-19T14:22:25:012
0,022501	0,170441	-0,014262	2020-11-19T14:22:25:029
0,058393	0,144120	-0,114761	2020-11-19T14:22:25:050
0,081898	0,048229	-0,055075	2020-11-19T14:22:25:069
0,024984	0,158652	-0,001518	2020-11-19T14:22:25:091
0,015466	0,119849	-0,065992	2020-11-19T14:22:25:109
0,061825	0,082116	-0,040335	2020-11-19T14:22:25:132
0,073297	0,115456	-0,000122	2020-11-19T14:22:25:149
0,111583	0,048457	-0,024050	2020-11-19T14:22:25:171
0,043196	0,215565	-0,054820	2020-11-19T14:22:25:189
0,096188	0,093420	-0,023365	2020-11-19T14:22:25:210
0,066964	0,169607	-0,078960	2020-11-19T14:22:25:229
0,069357	0,042788	-0,021532	2020-11-19T14:22:25:250
0,009035	0,146770	-0,058399	2020-11-19T14:22:25:269
0,064326	0,178772	0,001144	2020-11-19T14:22:25:290
0,028015	0,085389	-0,004746	2020-11-19T14:22:25:309
0,064764	0,032586	-0,056318	2020-11-19T14:22:25:331
0,082422	0,134481	-0,026190	2020-11-19T14:22:25:349
0,086429	0,128143	-0,048822	2020-11-19T14:22:25:373
0,092023	0,135025	-0,063522	2020-11-19T14:22:25:389
0,027417	0,132632	-0,018058	2020-11-19T14:22:25:412
0,019869	0,107769	-0,013395	2020-11-19T14:22:25:429
0,074530	0,220588	-0,046468	2020-11-19T14:22:25:450
0,080118	0,109404	-0,030060	2020-11-19T14:22:25:469
0,072696	0,077573	-0,054658	2020-11-19T14:22:25:491
0,082743	0,084154	-0,018260	2020-11-19T14:22:25:509
0,049404	0,156371	-0,030344	2020-11-19T14:22:25:530
0,035889	0,203193	-0,001957	2020-11-19T14:22:25:549
