1603995256.00
64.000000
-0.00
-0.00
-0.00
-0.00
-0.00
-0.00
-0.00
-0.00
-0.00
-0.00
0.00
0.01
0.01
-0.00
-0.03
-0.05
-0.05
0.00
0.13
0.36
0.66
1.01
1.37
1.72
2.06
2.40
2.79
3.24
3.80
4.42
5.06
5.66
6.20
6.68
7.15
7.68
8.31
9.14
10.09
11.04
11.88
12.56
13.14
13.76
14.65
15.96
17.91
20.32
22.90
25.38
27.58
29.57
31.68
34.32
37.81
42.54
48.15
54.10
59.83
64.97
69.58
74.14
79.34
85.71
93.76
103.00
112.62
121.73
129.77
136.75
143.30
150.75
157.77
166.64
177.95
191.79
206.97
220.57
228.25
225.36
208.53
176.87
132.76
80.05
23.07
-34.94
-92.44
-149.16
-205.23
-260.37
-313.74
-363.87
-409.83
-450.91
-486.50
-515.74
-537.23
-549.22
-549.96
-538.37
-514.21
-478.67
-433.88
-382.45
-327.02
-269.84
-212.63
-156.66
-102.95
-52.37
-5.90
35.58
71.43
101.35
125.50
144.38
158.69
169.15
176.37
180.75
182.57
182.07
179.51
175.23
169.65
163.18
156.15
148.81
141.30
133.69
126.02
118.33
110.69
103.16
95.80
88.68
81.83
75.25
68.95
62.95
57.25
51.86
46.78
42.03
37.59
33.45
29.61
26.07
22.81
19.83
17.11
14.67
12.48
10.54
8.83
7.35
6.07
4.97
4.05
3.27
2.62
2.09
1.65
1.30
1.01
0.79
0.61
0.47
0.37
0.29
0.23
0.20
0.17
0.16
0.16
0.17
0.19
0.22
0.25
0.28
0.32
0.37
0.41
0.45
0.50
0.55
0.60
0.65
0.71
0.77
0.83
0.91
0.98
1.07
1.16
1.27
1.39
1.52
1.68
1.84
2.03
2.24
2.47
2.73
3.01
3.32
3.67
4.04
4.45
4.89
5.37
5.89
6.44
7.04
7.68
8.36
9.09
9.86
10.68
11.54
12.45
13.40
14.42
15.49
16.63
17.83
19.09
20.36
21.63
22.81
23.81
24.54
24.87
24.69
23.87
22.37
20.14
17.22
13.68
9.61
5.23
0.71
-3.72
-7.88
-11.57
-14.65
-17.04
-18.67
-19.58
-19.78
-19.37
-18.45
-17.13
-15.51
-13.71
-11.82
-9.92
-8.08
-6.28
-4.57
-2.93
-1.33
0.29
1.94
3.64
5.36
7.14
9.02
10.94
12.90
14.96
17.15
19.49
21.97
24.56
27.25
30.17
33.15
36.20
39.42
42.85
46.45
50.14
53.74
57.21
60.66
63.91
67.08
70.44
74.16
78.22
82.39
86.29
89.62
92.37
94.20
95.23
95.71
95.69
94.75
91.84
85.31
72.91
57.02
38.47
18.22
-2.69
-23.42
-43.55
-63.16
-82.72
-103.03
-124.96
-149.93
-178.38
-209.25
-239.66
-265.39
-282.02
-286.61
-278.79
-260.93
-237.70
-213.80
-192.56
-175.27
-161.46
-149.67
-138.17
-125.45
-110.31
-92.35
-71.60
-48.79
-25.26
-2.71
17.26
33.52
45.65
53.93
58.93
61.53
62.61
62.89
62.74
62.23
61.08
59.00
55.88
51.86
47.55
43.72
41.07
39.90
39.88
40.18
39.68
37.43
32.99
26.57
18.96
11.13
3.95
-2.15
-7.23
-11.77
-16.46
-21.98
-28.76
-36.75
-45.25
-52.85
-57.74
-58.19
-53.14
-42.67
-28.00
-11.20
5.49
20.22
31.97
40.56
46.42
50.23
52.57
53.80
54.08
53.49
52.13
50.24
48.13
46.06
44.20
42.51
40.85
39.04
37.02
34.83
32.60
30.41
28.28
26.05
23.44
20.11
15.80
10.48
4.39
-1.99
-8.04
-13.33
-17.67
-21.24
-24.49
-27.94
-32.16
-37.61
-44.68
-53.44
-63.42
-73.39
-81.41
-85.25
-83.10
-74.33
-59.72
-41.29
-21.58
-2.89
13.30
26.44
36.63
44.35
50.13
54.46
57.73
60.26
62.13
63.23
63.35
62.30
60.19
57.40
54.55
52.22
50.73
50.09
49.99
50.00
49.71
48.83
47.17
44.65
41.32
37.29
32.80
28.08
23.33
18.60
13.88
9.09
4.27
-0.47
-4.95
-9.09
-12.97
-16.85
-21.00
-25.58
-30.56
-35.72
-40.80
-45.66
-50.37
-55.19
-60.55
-66.86
-74.43
-83.14
-92.22
-100.24
-105.25
-105.37
-99.42
-87.42
-70.66
-51.28
-31.60
-13.44
2.24
15.26
25.97
34.85
42.30
48.63
54.03
58.65
62.61
65.90
68.47
70.19
70.91
70.57
69.28
67.27
64.97
62.82
61.20
60.26
59.82
59.47
58.65
56.90
54.03
50.24
45.99
41.82
38.12
34.92
31.99
28.89
25.24
20.92
16.05
11.01
6.21
1.87
-2.07
-5.93
-10.15
-15.09
-20.83
-27.19
-33.67
-39.76
-45.08
-49.56
-53.45
-57.19
-61.27
-66.12
-72.03
-79.02
-86.72
-94.17
-99.89
-102.05
-99.03
-90.07
-75.59
-57.24
-37.31
-18.08
-1.11
12.96
24.28
33.41
40.90
47.13
52.31
56.58
60.08
62.91
65.08
66.49
66.91
66.13
64.07
60.89
57.00
52.98
49.46
46.88
45.41
44.86
44.79
44.64
44.01
42.66
40.68
38.31
35.81
33.31
30.73
27.89
24.56
20.65
16.30
11.86
7.78
4.44
1.95
0.04
-1.88
-4.50
-8.35
-13.60
-19.93
-26.68
-33.09
-38.64
-43.17
-46.98
-50.66
-54.87
-60.12
-66.52
-73.61
-80.37
-85.34
-86.93
-83.90
-75.81
-63.20
-47.53
-30.68
-14.45
-0.08
11.88
21.43
28.87
34.50
38.57
41.33
43.06
44.07
44.61
44.78
44.56
43.84
42.61
40.97
39.10
37.22
35.50
34.09
33.07
32.51
32.25
31.97
31.16
29.31
26.14
21.79
16.71
11.54
6.83
2.81
-0.58
-3.65
-6.76
-10.17
-13.98
-18.08
-22.21
-26.06
-29.41
-32.16
-34.48
-36.75
-39.48
-43.16
-48.14
-54.39
-61.25
-67.45
-71.29
-71.08
-65.78
-55.36
-40.93
-24.42
-7.92
6.82
18.79
27.74
33.92
37.84
40.01
40.84
40.73
39.98
38.82
37.39
35.73
33.83
31.63
29.18
26.60
24.12
22.06
20.61
19.86
19.63
19.57
19.17
17.97
15.60
11.99
7.28
1.88
-3.72
-9.06
-13.84
-18.03
-21.77
-25.34
-29.02
-32.99
-37.33
-42.06
-47.15
-52.42
-57.41
-61.24
-62.78
-60.89
-54.91
-45.00
-32.15
-17.95
-4.01
8.44
18.72
26.64
32.24
35.62
36.89
36.34
34.43
31.81
29.09
26.65
24.50
22.38
19.95
17.04
13.77
10.49
7.66
5.61
4.43
3.97
3.85
3.67
2.97
1.39
-1.27
-4.97
-9.37
-13.90
-18.01
-21.40
-24.25
-27.18
-30.98
-36.20
-42.70
-49.56
-55.26
-58.11
-56.82
-50.91
-40.86
-27.90
-13.66
0.27
12.69
22.89
30.60
35.83
38.77
39.70
38.99
37.08
34.43
31.48
28.60
25.99
23.73
21.71
19.75
17.62
15.24
12.69
10.28
8.34
7.10
6.42
5.84
4.63
2.16
-1.87
-7.21
-13.24
-19.21
-24.57
-29.12
-33.04
-36.67
-40.44
-44.68
-49.57
-55.01
-60.48
-65.02
-67.24
-65.79
-59.75
-49.17
-35.13
-19.44
-4.08
9.41
20.23
28.22
33.69
37.09
38.81
39.17
38.46
36.99
35.06
32.88
30.55
28.00
25.12
21.80
18.10
14.27
10.71
7.88
6.09
5.35
5.26
5.16
4.35
2.41
-0.66
-4.51
-8.56
-12.40
-15.88
-19.21
-22.85
-27.32
-32.99
-39.89
-47.56
-54.96
-60.66
-63.14
-61.29
-54.76
-44.18
-30.92
-16.72
-3.11
8.84
18.65
26.22
31.62
34.94
36.30
35.94
34.28
31.83
29.11
26.48
24.07
21.83
19.69
17.73
16.11
14.99
14.30
13.62
12.34
9.86
5.96
0.90
-4.68
-10.06
-14.74
-18.62
-21.86
-24.79
-27.73
-31.01
-34.99
-40.00
-46.19
-53.15
-59.73
-64.22
-64.81
-60.22
-50.32
-36.18
-19.72
-3.11
11.92
24.32
33.79
40.50
44.79
46.98
47.37
46.24
43.98
41.01
37.70
34.31
30.92
27.48
23.99
20.60
17.68
15.61
14.59
14.44
14.58
14.20
12.66
9.66
5.42
0.50
-4.46
-9.03
-13.04
-16.62
-20.16
-24.20
-29.40
-36.29
-44.97
-54.72
-63.91
-70.28
-71.59
-66.48
-55.07
-38.97
-20.71
-2.88
12.64
24.99
34.20
40.68
44.89
47.04
47.29
45.88
43.22
39.86
36.35
33.04
30.04
27.28
24.63
22.02
19.49
17.23
15.50
14.46
14.15
14.29
14.36
13.74
11.83
8.35
3.39
-2.55
-8.79
-14.72
-19.97
-24.57
-28.86
-33.39
-38.79
-45.62
-54.23
-64.50
-75.63
-85.99
-93.43
-95.67
-91.20
-79.71
-62.47
-41.79
-20.40
-0.61
16.21
29.68
40.05
47.79
53.34
56.95
58.87
59.44
59.05
58.12
56.91
55.47
53.67
51.44
48.83
46.15
43.86
42.36
41.86
42.23
42.97
43.48
43.19
41.69
38.91
34.96
30.11
24.70
19.04
13.37
7.78
2.16
-3.71
-10.10
-17.11
-24.63
-32.23
-39.36
-45.57
-50.68
-54.92
-58.85
-63.29
-68.99
-76.51
-85.86
-96.26
-106.08
-113.02
-114.71
-109.46
-96.87
-78.11
-55.49
-31.82
-9.56
9.69
25.31
37.40
46.54
53.35
58.46
62.36
65.45
67.94
69.87
71.17
71.70
71.38
70.21
68.34
66.08
63.85
62.06
61.03
60.84
61.26
61.81
61.93
61.22
59.49
56.81
53.37
49.35
44.79
39.67
33.96
27.74
21.21
14.68
8.45
2.80
-2.12
-6.22
-9.58
-12.44
-15.19
-18.36
-22.41
-27.66
-34.05
-41.16
-48.41
-55.14
-60.97
-65.91
-70.43
-75.39
-81.80
-90.42
-101.27
-113.24
-124.09
-130.96
-131.24
-123.53
-108.20
-87.14
-63.10
-38.75
-15.99
4.16
21.28
35.20
45.80
53.14
57.57
59.90
61.02
61.75
62.44
63.02
63.13
62.42
60.73
58.20
55.27
52.65
51.17
51.52
53.94
58.04
62.79
66.85
69.07
68.93
66.65
63.00
58.81
54.64
50.49
46.03
40.88
34.94
28.47
21.97
15.92
10.55
5.79
1.30
-3.39
-8.65
-14.68
-21.34
-28.33
-35.19
-41.55
-47.19
-52.17
-56.76
-61.41
-66.69
-73.15
-81.16
-90.50
-100.16
-108.24
-112.32
-110.16
-100.60
-84.04
-62.47
-38.81
-15.90
4.18
20.55
33.23
42.71
49.55
54.15
56.91
58.25
58.66
58.57
58.20
57.53
56.39
54.67
52.44
49.97
47.66
45.91
44.95
44.84
45.36
46.14
46.68
46.51
45.27
42.86
39.41
35.24
30.70
26.09
21.55
17.10
12.66
8.09
3.23
-2.05
-7.81
-13.93
-20.15
-26.10
-31.49
-36.24
-40.52
-44.73
-49.38
-54.98
-61.92
-70.33
-79.86
-89.53
-97.65
-102.09
-100.83
-92.70
-77.86
-57.90
-35.35
-12.91
7.29
24.12
37.40
47.50
54.89
59.86
62.49
62.84
61.15
57.92
53.86
49.68
45.93
42.87
40.52
38.75
37.43
36.54
36.10
36.12
36.54
37.13
37.56
37.44
36.48
34.53
31.63
27.97
23.85
19.53
15.19
10.85
6.38
1.64
-3.54
-9.21
-15.27
-21.53
-27.70
-33.55
-38.93
-43.84
-48.38
-52.78
-57.36
-62.53
-68.72
-76.15
-84.43
-92.45
-98.29
-99.74
-95.02
-83.50
-66.05
-44.83
-22.62
-1.95
15.53
29.17
39.21
46.21
50.80
53.49
54.68
54.72
53.94
52.63
50.96
48.99
46.73
44.18
41.47
38.82
36.57
35.03
34.34
34.40
34.83
35.08
34.55
32.85
29.91
26.00
21.64
17.25
13.06
8.94
4.52
-0.61
-6.62
-13.38
-20.44
-27.21
-33.21
-38.29
-42.72
-47.17
-52.45
-59.24
-67.67
-77.02
-85.71
-91.55
-92.36
-86.74
-74.55
-57.07
-36.59
-15.70
3.40
19.40
31.86
40.94
47.02
50.46
51.56
50.60
48.01
44.37
40.29
36.27
32.64
29.50
26.85
24.70
23.14
22.27
22.16
22.76
23.74
24.61
24.75
23.61
20.87
16.55
10.99
4.80
-1.31
-6.81
-11.52
-15.74
-20.17
-25.69
-33.03
-42.43
-53.40
-64.72
-74.60
-81.03
-82.34
-77.60
-66.96
-51.57
-33.33
-14.31
3.64
19.18
31.64
40.78
46.69
49.62
49.96
48.22
45.02
40.95
36.51
32.01
27.61
23.36
19.34
15.74
12.88
11.07
10.47
10.85
11.59
11.80
10.63
7.56
2.64
-3.62
-10.45
-17.15
-23.26
-28.71
-33.79
-39.06
-45.25
-52.96
-62.29
-72.47
-81.71
-87.55
-87.61
-80.53
-66.49
-47.31
-25.77
-4.69
13.82
28.71
39.83
47.48
52.01
53.74
52.99
50.23
46.13
41.41
36.67
32.21
28.05
24.08
20.32
17.00
14.52
13.26
13.28
14.24
15.37
15.75
14.56
11.41
6.40
-0.01
-7.15
-14.50
-21.79
-29.06
-36.62
-44.96
-54.60
-65.82
-78.41
-91.24
-102.28
-108.86
-108.49
-99.75
-82.97
-60.30
-35.02
-10.55
10.65
27.46
40.04
49.19
55.77
60.31
63.00
63.96
63.33
61.43
58.69
55.52
52.28
49.16
46.30
43.71
41.44
39.43
37.67
36.07
34.48
32.76
30.68
28.04
24.59
20.14
14.59
7.94
0.36
-7.83
-16.25
-24.51
-32.33
-39.62
-46.49
-53.33
-60.76
-69.47
-79.96
-92.06
-104.61
-115.37
-121.48
-120.29
-110.40
-92.22
-67.96
-40.96
-14.55
8.78
27.81
42.47
53.32
61.08
66.39
69.78
71.78
72.93
73.64
74.12
74.35
74.15
73.38
72.11
70.64
69.37
68.64
68.51
68.79
69.09
68.98
68.13
66.39
63.69
59.99
55.25
49.44
42.62
35.03
27.10
19.32
12.13
5.67
-0.27
-6.19
-12.66
-20.09
-28.43
-37.27
-45.95
-53.84
-60.56
-66.16
-71.06
-75.89
-81.40
-88.33
-97.18
-108.02
-120.11
-131.68
-140.12
-142.51
-136.63
-121.82
-99.35
-72.01
-43.32
-16.33
7.07
26.32
41.78
54.27
64.46
72.72
79.19
83.93
87.10
88.90
89.60
89.41
88.50
87.02
85.08
82.89
80.71
78.86
77.64
77.18
77.39
77.84
77.91
76.99
74.68
70.96
66.14
60.73
55.20
49.85
44.71
39.64
34.39
28.81
22.81
16.48
10.01
3.67
-2.26
-7.61
-12.34
-16.67
-20.99
-25.78
-31.40
-37.98
-45.31
-52.91
-60.22
-66.81
-72.58
-77.81
-83.17
-89.58
-97.93
-108.76
-121.71
-135.26
-146.67
-152.62
-150.24
-138.18
-117.27
-90.27
-60.98
-32.91
-8.36
11.89
28.18
41.29
51.87
60.27
66.68
71.40
74.88
77.64
79.96
81.86
83.05
83.17
82.06
79.86
77.09
74.46
72.70
72.24
73.09
74.73
76.26
76.70
75.28
71.75
66.42
60.07
53.57
47.62
42.49
38.01
33.68
28.98
23.59
17.50
11.02
4.61
-1.31
-6.56
-11.31
-15.97
-21.10
-27.04
-33.83
-41.10
-48.30
-54.88
-60.59
-65.58
-70.31
-75.47
-81.75
-89.79
-99.85
-111.54
-123.51
-133.32
-137.97
-134.74
-122.22
-101.06
-73.86
-44.41
-16.43
7.47
26.24
40.15
50.15
57.27
62.26
65.65
67.85
69.27
70.23
70.87
71.07
70.55
69.09
66.72
63.85
61.16
59.35
58.84
59.55
60.97
62.26
62.64
61.58
58.98
55.11
50.43
45.41
40.32
35.22
29.96
24.40
18.42
12.13
5.76
-0.37
-6.07
-11.36
-16.50
-21.84
-27.64
-33.92
-40.41
-46.75
-52.62
-57.95
-62.95
-68.08
-73.94
-81.11
-89.95
-100.33
-111.27
-120.87
-126.53
-125.61
-116.44
-98.98
-75.06
-47.82
-20.72
3.51
23.36
38.56
49.61
57.27
62.18
64.86
65.78
65.41
64.22
62.56
60.59
58.35
55.85
53.19
50.66
48.59
47.30
46.94
47.45
48.54
49.79
50.73
50.97
50.31
48.77
46.47
43.56
40.03
35.66
30.07
22.97
14.40
4.80
-4.96
-13.99
-21.66
-27.84
-32.93
-37.61
-42.45
-47.66
-53.03
-58.10
-62.50
-66.25
-69.83
-74.09
-79.93
-87.88
-97.69
-108.09
-116.89
-121.40
-119.23
-109.08
-91.25
-67.67
-41.37
-15.48
7.54
26.44
41.14
52.26
60.63
66.86
71.24
73.89
74.80
74.00
71.54
67.61
62.52
56.80
51.10
46.09
42.33
40.06
39.24
39.57
40.59
41.78
42.63
42.64
41.38
38.60
34.32
28.89
22.95
17.22
12.27
8.23
4.74
1.07
-3.56
-9.62
-17.08
-25.36
-33.60
-41.01
-47.14
-52.05
-56.25
-60.53
-65.77
-72.65
-81.44
-91.68
-101.99
-110.20
-113.70
-110.32
-99.06
-80.62
-57.30
-32.26
-8.57
11.67
27.61
39.45
47.87
53.52
56.74
57.71
56.62
53.89
50.14
46.08
42.21
38.85
35.99
33.52
31.28
29.22
27.37
25.88
24.89
24.43
24.31
24.09
23.17
20.96
17.08
11.52
4.66
-2.86
-10.45
-17.65
-24.34
-30.66
-36.89
-43.43
-50.70
-59.11
-68.88
-79.79
-90.87
-100.35
-105.90
-105.31
-97.27
-81.95
-61.06
-37.27
-13.53
7.83
25.41
38.68
47.76
53.02
54.95
54.16
51.40
47.52
43.26
39.11
35.18
31.35
27.38
23.25
19.19
15.71
13.33
12.36
12.63
13.49
13.94
12.99
10.02
4.99
-1.54
-8.66
-15.48
-21.49
-26.73
-31.76
-37.48
-44.80
-54.29
-65.89
-78.62
-90.55
-99.12
-101.73
-96.54
-83.17
-62.98
-38.66
-13.48
9.68
28.93
43.55
53.72
60.03
63.07
63.33
61.24
57.29
52.09
46.25
40.25
34.32
28.56
23.04
17.95
13.67
10.62
9.06
8.80
9.21
9.32
8.09
4.86
-0.49
-7.48
-15.23
-22.85
-29.73
-35.78
-41.49
-47.77
-55.69
-66.08
-78.95
-93.23
-106.62
-116.06
-118.55
-112.16
-96.79
-74.26
-47.80
-20.96
3.39
23.68
39.61
51.65
60.51
66.63
70.21
71.33
70.30
67.64
64.09
60.35
56.84
53.64
50.58
47.40
44.02
40.60
37.50
35.04
33.30
31.92
30.24
27.42
22.75
15.94
7.20
-2.81
-13.18
-23.06
-31.96
-39.85
-47.19
-54.76
-63.44
-74.05
-86.94
-101.71
-116.89
-129.99
-137.91
-137.81
-128.03
-108.80
-82.29
-51.95
-21.52
6.07
29.20
47.55
61.68
72.37
80.31
85.93
89.49
91.30
91.71
91.16
90.02
88.51
86.63
84.30
81.50
78.40
75.40
73.03
71.68
71.34
71.48
71.20
69.52
65.75
59.79
52.13
43.65
35.21
27.33
20.05
12.97
5.51
-2.80
-12.17
-22.45
-33.19
-43.83
-53.80
-62.73
-70.54
-77.57
-84.59
-92.69
-102.90
-115.68
-130.26
-144.44
-154.82
-157.83
-150.95
-133.65
-107.71
-76.52
-44.00
-13.35
13.51
35.94
54.18
68.77
80.25
89.13
95.93
101.15
105.16
108.07
109.70
109.78
108.19
105.11
101.11
96.95
93.43
91.05
89.95
89.83
90.04
89.79
88.37
85.37
80.80
75.02
68.58
62.05
55.72
49.65
43.58
37.19
30.21
22.58
14.50
6.35
-1.41
-8.60
-15.26
-21.78
-28.61
-36.12
-44.35
-53.01
-61.63
-69.74
-77.13
-83.93
-90.63
-98.00
-106.90
-117.97
-131.09
-145.09
-157.51
-165.14
-164.86
-154.73
-134.83
-107.26
-75.46
-43.14
-13.15
12.89
34.61
52.34
66.65
78.10
87.16
94.28
99.87
104.20
107.34
109.13
109.39
108.01
105.17
101.33
97.14
93.25
90.14
88.03
86.85
86.21
85.58
84.34
82.03
78.34
73.31
67.26
60.70
54.19
48.17
42.69
37.51
32.09
25.92
18.77
10.87
2.77
-4.80
-11.38
-16.93
-21.87
-26.94
-32.76
-39.65
-47.45
-55.59
-63.40
-70.35
-76.28
-81.40
-86.29
-91.75
-98.63
-107.59
-118.67
-131.03
-142.67
-150.79
-152.39
-145.29
-128.93
-104.66
-75.41
-44.76
-15.87
9.17
29.59
45.62
57.99
67.48
74.73
80.13
83.97
86.44
87.64
87.68
86.57
84.41
81.35
77.75
74.08
70.90
68.66
67.56
67.48
67.90
68.17
67.59
65.72
62.48
58.12
53.06
47.77
42.61
37.72
33.07
28.50
23.80
18.81
13.43
7.68
1.72
-4.18
-9.73
-14.65
-18.87
-22.51
-25.93
-29.57
-33.87
-39.12
-45.28
-52.04
-58.90
-65.34
-71.03
-75.99
-80.66
-85.75
-92.14
-100.43
-110.62
-121.72
-131.67
-137.78
-137.39
-128.86
-112.15
-88.98
-62.26
-35.17
-10.29
10.92
28.04
41.38
51.51
58.96
64.18
67.56
69.53
70.45
70.62
70.14
69.02
67.21
64.74
61.82
58.84
56.30
54.64
54.11
54.58
55.57
56.35
56.23
54.77
51.92
47.96
43.39
38.64
34.02
29.55
25.08
20.37
15.21
9.45
3.20
-3.28
-9.56
-15.22
-19.99
-23.92
-27.41
-31.02
-35.28
-40.43
-46.28
-52.28
-57.83
-62.52
-66.35
-69.87
-73.93
-79.46
-87.05
-96.65
-107.22
-116.83
-122.90
-122.94
-115.26
-99.61
-77.36
-51.11
-23.96
1.29
22.76
39.58
51.76
59.80
64.40
66.34
66.38
65.25
63.54
61.64
59.66
57.54
55.13
52.39
49.45
46.58
44.13
42.34
41.33
40.94
40.81
40.51
39.59
37.77
34.98
31.34
27.07
22.46
17.70
12.93
8.24
3.65
-0.83
-5.25
-9.73
-14.41
-19.41
-24.76
-30.34
-35.96
-41.39
-46.50
-51.26
-55.75
-60.16
-64.78
-70.00
-76.25
-83.78
-92.36
-100.90
-107.49
-109.80
-105.78
-94.50
-76.61
-54.24
-30.28
-7.56
11.94
27.33
38.64
46.45
51.43
54.20
55.24
54.97
53.71
51.74
49.21
46.19
42.74
39.00
35.31
32.08
29.73
28.49
28.30
28.76
29.22
29.04
27.81
25.41
22.02
17.99
13.68
9.23
4.64
-0.28
-5.69
-11.63
-17.97
-24.42
-30.63
-36.37
-41.61
-46.58
-51.80
-57.91
-65.39
-74.20
-83.46
-91.41
-95.81
-94.55
-86.51
-71.98
-52.65
-31.08
-9.88
8.93
24.20
35.57
43.16
47.30
48.51
47.42
44.82
41.51
38.18
35.19
32.59
30.18
27.62
24.61
20.93
16.58
11.82
7.15
3.17
0.39
-1.04
-1.42
-1.45
-1.97
-3.53
-6.28
-9.89
-13.84
-17.74
-21.44
-25.19
-29.38
-34.45
-40.76
-48.51
-57.66
-67.72
-77.51
-85.20
-88.64
-86.03
-76.66
-61.25
-41.78
-20.87
-0.91
16.47
30.56
41.33
48.97
53.65
55.47
54.59
51.49
46.90
41.75
36.77
32.38
28.53
24.89
21.10
17.04
12.99
9.51
7.15
6.18
6.33
6.85
6.77
5.26
1.90
-3.18
-9.43
-16.15
-22.74
-28.92
-34.73
-40.56
-46.99
-54.63
-63.96
-74.97
-86.86
-97.97
-105.85
-107.98
-102.53
-89.06
-68.81
-44.38
-18.91
4.76
24.75
40.35
51.72
59.48
64.38
66.95
67.58
66.52
63.97
60.19
55.46
50.21
44.92
40.13
36.30
33.77
32.55
32.38
32.80
33.23
33.17
32.29
30.46
27.59
23.70
18.74
12.66
5.51
-2.53
-11.17
-20.03
-28.80
-37.31
-45.50
-53.40
-61.23
-69.31
-78.16
-88.29
-99.86
-112.16
-123.44
-131.03
-132.10
-124.64
-108.29
-84.60
-56.55
-27.62
-0.78
22.08
40.34
54.21
64.31
71.31
75.74
78.07
78.74
78.21
76.88
75.11
73.13
71.01
68.80
66.56
64.43
62.67
61.58
61.29
61.70
62.44
62.96
62.75
61.46
58.92
55.13
50.20
44.24
37.44
30.07
22.46
14.94
7.67
0.54
-6.76
-14.60
-23.21
-32.46
-41.93
-51.06
-59.36
-66.65
-73.17
-79.53
-86.59
-95.21
-106.01
-119.04
-133.43
-147.27
-157.75
-161.80
-156.99
-142.39
-118.97
-89.44
-57.35
-26.15
1.70
25.00
43.63
58.12
69.20
77.60
83.92
88.71
92.37
95.08
96.78
97.23
96.18
93.60
89.84
85.62
81.80
79.14
77.97
78.12
78.99
79.75
79.64
78.26
75.55
71.75
67.21
62.19
56.72
50.65
43.82
36.16
27.89
19.43
11.23
3.57
-3.63
-10.74
-18.26
-26.54
-35.60
-45.12
-54.56
-63.37
-71.25
-78.26
-84.81
-91.66
-99.78
-110.05
-122.85
-137.57
-152.31
-164.05
-169.34
-165.46
-151.32
-127.94
-98.09
-65.33
-32.97
-3.33
22.38
43.81
61.01
74.24
83.86
90.50
94.96
98.08
100.38
101.95
102.44
101.43
98.72
94.62
89.97
85.77
82.88
81.65
81.77
82.51
82.94
82.31
80.26
76.81
72.29
67.12
61.64
55.98
50.09
43.76
36.81
29.25
21.27
13.30
5.72
-1.26
-7.78
-14.28
-21.24
-28.94
-37.26
-45.76
-53.86
-61.18
-67.76
-74.08
-80.89
-89.07
-99.28
-111.66
-125.54
-139.15
-149.78
-154.34
-150.19
-136.16
-113.06
-83.57
-51.41
-20.24
7.30
29.92
47.57
60.83
70.51
77.32
81.89
84.75
86.45
87.34
87.57
87.07
85.60
82.98
79.27
74.87
70.39
66.51
63.79
62.39
62.06
62.17
61.85
60.31
57.02
51.91
45.39
38.18
31.10
24.72
19.15
14.05
8.70
2.40
-5.29
-14.30
-24.11
-33.92
-42.96
-50.82
-57.52
-63.65
-70.07
-77.81
-87.62
-99.68
-113.19
-126.26
-136.12
-139.79
-134.95
-120.80
-98.42
-70.56
-40.71
-12.20
12.64
32.75
48.07
59.20
66.86
71.78
74.58
75.82
75.94
75.23
73.79
71.58
68.56
64.85
60.84
57.13
54.38
53.03
53.12
54.15
55.24
55.45
54.03
50.71
45.78
39.82
33.51
27.30
21.27
15.18
8.61
1.19
-7.18
-16.25
-25.50
-34.34
-42.34
-49.47
-56.12
-63.05
-71.11
-80.88
-92.33
-104.48
-115.37
-122.40
-122.92
-115.10
-98.68
-75.13
-47.33
-18.74
7.56
29.54
46.49
58.66
66.87
72.02
74.83
75.85
75.48
74.10
72.02
69.49
66.68
63.72
60.72
57.89
55.45
53.61
52.44
51.82
51.38
50.62
49.07
46.43
42.66
37.88
32.34
26.24
19.67
12.63
5.02
-3.19
-11.94
-20.94
-29.78
-38.01
-45.39
-52.09
-58.70
-66.13
-75.12
-85.79
-97.14
-106.97
-112.45
-110.91
-100.91
-82.77
-58.61
-31.61
-5.13
18.30
37.35
51.81
62.21
69.25
73.49
75.25
74.81
72.55
68.99
64.76
60.40
56.28
52.47
48.91
45.53
42.38
39.65
37.59
36.33
35.71
35.29
34.45
32.52
29.02
23.78
16.96
9.02
0.56
-7.84
-15.77
-23.07
-29.89
-36.58
-43.65
-51.68
-61.06
-71.78
-83.14
-93.62
-101.04
-103.06
-97.94
-85.23
-66.02
-42.72
-18.27
4.65
24.23
39.72
51.14
58.90
63.47
65.24
64.59
62.01
58.09
53.49
48.79
44.39
40.47
37.03
34.02
31.41
29.29
27.81
27.03
26.89
26.98
26.65
25.11
21.73
16.22
8.79
0.09
-9.04
-17.82
-25.79
-32.94
-39.64
-46.48
-54.11
-62.94
-72.91
-83.27
-92.49
-98.50
-99.21
-93.16
-80.10
-61.23
-38.85
-15.71
5.78
24.04
38.46
49.19
56.71
61.46
63.74
63.75
61.73
58.09
53.38
48.24
43.23
38.74
34.92
31.76
29.14
26.94
25.10
23.58
22.41
21.48
20.45
18.84
16.08
11.71
5.64
-1.81
-9.95
-17.98
-25.32
-31.71
-37.37
-42.77
-48.56
-55.38
-63.65
-73.34
-83.80
-93.55
-100.49
-102.39
-97.59
-85.59
-67.38
-45.17
-21.76
0.27
19.14
34.13
45.35
53.39
58.92
62.44
64.26
64.61
63.77
62.09
59.95
57.73
55.61
53.66
51.84
50.08
48.40
46.91
45.73
44.92
44.34
43.69
42.48
40.25
36.63
31.50
25.00
17.61
9.91
2.52
-4.15
-10.04
-15.43
-20.80
-26.56
-32.92
-39.73
-46.63
-53.19
-59.13
-64.45
-69.38
-74.34
-79.86
-86.50
-94.62
-104.05
-113.78
-121.91
-125.92
-123.47
-113.21
-95.41
-71.98
-45.88
-20.23
2.57
21.23
35.53
45.97
53.26
58.07
60.90
62.16
62.21
61.40
60.07
58.43
56.62
54.69
52.71
50.85
49.36
48.54
48.59
49.44
50.68
51.69
51.73
50.28
47.23
42.85
37.73
32.51
27.64
23.23
19.09
14.87
10.24
5.06
-0.57
-6.32
-11.88
-17.03
-21.83
-26.55
-31.56
-37.16
-43.36
-49.92
-56.43
-62.53
-68.11
-73.35
-78.74
-84.89
-92.37
-101.44
-111.86
-122.58
-131.78
-137.12
-136.29
-127.83
-111.62
-89.10
-62.89
-36.03
-11.15
10.06
27.03
40.09
50.01
57.65
63.68
68.49
72.23
74.88
76.41
76.80
76.17
74.66
72.47
69.81
66.97
64.25
61.98
60.42
59.59
59.27
58.99
58.16
56.38
53.49
49.66
45.31
40.87
36.64
32.66
28.71
24.45
19.60
14.05
7.96
1.68
-4.39
-9.93
-14.84
-19.27
-23.54
-28.04
-33.04
-38.65
-44.76
-51.18
-57.67
-64.02
-70.08
-75.78
-81.16
-86.47
-92.35
-99.60
-108.88
-120.10
-131.98
-142.02
-147.12
-144.54
-132.99
-113.07
-87.15
-58.51
-30.37
-5.08
16.18
33.24
46.57
56.91
64.99
71.44
76.74
81.13
84.64
87.05
88.08
87.45
85.12
81.30
76.57
71.71
67.56
64.80
63.69
64.01
65.07
65.96
65.82
64.13
60.82
56.27
51.10
45.94
41.17
36.85
32.76
28.56
23.92
18.70
12.97
6.93
0.87
-4.96
-10.31
-15.09
-19.35
-23.31
-27.40
-32.04
-37.51
-43.74
-50.30
-56.55
-61.95
-66.34
-70.15
-74.27
-79.79
-87.55
-97.66
-109.20
-120.17
-127.89
-129.69
-123.74
-109.70
-88.90
-63.82
-37.41
-12.27
9.88
28.24
42.76
53.77
61.76
67.28
70.85
72.96
74.07
74.47
74.32
73.59
72.21
70.13
67.41
64.36
61.46
59.23
58.01
57.79
58.18
58.49
58.04
56.41
53.55
49.75
45.48
41.15
36.98
32.93
28.82
24.38
19.47
14.10
8.42
2.68
-2.92
-8.24
-13.27
-18.14
-23.01
-28.05
-33.31
-38.77
-44.22
-49.42
-54.16
-58.44
-62.52
-66.97
-72.54
-79.88
-89.20
-99.89
-110.37
-118.28
-121.04
-116.71
-104.64
-85.84
-62.63
-37.98
-14.56
5.81
22.34
35.02
44.26
50.60
54.59
56.82
57.94
58.47
58.71
58.64
58.03
56.63
54.44
51.78
49.20
47.24
46.24
46.18
46.74
47.43
47.72
47.22
45.77
43.38
40.24
36.60
32.68
28.66
24.57
20.34
15.85
11.04
5.96
0.74
-4.41
-9.41
-14.26
-19.08
-24.02
-29.10
-34.22
-39.22
-43.88
-48.12
-52.00
-55.76
-59.80
-64.61
-70.71
-78.47
-87.82
-97.96
-107.21
-113.29
-113.88
-107.41
-93.68
-73.98
-50.75
-26.80
-4.53
14.54
29.88
41.64
50.28
56.23
59.87
61.53
61.58
60.49
58.68
56.49
54.06
51.41
48.50
45.39
42.35
39.78
38.07
37.45
37.81
38.72
39.57
39.75
38.83
36.70
33.49
29.55
25.22
20.76
16.26
11.64
6.80
1.61
-3.97
-9.93
-16.22
-22.77
-29.51
-36.29
-42.91
-49.23
-55.24
-61.15
-67.42
-74.59
-82.90
-91.99
-100.64
-106.89
-108.53
-103.81
-92.14
-74.40
-52.76
-29.93
-8.40
10.19
25.16
36.63
45.02
50.80
54.31
55.84
55.74
54.38
52.18
49.46
46.44
43.30
40.17
37.19
34.49
32.20
30.37
28.97
27.92
27.08
26.28
25.29
23.92
21.94
19.11
15.29
10.35
4.37
-2.43
-9.67
-16.88
-23.69
-29.95
-35.93
-42.22
-49.58
-58.57
-69.14
-80.34
-90.31
-96.69
-97.32
-90.98
-77.79
-59.27
-37.79
-15.96
4.10
21.04
34.33
44.00
50.32
53.70
54.54
53.37
50.75
47.29
43.41
39.34
35.08
30.53
25.74
20.97
16.75
13.66
12.12
12.15
13.30
14.74
15.49
14.68
11.81
6.87
0.29
-7.26
-15.04
-22.46
-29.26
-35.52
-41.65
-48.30
-56.13
-65.52
-76.20
-86.96
-95.76
-100.12
-97.93
-88.24
-71.64
-50.16
-26.60
-3.74
16.38
32.70
45.01
53.61
58.90
61.31
61.24
59.23
55.92
51.97
47.97
44.18
40.61
37.00
33.12
28.97
24.87
21.37
19.00
17.92
17.72
17.54
16.37
13.42
8.46
1.81
-5.81
-13.67
-21.28
-28.56
-35.84
-43.68
-52.72
-63.46
-76.01
-89.75
-103.18
-113.96
-119.46
-117.46
-106.96
-88.65
-64.66
-38.02
-11.75
11.88
31.58
47.02
58.44
66.38
71.43
74.17
75.15
74.78
73.35
70.97
67.69
63.65
59.13
54.62
50.67
47.71
45.86
44.94
44.52
44.03
42.98
41.06
38.21
34.47
29.91
24.45
17.95
10.21
1.23
-8.75
-19.21
-29.55
-39.27
-48.18
-56.47
-64.72
-73.71
-84.18
-96.47
-110.13
-123.63
-134.44
-139.55
-136.39
-123.74
-102.27
-74.55
-44.20
-14.91
10.58
31.03
46.59
58.27
67.35
74.79
81.02
86.03
89.62
91.60
92.02
91.11
89.21
86.62
83.60
80.46
77.57
75.37
74.23
74.22
74.97
75.76
75.73
74.21
70.99
66.38
61.01
55.48
50.15
44.93
39.45
33.30
26.31
18.61
10.62
2.82
-4.53
-11.44
-18.24
-25.34
-33.05
-41.43
-50.26
-59.11
-67.55
-75.36
-82.57
-89.58
-97.10
-105.97
-116.90
-129.92
-144.00
-156.83
-165.19
-165.82
-156.51
-136.99
-109.10
-76.22
-42.26
-10.52
16.92
39.27
56.70
69.92
79.79
87.17
92.82
97.33
101.01
103.84
105.54
105.80
104.43
101.57
97.69
93.50
89.74
87.01
85.60
85.40
85.96
86.61
86.62
85.42
82.73
78.60
73.37
67.54
61.64
55.97
50.64
45.49
40.21
34.48
28.06
20.91
13.19
5.29
-2.34
-9.36
-15.71
-21.69
-27.90
-34.94
-43.10
-52.23
-61.72
-70.77
-78.69
-85.23
-90.60
-95.44
-100.69
-107.36
-116.38
-128.16
-142.22
-156.82
-168.94
-175.02
-171.91
-158.12
-134.36
-103.42
-69.23
-35.66
-5.55
19.67
39.79
55.32
67.01
75.63
81.96
86.72
90.51
93.71
96.34
98.14
98.77
98.01
95.93
92.96
89.73
86.96
85.19
84.70
85.37
86.71
88.03
88.55
87.66
85.08
80.95
75.73
70.03
64.36
58.92
53.56
47.90
41.53
34.26
26.20
17.80
9.67
2.32
-4.01
-9.47
-14.61
-20.08
-26.42
-33.80
-41.97
-50.40
-58.50
-65.86
-72.30
-77.98
-83.25
-88.69
-95.09
-103.32
-114.00
-127.03
-141.06
-153.43
-160.65
-159.46
-147.99
-126.56
-97.64
-65.01
-32.59
-3.33
21.20
40.69
55.52
66.33
73.72
78.40
81.17
82.93
84.41
85.95
87.35
88.08
87.61
85.71
82.70
79.28
76.31
74.46
73.97
74.59
75.66
76.33
75.82
73.66
69.82
64.68
58.89
53.09
47.69
42.71
37.82
32.51
26.39
19.37
11.80
4.30
-2.52
-8.40
-13.55
-18.62
-24.33
-31.18
-39.16
-47.73
-56.13
-63.71
-70.25
-75.94
-81.33
-87.07
-93.84
-102.18
-112.34
-123.92
-135.49
-144.63
-148.27
-143.70
-129.60
-106.67
-77.58
-46.13
-16.05
9.96
30.67
46.18
57.29
65.00
70.18
73.44
75.22
75.85
75.57
74.62
73.21
71.50
69.62
67.66
65.72
64.00
62.76
62.24
62.49
63.22
63.87
63.76
62.41
59.69
55.91
51.57
47.13
42.68
37.97
32.59
26.16
18.72
10.67
2.71
-4.51
-10.67
-15.87
-20.70
-25.90
-32.07
-39.40
-47.62
-56.10
-64.12
-71.18
-77.21
-82.65
-88.36
-95.34
-104.33
-115.25
-126.84
-136.63
-141.48
-138.45
-125.96
-104.39
-76.19
-45.00
-14.62
12.10
33.76
50.16
61.89
69.66
74.14
75.94
75.73
74.31
72.42
70.56
68.80
66.85
64.29
60.90
56.79
52.54
48.93
46.64
45.97
46.73
48.25
49.54
49.69
48.03
44.41
39.13
32.91
26.55
20.66
15.43
10.60
5.55
-0.39
-7.65
-16.21
-25.60
-35.03
-43.73
-51.22
-57.43
-62.81
-68.16
-74.50
-82.77
-93.41
-106.03
-119.03
-129.80
-135.20
-132.52
-120.44
-99.65
-72.70
-43.24
-14.92
9.64
29.18
43.76
54.13
61.17
65.58
67.76
68.02
66.63
63.96
60.37
56.16
51.59
46.85
42.22
38.04
34.69
32.48
31.51
31.59
32.31
33.12
33.48
32.90
31.05
27.67
22.65
16.08
8.25
-0.40
-9.30
-17.98
-26.13
-33.73
-41.00
-48.34
-56.33
-65.63
-76.72
-89.56
-103.19
-115.50
-123.58
-124.55
-116.59
-99.69
-75.84
-48.32
-20.65
4.41
25.36
41.84
54.16
62.75
67.91
69.93
69.27
66.66
62.97
58.93
54.97
51.03
46.82
42.06
36.77
31.39
26.63
23.24
21.67
21.82
23.01
24.12
23.93
21.46
16.32
8.74
-0.44
-10.15
-19.43
-27.77
-35.19
-42.20
-49.61
-58.29
-68.95
-81.77
-96.08
-110.05
-120.82
-125.16
-120.48
-105.86
-82.56
-53.76
-23.46
4.72
28.46
47.03
60.79
70.54
76.92
80.30
80.87
78.93
75.06
69.98
64.47
59.06
54.02
49.37
44.99
40.83
36.98
33.74
31.43
30.27
30.06
30.12
29.41
26.79
21.47
13.31
2.96
-8.39
-19.34
-28.88
-36.67
-43.10
-49.11
-55.89
-64.52
-75.71
-89.51
-105.00
-120.16
-132.02
-137.24
-133.18
-118.83
-95.35
-65.75
-34.02
-3.84
22.25
43.15
58.93
70.17
77.59
81.87
83.67
83.69
82.57
80.78
78.46
75.52
71.83
67.45
62.73
58.28
54.78
52.69
52.11
52.66
53.59
53.95
52.87
49.81
44.77
38.21
30.90
23.49
16.27
9.09
1.44
-7.15
-16.84
-27.32
-38.00
-48.21
-57.56
-66.04
-74.05
-82.24
-91.41
-102.28
-115.15
-129.47
-143.39
-153.93
-157.52
-151.20
-133.80
-106.59
-72.97
-37.36
-3.86
24.84
47.71
65.05
77.71
86.58
92.36
95.66
97.13
97.45
97.15
96.52
95.49
93.81
91.26
87.88
84.04
80.41
77.71
76.45
76.68
77.95
79.34
79.79
78.46
74.98
69.54
62.78
55.51
48.41
41.81
35.67
29.61
23.19
15.99
7.90
-0.86
-9.71
-17.98
-25.15
-31.11
-36.30
-41.53
-47.64
-55.14
-63.95
-73.50
-82.98
-91.64
-99.11
-105.56
-111.64
-118.38
-127.03
-138.57
-153.13
-169.48
-184.77
-194.99
-196.08
-185.27
-162.23
-129.24
-90.54
-50.92
-14.33
16.90
42.11
61.71
76.59
87.59
95.44
100.81
104.40
106.89
108.76
110.13
110.80
110.44
108.77
105.90
102.29
98.64
95.69
93.93
93.40
93.71
94.14
93.91
92.36
89.13
84.25
78.05
71.05
63.81
56.75
50.04
43.63
37.23
30.48
23.09
15.01
6.39
-2.36
-10.72
-18.24
-24.72
-30.39
-35.78
-41.66
-48.64
-56.92
-66.15
-75.56
-84.30
-91.89
-98.40
-104.50
-111.20
-119.61
-130.53
-144.20
-159.91
-175.75
-188.64
-194.89
-191.15
-175.62
-148.80
-113.58
-74.35
-35.72
-1.29
27.08
49.13
65.67
77.90
86.90
93.58
98.62
102.59
105.79
108.27
109.80
110.01
108.64
105.78
101.97
98.06
94.96
93.28
93.12
94.07
95.26
95.72
94.66
91.69
86.91
80.85
74.25
67.73
61.57
55.63
49.42
42.40
34.29
25.21
15.65
6.31
-2.30
-9.99
-17.03
-23.94
-31.26
-39.30
-48.04
-57.09
-65.91
-74.06
-81.34
-88.01
-94.69
-102.32
-111.89
-124.01
-138.46
-153.75
-167.14
-175.05
-174.09
-162.23
-139.62
-108.68
-73.43
-38.26
-6.67
19.38
39.51
54.41
65.20
72.88
78.24
81.84
84.15
85.55
86.24
86.19
85.18
82.99
79.58
75.27
70.79
66.99
64.55
63.69
63.97
64.51
64.25
62.35
58.41
52.54
45.15
36.76
27.79
18.51
9.09
-0.34
-9.69
-18.83
-27.67
-36.14
-44.26
-52.11
-59.95
-68.25
-77.73
-88.98
-102.07
-115.96
-128.30
-135.82
-135.27
-124.66
-104.11
-75.99
-44.19
-12.84
14.87
37.36
54.51
67.04
75.87
81.67
84.87
85.81
84.95
82.84
80.01
76.76
73.09
68.77
63.56
57.41
50.64
43.97
38.29
34.35
32.47
32.27
32.84
32.92
31.39
27.54
21.37
13.43
4.56
-4.43
-13.03
-21.20
-29.30
-37.97
-47.98
-60.00
-74.28
-90.25
-106.27
-119.61
-127.00
-125.55
-113.82
-92.49
-64.28
-33.17
-3.12
22.97
43.72
59.14
69.99
77.15
81.26
82.81
82.23
80.09
77.01
73.43
69.51
65.01
59.59
53.10
45.79
38.39
31.87
27.09
24.37
23.32
22.94
21.83
18.70
12.73
3.87
-7.15
-19.13
-30.74
-41.04
-49.76
-57.36
-64.84
-73.40
-84.03
-97.08
-111.92
-126.73
-138.72
-144.70
-141.94
-129.18
-107.15
-78.42
-46.71
-15.72
11.78
34.38
51.93
64.93
74.11
80.08
83.36
84.44
83.75
81.66
78.32
73.64
67.43
59.69
50.83
41.67
33.36
26.83
22.50
20.02
18.35
16.19
12.39
6.52
-1.19
-9.90
-18.70
-26.97
-34.60
-42.00
-49.82
-58.73
-69.18
-81.12
-93.74
-105.31
-113.32
-114.96
-108.05
-91.90
-67.80
-38.71
-8.47
19.40
42.58
60.18
72.48
80.26
84.34
85.35
83.71
79.88
74.26
67.26
59.26
50.61
41.73
33.17
25.58
19.55
15.39
12.96
11.67
10.58
8.76
5.56
0.76
-5.39
-12.41
-19.79
-27.30
-35.01
-43.40
-53.17
-65.01
-79.26
-95.32
-111.34
-124.33
-130.70
-127.44
-113.29
-89.30
-58.63
-25.62
5.64
32.22
52.80
67.42
76.89
82.19
84.24
83.83
81.59
78.00
73.29
67.52
60.66
52.83
44.44
36.23
29.09
23.73
20.45
18.87
18.08
16.93
14.41
10.05
4.02
-3.07
-10.49
-17.79
-25.03
-32.81
-42.07
-53.73
-68.24
-85.05
-102.36
-117.13
-125.74
-125.03
-113.45
-91.71
-62.70
-30.53
0.75
28.21
50.49
67.49
79.77
87.89
92.25
93.09
90.70
85.55
78.24
69.47
59.90
50.13
40.69
32.10
24.77
19.06
15.22
13.30
13.00
13.59
13.98
12.88
9.28
2.80
-6.13
-16.42
-26.78
-36.21
-44.39
-51.78
-59.34
-68.33
-79.89
-94.64
-112.27
-131.09
-148.03
-159.05
-160.28
-149.32
-126.22
-93.65
-56.02
-18.09
16.39
45.39
68.43
85.97
98.69
107.16
111.87
113.39
112.46
109.87
106.20
101.70
96.36
90.13
83.16
75.97
69.28
63.71
59.58
56.65
54.29
51.65
48.04
43.16
37.09
30.22
22.95
15.50
7.79
-0.46
-9.57
-19.70
-30.71
-42.19
-53.56
-64.29
-74.12
-83.18
-92.01
-101.59
-113.00
-127.05
-143.62
-161.17
-176.58
-185.77
-184.82
-171.41
-145.78
-110.81
-71.06
-31.34
4.66
35.01
59.40
78.39
92.75
103.07
109.80
113.49
114.84
114.61
113.42
111.49
108.76
105.02
100.21
94.61
88.84
83.61
79.52
76.78
75.18
74.16
72.99
70.99
67.69
62.91
56.71
49.32
41.05
32.17
22.96
13.62
4.37
-4.69
-13.58
-22.51
-31.78
-41.66
-52.24
-63.28
-74.27
-84.64
-93.94
-102.13
-109.63
-117.28
-126.18
-137.36
-151.30
-167.36
-183.39
-195.85
-200.60
-194.18
-175.12
-144.61
-106.20
-64.61
-24.37
11.34
41.08
64.73
82.89
96.37
105.90
112.24
116.17
118.45
119.71
120.21
119.92
118.59
115.98
112.09
107.22
102.01
97.27
93.69
91.67
91.07
91.23
91.13
89.77
86.48
81.16
74.28
66.67
59.13
52.08
45.47
38.85
31.65
23.53
14.57
5.21
-3.88
-12.19
-19.60
-26.40
-33.22
-40.69
-49.18
-58.63
-68.54
-78.18
-86.89
-94.37
-100.78
-106.76
-113.33
-121.63
-132.63
-146.57
-162.46
-177.75
-188.66
-191.02
-181.74
-159.97
-127.61
-88.79
-48.49
-11.04
20.94
46.65
66.55
81.59
92.63
100.31
105.22
108.05
109.54
110.18
110.09
108.96
106.34
102.00
96.23
89.88
84.12
79.99
78.00
77.91
78.78
79.32
78.39
75.41
70.49
64.34
57.87
51.74
46.08
40.53
34.47
27.41
19.28
10.52
1.78
-6.39
-13.81
-20.82
-27.96
-35.75
-44.32
-53.39
-62.44
-70.96
-78.78
-86.06
-93.30
-101.14
-110.25
-121.16
-134.00
-148.09
-161.61
-171.56
-174.38
-167.02
-148.11
-118.73
-82.25
-43.27
-6.24
25.70
51.17
70.21
83.62
92.29
97.00
98.46
97.56
95.26
92.43
89.56
86.69
83.50
79.65
75.15
70.38
65.97
62.56
60.46
59.54
59.31
59.15
58.49
56.98
54.50
51.02
46.60
41.28
35.19
28.50
21.51
14.49
7.62
0.90
-5.88
-12.99
-20.69
-29.07
-38.05
-47.32
-56.49
-65.16
-73.00
-79.90
-86.04
-92.07
-98.99
-107.87
-119.29
-132.72
-146.15
-156.24
-159.21
-152.04
-133.64
-105.39
-70.75
-34.18
0.18
29.56
52.79
70.06
82.21
90.17
94.69
96.35
95.72
93.44
90.17
86.42
82.54
78.61
74.56
70.29
65.78
61.23
57.05
53.76
51.82
51.39
52.16
53.33
53.85
52.72
49.33
43.72
36.48
28.49
20.57
13.19
6.34
-0.33
-7.32
-14.99
-23.44
-32.42
-41.47
-50.06
-57.82
-64.63
-70.73
-76.70
-83.34
-91.58
-102.02
-114.62
-128.19
-140.29
-147.63
-146.95
-136.19
-115.35
-86.63
-53.82
-21.04
8.41
32.70
51.48
65.28
74.84
80.79
83.48
83.29
80.76
76.58
71.47
65.96
60.35
54.71
49.10
43.63
38.58
34.25
30.85
28.40
26.67
25.33
24.02
22.41
20.27
17.36
13.43
8.28
1.81
-5.87
-14.39
-23.23
-31.85
-39.84
-47.07
-53.70
-60.21
-67.33
-75.82
-86.13
-97.90
-109.65
-118.77
-122.16
-117.28
-103.05
-80.43
-52.14
-21.75
7.37
32.82
53.38
68.71
78.93
84.31
85.29
82.64
77.47
71.08
64.61
58.69
53.34
48.13
42.55
36.40
29.99
24.07
19.48
16.74
15.79
15.90
16.00
15.01
12.25
7.57
1.27
-6.15
-14.18
-22.46
-30.81
-39.25
-48.00
-57.53
-68.40
-80.87
-94.41
-107.28
-116.66
-119.39
-113.06
-97.08
-73.10
-44.48
-15.23
11.33
33.28
50.21
62.59
71.11
76.17
77.94
76.62
72.71
67.05
60.60
54.08
47.82
41.84
36.10
30.75
26.20
22.93
21.14
20.53
20.33
19.51
17.21
13.01
7.09
0.03
-7.47
-14.88
-22.02
-29.12
-36.77
-45.78
-56.97
-70.69
-86.40
-102.34
-115.59
-122.79
-121.19
-109.64
-89.15
-62.57
-33.64
-5.89
18.25
37.63
52.16
62.22
68.35
71.02
70.72
67.96
63.27
57.11
49.87
41.95
33.80
26.05
19.34
14.29
11.20
10.02
10.21
10.91
11.13
10.00
7.01
2.19
-4.05
-11.04
-18.25
-25.48
-32.99
-41.50
-51.86
-64.67
-79.73
-95.62
-109.70
-118.59
-119.10
-109.33
-89.48
-61.87
-30.21
1.53
30.23
54.11
72.71
86.38
95.72
101.27
103.45
102.64
99.31
94.03
87.47
80.27
73.02
66.18
60.13
55.10
51.22
48.49
46.72
45.56
44.46
42.81
40.11
36.15
31.04
25.14
18.83
12.23
5.15
-2.77
-11.88
-22.25
-33.58
-45.26
-56.62
-67.16
-76.79
-85.85
-95.10
-105.56
-118.17
-133.19
-149.70
-165.25
-176.11
-178.28
-168.79
-146.93
-114.63
-75.94
-35.73
1.77
33.86
59.59
79.23
93.64
103.75
110.39
114.29
116.17
116.65
116.16
114.84
112.66
109.51
105.43
100.73
95.97
91.86
89.06
87.85
88.04
88.90
89.42
88.61
85.86
81.19
75.07
68.27
61.36
54.53
47.51
39.76
30.83
20.59
9.45
-1.90
-12.72
-22.61
-31.67
-40.44
-49.61
-59.62
-70.43
-81.60
-92.51
-102.70
-112.15
-121.29
-130.86
-141.71
-154.57
-169.69
-186.39
-202.69
-215.32
-220.27
-213.92
-194.37
-162.36
-121.13
-75.57
-30.61
10.05
44.55
72.71
95.15
112.67
125.81
135.01
140.73
143.72
144.78
144.51
143.19
140.65
136.62
130.99
124.14
116.95
110.52
105.79
103.16
102.30
102.27
101.92
100.24
96.75
91.57
85.23
78.45
71.78
65.46
59.36
53.10
46.23
38.41
29.63
20.23
10.84
2.11
-5.53
-12.18
-18.43
-25.11
-32.90
-42.01
-52.08
-62.37
-72.17
-81.07
-89.16
-96.90
-104.95
-114.07
-124.94
-138.00
-153.02
-168.58
-181.90
-189.23
-186.85
-172.42
-146.02
-110.29
-69.63
-28.78
8.50
40.05
65.33
84.72
98.98
108.88
115.17
118.67
120.33
120.98
121.13
120.82
119.65
117.07
112.76
106.86
100.08
93.48
88.14
84.77
83.41
83.44
83.77
83.26
81.10
77.05
71.45
65.00
58.46
52.32
46.65
41.15
35.30
28.66
21.03
12.63
3.98
-4.31
-11.78
-18.38
-24.47
-30.68
-37.57
-45.33
-53.71
-62.08
-69.78
-76.37
-81.84
-86.63
-91.43
-97.12
-104.50
-114.07
-125.65
-138.01
-148.75
-154.69
-152.71
-140.82
-119.07
-89.56
-55.90
-22.10
8.55
34.07
53.79
68.01
77.51
83.17
85.88
86.47
85.66
84.02
81.87
79.30
76.23
72.57
68.32
63.73
59.22
55.27
52.28
50.41
49.51
49.14
48.73
47.76
45.89
43.04
39.33
34.96
30.07
24.71
18.90
12.65
6.15
-0.31
-6.40
-11.95
-17.03
-22.03
-27.40
-33.49
-40.29
-47.42
-54.26
-60.25
-65.11
-69.04
-72.61
-76.75
-82.53
-90.87
-102.15
-115.66
-129.28
-139.70
-143.22
-137.01
-120.29
-94.72
-63.91
-32.16
-3.10
21.12
39.93
53.73
63.22
69.00
71.54
71.36
69.19
65.83
62.03
58.25
54.66
51.26
48.01
44.98
42.39
40.55
39.73
40.05
41.36
43.19
44.84
45.62
44.99
42.80
39.23
34.70
29.63
24.32
18.87
13.28
7.62
2.02
-3.39
-8.57
-13.69
-19.08
-25.02
-31.62
-38.68
-45.70
-52.22
-57.93
-62.91
-67.64
-72.87
-79.35
-87.55
-97.31
-107.57
-116.44
-121.50
-120.45
-111.86
-95.66
-73.29
-47.31
-20.75
3.71
24.20
39.87
50.74
57.36
60.55
61.11
59.86
57.49
54.63
51.72
48.96
46.37
43.75
40.94
37.92
34.94
32.50
31.02
30.76
31.52
32.69
33.41
32.89
30.69
26.79
21.67
16.01
10.56
5.78
1.75
-1.83
-5.45
-9.64
-14.76
-20.86
-27.73
-34.94
-42.00
-48.47
-54.07
-58.87
-63.27
-67.98
-73.87
-81.62
-91.30
-102.03
-111.96
-118.56
-119.32
-112.58
-98.12
-77.27
-52.54
-26.86
-2.84
17.64
33.64
44.96
51.92
55.15
55.45
53.67
50.61
46.90
43.00
39.21
35.74
32.78
30.46
28.81
27.78
27.19
26.89
26.71
26.55
26.29
25.77
24.76
23.00
20.20
16.10
10.57
3.65
-4.36
-12.96
-21.56
-29.69
-37.15
-44.05
-50.77
-57.84
-65.80
-75.03
-85.54
-96.79
-107.45
-115.49
-118.58
-114.81
-103.33
-84.85
-61.43
-35.92
-11.17
10.65
28.34
41.58
50.62
56.02
58.43
58.56
57.06
54.47
51.22
47.56
43.67
39.69
35.77
32.11
28.87
26.19
24.13
22.69
21.80
21.29
20.90
20.25
18.84
16.20
11.97
6.07
-1.25
-9.47
-18.02
-26.43
-34.53
-42.48
-50.70
-59.70
-69.91
-81.51
-94.11
-106.62
-117.09
-123.14
-122.48
-113.64
-96.63
-73.00
-45.50
-17.27
8.91
31.16
48.64
61.35
69.78
74.68
76.80
76.80
75.23
72.42
68.60
63.95
58.69
53.23
48.06
43.74
40.64
38.90
38.34
38.55
39.00
39.15
38.56
36.90
33.99
29.76
24.25
17.56
9.88
1.42
-7.61
-17.00
-26.54
-35.99
-45.12
-53.78
-62.04
-70.33
-79.38
-90.02
-102.62
-116.53
-129.81
-139.48
-142.27
-135.78
-119.30
-94.18
-63.40
-30.66
0.63
28.03
50.28
67.09
78.80
86.08
89.70
90.53
89.41
87.10
84.19
81.06
77.89
74.72
71.60
68.63
65.99
63.94
62.70
62.37
62.78
63.50
63.92
63.43
61.58
58.21
53.42
47.50
40.84
33.77
26.55
19.27
11.88
4.18
-4.13
-13.28
-23.37
-34.16
-45.15
-55.72
-65.29
-73.61
-80.83
-87.53
-94.61
-103.06
-113.62
-126.34
-140.22
-153.04
-161.71
-163.07
-154.80
-136.32
-109.01
-75.84
-40.61
-6.84
22.85
47.11
65.66
79.01
88.06
93.83
97.32
99.36
100.52
101.05
100.94
100.02
98.17
95.41
91.99
88.43
85.41
83.54
83.15
84.16
86.02
87.84
88.61
87.62
84.49
79.39
72.84
65.53
58.08
50.85
43.91
37.07
30.04
22.58
14.65
6.40
-1.81
-9.61
-16.74
-23.26
-29.53
-36.10
-43.51
-52.06
-61.66
-71.85
-81.98
-91.44
-99.91
-107.55
-115.00
-123.26
-133.32
-145.72
-160.09
-174.68
-186.52
-191.98
-187.80
-172.25
-145.78
-111.04
-72.06
-33.12
2.41
32.67
57.21
76.51
91.38
102.56
110.62
116.08
119.48
121.34
122.04
121.79
120.60
118.40
115.27
111.47
107.51
103.98
101.33
99.70
98.91
98.46
97.68
95.93
92.70
87.86
81.70
74.78
67.79
61.23
55.27
49.72
44.20
38.33
31.86
24.81
17.35
9.79
2.43
-4.51
-10.99
-17.17
-23.40
-30.07
-37.47
-45.60
-54.12
-62.45
-69.99
-76.44
-81.94
-87.08
-92.87
-100.43
-110.71
-123.97
-139.34
-154.59
-166.34
-170.95
-165.53
-149.04
-122.70
-89.62
-53.83
-19.10
11.88
37.73
58.10
73.22
83.58
89.84
92.86
93.70
93.40
92.74
91.98
90.94
89.21
86.53
82.99
79.10
75.62
73.27
72.36
72.73
73.77
74.63
74.51
72.96
69.90
65.66
60.73
55.57
50.48
45.50
40.46
35.13
29.32
23.02
16.34
9.49
2.63
-4.20
-11.19
-18.63
-26.82
-35.89
-45.66
-55.67
-65.26
-73.79
-80.90
-86.62
-91.49
-96.42
-102.58
-110.93
-121.72
-133.99
-145.42
-152.74
-152.59
-142.72
-122.78
-94.59
-61.54
-27.56
3.94
30.67
51.61
66.74
76.68
82.36
84.89
85.35
84.68
83.45
81.86
79.80
77.13
73.79
70.05
66.39
63.34
61.32
60.44
60.52
61.18
61.95
62.37
62.00
60.46
57.44
52.79
46.66
39.45
31.84
24.51
17.88
11.99
6.44
0.61
-6.08
-13.90
-22.72
-32.09
-41.40
-50.09
-57.79
-64.46
-70.33
-75.95
-82.04
-89.44
-98.77
-110.13
-122.57
-133.96
-141.32
-141.50
-132.34
-113.48
-86.64
-55.12
-22.77
7.11
32.41
52.37
67.16
77.36
83.61
86.57
86.92
85.46
82.98
80.14
77.30
74.53
71.73
68.74
65.54
62.25
59.12
56.51
54.69
53.86
53.97
54.72
55.56
55.79
54.76
52.03
47.52
41.52
34.63
27.52
20.67
14.18
7.70
0.70
-7.32
-16.45
-26.37
-36.40
-45.86
-54.36
-61.92
-68.87
-75.77
-83.19
-91.63
-101.37
-112.27
-123.45
-133.10
-138.70
-137.62
-128.05
-109.79
-84.46
-55.09
-25.15
2.37
25.61
43.91
57.42
66.69
72.30
74.83
74.81
72.86
69.62
65.65
61.39
57.12
52.91
48.69
44.35
39.75
34.95
30.22
26.05
23.00
21.41
21.29
22.15
23.24
23.67
22.73
20.04
15.49
9.23
1.48
-7.47
-17.23
-27.36
-37.41
-47.12
-56.56
-66.19
-76.66
-88.31
-100.59
-111.84
-119.45
-120.63
-113.40
-97.47
-74.46
-47.44
-19.96
4.95
25.42
40.79
51.31
57.65
60.57
60.78
58.96
55.75
51.78
47.51
43.15
38.73
34.11
29.20
24.16
19.42
15.62
13.36
12.93
14.04
15.85
17.11
16.58
13.48
7.71
-0.17
-9.10
-18.00
-26.10
-33.14
-39.52
-46.06
-53.78
-63.48
-75.28
-88.29
-100.50
-109.13
-111.38
-105.32
-90.64
-68.79
-42.53
-15.11
10.66
32.86
50.61
63.70
72.36
76.92
77.84
75.75
71.39
65.56
58.93
51.96
44.90
37.86
30.99
24.54
18.97
14.75
12.25
11.48
11.98
12.81
12.75
10.70
6.05
-1.06
-9.84
-19.13
-27.88
-35.57
-42.39
-49.15
-57.01
-66.99
-79.61
-94.47
-110.01
-123.62
-132.05
-132.28
-122.54
-102.99
-75.86
-44.81
-13.81
14.01
36.96
54.78
68.04
77.48
83.57
86.44
86.14
82.99
77.72
71.33
64.81
58.86
53.71
49.24
45.18
41.38
37.94
35.21
33.51
32.96
33.15
33.20
31.95
28.35
21.79
12.39
0.94
-11.33
-23.25
-34.01
-43.48
-52.07
-60.61
-70.10
-81.45
-95.23
-111.28
-128.33
-143.82
-154.28
-156.13
-146.96
-126.43
-96.57
-61.22
-24.83
8.82
37.37
60.03
77.08
89.24
97.31
101.99
103.98
104.01
102.81
100.92
98.60
95.83
92.38
88.10
83.08
77.74
72.76
68.91
66.75
66.32
67.10
68.06
67.99
65.88
61.32
54.58
46.47
37.97
29.74
21.93
14.10
5.55
-4.36
-15.83
-28.52
-41.74
-54.67
-66.66
-77.41
-86.91
-95.55
-104.02
-113.29
-124.39
-137.94
-153.51
-169.19
-181.62
-186.80
-181.36
-163.84
-135.35
-99.29
-60.21
-22.39
11.15
39.07
61.38
78.76
92.05
102.02
109.33
114.58
118.39
121.15
122.96
123.65
122.95
120.66
116.90
112.20
107.31
103.04
100.03
98.49
98.22
98.52
98.47
97.12
93.85
88.53
81.61
73.91
66.33
59.46
53.40
47.77
41.86
35.01
26.84
17.43
7.32
-2.76
-12.11
-20.34
-27.57
-34.29
-41.19
-48.90
-57.70
-67.48
-77.81
-88.09
-97.79
-106.56
-114.39
-121.62
-129.04
-137.75
-148.87
-162.92
-179.07
-194.83
-206.26
-209.00
-199.79
-177.71
-144.66
-104.69
-62.73
-23.08
11.48
39.90
62.30
79.40
92.03
101.09
107.46
112.04
115.57
118.40
120.50
121.50
120.98
118.76
115.03
110.38
105.66
101.79
99.43
98.84
99.68
101.14
102.16
101.77
99.39
94.96
88.88
81.79
74.32
66.92
59.74
52.68
45.50
37.86
29.54
20.49
10.93
1.32
-7.78
-15.85
-22.69
-28.54
-34.02
-39.97
-47.06
-55.59
-65.26
-75.34
-84.94
-93.34
-100.36
-106.43
-112.55
-120.04
-130.10
-143.27
-158.90
-174.76
-187.30
-192.43
-186.76
-168.84
-139.80
-103.08
-63.37
-25.21
8.14
35.17
55.83
71.01
81.81
89.30
94.33
97.64
99.81
101.25
102.07
102.17
101.28
99.20
95.98
92.02
88.04
84.83
83.02
82.84
83.94
85.50
86.51
86.09
83.81
79.80
74.61
68.99
63.46
58.09
52.58
46.29
38.72
29.72
19.65
9.26
-0.59
-9.33
-16.94
-23.88
-30.92
-38.73
-47.53
-57.04
-66.56
-75.35
-82.95
-89.41
-95.25
-101.33
-108.58
-117.82
-129.40
-142.83
-156.47
-167.45
-172.27
-167.72
-152.12
-126.07
-92.49
-55.73
-20.20
10.81
35.78
54.68
68.40
77.94
84.14
87.57
88.75
88.25
86.63
84.33
81.57
78.40
74.78
70.84
66.94
63.60
61.32
60.37
60.62
61.63
62.70
63.18
62.58
60.74
57.68
53.54
48.42
42.38
35.45
27.73
19.49
11.05
2.77
-5.16
-12.74
-20.24
-28.03
-36.36
-45.26
-54.38
-63.14
-70.99
-77.64
-83.32
-88.75
-94.95
-103.00
-113.54
-126.36
-140.09
-152.16
-159.30
-158.31
-147.15
-125.69
-95.87
-61.17
-25.67
7.08
34.76
56.39
71.97
82.05
87.26
88.30
85.97
81.29
75.48
69.71
64.89
61.43
59.21
57.73
56.46
55.14
53.90
53.16
53.33
54.44
56.00
57.07
56.58
53.77
48.51
41.28
33.07
24.92
17.61
11.44
6.27
1.61
-3.13
-8.49
-14.83
-22.25
-30.55
-39.30
-47.92
-55.92
-63.11
-69.70
-76.36
-83.99
-93.51
-105.41
-119.36
-133.86
-146.22
-153.03
-151.09
-138.48
-115.40
-84.33
-49.32
-14.80
15.67
40.08
58.04
70.28
77.98
82.23
83.86
83.42
81.27
77.65
72.71
66.64
59.73
52.46
45.47
39.57
35.45
33.61
34.22
36.92
40.94
45.12
48.24
49.32
47.96
44.35
39.15
33.10
26.65
19.79
12.18
3.43
-6.55
-17.39
-28.37
-38.75
-48.10
-56.52
-64.62
-73.38
-83.75
-96.31
-110.72
-125.49
-137.92
-144.66
-142.64
-130.13
-107.47
-77.17
-43.15
-9.61
20.06
43.99
61.72
73.75
80.88
83.81
83.08
79.28
73.21
65.96
58.70
52.36
47.36
43.53
40.26
36.85
32.87
28.37
23.84
19.98
17.33
16.01
15.58
15.16
13.66
10.22
4.55
-2.99
-11.53
-20.13
-28.17
-35.66
-43.20
-51.75
-62.18
-74.97
-89.88
-105.72
-120.31
-130.68
-133.72
-127.06
-110.03
-84.09
-52.49
-19.34
11.62
37.92
58.55
73.64
83.78
89.52
91.24
89.36
84.54
77.72
69.95
62.16
54.89
48.29
42.22
36.53
31.27
26.76
23.47
21.80
21.72
22.57
23.20
22.23
18.64
12.09
3.06
-7.35
-17.89
-27.63
-36.37
-44.62
-53.49
-64.34
-78.28
-95.48
-114.71
-133.14
-146.79
-151.59
-144.71
-125.65
-96.54
-61.44
-25.04
8.71
37.35
59.98
76.82
88.49
95.62
98.77
98.54
95.70
91.11
85.59
79.67
73.54
67.13
60.28
52.98
45.59
38.81
33.48
30.26
29.30
29.98
31.00
30.76
27.88
21.71
12.50
1.28
-10.57
-21.90
-32.18
-41.64
-51.07
-61.60
-74.29
-89.73
-107.66
-126.54
-143.50
-154.75
-156.59
-146.57
-124.51
-92.73
-55.38
-17.19
17.88
47.32
70.30
87.05
98.37
105.16
108.26
108.55
106.82
103.73
99.68
94.83
89.25
83.12
76.85
71.11
66.61
63.78
62.66
62.73
63.14
62.92
61.26
57.75
52.45
45.74
38.13
29.96
21.29
11.90
1.50
-10.03
-22.50
-35.41
-48.06
-59.86
-70.53
-80.20
-89.56
-99.64
-111.61
-126.17
-142.90
-159.75
-173.12
-178.67
-172.69
-153.60
-122.64
-83.67
-41.88
-2.21
31.91
59.04
79.36
93.90
103.83
110.15
113.59
114.78
114.32
112.72
110.29
107.21
103.50
99.25
94.69
90.23
86.37
83.55
81.94
81.38
81.32
81.04
79.85
77.25
73.12
67.53
60.69
52.84
44.13
34.73
24.92
15.05
5.45
-3.76
-12.72
-21.88
-31.74
-42.64
-54.54
-67.06
-79.52
-91.26
-101.78
-111.01
-119.28
-127.34
-136.33
-147.42
-161.42
-178.05
-195.38
-209.82
-216.85
-212.34
-194.14
-162.96
-122.34
-77.45
-33.54
5.56
37.98
63.63
83.34
98.21
109.11
116.72
121.68
124.69
126.40
127.24
127.30
126.35
124.07
120.37
115.61
110.59
106.32
103.69
103.00
103.81
105.06
105.38
103.65
99.37
92.79
84.66
75.88
67.03
58.21
49.14
39.40
28.81
17.55
6.20
-4.54
-14.15
-22.49
-29.88
-36.99
-44.56
-53.13
-62.82
-73.36
-84.11
-94.39
-103.73
-112.02
-119.63
-127.40
-136.54
-148.25
-163.18
-180.70
-198.41
-212.24
-217.40
-209.94
-188.29
-153.99
-111.34
-65.94
-22.92
14.35
44.69
68.56
87.14
101.55
112.50
120.38
125.54
128.41
129.51
129.28
127.96
125.57
121.99
117.26
111.73
106.17
101.59
98.86
98.39
99.76
101.87
103.24
102.56
99.17
93.23
85.59
77.35
69.40
62.09
55.22
48.16
40.29
31.25
21.14
10.48
-0.08
-10.03
-19.29
-28.11
-37.01
-46.44
-56.55
-67.11
-77.61
-87.42
-96.06
-103.34
-109.51
-115.21
-121.47
-129.51
-140.42
-154.59
-171.07
-187.17
-198.82
-201.53
-191.93
-169.07
-135.01
-94.18
-51.95
-12.97
19.93
45.96
65.75
80.50
91.34
99.09
104.40
107.89
110.19
111.74
112.69
112.83
111.81
109.39
105.68
101.21
96.81
93.29
91.14
90.28
90.13
89.79
88.41
85.51
81.18
75.86
70.16
64.39
58.45
51.90
44.22
35.18
25.02
14.31
3.65
-6.65
-16.78
-27.25
-38.53
-50.74
-63.44
-75.76
-86.82
-96.04
-103.38
-109.28
-114.53
-120.00
-126.65
-135.31
-146.43
-159.60
-173.02
-183.44
-186.80
-179.46
-159.67
-128.46
-89.49
-47.92
-8.71
24.71
50.95
70.28
83.78
92.61
97.63
99.60
99.34
97.86
96.10
94.67
93.64
92.65
91.19
89.00
86.26
83.52
81.42
80.34
80.16
80.33
80.13
78.96
76.50
72.76
67.84
61.84
54.82
46.86
38.16
29.07
20.07
11.48
3.34
-4.62
-12.93
-22.05
-32.18
-43.02
-53.90
-64.02
-72.78
-80.04
-86.20
-92.10
-98.80
-107.27
-118.17
-131.32
-145.44
-157.92
-165.26
-163.95
-151.68
-128.33
-96.23
-59.53
-22.87
9.97
36.82
57.19
71.63
81.15
86.65
88.92
88.68
86.71
83.78
80.47
77.00
73.31
69.18
64.49
59.44
54.59
50.73
48.52
48.22
49.51
51.49
52.99
52.92
50.66
46.25
40.24
33.48
26.68
20.17
13.75
6.87
-1.09
-10.51
-21.26
-32.76
-44.08
-54.35
-63.01
-70.07
-76.14
-82.26
-89.67
-99.36
-111.59
-125.40
-138.53
-147.64
-149.27
-140.90
-121.97
-94.25
-61.29
-27.41
3.63
29.45
49.26
63.47
72.96
78.59
80.92
80.40
77.50
72.89
67.33
61.52
55.94
50.77
45.96
41.37
36.95
32.84
29.31
26.70
25.20
24.65
24.55
24.06
22.29
18.55
12.57
4.59
-4.71
-14.51
-24.09
-33.02
-41.19
-48.84
-56.45
-64.70
-74.43
-86.38
-100.69
-116.39
-131.12
-141.45
-143.81
-135.75
-116.91
-89.27
-56.55
-23.03
7.75
33.62
53.81
68.47
78.03
82.95
83.70
80.98
75.82
69.42
62.86
56.77
51.19
45.74
39.94
33.61
27.10
21.16
16.63
14.08
13.34
13.58
13.44
11.59
7.20
0.18
-8.75
-18.51
-28.02
-36.69
-44.55
-52.25
-60.80
-71.26
-84.32
-99.81
-116.40
-131.40
-141.35
-142.77
-133.47
-113.33
-84.52
-50.87
-16.66
14.58
40.75
61.19
76.17
86.29
92.10
94.12
92.90
89.21
83.90
77.75
71.25
64.50
57.39
49.79
41.84
34.08
27.40
22.63
20.19
19.73
20.09
19.62
16.83
10.95
2.27
-8.12
-18.82
-28.73
-37.47
-45.42
-53.48
-62.72
-74.12
-88.29
-105.10
-123.25
-140.08
-151.80
-154.49
-145.39
-124.09
-92.92
-56.23
-19.04
14.55
42.22
63.48
79.06
90.06
97.35
101.46
102.71
101.46
98.22
93.58
88.14
82.39
76.69
71.24
66.19
61.64
57.63
54.18
51.22
48.65
46.26
43.73
40.64
36.48
30.73
23.03
13.32
1.94
-10.41
-22.91
-34.88
-45.96
-56.25
-66.18
-76.43
-87.81
-101.07
-116.65
-134.15
-151.92
-166.91
-175.17
-172.99
-158.27
-131.45
-95.57
-55.34
-15.65
19.80
49.13
72.12
89.47
102.13
110.82
116.10
118.49
118.65
117.30
115.09
112.39
109.26
105.61
101.39
96.78
92.17
88.14
85.15
83.40
82.64
82.25
81.42
79.39
75.69
70.17
62.99
54.47
45.06
35.18
25.21
15.42
5.90
-3.53
-13.23
-23.68
-35.17
-47.67
-60.74
-73.63
-85.52
-95.88
-104.64
-112.31
-119.88
-128.61
-139.74
-153.96
-170.85
-188.50
-203.46
-211.43
-208.45
-192.26
-163.22
-124.41
-80.62
-36.92
2.67
35.96
62.46
82.81
98.14
109.56
118.06
124.45
129.38
133.22
135.99
137.44
137.27
135.34
131.85
127.36
122.63
118.40
115.25
113.38
112.64
112.49
112.19
110.92
108.04
103.24
96.64
88.70
80.05
71.36
63.02
55.22
47.78
40.39
32.64
24.19
14.95
5.09
-4.95
-14.55
-23.17
-30.62
-37.16
-43.53
-50.60
-59.05
-68.98
-79.88
-90.81
-100.86
-109.44
-116.54
-122.71
-128.89
-136.27
-146.05
-159.08
-175.20
-192.77
-208.46
-217.80
-216.51
-201.98
-174.33
-136.56
-93.49
-50.30
-11.01
22.15
48.69
69.20
84.69
96.26
104.87
111.43
116.78
121.46
125.63
128.99
130.96
130.95
128.71
124.47
119.02
113.45
108.82
105.80
104.50
104.38
104.42
103.52
100.79
95.85
88.95
80.83
72.41
64.39
57.04
50.09
42.93
34.93
25.78
15.68
5.23
-4.75
-13.63
-21.15
-27.58
-33.57
-39.92
-47.23
-55.66
-64.86
-74.13
-82.67
-90.03
-96.24
-101.90
-107.98
-115.61
-125.72
-138.68
-153.83
-169.17
-181.46
-186.79
-181.77
-164.76
-136.65
-100.72
-61.62
-23.95
9.04
35.86
56.60
72.14
83.49
91.43
96.58
99.53
100.95
101.42
101.27
100.50
98.84
96.03
92.09
87.45
82.87
79.14
76.82
75.93
76.03
76.29
75.85
74.10
70.78
66.00
60.10
53.49
46.49
39.29
31.98
24.58
17.10
9.55
1.91
-5.88
-14.01
-22.73
-32.28
-42.72
-53.78
-64.82
-75.01
-83.54
-90.08
-94.92
-99.05
-103.91
-110.99
-121.15
-134.10
-147.91
-159.30
-164.31
-159.57
-143.54
-117.16
-83.63
-47.40
-12.76
17.28
41.37
59.57
72.64
81.43
86.69
89.10
89.43
88.56
87.23
85.86
84.49
82.79
80.40
77.16
73.27
69.25
65.75
63.31
62.14
62.02
62.36
62.39
61.34
58.65
54.15
48.07
40.91
33.32
25.85
18.77
12.02
5.21
-2.18
-10.56
-20.07
-30.37
-40.82
-50.62
-59.16
-66.28
-72.29
-77.95
-84.24
-92.06
-102.01
-114.09
-127.36
-139.78
-148.41
-150.02
-142.10
-123.83
-96.61
-63.80
-29.68
1.79
28.01
48.06
62.34
71.87
77.73
80.72
81.38
80.17
77.53
73.91
69.70
65.11
60.36
55.58
51.00
46.87
43.39
40.64
38.53
36.88
35.42
33.87
31.91
29.22
25.45
20.30
13.61
5.46
-3.79
-13.55
-23.22
-32.27
-40.53
-48.13
-55.54
-63.46
-72.65
-83.67
-96.60
-110.60
-123.78
-133.38
-136.41
-130.60
-115.28
-91.71
-62.77
-32.15
-3.16
21.90
42.00
57.09
67.60
74.02
76.77
76.28
73.10
67.93
61.61
54.83
48.12
41.69
35.63
29.98
24.97
21.00
18.46
17.46
17.59
17.92
17.27
14.63
9.56
2.36
-6.10
-14.79
-22.89
-30.08
-36.65
-43.36
-51.27
-61.34
-74.03
-88.83
-103.99
-116.69
-123.60
-121.99
-110.62
-90.18
-63.21
-33.17
-3.49
23.22
45.50
62.82
75.20
82.96
86.52
86.44
83.41
78.20
71.47
63.77
55.56
47.23
39.26
32.16
26.40
22.25
19.64
18.10
16.87
15.16
12.29
7.97
2.31
-4.33
-11.57
-19.22
-27.42
-36.60
-47.35
-60.21
-75.34
-92.14
-108.95
-123.12
-131.41
-130.95
-120.22
-99.74
-72.06
-41.01
-10.55
16.32
38.00
54.25
65.64
72.97
76.92
77.92
76.30
72.38
66.61
59.54
51.86
44.28
37.44
31.75
27.38
24.20
21.89
19.96
17.93
15.30
11.75
7.10
1.42
-5.04
-11.95
-19.12
-26.66
-35.12
-45.31
-57.93
-72.99
-89.27
-104.15
-114.13
-115.78
-106.99
-87.80
-60.52
-29.00
2.59
30.95
54.29
72.29
85.49
94.63
100.30
102.83
102.50
99.70
95.03
89.21
82.91
76.68
70.83
65.52
60.80
56.70
53.20
50.25
47.71
45.33
42.78
39.63
35.47
29.89
22.59
13.50
2.84
-8.86
-20.86
-32.45
-43.13
-52.85
-61.97
-71.17
-81.22
-92.82
-106.37
-121.76
-138.01
-153.12
-164.11
-167.63
-161.02
-143.23
-115.42
-80.73
-43.33
-7.26
24.56
50.73
71.12
86.29
97.03
104.08
108.07
109.62
109.36
107.86
105.53
102.63
99.18
95.18
90.68
85.90
81.28
77.39
74.69
73.31
72.88
72.58
71.32
68.20
62.77
55.22
46.25
36.81
27.67
19.16
11.07
2.78
-6.42
-17.02
-28.96
-41.68
-54.24
-65.72
-75.59
-83.90
-91.29
-98.77
-107.53
-118.53
-132.19
-147.98
-164.12
-177.64
-184.87
-182.49
-168.63
-143.68
-110.24
-72.34
-34.22
0.74
30.60
54.78
73.62
87.87
98.41
106.16
111.91
116.31
119.69
121.97
122.83
121.84
118.89
114.22
108.58
102.91
98.12
94.80
92.99
92.22
91.61
90.20
87.25
82.49
76.08
68.57
60.57
52.55
44.66
36.79
28.67
20.11
11.15
2.03
-6.87
-15.31
-23.28
-31.11
-39.26
-48.13
-57.81
-68.06
-78.34
-88.07
-96.87
-104.78
-112.29
-120.26
-129.74
-141.60
-156.06
-172.19
-187.69
-199.10
-202.70
-195.63
-176.97
-148.13
-112.47
-74.19
-37.13
-3.94
24.13
46.94
65.00
79.10
90.13
98.97
106.39
112.83
118.26
122.28
124.35
124.07
121.50
117.16
111.91
106.66
102.18
98.84
96.66
95.23
93.96
92.18
89.42
85.42
80.22
74.07
67.20
59.76
51.73
43.04
33.66
23.76
13.72
3.98
-5.18
-13.81
-22.30
-31.17
-40.78
-51.13
-61.79
-72.12
-81.56
-89.87
-97.35
-104.76
-113.12
-123.40
-136.06
-150.58
-165.19
-176.95
-182.43
-178.72
-164.40
-140.23
-108.89
-74.13
-39.70
-8.38
18.33
40.11
57.27
70.43
80.30
87.60
93.07
97.25
100.43
102.50
103.10
101.87
98.69
93.87
88.14
82.43
77.62
74.26
72.44
71.79
71.50
70.65
68.39
64.25
58.22
50.78
42.63
34.40
26.40
18.51
10.27
1.20
-8.92
-19.87
-31.10
-41.86
-51.61
-60.15
-67.78
-75.19
-83.34
-93.19
-105.29
-119.37
-133.98
-146.50
-153.68
-152.59
-141.63
-121.15
-93.38
-61.76
-29.91
-0.71
24.07
43.82
58.73
69.38
76.54
80.92
83.14
83.70
82.87
80.83
77.72
73.75
69.21
64.45
59.77
55.39
51.46
48.09
45.37
43.29
41.75
40.41
38.69
35.87
31.29
24.57
15.84
5.65
-5.06
-15.38
-24.72
-32.99
-40.59
-48.34
-57.14
-67.76
-80.51
-94.91
-109.52
-121.96
-129.27
-128.77
-118.85
-99.78
-73.63
-43.81
-13.99
12.86
35.05
52.17
64.62
73.15
78.43
81.00
81.28
79.73
76.83
73.01
68.63
63.91
59.01
54.07
49.23
44.65
40.51
36.96
34.16
32.20
31.03
30.34
29.53
27.77
24.25
18.50
10.59
1.18
-8.71
-18.08
-26.31
-33.34
-39.65
-46.00
-53.29
-62.24
-73.32
-86.35
-100.30
-113.11
-121.97
-123.91
-116.79
-100.10
-75.29
-45.51
-14.59
13.95
37.78
56.01
68.89
77.27
82.07
83.96
83.37
80.67
76.32
70.94
65.20
59.62
54.49
49.80
45.44
41.29
37.43
34.11
31.60
30.05
29.25
28.68
27.53
25.05
20.68
14.34
6.42
-2.38
-11.26
-19.64
-27.33
-34.52
-41.72
-49.58
-58.75
-69.69
-82.46
-96.34
-109.78
-120.38
-125.44
-122.73
-111.27
-91.74
-66.35
-38.24
-10.53
14.35
34.95
50.72
61.70
68.23
70.78
69.99
66.64
61.69
56.03
50.35
45.04
40.09
35.31
30.53
25.83
21.60
18.41
16.70
16.44
17.04
17.43
16.47
13.40
8.06
0.92
-7.15
-15.31
-23.02
-30.15
-37.00
-44.17
-52.39
-62.24
-73.83
-86.39
-98.10
-106.33
-108.29
-102.02
-87.09
-64.94
-38.41
-10.89
14.58
35.97
52.37
63.78
70.67
73.73
73.63
71.06
66.70
61.17
55.00
48.47
41.78
35.00
28.33
22.09
16.73
12.63
9.93
8.35
7.20
5.63
2.87
-1.40
-7.06
-13.60
-20.42
-27.12
-33.64
-40.29
-47.68
-56.44
-66.93
-78.89
-91.15
-101.65
-107.84
-107.35
-98.81
-82.38
-59.78
-33.85
-7.69
16.10
35.84
50.85
61.23
67.45
70.10
69.71
66.82
61.94
55.65
48.57
41.33
34.53
28.62
23.87
20.38
18.03
16.58
15.64
14.70
13.20
10.65
6.71
1.41
-4.97
-11.91
-18.96
-25.90
-33.01
-40.98
-50.78
-63.17
-78.27
-95.11
-111.48
-124.35
-130.55
-127.77
-115.29
-94.23
-67.28
-37.85
-9.19
16.25
37.10
52.95
63.97
70.68
73.73
73.84
71.74
68.00
62.91
56.42
48.34
38.60
27.59
16.32
6.21
-1.28
-5.23
-5.58
-3.25
0.19
2.94
3.51
1.14
-4.10
-11.45
-19.81
-28.20
-36.01
-43.22
-50.38
-58.38
-68.29
-80.85
-96.05
-112.63
-127.98
-138.56
-140.92
-132.88
-114.49
-88.05
-57.35
-26.42
1.68
25.39
44.49
59.47
70.93
79.24
84.65
87.44
88.16
87.54
86.27
84.87
83.49
82.03
80.28
78.10
75.55
72.89
70.48
68.62
67.38
66.53
65.53
63.63
60.00
53.97
45.20
33.86
20.56
6.13
-8.62
-23.18
-37.44
-51.64
-66.27
-81.92
-99.09
-117.92
-137.79
-156.98
-172.72
-181.64
-180.79
-168.68
-145.92
-115.19
-80.41
-45.57
-13.76
13.34
35.32
52.56
65.70
75.35
82.07
86.38
88.81
89.81
89.67
88.47
86.16
82.72
78.43
73.82
69.66
66.68
65.23
65.12
65.62
65.67
64.28
60.89
55.53
48.73
41.29
33.89
26.80
19.85
12.46
4.02
-5.83
-17.00
-28.92
-40.78
-51.84
-61.73
-70.62
-79.19
-88.45
-99.44
-112.79
-128.18
-143.94
-157.17
-164.23
-161.91
-148.48
-124.45
-92.47
-56.49
-20.55
12.23
40.14
62.70
80.18
93.13
102.09
107.62
110.33
110.93
110.17
108.65
106.75
104.57
101.96
98.76
94.96
90.83
86.94
83.92
82.22
81.84
82.26
82.58
81.81
79.18
74.34
67.46
59.08
49.94
40.75
31.91
23.47
15.11
6.35
-3.20
-13.64
-24.65
-35.63
-45.97
-55.24
-63.44
-71.01
-78.75
-87.61
-98.47
-111.63
-126.47
-141.14
-152.71
-157.87
-153.80
-139.32
-115.28
-84.39
-50.40
-16.89
13.42
39.06
59.63
75.32
86.57
93.97
98.18
99.92
99.96
98.90
97.15
94.87
92.09
88.82
85.15
81.28
77.51
74.22
71.70
70.11
69.34
68.94
68.24
66.49
63.13
57.95
51.29
43.81
36.30
29.36
23.08
17.11
10.78
3.48
-5.07
-14.59
-24.42
-33.83
-42.27
-49.64
-56.25
-62.71
-69.67
-77.79
-87.57
-99.22
-112.25
-125.24
-135.77
-140.89
-137.95
-125.63
-104.52
-77.08
-46.81
-17.24
9.02
30.57
47.14
59.04
66.89
71.33
73.05
72.79
71.22
68.84
65.87
62.36
58.34
54.01
49.81
46.24
43.71
42.30
41.75
41.57
41.16
40.05
38.00
35.00
31.29
27.15
22.80
18.27
13.35
7.74
1.22
-6.22
-14.32
-22.60
-30.63
-38.14
-45.17
-52.03
-59.24
-67.46
-77.21
-88.52
-100.53
-111.32
-118.13
-118.21
-109.72
-92.61
-68.69
-41.15
-13.45
11.54
32.19
47.97
59.07
65.92
69.00
68.80
65.98
61.39
55.92
50.36
45.15
40.37
35.84
31.31
26.75
22.41
18.78
16.41
15.57
16.04
17.09
17.61
16.57
13.34
7.90
0.86
-6.79
-14.12
-20.56
-26.06
-31.09
-36.44
-42.99
-51.43
-62.03
-74.29
-86.81
-97.36
-103.29
-102.31
-93.19
-76.32
-53.66
-28.16
-2.96
19.37
37.27
50.23
58.48
62.69
63.71
62.34
59.30
55.17
50.33
45.03
39.43
33.74
28.18
23.08
18.75
15.44
13.22
11.98
11.37
10.84
9.78
7.69
4.33
-0.23
-5.63
-11.38
-17.08
-22.61
-28.26
-34.64
-42.52
-52.38
-63.93
-75.79
-85.61
-90.63
-88.57
-78.47
-61.15
-38.96
-15.09
7.51
26.72
41.56
51.95
58.32
61.25
61.28
58.96
54.86
49.58
43.67
37.56
31.51
25.67
20.15
15.12
10.76
7.28
4.73
2.91
1.41
-0.31
-2.72
-6.08
-10.37
-15.38
-20.82
-26.51
-32.52
-39.18
-46.98
-56.36
-67.38
-79.31
-90.54
-98.72
-101.36
-96.67
-84.21
-65.17
-42.05
-17.87
4.61
23.54
38.12
48.37
54.69
57.64
57.68
55.29
50.95
45.17
38.50
31.39
24.33
17.79
12.24
8.03
5.28
3.73
2.84
1.90
0.27
-2.37
-6.10
-10.72
-16.02
-21.76
-27.83
-34.20
-41.03
-48.71
-57.78
-68.53
-80.55
-92.31
-101.23
-104.36
-99.38
-85.58
-64.24
-38.32
-11.42
13.23
33.57
48.81
59.18
65.38
68.10
67.92
65.26
60.57
54.34
47.12
39.51
32.06
25.21
19.24
14.24
10.12
6.68
3.62
0.68
-2.37
-5.72
-9.50
-13.82
-18.74
-24.25
-30.31
-36.95
-44.46
-53.36
-64.18
-77.03
-91.04
-104.09
-113.10
-114.93
-107.44
-90.35
-65.45
-36.10
-6.11
21.22
43.80
60.76
72.20
78.78
81.32
80.68
77.69
73.12
67.57
61.46
54.99
48.34
41.76
35.64
30.49
26.70
24.36
23.06
22.00
20.23
16.98
11.93
5.29
-2.37
-10.40
-18.30
-25.96
-33.60
-41.81
-51.45
-63.30
-77.63
-93.61
-109.03
-120.53
-124.44
-118.11
-100.86
-74.49
-42.64
-9.67
20.70
46.15
65.94
80.40
90.26
96.17
98.57
97.86
94.60
89.61
83.80
78.02
72.77
68.15
63.94
59.87
55.79
51.91
48.60
46.24
44.87
44.04
42.88
40.34
35.55
28.16
18.47
7.27
-4.37
-15.48
-25.49
-34.40
-42.65
-51.11
-60.82
-72.68
-87.17
-103.87
-121.14
-136.12
-145.21
-145.06
-133.71
-111.39
-80.59
-45.31
-9.88
22.20
48.92
69.71
84.93
95.29
101.46
104.05
103.71
101.19
97.38
93.13
89.06
85.49
82.40
79.59
76.88
74.30
72.07
70.54
69.95
70.23
70.91
71.19
70.20
67.24
62.03
54.76
46.04
36.72
27.59
19.20
11.59
4.40
-3.07
-11.48
-21.20
-32.06
-43.42
-54.43
-64.34
-72.86
-80.22
-87.16
-94.67
-103.77
-115.21
-129.09
-144.47
-159.14
-169.83
-172.92
-165.55
-146.68
-117.62
-81.73
-43.37
-6.67
25.49
51.78
72.11
87.06
97.38
103.80
107.04
107.91
107.26
105.83
104.11
102.21
99.95
97.12
93.65
89.85
86.26
83.56
82.17
82.07
82.67
83.06
82.28
79.75
75.49
69.98
63.92
57.85
51.86
45.64
38.73
30.80
21.89
12.45
3.07
-5.77
-13.94
-21.70
-29.58
-38.04
-47.31
-57.22
-67.29
-76.92
-85.64
-93.28
-100.04
-106.54
-113.71
-122.63
-134.12
-148.21
-163.55
-177.28
-185.51
-184.41
-171.56
-146.96
-113.15
-74.41
-35.44
0.01
29.78
53.33
71.11
84.03
93.01
98.85
102.30
104.08
104.75
104.63
103.77
102.03
99.32
95.81
91.94
88.35
85.59
83.95
83.31
83.22
83.08
82.31
80.47
77.36
72.90
67.18
60.35
52.69
44.50
36.09
27.76
19.70
11.99
4.57
-2.80
-10.47
-18.80
-27.99
-37.98
-48.33
-58.41
-67.60
-75.58
-82.50
-88.99
-95.98
-104.52
-115.34
-128.38
-142.49
-155.26
-163.36
-163.49
-153.36
-132.67
-103.32
-68.95
-33.79
-1.49
25.66
46.84
62.35
72.99
79.65
83.14
84.23
83.75
82.56
81.39
80.68
80.45
80.32
79.75
78.27
75.74
72.46
69.05
66.22
64.49
63.88
63.86
63.50
61.80
58.08
52.18
44.56
36.11
27.80
20.28
13.64
7.41
0.78
-6.97
-16.14
-26.40
-36.98
-46.98
-55.75
-63.16
-69.61
-75.90
-82.93
-91.61
-102.52
-115.67
-130.09
-143.62
-153.08
-155.03
-146.86
-127.86
-99.70
-65.96
-31.12
0.92
27.69
48.39
63.43
73.70
79.97
82.81
82.72
80.36
76.66
72.54
68.67
65.23
62.02
58.65
54.97
51.25
48.07
46.11
45.70
46.63
48.08
48.92
48.11
45.12
40.09
33.76
27.03
20.60
14.58
8.54
1.78
-6.28
-15.72
-26.08
-36.53
-46.29
-54.89
-62.33
-69.03
-75.75
-83.40
-92.78
-104.20
-116.99
-129.20
-137.81
-139.44
-131.58
-113.55
-86.97
-55.30
-22.70
7.19
32.15
51.45
65.47
74.96
80.60
82.87
82.17
79.02
74.21
68.62
63.02
57.95
53.62
49.93
46.73
43.88
41.37
39.28
37.72
36.72
36.14
35.66
34.85
33.20
30.21
25.53
19.01
10.82
1.46
-8.35
-17.90
-26.66
-34.51
-41.77
-49.14
-57.45
-67.47
-79.55
-93.32
-107.46
-119.68
-127.06
-126.81
-117.21
-98.28
-71.97
-41.63
-11.06
16.57
39.27
56.43
68.30
75.55
78.82
78.70
75.79
70.88
64.89
58.71
52.90
47.64
42.75
38.07
33.63
29.86
27.36
26.53
27.28
28.80
29.81
28.96
25.36
18.89
10.21
0.46
-9.17
-17.87
-25.47
-32.38
-39.52
-47.94
-58.54
-71.58
-86.32
-100.81
-112.15
-117.19
-113.46
-100.14
-78.41
-51.14
-22.00
5.58
29.17
47.63
60.81
69.16
73.35
74.05
71.99
67.92
62.58
56.62
50.50
44.47
38.70
33.34
28.62
24.85
22.28
20.96
20.57
20.42
19.55
17.02
12.29
5.36
-3.19
-12.44
-21.53
-29.93
-37.71
-45.47
-54.14
-64.68
-77.53
-92.13
-106.71
-118.40
-123.92
-120.63
-107.45
-85.41
-57.35
-27.04
1.97
27.14
47.35
62.54
73.15
79.74
82.74
82.58
79.82
75.25
69.66
63.75
57.90
52.18
46.56
41.05
35.94
31.70
28.79
27.33
26.93
26.68
25.43
22.20
16.55
8.69
-0.63
-10.38
-19.77
-28.46
-36.70
-45.23
-55.05
-67.00
-81.23
-96.79
-111.44
-122.03
-125.29
-118.94
-102.59
-77.93
-48.29
-17.55
10.91
34.98
53.86
67.79
77.47
83.60
86.76
87.37
85.85
82.65
78.36
73.52
68.67
64.16
60.10
56.49
53.22
50.27
47.71
45.63
44.07
42.78
41.31
39.01
35.26
29.60
21.90
12.36
1.51
-9.97
-21.39
-32.17
-42.02
-50.95
-59.38
-68.01
-77.72
-89.27
-102.87
-117.73
-131.89
-142.43
-146.12
-140.51
-124.75
-100.07
-69.42
-36.63
-5.27
22.16
44.50
61.78
74.68
84.06
90.66
94.98
97.41
98.26
97.80
96.27
93.88
90.77
87.16
83.31
79.65
76.59
74.47
73.32
72.87
72.54
71.59
69.43
65.77
60.74
54.74
48.30
41.81
35.37
28.82
21.90
14.43
6.56
-1.35
-8.90
-15.89
-22.49
-29.16
-36.47
-44.70
-53.71
-63.00
-71.89
-79.91
-86.93
-93.29
-99.68
-106.97
-116.03
-127.35
-140.67
-154.61
-166.63
-173.42
-171.86
-160.04
-138.07
-108.13
-73.85
-39.20
-7.38
19.70
41.48
58.34
71.08
80.55
87.52
92.64
96.43
99.21
101.07
101.95
101.68
100.17
97.55
94.16
90.57
87.42
85.18
84.08
83.91
84.13
83.97
82.73
79.93
75.48
69.69
63.10
56.32
49.79
43.70
37.93
32.17
26.02
19.17
11.57
3.42
-4.79
-12.55
-19.45
-25.39
-30.70
-35.99
-41.91
-48.90
-56.94
-65.57
-74.12
-81.98
-88.88
-95.05
-101.06
-107.76
-116.04
-126.50
-139.16
-153.03
-165.94
-174.83
-176.46
-168.45
-150.20
-123.22
-90.75
-56.72
-24.62
3.31
26.28
44.57
59.01
70.48
79.70
87.16
93.25
98.13
101.82
104.17
104.95
104.03
101.50
97.78
93.50
89.35
85.89
83.46
82.09
81.53
81.34
80.94
79.81
77.54
74.04
69.43
64.06
58.35
52.65
47.15
41.95
36.98
32.18
27.41
22.47
17.20
11.47
5.34
-0.99
-7.17
-12.92
-18.11
-22.91
-27.70
-32.97
-39.12
-46.23
-54.08
-62.15
-69.87
-76.78
-82.76
-88.05
-93.26
-99.25
-106.89
-116.63
-128.14
-139.95
-149.55
-153.87
-150.26
-137.40
-115.92
-88.22
-57.81
-28.17
-1.92
19.60
36.23
48.53
57.37
63.57
67.91
71.01
73.34
75.20
76.56
77.23
76.92
75.46
72.97
69.87
66.82
64.49
63.31
63.35
64.25
65.35
65.92
65.36
63.38
60.03
55.62
50.61
45.41
40.35
35.56
30.97
26.35
21.40
15.93
9.89
3.55
-2.68
-8.30
-13.05
-17.00
-20.58
-24.39
-28.95
-34.49
-40.87
-47.64
-54.31
-60.46
-65.92
-70.74
-75.23
-79.91
-85.51
-92.70
-101.75
-112.15
-122.32
-129.85
-132.16
-127.38
-115.09
-96.46
-73.90
-50.21
-27.79
-8.11
8.21
21.23
31.27
38.75
44.14
47.93
50.62
52.62
54.14
55.21
55.75
55.75
55.24
54.41
53.54
52.95
52.95
53.69
55.07
56.67
57.86
57.99
56.68
53.93
50.15
45.92
41.76
37.90
34.21
30.36
25.95
20.71
14.64
8.00
1.22
-5.20
-10.95
-16.07
-20.93
-26.11
-32.03
-38.78
-45.96
-52.93
-58.98
-63.80
-67.51
-70.69
-74.14
-78.74
-85.10
-93.36
-102.92
-112.29
-119.28
-121.42
-116.73
-104.47
-85.45
-61.88
-36.67
-12.61
8.24
24.85
37.03
45.22
50.11
52.46
53.07
52.65
51.82
50.94
50.16
49.40
48.49
47.28
45.80
44.24
42.94
42.22
42.26
42.99
44.08
45.03
45.33
44.63
42.82
40.02
36.47
32.42
28.09
23.58
18.90
14.04
9.00
3.88
-1.19
-6.12
-10.92
-15.73
-20.77
-26.23
-32.11
-38.24
-44.32
-50.06
-55.29
-59.98
-64.31
-68.66
-73.57
-79.68
-87.50
-96.94
-107.02
-115.74
-120.52
-119.01
-109.93
-93.62
-71.93
-47.62
-23.47
-1.57
16.90
31.56
42.50
50.00
54.46
56.38
56.47
55.45
53.99
52.44
50.89
49.21
47.25
44.96
42.52
40.27
38.61
37.84
37.97
38.70
39.42
39.43
38.17
35.44
31.40
26.57
21.50
16.57
11.84
7.02
1.68
-4.52
-11.70
-19.63
-27.86
-35.87
-43.27
-49.90
-55.93
-61.85
-68.31
-75.96
-85.11
-95.39
-105.45
-113.19
-116.17
-112.41
-101.14
-83.08
-60.37
-35.76
-11.96
9.11
26.44
39.79
49.36
55.44
58.38
58.56
56.55
53.06
48.88
44.70
40.97
37.83
35.24
33.07
31.23
29.71
28.58
27.87
27.56
27.51
27.43
26.88
25.31
22.25
17.41
10.84
2.96
-5.55
-14.03
-22.02
-29.35
-36.16
-42.78
-49.71
-57.53
-66.82
-77.83
-90.10
-102.17
-111.65
-115.85
-112.60
-101.17
-82.51
-59.04
-33.75
-9.36
12.27
30.25
44.30
54.39
60.48
62.66
61.33
57.36
52.00
46.51
41.85
38.33
35.74
33.57
31.41
29.15
27.04
25.45
24.65
24.60
24.91
24.94
24.00
21.54
17.30
11.36
4.12
-3.90
-12.13
-20.19
-27.95
-35.56
-43.44
-52.19
-62.49
-74.71
-88.62
-102.92
-115.28
-122.75
-122.58
-113.24
-94.94
-69.73
-40.74
-11.35
15.68
38.62
56.73
70.04
78.99
84.24
86.50
86.45
84.67
81.57
77.45
72.57
67.26
61.90
56.95
52.79
49.67
47.64
46.54
46.06
45.80
45.32
44.25
42.31
39.30
35.08
29.56
22.74
14.76
5.84
-3.65
-13.37
-23.05
-32.55
-41.87
-51.10
-60.43
-70.25
-81.08
-93.38
-107.07
-121.11
-133.28
-140.54
-139.86
-129.32
-108.93
-80.75
-48.30
-15.47
14.52
39.75
59.58
74.37
84.83
91.72
95.67
97.22
96.86
95.14
92.56
89.56
86.39
83.18
79.99
76.92
74.23
72.28
71.41
71.72
72.92
74.34
75.08
74.29
71.42
66.39
59.54
51.49
42.97
34.55
26.53
18.90
11.31
3.27
-5.62
-15.52
-26.17
-37.04
-47.46
-56.92
-65.23
-72.59
-79.59
-87.08
-95.97
-106.93
-119.98
-134.06
-146.89
-155.28
-155.98
-146.70
-127.10
-98.95
-65.68
-31.29
0.84
28.57
51.16
68.72
81.74
90.72
96.17
98.75
99.41
99.13
98.73
98.50
98.23
97.42
95.63
92.89
89.71
86.92
85.24
84.99
85.85
87.06
87.63
86.82
84.30
80.23
75.07
69.35
63.45
57.56
51.65
45.64
39.53
33.43
27.50
21.85
16.43
10.92
4.81
-2.48
-11.38
-21.90
-33.60
-45.76
-57.53
-68.30
-77.85
-86.41
-94.59
-103.22
-113.21
-125.19
-139.16
-154.04
-167.48
-176.21
-176.91
-167.33
-147.25
-118.74
-85.51
-51.78
-20.96
5.01
25.79
42.09
54.94
65.19
73.36
79.77
84.68
88.37
91.08
92.90
93.71
93.31
91.64
88.93
85.74
82.83
80.89
80.26
80.73
81.62
82.05
81.22
78.74
74.67
69.47
63.75
57.98
52.39
46.94
41.36
35.33
28.66
21.35
13.65
5.96
-1.33
-8.04
-14.28
-20.43
-26.94
-34.07
-41.77
-49.68
-57.33
-64.33
-70.58
-76.26
-81.85
-88.00
-95.44
-104.70
-115.75
-127.51
-137.75
-143.50
-141.79
-130.83
-110.67
-83.40
-52.46
-21.61
6.08
28.81
46.08
58.35
66.49
71.54
74.44
75.97
76.74
77.07
77.03
76.45
75.13
72.96
70.08
66.84
63.71
61.11
59.32
58.31
57.85
57.56
57.01
55.84
53.83
50.93
47.21
42.82
37.89
32.50
26.73
20.70
14.59
8.64
2.97
-2.51
-8.11
-14.25
-21.16
-28.80
-36.73
-44.37
-51.20
-57.03
-62.09
-66.88
-72.05
-78.24
-85.94
-95.37
-106.17
-117.19
-126.40
-131.21
-129.15
-118.79
-100.34
-75.73
-48.07
-20.67
3.79
23.80
38.97
49.76
56.89
61.13
63.13
63.41
62.39
60.42
57.83
54.87
51.75
48.66
45.77
43.18
40.96
39.14
37.70
36.64
35.90
35.39
34.90
34.13
32.66
30.15
26.38
21.45
15.80
10.02
4.60
-0.36
-5.21
-10.74
-17.82
-27.05
-38.51
-51.67
-65.54
-78.69
-89.43
-96.13
-97.42
-92.78
-82.84
-69.44
-55.23
-42.82
-33.69
-27.60
-22.57
-15.63
-4.17
13.01
35.11
59.71
83.72
104.45
120.33
130.92
136.48
137.37
133.79
125.81
113.75
98.46
81.33
63.92
47.57
33.02
20.41
9.50
0.16
-7.49
-13.05
-16.08
-16.51
-14.75
-11.60
-7.93
-4.24
-0.53
3.59
8.58
14.61
21.33
27.98
33.51
36.98
37.74
35.58
30.80
24.09
16.32
8.28
0.46
-7.08
-14.57
-22.39
-30.95
-40.59
-51.58
-64.01
-77.49
-90.87
-102.11
-108.69
-108.38
-100.03
-84.26
-63.22
-39.99
-17.51
2.22
18.30
30.75
39.88
45.96
49.19
49.88
48.68
46.50
44.19
42.17
40.27
37.87
34.37
29.59
24.00
18.54
14.23
11.78
11.36
12.61
14.92
17.67
20.44
23.01
25.24
26.89
27.53
26.60
23.51
17.93
9.93
-0.00
-11.10
-22.49
-33.49
-43.66
-52.91
-61.43
-69.58
-77.91
-86.97
-97.12
-108.15
-119.02
-127.86
-132.32
-130.41
-121.31
-105.82
-86.19
-65.36
-45.97
-29.71
-17.14
-8.07
-2.03
1.37
2.46
1.76
0.12
-1.39
-1.81
-0.72
1.58
4.19
6.03
6.29
4.73
1.78
-1.66
-4.52
-5.89
-5.30
-2.91
0.59
4.14
6.78
8.01
8.05
7.72
8.08
9.84
13.00
16.72
19.69
20.59
18.59
13.52
5.87
-3.50
-13.65
-23.81
-33.52
-42.65
-51.47
-60.59
-70.75
-82.56
-96.03
-110.27
-123.30
-132.45
-135.00
-129.08
-114.36
-92.18
-65.27
-36.88
-9.95
13.52
32.65
47.48
58.55
66.55
72.05
75.39
76.74
76.26
74.19
70.96
67.10
63.15
59.57
56.63
54.40
52.92
52.19
52.23
52.93
54.04
55.02
55.25
54.15
51.49
47.56
43.15
39.31
36.99
36.57
37.72
39.42
40.31
39.15
35.25
28.57
19.54
8.83
-2.99
-15.50
-28.46
-41.69
-55.10
-68.74
-82.82
-97.47
-112.30
-126.09
-136.66
-141.46
-138.37
-126.70
-107.47
-83.26
-57.29
-32.46
-10.77
6.92
20.53
30.38
36.87
40.46
41.67
41.20
39.88
38.57
38.01
38.70
40.84
44.32
48.76
53.65
58.54
63.14
67.44
71.51
75.34
78.61
80.68
80.80
78.41
73.44
66.41
58.23
49.88
42.04
34.85
27.95
20.76
12.73
3.64
-6.34
-16.77
-27.19
-37.25
-46.99
-56.74
-67.07
-78.60
-91.85
-107.03
-123.83
-141.21
-157.26
-169.33
-174.46
-170.19
-155.33
-130.46
-97.95
-61.35
-24.45
9.59
38.75
62.18
79.87
92.22
99.68
102.66
101.63
97.28
90.56
82.59
74.38
66.56
59.30
52.38
45.53
38.76
32.48
27.41
24.25
23.26
24.18
26.29
28.74
30.91
32.46
33.31
33.44
32.77
31.09
28.19
23.94
18.40
11.62
3.67
-5.42
-15.60
-26.64
-38.07
-49.31
-59.80
-69.21
-77.63
-85.50
-93.54
-102.61
-113.27
-125.47
-138.13
-149.14
-155.68
-155.02
-145.52
-127.28
-102.28
-73.78
-45.34
-19.84
1.08
16.98
28.31
35.91
40.66
43.41
44.92
45.89
46.92
48.38
50.37
52.64
54.72
56.08
56.35
55.49
53.84
52.02
50.69
50.28
50.77
51.66
52.17
51.55
49.32
45.44
40.20
34.14
27.77
21.45
15.38
9.65
4.21
-1.05
-6.27
-11.55
-16.87
-22.12
-27.10
-31.69
-35.98
-40.44
-45.86
-53.22
-63.35
-76.38
-91.31
-105.85
-116.78
-120.70
-115.13
-99.40
-74.91
-44.83
-13.02
16.99
42.85
63.57
79.27
90.65
98.48
103.33
105.58
105.51
103.51
100.04
95.67
90.93
86.29
82.08
78.59
76.08
74.82
74.93
76.24
78.25
80.07
80.69
79.23
75.21
68.70
60.24
50.65
40.75
31.13
21.98
13.11
4.08
-5.64
-16.46
-28.48
-41.44
-54.71
-67.49
-79.03
-88.91
-97.25
-104.79
-112.70
-122.22
-133.95
-147.31
-160.23
-169.45
-171.50
-163.74
-145.39
-117.72
-83.58
-46.38
-9.07
26.27
58.43
86.62
110.15
128.41
141.16
148.76
152.09
152.29
150.31
146.65
141.42
134.61
126.38
117.21
107.71
98.48
89.87
82.03
74.97
68.64
62.96
57.80
52.92
48.01
42.88
37.61
32.61
28.45
25.48
23.60
22.08
19.84
15.84
9.53
1.01
-9.16
-20.34
-32.17
-44.71
-58.23
-72.93
-88.55
-104.18
-118.33
-129.11
-134.70
-133.72
-125.66
-111.13
-91.77
-69.90
-48.00
-28.12
-11.56
1.24
10.50
16.85
21.06
23.78
25.51
26.48
26.73
26.26
25.14
23.80
22.88
23.17
25.23
29.19
34.64
40.89
47.14
52.74
57.14
59.74
59.92
57.34
52.30
45.90
39.60
34.34
29.73
24.04
15.01
1.18
-17.01
-37.20
-56.16
-71.26
-81.61
-88.30
-93.64
-100.18
-109.86
-123.53
-140.83
-160.07
-178.25
-191.41
-195.49
-187.48
-166.57
-134.73
-96.55
-58.10
-25.41
-2.84
8.07
8.75
2.89
-5.07
-11.60
-15.18
-16.48
-17.50
-20.14
-24.93
-30.60
-34.51
-33.73
-26.39
-12.41
6.40
26.93
