v1	v2	v3	v4	ts
0,000000	0,000000	0,000000	0,000000	2020-11-19T14:31:12:670
0,000000	0,000000	0,000000	0,000000	2020-11-19T14:31:12:697
0,000000	0,000000	0,000000	0,000000	2020-11-19T14:31:12:717
0,000000	0,000000	0,000000	0,000000	2020-11-19T14:31:12:769
0,000000	0,000000	0,000000	0,000000	2020-11-19T14:31:12:798
0,000000	0,000000	0,000000	0,000000	2020-11-19T14:31:12:838
0,000000	0,000000	0,000000	0,000000	2020-11-19T14:31:12:897
0,000000	0,000000	0,000000	0,000000	2020-11-19T14:31:12:918
0,000000	0,000000	0,000000	0,000000	2020-11-19T14:31:12:958
0,000000	0,000000	0,000000	0,000000	2020-11-19T14:31:12:998
0,000000	0,000000	0,000000	0,000000	2020-11-19T14:31:13:039
0,000000	0,000000	0,000000	0,000000	2020-11-19T14:31:13:097
0,000000	0,000000	0,000000	0,000000	2020-11-19T14:31:13:118
0,000000	0,000000	0,000000	0,000000	2020-11-19T14:31:13:158
0,000000	0,000000	0,000000	0,000000	2020-11-19T14:31:13:198
0,000000	0,000000	0,000000	0,000000	2020-11-19T14:31:13:239
0,000000	0,000000	0,000000	0,000000	2020-11-19T14:31:13:298
0,000000	0,000000	0,000000	0,000000	2020-11-19T14:31:13:319
0,000000	0,000000	0,000000	0,000000	2020-11-19T14:31:13:359
0,000000	0,000000	0,000000	0,000000	2020-11-19T14:31:13:399
0,000000	0,000000	0,000000	0,000000	2020-11-19T14:31:13:438
0,000000	0,000000	0,000000	0,000000	2020-11-19T14:31:13:498
0,000000	0,000000	0,000000	0,000000	2020-11-19T14:31:13:518
0,000000	0,000000	0,000000	0,000000	2020-11-19T14:31:13:559
0,000000	0,000000	0,000000	0,000000	2020-11-19T14:31:13:599
0,000000	0,000000	0,000000	0,000000	2020-11-19T14:31:13:639
0,000000	0,000000	0,000000	0,000000	2020-11-19T14:31:13:698
0,000000	0,000000	0,000000	0,000000	2020-11-19T14:31:13:719
0,000000	0,000000	0,000000	0,000000	2020-11-19T14:31:13:759
0,000000	0,000000	0,000000	0,000000	2020-11-19T14:31:13:799
0,000000	0,000000	0,000000	0,000000	2020-11-19T14:31:14:019
0,000000	0,000000	0,000000	0,000000	2020-11-19T14:31:14:023
0,000000	0,000000	0,000000	0,000000	2020-11-19T14:31:14:056
0,000000	0,000000	0,000000	0,000000	2020-11-19T14:31:14:062
0,000000	0,000000	0,000000	0,000000	2020-11-19T14:31:14:063
0,000000	0,000000	0,000000	0,000000	2020-11-19T14:31:14:064
0,000000	0,000000	0,000000	0,000000	2020-11-19T14:31:14:099
0,000000	0,000000	0,000000	0,000000	2020-11-19T14:31:14:120
0,000000	0,000000	0,000000	0,000000	2020-11-19T14:31:14:161
0,000000	0,000000	0,000000	0,000000	2020-11-19T14:31:14:202
0,000000	0,000000	0,000000	0,000000	2020-11-19T14:31:14:241
0,000000	0,000000	0,000000	0,000000	2020-11-19T14:31:14:301
0,000000	0,000000	0,000000	0,000000	2020-11-19T14:31:14:321
0,000000	0,000000	0,000000	0,000000	2020-11-19T14:31:14:362
0,000000	0,000000	0,000000	0,000000	2020-11-19T14:31:14:402
0,000000	0,000000	0,000000	0,000000	2020-11-19T14:31:14:443
0,000000	0,000000	0,000000	0,000000	2020-11-19T14:31:14:517
0,000000	0,000000	0,000000	0,000000	2020-11-19T14:31:14:524
0,000000	0,000000	0,000000	0,000000	2020-11-19T14:31:14:579
0,000000	0,000000	0,000000	0,000000	2020-11-19T14:31:14:601
0,000000	0,000000	0,000000	0,000000	2020-11-19T14:31:14:644
0,000000	0,000000	0,000000	0,000000	2020-11-19T14:31:14:682
0,000000	0,000000	0,000000	0,000000	2020-11-19T14:31:14:723
0,000000	0,000000	0,000000	0,000000	2020-11-19T14:31:14:763
0,000000	0,000000	0,000000	0,000000	2020-11-19T14:31:14:802
0,000000	0,000000	0,000000	0,000000	2020-11-19T14:31:14:843
0,000000	0,000000	0,000000	0,000000	2020-11-19T14:31:14:883
0,000000	0,000000	0,000000	0,000000	2020-11-19T14:31:14:923
0,000000	0,000000	0,000000	0,000000	2020-11-19T14:31:14:963
0,000000	0,000000	0,000000	0,000000	2020-11-19T14:31:15:003
0,000000	0,000000	0,000000	0,000000	2020-11-19T14:31:15:043
0,000000	0,000000	0,000000	0,000000	2020-11-19T14:31:15:083
0,000000	0,000000	0,000000	0,000000	2020-11-19T14:31:15:123
0,000000	0,000000	0,000000	0,000000	2020-11-19T14:31:15:163
0,000000	0,000000	0,000000	0,000000	2020-11-19T14:31:15:203
0,000000	0,000000	0,000000	0,000000	2020-11-19T14:31:15:243
0,000000	0,000000	0,000000	0,000000	2020-11-19T14:31:15:283
0,000000	0,000000	0,000000	0,000000	2020-11-19T14:31:15:323
0,000000	0,000000	0,000000	0,000000	2020-11-19T14:31:15:363
0,000000	0,000000	0,000000	0,000000	2020-11-19T14:31:15:404
0,000000	0,000000	0,000000	0,000000	2020-11-19T14:31:15:444
0,000000	0,000000	0,000000	0,000000	2020-11-19T14:31:15:484
0,000000	0,000000	0,000000	0,000000	2020-11-19T14:31:15:524
0,000000	0,000000	0,000000	0,000000	2020-11-19T14:31:15:564
0,000000	0,000000	0,000000	0,000000	2020-11-19T14:31:15:603
0,000000	0,000000	0,000000	0,000000	2020-11-19T14:31:15:645
0,000000	0,000000	0,000000	0,000000	2020-11-19T14:31:15:684
0,000000	0,000000	0,000000	0,000000	2020-11-19T14:31:15:724
0,000000	0,000000	0,000000	0,000000	2020-11-19T14:31:15:764
0,000000	0,000000	0,000000	0,000000	2020-11-19T14:31:15:804
0,000000	0,000000	0,000000	0,000000	2020-11-19T14:31:15:844
0,000000	0,000000	0,000000	0,000000	2020-11-19T14:31:15:885
0,000000	0,000000	0,000000	0,000000	2020-11-19T14:31:15:924
0,000000	0,000000	0,000000	0,000000	2020-11-19T14:31:15:964
0,000000	0,000000	0,000000	0,000000	2020-11-19T14:31:16:008
0,000000	0,000000	0,000000	0,000000	2020-11-19T14:31:16:044
0,000000	0,000000	0,000000	0,000000	2020-11-19T14:31:16:085
0,000000	0,000000	0,000000	0,000000	2020-11-19T14:31:16:125
0,000000	0,000000	0,000000	0,000000	2020-11-19T14:31:16:164
0,000000	0,000000	0,000000	0,000000	2020-11-19T14:31:16:204
0,000000	0,000000	0,000000	0,000000	2020-11-19T14:31:16:244
0,000000	0,000000	0,000000	0,000000	2020-11-19T14:31:16:288
0,000000	0,000000	0,000000	0,000000	2020-11-19T14:31:16:326
0,000000	0,000000	0,000000	0,000000	2020-11-19T14:31:16:364
0,000000	0,000000	0,000000	0,000000	2020-11-19T14:31:16:405
0,000000	0,000000	0,000000	0,000000	2020-11-19T14:31:16:444
0,000000	0,000000	0,000000	0,000000	2020-11-19T14:31:16:485
0,000000	0,000000	0,000000	0,000000	2020-11-19T14:31:16:525
0,000000	0,000000	0,000000	0,000000	2020-11-19T14:31:16:566
0,000000	0,000000	0,000000	0,000000	2020-11-19T14:31:16:605
0,000000	0,000000	0,000000	0,000000	2020-11-19T14:31:16:644
0,000000	0,000000	0,000000	0,000000	2020-11-19T14:31:16:685
0,000000	0,000000	0,000000	0,000000	2020-11-19T14:31:16:725
0,000000	0,000000	0,000000	0,000000	2020-11-19T14:31:16:765
0,000000	0,000000	0,000000	0,000000	2020-11-19T14:31:16:804
0,000000	0,000000	0,000000	0,000000	2020-11-19T14:31:16:844
0,000000	0,000000	0,000000	0,000000	2020-11-19T14:31:16:883
0,000000	0,000000	0,000000	0,000000	2020-11-19T14:31:16:924
0,000000	0,000000	0,000000	0,000000	2020-11-19T14:31:16:963
0,000000	0,000000	0,000000	0,000000	2020-11-19T14:31:17:003
0,000000	0,000000	0,000000	0,000000	2020-11-19T14:31:17:043
0,000000	0,000000	0,000000	0,000000	2020-11-19T14:31:17:085
0,000000	0,000000	0,000000	0,000000	2020-11-19T14:31:17:123
0,000000	0,000000	0,000000	0,000000	2020-11-19T14:31:17:164
0,000000	0,000000	0,000000	0,000000	2020-11-19T14:31:17:204
0,000000	0,000000	0,000000	0,000000	2020-11-19T14:31:17:435
0,000000	0,000000	0,000000	0,000000	2020-11-19T14:31:17:478
0,000000	0,000000	0,000000	0,000000	2020-11-19T14:31:17:502
0,000000	0,000000	0,000000	0,000000	2020-11-19T14:31:17:502
0,000000	0,000000	0,000000	0,000000	2020-11-19T14:31:17:503
0,000000	0,000000	0,000000	0,000000	2020-11-19T14:31:17:505
0,000000	0,000000	0,000000	0,000000	2020-11-19T14:31:17:506
0,000000	0,000000	0,000000	0,000000	2020-11-19T14:31:17:524
0,000000	0,000000	0,000000	0,000000	2020-11-19T14:31:17:565
0,000000	0,000000	0,000000	0,000000	2020-11-19T14:31:17:604
0,000000	0,000000	0,000000	0,000000	2020-11-19T14:31:17:644
0,000000	0,000000	0,000000	0,000000	2020-11-19T14:31:17:685
0,000000	0,000000	0,000000	0,000000	2020-11-19T14:31:17:724
0,000000	0,000000	0,000000	0,000000	2020-11-19T14:31:17:766
0,000000	0,000000	0,000000	0,000000	2020-11-19T14:31:17:806
0,000000	0,000000	0,000000	0,000000	2020-11-19T14:31:17:846
0,000000	0,000000	0,000000	0,000000	2020-11-19T14:31:17:886
0,000000	0,000000	0,000000	0,000000	2020-11-19T14:31:17:926
0,000000	0,000000	0,000000	0,000000	2020-11-19T14:31:17:966
0,000000	0,000000	0,000000	0,000000	2020-11-19T14:31:18:046
0,000000	0,000000	0,000000	0,000000	2020-11-19T14:31:18:111
0,000000	0,000000	0,000000	0,000000	2020-11-19T14:31:18:112
0,000000	0,000000	0,000000	0,000000	2020-11-19T14:31:18:166
0,000000	0,000000	0,000000	0,000000	2020-11-19T14:31:18:167
0,000000	0,000000	0,000000	0,000000	2020-11-19T14:31:18:204
0,000000	0,000000	0,000000	0,000000	2020-11-19T14:31:18:245
0,000000	0,000000	0,000000	0,000000	2020-11-19T14:31:18:287
0,000000	0,000000	0,000000	0,000000	2020-11-19T14:31:18:325
0,000000	0,000000	0,000000	0,000000	2020-11-19T14:31:18:366
0,000000	0,000000	0,000000	0,000000	2020-11-19T14:31:18:406
0,000000	0,000000	0,000000	0,000000	2020-11-19T14:31:18:445
0,000000	0,000000	0,000000	0,000000	2020-11-19T14:31:18:486
0,000000	0,000000	0,000000	0,000000	2020-11-19T14:31:18:527
0,000000	0,000000	0,000000	0,000000	2020-11-19T14:31:18:566
0,000000	0,000000	0,000000	0,000000	2020-11-19T14:31:18:606
0,000000	0,000000	0,000000	0,000000	2020-11-19T14:31:18:647
0,000000	0,000000	0,000000	0,000000	2020-11-19T14:31:18:687
0,000000	0,000000	0,000000	0,000000	2020-11-19T14:31:18:727
0,000000	0,000000	0,000000	0,000000	2020-11-19T14:31:18:844
0,000000	0,000000	0,000000	0,000000	2020-11-19T14:31:18:904
0,000000	0,000000	0,000000	0,000000	2020-11-19T14:31:18:904
0,000000	0,000000	0,000000	0,000000	2020-11-19T14:31:18:905
0,000000	0,000000	0,000000	0,000000	2020-11-19T14:31:18:932
0,000000	0,000000	0,000000	0,000000	2020-11-19T14:31:18:971
0,000000	0,000000	0,000000	0,000000	2020-11-19T14:31:19:011
0,000000	0,000000	0,000000	0,000000	2020-11-19T14:31:19:046
0,000000	0,000000	0,000000	0,000000	2020-11-19T14:31:19:087
0,000000	0,000000	0,000000	0,000000	2020-11-19T14:31:19:127
0,000000	0,000000	0,000000	0,000000	2020-11-19T14:31:19:165
0,000000	0,000000	0,000000	0,000000	2020-11-19T14:31:19:207
0,000000	0,000000	0,000000	0,000000	2020-11-19T14:31:19:246
0,000000	0,000000	0,000000	0,000000	2020-11-19T14:31:19:289
0,000000	0,000000	0,000000	0,000000	2020-11-19T14:31:19:328
0,000000	0,000000	0,000000	0,000000	2020-11-19T14:31:19:368
0,000000	0,000000	0,000000	0,000000	2020-11-19T14:31:19:408
0,000000	0,000000	0,000000	0,000000	2020-11-19T14:31:19:449
0,000000	0,000000	0,000000	0,000000	2020-11-19T14:31:19:488
0,000000	0,000000	0,000000	0,000000	2020-11-19T14:31:19:529
0,000000	0,000000	0,000000	0,000000	2020-11-19T14:31:19:568
0,000000	0,000000	0,000000	0,000000	2020-11-19T14:31:19:609
0,000000	0,000000	0,000000	0,000000	2020-11-19T14:31:19:648
0,000000	0,000000	0,000000	0,000000	2020-11-19T14:31:19:689
0,000000	0,000000	0,000000	0,000000	2020-11-19T14:31:19:728
0,000000	0,000000	0,000000	0,000000	2020-11-19T14:31:19:769
0,000000	0,000000	0,000000	0,000000	2020-11-19T14:31:19:809
0,000000	0,000000	0,000000	0,000000	2020-11-19T14:31:19:849
0,000000	0,000000	0,000000	0,000000	2020-11-19T14:31:19:888
0,000000	0,000000	0,000000	0,000000	2020-11-19T14:31:19:929
0,000000	0,000000	0,000000	0,000000	2020-11-19T14:31:19:969
0,000000	0,000000	0,000000	0,000000	2020-11-19T14:31:20:010
0,000000	0,000000	0,000000	0,000000	2020-11-19T14:31:20:049
0,000000	0,000000	0,000000	0,000000	2020-11-19T14:31:20:090
0,000000	0,000000	0,000000	0,000000	2020-11-19T14:31:20:129
0,000000	0,000000	0,000000	0,000000	2020-11-19T14:31:20:169
0,000000	0,000000	0,000000	0,000000	2020-11-19T14:31:20:209
0,000000	0,000000	0,000000	0,000000	2020-11-19T14:31:20:249
0,000000	0,000000	0,000000	0,000000	2020-11-19T14:31:20:289
0,000000	0,000000	0,000000	0,000000	2020-11-19T14:31:20:329
0,000000	0,000000	0,000000	0,000000	2020-11-19T14:31:20:369
0,000000	0,000000	0,000000	0,000000	2020-11-19T14:31:20:409
0,000000	0,000000	0,000000	0,000000	2020-11-19T14:31:20:449
0,000000	0,000000	0,000000	0,000000	2020-11-19T14:31:20:490
0,000000	0,000000	0,000000	0,000000	2020-11-19T14:31:20:528
0,000000	0,000000	0,000000	0,000000	2020-11-19T14:31:20:570
0,000000	0,000000	0,000000	0,000000	2020-11-19T14:31:20:609
0,000000	0,000000	0,000000	0,000000	2020-11-19T14:31:20:650
0,000000	0,000000	0,000000	0,000000	2020-11-19T14:31:20:690
0,000000	0,000000	0,000000	0,000000	2020-11-19T14:31:20:730
0,000000	0,000000	0,000000	0,000000	2020-11-19T14:31:20:769
0,000000	0,000000	0,000000	0,000000	2020-11-19T14:31:20:810
0,000000	0,000000	0,000000	0,000000	2020-11-19T14:31:20:849
0,000000	0,000000	0,000000	0,000000	2020-11-19T14:31:20:890
0,000000	0,000000	0,000000	0,000000	2020-11-19T14:31:20:930
0,000000	0,000000	0,000000	0,000000	2020-11-19T14:31:20:970
0,000000	0,000000	0,000000	0,000000	2020-11-19T14:31:21:009
0,000000	0,000000	0,000000	0,000000	2020-11-19T14:31:21:050
0,000000	0,000000	0,000000	0,000000	2020-11-19T14:31:21:090
0,000000	0,000000	0,000000	0,000000	2020-11-19T14:31:21:130
0,000000	0,000000	0,000000	0,000000	2020-11-19T14:31:21:170
0,000000	0,000000	0,000000	0,000000	2020-11-19T14:31:21:210
0,000000	0,000000	0,000000	0,000000	2020-11-19T14:31:21:249
0,000000	0,000000	0,000000	0,000000	2020-11-19T14:31:21:291
0,000000	0,000000	0,000000	0,000000	2020-11-19T14:31:21:330
0,000000	0,000000	0,000000	0,000000	2020-11-19T14:31:21:369
0,000000	0,000000	0,000000	0,000000	2020-11-19T14:31:21:409
0,000000	0,000000	0,000000	0,000000	2020-11-19T14:31:21:450
0,000000	0,000000	0,000000	0,000000	2020-11-19T14:31:21:489
0,000000	0,000000	0,000000	0,000000	2020-11-19T14:31:21:530
0,000000	0,000000	0,000000	0,000000	2020-11-19T14:31:21:569
0,000000	0,000000	0,000000	0,000000	2020-11-19T14:31:21:610
0,000000	0,000000	0,000000	0,000000	2020-11-19T14:31:21:650
0,000000	0,000000	0,000000	0,000000	2020-11-19T14:31:21:690
0,000000	0,000000	0,000000	0,000000	2020-11-19T14:31:21:729
0,000000	0,000000	0,000000	0,000000	2020-11-19T14:31:21:771
0,000000	0,000000	0,000000	0,000000	2020-11-19T14:31:21:809
0,000000	0,000000	0,000000	0,000000	2020-11-19T14:31:21:850
0,000000	0,000000	0,000000	0,000000	2020-11-19T14:31:21:890
0,000000	0,000000	0,000000	0,000000	2020-11-19T14:31:21:930
0,000000	0,000000	0,000000	0,000000	2020-11-19T14:31:21:969
0,000000	0,000000	0,000000	0,000000	2020-11-19T14:31:22:011
0,000000	0,000000	0,000000	0,000000	2020-11-19T14:31:22:051
0,000000	0,000000	0,000000	0,000000	2020-11-19T14:31:22:091
0,000000	0,000000	0,000000	0,000000	2020-11-19T14:31:22:130
0,000000	0,000000	0,000000	0,000000	2020-11-19T14:31:22:170
0,000000	0,000000	0,000000	0,000000	2020-11-19T14:31:22:209
0,000000	0,000000	0,000000	0,000000	2020-11-19T14:31:22:251
0,000000	0,000000	0,000000	0,000000	2020-11-19T14:31:22:290
0,000000	0,000000	0,000000	0,000000	2020-11-19T14:31:22:330
0,000000	0,000000	0,000000	0,000000	2020-11-19T14:31:22:370
0,000000	0,000000	0,000000	0,000000	2020-11-19T14:31:22:410
0,000000	0,000000	0,000000	0,000000	2020-11-19T14:31:22:449
0,000000	0,000000	0,000000	0,000000	2020-11-19T14:31:22:491
0,000000	0,000000	0,000000	0,000000	2020-11-19T14:31:22:531
0,000000	0,000000	0,000000	0,000000	2020-11-19T14:31:22:570
0,000000	0,000000	0,000000	0,000000	2020-11-19T14:31:22:611
0,000000	0,000000	0,000000	0,000000	2020-11-19T14:31:22:651
0,000000	0,000000	0,000000	0,000000	2020-11-19T14:31:22:692
0,000000	0,000000	0,000000	0,000000	2020-11-19T14:31:22:731
0,000000	0,000000	0,000000	0,000000	2020-11-19T14:31:22:770
0,000000	0,000000	0,000000	0,000000	2020-11-19T14:31:22:810
0,000000	0,000000	0,000000	0,000000	2020-11-19T14:31:22:850
0,000000	0,000000	0,000000	0,000000	2020-11-19T14:31:22:890
0,000000	0,000000	0,000000	0,000000	2020-11-19T14:31:22:931
0,000000	0,000000	0,000000	0,000000	2020-11-19T14:31:22:971
0,000000	0,000000	0,000000	0,000000	2020-11-19T14:31:23:010
0,000000	0,000000	0,000000	0,000000	2020-11-19T14:31:23:051
0,000000	0,000000	0,000000	0,000000	2020-11-19T14:31:23:091
0,000000	0,000000	0,000000	0,000000	2020-11-19T14:31:23:131
0,000000	0,000000	0,000000	0,000000	2020-11-19T14:31:23:170
0,000000	0,000000	0,000000	0,000000	2020-11-19T14:31:23:211
0,000000	0,000000	0,000000	0,000000	2020-11-19T14:31:23:250
0,000000	0,000000	0,000000	0,000000	2020-11-19T14:31:23:291
0,000000	0,000000	0,000000	0,000000	2020-11-19T14:31:23:331
0,000000	0,000000	0,000000	0,000000	2020-11-19T14:31:23:371
0,000000	0,000000	0,000000	0,000000	2020-11-19T14:31:23:410
0,000000	0,000000	0,000000	0,000000	2020-11-19T14:31:23:451
0,000000	0,000000	0,000000	0,000000	2020-11-19T14:31:23:491
0,000000	0,000000	0,000000	0,000000	2020-11-19T14:31:23:531
0,000000	0,000000	0,000000	0,000000	2020-11-19T14:31:23:570
0,000000	0,000000	0,000000	0,000000	2020-11-19T14:31:23:611
0,000000	0,000000	0,000000	0,000000	2020-11-19T14:31:23:650
0,000000	0,000000	0,000000	0,000000	2020-11-19T14:31:23:692
0,000000	0,000000	0,000000	0,000000	2020-11-19T14:31:23:730
0,000000	0,000000	0,000000	0,000000	2020-11-19T14:31:23:771
0,000000	0,000000	0,000000	0,000000	2020-11-19T14:31:23:812
0,000000	0,000000	0,000000	0,000000	2020-11-19T14:31:23:851
0,000000	0,000000	0,000000	0,000000	2020-11-19T14:31:23:891
0,000000	0,000000	0,000000	0,000000	2020-11-19T14:31:23:932
0,000000	0,000000	0,000000	0,000000	2020-11-19T14:31:23:971
0,000000	0,000000	0,000000	0,000000	2020-11-19T14:31:24:011
0,000000	0,000000	0,000000	0,000000	2020-11-19T14:31:24:051
0,000000	0,000000	0,000000	0,000000	2020-11-19T14:31:24:092
0,000000	0,000000	0,000000	0,000000	2020-11-19T14:31:24:131
0,000000	0,000000	0,000000	0,000000	2020-11-19T14:31:24:172
0,000000	0,000000	0,000000	0,000000	2020-11-19T14:31:24:211
0,000000	0,000000	0,000000	0,000000	2020-11-19T14:31:24:263
0,000000	0,000000	0,000000	0,000000	2020-11-19T14:31:24:292
0,000000	0,000000	0,000000	0,000000	2020-11-19T14:31:24:332
0,000000	0,000000	0,000000	0,000000	2020-11-19T14:31:24:371
0,000000	0,000000	0,000000	0,000000	2020-11-19T14:31:24:412
0,000000	0,000000	0,000000	0,000000	2020-11-19T14:31:24:451
0,000000	0,000000	0,000000	0,000000	2020-11-19T14:31:24:492
0,000000	0,000000	0,000000	0,000000	2020-11-19T14:31:24:532
0,000000	0,000000	0,000000	0,000000	2020-11-19T14:31:24:572
0,000000	0,000000	0,000000	0,000000	2020-11-19T14:31:24:611
0,000000	0,000000	0,000000	0,000000	2020-11-19T14:31:24:653
0,000000	0,000000	0,000000	0,000000	2020-11-19T14:31:24:692
0,000000	0,000000	0,000000	0,000000	2020-11-19T14:31:24:732
0,000000	0,000000	0,000000	0,000000	2020-11-19T14:31:24:772
0,000000	0,000000	0,000000	0,000000	2020-11-19T14:31:24:811
0,000000	0,000000	0,000000	0,000000	2020-11-19T14:31:24:852
0,000000	0,000000	0,000000	0,000000	2020-11-19T14:31:24:893
0,000000	0,000000	0,000000	0,000000	2020-11-19T14:31:24:932
0,000000	0,000000	0,000000	0,000000	2020-11-19T14:31:24:972
0,000000	0,000000	0,000000	0,000000	2020-11-19T14:31:25:012
0,000000	0,000000	0,000000	0,000000	2020-11-19T14:31:25:053
0,000000	0,000000	0,000000	0,000000	2020-11-19T14:31:25:092
0,000000	0,000000	0,000000	0,000000	2020-11-19T14:31:25:133
0,000000	0,000000	0,000000	0,000000	2020-11-19T14:31:25:172
0,000000	0,000000	0,000000	0,000000	2020-11-19T14:31:25:213
0,000000	0,000000	0,000000	0,000000	2020-11-19T14:31:25:252
0,000000	0,000000	0,000000	0,000000	2020-11-19T14:31:25:293
0,000000	0,000000	0,000000	0,000000	2020-11-19T14:31:25:332
0,000000	0,000000	0,000000	0,000000	2020-11-19T14:31:25:373
0,000000	0,000000	0,000000	0,000000	2020-11-19T14:31:25:412
0,000000	0,000000	0,000000	0,000000	2020-11-19T14:31:25:453
0,000000	0,000000	0,000000	0,000000	2020-11-19T14:31:25:493
0,000000	0,000000	0,000000	0,000000	2020-11-19T14:31:25:533
0,000000	0,000000	0,000000	0,000000	2020-11-19T14:31:25:572
0,000000	0,000000	0,000000	0,000000	2020-11-19T14:31:25:613
0,000000	0,000000	0,000000	0,000000	2020-11-19T14:31:25:653
0,000000	0,000000	0,000000	0,000000	2020-11-19T14:31:25:693
0,000000	0,000000	0,000000	0,000000	2020-11-19T14:31:25:733
0,000000	0,000000	0,000000	0,000000	2020-11-19T14:31:25:773
0,000000	0,000000	0,000000	0,000000	2020-11-19T14:31:25:812
0,000000	0,000000	0,000000	0,000000	2020-11-19T14:31:25:853
0,000000	0,000000	0,000000	0,000000	2020-11-19T14:31:25:893
0,000000	0,000000	0,000000	0,000000	2020-11-19T14:31:25:933
0,000000	0,000000	0,000000	0,000000	2020-11-19T14:31:25:973
0,000000	0,000000	0,000000	0,000000	2020-11-19T14:31:26:014
0,000000	0,000000	0,000000	0,000000	2020-11-19T14:31:26:053
0,000000	0,000000	0,000000	0,000000	2020-11-19T14:31:26:094
0,000000	0,000000	0,000000	0,000000	2020-11-19T14:31:26:133
0,000000	0,000000	0,000000	0,000000	2020-11-19T14:31:26:173
0,000000	0,000000	0,000000	0,000000	2020-11-19T14:31:26:213
0,000000	0,000000	0,000000	0,000000	2020-11-19T14:31:26:254
0,000000	0,000000	0,000000	0,000000	2020-11-19T14:31:26:293
0,000000	0,000000	0,000000	0,000000	2020-11-19T14:31:26:334
0,000000	0,000000	0,000000	0,000000	2020-11-19T14:31:26:373
0,000000	0,000000	0,000000	0,000000	2020-11-19T14:31:26:414
0,000000	0,000000	0,000000	0,000000	2020-11-19T14:31:26:453
0,000000	0,000000	0,000000	0,000000	2020-11-19T14:31:26:494
0,000000	0,000000	0,000000	0,000000	2020-11-19T14:31:26:533
0,000000	0,000000	0,000000	0,000000	2020-11-19T14:31:26:574
0,000000	0,000000	0,000000	0,000000	2020-11-19T14:31:26:613
0,000000	0,000000	0,000000	0,000000	2020-11-19T14:31:26:654
0,000000	0,000000	0,000000	0,000000	2020-11-19T14:31:26:694
0,000000	0,000000	0,000000	0,000000	2020-11-19T14:31:26:734
0,000000	0,000000	0,000000	0,000000	2020-11-19T14:31:26:773
0,000000	0,000000	0,000000	0,000000	2020-11-19T14:31:26:815
0,000000	0,000000	0,000000	0,000000	2020-11-19T14:31:26:854
0,000000	0,000000	0,000000	0,000000	2020-11-19T14:31:26:895
0,000000	0,000000	0,000000	0,000000	2020-11-19T14:31:26:935
0,000000	0,000000	0,000000	0,000000	2020-11-19T14:31:26:975
0,000000	0,000000	0,000000	0,000000	2020-11-19T14:31:27:014
0,000000	0,000000	0,000000	0,000000	2020-11-19T14:31:27:055
0,000000	0,000000	0,000000	0,000000	2020-11-19T14:31:27:094
0,000000	0,000000	0,000000	0,000000	2020-11-19T14:31:27:135
0,000000	0,000000	0,000000	0,000000	2020-11-19T14:31:27:174
0,000000	0,000000	0,000000	0,000000	2020-11-19T14:31:27:215
0,000000	0,000000	0,000000	0,000000	2020-11-19T14:31:27:254
0,000000	0,000000	0,000000	0,000000	2020-11-19T14:31:27:295
0,000000	0,000000	0,000000	0,000000	2020-11-19T14:31:27:334
0,000000	0,000000	0,000000	0,000000	2020-11-19T14:31:27:375
0,000000	0,000000	0,000000	0,000000	2020-11-19T14:31:27:414
0,000000	0,000000	0,000000	0,000000	2020-11-19T14:31:27:455
0,000000	0,000000	0,000000	0,000000	2020-11-19T14:31:27:496
0,000000	0,000000	0,000000	0,000000	2020-11-19T14:31:27:535
0,000000	0,000000	0,000000	0,000000	2020-11-19T14:31:27:574
0,000000	0,000000	0,000000	0,000000	2020-11-19T14:31:27:616
0,000000	0,000000	0,000000	0,000000	2020-11-19T14:31:27:655
0,000000	0,000000	0,000000	0,000000	2020-11-19T14:31:27:695
0,000000	0,000000	0,000000	0,000000	2020-11-19T14:31:27:734
0,000000	0,000000	0,000000	0,000000	2020-11-19T14:31:27:775
0,000000	0,000000	0,000000	0,000000	2020-11-19T14:31:27:814
0,000000	0,000000	0,000000	0,000000	2020-11-19T14:31:27:855
0,000000	0,000000	0,000000	0,000000	2020-11-19T14:31:27:895
0,000000	0,000000	0,000000	0,000000	2020-11-19T14:31:27:935
0,000000	0,000000	0,000000	0,000000	2020-11-19T14:31:27:974
0,000000	0,000000	0,000000	0,000000	2020-11-19T14:31:28:016
0,000000	0,000000	0,000000	0,000000	2020-11-19T14:31:28:055
0,000000	0,000000	0,000000	0,000000	2020-11-19T14:31:28:096
0,000000	0,000000	0,000000	0,000000	2020-11-19T14:31:28:135
0,000000	0,000000	0,000000	0,000000	2020-11-19T14:31:28:175
0,000000	0,000000	0,000000	0,000000	2020-11-19T14:31:28:215
0,000000	0,000000	0,000000	0,000000	2020-11-19T14:31:28:256
0,000000	0,000000	0,000000	0,000000	2020-11-19T14:31:28:295
0,000000	0,000000	0,000000	0,000000	2020-11-19T14:31:28:336
0,000000	0,000000	0,000000	0,000000	2020-11-19T14:31:28:375
0,000000	0,000000	0,000000	0,000000	2020-11-19T14:31:28:416
0,000000	0,000000	0,000000	0,000000	2020-11-19T14:31:28:455
0,000000	0,000000	0,000000	0,000000	2020-11-19T14:31:28:496
0,000000	0,000000	0,000000	0,000000	2020-11-19T14:31:28:535
0,000000	0,000000	0,000000	0,000000	2020-11-19T14:31:28:576
0,000000	0,000000	0,000000	0,000000	2020-11-19T14:31:28:616
0,000000	0,000000	0,000000	0,000000	2020-11-19T14:31:28:656
0,000000	0,000000	0,000000	0,000000	2020-11-19T14:31:28:695
0,000000	0,000000	0,000000	0,000000	2020-11-19T14:31:28:736
0,000000	0,000000	0,000000	0,000000	2020-11-19T14:31:28:775
0,000000	0,000000	0,000000	0,000000	2020-11-19T14:31:28:816
0,000000	0,000000	0,000000	0,000000	2020-11-19T14:31:28:856
0,000000	0,000000	0,000000	0,000000	2020-11-19T14:31:28:897
0,000000	0,000000	0,000000	0,000000	2020-11-19T14:31:28:936
0,000000	0,000000	0,000000	0,000000	2020-11-19T14:31:28:978
0,000000	0,000000	0,000000	0,000000	2020-11-19T14:31:29:016
0,000000	0,000000	0,000000	0,000000	2020-11-19T14:31:29:056
0,000000	0,000000	0,000000	0,000000	2020-11-19T14:31:29:096
0,000000	0,000000	0,000000	0,000000	2020-11-19T14:31:29:136
0,000000	0,000000	0,000000	0,000000	2020-11-19T14:31:29:176
0,000000	0,000000	0,000000	0,000000	2020-11-19T14:31:29:217
0,000000	0,000000	0,000000	0,000000	2020-11-19T14:31:29:256
0,000000	0,000000	0,000000	0,000000	2020-11-19T14:31:29:297
0,000000	0,000000	0,000000	0,000000	2020-11-19T14:31:29:336
0,000000	0,000000	0,000000	0,000000	2020-11-19T14:31:29:376
0,000000	0,000000	0,000000	0,000000	2020-11-19T14:31:29:416
0,000000	0,000000	0,000000	0,000000	2020-11-19T14:31:29:457
0,000000	0,000000	0,000000	0,000000	2020-11-19T14:31:29:496
0,000000	0,000000	0,000000	0,000000	2020-11-19T14:31:29:537
0,000000	0,000000	0,000000	0,000000	2020-11-19T14:31:29:576
0,000000	0,000000	0,000000	0,000000	2020-11-19T14:31:29:617
0,000000	0,000000	0,000000	0,000000	2020-11-19T14:31:29:656
0,000000	0,000000	0,000000	0,000000	2020-11-19T14:31:29:698
0,000000	0,000000	0,000000	0,000000	2020-11-19T14:31:29:736
0,000000	0,000000	0,000000	0,000000	2020-11-19T14:31:29:777
0,000000	0,000000	0,000000	0,000000	2020-11-19T14:31:29:817
0,000000	0,000000	0,000000	0,000000	2020-11-19T14:31:29:857
0,000000	0,000000	0,000000	0,000000	2020-11-19T14:31:29:897
0,000000	0,000000	0,000000	0,000000	2020-11-19T14:31:29:937
0,000000	0,000000	0,000000	0,000000	2020-11-19T14:31:29:978
0,000000	0,000000	0,000000	0,000000	2020-11-19T14:31:30:017
0,000000	0,000000	0,000000	0,000000	2020-11-19T14:31:30:057
0,000000	0,000000	0,000000	0,000000	2020-11-19T14:31:30:097
0,000000	0,000000	0,000000	0,000000	2020-11-19T14:31:30:137
0,000000	0,000000	0,000000	0,000000	2020-11-19T14:31:30:178
0,000000	0,000000	0,000000	0,000000	2020-11-19T14:31:30:217
0,000000	0,000000	0,000000	0,000000	2020-11-19T14:31:30:257
0,000000	0,000000	0,000000	0,000000	2020-11-19T14:31:30:298
0,000000	0,000000	0,000000	0,000000	2020-11-19T14:31:30:337
0,000000	0,000000	0,000000	0,000000	2020-11-19T14:31:30:376
0,000000	0,000000	0,000000	0,000000	2020-11-19T14:31:30:417
0,000000	0,000000	0,000000	0,000000	2020-11-19T14:31:30:457
0,000000	0,000000	0,000000	0,000000	2020-11-19T14:31:30:498
0,000000	0,000000	0,000000	0,000000	2020-11-19T14:31:30:537
0,000000	0,000000	0,000000	0,000000	2020-11-19T14:31:30:578
0,000000	0,000000	0,000000	0,000000	2020-11-19T14:31:30:617
0,000000	0,000000	0,000000	0,000000	2020-11-19T14:31:30:658
0,000000	0,000000	0,000000	0,000000	2020-11-19T14:31:30:697
0,000000	0,000000	0,000000	0,000000	2020-11-19T14:31:30:738
0,000000	0,000000	0,000000	0,000000	2020-11-19T14:31:30:777
0,000000	0,000000	0,000000	0,000000	2020-11-19T14:31:30:818
0,000000	0,000000	0,000000	0,000000	2020-11-19T14:31:30:857
0,000000	0,000000	0,000000	0,000000	2020-11-19T14:31:30:899
0,000000	0,000000	0,000000	0,000000	2020-11-19T14:31:30:938
0,000000	0,000000	0,000000	0,000000	2020-11-19T14:31:30:980
0,000000	0,000000	0,000000	0,000000	2020-11-19T14:31:31:018
0,000000	0,000000	0,000000	0,000000	2020-11-19T14:31:31:058
0,000000	0,000000	0,000000	0,000000	2020-11-19T14:31:31:098
0,000000	0,000000	0,000000	0,000000	2020-11-19T14:31:31:139
0,000000	0,000000	0,000000	0,000000	2020-11-19T14:31:31:178
0,000000	0,000000	0,000000	0,000000	2020-11-19T14:31:31:218
0,000000	0,000000	0,000000	0,000000	2020-11-19T14:31:31:258
0,000000	0,000000	0,000000	0,000000	2020-11-19T14:31:31:299
0,000000	0,000000	0,000000	0,000000	2020-11-19T14:31:31:337
0,000000	0,000000	0,000000	0,000000	2020-11-19T14:31:31:379
0,000000	0,000000	0,000000	0,000000	2020-11-19T14:31:31:418
0,000000	0,000000	0,000000	0,000000	2020-11-19T14:31:31:459
0,000000	0,000000	0,000000	0,000000	2020-11-19T14:31:31:499
0,000000	0,000000	0,000000	0,000000	2020-11-19T14:31:31:539
0,000000	0,000000	0,000000	0,000000	2020-11-19T14:31:31:578
0,000000	0,000000	0,000000	0,000000	2020-11-19T14:31:31:619
0,000000	0,000000	0,000000	0,000000	2020-11-19T14:31:31:658
0,000000	0,000000	0,000000	0,000000	2020-11-19T14:31:31:699
0,000000	0,000000	0,000000	0,000000	2020-11-19T14:31:31:739
0,000000	0,000000	0,000000	0,000000	2020-11-19T14:31:31:779
0,000000	0,000000	0,000000	0,000000	2020-11-19T14:31:31:818
0,000000	0,000000	0,000000	0,000000	2020-11-19T14:31:31:859
0,000000	0,000000	0,000000	0,000000	2020-11-19T14:31:31:899
0,000000	0,000000	0,000000	0,000000	2020-11-19T14:31:31:939
0,000000	0,000000	0,000000	0,000000	2020-11-19T14:31:31:979
0,000000	0,000000	0,000000	0,000000	2020-11-19T14:31:32:019
0,000000	0,000000	0,000000	0,000000	2020-11-19T14:31:32:059
0,000000	0,000000	0,000000	0,000000	2020-11-19T14:31:32:100
0,000000	0,000000	0,000000	0,000000	2020-11-19T14:31:32:139
0,000000	0,000000	0,000000	0,000000	2020-11-19T14:31:32:179
0,000000	0,000000	0,000000	0,000000	2020-11-19T14:31:32:219
0,000000	0,000000	0,000000	0,000000	2020-11-19T14:31:32:260
0,000000	0,000000	0,000000	0,000000	2020-11-19T14:31:32:299
0,000000	0,000000	0,000000	0,000000	2020-11-19T14:31:32:340
0,000000	0,000000	0,000000	0,000000	2020-11-19T14:31:32:379
0,000000	0,000000	0,000000	0,000000	2020-11-19T14:31:32:420
0,000000	0,000000	0,000000	0,000000	2020-11-19T14:31:32:459
0,000000	0,000000	0,000000	0,000000	2020-11-19T14:31:32:500
0,000000	0,000000	0,000000	0,000000	2020-11-19T14:31:32:539
0,000000	0,000000	0,000000	0,000000	2020-11-19T14:31:32:580
0,000000	0,000000	0,000000	0,000000	2020-11-19T14:31:32:620
0,000000	0,000000	0,000000	0,000000	2020-11-19T14:31:32:660
0,000000	0,000000	0,000000	0,000000	2020-11-19T14:31:32:700
0,000000	0,000000	0,000000	0,000000	2020-11-19T14:31:32:740
0,000000	0,000000	0,000000	0,000000	2020-11-19T14:31:32:779
0,000000	0,000000	0,000000	0,000000	2020-11-19T14:31:32:820
0,000000	0,000000	0,000000	0,000000	2020-11-19T14:31:32:859
0,000000	0,000000	0,000000	0,000000	2020-11-19T14:31:32:900
0,000000	0,000000	0,000000	0,000000	2020-11-19T14:31:32:940
0,000000	0,000000	0,000000	0,000000	2020-11-19T14:31:32:980
0,000000	0,000000	0,000000	0,000000	2020-11-19T14:31:33:019
0,000000	0,000000	0,000000	0,000000	2020-11-19T14:31:33:060
0,000000	0,000000	0,000000	0,000000	2020-11-19T14:31:33:100
0,000000	0,000000	0,000000	0,000000	2020-11-19T14:31:33:140
0,000000	0,000000	0,000000	0,000000	2020-11-19T14:31:33:180
0,000000	0,000000	0,000000	0,000000	2020-11-19T14:31:33:220
0,000000	0,000000	0,000000	0,000000	2020-11-19T14:31:33:260
0,000000	0,000000	0,000000	0,000000	2020-11-19T14:31:33:301
0,000000	0,000000	0,000000	0,000000	2020-11-19T14:31:33:340
0,000000	0,000000	0,000000	0,000000	2020-11-19T14:31:33:381
0,000000	0,000000	0,000000	0,000000	2020-11-19T14:31:33:420
0,000000	0,000000	0,000000	0,000000	2020-11-19T14:31:33:461
0,000000	0,000000	0,000000	0,000000	2020-11-19T14:31:33:500
0,000000	0,000000	0,000000	0,000000	2020-11-19T14:31:33:541
0,000000	0,000000	0,000000	0,000000	2020-11-19T14:31:33:580
0,000000	0,000000	0,000000	0,000000	2020-11-19T14:31:33:621
0,000000	0,000000	0,000000	0,000000	2020-11-19T14:31:33:660
0,000000	0,000000	0,000000	0,000000	2020-11-19T14:31:33:701
0,000000	0,000000	0,000000	0,000000	2020-11-19T14:31:33:740
0,000000	0,000000	0,000000	0,000000	2020-11-19T14:31:33:781
0,000000	0,000000	0,000000	0,000000	2020-11-19T14:31:33:820
0,000000	0,000000	0,000000	0,000000	2020-11-19T14:31:33:861
0,000000	0,000000	0,000000	0,000000	2020-11-19T14:31:33:901
0,000000	0,000000	0,000000	0,000000	2020-11-19T14:31:33:941
0,000000	0,000000	0,000000	0,000000	2020-11-19T14:31:33:980
0,000000	0,000000	0,000000	0,000000	2020-11-19T14:31:34:021
0,000000	0,000000	0,000000	0,000000	2020-11-19T14:31:34:060
0,000000	0,000000	0,000000	0,000000	2020-11-19T14:31:34:101
0,000000	0,000000	0,000000	0,000000	2020-11-19T14:31:34:141
0,000000	0,000000	0,000000	0,000000	2020-11-19T14:31:34:181
0,000000	0,000000	0,000000	0,000000	2020-11-19T14:31:34:221
0,000000	0,000000	0,000000	0,000000	2020-11-19T14:31:34:262
0,000000	0,000000	0,000000	0,000000	2020-11-19T14:31:34:301
0,000000	0,000000	0,000000	0,000000	2020-11-19T14:31:34:342
0,000000	0,000000	0,000000	0,000000	2020-11-19T14:31:34:381
0,000000	0,000000	0,000000	0,000000	2020-11-19T14:31:34:422
0,000000	0,000000	0,000000	0,000000	2020-11-19T14:31:34:461
0,000000	0,000000	0,000000	0,000000	2020-11-19T14:31:34:502
0,000000	0,000000	0,000000	0,000000	2020-11-19T14:31:34:541
0,000000	0,000000	0,000000	0,000000	2020-11-19T14:31:34:582
0,000000	0,000000	0,000000	0,000000	2020-11-19T14:31:34:621
0,000000	0,000000	0,000000	0,000000	2020-11-19T14:31:34:662
0,000000	0,000000	0,000000	0,000000	2020-11-19T14:31:34:701
0,000000	0,000000	0,000000	0,000000	2020-11-19T14:31:34:743
0,000000	0,000000	0,000000	0,000000	2020-11-19T14:31:34:781
0,000000	0,000000	0,000000	0,000000	2020-11-19T14:31:34:822
0,000000	0,000000	0,000000	0,000000	2020-11-19T14:31:34:862
0,000000	0,000000	0,000000	0,000000	2020-11-19T14:31:34:902
0,000000	0,000000	0,000000	0,000000	2020-11-19T14:31:34:942
0,000000	0,000000	0,000000	0,000000	2020-11-19T14:31:34:982
0,000000	0,000000	0,000000	0,000000	2020-11-19T14:31:35:053
0,000000	0,000000	0,000000	0,000000	2020-11-19T14:31:35:076
0,000000	0,000000	0,000000	0,000000	2020-11-19T14:31:35:103
0,000000	0,000000	0,000000	0,000000	2020-11-19T14:31:35:148
0,000000	0,000000	0,000000	0,000000	2020-11-19T14:31:35:183
0,000000	0,000000	0,000000	0,000000	2020-11-19T14:31:35:323
0,000000	0,000000	0,000000	0,000000	2020-11-19T14:31:35:325
0,000000	0,000000	0,000000	0,000000	2020-11-19T14:31:35:326
0,000000	0,000000	0,000000	0,000000	2020-11-19T14:31:35:342
0,000000	0,000000	0,000000	0,000000	2020-11-19T14:31:35:382
0,000000	0,000000	0,000000	0,000000	2020-11-19T14:31:35:421
0,000000	0,000000	0,000000	0,000000	2020-11-19T14:31:35:463
0,000000	0,000000	0,000000	0,000000	2020-11-19T14:31:35:503
0,000000	0,000000	0,000000	0,000000	2020-11-19T14:31:35:544
0,000000	0,000000	0,000000	0,000000	2020-11-19T14:31:35:583
0,000000	0,000000	0,000000	0,000000	2020-11-19T14:31:35:623
0,000000	0,000000	0,000000	0,000000	2020-11-19T14:31:35:666
0,000000	0,000000	0,000000	0,000000	2020-11-19T14:31:35:703
0,000000	0,000000	0,000000	0,000000	2020-11-19T14:31:35:742
0,000000	0,000000	0,000000	0,000000	2020-11-19T14:31:35:783
0,000000	0,000000	0,000000	0,000000	2020-11-19T14:31:35:823
0,000000	0,000000	0,000000	0,000000	2020-11-19T14:31:35:863
0,000000	0,000000	0,000000	0,000000	2020-11-19T14:31:35:903
0,000000	0,000000	0,000000	0,000000	2020-11-19T14:31:35:943
0,000000	0,000000	0,000000	0,000000	2020-11-19T14:31:35:982
0,000000	0,000000	0,000000	0,000000	2020-11-19T14:31:36:023
0,000000	0,000000	0,000000	0,000000	2020-11-19T14:31:36:074
0,000000	0,000000	0,000000	0,000000	2020-11-19T14:31:36:104
0,000000	0,000000	0,000000	0,000000	2020-11-19T14:31:36:143
0,000000	0,000000	0,000000	0,000000	2020-11-19T14:31:36:183
0,000000	0,000000	0,000000	0,000000	2020-11-19T14:31:36:223
0,000000	0,000000	0,000000	0,000000	2020-11-19T14:31:36:264
0,000000	0,000000	0,000000	0,000000	2020-11-19T14:31:36:303
0,000000	0,000000	0,000000	0,000000	2020-11-19T14:31:36:343
0,000000	0,000000	0,000000	0,000000	2020-11-19T14:31:36:383
0,000000	0,000000	0,000000	0,000000	2020-11-19T14:31:36:423
0,000000	0,000000	0,000000	0,000000	2020-11-19T14:31:36:463
0,000000	0,000000	0,000000	0,000000	2020-11-19T14:31:36:504
0,000000	0,000000	0,000000	0,000000	2020-11-19T14:31:36:543
0,000000	0,000000	0,000000	0,000000	2020-11-19T14:31:36:584
0,000000	0,000000	0,000000	0,000000	2020-11-19T14:31:36:623
0,000000	0,000000	0,000000	0,000000	2020-11-19T14:31:36:664
0,000000	0,000000	0,000000	0,000000	2020-11-19T14:31:36:703
0,000000	0,000000	0,000000	0,000000	2020-11-19T14:31:36:744
0,000000	0,000000	0,000000	0,000000	2020-11-19T14:31:36:783
0,000000	0,000000	0,000000	0,000000	2020-11-19T14:31:36:824
0,000000	0,000000	0,000000	0,000000	2020-11-19T14:31:36:863
0,000000	0,000000	0,000000	0,000000	2020-11-19T14:31:36:905
0,000000	0,000000	0,000000	0,000000	2020-11-19T14:31:36:943
0,000000	0,000000	0,000000	0,000000	2020-11-19T14:31:36:985
0,000000	0,000000	0,000000	0,000000	2020-11-19T14:31:37:028
0,000000	0,000000	0,000000	0,000000	2020-11-19T14:31:37:065
0,000000	0,000000	0,000000	0,000000	2020-11-19T14:31:37:104
0,000000	0,000000	0,000000	0,000000	2020-11-19T14:31:37:145
0,000000	0,000000	0,000000	0,000000	2020-11-19T14:31:37:184
0,000000	0,000000	0,000000	0,000000	2020-11-19T14:31:37:225
0,000000	0,000000	0,000000	0,000000	2020-11-19T14:31:37:264
0,000000	0,000000	0,000000	0,000000	2020-11-19T14:31:37:304
0,000000	0,000000	0,000000	0,000000	2020-11-19T14:31:37:343
0,000000	0,000000	0,000000	0,000000	2020-11-19T14:31:37:385
0,000000	0,000000	0,000000	0,000000	2020-11-19T14:31:37:424
0,000000	0,000000	0,000000	0,000000	2020-11-19T14:31:37:464
0,000000	0,000000	0,000000	0,000000	2020-11-19T14:31:37:504
0,000000	0,000000	0,000000	0,000000	2020-11-19T14:31:37:544
0,000000	0,000000	0,000000	0,000000	2020-11-19T14:31:37:583
0,000000	0,000000	0,000000	0,000000	2020-11-19T14:31:37:625
0,000000	0,000000	0,000000	0,000000	2020-11-19T14:31:37:664
83,000000	0,000000	0,000000	0,000000	2020-11-19T14:31:37:705
83,000000	0,000000	0,000000	0,000000	2020-11-19T14:31:37:744
83,000000	0,000000	0,000000	0,000000	2020-11-19T14:31:37:783
83,000000	0,000000	0,000000	0,000000	2020-11-19T14:31:37:827
83,000000	0,000000	0,000000	0,000000	2020-11-19T14:31:37:865
83,000000	0,000000	0,000000	0,000000	2020-11-19T14:31:37:904
83,000000	0,000000	0,000000	0,000000	2020-11-19T14:31:37:944
83,000000	0,000000	0,000000	0,000000	2020-11-19T14:31:37:984
83,000000	0,000000	0,000000	0,000000	2020-11-19T14:31:38:024
83,000000	0,000000	0,000000	0,000000	2020-11-19T14:31:38:064
83,000000	0,000000	0,000000	0,000000	2020-11-19T14:31:38:105
83,000000	0,000000	0,000000	0,000000	2020-11-19T14:31:38:144
83,000000	0,000000	0,000000	0,000000	2020-11-19T14:31:38:184
83,000000	0,000000	0,000000	0,000000	2020-11-19T14:31:38:224
83,000000	0,000000	0,000000	0,000000	2020-11-19T14:31:38:264
83,000000	0,000000	0,000000	0,000000	2020-11-19T14:31:38:305
83,000000	0,000000	0,000000	0,000000	2020-11-19T14:31:38:345
83,000000	0,000000	0,000000	0,000000	2020-11-19T14:31:38:384
83,000000	0,000000	0,000000	0,000000	2020-11-19T14:31:38:425
83,000000	0,000000	0,000000	0,000000	2020-11-19T14:31:38:465
83,000000	0,000000	0,000000	0,000000	2020-11-19T14:31:38:505
83,000000	0,000000	0,000000	0,000000	2020-11-19T14:31:38:545
83,000000	0,000000	0,000000	0,000000	2020-11-19T14:31:38:584
83,000000	0,000000	0,000000	0,000000	2020-11-19T14:31:38:624
83,000000	0,000000	0,000000	0,000000	2020-11-19T14:31:38:665
83,000000	0,000000	0,000000	0,000000	2020-11-19T14:31:38:705
83,000000	0,000000	0,000000	0,000000	2020-11-19T14:31:38:745
83,000000	0,000000	0,000000	0,000000	2020-11-19T14:31:38:785
83,000000	0,000000	0,000000	0,000000	2020-11-19T14:31:38:825
83,000000	0,000000	0,000000	0,000000	2020-11-19T14:31:38:865
83,000000	0,000000	0,000000	0,000000	2020-11-19T14:31:38:906
83,000000	0,000000	0,000000	0,000000	2020-11-19T14:31:38:946
83,000000	0,000000	0,000000	0,000000	2020-11-19T14:31:38:985
83,000000	0,000000	0,000000	0,000000	2020-11-19T14:31:39:025
83,000000	0,000000	0,000000	0,000000	2020-11-19T14:31:39:066
83,000000	0,000000	0,000000	0,000000	2020-11-19T14:31:39:105
83,000000	0,000000	0,000000	0,000000	2020-11-19T14:31:39:145
83,000000	0,000000	0,000000	0,000000	2020-11-19T14:31:39:186
83,000000	0,000000	0,000000	0,000000	2020-11-19T14:31:39:225
83,000000	0,000000	0,000000	0,000000	2020-11-19T14:31:39:265
83,000000	0,000000	0,000000	0,000000	2020-11-19T14:31:39:306
83,000000	0,000000	0,000000	0,000000	2020-11-19T14:31:39:346
83,000000	0,000000	0,000000	0,000000	2020-11-19T14:31:39:386
83,000000	0,000000	0,000000	0,000000	2020-11-19T14:31:39:426
83,000000	0,000000	0,000000	0,000000	2020-11-19T14:31:39:465
83,000000	0,000000	0,000000	0,000000	2020-11-19T14:31:39:506
83,000000	0,000000	0,000000	0,000000	2020-11-19T14:31:39:546
83,000000	0,000000	0,000000	0,000000	2020-11-19T14:31:39:586
83,000000	0,000000	0,000000	0,000000	2020-11-19T14:31:39:626
83,000000	0,000000	0,000000	0,000000	2020-11-19T14:31:39:666
83,000000	0,000000	0,000000	0,000000	2020-11-19T14:31:39:706
83,000000	0,000000	0,000000	0,000000	2020-11-19T14:31:39:746
83,000000	0,000000	0,000000	0,000000	2020-11-19T14:31:39:786
83,000000	0,000000	0,000000	0,000000	2020-11-19T14:31:39:826
83,000000	0,000000	0,000000	0,000000	2020-11-19T14:31:39:867
83,000000	0,000000	0,000000	0,000000	2020-11-19T14:31:39:907
83,000000	0,000000	0,000000	0,000000	2020-11-19T14:31:39:946
83,000000	0,000000	0,000000	0,000000	2020-11-19T14:31:39:986
83,000000	0,000000	0,000000	0,000000	2020-11-19T14:31:40:026
83,000000	0,000000	0,000000	0,000000	2020-11-19T14:31:40:066
83,000000	0,000000	0,000000	0,000000	2020-11-19T14:31:40:107
83,000000	0,000000	0,000000	0,000000	2020-11-19T14:31:40:147
83,000000	0,000000	0,000000	0,000000	2020-11-19T14:31:40:194
83,000000	0,000000	0,000000	0,000000	2020-11-19T14:31:40:227
83,000000	0,000000	0,000000	0,000000	2020-11-19T14:31:40:267
83,000000	0,000000	0,000000	0,000000	2020-11-19T14:31:40:307
83,000000	0,000000	785,000000	0,000000	2020-11-19T14:31:40:347
83,000000	0,000000	785,000000	0,000000	2020-11-19T14:31:40:389
83,000000	0,000000	785,000000	0,000000	2020-11-19T14:31:40:426
83,000000	0,000000	785,000000	0,000000	2020-11-19T14:31:40:466
83,000000	0,000000	785,000000	0,000000	2020-11-19T14:31:40:509
83,000000	0,000000	785,000000	0,000000	2020-11-19T14:31:40:546
83,000000	0,000000	785,000000	0,000000	2020-11-19T14:31:40:587
83,000000	0,000000	785,000000	0,000000	2020-11-19T14:31:40:627
83,000000	0,000000	785,000000	0,000000	2020-11-19T14:31:40:666
83,000000	0,000000	785,000000	0,000000	2020-11-19T14:31:40:707
83,000000	0,000000	785,000000	0,000000	2020-11-19T14:31:40:747
83,000000	0,000000	785,000000	0,000000	2020-11-19T14:31:40:787
83,000000	0,000000	785,000000	0,000000	2020-11-19T14:31:40:827
83,000000	0,000000	785,000000	0,000000	2020-11-19T14:31:40:868
83,000000	0,000000	785,000000	0,000000	2020-11-19T14:31:40:907
83,000000	0,000000	785,000000	0,000000	2020-11-19T14:31:40:948
83,000000	0,000000	785,000000	0,000000	2020-11-19T14:31:40:987
83,000000	0,000000	785,000000	0,000000	2020-11-19T14:31:41:027
83,000000	0,000000	793,000000	0,000000	2020-11-19T14:31:41:067
83,000000	0,000000	793,000000	0,000000	2020-11-19T14:31:41:108
83,000000	0,000000	793,000000	0,000000	2020-11-19T14:31:41:147
83,000000	0,000000	793,000000	0,000000	2020-11-19T14:31:41:187
83,000000	0,000000	793,000000	0,000000	2020-11-19T14:31:41:228
83,000000	0,000000	793,000000	0,000000	2020-11-19T14:31:41:267
83,000000	0,000000	793,000000	0,000000	2020-11-19T14:31:41:308
83,000000	0,000000	793,000000	0,000000	2020-11-19T14:31:41:348
83,000000	0,000000	793,000000	0,000000	2020-11-19T14:31:41:388
83,000000	0,000000	793,000000	0,000000	2020-11-19T14:31:41:427
83,000000	0,000000	793,000000	0,000000	2020-11-19T14:31:41:467
83,000000	0,000000	793,000000	0,000000	2020-11-19T14:31:41:508
83,000000	0,000000	793,000000	0,000000	2020-11-19T14:31:41:548
83,000000	0,000000	793,000000	0,000000	2020-11-19T14:31:41:588
83,000000	0,000000	793,000000	0,000000	2020-11-19T14:31:41:628
83,000000	0,000000	793,000000	0,000000	2020-11-19T14:31:41:668
83,000000	0,000000	793,000000	0,000000	2020-11-19T14:31:41:708
83,000000	0,000000	793,000000	0,000000	2020-11-19T14:31:41:748
83,000000	0,000000	810,000000	0,000000	2020-11-19T14:31:41:788
83,000000	0,000000	810,000000	0,000000	2020-11-19T14:31:41:829
83,000000	0,000000	810,000000	0,000000	2020-11-19T14:31:41:868
83,000000	0,000000	810,000000	0,000000	2020-11-19T14:31:41:908
83,000000	0,000000	810,000000	0,000000	2020-11-19T14:31:41:948
83,000000	0,000000	810,000000	0,000000	2020-11-19T14:31:41:988
83,000000	0,000000	810,000000	0,000000	2020-11-19T14:31:42:028
83,000000	0,000000	810,000000	0,000000	2020-11-19T14:31:42:069
83,000000	0,000000	810,000000	0,000000	2020-11-19T14:31:42:110
83,000000	0,000000	810,000000	0,000000	2020-11-19T14:31:42:148
83,000000	0,000000	810,000000	0,000000	2020-11-19T14:31:42:188
83,000000	0,000000	810,000000	0,000000	2020-11-19T14:31:42:228
83,000000	0,000000	810,000000	0,000000	2020-11-19T14:31:42:269
83,000000	0,000000	810,000000	0,000000	2020-11-19T14:31:42:309
83,000000	0,000000	810,000000	0,000000	2020-11-19T14:31:42:348
83,000000	0,000000	810,000000	0,000000	2020-11-19T14:31:42:388
83,000000	0,000000	810,000000	0,000000	2020-11-19T14:31:42:429
83,000000	0,000000	810,000000	0,000000	2020-11-19T14:31:42:469
83,000000	0,000000	810,000000	0,000000	2020-11-19T14:31:42:509
83,000000	0,000000	810,000000	0,000000	2020-11-19T14:31:42:549
83,000000	0,000000	810,000000	0,000000	2020-11-19T14:31:42:588
83,000000	0,000000	810,000000	0,000000	2020-11-19T14:31:42:629
83,000000	0,000000	810,000000	0,000000	2020-11-19T14:31:42:669
83,000000	0,000000	810,000000	0,000000	2020-11-19T14:31:42:709
83,000000	0,000000	755,000000	0,000000	2020-11-19T14:31:42:749
83,000000	0,000000	755,000000	0,000000	2020-11-19T14:31:42:790
83,000000	0,000000	755,000000	0,000000	2020-11-19T14:31:42:829
83,000000	0,000000	755,000000	0,000000	2020-11-19T14:31:42:871
83,000000	0,000000	755,000000	0,000000	2020-11-19T14:31:42:910
83,000000	0,000000	755,000000	0,000000	2020-11-19T14:31:42:949
83,000000	0,000000	755,000000	0,000000	2020-11-19T14:31:42:989
83,000000	0,000000	755,000000	0,000000	2020-11-19T14:31:43:030
83,000000	0,000000	755,000000	0,000000	2020-11-19T14:31:43:070
83,000000	0,000000	755,000000	0,000000	2020-11-19T14:31:43:110
83,000000	0,000000	755,000000	0,000000	2020-11-19T14:31:43:150
83,000000	0,000000	755,000000	0,000000	2020-11-19T14:31:43:189
83,000000	0,000000	755,000000	0,000000	2020-11-19T14:31:43:230
83,000000	0,000000	755,000000	0,000000	2020-11-19T14:31:43:270
83,000000	0,000000	755,000000	0,000000	2020-11-19T14:31:43:310
83,000000	0,000000	755,000000	0,000000	2020-11-19T14:31:43:349
83,000000	0,000000	755,000000	0,000000	2020-11-19T14:31:43:389
83,000000	0,000000	755,000000	0,000000	2020-11-19T14:31:43:429
83,000000	0,000000	762,000000	0,000000	2020-11-19T14:31:43:470
83,000000	0,000000	762,000000	0,000000	2020-11-19T14:31:43:510
83,000000	0,000000	762,000000	0,000000	2020-11-19T14:31:43:550
83,000000	0,000000	762,000000	0,000000	2020-11-19T14:31:43:589
83,000000	0,000000	762,000000	0,000000	2020-11-19T14:31:43:630
83,000000	0,000000	762,000000	0,000000	2020-11-19T14:31:43:670
83,000000	0,000000	762,000000	0,000000	2020-11-19T14:31:43:711
83,000000	0,000000	762,000000	0,000000	2020-11-19T14:31:43:751
83,000000	0,000000	762,000000	0,000000	2020-11-19T14:31:43:790
83,000000	0,000000	762,000000	0,000000	2020-11-19T14:31:43:830
83,000000	0,000000	762,000000	0,000000	2020-11-19T14:31:43:870
83,000000	0,000000	762,000000	0,000000	2020-11-19T14:31:43:911
83,000000	0,000000	762,000000	0,000000	2020-11-19T14:31:43:950
83,000000	0,000000	762,000000	0,000000	2020-11-19T14:31:43:990
83,000000	0,000000	762,000000	0,000000	2020-11-19T14:31:44:031
82,000000	0,000000	762,000000	0,000000	2020-11-19T14:31:44:070
82,000000	0,000000	762,000000	0,000000	2020-11-19T14:31:44:111
82,000000	0,000000	762,000000	0,000000	2020-11-19T14:31:44:150
83,000000	0,000000	762,000000	0,000000	2020-11-19T14:31:44:191
83,000000	0,000000	762,000000	0,000000	2020-11-19T14:31:44:231
82,000000	0,000000	762,000000	0,000000	2020-11-19T14:31:44:271
82,000000	0,000000	762,000000	0,000000	2020-11-19T14:31:44:311
82,000000	0,000000	762,000000	0,000000	2020-11-19T14:31:44:351
82,000000	0,000000	762,000000	0,000000	2020-11-19T14:31:44:391
82,000000	0,000000	762,000000	0,000000	2020-11-19T14:31:44:431
82,000000	0,000000	762,000000	0,000000	2020-11-19T14:31:44:471
82,000000	0,000000	762,000000	0,000000	2020-11-19T14:31:44:511
83,000000	0,000000	762,000000	0,000000	2020-11-19T14:31:44:551
83,000000	0,000000	762,000000	0,000000	2020-11-19T14:31:44:591
82,000000	0,000000	762,000000	0,000000	2020-11-19T14:31:44:631
82,000000	0,000000	762,000000	0,000000	2020-11-19T14:31:44:671
82,000000	0,000000	762,000000	0,000000	2020-11-19T14:31:44:712
82,000000	0,000000	762,000000	0,000000	2020-11-19T14:31:44:751
82,000000	0,000000	762,000000	0,000000	2020-11-19T14:31:44:791
82,000000	0,000000	762,000000	0,000000	2020-11-19T14:31:44:832
82,000000	0,000000	762,000000	0,000000	2020-11-19T14:31:44:871
82,000000	0,000000	762,000000	0,000000	2020-11-19T14:31:44:911
82,000000	0,000000	762,000000	0,000000	2020-11-19T14:31:44:952
82,000000	0,000000	762,000000	0,000000	2020-11-19T14:31:44:991
82,000000	0,000000	762,000000	0,000000	2020-11-19T14:31:45:031
82,000000	0,000000	762,000000	0,000000	2020-11-19T14:31:45:071
82,000000	0,000000	762,000000	0,000000	2020-11-19T14:31:45:111
82,000000	0,000000	679,000000	0,000000	2020-11-19T14:31:45:151
82,000000	0,000000	679,000000	0,000000	2020-11-19T14:31:45:192
82,000000	0,000000	679,000000	0,000000	2020-11-19T14:31:45:231
82,000000	0,000000	679,000000	0,000000	2020-11-19T14:31:45:271
82,000000	0,000000	679,000000	0,000000	2020-11-19T14:31:45:312
82,000000	0,000000	679,000000	0,000000	2020-11-19T14:31:45:351
82,000000	0,000000	679,000000	0,000000	2020-11-19T14:31:45:392
82,000000	0,000000	679,000000	0,000000	2020-11-19T14:31:45:431
82,000000	0,000000	679,000000	0,000000	2020-11-19T14:31:45:472
82,000000	0,000000	679,000000	0,000000	2020-11-19T14:31:45:512
82,000000	0,000000	679,000000	0,000000	2020-11-19T14:31:45:552
82,000000	0,000000	679,000000	0,000000	2020-11-19T14:31:45:592
82,000000	0,000000	679,000000	0,000000	2020-11-19T14:31:45:632
82,000000	0,000000	679,000000	0,000000	2020-11-19T14:31:45:672
82,000000	0,000000	679,000000	0,000000	2020-11-19T14:31:45:712
82,000000	0,000000	679,000000	0,000000	2020-11-19T14:31:45:751
82,000000	0,000000	679,000000	0,000000	2020-11-19T14:31:45:792
82,000000	0,000000	679,000000	0,000000	2020-11-19T14:31:45:832
82,000000	0,000000	679,000000	0,000000	2020-11-19T14:31:45:872
82,000000	0,000000	679,000000	0,000000	2020-11-19T14:31:45:913
82,000000	0,000000	679,000000	0,000000	2020-11-19T14:31:45:952
82,000000	0,000000	679,000000	0,000000	2020-11-19T14:31:45:999
82,000000	0,000000	679,000000	0,000000	2020-11-19T14:31:46:032
82,000000	0,000000	679,000000	0,000000	2020-11-19T14:31:46:072
82,000000	0,000000	679,000000	0,000000	2020-11-19T14:31:46:113
82,000000	0,000000	679,000000	0,000000	2020-11-19T14:31:46:153
82,000000	0,000000	679,000000	0,000000	2020-11-19T14:31:46:192
82,000000	0,000000	679,000000	0,000000	2020-11-19T14:31:46:232
82,000000	0,000000	679,000000	0,000000	2020-11-19T14:31:46:273
82,000000	0,000000	679,000000	0,000000	2020-11-19T14:31:46:313
82,000000	0,000000	679,000000	0,000000	2020-11-19T14:31:46:353
82,000000	0,000000	679,000000	0,000000	2020-11-19T14:31:46:393
82,000000	0,000000	679,000000	0,000000	2020-11-19T14:31:46:433
82,000000	0,000000	679,000000	0,000000	2020-11-19T14:31:46:472
82,000000	0,000000	679,000000	0,000000	2020-11-19T14:31:46:513
82,000000	0,000000	679,000000	0,000000	2020-11-19T14:31:46:553
82,000000	0,000000	716,000000	0,000000	2020-11-19T14:31:46:593
82,000000	0,000000	716,000000	0,000000	2020-11-19T14:31:46:633
82,000000	0,000000	716,000000	0,000000	2020-11-19T14:31:46:673
82,000000	0,000000	716,000000	0,000000	2020-11-19T14:31:46:713
82,000000	0,000000	716,000000	0,000000	2020-11-19T14:31:46:753
82,000000	0,000000	716,000000	0,000000	2020-11-19T14:31:46:793
82,000000	0,000000	716,000000	0,000000	2020-11-19T14:31:46:833
82,000000	0,000000	716,000000	0,000000	2020-11-19T14:31:46:873
82,000000	0,000000	716,000000	0,000000	2020-11-19T14:31:46:913
82,000000	0,000000	716,000000	0,000000	2020-11-19T14:31:46:953
82,000000	0,000000	716,000000	0,000000	2020-11-19T14:31:46:993
82,000000	0,000000	716,000000	0,000000	2020-11-19T14:31:47:033
82,000000	0,000000	716,000000	0,000000	2020-11-19T14:31:47:074
82,000000	0,000000	716,000000	0,000000	2020-11-19T14:31:47:115
82,000000	0,000000	716,000000	0,000000	2020-11-19T14:31:47:154
82,000000	0,000000	716,000000	0,000000	2020-11-19T14:31:47:193
82,000000	0,000000	716,000000	0,000000	2020-11-19T14:31:47:234
82,000000	0,000000	716,000000	0,000000	2020-11-19T14:31:47:274
82,000000	0,000000	716,000000	0,000000	2020-11-19T14:31:47:313
82,000000	0,000000	716,000000	0,000000	2020-11-19T14:31:47:354
82,000000	0,000000	716,000000	0,000000	2020-11-19T14:31:47:395
82,000000	0,000000	716,000000	0,000000	2020-11-19T14:31:47:434
82,000000	0,000000	716,000000	0,000000	2020-11-19T14:31:47:474
82,000000	0,000000	716,000000	0,000000	2020-11-19T14:31:47:514
82,000000	0,000000	716,000000	0,000000	2020-11-19T14:31:47:553
82,000000	0,000000	716,000000	0,000000	2020-11-19T14:31:47:595
82,000000	0,000000	716,000000	0,000000	2020-11-19T14:31:47:635
82,000000	0,000000	716,000000	0,000000	2020-11-19T14:31:47:674
82,000000	0,000000	716,000000	0,000000	2020-11-19T14:31:47:715
82,000000	0,000000	716,000000	0,000000	2020-11-19T14:31:47:755
82,000000	0,000000	716,000000	0,000000	2020-11-19T14:31:47:795
82,000000	0,000000	716,000000	0,000000	2020-11-19T14:31:47:835
82,000000	0,000000	716,000000	0,000000	2020-11-19T14:31:47:875
82,000000	0,000000	716,000000	0,000000	2020-11-19T14:31:47:915
82,000000	0,000000	716,000000	0,000000	2020-11-19T14:31:47:955
82,000000	0,000000	716,000000	0,000000	2020-11-19T14:31:47:995
82,000000	0,000000	833,000000	0,000000	2020-11-19T14:31:48:035
82,000000	0,000000	833,000000	0,000000	2020-11-19T14:31:48:077
82,000000	0,000000	833,000000	0,000000	2020-11-19T14:31:48:116
82,000000	0,000000	833,000000	0,000000	2020-11-19T14:31:48:156
82,000000	0,000000	833,000000	0,000000	2020-11-19T14:31:48:197
82,000000	0,000000	833,000000	0,000000	2020-11-19T14:31:48:236
82,000000	0,000000	833,000000	0,000000	2020-11-19T14:31:48:277
82,000000	0,000000	833,000000	0,000000	2020-11-19T14:31:48:317
82,000000	0,000000	833,000000	0,000000	2020-11-19T14:31:48:356
82,000000	0,000000	833,000000	0,000000	2020-11-19T14:31:48:396
82,000000	0,000000	833,000000	0,000000	2020-11-19T14:31:48:436
82,000000	0,000000	833,000000	0,000000	2020-11-19T14:31:48:476
82,000000	0,000000	833,000000	0,000000	2020-11-19T14:31:48:517
82,000000	0,000000	833,000000	0,000000	2020-11-19T14:31:48:556
82,000000	0,000000	833,000000	0,000000	2020-11-19T14:31:48:597
82,000000	0,000000	833,000000	0,000000	2020-11-19T14:31:48:636
82,000000	0,000000	833,000000	0,000000	2020-11-19T14:31:48:677
82,000000	0,000000	833,000000	0,000000	2020-11-19T14:31:48:717
82,000000	0,000000	833,000000	0,000000	2020-11-19T14:31:48:757
82,000000	0,000000	833,000000	0,000000	2020-11-19T14:31:48:797
82,000000	0,000000	833,000000	0,000000	2020-11-19T14:31:48:837
82,000000	0,000000	833,000000	0,000000	2020-11-19T14:31:48:876
82,000000	0,000000	833,000000	0,000000	2020-11-19T14:31:48:917
82,000000	0,000000	833,000000	0,000000	2020-11-19T14:31:48:957
82,000000	0,000000	833,000000	0,000000	2020-11-19T14:31:48:997
82,000000	0,000000	833,000000	0,000000	2020-11-19T14:31:49:038
82,000000	0,000000	833,000000	0,000000	2020-11-19T14:31:49:077
82,000000	0,000000	833,000000	0,000000	2020-11-19T14:31:49:117
82,000000	0,000000	833,000000	0,000000	2020-11-19T14:31:49:157
82,000000	0,000000	833,000000	0,000000	2020-11-19T14:31:49:197
82,000000	0,000000	833,000000	0,000000	2020-11-19T14:31:49:237
82,000000	0,000000	833,000000	0,000000	2020-11-19T14:31:49:277
82,000000	0,000000	833,000000	0,000000	2020-11-19T14:31:49:317
82,000000	0,000000	833,000000	0,000000	2020-11-19T14:31:49:357
82,000000	0,000000	833,000000	0,000000	2020-11-19T14:31:49:397
82,000000	0,000000	833,000000	0,000000	2020-11-19T14:31:49:437
82,000000	0,000000	833,000000	0,000000	2020-11-19T14:31:49:477
82,000000	0,000000	833,000000	0,000000	2020-11-19T14:31:49:518
82,000000	0,000000	833,000000	0,000000	2020-11-19T14:31:49:558
82,000000	0,000000	833,000000	0,000000	2020-11-19T14:31:49:597
82,000000	0,000000	833,000000	0,000000	2020-11-19T14:31:49:637
82,000000	0,000000	833,000000	0,000000	2020-11-19T14:31:49:678
82,000000	0,000000	833,000000	0,000000	2020-11-19T14:31:49:718
82,000000	0,000000	833,000000	0,000000	2020-11-19T14:31:49:758
82,000000	0,000000	833,000000	0,000000	2020-11-19T14:31:49:797
82,000000	0,000000	833,000000	0,000000	2020-11-19T14:31:49:837
82,000000	0,000000	833,000000	0,000000	2020-11-19T14:31:49:878
82,000000	0,000000	833,000000	0,000000	2020-11-19T14:31:49:918
82,000000	0,000000	833,000000	0,000000	2020-11-19T14:31:49:958
82,000000	0,000000	833,000000	0,000000	2020-11-19T14:31:49:999
81,000000	0,000000	833,000000	0,000000	2020-11-19T14:31:50:038
81,000000	0,000000	833,000000	0,000000	2020-11-19T14:31:50:078
81,000000	0,000000	833,000000	0,000000	2020-11-19T14:31:50:118
82,000000	0,000000	833,000000	0,000000	2020-11-19T14:31:50:157
82,000000	0,000000	833,000000	0,000000	2020-11-19T14:31:50:198
82,000000	0,000000	833,000000	0,000000	2020-11-19T14:31:50:238
82,000000	0,000000	833,000000	0,000000	2020-11-19T14:31:50:278
82,000000	0,000000	833,000000	0,000000	2020-11-19T14:31:50:318
82,000000	0,000000	833,000000	0,000000	2020-11-19T14:31:50:358
82,000000	0,000000	833,000000	0,000000	2020-11-19T14:31:50:402
82,000000	0,000000	833,000000	0,000000	2020-11-19T14:31:50:438
82,000000	0,000000	833,000000	0,000000	2020-11-19T14:31:50:478
82,000000	0,000000	833,000000	0,000000	2020-11-19T14:31:50:519
82,000000	0,000000	833,000000	0,000000	2020-11-19T14:31:50:563
82,000000	0,000000	833,000000	0,000000	2020-11-19T14:31:50:598
82,000000	0,000000	833,000000	0,000000	2020-11-19T14:31:50:638
82,000000	0,000000	833,000000	0,000000	2020-11-19T14:31:50:678
82,000000	0,000000	833,000000	0,000000	2020-11-19T14:31:50:719
82,000000	0,000000	833,000000	0,000000	2020-11-19T14:31:50:758
82,000000	0,000000	833,000000	0,000000	2020-11-19T14:31:50:799
82,000000	0,000000	833,000000	0,000000	2020-11-19T14:31:50:839
82,000000	0,000000	833,000000	0,000000	2020-11-19T14:31:50:879
82,000000	0,000000	833,000000	0,000000	2020-11-19T14:31:50:919
82,000000	0,000000	833,000000	0,000000	2020-11-19T14:31:50:960
82,000000	0,000000	833,000000	0,000000	2020-11-19T14:31:50:998
82,000000	0,000000	833,000000	0,000000	2020-11-19T14:31:51:040
82,000000	0,000000	833,000000	0,000000	2020-11-19T14:31:51:079
82,000000	0,000000	833,000000	0,000000	2020-11-19T14:31:51:120
83,000000	0,000000	833,000000	0,000000	2020-11-19T14:31:51:159
82,000000	0,000000	833,000000	0,000000	2020-11-19T14:31:51:200
82,000000	0,000000	833,000000	0,000000	2020-11-19T14:31:51:239
82,000000	0,000000	833,000000	0,000000	2020-11-19T14:31:51:280
82,000000	0,000000	833,000000	0,000000	2020-11-19T14:31:51:319
82,000000	0,000000	833,000000	0,000000	2020-11-19T14:31:51:360
82,000000	0,000000	833,000000	0,000000	2020-11-19T14:31:51:399
82,000000	0,000000	833,000000	0,000000	2020-11-19T14:31:51:441
83,000000	0,000000	833,000000	0,000000	2020-11-19T14:31:51:479
83,000000	0,000000	833,000000	0,000000	2020-11-19T14:31:51:521
83,000000	0,000000	833,000000	0,000000	2020-11-19T14:31:51:560
82,000000	0,000000	833,000000	0,000000	2020-11-19T14:31:51:600
82,000000	0,000000	833,000000	0,000000	2020-11-19T14:31:51:639
83,000000	0,000000	833,000000	0,000000	2020-11-19T14:31:51:681
83,000000	0,000000	833,000000	0,000000	2020-11-19T14:31:51:720
82,000000	0,000000	833,000000	0,000000	2020-11-19T14:31:51:761
82,000000	0,000000	833,000000	0,000000	2020-11-19T14:31:51:799
82,000000	0,000000	833,000000	0,000000	2020-11-19T14:31:51:840
83,000000	0,000000	833,000000	0,000000	2020-11-19T14:31:51:880
83,000000	0,000000	833,000000	0,000000	2020-11-19T14:31:51:921
82,000000	0,000000	833,000000	0,000000	2020-11-19T14:31:51:959
82,000000	0,000000	833,000000	0,000000	2020-11-19T14:31:52:001
82,000000	0,000000	833,000000	0,000000	2020-11-19T14:31:52:040
83,000000	0,000000	833,000000	0,000000	2020-11-19T14:31:52:081
82,000000	0,000000	833,000000	0,000000	2020-11-19T14:31:52:120
82,000000	0,000000	833,000000	0,000000	2020-11-19T14:31:52:161
82,000000	0,000000	833,000000	0,000000	2020-11-19T14:31:52:200
82,000000	0,000000	833,000000	0,000000	2020-11-19T14:31:52:241
82,000000	0,000000	833,000000	0,000000	2020-11-19T14:31:52:280
82,000000	0,000000	833,000000	0,000000	2020-11-19T14:31:52:321
82,000000	0,000000	833,000000	0,000000	2020-11-19T14:31:52:360
82,000000	0,000000	833,000000	0,000000	2020-11-19T14:31:52:401
82,000000	0,000000	833,000000	0,000000	2020-11-19T14:31:52:440
82,000000	0,000000	833,000000	0,000000	2020-11-19T14:31:52:481
82,000000	0,000000	833,000000	0,000000	2020-11-19T14:31:52:520
82,000000	0,000000	833,000000	0,000000	2020-11-19T14:31:52:561
82,000000	0,000000	833,000000	0,000000	2020-11-19T14:31:52:600
82,000000	0,000000	833,000000	0,000000	2020-11-19T14:31:52:642
82,000000	0,000000	833,000000	0,000000	2020-11-19T14:31:52:680
82,000000	0,000000	833,000000	0,000000	2020-11-19T14:31:52:722
82,000000	0,000000	833,000000	0,000000	2020-11-19T14:31:52:760
82,000000	0,000000	833,000000	0,000000	2020-11-19T14:31:52:801
82,000000	0,000000	833,000000	0,000000	2020-11-19T14:31:52:841
82,000000	0,000000	833,000000	0,000000	2020-11-19T14:31:52:882
82,000000	0,000000	833,000000	0,000000	2020-11-19T14:31:52:921
81,000000	0,000000	833,000000	0,000000	2020-11-19T14:31:52:962
82,000000	0,000000	833,000000	0,000000	2020-11-19T14:31:53:000
82,000000	0,000000	833,000000	0,000000	2020-11-19T14:31:53:041
82,000000	0,000000	833,000000	0,000000	2020-11-19T14:31:53:081
82,000000	0,000000	833,000000	0,000000	2020-11-19T14:31:53:122
82,000000	0,000000	833,000000	0,000000	2020-11-19T14:31:53:160
82,000000	0,000000	833,000000	0,000000	2020-11-19T14:31:53:201
82,000000	0,000000	833,000000	0,000000	2020-11-19T14:31:53:241
81,000000	0,000000	833,000000	0,000000	2020-11-19T14:31:53:281
81,000000	0,000000	833,000000	0,000000	2020-11-19T14:31:53:321
81,000000	0,000000	833,000000	0,000000	2020-11-19T14:31:53:362
82,000000	0,000000	833,000000	0,000000	2020-11-19T14:31:53:400
82,000000	0,000000	833,000000	0,000000	2020-11-19T14:31:53:441
82,000000	0,000000	833,000000	0,000000	2020-11-19T14:31:53:482
81,000000	0,000000	833,000000	0,000000	2020-11-19T14:31:53:523
81,000000	0,000000	658,000000	0,000000	2020-11-19T14:31:53:561
82,000000	0,000000	658,000000	0,000000	2020-11-19T14:31:53:602
81,000000	0,000000	658,000000	0,000000	2020-11-19T14:31:53:641
81,000000	0,000000	658,000000	0,000000	2020-11-19T14:31:53:682
81,000000	0,000000	658,000000	0,000000	2020-11-19T14:31:53:722
82,000000	0,000000	658,000000	0,000000	2020-11-19T14:31:53:763
82,000000	0,000000	658,000000	0,000000	2020-11-19T14:31:53:801
81,000000	0,000000	658,000000	0,000000	2020-11-19T14:31:53:843
81,000000	0,000000	658,000000	0,000000	2020-11-19T14:31:53:881
81,000000	0,000000	658,000000	0,000000	2020-11-19T14:31:53:923
81,000000	0,000000	658,000000	0,000000	2020-11-19T14:31:53:962
82,000000	0,000000	658,000000	0,000000	2020-11-19T14:31:54:002
81,000000	0,000000	658,000000	0,000000	2020-11-19T14:31:54:042
81,000000	0,000000	658,000000	0,000000	2020-11-19T14:31:54:083
81,000000	0,000000	658,000000	0,000000	2020-11-19T14:31:54:122
81,000000	0,000000	658,000000	0,000000	2020-11-19T14:31:54:162
81,000000	0,000000	658,000000	0,000000	2020-11-19T14:31:54:202
81,000000	0,000000	658,000000	0,000000	2020-11-19T14:31:54:243
81,000000	0,000000	849,000000	0,000000	2020-11-19T14:31:54:282
81,000000	0,000000	849,000000	0,000000	2020-11-19T14:31:54:323
81,000000	0,000000	849,000000	0,000000	2020-11-19T14:31:54:362
81,000000	0,000000	849,000000	0,000000	2020-11-19T14:31:54:403
81,000000	0,000000	849,000000	0,000000	2020-11-19T14:31:54:442
81,000000	0,000000	849,000000	0,000000	2020-11-19T14:31:54:482
81,000000	0,000000	849,000000	0,000000	2020-11-19T14:31:54:523
81,000000	0,000000	849,000000	0,000000	2020-11-19T14:31:54:563
81,000000	0,000000	849,000000	0,000000	2020-11-19T14:31:54:602
81,000000	0,000000	849,000000	0,000000	2020-11-19T14:31:54:643
81,000000	0,000000	849,000000	0,000000	2020-11-19T14:31:54:683
81,000000	0,000000	849,000000	0,000000	2020-11-19T14:31:54:723
81,000000	0,000000	849,000000	0,000000	2020-11-19T14:31:54:763
81,000000	0,000000	849,000000	0,000000	2020-11-19T14:31:54:803
81,000000	0,000000	849,000000	0,000000	2020-11-19T14:31:54:843
81,000000	0,000000	849,000000	0,000000	2020-11-19T14:31:54:884
81,000000	0,000000	849,000000	0,000000	2020-11-19T14:31:54:923
81,000000	0,000000	849,000000	0,000000	2020-11-19T14:31:54:963
81,000000	0,000000	704,000000	0,000000	2020-11-19T14:31:55:002
81,000000	0,000000	704,000000	0,000000	2020-11-19T14:31:55:044
81,000000	0,000000	704,000000	0,000000	2020-11-19T14:31:55:082
81,000000	0,000000	704,000000	0,000000	2020-11-19T14:31:55:124
81,000000	0,000000	704,000000	0,000000	2020-11-19T14:31:55:162
81,000000	0,000000	704,000000	0,000000	2020-11-19T14:31:55:203
80,000000	0,000000	704,000000	0,000000	2020-11-19T14:31:55:243
81,000000	0,000000	704,000000	0,000000	2020-11-19T14:31:55:284
81,000000	0,000000	704,000000	0,000000	2020-11-19T14:31:55:323
81,000000	0,000000	704,000000	0,000000	2020-11-19T14:31:55:363
81,000000	0,000000	704,000000	0,000000	2020-11-19T14:31:55:403
81,000000	0,000000	704,000000	0,000000	2020-11-19T14:31:55:444
81,000000	0,000000	704,000000	0,000000	2020-11-19T14:31:55:483
81,000000	0,000000	704,000000	0,000000	2020-11-19T14:31:55:524
81,000000	0,000000	704,000000	0,000000	2020-11-19T14:31:55:563
81,000000	0,000000	704,000000	0,000000	2020-11-19T14:31:55:604
80,000000	0,000000	704,000000	0,000000	2020-11-19T14:31:55:643
80,000000	0,000000	704,000000	0,000000	2020-11-19T14:31:55:684
80,000000	0,000000	704,000000	0,000000	2020-11-19T14:31:55:723
80,000000	0,000000	704,000000	0,000000	2020-11-19T14:31:55:765
80,000000	0,000000	704,000000	0,000000	2020-11-19T14:31:55:803
80,000000	0,000000	704,000000	0,000000	2020-11-19T14:31:55:844
80,000000	0,000000	704,000000	0,000000	2020-11-19T14:31:55:883
80,000000	0,000000	704,000000	0,000000	2020-11-19T14:31:55:924
80,000000	0,000000	761,000000	0,000000	2020-11-19T14:31:55:963
80,000000	0,000000	761,000000	0,000000	2020-11-19T14:31:56:011
80,000000	0,000000	761,000000	0,000000	2020-11-19T14:31:56:043
80,000000	0,000000	761,000000	0,000000	2020-11-19T14:31:56:084
80,000000	0,000000	761,000000	0,000000	2020-11-19T14:31:56:124
80,000000	0,000000	761,000000	0,000000	2020-11-19T14:31:56:164
80,000000	0,000000	761,000000	0,000000	2020-11-19T14:31:56:203
80,000000	0,000000	761,000000	0,000000	2020-11-19T14:31:56:244
80,000000	0,000000	761,000000	0,000000	2020-11-19T14:31:56:283
80,000000	0,000000	761,000000	0,000000	2020-11-19T14:31:56:324
80,000000	0,000000	761,000000	0,000000	2020-11-19T14:31:56:363
80,000000	0,000000	761,000000	0,000000	2020-11-19T14:31:56:404
80,000000	0,000000	761,000000	0,000000	2020-11-19T14:31:56:443
80,000000	0,000000	761,000000	0,000000	2020-11-19T14:31:56:485
80,000000	0,000000	761,000000	0,000000	2020-11-19T14:31:56:524
80,000000	0,000000	761,000000	0,000000	2020-11-19T14:31:56:564
80,000000	0,000000	761,000000	0,000000	2020-11-19T14:31:56:603
80,000000	0,000000	761,000000	0,000000	2020-11-19T14:31:56:644
80,000000	0,000000	772,000000	0,000000	2020-11-19T14:31:56:684
80,000000	0,000000	772,000000	0,000000	2020-11-19T14:31:56:725
80,000000	0,000000	772,000000	0,000000	2020-11-19T14:31:56:763
80,000000	0,000000	772,000000	0,000000	2020-11-19T14:31:56:804
80,000000	0,000000	772,000000	0,000000	2020-11-19T14:31:56:844
79,000000	0,000000	772,000000	0,000000	2020-11-19T14:31:56:884
80,000000	0,000000	772,000000	0,000000	2020-11-19T14:31:56:925
80,000000	0,000000	772,000000	0,000000	2020-11-19T14:31:56:966
80,000000	0,000000	772,000000	0,000000	2020-11-19T14:31:57:005
80,000000	0,000000	772,000000	0,000000	2020-11-19T14:31:57:045
79,000000	0,000000	772,000000	0,000000	2020-11-19T14:31:57:085
80,000000	0,000000	772,000000	0,000000	2020-11-19T14:31:57:125
80,000000	0,000000	772,000000	0,000000	2020-11-19T14:31:57:165
79,000000	0,000000	772,000000	0,000000	2020-11-19T14:31:57:206
79,000000	0,000000	772,000000	0,000000	2020-11-19T14:31:57:245
79,000000	0,000000	772,000000	0,000000	2020-11-19T14:31:57:285
80,000000	0,000000	772,000000	0,000000	2020-11-19T14:31:57:324
80,000000	0,000000	772,000000	0,000000	2020-11-19T14:31:57:365
79,000000	0,000000	742,000000	0,000000	2020-11-19T14:31:57:404
79,000000	0,000000	742,000000	0,000000	2020-11-19T14:31:57:445
79,000000	0,000000	742,000000	0,000000	2020-11-19T14:31:57:484
79,000000	0,000000	742,000000	0,000000	2020-11-19T14:31:57:525
79,000000	0,000000	742,000000	0,000000	2020-11-19T14:31:57:564
79,000000	0,000000	742,000000	0,000000	2020-11-19T14:31:57:605
79,000000	0,000000	742,000000	0,000000	2020-11-19T14:31:57:645
79,000000	0,000000	742,000000	0,000000	2020-11-19T14:31:57:686
79,000000	0,000000	742,000000	0,000000	2020-11-19T14:31:57:725
79,000000	0,000000	742,000000	0,000000	2020-11-19T14:31:57:765
79,000000	0,000000	742,000000	0,000000	2020-11-19T14:31:57:805
79,000000	0,000000	742,000000	0,000000	2020-11-19T14:31:57:845
79,000000	0,000000	742,000000	0,000000	2020-11-19T14:31:57:884
79,000000	0,000000	742,000000	0,000000	2020-11-19T14:31:57:927
80,000000	0,000000	742,000000	0,000000	2020-11-19T14:31:57:965
80,000000	0,000000	742,000000	0,000000	2020-11-19T14:31:58:005
80,000000	0,000000	742,000000	0,000000	2020-11-19T14:31:58:045
80,000000	0,000000	742,000000	0,000000	2020-11-19T14:31:58:086
80,000000	0,000000	742,000000	0,000000	2020-11-19T14:31:58:125
80,000000	0,000000	742,000000	0,000000	2020-11-19T14:31:58:166
80,000000	0,000000	742,000000	0,000000	2020-11-19T14:31:58:205
80,000000	0,000000	742,000000	0,000000	2020-11-19T14:31:58:247
80,000000	0,000000	742,000000	0,000000	2020-11-19T14:31:58:285
79,000000	0,000000	742,000000	0,000000	2020-11-19T14:31:58:329
79,000000	0,000000	742,000000	0,000000	2020-11-19T14:31:58:366
79,000000	0,000000	742,000000	0,000000	2020-11-19T14:31:58:408
80,000000	0,000000	742,000000	0,000000	2020-11-19T14:31:58:445
80,000000	0,000000	742,000000	0,000000	2020-11-19T14:31:58:486
80,000000	0,000000	742,000000	0,000000	2020-11-19T14:31:58:525
79,000000	0,000000	742,000000	0,000000	2020-11-19T14:31:58:566
79,000000	0,000000	742,000000	0,000000	2020-11-19T14:31:58:605
80,000000	0,000000	742,000000	0,000000	2020-11-19T14:31:58:646
79,000000	0,000000	742,000000	0,000000	2020-11-19T14:31:58:685
79,000000	0,000000	742,000000	0,000000	2020-11-19T14:31:58:726
79,000000	0,000000	742,000000	0,000000	2020-11-19T14:31:58:765
80,000000	0,000000	742,000000	0,000000	2020-11-19T14:31:58:806
80,000000	0,000000	733,000000	0,000000	2020-11-19T14:31:58:845
80,000000	0,000000	733,000000	0,000000	2020-11-19T14:31:58:887
79,000000	0,000000	733,000000	0,000000	2020-11-19T14:31:58:925
79,000000	0,000000	733,000000	0,000000	2020-11-19T14:31:58:966
79,000000	0,000000	733,000000	0,000000	2020-11-19T14:31:59:005
80,000000	0,000000	733,000000	0,000000	2020-11-19T14:31:59:046
79,000000	0,000000	733,000000	0,000000	2020-11-19T14:31:59:085
79,000000	0,000000	733,000000	0,000000	2020-11-19T14:31:59:127
79,000000	0,000000	733,000000	0,000000	2020-11-19T14:31:59:165
79,000000	0,000000	733,000000	0,000000	2020-11-19T14:31:59:206
79,000000	0,000000	733,000000	0,000000	2020-11-19T14:31:59:245
79,000000	0,000000	733,000000	0,000000	2020-11-19T14:31:59:286
79,000000	0,000000	733,000000	0,000000	2020-11-19T14:31:59:325
79,000000	0,000000	733,000000	0,000000	2020-11-19T14:31:59:367
79,000000	0,000000	733,000000	0,000000	2020-11-19T14:31:59:405
79,000000	0,000000	733,000000	0,000000	2020-11-19T14:31:59:446
79,000000	0,000000	733,000000	0,000000	2020-11-19T14:31:59:486
79,000000	0,000000	733,000000	0,000000	2020-11-19T14:31:59:527
79,000000	0,000000	776,000000	0,000000	2020-11-19T14:31:59:565
79,000000	0,000000	776,000000	0,000000	2020-11-19T14:31:59:606
79,000000	0,000000	776,000000	0,000000	2020-11-19T14:31:59:645
79,000000	0,000000	776,000000	0,000000	2020-11-19T14:31:59:687
79,000000	0,000000	776,000000	0,000000	2020-11-19T14:31:59:726
79,000000	0,000000	776,000000	0,000000	2020-11-19T14:31:59:766
79,000000	0,000000	776,000000	0,000000	2020-11-19T14:31:59:806
79,000000	0,000000	776,000000	0,000000	2020-11-19T14:31:59:847
79,000000	0,000000	776,000000	0,000000	2020-11-19T14:31:59:886
79,000000	0,000000	776,000000	0,000000	2020-11-19T14:31:59:927
79,000000	0,000000	776,000000	0,000000	2020-11-19T14:31:59:967
79,000000	0,000000	776,000000	0,000000	2020-11-19T14:32:00:007
79,000000	0,000000	776,000000	0,000000	2020-11-19T14:32:00:046
79,000000	0,000000	776,000000	0,000000	2020-11-19T14:32:00:087
79,000000	0,000000	776,000000	0,000000	2020-11-19T14:32:00:126
79,000000	0,000000	776,000000	0,000000	2020-11-19T14:32:00:167
79,000000	0,000000	776,000000	0,000000	2020-11-19T14:32:00:206
79,000000	0,000000	776,000000	0,000000	2020-11-19T14:32:00:247
79,000000	0,000000	753,000000	0,000000	2020-11-19T14:32:00:286
79,000000	0,000000	753,000000	0,000000	2020-11-19T14:32:00:328
79,000000	0,000000	753,000000	0,000000	2020-11-19T14:32:00:366
79,000000	0,000000	753,000000	0,000000	2020-11-19T14:32:00:411
79,000000	0,000000	753,000000	0,000000	2020-11-19T14:32:00:446
79,000000	0,000000	753,000000	0,000000	2020-11-19T14:32:00:488
79,000000	0,000000	753,000000	0,000000	2020-11-19T14:32:00:527
79,000000	0,000000	753,000000	0,000000	2020-11-19T14:32:00:568
79,000000	0,000000	753,000000	0,000000	2020-11-19T14:32:00:607
79,000000	0,000000	753,000000	0,000000	2020-11-19T14:32:00:648
79,000000	0,000000	753,000000	0,000000	2020-11-19T14:32:00:687
79,000000	0,000000	753,000000	0,000000	2020-11-19T14:32:00:728
79,000000	0,000000	753,000000	0,000000	2020-11-19T14:32:00:768
79,000000	0,000000	753,000000	0,000000	2020-11-19T14:32:00:808
79,000000	0,000000	753,000000	0,000000	2020-11-19T14:32:00:847
79,000000	0,000000	753,000000	0,000000	2020-11-19T14:32:00:888
79,000000	0,000000	753,000000	0,000000	2020-11-19T14:32:00:927
79,000000	0,000000	753,000000	0,000000	2020-11-19T14:32:00:968
79,000000	0,000000	753,000000	0,000000	2020-11-19T14:32:01:007
79,000000	0,000000	753,000000	0,000000	2020-11-19T14:32:01:048
79,000000	0,000000	753,000000	0,000000	2020-11-19T14:32:01:087
79,000000	0,000000	753,000000	0,000000	2020-11-19T14:32:01:129
79,000000	0,000000	753,000000	0,000000	2020-11-19T14:32:01:167
79,000000	0,000000	753,000000	0,000000	2020-11-19T14:32:01:208
79,000000	0,000000	798,000000	0,000000	2020-11-19T14:32:01:247
79,000000	0,000000	798,000000	0,000000	2020-11-19T14:32:01:289
79,000000	0,000000	798,000000	0,000000	2020-11-19T14:32:01:328
79,000000	0,000000	798,000000	0,000000	2020-11-19T14:32:01:367
79,000000	0,000000	798,000000	0,000000	2020-11-19T14:32:01:407
79,000000	0,000000	798,000000	0,000000	2020-11-19T14:32:01:448
79,000000	0,000000	798,000000	0,000000	2020-11-19T14:32:01:487
79,000000	0,000000	798,000000	0,000000	2020-11-19T14:32:01:529
79,000000	0,000000	798,000000	0,000000	2020-11-19T14:32:01:567
79,000000	0,000000	798,000000	0,000000	2020-11-19T14:32:01:609
79,000000	0,000000	798,000000	0,000000	2020-11-19T14:32:01:648
79,000000	0,000000	798,000000	0,000000	2020-11-19T14:32:01:689
79,000000	0,000000	798,000000	0,000000	2020-11-19T14:32:01:728
79,000000	0,000000	798,000000	0,000000	2020-11-19T14:32:01:769
79,000000	0,000000	798,000000	0,000000	2020-11-19T14:32:01:808
79,000000	0,000000	798,000000	0,000000	2020-11-19T14:32:01:849
79,000000	0,000000	798,000000	0,000000	2020-11-19T14:32:01:888
79,000000	0,000000	798,000000	0,000000	2020-11-19T14:32:01:929
79,000000	0,000000	753,000000	0,000000	2020-11-19T14:32:01:968
79,000000	0,000000	753,000000	0,000000	2020-11-19T14:32:02:009
79,000000	0,000000	753,000000	0,000000	2020-11-19T14:32:02:048
79,000000	0,000000	753,000000	0,000000	2020-11-19T14:32:02:089
79,000000	0,000000	753,000000	0,000000	2020-11-19T14:32:02:128
79,000000	0,000000	753,000000	0,000000	2020-11-19T14:32:02:169
79,000000	0,000000	753,000000	0,000000	2020-11-19T14:32:02:208
79,000000	0,000000	753,000000	0,000000	2020-11-19T14:32:02:249
79,000000	0,000000	753,000000	0,000000	2020-11-19T14:32:02:288
79,000000	0,000000	753,000000	0,000000	2020-11-19T14:32:02:329
79,000000	0,000000	753,000000	0,000000	2020-11-19T14:32:02:368
79,000000	0,000000	753,000000	0,000000	2020-11-19T14:32:02:410
79,000000	0,000000	753,000000	0,000000	2020-11-19T14:32:02:449
79,000000	0,000000	753,000000	0,000000	2020-11-19T14:32:02:488
79,000000	0,000000	753,000000	0,000000	2020-11-19T14:32:02:528
79,000000	0,000000	753,000000	0,000000	2020-11-19T14:32:02:570
79,000000	0,000000	753,000000	0,000000	2020-11-19T14:32:02:609
79,000000	0,000000	753,000000	0,000000	2020-11-19T14:32:02:650
79,000000	0,000000	830,000000	0,000000	2020-11-19T14:32:02:689
79,000000	0,000000	830,000000	0,000000	2020-11-19T14:32:02:730
79,000000	0,000000	830,000000	0,000000	2020-11-19T14:32:02:769
79,000000	0,000000	830,000000	0,000000	2020-11-19T14:32:02:809
79,000000	0,000000	830,000000	0,000000	2020-11-19T14:32:02:849
79,000000	0,000000	830,000000	0,000000	2020-11-19T14:32:02:890
79,000000	0,000000	830,000000	0,000000	2020-11-19T14:32:02:929
79,000000	0,000000	830,000000	0,000000	2020-11-19T14:32:02:970
79,000000	0,000000	830,000000	0,000000	2020-11-19T14:32:03:009
79,000000	0,000000	830,000000	0,000000	2020-11-19T14:32:03:050
79,000000	0,000000	830,000000	0,000000	2020-11-19T14:32:03:089
79,000000	0,000000	830,000000	0,000000	2020-11-19T14:32:03:130
79,000000	0,000000	830,000000	0,000000	2020-11-19T14:32:03:169
79,000000	0,000000	830,000000	0,000000	2020-11-19T14:32:03:211
79,000000	0,000000	830,000000	0,000000	2020-11-19T14:32:03:249
79,000000	0,000000	830,000000	0,000000	2020-11-19T14:32:03:290
79,000000	0,000000	830,000000	0,000000	2020-11-19T14:32:03:329
79,000000	0,000000	830,000000	0,000000	2020-11-19T14:32:03:370
79,000000	0,000000	830,000000	0,000000	2020-11-19T14:32:03:409
79,000000	0,000000	830,000000	0,000000	2020-11-19T14:32:03:451
79,000000	0,000000	830,000000	0,000000	2020-11-19T14:32:03:489
79,000000	0,000000	830,000000	0,000000	2020-11-19T14:32:03:530
79,000000	0,000000	830,000000	0,000000	2020-11-19T14:32:03:570
79,000000	0,000000	830,000000	0,000000	2020-11-19T14:32:03:611
79,000000	0,000000	806,000000	0,000000	2020-11-19T14:32:03:650
79,000000	0,000000	806,000000	0,000000	2020-11-19T14:32:03:691
79,000000	0,000000	806,000000	0,000000	2020-11-19T14:32:03:730
79,000000	0,000000	806,000000	0,000000	2020-11-19T14:32:03:771
79,000000	0,000000	806,000000	0,000000	2020-11-19T14:32:03:810
79,000000	0,000000	806,000000	0,000000	2020-11-19T14:32:03:851
79,000000	0,000000	806,000000	0,000000	2020-11-19T14:32:03:890
79,000000	0,000000	806,000000	0,000000	2020-11-19T14:32:03:932
79,000000	0,000000	806,000000	0,000000	2020-11-19T14:32:03:970
79,000000	0,000000	806,000000	0,000000	2020-11-19T14:32:04:010
79,000000	0,000000	806,000000	0,000000	2020-11-19T14:32:04:050
79,000000	0,000000	806,000000	0,000000	2020-11-19T14:32:04:091
79,000000	0,000000	806,000000	0,000000	2020-11-19T14:32:04:131
79,000000	0,000000	806,000000	0,000000	2020-11-19T14:32:04:172
79,000000	0,000000	806,000000	0,000000	2020-11-19T14:32:04:209
79,000000	0,000000	806,000000	0,000000	2020-11-19T14:32:04:251
79,000000	0,000000	806,000000	0,000000	2020-11-19T14:32:04:291
79,000000	0,000000	806,000000	0,000000	2020-11-19T14:32:04:332
79,000000	0,000000	806,000000	0,000000	2020-11-19T14:32:04:370
79,000000	0,000000	806,000000	0,000000	2020-11-19T14:32:04:412
79,000000	0,000000	806,000000	0,000000	2020-11-19T14:32:04:450
79,000000	0,000000	806,000000	0,000000	2020-11-19T14:32:04:491
79,000000	0,000000	806,000000	0,000000	2020-11-19T14:32:04:531
79,000000	0,000000	806,000000	0,000000	2020-11-19T14:32:04:572
79,000000	0,000000	806,000000	0,000000	2020-11-19T14:32:04:611
79,000000	0,000000	806,000000	0,000000	2020-11-19T14:32:04:652
79,000000	0,000000	806,000000	0,000000	2020-11-19T14:32:04:691
79,000000	0,000000	806,000000	0,000000	2020-11-19T14:32:04:732
79,000000	0,000000	806,000000	0,000000	2020-11-19T14:32:04:771
79,000000	0,000000	806,000000	0,000000	2020-11-19T14:32:04:812
79,000000	0,000000	806,000000	0,000000	2020-11-19T14:32:04:851
79,000000	0,000000	806,000000	0,000000	2020-11-19T14:32:04:892
79,000000	0,000000	806,000000	0,000000	2020-11-19T14:32:04:931
79,000000	0,000000	806,000000	0,000000	2020-11-19T14:32:04:972
79,000000	0,000000	806,000000	0,000000	2020-11-19T14:32:05:011
79,000000	0,000000	806,000000	0,000000	2020-11-19T14:32:05:054
79,000000	0,000000	804,000000	0,000000	2020-11-19T14:32:05:091
79,000000	0,000000	804,000000	0,000000	2020-11-19T14:32:05:133
79,000000	0,000000	804,000000	0,000000	2020-11-19T14:32:05:170
79,000000	0,000000	804,000000	0,000000	2020-11-19T14:32:05:212
79,000000	0,000000	804,000000	0,000000	2020-11-19T14:32:05:252
79,000000	0,000000	804,000000	0,000000	2020-11-19T14:32:05:291
79,000000	0,000000	804,000000	0,000000	2020-11-19T14:32:05:331
79,000000	0,000000	804,000000	0,000000	2020-11-19T14:32:05:372
79,000000	0,000000	804,000000	0,000000	2020-11-19T14:32:05:411
79,000000	0,000000	804,000000	0,000000	2020-11-19T14:32:05:452
79,000000	0,000000	804,000000	0,000000	2020-11-19T14:32:05:491
79,000000	0,000000	804,000000	0,000000	2020-11-19T14:32:05:533
79,000000	0,000000	804,000000	0,000000	2020-11-19T14:32:05:571
79,000000	0,000000	804,000000	0,000000	2020-11-19T14:32:05:613
79,000000	0,000000	804,000000	0,000000	2020-11-19T14:32:05:651
79,000000	0,000000	804,000000	0,000000	2020-11-19T14:32:05:693
79,000000	0,000000	804,000000	0,000000	2020-11-19T14:32:05:732
79,000000	0,000000	804,000000	0,000000	2020-11-19T14:32:05:773
79,000000	0,000000	804,000000	0,000000	2020-11-19T14:32:05:812
79,000000	0,000000	804,000000	0,000000	2020-11-19T14:32:05:853
79,000000	0,000000	804,000000	0,000000	2020-11-19T14:32:05:892
79,000000	0,000000	804,000000	0,000000	2020-11-19T14:32:05:934
79,000000	0,000000	804,000000	0,000000	2020-11-19T14:32:05:972
79,000000	0,000000	804,000000	0,000000	2020-11-19T14:32:06:012
79,000000	0,000000	788,000000	0,000000	2020-11-19T14:32:06:052
79,000000	0,000000	788,000000	0,000000	2020-11-19T14:32:06:093
79,000000	0,000000	788,000000	0,000000	2020-11-19T14:32:06:132
79,000000	0,000000	788,000000	0,000000	2020-11-19T14:32:06:173
79,000000	0,000000	788,000000	0,000000	2020-11-19T14:32:06:212
79,000000	0,000000	788,000000	0,000000	2020-11-19T14:32:06:253
79,000000	0,000000	788,000000	0,000000	2020-11-19T14:32:06:292
79,000000	0,000000	788,000000	0,000000	2020-11-19T14:32:06:334
79,000000	0,000000	788,000000	0,000000	2020-11-19T14:32:06:372
79,000000	0,000000	788,000000	0,000000	2020-11-19T14:32:06:413
79,000000	0,000000	788,000000	0,000000	2020-11-19T14:32:06:452
79,000000	0,000000	788,000000	0,000000	2020-11-19T14:32:06:493
79,000000	0,000000	788,000000	0,000000	2020-11-19T14:32:06:533
79,000000	0,000000	788,000000	0,000000	2020-11-19T14:32:06:574
79,000000	0,000000	788,000000	0,000000	2020-11-19T14:32:06:612
79,000000	0,000000	788,000000	0,000000	2020-11-19T14:32:06:653
79,000000	0,000000	788,000000	0,000000	2020-11-19T14:32:06:693
79,000000	0,000000	788,000000	0,000000	2020-11-19T14:32:06:734
79,000000	0,000000	801,000000	0,000000	2020-11-19T14:32:06:772
79,000000	0,000000	801,000000	0,000000	2020-11-19T14:32:06:814
79,000000	0,000000	801,000000	0,000000	2020-11-19T14:32:06:853
79,000000	0,000000	801,000000	0,000000	2020-11-19T14:32:06:894
79,000000	0,000000	801,000000	0,000000	2020-11-19T14:32:06:933
79,000000	0,000000	801,000000	0,000000	2020-11-19T14:32:06:974
79,000000	0,000000	801,000000	0,000000	2020-11-19T14:32:07:013
79,000000	0,000000	801,000000	0,000000	2020-11-19T14:32:07:054
79,000000	0,000000	801,000000	0,000000	2020-11-19T14:32:07:093
79,000000	0,000000	801,000000	0,000000	2020-11-19T14:32:07:134
79,000000	0,000000	801,000000	0,000000	2020-11-19T14:32:07:175
79,000000	0,000000	801,000000	0,000000	2020-11-19T14:32:07:214
79,000000	0,000000	801,000000	0,000000	2020-11-19T14:32:07:253
79,000000	0,000000	801,000000	0,000000	2020-11-19T14:32:07:294
79,000000	0,000000	801,000000	0,000000	2020-11-19T14:32:07:334
79,000000	0,000000	801,000000	0,000000	2020-11-19T14:32:07:374
79,000000	0,000000	801,000000	0,000000	2020-11-19T14:32:07:413
79,000000	0,000000	801,000000	0,000000	2020-11-19T14:32:07:454
79,000000	0,000000	761,000000	0,000000	2020-11-19T14:32:07:493
79,000000	0,000000	761,000000	0,000000	2020-11-19T14:32:07:535
79,000000	0,000000	761,000000	0,000000	2020-11-19T14:32:07:573
79,000000	0,000000	761,000000	0,000000	2020-11-19T14:32:07:614
79,000000	0,000000	761,000000	0,000000	2020-11-19T14:32:07:654
79,000000	0,000000	761,000000	0,000000	2020-11-19T14:32:07:695
79,000000	0,000000	761,000000	0,000000	2020-11-19T14:32:07:734
79,000000	0,000000	761,000000	0,000000	2020-11-19T14:32:07:775
79,000000	0,000000	761,000000	0,000000	2020-11-19T14:32:07:813
79,000000	0,000000	761,000000	0,000000	2020-11-19T14:32:07:854
79,000000	0,000000	761,000000	0,000000	2020-11-19T14:32:07:893
79,000000	0,000000	761,000000	0,000000	2020-11-19T14:32:07:935
79,000000	0,000000	761,000000	0,000000	2020-11-19T14:32:07:973
79,000000	0,000000	761,000000	0,000000	2020-11-19T14:32:08:015
79,000000	0,000000	761,000000	0,000000	2020-11-19T14:32:08:053
79,000000	0,000000	761,000000	0,000000	2020-11-19T14:32:08:095
79,000000	0,000000	761,000000	0,000000	2020-11-19T14:32:08:134
79,000000	0,000000	761,000000	0,000000	2020-11-19T14:32:08:174
79,000000	0,000000	761,000000	0,000000	2020-11-19T14:32:08:214
79,000000	0,000000	761,000000	0,000000	2020-11-19T14:32:08:255
79,000000	0,000000	761,000000	0,000000	2020-11-19T14:32:08:294
79,000000	0,000000	761,000000	0,000000	2020-11-19T14:32:08:335
79,000000	0,000000	761,000000	0,000000	2020-11-19T14:32:08:374
79,000000	0,000000	761,000000	0,000000	2020-11-19T14:32:08:415
79,000000	0,000000	822,000000	0,000000	2020-11-19T14:32:08:454
79,000000	0,000000	822,000000	0,000000	2020-11-19T14:32:08:496
79,000000	0,000000	822,000000	0,000000	2020-11-19T14:32:08:535
79,000000	0,000000	822,000000	0,000000	2020-11-19T14:32:08:576
79,000000	0,000000	822,000000	0,000000	2020-11-19T14:32:08:614
79,000000	0,000000	822,000000	0,000000	2020-11-19T14:32:08:656
79,000000	0,000000	822,000000	0,000000	2020-11-19T14:32:08:695
79,000000	0,000000	822,000000	0,000000	2020-11-19T14:32:08:736
79,000000	0,000000	822,000000	0,000000	2020-11-19T14:32:08:775
79,000000	0,000000	822,000000	0,000000	2020-11-19T14:32:08:816
79,000000	0,000000	822,000000	0,000000	2020-11-19T14:32:08:855
79,000000	0,000000	822,000000	0,000000	2020-11-19T14:32:08:896
79,000000	0,000000	822,000000	0,000000	2020-11-19T14:32:08:935
79,000000	0,000000	822,000000	0,000000	2020-11-19T14:32:08:979
79,000000	0,000000	822,000000	0,000000	2020-11-19T14:32:09:015
79,000000	0,000000	822,000000	0,000000	2020-11-19T14:32:09:056
79,000000	0,000000	822,000000	0,000000	2020-11-19T14:32:09:095
79,000000	0,000000	822,000000	0,000000	2020-11-19T14:32:09:136
79,000000	0,000000	775,000000	0,000000	2020-11-19T14:32:09:175
79,000000	0,000000	775,000000	0,000000	2020-11-19T14:32:09:217
79,000000	0,000000	775,000000	0,000000	2020-11-19T14:32:09:255
79,000000	0,000000	775,000000	0,000000	2020-11-19T14:32:09:296
79,000000	0,000000	775,000000	0,000000	2020-11-19T14:32:09:336
79,000000	0,000000	775,000000	0,000000	2020-11-19T14:32:09:376
79,000000	0,000000	775,000000	0,000000	2020-11-19T14:32:09:415
79,000000	0,000000	775,000000	0,000000	2020-11-19T14:32:09:457
79,000000	0,000000	775,000000	0,000000	2020-11-19T14:32:09:495
79,000000	0,000000	775,000000	0,000000	2020-11-19T14:32:09:537
79,000000	0,000000	775,000000	0,000000	2020-11-19T14:32:09:576
79,000000	0,000000	775,000000	0,000000	2020-11-19T14:32:09:617
79,000000	0,000000	775,000000	0,000000	2020-11-19T14:32:09:656
79,000000	0,000000	775,000000	0,000000	2020-11-19T14:32:09:697
79,000000	0,000000	775,000000	0,000000	2020-11-19T14:32:09:736
79,000000	0,000000	775,000000	0,000000	2020-11-19T14:32:09:777
79,000000	0,000000	775,000000	0,000000	2020-11-19T14:32:09:815
79,000000	0,000000	775,000000	0,000000	2020-11-19T14:32:09:857
79,000000	0,000000	799,000000	0,000000	2020-11-19T14:32:09:896
79,000000	0,000000	799,000000	0,000000	2020-11-19T14:32:09:938
79,000000	0,000000	799,000000	0,000000	2020-11-19T14:32:09:976
79,000000	0,000000	799,000000	0,000000	2020-11-19T14:32:10:017
79,000000	0,000000	799,000000	0,000000	2020-11-19T14:32:10:055
79,000000	0,000000	799,000000	0,000000	2020-11-19T14:32:10:096
79,000000	0,000000	799,000000	0,000000	2020-11-19T14:32:10:136
79,000000	0,000000	799,000000	0,000000	2020-11-19T14:32:10:178
79,000000	0,000000	799,000000	0,000000	2020-11-19T14:32:10:218
79,000000	0,000000	799,000000	0,000000	2020-11-19T14:32:10:258
79,000000	0,000000	799,000000	0,000000	2020-11-19T14:32:10:298
79,000000	0,000000	799,000000	0,000000	2020-11-19T14:32:10:341
79,000000	0,000000	799,000000	0,000000	2020-11-19T14:32:10:377
79,000000	0,000000	799,000000	0,000000	2020-11-19T14:32:10:440
79,000000	0,000000	799,000000	0,000000	2020-11-19T14:32:10:458
79,000000	0,000000	799,000000	0,000000	2020-11-19T14:32:10:498
79,000000	0,000000	799,000000	0,000000	2020-11-19T14:32:10:568
79,000000	0,000000	799,000000	0,000000	2020-11-19T14:32:10:651
79,000000	0,000000	741,000000	0,000000	2020-11-19T14:32:10:652
79,000000	0,000000	741,000000	0,000000	2020-11-19T14:32:10:723
79,000000	0,000000	741,000000	0,000000	2020-11-19T14:32:10:724
79,000000	0,000000	741,000000	0,000000	2020-11-19T14:32:10:786
79,000000	0,000000	741,000000	0,000000	2020-11-19T14:32:10:792
79,000000	0,000000	741,000000	0,000000	2020-11-19T14:32:10:816
79,000000	0,000000	741,000000	0,000000	2020-11-19T14:32:10:854
79,000000	0,000000	741,000000	0,000000	2020-11-19T14:32:10:899
79,000000	0,000000	741,000000	0,000000	2020-11-19T14:32:10:935
79,000000	0,000000	741,000000	0,000000	2020-11-19T14:32:10:975
79,000000	0,000000	741,000000	0,000000	2020-11-19T14:32:11:014
79,000000	0,000000	741,000000	0,000000	2020-11-19T14:32:11:056
79,000000	0,000000	741,000000	0,000000	2020-11-19T14:32:11:096
79,000000	0,000000	741,000000	0,000000	2020-11-19T14:32:11:142
79,000000	0,000000	741,000000	0,000000	2020-11-19T14:32:11:183
79,000000	0,000000	741,000000	0,000000	2020-11-19T14:32:11:216
79,000000	0,000000	741,000000	0,000000	2020-11-19T14:32:11:256
79,000000	0,000000	741,000000	0,000000	2020-11-19T14:32:11:302
79,000000	0,000000	775,000000	0,000000	2020-11-19T14:32:11:336
79,000000	0,000000	775,000000	0,000000	2020-11-19T14:32:11:377
79,000000	0,000000	775,000000	0,000000	2020-11-19T14:32:11:423
79,000000	0,000000	775,000000	0,000000	2020-11-19T14:32:11:461
79,000000	0,000000	775,000000	0,000000	2020-11-19T14:32:11:497
79,000000	0,000000	775,000000	0,000000	2020-11-19T14:32:11:538
79,000000	0,000000	775,000000	0,000000	2020-11-19T14:32:11:577
79,000000	0,000000	775,000000	0,000000	2020-11-19T14:32:11:619
79,000000	0,000000	775,000000	0,000000	2020-11-19T14:32:11:658
79,000000	0,000000	775,000000	0,000000	2020-11-19T14:32:11:699
79,000000	0,000000	775,000000	0,000000	2020-11-19T14:32:11:738
79,000000	0,000000	775,000000	0,000000	2020-11-19T14:32:11:779
79,000000	0,000000	775,000000	0,000000	2020-11-19T14:32:11:817
79,000000	0,000000	775,000000	0,000000	2020-11-19T14:32:11:859
79,000000	0,000000	775,000000	0,000000	2020-11-19T14:32:11:897
79,000000	0,000000	775,000000	0,000000	2020-11-19T14:32:11:939
79,000000	0,000000	775,000000	0,000000	2020-11-19T14:32:11:979
79,000000	0,000000	775,000000	0,000000	2020-11-19T14:32:12:020
79,000000	0,000000	733,000000	0,000000	2020-11-19T14:32:12:058
79,000000	0,000000	733,000000	0,000000	2020-11-19T14:32:12:099
79,000000	0,000000	733,000000	0,000000	2020-11-19T14:32:12:138
79,000000	0,000000	733,000000	0,000000	2020-11-19T14:32:12:179
79,000000	0,000000	733,000000	0,000000	2020-11-19T14:32:12:218
79,000000	0,000000	733,000000	0,000000	2020-11-19T14:32:12:259
79,000000	0,000000	733,000000	0,000000	2020-11-19T14:32:12:298
79,000000	0,000000	733,000000	0,000000	2020-11-19T14:32:12:340
79,000000	0,000000	733,000000	0,000000	2020-11-19T14:32:12:378
79,000000	0,000000	733,000000	0,000000	2020-11-19T14:32:12:419
79,000000	0,000000	733,000000	0,000000	2020-11-19T14:32:12:459
79,000000	0,000000	733,000000	0,000000	2020-11-19T14:32:12:499
79,000000	0,000000	733,000000	0,000000	2020-11-19T14:32:12:539
79,000000	0,000000	733,000000	0,000000	2020-11-19T14:32:12:580
79,000000	0,000000	733,000000	0,000000	2020-11-19T14:32:12:618
79,000000	0,000000	733,000000	0,000000	2020-11-19T14:32:12:660
79,000000	0,000000	733,000000	0,000000	2020-11-19T14:32:12:699
80,000000	0,000000	733,000000	0,000000	2020-11-19T14:32:12:740
80,000000	0,000000	733,000000	0,000000	2020-11-19T14:32:12:778
80,000000	0,000000	733,000000	0,000000	2020-11-19T14:32:12:820
80,000000	0,000000	733,000000	0,000000	2020-11-19T14:32:12:859
80,000000	0,000000	733,000000	0,000000	2020-11-19T14:32:12:900
80,000000	0,000000	733,000000	0,000000	2020-11-19T14:32:12:939
80,000000	0,000000	733,000000	0,000000	2020-11-19T14:32:12:980
80,000000	0,000000	733,000000	0,000000	2020-11-19T14:32:13:019
80,000000	0,000000	733,000000	0,000000	2020-11-19T14:32:13:060
80,000000	0,000000	733,000000	0,000000	2020-11-19T14:32:13:099
80,000000	0,000000	733,000000	0,000000	2020-11-19T14:32:13:140
80,000000	0,000000	733,000000	0,000000	2020-11-19T14:32:13:179
80,000000	0,000000	733,000000	0,000000	2020-11-19T14:32:13:220
80,000000	0,000000	733,000000	0,000000	2020-11-19T14:32:13:259
80,000000	0,000000	733,000000	0,000000	2020-11-19T14:32:13:300
80,000000	0,000000	733,000000	0,000000	2020-11-19T14:32:13:339
80,000000	0,000000	733,000000	0,000000	2020-11-19T14:32:13:380
80,000000	0,000000	733,000000	0,000000	2020-11-19T14:32:13:419
80,000000	0,000000	733,000000	0,000000	2020-11-19T14:32:13:460
80,000000	0,000000	733,000000	0,000000	2020-11-19T14:32:13:499
80,000000	0,000000	733,000000	0,000000	2020-11-19T14:32:13:541
80,000000	0,000000	733,000000	0,000000	2020-11-19T14:32:13:579
80,000000	0,000000	733,000000	0,000000	2020-11-19T14:32:13:621
80,000000	0,000000	733,000000	0,000000	2020-11-19T14:32:13:659
80,000000	0,000000	733,000000	0,000000	2020-11-19T14:32:13:700
80,000000	0,000000	733,000000	0,000000	2020-11-19T14:32:13:740
80,000000	0,000000	733,000000	0,000000	2020-11-19T14:32:13:781
80,000000	0,000000	733,000000	0,000000	2020-11-19T14:32:13:819
81,000000	0,000000	733,000000	0,000000	2020-11-19T14:32:13:861
81,000000	0,000000	733,000000	0,000000	2020-11-19T14:32:13:900
81,000000	0,000000	733,000000	0,000000	2020-11-19T14:32:13:941
81,000000	0,000000	733,000000	0,000000	2020-11-19T14:32:13:980
81,000000	0,000000	733,000000	0,000000	2020-11-19T14:32:14:021
81,000000	0,000000	733,000000	0,000000	2020-11-19T14:32:14:060
81,000000	0,000000	733,000000	0,000000	2020-11-19T14:32:14:101
81,000000	0,000000	733,000000	0,000000	2020-11-19T14:32:14:140
81,000000	0,000000	733,000000	0,000000	2020-11-19T14:32:14:181
81,000000	0,000000	733,000000	0,000000	2020-11-19T14:32:14:220
81,000000	0,000000	733,000000	0,000000	2020-11-19T14:32:14:261
81,000000	0,000000	733,000000	0,000000	2020-11-19T14:32:14:300
81,000000	0,000000	733,000000	0,000000	2020-11-19T14:32:14:341
81,000000	0,000000	733,000000	0,000000	2020-11-19T14:32:14:380
81,000000	0,000000	733,000000	0,000000	2020-11-19T14:32:14:421
81,000000	0,000000	733,000000	0,000000	2020-11-19T14:32:14:460
81,000000	0,000000	733,000000	0,000000	2020-11-19T14:32:14:503
81,000000	0,000000	733,000000	0,000000	2020-11-19T14:32:14:542
81,000000	0,000000	733,000000	0,000000	2020-11-19T14:32:14:583
81,000000	0,000000	733,000000	0,000000	2020-11-19T14:32:14:624
81,000000	0,000000	733,000000	0,000000	2020-11-19T14:32:14:661
81,000000	0,000000	733,000000	0,000000	2020-11-19T14:32:14:700
81,000000	0,000000	733,000000	0,000000	2020-11-19T14:32:14:748
81,000000	0,000000	733,000000	0,000000	2020-11-19T14:32:14:781
81,000000	0,000000	733,000000	0,000000	2020-11-19T14:32:14:822
81,000000	0,000000	733,000000	0,000000	2020-11-19T14:32:14:860
81,000000	0,000000	733,000000	0,000000	2020-11-19T14:32:14:902
81,000000	0,000000	733,000000	0,000000	2020-11-19T14:32:14:943
81,000000	0,000000	733,000000	0,000000	2020-11-19T14:32:14:990
81,000000	0,000000	733,000000	0,000000	2020-11-19T14:32:15:023
81,000000	0,000000	733,000000	0,000000	2020-11-19T14:32:15:065
81,000000	0,000000	733,000000	0,000000	2020-11-19T14:32:15:106
81,000000	0,000000	733,000000	0,000000	2020-11-19T14:32:15:147
81,000000	0,000000	733,000000	0,000000	2020-11-19T14:32:15:183
82,000000	0,000000	733,000000	0,000000	2020-11-19T14:32:15:232
82,000000	0,000000	733,000000	0,000000	2020-11-19T14:32:15:263
82,000000	0,000000	733,000000	0,000000	2020-11-19T14:32:15:304
82,000000	0,000000	733,000000	0,000000	2020-11-19T14:32:15:342
82,000000	0,000000	733,000000	0,000000	2020-11-19T14:32:15:382
82,000000	0,000000	733,000000	0,000000	2020-11-19T14:32:15:420
82,000000	0,000000	733,000000	0,000000	2020-11-19T14:32:15:462
82,000000	0,000000	733,000000	0,000000	2020-11-19T14:32:15:501
82,000000	0,000000	733,000000	0,000000	2020-11-19T14:32:15:543
82,000000	0,000000	733,000000	0,000000	2020-11-19T14:32:15:581
82,000000	0,000000	733,000000	0,000000	2020-11-19T14:32:15:622
82,000000	0,000000	733,000000	0,000000	2020-11-19T14:32:15:661
82,000000	0,000000	733,000000	0,000000	2020-11-19T14:32:15:702
82,000000	0,000000	733,000000	0,000000	2020-11-19T14:32:15:741
82,000000	0,000000	733,000000	0,000000	2020-11-19T14:32:15:782
82,000000	0,000000	733,000000	0,000000	2020-11-19T14:32:15:822
82,000000	0,000000	733,000000	0,000000	2020-11-19T14:32:15:870
82,000000	0,000000	733,000000	0,000000	2020-11-19T14:32:15:901
82,000000	0,000000	733,000000	0,000000	2020-11-19T14:32:15:943
82,000000	0,000000	733,000000	0,000000	2020-11-19T14:32:15:981
82,000000	0,000000	733,000000	0,000000	2020-11-19T14:32:16:022
82,000000	0,000000	733,000000	0,000000	2020-11-19T14:32:16:062
83,000000	0,000000	733,000000	0,000000	2020-11-19T14:32:16:102
83,000000	0,000000	733,000000	0,000000	2020-11-19T14:32:16:142
83,000000	0,000000	733,000000	0,000000	2020-11-19T14:32:16:183
82,000000	0,000000	733,000000	0,000000	2020-11-19T14:32:16:221
82,000000	0,000000	733,000000	0,000000	2020-11-19T14:32:16:263
83,000000	0,000000	733,000000	0,000000	2020-11-19T14:32:16:302
83,000000	0,000000	733,000000	0,000000	2020-11-19T14:32:16:343
82,000000	0,000000	733,000000	0,000000	2020-11-19T14:32:16:382
83,000000	0,000000	733,000000	0,000000	2020-11-19T14:32:16:423
83,000000	0,000000	733,000000	0,000000	2020-11-19T14:32:16:462
83,000000	0,000000	733,000000	0,000000	2020-11-19T14:32:16:503
83,000000	0,000000	733,000000	0,000000	2020-11-19T14:32:16:542
83,000000	0,000000	733,000000	0,000000	2020-11-19T14:32:16:583
83,000000	0,000000	733,000000	0,000000	2020-11-19T14:32:16:622
83,000000	0,000000	733,000000	0,000000	2020-11-19T14:32:16:663
83,000000	0,000000	733,000000	0,000000	2020-11-19T14:32:16:702
83,000000	0,000000	733,000000	0,000000	2020-11-19T14:32:16:743
83,000000	0,000000	733,000000	0,000000	2020-11-19T14:32:16:781
83,000000	0,000000	733,000000	0,000000	2020-11-19T14:32:16:823
83,000000	0,000000	737,000000	0,000000	2020-11-19T14:32:16:862
83,000000	0,000000	737,000000	0,000000	2020-11-19T14:32:16:903
83,000000	0,000000	737,000000	0,000000	2020-11-19T14:32:16:943
83,000000	0,000000	737,000000	0,000000	2020-11-19T14:32:16:984
83,000000	0,000000	737,000000	0,000000	2020-11-19T14:32:17:025
83,000000	0,000000	737,000000	0,000000	2020-11-19T14:32:17:064
83,000000	0,000000	737,000000	0,000000	2020-11-19T14:32:17:103
83,000000	0,000000	737,000000	0,000000	2020-11-19T14:32:17:144
83,000000	0,000000	737,000000	0,000000	2020-11-19T14:32:17:183
83,000000	0,000000	737,000000	0,000000	2020-11-19T14:32:17:224
83,000000	0,000000	737,000000	0,000000	2020-11-19T14:32:17:263
83,000000	0,000000	737,000000	0,000000	2020-11-19T14:32:17:304
83,000000	0,000000	737,000000	0,000000	2020-11-19T14:32:17:343
83,000000	0,000000	737,000000	0,000000	2020-11-19T14:32:17:383
83,000000	0,000000	737,000000	0,000000	2020-11-19T14:32:17:422
83,000000	0,000000	737,000000	0,000000	2020-11-19T14:32:17:463
83,000000	0,000000	737,000000	0,000000	2020-11-19T14:32:17:503
83,000000	0,000000	737,000000	0,000000	2020-11-19T14:32:17:544
83,000000	0,000000	737,000000	0,000000	2020-11-19T14:32:17:583
83,000000	0,000000	737,000000	0,000000	2020-11-19T14:32:17:624
83,000000	0,000000	737,000000	0,000000	2020-11-19T14:32:17:664
83,000000	0,000000	737,000000	0,000000	2020-11-19T14:32:17:704
83,000000	0,000000	737,000000	0,000000	2020-11-19T14:32:17:743
83,000000	0,000000	737,000000	0,000000	2020-11-19T14:32:17:784
83,000000	0,000000	756,000000	0,000000	2020-11-19T14:32:17:823
83,000000	0,000000	756,000000	0,000000	2020-11-19T14:32:17:864
83,000000	0,000000	756,000000	0,000000	2020-11-19T14:32:17:903
83,000000	0,000000	756,000000	0,000000	2020-11-19T14:32:17:945
83,000000	0,000000	756,000000	0,000000	2020-11-19T14:32:17:983
83,000000	0,000000	756,000000	0,000000	2020-11-19T14:32:18:024
83,000000	0,000000	756,000000	0,000000	2020-11-19T14:32:18:063
83,000000	0,000000	756,000000	0,000000	2020-11-19T14:32:18:105
83,000000	0,000000	756,000000	0,000000	2020-11-19T14:32:18:144
83,000000	0,000000	756,000000	0,000000	2020-11-19T14:32:18:185
83,000000	0,000000	756,000000	0,000000	2020-11-19T14:32:18:223
83,000000	0,000000	756,000000	0,000000	2020-11-19T14:32:18:265
83,000000	0,000000	775,000000	0,000000	2020-11-19T14:32:18:304
83,000000	0,000000	775,000000	0,000000	2020-11-19T14:32:18:346
83,000000	0,000000	775,000000	0,000000	2020-11-19T14:32:18:384
83,000000	0,000000	775,000000	0,000000	2020-11-19T14:32:18:425
83,000000	0,000000	775,000000	0,000000	2020-11-19T14:32:18:464
83,000000	0,000000	775,000000	0,000000	2020-11-19T14:32:18:505
83,000000	0,000000	775,000000	0,000000	2020-11-19T14:32:18:544
83,000000	0,000000	775,000000	0,000000	2020-11-19T14:32:18:586
83,000000	0,000000	775,000000	0,000000	2020-11-19T14:32:18:624
83,000000	0,000000	775,000000	0,000000	2020-11-19T14:32:18:665
83,000000	0,000000	775,000000	0,000000	2020-11-19T14:32:18:704
83,000000	0,000000	775,000000	0,000000	2020-11-19T14:32:18:746
83,000000	0,000000	775,000000	0,000000	2020-11-19T14:32:18:783
83,000000	0,000000	775,000000	0,000000	2020-11-19T14:32:18:827
83,000000	0,000000	775,000000	0,000000	2020-11-19T14:32:18:866
83,000000	0,000000	775,000000	0,000000	2020-11-19T14:32:18:927
83,000000	0,000000	775,000000	0,000000	2020-11-19T14:32:18:945
83,000000	0,000000	775,000000	0,000000	2020-11-19T14:32:18:990
83,000000	0,000000	775,000000	0,000000	2020-11-19T14:32:19:024
83,000000	0,000000	775,000000	0,000000	2020-11-19T14:32:19:065
83,000000	0,000000	775,000000	0,000000	2020-11-19T14:32:19:105
83,000000	0,000000	775,000000	0,000000	2020-11-19T14:32:19:146
83,000000	0,000000	775,000000	0,000000	2020-11-19T14:32:19:185
83,000000	0,000000	775,000000	0,000000	2020-11-19T14:32:19:226
83,000000	0,000000	714,000000	0,000000	2020-11-19T14:32:19:265
83,000000	0,000000	714,000000	0,000000	2020-11-19T14:32:19:307
83,000000	0,000000	714,000000	0,000000	2020-11-19T14:32:19:345
83,000000	0,000000	714,000000	0,000000	2020-11-19T14:32:19:386
83,000000	0,000000	714,000000	0,000000	2020-11-19T14:32:19:425
83,000000	0,000000	714,000000	0,000000	2020-11-19T14:32:19:465
83,000000	0,000000	714,000000	0,000000	2020-11-19T14:32:19:505
83,000000	0,000000	714,000000	0,000000	2020-11-19T14:32:19:547
83,000000	0,000000	714,000000	0,000000	2020-11-19T14:32:19:584
83,000000	0,000000	714,000000	0,000000	2020-11-19T14:32:19:625
83,000000	0,000000	714,000000	0,000000	2020-11-19T14:32:19:665
83,000000	0,000000	714,000000	0,000000	2020-11-19T14:32:19:706
83,000000	0,000000	714,000000	0,000000	2020-11-19T14:32:19:745
83,000000	0,000000	714,000000	0,000000	2020-11-19T14:32:19:786
83,000000	0,000000	714,000000	0,000000	2020-11-19T14:32:19:825
83,000000	0,000000	714,000000	0,000000	2020-11-19T14:32:19:867
83,000000	0,000000	714,000000	0,000000	2020-11-19T14:32:19:905
83,000000	0,000000	714,000000	0,000000	2020-11-19T14:32:19:947
83,000000	0,000000	741,000000	0,000000	2020-11-19T14:32:19:986
83,000000	0,000000	741,000000	0,000000	2020-11-19T14:32:20:027
83,000000	0,000000	741,000000	0,000000	2020-11-19T14:32:20:065
83,000000	0,000000	741,000000	0,000000	2020-11-19T14:32:20:107
83,000000	0,000000	741,000000	0,000000	2020-11-19T14:32:20:147
83,000000	0,000000	741,000000	0,000000	2020-11-19T14:32:20:187
83,000000	0,000000	741,000000	0,000000	2020-11-19T14:32:20:226
83,000000	0,000000	741,000000	0,000000	2020-11-19T14:32:20:267
83,000000	0,000000	741,000000	0,000000	2020-11-19T14:32:20:306
83,000000	0,000000	741,000000	0,000000	2020-11-19T14:32:20:347
83,000000	0,000000	741,000000	0,000000	2020-11-19T14:32:20:386
83,000000	0,000000	741,000000	0,000000	2020-11-19T14:32:20:427
82,000000	0,000000	741,000000	0,000000	2020-11-19T14:32:20:466
83,000000	0,000000	741,000000	0,000000	2020-11-19T14:32:20:507
83,000000	0,000000	741,000000	0,000000	2020-11-19T14:32:20:546
83,000000	0,000000	741,000000	0,000000	2020-11-19T14:32:20:587
82,000000	0,000000	741,000000	0,000000	2020-11-19T14:32:20:626
82,000000	0,000000	741,000000	0,000000	2020-11-19T14:32:20:667
83,000000	0,000000	744,000000	0,000000	2020-11-19T14:32:20:706
83,000000	0,000000	744,000000	0,000000	2020-11-19T14:32:20:748
82,000000	0,000000	744,000000	0,000000	2020-11-19T14:32:20:786
82,000000	0,000000	744,000000	0,000000	2020-11-19T14:32:20:827
83,000000	0,000000	744,000000	0,000000	2020-11-19T14:32:20:871
83,000000	0,000000	744,000000	0,000000	2020-11-19T14:32:20:907
83,000000	0,000000	744,000000	0,000000	2020-11-19T14:32:20:947
82,000000	0,000000	744,000000	0,000000	2020-11-19T14:32:20:988
82,000000	0,000000	744,000000	0,000000	2020-11-19T14:32:21:026
83,000000	0,000000	744,000000	0,000000	2020-11-19T14:32:21:067
83,000000	0,000000	744,000000	0,000000	2020-11-19T14:32:21:106
82,000000	0,000000	744,000000	0,000000	2020-11-19T14:32:21:148
82,000000	0,000000	744,000000	0,000000	2020-11-19T14:32:21:187
82,000000	0,000000	744,000000	0,000000	2020-11-19T14:32:21:228
83,000000	0,000000	744,000000	0,000000	2020-11-19T14:32:21:267
82,000000	0,000000	744,000000	0,000000	2020-11-19T14:32:21:309
82,000000	0,000000	744,000000	0,000000	2020-11-19T14:32:21:347
82,000000	0,000000	744,000000	0,000000	2020-11-19T14:32:21:388
82,000000	0,000000	740,000000	0,000000	2020-11-19T14:32:21:426
82,000000	0,000000	740,000000	0,000000	2020-11-19T14:32:21:468
82,000000	0,000000	740,000000	0,000000	2020-11-19T14:32:21:507
82,000000	0,000000	740,000000	0,000000	2020-11-19T14:32:21:549
83,000000	0,000000	740,000000	0,000000	2020-11-19T14:32:21:587
83,000000	0,000000	740,000000	0,000000	2020-11-19T14:32:21:628
82,000000	0,000000	740,000000	0,000000	2020-11-19T14:32:21:667
82,000000	0,000000	740,000000	0,000000	2020-11-19T14:32:21:708
82,000000	0,000000	740,000000	0,000000	2020-11-19T14:32:21:747
82,000000	0,000000	740,000000	0,000000	2020-11-19T14:32:21:789
82,000000	0,000000	740,000000	0,000000	2020-11-19T14:32:21:827
82,000000	0,000000	740,000000	0,000000	2020-11-19T14:32:21:868
82,000000	0,000000	740,000000	0,000000	2020-11-19T14:32:21:907
83,000000	0,000000	740,000000	0,000000	2020-11-19T14:32:21:949
83,000000	0,000000	740,000000	0,000000	2020-11-19T14:32:21:987
83,000000	0,000000	740,000000	0,000000	2020-11-19T14:32:22:028
82,000000	0,000000	740,000000	0,000000	2020-11-19T14:32:22:067
82,000000	0,000000	740,000000	0,000000	2020-11-19T14:32:22:108
83,000000	0,000000	712,000000	0,000000	2020-11-19T14:32:22:148
82,000000	0,000000	712,000000	0,000000	2020-11-19T14:32:22:188
82,000000	0,000000	712,000000	0,000000	2020-11-19T14:32:22:227
82,000000	0,000000	712,000000	0,000000	2020-11-19T14:32:22:269
83,000000	0,000000	712,000000	0,000000	2020-11-19T14:32:22:308
83,000000	0,000000	712,000000	0,000000	2020-11-19T14:32:22:349
83,000000	0,000000	712,000000	0,000000	2020-11-19T14:32:22:388
82,000000	0,000000	712,000000	0,000000	2020-11-19T14:32:22:429
82,000000	0,000000	712,000000	0,000000	2020-11-19T14:32:22:467
83,000000	0,000000	712,000000	0,000000	2020-11-19T14:32:22:509
83,000000	0,000000	712,000000	0,000000	2020-11-19T14:32:22:548
82,000000	0,000000	712,000000	0,000000	2020-11-19T14:32:22:590
83,000000	0,000000	712,000000	0,000000	2020-11-19T14:32:22:628
83,000000	0,000000	712,000000	0,000000	2020-11-19T14:32:22:670
83,000000	0,000000	712,000000	0,000000	2020-11-19T14:32:22:708
83,000000	0,000000	712,000000	0,000000	2020-11-19T14:32:22:749
83,000000	0,000000	712,000000	0,000000	2020-11-19T14:32:22:788
83,000000	0,000000	712,000000	0,000000	2020-11-19T14:32:22:829
83,000000	0,000000	716,000000	0,000000	2020-11-19T14:32:22:869
83,000000	0,000000	716,000000	0,000000	2020-11-19T14:32:22:910
83,000000	0,000000	716,000000	0,000000	2020-11-19T14:32:22:949
83,000000	0,000000	716,000000	0,000000	2020-11-19T14:32:22:989
83,000000	0,000000	716,000000	0,000000	2020-11-19T14:32:23:028
83,000000	0,000000	716,000000	0,000000	2020-11-19T14:32:23:069
83,000000	0,000000	716,000000	0,000000	2020-11-19T14:32:23:109
83,000000	0,000000	716,000000	0,000000	2020-11-19T14:32:23:150
83,000000	0,000000	716,000000	0,000000	2020-11-19T14:32:23:189
83,000000	0,000000	716,000000	0,000000	2020-11-19T14:32:23:230
83,000000	0,000000	716,000000	0,000000	2020-11-19T14:32:23:269
83,000000	0,000000	716,000000	0,000000	2020-11-19T14:32:23:309
83,000000	0,000000	716,000000	0,000000	2020-11-19T14:32:23:349
83,000000	0,000000	716,000000	0,000000	2020-11-19T14:32:23:390
83,000000	0,000000	716,000000	0,000000	2020-11-19T14:32:23:429
83,000000	0,000000	716,000000	0,000000	2020-11-19T14:32:23:470
83,000000	0,000000	716,000000	0,000000	2020-11-19T14:32:23:509
83,000000	0,000000	716,000000	0,000000	2020-11-19T14:32:23:550
83,000000	0,000000	713,000000	0,000000	2020-11-19T14:32:23:589
83,000000	0,000000	713,000000	0,000000	2020-11-19T14:32:23:630
83,000000	0,000000	713,000000	0,000000	2020-11-19T14:32:23:669
83,000000	0,000000	713,000000	0,000000	2020-11-19T14:32:23:710
83,000000	0,000000	713,000000	0,000000	2020-11-19T14:32:23:749
83,000000	0,000000	713,000000	0,000000	2020-11-19T14:32:23:790
83,000000	0,000000	713,000000	0,000000	2020-11-19T14:32:23:829
83,000000	0,000000	713,000000	0,000000	2020-11-19T14:32:23:871
83,000000	0,000000	713,000000	0,000000	2020-11-19T14:32:23:909
83,000000	0,000000	713,000000	0,000000	2020-11-19T14:32:23:951
83,000000	0,000000	713,000000	0,000000	2020-11-19T14:32:23:988
83,000000	0,000000	713,000000	0,000000	2020-11-19T14:32:24:030
83,000000	0,000000	713,000000	0,000000	2020-11-19T14:32:24:069
83,000000	0,000000	713,000000	0,000000	2020-11-19T14:32:24:111
83,000000	0,000000	713,000000	0,000000	2020-11-19T14:32:24:150
83,000000	0,000000	713,000000	0,000000	2020-11-19T14:32:24:191
83,000000	0,000000	713,000000	0,000000	2020-11-19T14:32:24:230
83,000000	0,000000	713,000000	0,000000	2020-11-19T14:32:24:271
83,000000	0,000000	713,000000	0,000000	2020-11-19T14:32:24:310
83,000000	0,000000	713,000000	0,000000	2020-11-19T14:32:24:351
83,000000	0,000000	713,000000	0,000000	2020-11-19T14:32:24:389
83,000000	0,000000	713,000000	0,000000	2020-11-19T14:32:24:431
83,000000	0,000000	713,000000	0,000000	2020-11-19T14:32:24:470
83,000000	0,000000	713,000000	0,000000	2020-11-19T14:32:24:511
83,000000	0,000000	713,000000	0,000000	2020-11-19T14:32:24:550
83,000000	0,000000	713,000000	0,000000	2020-11-19T14:32:24:591
83,000000	0,000000	713,000000	0,000000	2020-11-19T14:32:24:630
83,000000	0,000000	713,000000	0,000000	2020-11-19T14:32:24:671
83,000000	0,000000	713,000000	0,000000	2020-11-19T14:32:24:710
83,000000	0,000000	713,000000	0,000000	2020-11-19T14:32:24:752
83,000000	0,000000	713,000000	0,000000	2020-11-19T14:32:24:791
83,000000	0,000000	713,000000	0,000000	2020-11-19T14:32:24:831
83,000000	0,000000	713,000000	0,000000	2020-11-19T14:32:24:870
83,000000	0,000000	713,000000	0,000000	2020-11-19T14:32:24:911
83,000000	0,000000	713,000000	0,000000	2020-11-19T14:32:24:951
83,000000	0,000000	713,000000	0,000000	2020-11-19T14:32:24:992
83,000000	0,000000	696,000000	0,000000	2020-11-19T14:32:25:031
83,000000	0,000000	696,000000	0,000000	2020-11-19T14:32:25:072
83,000000	0,000000	696,000000	0,000000	2020-11-19T14:32:25:111
83,000000	0,000000	696,000000	0,000000	2020-11-19T14:32:25:152
83,000000	0,000000	696,000000	0,000000	2020-11-19T14:32:25:191
83,000000	0,000000	696,000000	0,000000	2020-11-19T14:32:25:232
83,000000	0,000000	696,000000	0,000000	2020-11-19T14:32:25:271
83,000000	0,000000	696,000000	0,000000	2020-11-19T14:32:25:312
83,000000	0,000000	696,000000	0,000000	2020-11-19T14:32:25:351
83,000000	0,000000	696,000000	0,000000	2020-11-19T14:32:25:392
83,000000	0,000000	696,000000	0,000000	2020-11-19T14:32:25:431
83,000000	0,000000	696,000000	0,000000	2020-11-19T14:32:25:472
83,000000	0,000000	696,000000	0,000000	2020-11-19T14:32:25:511
83,000000	0,000000	696,000000	0,000000	2020-11-19T14:32:25:553
83,000000	0,000000	696,000000	0,000000	2020-11-19T14:32:25:591
83,000000	0,000000	696,000000	0,000000	2020-11-19T14:32:25:632
83,000000	0,000000	696,000000	0,000000	2020-11-19T14:32:25:671
83,000000	0,000000	696,000000	0,000000	2020-11-19T14:32:25:712
83,000000	0,000000	721,000000	0,000000	2020-11-19T14:32:25:752
83,000000	0,000000	721,000000	0,000000	2020-11-19T14:32:25:793
83,000000	0,000000	721,000000	0,000000	2020-11-19T14:32:25:831
83,000000	0,000000	721,000000	0,000000	2020-11-19T14:32:25:872
83,000000	0,000000	721,000000	0,000000	2020-11-19T14:32:25:912
83,000000	0,000000	721,000000	0,000000	2020-11-19T14:32:25:953
83,000000	0,000000	721,000000	0,000000	2020-11-19T14:32:25:998
83,000000	0,000000	721,000000	0,000000	2020-11-19T14:32:26:033
83,000000	0,000000	721,000000	0,000000	2020-11-19T14:32:26:071
83,000000	0,000000	721,000000	0,000000	2020-11-19T14:32:26:113
83,000000	0,000000	721,000000	0,000000	2020-11-19T14:32:26:152
83,000000	0,000000	721,000000	0,000000	2020-11-19T14:32:26:193
83,000000	0,000000	721,000000	0,000000	2020-11-19T14:32:26:232
83,000000	0,000000	721,000000	0,000000	2020-11-19T14:32:26:273
83,000000	0,000000	721,000000	0,000000	2020-11-19T14:32:26:312
83,000000	0,000000	721,000000	0,000000	2020-11-19T14:32:26:353
83,000000	0,000000	721,000000	0,000000	2020-11-19T14:32:26:392
83,000000	0,000000	721,000000	0,000000	2020-11-19T14:32:26:433
83,000000	0,000000	727,000000	0,000000	2020-11-19T14:32:26:472
83,000000	0,000000	727,000000	0,000000	2020-11-19T14:32:26:513
83,000000	0,000000	727,000000	0,000000	2020-11-19T14:32:26:552
83,000000	0,000000	727,000000	0,000000	2020-11-19T14:32:26:593
83,000000	0,000000	727,000000	0,000000	2020-11-19T14:32:26:632
83,000000	0,000000	727,000000	0,000000	2020-11-19T14:32:26:673
83,000000	0,000000	727,000000	0,000000	2020-11-19T14:32:26:712
83,000000	0,000000	727,000000	0,000000	2020-11-19T14:32:26:754
83,000000	0,000000	727,000000	0,000000	2020-11-19T14:32:26:792
83,000000	0,000000	727,000000	0,000000	2020-11-19T14:32:26:833
83,000000	0,000000	727,000000	0,000000	2020-11-19T14:32:26:872
83,000000	0,000000	727,000000	0,000000	2020-11-19T14:32:26:913
83,000000	0,000000	727,000000	0,000000	2020-11-19T14:32:26:953
83,000000	0,000000	727,000000	0,000000	2020-11-19T14:32:26:994
83,000000	0,000000	727,000000	0,000000	2020-11-19T14:32:27:032
83,000000	0,000000	727,000000	0,000000	2020-11-19T14:32:27:073
83,000000	0,000000	727,000000	0,000000	2020-11-19T14:32:27:113
83,000000	0,000000	727,000000	0,000000	2020-11-19T14:32:27:154
83,000000	0,000000	765,000000	0,000000	2020-11-19T14:32:27:193
83,000000	0,000000	765,000000	0,000000	2020-11-19T14:32:27:234
83,000000	0,000000	765,000000	0,000000	2020-11-19T14:32:27:272
83,000000	0,000000	765,000000	0,000000	2020-11-19T14:32:27:314
83,000000	0,000000	765,000000	0,000000	2020-11-19T14:32:27:353
83,000000	0,000000	765,000000	0,000000	2020-11-19T14:32:27:394
83,000000	0,000000	765,000000	0,000000	2020-11-19T14:32:27:433
83,000000	0,000000	765,000000	0,000000	2020-11-19T14:32:27:474
83,000000	0,000000	765,000000	0,000000	2020-11-19T14:32:27:513
83,000000	0,000000	765,000000	0,000000	2020-11-19T14:32:27:555
83,000000	0,000000	765,000000	0,000000	2020-11-19T14:32:27:593
83,000000	0,000000	765,000000	0,000000	2020-11-19T14:32:27:634
83,000000	0,000000	765,000000	0,000000	2020-11-19T14:32:27:674
83,000000	0,000000	765,000000	0,000000	2020-11-19T14:32:27:715
83,000000	0,000000	765,000000	0,000000	2020-11-19T14:32:27:753
83,000000	0,000000	765,000000	0,000000	2020-11-19T14:32:27:794
83,000000	0,000000	765,000000	0,000000	2020-11-19T14:32:27:833
83,000000	0,000000	765,000000	0,000000	2020-11-19T14:32:27:874
83,000000	0,000000	745,000000	0,000000	2020-11-19T14:32:27:913
83,000000	0,000000	745,000000	0,000000	2020-11-19T14:32:27:955
83,000000	0,000000	745,000000	0,000000	2020-11-19T14:32:27:993
83,000000	0,000000	745,000000	0,000000	2020-11-19T14:32:28:034
82,000000	0,000000	745,000000	0,000000	2020-11-19T14:32:28:074
82,000000	0,000000	745,000000	0,000000	2020-11-19T14:32:28:114
82,000000	0,000000	745,000000	0,000000	2020-11-19T14:32:28:154
83,000000	0,000000	745,000000	0,000000	2020-11-19T14:32:28:195
83,000000	0,000000	745,000000	0,000000	2020-11-19T14:32:28:233
82,000000	0,000000	745,000000	0,000000	2020-11-19T14:32:28:274
82,000000	0,000000	745,000000	0,000000	2020-11-19T14:32:28:314
83,000000	0,000000	745,000000	0,000000	2020-11-19T14:32:28:355
83,000000	0,000000	745,000000	0,000000	2020-11-19T14:32:28:394
82,000000	0,000000	745,000000	0,000000	2020-11-19T14:32:28:435
82,000000	0,000000	745,000000	0,000000	2020-11-19T14:32:28:474
82,000000	0,000000	745,000000	0,000000	2020-11-19T14:32:28:515
82,000000	0,000000	745,000000	0,000000	2020-11-19T14:32:28:554
82,000000	0,000000	745,000000	0,000000	2020-11-19T14:32:28:595
82,000000	0,000000	777,000000	0,000000	2020-11-19T14:32:28:634
82,000000	0,000000	777,000000	0,000000	2020-11-19T14:32:28:677
82,000000	0,000000	777,000000	0,000000	2020-11-19T14:32:28:714
82,000000	0,000000	777,000000	0,000000	2020-11-19T14:32:28:755
82,000000	0,000000	777,000000	0,000000	2020-11-19T14:32:28:793
82,000000	0,000000	777,000000	0,000000	2020-11-19T14:32:28:834
82,000000	0,000000	777,000000	0,000000	2020-11-19T14:32:28:874
82,000000	0,000000	777,000000	0,000000	2020-11-19T14:32:28:916
82,000000	0,000000	777,000000	0,000000	2020-11-19T14:32:28:954
82,000000	0,000000	777,000000	0,000000	2020-11-19T14:32:28:997
82,000000	0,000000	777,000000	0,000000	2020-11-19T14:32:29:055
82,000000	0,000000	777,000000	0,000000	2020-11-19T14:32:29:075
82,000000	0,000000	777,000000	0,000000	2020-11-19T14:32:29:114
82,000000	0,000000	777,000000	0,000000	2020-11-19T14:32:29:156
82,000000	0,000000	777,000000	0,000000	2020-11-19T14:32:29:194
82,000000	0,000000	777,000000	0,000000	2020-11-19T14:32:29:235
82,000000	0,000000	777,000000	0,000000	2020-11-19T14:32:29:275
82,000000	0,000000	777,000000	0,000000	2020-11-19T14:32:29:315
82,000000	0,000000	777,000000	0,000000	2020-11-19T14:32:29:355
82,000000	0,000000	777,000000	0,000000	2020-11-19T14:32:29:396
82,000000	0,000000	777,000000	0,000000	2020-11-19T14:32:29:434
82,000000	0,000000	777,000000	0,000000	2020-11-19T14:32:29:476
82,000000	0,000000	777,000000	0,000000	2020-11-19T14:32:29:515
82,000000	0,000000	777,000000	0,000000	2020-11-19T14:32:29:556
82,000000	0,000000	784,000000	0,000000	2020-11-19T14:32:29:595
82,000000	0,000000	784,000000	0,000000	2020-11-19T14:32:29:636
82,000000	0,000000	784,000000	0,000000	2020-11-19T14:32:29:675
82,000000	0,000000	784,000000	0,000000	2020-11-19T14:32:29:716
82,000000	0,000000	784,000000	0,000000	2020-11-19T14:32:29:755
82,000000	0,000000	784,000000	0,000000	2020-11-19T14:32:29:796
82,000000	0,000000	784,000000	0,000000	2020-11-19T14:32:29:835
82,000000	0,000000	784,000000	0,000000	2020-11-19T14:32:29:876
82,000000	0,000000	784,000000	0,000000	2020-11-19T14:32:29:915
82,000000	0,000000	784,000000	0,000000	2020-11-19T14:32:29:956
82,000000	0,000000	784,000000	0,000000	2020-11-19T14:32:29:995
81,000000	0,000000	784,000000	0,000000	2020-11-19T14:32:30:036
81,000000	0,000000	784,000000	0,000000	2020-11-19T14:32:30:075
81,000000	0,000000	784,000000	0,000000	2020-11-19T14:32:30:117
