x	y	z	ts
-0,066194	0,046477	-0,213342	2020-11-19T14:31:12:666
-0,054230	0,137404	-0,208556	2020-11-19T14:31:12:668
-0,053950	0,072563	-0,131184	2020-11-19T14:31:12:668
-0,196299	0,161472	-0,119761	2020-11-19T14:31:12:669
-0,097948	0,145502	-0,111930	2020-11-19T14:31:12:669
-0,124620	0,086199	-0,089705	2020-11-19T14:31:12:670
-0,099982	0,047351	-0,081396	2020-11-19T14:31:12:670
-0,121655	0,161547	-0,169018	2020-11-19T14:31:12:676
-0,053058	0,238624	-0,235806	2020-11-19T14:31:12:697
0,020387	0,156226	-0,094441	2020-11-19T14:31:12:717
-0,016004	0,082078	-0,112536	2020-11-19T14:31:12:737
-0,031466	0,074429	-0,068144	2020-11-19T14:31:12:769
-0,011533	0,148189	-0,138873	2020-11-19T14:31:12:779
0,068610	0,071418	-0,061067	2020-11-19T14:31:12:797
0,117682	-0,026710	-0,172782	2020-11-19T14:31:12:817
0,102029	0,155615	-0,316113	2020-11-19T14:31:12:838
0,007957	-0,181333	-0,394407	2020-11-19T14:31:12:857
0,135698	-0,147164	-0,238529	2020-11-19T14:31:12:877
0,126631	-0,243476	-0,164521	2020-11-19T14:31:12:897
0,148837	0,145783	-0,273785	2020-11-19T14:31:12:918
0,121712	0,053358	-0,253112	2020-11-19T14:31:12:937
-0,028496	0,043699	-0,123150	2020-11-19T14:31:12:958
0,074499	-0,013644	-0,017282	2020-11-19T14:31:12:978
0,103107	-0,058862	0,029295	2020-11-19T14:31:12:998
0,062429	-0,140218	-0,111882	2020-11-19T14:31:13:017
0,108294	0,134928	-0,242548	2020-11-19T14:31:13:038
0,166300	0,162981	-0,269338	2020-11-19T14:31:13:058
0,085524	-0,130074	-0,290727	2020-11-19T14:31:13:077
0,065277	0,049421	-0,289149	2020-11-19T14:31:13:097
0,026731	0,179149	-0,207112	2020-11-19T14:31:13:118
0,025605	0,144209	-0,132129	2020-11-19T14:31:13:137
0,111636	0,210061	-0,115528	2020-11-19T14:31:13:158
0,157303	0,123897	0,045010	2020-11-19T14:31:13:178
0,085081	0,094256	0,021894	2020-11-19T14:31:13:198
0,242284	0,142034	-0,062726	2020-11-19T14:31:13:217
0,183725	0,293604	-0,176170	2020-11-19T14:31:13:238
0,203984	0,066957	-0,154877	2020-11-19T14:31:13:257
0,157517	-0,243331	-0,095510	2020-11-19T14:31:13:277
0,357870	-0,343862	-0,118340	2020-11-19T14:31:13:298
0,271728	0,117953	-0,154232	2020-11-19T14:31:13:319
0,225452	0,074113	-0,286239	2020-11-19T14:31:13:337
0,317085	0,125537	-0,329337	2020-11-19T14:31:13:358
0,258825	-0,261735	-0,186069	2020-11-19T14:31:13:378
0,343960	-0,447796	-0,011598	2020-11-19T14:31:13:398
0,309926	-0,119142	-0,182473	2020-11-19T14:31:13:418
0,271641	0,170390	-0,206402	2020-11-19T14:31:13:438
0,186540	0,184500	-0,121070	2020-11-19T14:31:13:457
0,095324	0,067325	-0,048316	2020-11-19T14:31:13:478
0,150347	0,193985	-0,125483	2020-11-19T14:31:13:498
0,057163	0,640910	-0,377079	2020-11-19T14:31:13:519
-0,034853	0,892300	-0,378466	2020-11-19T14:31:13:538
-0,083225	0,844090	-0,042918	2020-11-19T14:31:13:559
0,089622	0,527796	0,202047	2020-11-19T14:31:13:578
0,034587	0,343549	0,295367	2020-11-19T14:31:13:599
0,608528	0,215745	0,108860	2020-11-19T14:31:13:617
1,148031	0,043939	-0,018366	2020-11-19T14:31:13:639
1,387961	-0,168743	0,279126	2020-11-19T14:31:13:658
1,512387	-1,762363	0,535158	2020-11-19T14:31:13:678
1,628034	-2,569300	0,189879	2020-11-19T14:31:13:698
2,130839	-2,970877	-0,486136	2020-11-19T14:31:13:719
2,297529	-2,403743	-0,962636	2020-11-19T14:31:13:738
2,285565	-2,229068	-1,455557	2020-11-19T14:31:13:759
2,445914	-2,360515	-1,625692	2020-11-19T14:31:13:779
2,740141	-2,876368	-2,483031	2020-11-19T14:31:13:799
3,170509	-3,667594	-3,339306	2020-11-19T14:31:13:817
3,624332	-3,938663	-3,276707	2020-11-19T14:31:14:019
3,789585	-2,513119	-4,285556	2020-11-19T14:31:14:023
3,268172	0,308372	-5,290402	2020-11-19T14:31:14:055
2,318904	0,695585	-7,966576	2020-11-19T14:31:14:061
2,446459	-3,808456	-8,737775	2020-11-19T14:31:14:063
3,140404	-5,468455	-7,344967	2020-11-19T14:31:14:064
2,872212	-4,048275	-5,447717	2020-11-19T14:31:14:064
2,425844	-0,512531	-4,314615	2020-11-19T14:31:14:065
2,667374	1,084615	-4,441070	2020-11-19T14:31:14:067
2,563293	3,190765	-5,159357	2020-11-19T14:31:14:068
3,013252	1,670651	-6,161853	2020-11-19T14:31:14:068
3,139480	0,322841	-6,771546	2020-11-19T14:31:14:069
3,377286	-1,092083	-6,532887	2020-11-19T14:31:14:078
3,511862	-0,907505	-5,173070	2020-11-19T14:31:14:098
3,552285	-0,436970	-5,676452	2020-11-19T14:31:14:120
3,578606	-0,575752	-5,982734	2020-11-19T14:31:14:138
3,768607	-1,292613	-6,687859	2020-11-19T14:31:14:161
3,333303	-1,463550	-5,712133	2020-11-19T14:31:14:180
2,691792	-1,053686	-4,530556	2020-11-19T14:31:14:201
1,992764	-0,417720	-4,438010	2020-11-19T14:31:14:221
1,844409	0,687764	-4,134122	2020-11-19T14:31:14:241
1,942271	0,980336	-4,303139	2020-11-19T14:31:14:261
2,226620	0,353209	-4,071685	2020-11-19T14:31:14:279
2,305896	-0,332975	-3,948071	2020-11-19T14:31:14:300
1,589328	-0,574194	-3,775195	2020-11-19T14:31:14:321
1,736803	-0,992764	-4,093978	2020-11-19T14:31:14:340
1,392662	-2,353629	-3,298220	2020-11-19T14:31:14:361
1,632791	-2,394398	-3,286599	2020-11-19T14:31:14:381
1,780628	-1,682853	-3,205185	2020-11-19T14:31:14:401
1,541860	-1,659586	-3,345196	2020-11-19T14:31:14:421
1,448540	-2,142936	-3,168127	2020-11-19T14:31:14:443
1,336170	-2,186877	-2,369225	2020-11-19T14:31:14:462
1,528623	-1,033517	-2,180094	2020-11-19T14:31:14:482
2,127055	-0,476671	-2,817440	2020-11-19T14:31:14:517
2,402212	-1,115532	-3,671920	2020-11-19T14:31:14:523
1,974108	-1,588552	-3,911767	2020-11-19T14:31:14:544
1,787836	-0,951471	-3,508177	2020-11-19T14:31:14:579
1,290049	-0,944742	-2,629570	2020-11-19T14:31:14:581
0,876692	-1,125176	-3,588052	2020-11-19T14:31:14:602
0,819264	-1,060570	-4,492539	2020-11-19T14:31:14:631
0,872731	0,048263	-3,042954	2020-11-19T14:31:14:643
0,987586	-0,358518	-2,449534	2020-11-19T14:31:14:664
1,077086	-1,439634	-1,594920	2020-11-19T14:31:14:682
0,796099	-0,118063	-1,259892	2020-11-19T14:31:14:701
1,034094	0,186319	-1,049219	2020-11-19T14:31:14:722
0,895381	-0,460541	-0,632072	2020-11-19T14:31:14:742
1,001070	0,455027	-0,334030	2020-11-19T14:31:14:762
1,000574	-0,236808	-0,618308	2020-11-19T14:31:14:781
0,404229	-0,350831	-0,850922	2020-11-19T14:31:14:803
0,129054	0,457944	-1,085418	2020-11-19T14:31:14:821
0,059232	0,588505	-0,866316	2020-11-19T14:31:14:843
0,193380	-0,080321	-1,123980	2020-11-19T14:31:14:861
0,507287	-0,605347	-0,998746	2020-11-19T14:31:14:882
0,839812	-0,718826	-1,421240	2020-11-19T14:31:14:901
0,785029	-0,814874	-1,265334	2020-11-19T14:31:14:924
1,038668	-1,247974	-1,002124	2020-11-19T14:31:14:941
1,021652	-1,616194	-0,730578	2020-11-19T14:31:14:962
1,175182	-1,029397	-0,525600	2020-11-19T14:31:14:982
0,436961	-0,281388	-0,039037	2020-11-19T14:31:15:002
-0,215901	0,598848	0,563934	2020-11-19T14:31:15:021
1,843730	0,445424	-0,496388	2020-11-19T14:31:15:043
2,124704	-1,025197	-0,984607	2020-11-19T14:31:15:061
1,021985	-2,289561	-1,313856	2020-11-19T14:31:15:083
1,150416	-1,846047	-1,459232	2020-11-19T14:31:15:101
0,722690	-1,082543	-1,930140	2020-11-19T14:31:15:123
0,166264	-0,136055	-1,821272	2020-11-19T14:31:15:141
0,166264	0,560257	-1,833236	2020-11-19T14:31:15:163
0,070197	0,678479	-1,782141	2020-11-19T14:31:15:181
0,075717	0,200157	-1,477627	2020-11-19T14:31:15:203
0,070515	-0,071287	-1,168629	2020-11-19T14:31:15:222
-0,002312	-0,385588	-0,701864	2020-11-19T14:31:15:243
-0,104107	-0,597689	-0,367622	2020-11-19T14:31:15:262
-0,052010	-1,064653	-0,047060	2020-11-19T14:31:15:283
0,105276	-0,780159	-0,139635	2020-11-19T14:31:15:301
-0,059467	-0,504415	-0,280082	2020-11-19T14:31:15:323
-0,066318	-0,777727	-0,446315	2020-11-19T14:31:15:342
0,192107	-0,775333	-0,915308	2020-11-19T14:31:15:363
0,100177	-0,085821	-0,949378	2020-11-19T14:31:15:382
0,396546	0,364428	-0,791435	2020-11-19T14:31:15:403
0,277933	0,320927	-0,663924	2020-11-19T14:31:15:423
0,250609	0,058415	-0,500954	2020-11-19T14:31:15:443
0,090792	0,453781	-0,183365	2020-11-19T14:31:15:463
-0,062349	0,422675	-0,336505	2020-11-19T14:31:15:483
0,144360	-0,241848	-0,285317	2020-11-19T14:31:15:501
-0,101545	-0,493968	-0,455146	2020-11-19T14:31:15:523
-0,489341	-0,423454	-0,761650	2020-11-19T14:31:15:541
-0,403960	-0,896064	-0,524383	2020-11-19T14:31:15:563
-0,140020	-0,946620	-0,431693	2020-11-19T14:31:15:582
0,109557	-0,533002	-0,424626	2020-11-19T14:31:15:604
0,152628	-0,154935	-0,558625	2020-11-19T14:31:15:621
-0,219985	-0,083142	-0,529608	2020-11-19T14:31:15:644
0,068687	-0,607940	-0,324786	2020-11-19T14:31:15:662
0,173971	-0,634261	-0,262573	2020-11-19T14:31:15:684
-0,011648	-0,225550	-0,059226	2020-11-19T14:31:15:703
0,267834	-0,293009	0,673962	2020-11-19T14:31:15:724
0,335640	0,002411	0,745714	2020-11-19T14:31:15:742
-0,285834	0,383583	0,705058	2020-11-19T14:31:15:764
-0,168638	0,742352	0,372249	2020-11-19T14:31:15:783
-0,104340	0,654507	0,113120	2020-11-19T14:31:15:804
0,053470	0,424790	-0,074632	2020-11-19T14:31:15:822
0,005613	-0,001133	-0,117702	2020-11-19T14:31:15:844
-0,019546	-0,305180	-0,176401	2020-11-19T14:31:15:862
-0,089221	-0,294565	-0,101314	2020-11-19T14:31:15:885
-0,126117	-0,129451	-0,030141	2020-11-19T14:31:15:902
-0,225118	-0,333107	0,081773	2020-11-19T14:31:15:924
-0,260830	-0,243593	0,224290	2020-11-19T14:31:15:943
-0,220621	0,092933	0,419703	2020-11-19T14:31:15:964
-0,120132	0,451200	0,499935	2020-11-19T14:31:15:986
0,008146	0,893999	0,537928	2020-11-19T14:31:16:008
0,049692	0,600771	0,340909	2020-11-19T14:31:16:021
0,426517	0,562949	-0,131478	2020-11-19T14:31:16:044
0,428910	-0,001758	-0,574150	2020-11-19T14:31:16:062
0,597520	-0,461966	-0,684888	2020-11-19T14:31:16:084
0,654252	-1,373344	-0,966936	2020-11-19T14:31:16:102
0,253982	-0,996914	-0,831465	2020-11-19T14:31:16:124
0,560502	-0,327781	-0,552789	2020-11-19T14:31:16:142
0,034157	-0,217981	-0,921014	2020-11-19T14:31:16:164
-0,143125	-0,234403	-0,711605	2020-11-19T14:31:16:184
0,113478	-0,413124	-0,862959	2020-11-19T14:31:16:204
0,001914	-0,389493	-0,880896	2020-11-19T14:31:16:222
-0,096192	-0,753202	-0,871325	2020-11-19T14:31:16:244
-0,240891	-0,453054	-0,662138	2020-11-19T14:31:16:262
-0,103516	0,424441	-0,565636	2020-11-19T14:31:16:287
0,005383	0,857827	-0,434850	2020-11-19T14:31:16:307
-0,106493	-0,070943	-0,225139	2020-11-19T14:31:16:325
-0,176084	-0,620972	0,088681	2020-11-19T14:31:16:348
0,072769	-0,489366	0,270536	2020-11-19T14:31:16:366
0,232635	-0,427870	0,036224	2020-11-19T14:31:16:382
0,223064	-0,329763	0,112794	2020-11-19T14:31:16:405
0,166157	-0,258577	0,030102	2020-11-19T14:31:16:426
0,007516	-0,144393	-0,015032	2020-11-19T14:31:16:444
-0,046791	-0,073353	-0,107685	2020-11-19T14:31:16:463
0,034565	0,199430	-0,045472	2020-11-19T14:31:16:484
0,013490	-0,007134	-0,109552	2020-11-19T14:31:16:502
0,082036	-0,019573	-0,188373	2020-11-19T14:31:16:527
0,156213	-0,177500	-0,185981	2020-11-19T14:31:16:542
0,106238	-0,229512	-0,088497	2020-11-19T14:31:16:566
-0,014082	-0,120723	-0,033181	2020-11-19T14:31:16:582
-0,156025	-0,030149	0,037483	2020-11-19T14:31:16:604
-0,171120	0,257761	-0,085515	2020-11-19T14:31:16:622
-0,234038	0,128685	-0,061891	2020-11-19T14:31:16:644
-0,319516	-0,155929	-0,181795	2020-11-19T14:31:16:663
-0,296884	-0,310906	-0,241428	2020-11-19T14:31:16:685
-0,385281	-0,388687	-0,323500	2020-11-19T14:31:16:702
-0,418195	-0,313810	-0,210934	2020-11-19T14:31:16:724
-0,343570	-0,314916	-0,235522	2020-11-19T14:31:16:742
-0,319952	-0,160591	-0,182444	2020-11-19T14:31:16:764
-0,269884	-0,074304	-0,086695	2020-11-19T14:31:16:783
-0,199195	0,052004	-0,133177	2020-11-19T14:31:16:804
-0,226283	0,070423	-0,120871	2020-11-19T14:31:16:821
-0,255945	-0,000731	-0,032652	2020-11-19T14:31:16:844
-0,202703	0,053743	0,114934	2020-11-19T14:31:16:861
-0,216574	-0,025902	0,105982	2020-11-19T14:31:16:883
-0,130860	0,018571	-0,120281	2020-11-19T14:31:16:902
-0,138466	-0,240513	-0,247065	2020-11-19T14:31:16:924
-0,110370	-0,264840	-0,322009	2020-11-19T14:31:16:941
-0,068891	-0,168412	-0,242408	2020-11-19T14:31:16:963
-0,169953	-0,065057	-0,237590	2020-11-19T14:31:16:982
-0,182437	-0,043118	-0,055395	2020-11-19T14:31:17:003
-0,208357	-0,027693	0,076102	2020-11-19T14:31:17:021
-0,129065	-0,120671	0,023847	2020-11-19T14:31:17:043
-0,157278	-0,233507	-0,031971	2020-11-19T14:31:17:061
0,018111	-0,163497	-0,146585	2020-11-19T14:31:17:085
-0,024805	-0,165883	-0,086308	2020-11-19T14:31:17:102
0,008900	-0,166168	-0,081610	2020-11-19T14:31:17:123
0,108030	-0,146044	-0,089945	2020-11-19T14:31:17:143
-0,021988	-0,162650	-0,077491	2020-11-19T14:31:17:164
-0,010870	-0,131810	-0,020736	2020-11-19T14:31:17:191
-0,027858	-0,087100	0,022134	2020-11-19T14:31:17:203
-0,056638	-0,127433	-0,019945	2020-11-19T14:31:17:380
-0,053205	-0,096464	-0,056167	2020-11-19T14:31:17:430
-0,129472	-0,151854	-0,018704	2020-11-19T14:31:17:474
-0,013725	-0,016318	0,059752	2020-11-19T14:31:17:502
-0,091568	-0,055300	0,142060	2020-11-19T14:31:17:502
-0,066900	-0,011344	0,120187	2020-11-19T14:31:17:503
-0,067407	-0,078767	0,172830	2020-11-19T14:31:17:505
-0,106481	0,003847	0,115065	2020-11-19T14:31:17:506
-0,136297	-0,064828	0,056668	2020-11-19T14:31:17:506
-0,126154	-0,188448	0,065798	2020-11-19T14:31:17:507
-0,094248	-0,211724	-0,045911	2020-11-19T14:31:17:507
-0,010560	-0,186785	-0,054248	2020-11-19T14:31:17:507
0,006530	-0,125544	-0,048864	2020-11-19T14:31:17:508
0,046091	-0,138460	0,048459	2020-11-19T14:31:17:508
0,091386	-0,029974	0,130771	2020-11-19T14:31:17:508
0,082664	-0,029518	0,146098	2020-11-19T14:31:17:524
-0,000890	-0,067445	0,124243	2020-11-19T14:31:17:542
0,015860	-0,062658	0,069208	2020-11-19T14:31:17:564
-0,051716	-0,057920	0,084912	2020-11-19T14:31:17:582
-0,046353	-0,056040	0,066390	2020-11-19T14:31:17:604
0,019587	-0,083070	0,034858	2020-11-19T14:31:17:621
-0,140937	-0,090982	0,130695	2020-11-19T14:31:17:644
-0,012911	-0,074334	0,130527	2020-11-19T14:31:17:661
0,001070	-0,066590	0,130105	2020-11-19T14:31:17:685
-0,070189	-0,094493	0,123376	2020-11-19T14:31:17:703
0,069338	-0,084303	0,120114	2020-11-19T14:31:17:724
-0,004289	-0,063553	0,118326	2020-11-19T14:31:17:741
-0,031406	-0,069506	0,066433	2020-11-19T14:31:17:765
-0,014566	-0,087305	0,050051	2020-11-19T14:31:17:783
0,079534	-0,073689	-0,001165	2020-11-19T14:31:17:806
0,046080	-0,078143	0,054428	2020-11-19T14:31:17:823
0,020775	-0,087708	-0,004317	2020-11-19T14:31:17:846
0,010059	-0,054408	0,057415	2020-11-19T14:31:17:864
0,066158	-0,134469	0,082406	2020-11-19T14:31:17:885
0,133208	-0,109539	0,106359	2020-11-19T14:31:17:903
0,040691	-0,080172	0,082819	2020-11-19T14:31:17:926
0,136998	-0,101468	-0,126238	2020-11-19T14:31:17:943
0,185934	-0,183191	-0,266923	2020-11-19T14:31:17:965
0,090181	-0,135057	-0,095843	2020-11-19T14:31:18:006
0,042245	-0,023595	0,233442	2020-11-19T14:31:18:045
-0,032080	-0,028544	0,469365	2020-11-19T14:31:18:111
-0,150061	-0,115137	0,598048	2020-11-19T14:31:18:111
-0,028956	-0,082388	0,753522	2020-11-19T14:31:18:112
-0,218359	0,021014	0,976542	2020-11-19T14:31:18:112
-0,020361	0,226581	0,430491	2020-11-19T14:31:18:113
0,106420	0,032877	0,198295	2020-11-19T14:31:18:166
0,060013	-0,095532	0,118943	2020-11-19T14:31:18:167
0,104743	-0,136683	0,154250	2020-11-19T14:31:18:167
0,191416	-0,143867	0,098621	2020-11-19T14:31:18:183
0,105974	-0,080812	0,111439	2020-11-19T14:31:18:204
0,185925	-0,119083	0,123403	2020-11-19T14:31:18:222
0,179914	-0,078005	0,148474	2020-11-19T14:31:18:245
0,188535	-0,120771	0,067996	2020-11-19T14:31:18:262
0,151319	-0,038630	0,152871	2020-11-19T14:31:18:286
0,103803	-0,010768	0,200138	2020-11-19T14:31:18:303
0,004407	-0,033900	0,204672	2020-11-19T14:31:18:329
0,083370	-0,079364	0,226207	2020-11-19T14:31:18:345
0,043633	-0,048925	0,202770	2020-11-19T14:31:18:365
0,111687	-0,061240	0,092222	2020-11-19T14:31:18:384
0,133271	-0,041458	0,147651	2020-11-19T14:31:18:406
0,104480	0,033050	0,263554	2020-11-19T14:31:18:424
0,031113	0,004510	0,333598	2020-11-19T14:31:18:445
-0,010984	-0,060907	0,275243	2020-11-19T14:31:18:463
0,117657	-0,138783	0,195275	2020-11-19T14:31:18:486
0,063823	-0,141727	0,141989	2020-11-19T14:31:18:503
0,102057	-0,038755	0,090488	2020-11-19T14:31:18:526
0,064887	-0,009768	0,077473	2020-11-19T14:31:18:542
-0,010124	-0,041050	0,159706	2020-11-19T14:31:18:566
-0,087666	-0,144764	0,087788	2020-11-19T14:31:18:588
-0,020667	-0,168692	0,044717	2020-11-19T14:31:18:606
-0,120203	-0,172427	0,050997	2020-11-19T14:31:18:624
-0,031960	-0,034055	0,044724	2020-11-19T14:31:18:647
-0,004432	-0,063668	0,141241	2020-11-19T14:31:18:664
0,032899	-0,120210	0,120577	2020-11-19T14:31:18:687
-0,000640	-0,132529	0,189558	2020-11-19T14:31:18:704
0,100066	-0,089923	0,172007	2020-11-19T14:31:18:727
0,078494	0,049439	0,144648	2020-11-19T14:31:18:745
0,090433	0,028406	0,077866	2020-11-19T14:31:18:843
0,136193	-0,025531	0,095824	2020-11-19T14:31:18:903
-0,002686	-0,077252	0,074329	2020-11-19T14:31:18:904
0,031306	-0,113050	0,044054	2020-11-19T14:31:18:905
0,107668	-0,165332	0,029067	2020-11-19T14:31:18:905
0,027658	-0,152576	0,035764	2020-11-19T14:31:18:906
-0,027193	-0,118776	0,020730	2020-11-19T14:31:18:908
-0,056176	-0,161441	0,042628	2020-11-19T14:31:18:909
-0,022676	-0,070514	0,061771	2020-11-19T14:31:18:931
-0,060169	-0,027235	0,099298	2020-11-19T14:31:18:943
-0,038862	-0,013180	0,065637	2020-11-19T14:31:18:971
0,002525	-0,053596	0,077073	2020-11-19T14:31:18:984
-0,055348	-0,075534	0,107344	2020-11-19T14:31:19:011
-0,027976	-0,092426	0,057043	2020-11-19T14:31:19:039
-0,027976	-0,054141	0,076186	2020-11-19T14:31:19:046
-0,026521	-0,134281	0,113975	2020-11-19T14:31:19:065
-0,068797	-0,003881	0,112115	2020-11-19T14:31:19:086
-0,008976	-0,056523	0,085793	2020-11-19T14:31:19:103
-0,035012	-0,111830	0,024727	2020-11-19T14:31:19:127
-0,079287	-0,051668	0,029719	2020-11-19T14:31:19:143
-0,015601	-0,083217	0,058687	2020-11-19T14:31:19:165
-0,052876	-0,083899	0,048576	2020-11-19T14:31:19:184
-0,007091	-0,127751	0,034307	2020-11-19T14:31:19:207
0,066730	-0,103911	0,016853	2020-11-19T14:31:19:223
0,057910	-0,117703	0,064985	2020-11-19T14:31:19:246
0,006323	-0,096114	0,072348	2020-11-19T14:31:19:265
-0,076056	0,004074	0,127454	2020-11-19T14:31:19:288
0,039292	-0,056856	0,046968	2020-11-19T14:31:19:306
0,036242	-0,087256	0,084545	2020-11-19T14:31:19:327
-0,009677	-0,122740	0,041731	2020-11-19T14:31:19:345
-0,026757	-0,103196	0,053198	2020-11-19T14:31:19:368
0,012397	-0,055480	0,088925	2020-11-19T14:31:19:385
-0,023715	-0,060940	0,080451	2020-11-19T14:31:19:408
-0,017547	-0,114371	0,038934	2020-11-19T14:31:19:425
-0,072519	-0,097717	0,038479	2020-11-19T14:31:19:448
-0,027430	-0,038061	0,127486	2020-11-19T14:31:19:465
0,005372	-0,045321	0,079546	2020-11-19T14:31:19:489
-0,044542	-0,125766	-0,006380	2020-11-19T14:31:19:505
-0,008649	-0,113802	0,053440	2020-11-19T14:31:19:528
0,083829	-0,065680	0,063854	2020-11-19T14:31:19:546
-0,025975	-0,031795	0,070066	2020-11-19T14:31:19:567
0,020457	-0,096811	0,070943	2020-11-19T14:31:19:585
0,002544	-0,044474	0,051830	2020-11-19T14:31:19:609
-0,047686	-0,083157	0,078474	2020-11-19T14:31:19:626
-0,032791	-0,039370	0,071640	2020-11-19T14:31:19:648
-0,080647	-0,082440	0,100354	2020-11-19T14:31:19:667
0,014065	-0,110165	0,054859	2020-11-19T14:31:19:689
0,009588	0,004994	0,045495	2020-11-19T14:31:19:705
-0,000681	-0,045292	0,073556	2020-11-19T14:31:19:728
-0,005555	0,028483	0,049878	2020-11-19T14:31:19:746
0,006759	-0,129705	0,091814	2020-11-19T14:31:19:768
-0,025652	-0,108304	0,049589	2020-11-19T14:31:19:787
0,001013	-0,117888	0,109562	2020-11-19T14:31:19:809
0,028842	-0,058418	0,035388	2020-11-19T14:31:19:825
0,015127	-0,046194	0,040376	2020-11-19T14:31:19:849
-0,031005	-0,003284	0,051072	2020-11-19T14:31:19:866
-0,059872	-0,145289	0,129605	2020-11-19T14:31:19:888
-0,047548	-0,055709	0,050262	2020-11-19T14:31:19:906
-0,010491	-0,058056	0,046478	2020-11-19T14:31:19:929
-0,066216	-0,086362	0,139054	2020-11-19T14:31:19:947
-0,002145	-0,104111	0,130334	2020-11-19T14:31:19:968
-0,021197	-0,155005	0,092024	2020-11-19T14:31:19:986
0,019481	-0,088005	0,065703	2020-11-19T14:31:20:010
0,002686	-0,028153	0,133678	2020-11-19T14:31:20:031
-0,007035	-0,060415	0,125275	2020-11-19T14:31:20:049
0,033769	-0,073386	0,050818	2020-11-19T14:31:20:066
0,031686	-0,037357	0,062141	2020-11-19T14:31:20:089
-0,013364	-0,066077	0,036911	2020-11-19T14:31:20:105
0,031989	-0,054048	0,070678	2020-11-19T14:31:20:128
0,013520	-0,073465	0,089712	2020-11-19T14:31:20:146
0,056062	0,000140	0,021862	2020-11-19T14:31:20:169
0,049281	-0,114475	0,069671	2020-11-19T14:31:20:186
-0,015271	-0,085574	0,112205	2020-11-19T14:31:20:209
0,030932	-0,062283	0,111837	2020-11-19T14:31:20:226
-0,020816	-0,014800	0,108994	2020-11-19T14:31:20:249
-0,005801	-0,137459	0,077534	2020-11-19T14:31:20:267
-0,016190	-0,099123	0,086844	2020-11-19T14:31:20:289
-0,042507	-0,152060	0,039898	2020-11-19T14:31:20:306
-0,010344	-0,032463	0,061875	2020-11-19T14:31:20:329
-0,080133	-0,070971	0,062891	2020-11-19T14:31:20:346
-0,051487	-0,030682	0,095899	2020-11-19T14:31:20:368
-0,007342	-0,014579	0,090921	2020-11-19T14:31:20:387
0,045300	-0,055257	0,045457	2020-11-19T14:31:20:409
-0,031489	-0,047521	0,056194	2020-11-19T14:31:20:426
-0,063243	-0,093235	0,024922	2020-11-19T14:31:20:449
-0,024142	-0,141280	0,107355	2020-11-19T14:31:20:466
-0,023090	-0,060613	0,087806	2020-11-19T14:31:20:489
-0,014512	-0,068584	0,070340	2020-11-19T14:31:20:508
-0,007968	-0,068151	0,033839	2020-11-19T14:31:20:529
0,027924	-0,163863	0,062552	2020-11-19T14:31:20:546
-0,015933	-0,019691	0,010931	2020-11-19T14:31:20:569
-0,058520	-0,084055	0,031601	2020-11-19T14:31:20:587
0,041501	-0,093571	0,109662	2020-11-19T14:31:20:609
0,036336	0,004359	0,090274	2020-11-19T14:31:20:626
-0,051461	-0,096554	0,123037	2020-11-19T14:31:20:649
-0,025469	-0,112091	0,113629	2020-11-19T14:31:20:667
-0,056576	-0,092948	0,049023	2020-11-19T14:31:20:689
-0,076024	-0,104712	-0,003700	2020-11-19T14:31:20:706
0,010862	-0,035140	0,137978	2020-11-19T14:31:20:729
-0,009010	-0,028784	0,071172	2020-11-19T14:31:20:748
-0,042510	-0,038355	0,056815	2020-11-19T14:31:20:769
-0,050456	-0,127211	0,046655	2020-11-19T14:31:20:787
-0,032759	-0,009788	0,057706	2020-11-19T14:31:20:810
0,042583	-0,046011	0,080713	2020-11-19T14:31:20:826
0,004506	-0,029448	0,099931	2020-11-19T14:31:20:849
-0,031651	-0,082616	0,080381	2020-11-19T14:31:20:866
-0,016386	-0,068440	0,025014	2020-11-19T14:31:20:890
0,022399	-0,029889	0,067337	2020-11-19T14:31:20:907
0,045276	-0,051449	0,054587	2020-11-19T14:31:20:930
0,071443	-0,098853	0,045670	2020-11-19T14:31:20:947
-0,111980	-0,064556	0,063923	2020-11-19T14:31:20:970
-0,044973	-0,108310	0,037202	2020-11-19T14:31:20:987
0,032860	-0,072355	0,067021	2020-11-19T14:31:21:009
0,028083	-0,096133	0,020808	2020-11-19T14:31:21:027
-0,031517	-0,088326	0,099159	2020-11-19T14:31:21:050
0,040559	-0,062281	0,007040	2020-11-19T14:31:21:067
-0,062529	-0,085320	0,055327	2020-11-19T14:31:21:089
-0,007644	-0,068656	0,029990	2020-11-19T14:31:21:107
-0,026874	-0,027682	0,036205	2020-11-19T14:31:21:130
-0,021026	-0,044622	0,071811	2020-11-19T14:31:21:147
-0,025412	-0,112110	0,141395	2020-11-19T14:31:21:169
-0,042504	-0,074752	0,122177	2020-11-19T14:31:21:187
0,026906	-0,034963	0,036390	2020-11-19T14:31:21:210
0,030292	-0,111239	0,018730	2020-11-19T14:31:21:227
0,037528	-0,019541	0,014839	2020-11-19T14:31:21:249
-0,043004	-0,028596	0,058026	2020-11-19T14:31:21:267
0,015002	-0,043275	0,097453	2020-11-19T14:31:21:290
0,034827	-0,053005	0,078850	2020-11-19T14:31:21:307
0,004746	-0,029119	0,111302	2020-11-19T14:31:21:330
-0,030714	-0,118129	0,075696	2020-11-19T14:31:21:347
-0,103122	-0,020129	0,049937	2020-11-19T14:31:21:369
-0,075807	-0,161889	0,045838	2020-11-19T14:31:21:387
-0,043900	-0,125820	0,022390	2020-11-19T14:31:21:409
-0,016127	-0,099138	0,137559	2020-11-19T14:31:21:426
-0,052135	-0,054449	0,131228	2020-11-19T14:31:21:449
0,037665	-0,050810	0,107172	2020-11-19T14:31:21:467
0,022631	-0,034410	0,055672	2020-11-19T14:31:21:489
0,015218	-0,070009	0,053100	2020-11-19T14:31:21:506
0,027783	-0,062534	0,089349	2020-11-19T14:31:21:530
0,065012	-0,000610	0,071426	2020-11-19T14:31:21:547
0,036298	-0,089145	0,030748	2020-11-19T14:31:21:569
0,029912	-0,107760	0,096980	2020-11-19T14:31:21:587
-0,047886	-0,060135	0,061580	2020-11-19T14:31:21:610
-0,060304	-0,098684	0,030357	2020-11-19T14:31:21:626
-0,013050	-0,093625	0,039994	2020-11-19T14:31:21:649
-0,006289	-0,038168	0,056191	2020-11-19T14:31:21:666
-0,042132	-0,012061	0,117368	2020-11-19T14:31:21:690
0,019681	-0,123300	0,110417	2020-11-19T14:31:21:707
-0,029914	-0,073318	0,079312	2020-11-19T14:31:21:729
0,018368	-0,078316	0,068953	2020-11-19T14:31:21:747
-0,055499	-0,046937	0,030733	2020-11-19T14:31:21:770
0,023824	-0,068345	0,067469	2020-11-19T14:31:21:787
-0,088638	-0,042025	0,077041	2020-11-19T14:31:21:809
-0,060649	-0,124088	0,078439	2020-11-19T14:31:21:827
-0,013421	-0,062085	0,111987	2020-11-19T14:31:21:850
0,010936	-0,072262	0,015946	2020-11-19T14:31:21:867
-0,023333	-0,035921	0,111005	2020-11-19T14:31:21:890
-0,030100	-0,024649	0,062381	2020-11-19T14:31:21:907
0,008612	-0,048820	0,056659	2020-11-19T14:31:21:930
0,035584	-0,065417	0,044375	2020-11-19T14:31:21:948
0,001631	-0,052970	0,021079	2020-11-19T14:31:21:969
0,010610	-0,090836	0,075425	2020-11-19T14:31:21:987
-0,007256	-0,088343	0,058483	2020-11-19T14:31:22:010
0,042547	-0,102503	0,075929	2020-11-19T14:31:22:027
-0,044713	-0,070808	0,012075	2020-11-19T14:31:22:051
0,051352	-0,127448	0,080788	2020-11-19T14:31:22:067
0,066589	-0,102893	0,119779	2020-11-19T14:31:22:090
-0,014166	-0,066875	0,091524	2020-11-19T14:31:22:107
-0,012330	-0,050145	0,062380	2020-11-19T14:31:22:130
0,008083	-0,013850	0,042150	2020-11-19T14:31:22:147
-0,018808	-0,040136	0,041979	2020-11-19T14:31:22:170
-0,021986	-0,057420	0,131243	2020-11-19T14:31:22:188
-0,080539	-0,084897	0,109560	2020-11-19T14:31:22:209
-0,100975	-0,059571	0,054137	2020-11-19T14:31:22:227
-0,085223	-0,002504	0,037921	2020-11-19T14:31:22:251
-0,052994	-0,007643	0,105331	2020-11-19T14:31:22:267
-0,002939	-0,003803	0,058956	2020-11-19T14:31:22:289
0,057110	-0,066299	0,074455	2020-11-19T14:31:22:307
0,016013	-0,118813	0,078158	2020-11-19T14:31:22:330
0,024616	-0,085415	-0,006682	2020-11-19T14:31:22:347
0,018651	-0,084781	0,029212	2020-11-19T14:31:22:370
-0,071420	-0,105694	0,033721	2020-11-19T14:31:22:387
0,018896	-0,105167	0,037402	2020-11-19T14:31:22:410
-0,031463	-0,099249	0,058208	2020-11-19T14:31:22:428
0,006588	-0,096185	0,125988	2020-11-19T14:31:22:449
0,013484	-0,074194	0,059602	2020-11-19T14:31:22:467
0,036438	-0,041900	0,077781	2020-11-19T14:31:22:491
-0,061191	-0,060083	0,063165	2020-11-19T14:31:22:507
-0,057855	-0,012085	0,112302	2020-11-19T14:31:22:531
-0,036967	-0,010370	0,098036	2020-11-19T14:31:22:547
-0,021521	-0,065795	0,041732	2020-11-19T14:31:22:570
-0,026246	-0,084498	0,055912	2020-11-19T14:31:22:588
-0,054651	-0,079421	0,074303	2020-11-19T14:31:22:611
-0,019429	-0,055653	0,053024	2020-11-19T14:31:22:627
-0,009412	-0,046131	0,026730	2020-11-19T14:31:22:650
-0,020836	-0,032387	0,126914	2020-11-19T14:31:22:673
-0,066170	-0,033296	0,107201	2020-11-19T14:31:22:692
-0,061570	-0,054934	0,043438	2020-11-19T14:31:22:708
0,003036	-0,069291	0,050617	2020-11-19T14:31:22:731
-0,062405	-0,028280	0,030220	2020-11-19T14:31:22:748
-0,011715	-0,071499	0,036015	2020-11-19T14:31:22:770
-0,018304	-0,102691	0,019204	2020-11-19T14:31:22:788
0,009611	-0,131559	0,113657	2020-11-19T14:31:22:811
-0,011925	-0,002347	0,077765	2020-11-19T14:31:22:828
-0,026338	-0,048141	0,078484	2020-11-19T14:31:22:850
0,057338	-0,028851	0,070527	2020-11-19T14:31:22:869
-0,048508	-0,047646	0,006372	2020-11-19T14:31:22:891
-0,000652	-0,071574	0,025515	2020-11-19T14:31:22:909
-0,058323	-0,080903	0,072031	2020-11-19T14:31:22:930
0,001702	-0,071974	0,087197	2020-11-19T14:31:22:948
0,018029	-0,041337	0,020001	2020-11-19T14:31:22:971
0,018791	-0,064719	0,028885	2020-11-19T14:31:22:989
0,033466	-0,049618	0,055225	2020-11-19T14:31:23:010
-0,033643	-0,116179	0,091752	2020-11-19T14:31:23:028
-0,010777	-0,016100	0,066561	2020-11-19T14:31:23:051
-0,060122	-0,059515	0,065409	2020-11-19T14:31:23:068
-0,006731	-0,112735	0,121905	2020-11-19T14:31:23:091
-0,056710	-0,063171	0,077994	2020-11-19T14:31:23:108
-0,027706	-0,090196	0,104887	2020-11-19T14:31:23:131
0,024837	-0,059824	0,062908	2020-11-19T14:31:23:150
0,063122	-0,086145	0,065301	2020-11-19T14:31:23:170
-0,010390	-0,045443	0,067685	2020-11-19T14:31:23:189
0,032681	-0,028693	0,067685	2020-11-19T14:31:23:211
-0,042459	-0,096169	0,091075	2020-11-19T14:31:23:229
0,003004	-0,110525	0,064754	2020-11-19T14:31:23:249
0,006835	-0,105602	0,014598	2020-11-19T14:31:23:268
0,044570	-0,071577	0,064708	2020-11-19T14:31:23:291
-0,084421	-0,100124	0,042669	2020-11-19T14:31:23:308
0,034004	-0,083620	0,103459	2020-11-19T14:31:23:330
-0,055936	-0,019560	-0,007765	2020-11-19T14:31:23:348
-0,036106	-0,084414	0,026401	2020-11-19T14:31:23:371
0,010253	-0,098319	0,036343	2020-11-19T14:31:23:390
-0,021838	-0,054747	0,045390	2020-11-19T14:31:23:410
-0,089607	-0,079121	0,087262	2020-11-19T14:31:23:429
-0,011123	-0,087334	0,015415	2020-11-19T14:31:23:451
-0,010005	-0,075390	0,049505	2020-11-19T14:31:23:469
0,059386	-0,032319	0,059076	2020-11-19T14:31:23:490
-0,036868	-0,036766	0,018261	2020-11-19T14:31:23:509
0,025345	-0,098979	0,044582	2020-11-19T14:31:23:531
-0,034334	-0,052716	0,042349	2020-11-19T14:31:23:549
0,042236	-0,052716	0,037564	2020-11-19T14:31:23:570
0,013804	-0,075809	0,053284	2020-11-19T14:31:23:589
-0,002946	-0,059059	0,074819	2020-11-19T14:31:23:610
-0,018156	-0,011049	0,043952	2020-11-19T14:31:23:629
-0,056087	-0,099283	0,028898	2020-11-19T14:31:23:650
-0,083057	-0,096546	0,007736	2020-11-19T14:31:23:668
-0,058017	-0,084509	0,012645	2020-11-19T14:31:23:691
-0,050975	-0,003110	0,071675	2020-11-19T14:31:23:708
-0,058371	-0,123553	0,052301	2020-11-19T14:31:23:730
0,029376	-0,068810	0,051844	2020-11-19T14:31:23:748
-0,095322	-0,006215	0,097553	2020-11-19T14:31:23:771
-0,069887	-0,069436	0,080620	2020-11-19T14:31:23:789
-0,011529	-0,060732	0,059253	2020-11-19T14:31:23:811
0,025317	-0,077965	0,052674	2020-11-19T14:31:23:828
0,074334	-0,087558	0,051811	2020-11-19T14:31:23:851
-0,010759	-0,101519	0,084955	2020-11-19T14:31:23:869
-0,047184	-0,029742	0,072621	2020-11-19T14:31:23:890
0,047628	-0,147177	0,003233	2020-11-19T14:31:23:908
-0,103899	-0,119893	0,094559	2020-11-19T14:31:23:931
-0,032833	-0,111217	0,071114	2020-11-19T14:31:23:949
-0,061143	-0,046679	0,025557	2020-11-19T14:31:23:970
-0,025842	-0,079945	0,051762	2020-11-19T14:31:23:992
-0,001451	-0,096603	0,085994	2020-11-19T14:31:24:011
-0,059688	-0,079851	0,052007	2020-11-19T14:31:24:028
0,037969	0,011045	0,043489	2020-11-19T14:31:24:051
0,023647	-0,110611	0,015174	2020-11-19T14:31:24:069
0,002234	-0,119339	0,039475	2020-11-19T14:31:24:092
-0,089839	-0,106895	0,054578	2020-11-19T14:31:24:111
-0,022840	-0,121253	0,040221	2020-11-19T14:31:24:130
-0,005591	-0,080347	0,046449	2020-11-19T14:31:24:149
0,006379	-0,075571	0,082292	2020-11-19T14:31:24:171
-0,033046	-0,070899	0,066669	2020-11-19T14:31:24:189
-0,001412	0,003186	0,040215	2020-11-19T14:31:24:211
0,017247	-0,061223	0,040892	2020-11-19T14:31:24:229
-0,003509	-0,070340	0,080428	2020-11-19T14:31:24:261
0,005410	-0,039295	0,084503	2020-11-19T14:31:24:269
-0,030848	-0,120970	0,125771	2020-11-19T14:31:24:292
0,048466	-0,102349	0,058794	2020-11-19T14:31:24:309
0,003967	-0,171182	0,068778	2020-11-19T14:31:24:331
-0,065514	-0,137766	0,057266	2020-11-19T14:31:24:351
0,020628	-0,113838	-0,007341	2020-11-19T14:31:24:370
-0,034743	-0,014150	-0,012230	2020-11-19T14:31:24:390
-0,001244	-0,042863	0,069126	2020-11-19T14:31:24:412
-0,012862	0,055451	0,037805	2020-11-19T14:31:24:429
-0,053155	0,014905	0,093728	2020-11-19T14:31:24:451
-0,021674	-0,055592	0,067494	2020-11-19T14:31:24:469
0,045325	-0,096270	0,120136	2020-11-19T14:31:24:492
-0,031448	-0,071001	0,078920	2020-11-19T14:31:24:509
-0,045805	-0,094929	0,038243	2020-11-19T14:31:24:531
-0,003374	-0,020704	0,068262	2020-11-19T14:31:24:549
-0,066280	-0,097034	0,066634	2020-11-19T14:31:24:572
0,001502	-0,046028	0,037355	2020-11-19T14:31:24:592
0,027823	-0,034064	0,025391	2020-11-19T14:31:24:611
-0,000586	-0,086155	0,089051	2020-11-19T14:31:24:629
-0,094673	-0,129312	0,085756	2020-11-19T14:31:24:653
-0,086277	-0,081811	0,079042	2020-11-19T14:31:24:670
-0,007844	-0,075234	0,116969	2020-11-19T14:31:24:691
0,021821	-0,138173	-0,027208	2020-11-19T14:31:24:710
0,018000	-0,105989	0,106456	2020-11-19T14:31:24:732
-0,028316	-0,153553	0,072399	2020-11-19T14:31:24:750
0,019540	-0,067411	0,079578	2020-11-19T14:31:24:771
0,028985	-0,081843	0,080054	2020-11-19T14:31:24:790
0,023352	-0,032050	0,075810	2020-11-19T14:31:24:812
-0,033236	-0,079822	0,040855	2020-11-19T14:31:24:831
0,021799	-0,106142	0,095890	2020-11-19T14:31:24:851
-0,011807	-0,127517	0,097549	2020-11-19T14:31:24:869
0,047386	-0,146635	0,058999	2020-11-19T14:31:24:893
0,022045	-0,038097	0,017861	2020-11-19T14:31:24:909
-0,079986	-0,056624	0,048689	2020-11-19T14:31:24:931
-0,011570	-0,026062	0,093777	2020-11-19T14:31:24:950
-0,058204	-0,031701	0,090307	2020-11-19T14:31:24:972
-0,030982	-0,104543	0,101455	2020-11-19T14:31:24:990
-0,037101	-0,140956	0,087573	2020-11-19T14:31:25:012
-0,045829	-0,076539	0,070407	2020-11-19T14:31:25:030
0,019798	-0,165157	0,077800	2020-11-19T14:31:25:052
-0,055535	-0,035113	0,089301	2020-11-19T14:31:25:071
-0,061468	-0,006781	0,078611	2020-11-19T14:31:25:092
0,012589	-0,019312	0,098738	2020-11-19T14:31:25:110
0,006741	-0,070065	0,083648	2020-11-19T14:31:25:133
-0,024816	-0,070334	0,038978	2020-11-19T14:31:25:150
-0,048203	-0,125050	0,079164	2020-11-19T14:31:25:171
0,017526	-0,107859	0,106879	2020-11-19T14:31:25:191
0,053418	-0,081538	0,015952	2020-11-19T14:31:25:213
-0,035745	-0,103545	0,002975	2020-11-19T14:31:25:230
-0,037814	-0,040504	0,091017	2020-11-19T14:31:25:252
-0,023751	-0,055805	0,135485	2020-11-19T14:31:25:270
-0,004918	-0,076566	0,183809	2020-11-19T14:31:25:293
-0,056337	-0,047425	0,091154	2020-11-19T14:31:25:311
-0,060511	-0,096401	-0,015388	2020-11-19T14:31:25:332
-0,003933	-0,137630	0,019436	2020-11-19T14:31:25:351
0,003245	-0,151987	0,048150	2020-11-19T14:31:25:373
-0,037970	-0,064784	0,039617	2020-11-19T14:31:25:391
0,003326	-0,028662	0,079411	2020-11-19T14:31:25:412
-0,018219	-0,029066	0,108523	2020-11-19T14:31:25:430
-0,054874	-0,032380	0,112173	2020-11-19T14:31:25:453
-0,063792	-0,129185	0,102959	2020-11-19T14:31:25:471
-0,056613	-0,105256	0,069460	2020-11-19T14:31:25:493
-0,053635	-0,119786	-0,013313	2020-11-19T14:31:25:510
-0,059087	-0,128762	0,009814	2020-11-19T14:31:25:533
0,042338	0,015326	0,067966	2020-11-19T14:31:25:551
-0,040015	0,022679	0,093063	2020-11-19T14:31:25:572
-0,111481	-0,034491	0,147934	2020-11-19T14:31:25:591
-0,034911	-0,127810	0,135970	2020-11-19T14:31:25:613
-0,009358	-0,107288	0,098511	2020-11-19T14:31:25:630
0,046087	-0,052623	0,027565	2020-11-19T14:31:25:653
0,020292	-0,064152	0,052470	2020-11-19T14:31:25:671
0,016658	-0,094992	0,048231	2020-11-19T14:31:25:693
0,031379	-0,118312	0,083463	2020-11-19T14:31:25:710
0,009295	-0,043810	0,085644	2020-11-19T14:31:25:732
-0,092453	-0,043997	0,124644	2020-11-19T14:31:25:751
-0,029017	-0,018801	0,075886	2020-11-19T14:31:25:773
-0,042593	-0,074060	0,080051	2020-11-19T14:31:25:792
-0,034140	-0,052631	0,077924	2020-11-19T14:31:25:812
-0,059227	-0,098294	0,015490	2020-11-19T14:31:25:830
-0,023295	-0,100949	0,118595	2020-11-19T14:31:25:854
-0,013724	-0,067450	0,044417	2020-11-19T14:31:25:870
0,014756	-0,079269	0,049766	2020-11-19T14:31:25:893
-0,007941	-0,112680	-0,027086	2020-11-19T14:31:25:911
0,027714	-0,154988	0,124849	2020-11-19T14:31:25:933
-0,041636	-0,104956	0,038601	2020-11-19T14:31:25:951
0,021284	-0,095082	0,038116	2020-11-19T14:31:25:973
-0,007066	-0,139875	0,047331	2020-11-19T14:31:25:995
-0,048665	-0,041346	-0,073186	2020-11-19T14:31:26:014
-0,087940	-0,071296	0,007523	2020-11-19T14:31:26:031
-0,049037	-0,044562	0,095164	2020-11-19T14:31:26:052
-0,060991	-0,062090	0,190922	2020-11-19T14:31:26:071
-0,073937	-0,121857	0,045412	2020-11-19T14:31:26:093
-0,063526	-0,062743	0,022411	2020-11-19T14:31:26:111
0,024218	-0,074591	0,122079	2020-11-19T14:31:26:132
0,000174	-0,056047	0,038636	2020-11-19T14:31:26:151
0,042260	-0,037027	0,054181	2020-11-19T14:31:26:173
0,026686	-0,045895	0,050608	2020-11-19T14:31:26:191
0,003210	0,021441	0,098912	2020-11-19T14:31:26:213
-0,071484	-0,101810	0,118055	2020-11-19T14:31:26:231
-0,033199	-0,099417	0,063020	2020-11-19T14:31:26:254
0,001068	-0,085064	0,008440	2020-11-19T14:31:26:272
-0,033826	-0,127265	0,030969	2020-11-19T14:31:26:293
0,009376	-0,117292	-0,005275	2020-11-19T14:31:26:311
0,096373	-0,035373	0,020463	2020-11-19T14:31:26:334
0,057760	-0,081907	0,158994	2020-11-19T14:31:26:351
0,050581	-0,113014	0,106352	2020-11-19T14:31:26:373
0,054882	-0,069992	0,011992	2020-11-19T14:31:26:391
0,047951	-0,019019	0,058231	2020-11-19T14:31:26:414
0,023013	-0,021506	0,134692	2020-11-19T14:31:26:431
0,005292	-0,055079	0,170031	2020-11-19T14:31:26:454
0,045970	-0,117292	0,217888	2020-11-19T14:31:26:471
-0,007570	-0,147755	0,165869	2020-11-19T14:31:26:494
0,037828	-0,195731	0,095861	2020-11-19T14:31:26:513
-0,072242	-0,183767	0,050397	2020-11-19T14:31:26:533
-0,107579	-0,097083	0,030828	2020-11-19T14:31:26:551
-0,088995	-0,106910	0,082370	2020-11-19T14:31:26:574
-0,090637	-0,086329	0,096403	2020-11-19T14:31:26:591
-0,032585	-0,063382	0,036078	2020-11-19T14:31:26:613
-0,010599	-0,008245	0,063158	2020-11-19T14:31:26:631
-0,010695	-0,082505	0,017243	2020-11-19T14:31:26:654
0,043011	-0,170101	0,030526	2020-11-19T14:31:26:671
0,012012	-0,070718	0,060187	2020-11-19T14:31:26:694
0,014371	-0,039516	0,109445	2020-11-19T14:31:26:711
0,014788	0,005273	0,112206	2020-11-19T14:31:26:734
0,034129	-0,046014	0,178687	2020-11-19T14:31:26:753
-0,003955	-0,089622	0,147527	2020-11-19T14:31:26:773
0,024758	-0,161406	0,015921	2020-11-19T14:31:26:792
-0,041642	-0,128808	-0,042604	2020-11-19T14:31:26:815
-0,030334	-0,089297	0,024129	2020-11-19T14:31:26:832
-0,084367	-0,031679	0,164422	2020-11-19T14:31:26:853
-0,037818	-0,083796	0,104878	2020-11-19T14:31:26:872
-0,037587	-0,069957	0,028346	2020-11-19T14:31:26:895
0,070385	0,035784	0,013964	2020-11-19T14:31:26:911
-0,048107	-0,152338	0,032926	2020-11-19T14:31:26:935
-0,003258	-0,053887	0,061960	2020-11-19T14:31:26:952
0,044598	-0,080210	0,028461	2020-11-19T14:31:26:974
-0,001487	-0,082054	0,125017	2020-11-19T14:31:26:992
-0,009354	-0,020703	0,089355	2020-11-19T14:31:27:014
-0,023556	-0,074230	0,149809	2020-11-19T14:31:27:031
-0,006544	-0,053626	0,085689	2020-11-19T14:31:27:055
-0,019751	-0,060641	0,049846	2020-11-19T14:31:27:072
0,066623	-0,019894	0,095775	2020-11-19T14:31:27:094
-0,083309	-0,058209	0,069368	2020-11-19T14:31:27:112
0,005800	-0,082735	0,096977	2020-11-19T14:31:27:134
-0,030232	-0,085628	0,068188	2020-11-19T14:31:27:151
-0,057116	-0,057366	0,047956	2020-11-19T14:31:27:174
0,024548	-0,043169	0,144505	2020-11-19T14:31:27:193
0,000368	-0,122235	0,003670	2020-11-19T14:31:27:214
-0,034290	-0,104431	0,034338	2020-11-19T14:31:27:234
-0,067079	-0,106331	0,010788	2020-11-19T14:31:27:254
-0,035822	-0,032000	0,058489	2020-11-19T14:31:27:273
-0,008588	-0,123293	0,069245	2020-11-19T14:31:27:295
0,048984	-0,037363	0,130106	2020-11-19T14:31:27:314
0,084876	-0,054112	0,134891	2020-11-19T14:31:27:334
0,000473	-0,080502	0,071557	2020-11-19T14:31:27:353
-0,047695	-0,097142	0,062325	2020-11-19T14:31:27:375
-0,057754	-0,077920	-0,012748	2020-11-19T14:31:27:392
-0,000191	-0,108397	0,053949	2020-11-19T14:31:27:414
-0,071757	-0,065504	0,046048	2020-11-19T14:31:27:433
0,000243	-0,068300	0,179653	2020-11-19T14:31:27:455
-0,019975	-0,119659	0,058874	2020-11-19T14:31:27:474
0,032283	-0,066891	0,059251	2020-11-19T14:31:27:495
0,003686	-0,057037	0,059256	2020-11-19T14:31:27:512
-0,033304	-0,118999	0,000000	2020-11-19T14:31:27:535
-0,040064	-0,044147	0,053713	2020-11-19T14:31:27:552
-0,017394	-0,111196	0,087636	2020-11-19T14:31:27:574
0,015843	-0,075437	0,055739	2020-11-19T14:31:27:595
-0,011676	-0,099358	0,107713	2020-11-19T14:31:27:615
0,012309	-0,025829	0,104651	2020-11-19T14:31:27:632
0,042631	-0,069433	0,084906	2020-11-19T14:31:27:654
-0,091621	-0,095679	0,040652	2020-11-19T14:31:27:672
-0,054657	-0,040826	0,077698	2020-11-19T14:31:27:695
0,009869	-0,134740	0,040339	2020-11-19T14:31:27:714
-0,053071	-0,043603	0,119873	2020-11-19T14:31:27:734
0,068964	-0,130659	0,100183	2020-11-19T14:31:27:752
-0,009464	-0,089557	0,037494	2020-11-19T14:31:27:775
-0,040645	-0,065228	0,068072	2020-11-19T14:31:27:794
-0,064573	-0,060442	0,080037	2020-11-19T14:31:27:814
-0,040733	-0,037877	0,119379	2020-11-19T14:31:27:833
-0,093305	-0,000509	0,084382	2020-11-19T14:31:27:855
-0,014342	-0,072293	0,096346	2020-11-19T14:31:27:872
-0,013834	-0,113391	0,099442	2020-11-19T14:31:27:895
0,058017	-0,171096	0,043134	2020-11-19T14:31:27:912
0,000564	-0,153142	0,034055	2020-11-19T14:31:27:935
-0,015651	-0,040029	-0,016588	2020-11-19T14:31:27:953
0,011063	-0,037286	0,047511	2020-11-19T14:31:27:974
-0,048829	-0,123608	0,044220	2020-11-19T14:31:27:993
-0,041162	-0,025647	0,047614	2020-11-19T14:31:28:015
-0,092970	-0,081025	0,110098	2020-11-19T14:31:28:032
0,000239	-0,184750	0,075397	2020-11-19T14:31:28:054
-0,053609	-0,165059	0,048569	2020-11-19T14:31:28:073
-0,014800	-0,100100	0,069701	2020-11-19T14:31:28:096
0,000561	-0,054578	0,102657	2020-11-19T14:31:28:112
0,025272	-0,109765	0,005269	2020-11-19T14:31:28:135
0,015368	-0,065445	0,107709	2020-11-19T14:31:28:153
0,011649	-0,051055	0,061624	2020-11-19T14:31:28:175
-0,060779	-0,089057	0,086518	2020-11-19T14:31:28:194
-0,110695	-0,075080	-0,007006	2020-11-19T14:31:28:214
-0,017277	-0,101211	0,147533	2020-11-19T14:31:28:232
-0,033971	-0,061086	0,039648	2020-11-19T14:31:28:255
0,002675	-0,070311	0,056099	2020-11-19T14:31:28:273
-0,031974	-0,084282	0,119475	2020-11-19T14:31:28:295
-0,093703	-0,087184	0,088622	2020-11-19T14:31:28:313
0,008073	-0,085449	0,027839	2020-11-19T14:31:28:335
-0,018606	-0,144814	0,008258	2020-11-19T14:31:28:352
0,051678	-0,137033	0,026022	2020-11-19T14:31:28:375
-0,092054	-0,126674	0,083303	2020-11-19T14:31:28:394
0,009714	-0,062598	0,015947	2020-11-19T14:31:28:416
-0,027452	-0,088300	0,025327	2020-11-19T14:31:28:434
-0,017674	-0,087879	0,106424	2020-11-19T14:31:28:454
-0,065910	-0,085732	0,059562	2020-11-19T14:31:28:473
0,015411	-0,021329	0,067174	2020-11-19T14:31:28:496
-0,023657	-0,097922	0,057027	2020-11-19T14:31:28:513
0,020027	-0,071543	0,045706	2020-11-19T14:31:28:535
0,009393	-0,090487	0,077129	2020-11-19T14:31:28:553
-0,005787	-0,090482	0,047951	2020-11-19T14:31:28:575
-0,027736	-0,075710	0,092757	2020-11-19T14:31:28:594
0,027933	-0,083056	0,063621	2020-11-19T14:31:28:615
0,066814	-0,080374	0,063931	2020-11-19T14:31:28:633
0,056298	-0,094396	0,082697	2020-11-19T14:31:28:656
-0,040023	-0,106139	0,070004	2020-11-19T14:31:28:675
-0,003002	-0,187551	0,046474	2020-11-19T14:31:28:695
-0,010956	-0,074263	0,023653	2020-11-19T14:31:28:714
-0,056419	-0,107762	0,100224	2020-11-19T14:31:28:736
-0,033029	-0,101078	0,058278	2020-11-19T14:31:28:753
-0,027818	-0,148725	0,030826	2020-11-19T14:31:28:775
-0,049220	-0,071574	0,069581	2020-11-19T14:31:28:794
-0,059494	-0,083791	0,050236	2020-11-19T14:31:28:816
-0,037989	-0,060072	0,007572	2020-11-19T14:31:28:834
-0,026729	-0,093341	0,043192	2020-11-19T14:31:28:855
-0,021106	-0,157497	0,048251	2020-11-19T14:31:28:874
-0,052213	-0,059392	0,065000	2020-11-19T14:31:28:896
-0,021011	-0,035815	0,014558	2020-11-19T14:31:28:915
0,001161	-0,078436	-0,002033	2020-11-19T14:31:28:935
0,000245	0,004265	0,037411	2020-11-19T14:31:28:954
-0,054790	-0,098626	0,082875	2020-11-19T14:31:28:977
-0,054277	-0,075289	0,043492	2020-11-19T14:31:28:994
0,015463	-0,111435	0,034355	2020-11-19T14:31:29:015
-0,025362	-0,051544	0,084856	2020-11-19T14:31:29:034
0,084708	-0,154435	0,058535	2020-11-19T14:31:29:056
0,059741	-0,122410	0,049878	2020-11-19T14:31:29:074
-0,018290	-0,128910	0,024515	2020-11-19T14:31:29:096
-0,000196	-0,070602	-0,014926	2020-11-19T14:31:29:114
0,019742	-0,160171	-0,018863	2020-11-19T14:31:29:136
-0,047246	-0,082219	0,120431	2020-11-19T14:31:29:155
-0,071721	-0,028137	0,066650	2020-11-19T14:31:29:175
-0,024219	-0,034395	0,098060	2020-11-19T14:31:29:195
-0,033790	-0,110966	0,078917	2020-11-19T14:31:29:216
-0,008951	-0,115788	0,048180	2020-11-19T14:31:29:235
-0,044843	-0,012897	0,100822	2020-11-19T14:31:29:255
-0,039269	-0,040638	0,107829	2020-11-19T14:31:29:274
0,001409	-0,054995	0,004938	2020-11-19T14:31:29:297
0,047928	-0,089945	0,049379	2020-11-19T14:31:29:314
-0,012486	-0,075038	0,112449	2020-11-19T14:31:29:336
-0,070438	-0,082376	0,039571	2020-11-19T14:31:29:354
-0,079840	-0,091834	0,111070	2020-11-19T14:31:29:376
-0,062393	-0,049817	0,074327	2020-11-19T14:31:29:395
-0,002941	-0,160537	0,048481	2020-11-19T14:31:29:416
-0,056838	-0,080950	-0,009078	2020-11-19T14:31:29:434
0,010161	-0,033093	-0,013863	2020-11-19T14:31:29:457
0,079462	-0,000854	0,030807	2020-11-19T14:31:29:474
0,032872	-0,045119	0,095262	2020-11-19T14:31:29:496
0,031397	-0,142946	0,125386	2020-11-19T14:31:29:514
-0,008438	-0,121237	0,099934	2020-11-19T14:31:29:537
-0,017903	-0,121652	0,081231	2020-11-19T14:31:29:555
-0,015510	0,031489	0,090802	2020-11-19T14:31:29:576
-0,050711	-0,008487	0,083496	2020-11-19T14:31:29:595
-0,017211	-0,056343	0,078710	2020-11-19T14:31:29:617
0,018791	-0,077874	0,091721	2020-11-19T14:31:29:635
-0,041029	-0,132909	0,019936	2020-11-19T14:31:29:656
-0,143330	-0,039340	-0,052684	2020-11-19T14:31:29:679
0,049628	-0,106304	-0,019991	2020-11-19T14:31:29:698
-0,006744	-0,040431	0,067665	2020-11-19T14:31:29:714
-0,098276	-0,001261	0,137989	2020-11-19T14:31:29:736
0,033329	-0,053903	0,193024	2020-11-19T14:31:29:754
0,015993	-0,005234	0,145297	2020-11-19T14:31:29:777
0,037737	-0,053644	0,095850	2020-11-19T14:31:29:795
-0,044875	-0,111159	-0,051280	2020-11-19T14:31:29:816
0,009622	-0,174696	0,065058	2020-11-19T14:31:29:834
-0,066156	-0,100363	0,122280	2020-11-19T14:31:29:857
-0,008553	-0,068137	0,073169	2020-11-19T14:31:29:877
0,001019	-0,041817	0,077955	2020-11-19T14:31:29:896
-0,039198	0,002324	0,110159	2020-11-19T14:31:29:915
-0,015270	-0,062282	0,095802	2020-11-19T14:31:29:937
-0,023193	-0,077276	0,088940	2020-11-19T14:31:29:955
-0,034187	-0,182621	-0,016059	2020-11-19T14:31:29:977
-0,002533	-0,088230	0,094693	2020-11-19T14:31:29:995
-0,052077	-0,011322	0,138380	2020-11-19T14:31:30:017
0,008451	-0,115938	0,137702	2020-11-19T14:31:30:035
-0,005906	-0,010654	0,056346	2020-11-19T14:31:30:057
-0,029149	-0,077658	0,116552	2020-11-19T14:31:30:075
-0,082648	-0,142752	0,040947	2020-11-19T14:31:30:097
-0,033428	-0,094847	0,038643	2020-11-19T14:31:30:116
-0,000818	-0,063580	0,100131	2020-11-19T14:31:30:136
0,040221	-0,147923	0,075966	2020-11-19T14:31:30:155
-0,037599	-0,085229	0,009091	2020-11-19T14:31:30:177
0,057918	-0,055959	0,085810	2020-11-19T14:31:30:195
0,010259	-0,051003	0,071933	2020-11-19T14:31:30:216
-0,024429	-0,044491	0,099141	2020-11-19T14:31:30:235
0,042570	-0,089954	0,130247	2020-11-19T14:31:30:257
0,073569	-0,023379	0,114777	2020-11-19T14:31:30:275
-0,113510	-0,109657	0,057423	2020-11-19T14:31:30:297
-0,035788	-0,134006	0,061318	2020-11-19T14:31:30:315
-0,017788	-0,128872	-0,008065	2020-11-19T14:31:30:337
-0,025108	-0,111135	0,030075	2020-11-19T14:31:30:356
0,031757	-0,015325	0,052715	2020-11-19T14:31:30:377
0,036542	-0,075145	0,088607	2020-11-19T14:31:30:395
0,099995	-0,100203	0,063412	2020-11-19T14:31:30:418
0,013854	-0,097810	0,044270	2020-11-19T14:31:30:435
-0,062285	-0,125844	0,052571	2020-11-19T14:31:30:457
-0,106725	-0,142391	0,017278	2020-11-19T14:31:30:475
-0,097086	-0,046553	0,047087	2020-11-19T14:31:30:498
-0,078379	-0,005084	0,105627	2020-11-19T14:31:30:515
0,007763	-0,052940	0,088878	2020-11-19T14:31:30:537
0,012188	-0,021823	0,094458	2020-11-19T14:31:30:555
0,009810	-0,105463	0,057669	2020-11-19T14:31:30:577
0,017877	-0,054226	0,057702	2020-11-19T14:31:30:598
0,029841	-0,111654	0,043345	2020-11-19T14:31:30:617
0,013402	-0,099120	0,028100	2020-11-19T14:31:30:635
-0,078284	-0,060488	0,091534	2020-11-19T14:31:30:658
-0,077013	-0,102154	0,036313	2020-11-19T14:31:30:686
-0,083539	-0,066555	0,067822	2020-11-19T14:31:30:697
-0,037188	-0,074349	0,009394	2020-11-19T14:31:30:716
-0,022141	-0,028487	0,038044	2020-11-19T14:31:30:737
-0,014845	-0,095279	0,070220	2020-11-19T14:31:30:755
-0,060730	-0,116756	0,084600	2020-11-19T14:31:30:777
-0,070930	-0,081222	0,088727	2020-11-19T14:31:30:796
-0,013506	-0,072103	0,044912	2020-11-19T14:31:30:818
0,022243	-0,050249	0,063104	2020-11-19T14:31:30:837
-0,024515	-0,007071	0,089164	2020-11-19T14:31:30:857
-0,059675	-0,068263	0,144271	2020-11-19T14:31:30:877
-0,071639	-0,044335	0,010273	2020-11-19T14:31:30:898
-0,008078	-0,006031	0,079612	2020-11-19T14:31:30:915
-0,002810	-0,037577	0,080191	2020-11-19T14:31:30:937
0,021159	-0,078590	0,078601	2020-11-19T14:31:30:956
-0,033289	-0,066545	0,020478	2020-11-19T14:31:30:980
-0,006203	-0,013658	0,029294	2020-11-19T14:31:30:996
0,005449	-0,051756	0,010856	2020-11-19T14:31:31:017
0,021407	-0,051288	0,034164	2020-11-19T14:31:31:035
-0,006908	-0,112701	0,046381	2020-11-19T14:31:31:058
-0,011694	-0,055273	0,099023	2020-11-19T14:31:31:077
-0,004241	-0,072421	0,039845	2020-11-19T14:31:31:097
-0,013688	-0,081756	0,055421	2020-11-19T14:31:31:116
-0,020867	-0,132005	0,067385	2020-11-19T14:31:31:138
0,060517	-0,038625	0,055722	2020-11-19T14:31:31:156
-0,012073	-0,095761	0,100667	2020-11-19T14:31:31:177
-0,041069	-0,062593	0,106078	2020-11-19T14:31:31:196
-0,011325	-0,118162	0,029953	2020-11-19T14:31:31:218
0,064685	-0,072190	0,067953	2020-11-19T14:31:31:236
-0,027699	0,067033	0,058190	2020-11-19T14:31:31:258
-0,047777	-0,045881	0,025788	2020-11-19T14:31:31:276
0,018576	-0,088905	0,096452	2020-11-19T14:31:31:298
-0,061940	-0,077086	0,006288	2020-11-19T14:31:31:317
0,009962	-0,009900	0,042189	2020-11-19T14:31:31:337
0,028673	-0,083975	-0,005428	2020-11-19T14:31:31:356
-0,001764	-0,040020	0,050434	2020-11-19T14:31:31:378
-0,011830	-0,104458	0,024623	2020-11-19T14:31:31:396
-0,069711	-0,075204	0,065246	2020-11-19T14:31:31:417
-0,012496	-0,140092	0,062797	2020-11-19T14:31:31:436
-0,022616	-0,046720	0,101007	2020-11-19T14:31:31:459
0,047628	-0,102600	0,118979	2020-11-19T14:31:31:476
-0,024625	-0,064847	0,021387	2020-11-19T14:31:31:498
0,009866	-0,089606	-0,026970	2020-11-19T14:31:31:517
0,000295	-0,036963	0,071136	2020-11-19T14:31:31:538
-0,025703	0,017860	0,048776	2020-11-19T14:31:31:557
-0,056682	-0,002048	0,106420	2020-11-19T14:31:31:577
0,039695	-0,065128	0,039477	2020-11-19T14:31:31:597
-0,012986	-0,109709	0,082944	2020-11-19T14:31:31:619
-0,045955	-0,124310	0,103624	2020-11-19T14:31:31:636
-0,002869	-0,048666	0,083867	2020-11-19T14:31:31:658
-0,089200	-0,149241	0,035527	2020-11-19T14:31:31:676
-0,062376	-0,045871	0,082643	2020-11-19T14:31:31:699
-0,062150	-0,055958	0,098486	2020-11-19T14:31:31:716
-0,025934	-0,099887	0,014652	2020-11-19T14:31:31:738
-0,065846	-0,046860	0,052860	2020-11-19T14:31:31:756
0,032601	-0,111738	0,074743	2020-11-19T14:31:31:779
0,034797	-0,075448	0,084656	2020-11-19T14:31:31:798
-0,111443	-0,077497	0,036838	2020-11-19T14:31:31:818
0,000229	-0,111028	0,048681	2020-11-19T14:31:31:836
-0,079647	-0,048410	0,040501	2020-11-19T14:31:31:859
-0,033384	-0,062984	0,031826	2020-11-19T14:31:31:876
-0,051274	-0,072439	0,011617	2020-11-19T14:31:31:898
0,008489	-0,086656	0,037647	2020-11-19T14:31:31:917
0,079766	-0,074437	0,033780	2020-11-19T14:31:31:939
-0,130117	-0,042557	0,118769	2020-11-19T14:31:31:957
-0,009914	-0,039006	0,037102	2020-11-19T14:31:31:979
-0,048652	-0,017685	0,044438	2020-11-19T14:31:31:997
0,006383	-0,055969	0,027689	2020-11-19T14:31:32:019
0,007619	-0,072223	0,031773	2020-11-19T14:31:32:038
0,016136	-0,047845	0,054835	2020-11-19T14:31:32:058
-0,013792	-0,045302	0,071566	2020-11-19T14:31:32:077
0,058254	-0,043165	0,056135	2020-11-19T14:31:32:099
0,076663	-0,090693	0,058202	2020-11-19T14:31:32:117
-0,025854	-0,070950	0,094311	2020-11-19T14:31:32:138
-0,005307	-0,156590	0,031529	2020-11-19T14:31:32:157
-0,091449	-0,084805	0,065029	2020-11-19T14:31:32:179
0,044246	-0,080540	0,045863	2020-11-19T14:31:32:197
-0,013659	-0,096691	0,030259	2020-11-19T14:31:32:219
0,050758	-0,062746	0,027516	2020-11-19T14:31:32:237
-0,028335	-0,062278	0,076104	2020-11-19T14:31:32:259
-0,001555	-0,041584	0,081881	2020-11-19T14:31:32:278
0,017587	-0,087048	0,081881	2020-11-19T14:31:32:298
0,012911	-0,086884	0,059750	2020-11-19T14:31:32:317
0,030033	-0,074321	0,061423	2020-11-19T14:31:32:339
-0,002876	-0,035813	-0,003199	2020-11-19T14:31:32:357
-0,021654	-0,045131	0,003041	2020-11-19T14:31:32:378
-0,044263	-0,102530	0,047046	2020-11-19T14:31:32:397
0,012607	-0,066751	0,078716	2020-11-19T14:31:32:419
-0,004730	-0,042924	0,070696	2020-11-19T14:31:32:437
-0,057663	-0,071688	0,076511	2020-11-19T14:31:32:460
-0,045699	-0,019046	0,071726	2020-11-19T14:31:32:477
-0,028646	-0,103008	0,038837	2020-11-19T14:31:32:499
-0,032697	-0,043482	0,048893	2020-11-19T14:31:32:519
0,027124	-0,031517	0,056071	2020-11-19T14:31:32:538
0,013535	-0,045895	0,040625	2020-11-19T14:31:32:557
-0,064676	-0,050335	-0,035274	2020-11-19T14:31:32:579
-0,031842	-0,092568	0,065564	2020-11-19T14:31:32:599
-0,026775	-0,025381	0,023581	2020-11-19T14:31:32:619
-0,020984	-0,113722	0,063427	2020-11-19T14:31:32:638
0,000551	-0,094580	0,065820	2020-11-19T14:31:32:659
-0,038064	-0,054061	0,074411	2020-11-19T14:31:32:677
-0,055932	-0,085592	0,087487	2020-11-19T14:31:32:700
-0,032884	-0,007006	0,053082	2020-11-19T14:31:32:717
-0,053644	-0,066890	0,022141	2020-11-19T14:31:32:739
-0,054373	-0,073923	0,052589	2020-11-19T14:31:32:758
-0,038173	-0,086020	0,077011	2020-11-19T14:31:32:778
0,005735	-0,026280	0,007735	2020-11-19T14:31:32:799
-0,064144	-0,054419	0,086810	2020-11-19T14:31:32:820
-0,008905	-0,047821	0,047304	2020-11-19T14:31:32:837
-0,051615	-0,038260	0,047481	2020-11-19T14:31:32:859
0,012861	-0,115108	0,073846	2020-11-19T14:31:32:877
-0,005386	-0,059942	0,049628	2020-11-19T14:31:32:900
-0,034605	-0,047796	0,112413	2020-11-19T14:31:32:917
0,004218	-0,098514	0,096109	2020-11-19T14:31:32:940
-0,039194	-0,046086	0,078104	2020-11-19T14:31:32:958
-0,058336	-0,129835	0,035034	2020-11-19T14:31:32:980
0,005476	-0,093553	0,037923	2020-11-19T14:31:33:000
0,011724	-0,059759	0,057920	2020-11-19T14:31:33:019
0,001889	-0,121972	0,075423	2020-11-19T14:31:33:038
-0,005290	-0,028651	0,034745	2020-11-19T14:31:33:060
-0,039559	-0,040482	0,070818	2020-11-19T14:31:33:078
-0,002800	-0,095723	0,024881	2020-11-19T14:31:33:099
-0,046604	-0,071312	0,093777	2020-11-19T14:31:33:118
-0,016347	-0,102951	0,070605	2020-11-19T14:31:33:140
-0,059484	-0,088588	0,094522	2020-11-19T14:31:33:158
-0,023988	-0,098659	0,093325	2020-11-19T14:31:33:180
0,009072	-0,063151	0,069640	2020-11-19T14:31:33:199
-0,117747	-0,058366	0,064855	2020-11-19T14:31:33:220
-0,009602	-0,082833	0,058315	2020-11-19T14:31:33:239
0,078347	-0,144694	0,030951	2020-11-19T14:31:33:259
0,011193	-0,000174	0,042090	2020-11-19T14:31:33:278
0,104513	-0,016923	0,082768	2020-11-19T14:31:33:301
-0,018777	-0,069263	0,063756	2020-11-19T14:31:33:319
0,002758	-0,069263	0,027864	2020-11-19T14:31:33:339
-0,017164	-0,109553	0,057987	2020-11-19T14:31:33:358
0,006821	-0,061674	0,091631	2020-11-19T14:31:33:380
-0,025413	-0,119096	0,062254	2020-11-19T14:31:33:399
-0,039770	-0,071239	0,059861	2020-11-19T14:31:33:420
-0,083913	-0,064155	0,031502	2020-11-19T14:31:33:438
0,000650	-0,054639	0,033213	2020-11-19T14:31:33:460
0,009657	-0,023221	0,075057	2020-11-19T14:31:33:479
0,001717	-0,066464	0,143135	2020-11-19T14:31:33:500
0,010615	-0,067187	0,100915	2020-11-19T14:31:33:518
0,019025	-0,057788	0,065866	2020-11-19T14:31:33:541
0,023729	-0,042973	0,025899	2020-11-19T14:31:33:559
-0,031306	-0,119543	0,061791	2020-11-19T14:31:33:580
-0,040609	-0,054792	0,067440	2020-11-19T14:31:33:598
0,053634	-0,052551	0,050516	2020-11-19T14:31:33:620
-0,028472	-0,059314	0,002757	2020-11-19T14:31:33:638
-0,046845	-0,044584	0,100758	2020-11-19T14:31:33:660
0,022999	-0,047325	0,029948	2020-11-19T14:31:33:679
-0,051179	-0,123896	0,075412	2020-11-19T14:31:33:701
-0,042589	-0,073771	0,034996	2020-11-19T14:31:33:719
-0,060788	-0,135671	0,034712	2020-11-19T14:31:33:740
-0,028467	-0,034724	0,018498	2020-11-19T14:31:33:758
-0,003965	-0,134984	0,108555	2020-11-19T14:31:33:781
-0,016918	-0,022934	0,134642	2020-11-19T14:31:33:799
-0,035776	-0,059908	0,103229	2020-11-19T14:31:33:820
0,018029	-0,070131	0,072061	2020-11-19T14:31:33:839
-0,048253	-0,098646	0,057640	2020-11-19T14:31:33:861
0,003288	0,004235	0,065568	2020-11-19T14:31:33:878
-0,037724	-0,041494	0,092784	2020-11-19T14:31:33:901
-0,055442	-0,106747	0,057021	2020-11-19T14:31:33:918
-0,025246	-0,094731	0,072540	2020-11-19T14:31:33:941
-0,005818	-0,034926	0,075034	2020-11-19T14:31:33:959
-0,053274	-0,104705	0,078188	2020-11-19T14:31:33:980
-0,035852	-0,078646	0,045305	2020-11-19T14:31:33:999
-0,102851	-0,150431	0,028555	2020-11-19T14:31:34:021
0,039866	-0,123932	0,055785	2020-11-19T14:31:34:038
-0,056361	-0,066023	0,010858	2020-11-19T14:31:34:060
-0,011358	-0,044366	0,103576	2020-11-19T14:31:34:079
0,007527	-0,044792	0,108521	2020-11-19T14:31:34:101
-0,065544	-0,076151	0,075395	2020-11-19T14:31:34:119
0,017728	-0,117070	0,068225	2020-11-19T14:31:34:141
-0,008403	-0,111838	0,064242	2020-11-19T14:31:34:159
0,038476	-0,063633	0,067727	2020-11-19T14:31:34:181
0,003913	-0,086634	0,029426	2020-11-19T14:31:34:201
-0,098979	-0,045956	0,046176	2020-11-19T14:31:34:220
-0,007807	-0,087152	0,034801	2020-11-19T14:31:34:238
-0,043706	-0,053473	0,054805	2020-11-19T14:31:34:261
0,017849	-0,082417	0,064342	2020-11-19T14:31:34:279
-0,046117	-0,082182	0,095505	2020-11-19T14:31:34:301
-0,001921	-0,056315	0,079633	2020-11-19T14:31:34:319
-0,002430	-0,073249	0,121493	2020-11-19T14:31:34:341
0,061440	-0,076056	0,119029	2020-11-19T14:31:34:359
0,012229	-0,044970	0,056792	2020-11-19T14:31:34:381
0,033410	-0,058987	0,054357	2020-11-19T14:31:34:400
-0,043160	-0,102057	0,066321	2020-11-19T14:31:34:421
-0,000689	-0,095155	0,049339	2020-11-19T14:31:34:440
-0,008413	0,015127	0,061990	2020-11-19T14:31:34:461
-0,058211	-0,075979	0,059013	2020-11-19T14:31:34:479
-0,051288	-0,030596	0,076684	2020-11-19T14:31:34:502
-0,082415	-0,141186	0,082804	2020-11-19T14:31:34:519
-0,024453	-0,117625	0,063694	2020-11-19T14:31:34:541
-0,024281	-0,134198	0,081410	2020-11-19T14:31:34:559
-0,050418	-0,091217	0,028445	2020-11-19T14:31:34:581
0,044472	-0,026600	0,074933	2020-11-19T14:31:34:599
0,084699	0,011618	0,058484	2020-11-19T14:31:34:621
0,032430	-0,117380	0,044836	2020-11-19T14:31:34:639
0,012841	-0,092829	0,010220	2020-11-19T14:31:34:662
0,013811	-0,065749	-0,015692	2020-11-19T14:31:34:680
-0,032781	-0,105631	0,054482	2020-11-19T14:31:34:701
0,040022	-0,033903	0,097906	2020-11-19T14:31:34:720
0,028404	-0,091419	0,100999	2020-11-19T14:31:34:742
0,024179	-0,127449	0,039387	2020-11-19T14:31:34:759
-0,035080	-0,064703	-0,026146	2020-11-19T14:31:34:781
-0,017270	-0,090141	0,007514	2020-11-19T14:31:34:800
-0,084053	-0,077459	0,075752	2020-11-19T14:31:34:822
0,027094	-0,056504	0,065490	2020-11-19T14:31:34:839
-0,056146	-0,039651	0,028939	2020-11-19T14:31:34:861
0,024851	-0,025308	0,056449	2020-11-19T14:31:34:879
-0,005550	-0,060939	0,042322	2020-11-19T14:31:34:902
-0,034512	-0,084604	0,021919	2020-11-19T14:31:34:922
-0,033289	-0,048435	0,021637	2020-11-19T14:31:34:941
-0,043704	-0,086607	0,094934	2020-11-19T14:31:34:959
-0,037070	-0,039271	0,048069	2020-11-19T14:31:34:982
-0,033060	-0,087299	0,074553	2020-11-19T14:31:35:001
-0,060606	-0,106730	0,061909	2020-11-19T14:31:35:053
-0,020769	-0,123740	0,095100	2020-11-19T14:31:35:054
0,041444	-0,059134	0,042458	2020-11-19T14:31:35:076
-0,009803	-0,099177	0,069771	2020-11-19T14:31:35:083
-0,005753	0,013437	0,005455	2020-11-19T14:31:35:103
-0,092578	-0,117614	0,046030	2020-11-19T14:31:35:120
-0,035278	-0,087063	0,070131	2020-11-19T14:31:35:147
-0,034209	-0,099139	0,072640	2020-11-19T14:31:35:174
-0,016274	-0,096896	0,063074	2020-11-19T14:31:35:183
-0,008302	-0,068299	0,062996	2020-11-19T14:31:35:323
-0,051901	-0,073311	0,055883	2020-11-19T14:31:35:324
-0,039937	-0,030239	0,022383	2020-11-19T14:31:35:324
-0,053925	-0,063349	0,030813	2020-11-19T14:31:35:325
-0,032389	-0,132741	0,124133	2020-11-19T14:31:35:325
-0,058408	-0,080579	0,153077	2020-11-19T14:31:35:325
-0,006340	-0,182020	0,087389	2020-11-19T14:31:35:326
0,026015	-0,112410	0,090133	2020-11-19T14:31:35:342
-0,035898	-0,047853	0,047902	2020-11-19T14:31:35:366
-0,035161	-0,083815	0,103055	2020-11-19T14:31:35:381
-0,039556	-0,115420	0,067363	2020-11-19T14:31:35:400
0,054154	-0,110550	0,034521	2020-11-19T14:31:35:421
0,032328	-0,090200	0,042035	2020-11-19T14:31:35:440
-0,106456	0,036619	0,223890	2020-11-19T14:31:35:462
0,010067	-0,032675	0,074043	2020-11-19T14:31:35:480
-0,026042	-0,085549	0,008170	2020-11-19T14:31:35:503
-0,035058	-0,092121	0,061727	2020-11-19T14:31:35:520
-0,020200	0,001265	0,083891	2020-11-19T14:31:35:543
-0,055351	-0,111648	-0,003977	2020-11-19T14:31:35:561
-0,041980	-0,094233	0,031256	2020-11-19T14:31:35:582
-0,019817	-0,079386	0,014900	2020-11-19T14:31:35:600
0,001682	-0,054946	0,081988	2020-11-19T14:31:35:623
0,005680	-0,088630	0,025555	2020-11-19T14:31:35:644
0,035692	-0,097800	0,029221	2020-11-19T14:31:35:666
-0,005960	-0,066297	0,105625	2020-11-19T14:31:35:681
-0,037066	-0,145260	0,041019	2020-11-19T14:31:35:703
-0,024222	-0,058944	0,083102	2020-11-19T14:31:35:721
0,012330	-0,104823	0,076692	2020-11-19T14:31:35:742
-0,065588	-0,140672	0,049742	2020-11-19T14:31:35:761
-0,027859	-0,037733	0,079839	2020-11-19T14:31:35:783
-0,079720	-0,064378	0,083527	2020-11-19T14:31:35:801
-0,052740	-0,084084	0,056369	2020-11-19T14:31:35:822
-0,008359	-0,074540	0,042702	2020-11-19T14:31:35:841
-0,053823	-0,043433	0,069023	2020-11-19T14:31:35:863
-0,034886	-0,098923	0,096891	2020-11-19T14:31:35:881
-0,003090	-0,053954	0,015938	2020-11-19T14:31:35:903
-0,053482	-0,032185	0,067245	2020-11-19T14:31:35:920
-0,025556	-0,106575	0,079179	2020-11-19T14:31:35:943
-0,023280	-0,113617	0,077378	2020-11-19T14:31:35:961
-0,052079	-0,056149	0,072742	2020-11-19T14:31:35:982
0,048235	-0,111725	0,107379	2020-11-19T14:31:36:006
-0,004733	-0,066460	0,042481	2020-11-19T14:31:36:023
0,001808	-0,078197	0,055152	2020-11-19T14:31:36:040
-0,001813	-0,113870	0,038704	2020-11-19T14:31:36:073
-0,019970	-0,046236	0,021779	2020-11-19T14:31:36:081
-0,003352	-0,167701	0,079514	2020-11-19T14:31:36:104
-0,006995	-0,066998	0,096471	2020-11-19T14:31:36:122
-0,054966	-0,062763	0,103278	2020-11-19T14:31:36:142
-0,012046	-0,027884	0,080595	2020-11-19T14:31:36:160
0,021848	-0,078613	0,013894	2020-11-19T14:31:36:183
0,008273	-0,049304	0,075611	2020-11-19T14:31:36:201
-0,009683	-0,063656	0,101198	2020-11-19T14:31:36:222
-0,038871	-0,078325	0,032377	2020-11-19T14:31:36:241
0,009970	-0,051808	-0,009117	2020-11-19T14:31:36:264
0,068659	-0,043810	0,085101	2020-11-19T14:31:36:281
0,048713	-0,091340	0,049700	2020-11-19T14:31:36:304
-0,013500	-0,076982	0,109521	2020-11-19T14:31:36:320
-0,003916	-0,070191	0,045425	2020-11-19T14:31:36:343
-0,018832	-0,124776	0,064029	2020-11-19T14:31:36:363
0,005114	-0,048040	-0,018905	2020-11-19T14:31:36:382
-0,021902	-0,097603	0,043834	2020-11-19T14:31:36:401
-0,019383	-0,087932	0,073118	2020-11-19T14:31:36:423
0,002138	-0,107153	0,051186	2020-11-19T14:31:36:441
-0,032258	-0,078177	0,085410	2020-11-19T14:31:36:463
-0,072139	-0,088279	0,044131	2020-11-19T14:31:36:481
-0,017104	-0,030850	0,027381	2020-11-19T14:31:36:503
0,011928	-0,052152	0,074188	2020-11-19T14:31:36:521
-0,020685	-0,123852	0,061701	2020-11-19T14:31:36:543
0,003119	-0,075942	0,059486	2020-11-19T14:31:36:561
-0,035857	-0,064004	0,042179	2020-11-19T14:31:36:583
0,017981	-0,109592	0,056675	2020-11-19T14:31:36:604
-0,010268	-0,066525	0,091345	2020-11-19T14:31:36:623
0,011991	-0,097322	0,048746	2020-11-19T14:31:36:642
-0,045437	-0,099715	0,075068	2020-11-19T14:31:36:664
-0,017809	-0,119053	0,043825	2020-11-19T14:31:36:681
-0,013068	-0,118680	0,081511	2020-11-19T14:31:36:702
0,036976	-0,164118	0,074332	2020-11-19T14:31:36:721
-0,030335	-0,142196	0,086501	2020-11-19T14:31:36:743
-0,053441	-0,053970	0,030465	2020-11-19T14:31:36:762
-0,003027	-0,066146	0,100417	2020-11-19T14:31:36:783
0,010756	-0,042533	0,072195	2020-11-19T14:31:36:802
0,016628	-0,013792	0,026052	2020-11-19T14:31:36:823
0,012782	-0,073188	0,079863	2020-11-19T14:31:36:844
-0,036835	-0,070661	0,029174	2020-11-19T14:31:36:862
-0,045480	-0,075173	0,047837	2020-11-19T14:31:36:881
-0,014783	-0,058937	0,106380	2020-11-19T14:31:36:905
0,042645	-0,058937	0,082451	2020-11-19T14:31:36:921
-0,058118	-0,054293	0,082500	2020-11-19T14:31:36:942
0,001388	-0,050126	0,001806	2020-11-19T14:31:36:962
-0,044814	-0,085367	0,023674	2020-11-19T14:31:36:985
-0,019773	-0,070635	0,007054	2020-11-19T14:31:37:002
-0,000562	0,020804	0,040715	2020-11-19T14:31:37:027
-0,006056	-0,115708	0,101888	2020-11-19T14:31:37:042
0,003515	-0,082209	0,137780	2020-11-19T14:31:37:064
0,069545	-0,008605	0,134368	2020-11-19T14:31:37:083
0,001671	0,022134	0,094649	2020-11-19T14:31:37:104
-0,065411	-0,040469	0,092700	2020-11-19T14:31:37:122
-0,072669	-0,122190	0,022962	2020-11-19T14:31:37:145
-0,089272	-0,085930	0,009585	2020-11-19T14:31:37:162
0,069523	-0,069021	0,069821	2020-11-19T14:31:37:183
-0,096298	-0,045455	0,084357	2020-11-19T14:31:37:203
0,004200	-0,050241	0,046071	2020-11-19T14:31:37:224
-0,013655	-0,076245	0,049315	2020-11-19T14:31:37:241
-0,013807	-0,068864	0,062180	2020-11-19T14:31:37:264
-0,073407	-0,111939	0,067077	2020-11-19T14:31:37:282
0,056248	-0,081182	0,045610	2020-11-19T14:31:37:304
-0,037672	-0,109424	0,084331	2020-11-19T14:31:37:323
0,020881	-0,069056	0,040450	2020-11-19T14:31:37:343
0,005254	-0,097489	0,084095	2020-11-19T14:31:37:362
-0,019434	-0,080874	0,013573	2020-11-19T14:31:37:384
-0,078667	-0,116437	0,003585	2020-11-19T14:31:37:402
-0,020864	-0,152064	0,023361	2020-11-19T14:31:37:423
-0,064023	-0,115754	0,104320	2020-11-19T14:31:37:442
0,017215	-0,083018	0,035001	2020-11-19T14:31:37:464
-0,017426	-0,075539	0,090797	2020-11-19T14:31:37:481
-0,016711	-0,052175	0,066943	2020-11-19T14:31:37:504
-0,032589	-0,041050	0,130388	2020-11-19T14:31:37:522
0,067910	-0,213333	0,063390	2020-11-19T14:31:37:544
-0,038338	-0,094935	0,051060	2020-11-19T14:31:37:563
0,017488	-0,025481	0,061427	2020-11-19T14:31:37:583
0,009060	-0,063723	0,101540	2020-11-19T14:31:37:602
-0,056154	-0,085668	0,084805	2020-11-19T14:31:37:625
-0,054448	-0,124538	0,060570	2020-11-19T14:31:37:643
0,002979	-0,105395	0,024678	2020-11-19T14:31:37:663
-0,016738	-0,044830	0,039926	2020-11-19T14:31:37:683
0,009583	-0,145329	0,066247	2020-11-19T14:31:37:705
-0,028387	-0,071069	0,065350	2020-11-19T14:31:37:722
-0,026103	-0,076050	0,061932	2020-11-19T14:31:37:744
0,017530	-0,020902	0,070921	2020-11-19T14:31:37:763
-0,008791	-0,119008	0,066135	2020-11-19T14:31:37:783
-0,004724	-0,006344	0,090597	2020-11-19T14:31:37:804
-0,133510	0,005077	0,114535	2020-11-19T14:31:37:826
0,016302	-0,025090	0,096972	2020-11-19T14:31:37:857
0,044080	-0,094724	0,080858	2020-11-19T14:31:37:864
-0,040970	-0,035089	0,069574	2020-11-19T14:31:37:883
-0,002685	-0,059016	0,069574	2020-11-19T14:31:37:904
-0,036412	-0,047072	0,071731	2020-11-19T14:31:37:923
0,004266	-0,094929	0,014303	2020-11-19T14:31:37:944
0,006199	-0,074495	0,028390	2020-11-19T14:31:37:963
-0,004051	-0,079441	0,082219	2020-11-19T14:31:37:985
0,015091	-0,079441	0,077433	2020-11-19T14:31:38:003
-0,003074	-0,127388	0,078511	2020-11-19T14:31:38:024
-0,073200	-0,029240	0,116544	2020-11-19T14:31:38:043
-0,063052	-0,092376	0,034932	2020-11-19T14:31:38:064
0,008497	-0,104343	0,062573	2020-11-19T14:31:38:083
-0,007206	-0,142430	0,072272	2020-11-19T14:31:38:105
0,037130	-0,093480	0,008420	2020-11-19T14:31:38:123
-0,037047	-0,105444	0,087383	2020-11-19T14:31:38:144
0,008109	-0,084150	0,066869	2020-11-19T14:31:38:163
-0,027111	-0,089127	0,063970	2020-11-19T14:31:38:185
-0,055909	-0,053355	0,036092	2020-11-19T14:31:38:203
-0,049921	-0,139495	0,060774	2020-11-19T14:31:38:225
0,006586	-0,022476	0,083018	2020-11-19T14:31:38:243
-0,017312	-0,063523	0,090813	2020-11-19T14:31:38:265
-0,046945	-0,058862	0,052838	2020-11-19T14:31:38:284
0,000911	-0,092361	0,031302	2020-11-19T14:31:38:305
0,024817	-0,067701	0,045327	2020-11-19T14:31:38:323
0,005035	-0,015393	0,086379	2020-11-19T14:31:38:345
0,003862	-0,094058	0,053605	2020-11-19T14:31:38:363
0,025499	-0,120018	0,068303	2020-11-19T14:31:38:385
-0,017572	-0,098482	0,118552	2020-11-19T14:31:38:403
-0,027582	-0,117938	0,056935	2020-11-19T14:31:38:425
-0,025578	-0,083694	0,029210	2020-11-19T14:31:38:443
0,003136	-0,021482	0,117744	2020-11-19T14:31:38:465
-0,063257	-0,065281	0,028427	2020-11-19T14:31:38:483
-0,022579	-0,046139	0,093034	2020-11-19T14:31:38:505
-0,067754	-0,075829	0,058843	2020-11-19T14:31:38:524
-0,005540	-0,061471	0,061236	2020-11-19T14:31:38:545
-0,008838	-0,056731	0,079600	2020-11-19T14:31:38:563
-0,006600	-0,009453	0,110202	2020-11-19T14:31:38:585
-0,020866	-0,074030	0,064930	2020-11-19T14:31:38:604
0,013471	-0,102582	0,064760	2020-11-19T14:31:38:625
-0,016914	-0,045814	0,102687	2020-11-19T14:31:38:644
-0,026485	-0,067348	0,064402	2020-11-19T14:31:38:665
0,002760	-0,036208	0,050542	2020-11-19T14:31:38:683
-0,093534	-0,056026	0,083356	2020-11-19T14:31:38:706
0,074537	-0,055449	0,052441	2020-11-19T14:31:38:723
-0,049890	-0,151163	0,085941	2020-11-19T14:31:38:745
-0,032020	-0,098738	0,083192	2020-11-19T14:31:38:764
-0,002902	-0,053436	0,056333	2020-11-19T14:31:38:785
0,010275	0,006015	0,108858	2020-11-19T14:31:38:804
-0,032796	-0,068163	0,041859	2020-11-19T14:31:38:825
-0,065921	-0,099169	0,048833	2020-11-19T14:31:38:844
-0,065921	-0,113525	0,075154	2020-11-19T14:31:38:865
0,007569	-0,039295	0,026212	2020-11-19T14:31:38:884
-0,054645	-0,103902	0,069283	2020-11-19T14:31:38:905
-0,051534	-0,132570	0,023571	2020-11-19T14:31:38:924
-0,025213	-0,087106	0,035535	2020-11-19T14:31:38:946
0,040308	-0,050992	0,062017	2020-11-19T14:31:38:964
0,019130	-0,108004	0,048417	2020-11-19T14:31:38:986
-0,042052	-0,070006	0,078765	2020-11-19T14:31:39:006
0,059277	-0,102903	0,057706	2020-11-19T14:31:39:025
-0,005329	-0,026333	0,060099	2020-11-19T14:31:39:043
-0,039266	-0,059750	0,045876	2020-11-19T14:31:39:065
-0,037968	-0,059802	0,051206	2020-11-19T14:31:39:083
-0,048412	-0,067159	0,065638	2020-11-19T14:31:39:105
-0,024444	-0,060221	0,044442	2020-11-19T14:31:39:124
0,025805	-0,065006	0,001371	2020-11-19T14:31:39:145
-0,010213	-0,114177	0,110333	2020-11-19T14:31:39:163
-0,049228	-0,085666	0,089754	2020-11-19T14:31:39:185
0,014990	-0,080662	0,047505	2020-11-19T14:31:39:204
0,029347	-0,092626	0,037934	2020-11-19T14:31:39:225
0,012527	-0,034592	0,041752	2020-11-19T14:31:39:244
-0,040760	-0,051415	0,115170	2020-11-19T14:31:39:265
-0,055698	-0,100391	0,053425	2020-11-19T14:31:39:283
-0,036917	-0,088709	0,022210	2020-11-19T14:31:39:306
0,029244	-0,006869	0,067106	2020-11-19T14:31:39:324
-0,032970	-0,047547	0,129320	2020-11-19T14:31:39:345
0,022971	-0,079586	0,127750	2020-11-19T14:31:39:364
0,040212	-0,053609	0,026815	2020-11-19T14:31:39:385
-0,019741	-0,026619	0,050030	2020-11-19T14:31:39:404
-0,024012	-0,033833	0,081284	2020-11-19T14:31:39:426
0,030395	-0,101027	0,065599	2020-11-19T14:31:39:444
-0,014744	-0,026278	0,013526	2020-11-19T14:31:39:466
-0,002780	-0,052599	0,042240	2020-11-19T14:31:39:485
0,004122	-0,088225	0,096001	2020-11-19T14:31:39:506
-0,008674	-0,043019	0,077492	2020-11-19T14:31:39:523
0,041397	-0,086294	0,064427	2020-11-19T14:31:39:546
0,001917	-0,150047	0,018502	2020-11-19T14:31:39:565
-0,093796	-0,092620	0,107037	2020-11-19T14:31:39:585
-0,015203	-0,050937	0,091065	2020-11-19T14:31:39:605
-0,060666	-0,105971	0,064744	2020-11-19T14:31:39:625
-0,008083	-0,065591	0,126955	2020-11-19T14:31:39:644
-0,024814	-0,128586	0,099266	2020-11-19T14:31:39:667
0,016972	-0,073143	0,038228	2020-11-19T14:31:39:684
-0,052420	-0,089893	0,033442	2020-11-19T14:31:39:706
-0,002849	-0,133126	0,074392	2020-11-19T14:31:39:727
-0,057884	-0,049377	0,095927	2020-11-19T14:31:39:746
-0,054258	-0,064714	0,095821	2020-11-19T14:31:39:765
-0,075315	-0,065076	0,071920	2020-11-19T14:31:39:787
-0,008553	-0,033971	0,071764	2020-11-19T14:31:39:805
0,053661	-0,141648	0,019122	2020-11-19T14:31:39:826
-0,021559	-0,092714	0,070061	2020-11-19T14:31:39:845
-0,035916	-0,131000	0,053311	2020-11-19T14:31:39:866
0,003638	-0,040147	0,046549	2020-11-19T14:31:39:884
0,007750	-0,073483	0,061280	2020-11-19T14:31:39:907
-0,022006	-0,016137	0,081782	2020-11-19T14:31:39:924
0,025850	-0,049637	0,088960	2020-11-19T14:31:39:946
-0,008392	-0,099174	0,016290	2020-11-19T14:31:39:968
-0,041891	-0,060889	0,049790	2020-11-19T14:31:39:986
-0,033094	-0,084739	0,051168	2020-11-19T14:31:40:004
-0,026508	-0,098574	0,018910	2020-11-19T14:31:40:027
-0,043627	-0,044017	0,065704	2020-11-19T14:31:40:044
-0,012521	-0,063159	0,053740	2020-11-19T14:31:40:066
0,002092	-0,063398	0,035989	2020-11-19T14:31:40:085
0,048979	-0,082346	-0,009129	2020-11-19T14:31:40:106
0,035805	-0,057150	0,083323	2020-11-19T14:31:40:124
0,028523	-0,083327	0,051378	2020-11-19T14:31:40:146
-0,076284	-0,102492	0,065914	2020-11-19T14:31:40:165
0,047735	-0,114187	0,075066	2020-11-19T14:31:40:196
0,035771	-0,099831	0,051138	2020-11-19T14:31:40:206
0,009392	-0,089825	0,051744	2020-11-19T14:31:40:226
-0,032171	-0,068088	0,090459	2020-11-19T14:31:40:245
0,016549	-0,125745	0,013308	2020-11-19T14:31:40:267
-0,006624	-0,141523	0,033769	2020-11-19T14:31:40:285
0,002560	-0,073987	0,074429	2020-11-19T14:31:40:307
-0,037711	-0,102859	0,057161	2020-11-19T14:31:40:325
-0,001819	-0,052608	0,004519	2020-11-19T14:31:40:347
-0,055295	-0,090205	0,057611	2020-11-19T14:31:40:387
-0,001173	-0,099831	0,041505	2020-11-19T14:31:40:389
-0,064439	-0,116145	0,054943	2020-11-19T14:31:40:405
0,014050	-0,116198	0,051086	2020-11-19T14:31:40:426
-0,004230	-0,082377	0,121095	2020-11-19T14:31:40:446
0,033481	-0,102024	0,044109	2020-11-19T14:31:40:466
-0,062383	0,008604	0,076377	2020-11-19T14:31:40:484
-0,042958	-0,035075	0,072657	2020-11-19T14:31:40:509
-0,003062	-0,035467	0,081310	2020-11-19T14:31:40:525
-0,043113	-0,062469	0,095139	2020-11-19T14:31:40:547
0,012714	-0,064542	0,052633	2020-11-19T14:31:40:565
-0,044714	-0,086078	0,081347	2020-11-19T14:31:40:587
-0,005224	0,004781	0,019542	2020-11-19T14:31:40:606
-0,069830	-0,114860	0,091327	2020-11-19T14:31:40:627
-0,033917	-0,108078	0,066954	2020-11-19T14:31:40:645
-0,059261	-0,053290	0,046294	2020-11-19T14:31:40:667
0,031666	-0,000649	0,072615	2020-11-19T14:31:40:686
-0,032245	-0,086906	0,013579	2020-11-19T14:31:40:707
-0,012243	-0,048259	0,049371	2020-11-19T14:31:40:725
0,032968	-0,110321	0,054736	2020-11-19T14:31:40:747
-0,080332	-0,102460	0,063246	2020-11-19T14:31:40:765
-0,068404	-0,069100	0,075978	2020-11-19T14:31:40:786
-0,002584	-0,123912	0,029969	2020-11-19T14:31:40:806
0,023737	-0,047341	0,116111	2020-11-19T14:31:40:827
-0,000100	-0,117313	0,059215	2020-11-19T14:31:40:845
0,021435	-0,057493	0,075965	2020-11-19T14:31:40:867
-0,013916	-0,091130	0,059797	2020-11-19T14:31:40:885
-0,083768	-0,062325	0,019282	2020-11-19T14:31:40:907
0,019460	-0,047789	0,103194	2020-11-19T14:31:40:926
-0,056691	-0,069428	0,075145	2020-11-19T14:31:40:947
-0,043118	-0,060169	0,067441	2020-11-19T14:31:40:965
-0,034589	-0,127367	0,105592	2020-11-19T14:31:40:987
0,016163	-0,115729	0,054063	2020-11-19T14:31:41:005
-0,069167	-0,034072	0,068915	2020-11-19T14:31:41:027
-0,075881	-0,092072	0,077469	2020-11-19T14:31:41:045
-0,011547	-0,104368	0,091519	2020-11-19T14:31:41:067
-0,061796	-0,101975	0,077162	2020-11-19T14:31:41:085
-0,023476	-0,112001	0,052528	2020-11-19T14:31:41:108
-0,011400	-0,119126	0,040889	2020-11-19T14:31:41:125
0,000040	-0,056646	0,087326	2020-11-19T14:31:41:147
-0,029289	-0,076034	0,078579	2020-11-19T14:31:41:166
-0,016706	-0,033246	0,056049	2020-11-19T14:31:41:187
0,017795	-0,090280	0,030783	2020-11-19T14:31:41:206
0,027367	-0,011316	0,073853	2020-11-19T14:31:41:227
0,021581	-0,011557	0,101701	2020-11-19T14:31:41:246
0,019189	-0,114448	0,084951	2020-11-19T14:31:41:267
0,000069	-0,138122	0,067980	2020-11-19T14:31:41:285
0,005985	-0,077975	0,032886	2020-11-19T14:31:41:308
-0,097596	-0,029791	0,069945	2020-11-19T14:31:41:325
-0,028162	-0,094884	0,015522	2020-11-19T14:31:41:348
-0,047305	-0,080527	0,013129	2020-11-19T14:31:41:365
0,002046	-0,087364	0,063571	2020-11-19T14:31:41:387
0,024831	-0,072791	0,066304	2020-11-19T14:31:41:407
-0,060972	-0,106017	0,107042	2020-11-19T14:31:41:427
-0,006508	-0,077907	0,071736	2020-11-19T14:31:41:446
-0,009221	-0,039771	0,039706	2020-11-19T14:31:41:468
0,061320	-0,058083	0,022359	2020-11-19T14:31:41:486
-0,070286	-0,024583	0,125250	2020-11-19T14:31:41:508
0,035697	-0,035137	0,067349	2020-11-19T14:31:41:526
0,014330	-0,061209	0,115043	2020-11-19T14:31:41:547
-0,020518	-0,121331	0,036182	2020-11-19T14:31:41:566
0,013135	-0,117380	-0,000705	2020-11-19T14:31:41:589
-0,015579	-0,110202	-0,000705	2020-11-19T14:31:41:607
-0,046874	-0,004177	0,021929	2020-11-19T14:31:41:628
-0,017535	0,071661	0,070472	2020-11-19T14:31:41:648
-0,031891	-0,057551	0,144650	2020-11-19T14:31:41:668
-0,088278	-0,111377	0,062968	2020-11-19T14:31:41:686
-0,025515	-0,087757	0,087216	2020-11-19T14:31:41:708
-0,008532	-0,044960	0,086032	2020-11-19T14:31:41:726
-0,018385	-0,100259	0,089359	2020-11-19T14:31:41:747
0,011712	-0,098045	0,080692	2020-11-19T14:31:41:767
0,006926	-0,131545	0,071120	2020-11-19T14:31:41:788
0,032390	-0,047822	0,094399	2020-11-19T14:31:41:806
-0,043371	-0,072056	0,084766	2020-11-19T14:31:41:828
-0,063363	-0,036540	0,048001	2020-11-19T14:31:41:846
-0,034643	-0,015038	0,046920	2020-11-19T14:31:41:868
-0,002781	-0,065214	0,059701	2020-11-19T14:31:41:888
-0,031495	-0,096321	0,059701	2020-11-19T14:31:41:908
-0,000162	-0,108351	0,069093	2020-11-19T14:31:41:926
-0,009675	-0,017585	0,070745	2020-11-19T14:31:41:949
0,033518	-0,067110	0,020205	2020-11-19T14:31:41:967
-0,026303	-0,081468	0,034562	2020-11-19T14:31:41:988
-0,025090	-0,016813	0,073828	2020-11-19T14:31:42:007
-0,037054	-0,057491	0,021186	2020-11-19T14:31:42:028
0,000148	-0,097878	0,054510	2020-11-19T14:31:42:046
-0,012620	-0,006721	0,074270	2020-11-19T14:31:42:068
-0,086499	-0,093179	0,139921	2020-11-19T14:31:42:087
0,050562	-0,139654	0,022056	2020-11-19T14:31:42:110
0,003989	-0,100476	0,107965	2020-11-19T14:31:42:128
-0,039946	-0,079367	0,043158	2020-11-19T14:31:42:148
0,044902	-0,016096	-0,041049	2020-11-19T14:31:42:167
0,016188	-0,123774	0,052271	2020-11-19T14:31:42:188
0,044864	-0,099143	0,087679	2020-11-19T14:31:42:207
-0,061310	-0,050980	0,063226	2020-11-19T14:31:42:228
-0,035327	-0,027365	0,089283	2020-11-19T14:31:42:246
-0,029534	-0,097265	0,061120	2020-11-19T14:31:42:268
0,011834	-0,073461	0,020261	2020-11-19T14:31:42:287
-0,052773	-0,027997	0,096831	2020-11-19T14:31:42:309
0,005951	-0,126913	0,084136	2020-11-19T14:31:42:327
-0,052763	-0,112271	0,043120	2020-11-19T14:31:42:349
-0,069513	-0,097915	0,047906	2020-11-19T14:31:42:368
-0,002537	-0,116926	0,131357	2020-11-19T14:31:42:388
-0,015822	-0,071628	0,038817	2020-11-19T14:31:42:407
0,015285	-0,076414	0,112994	2020-11-19T14:31:42:429
-0,070219	0,011431	0,103785	2020-11-19T14:31:42:446
-0,033914	-0,130889	0,032987	2020-11-19T14:31:42:468
-0,015183	-0,112934	0,002664	2020-11-19T14:31:42:487
-0,058253	-0,108149	-0,004514	2020-11-19T14:31:42:509
-0,040469	-0,016590	0,043734	2020-11-19T14:31:42:527
0,007388	-0,069232	0,026984	2020-11-19T14:31:42:549
0,013049	-0,116600	0,076273	2020-11-19T14:31:42:567
-0,028816	-0,069085	0,070575	2020-11-19T14:31:42:589
0,009469	-0,047550	0,132788	2020-11-19T14:31:42:608
-0,017631	-0,045948	0,099760	2020-11-19T14:31:42:629
0,001099	-0,098941	0,097805	2020-11-19T14:31:42:647
0,005885	-0,153975	0,059520	2020-11-19T14:31:42:669
-0,000618	-0,057755	0,060920	2020-11-19T14:31:42:687
-0,041922	-0,036192	0,070243	2020-11-19T14:31:42:709
0,048068	-0,057858	0,064248	2020-11-19T14:31:42:728
0,002604	-0,053072	0,030749	2020-11-19T14:31:42:749
0,042387	-0,083653	0,073419	2020-11-19T14:31:42:767
-0,022379	-0,116830	0,039911	2020-11-19T14:31:42:789
0,037948	-0,044809	0,079657	2020-11-19T14:31:42:807
-0,023675	-0,071110	0,049930	2020-11-19T14:31:42:829
-0,116279	-0,130848	0,043595	2020-11-19T14:31:42:848
0,007844	-0,078429	-0,007378	2020-11-19T14:31:42:870
0,028217	-0,063284	0,031626	2020-11-19T14:31:42:887
-0,045367	-0,094063	0,113471	2020-11-19T14:31:42:909
0,013554	-0,078086	0,093882	2020-11-19T14:31:42:927
-0,078754	-0,061408	0,092688	2020-11-19T14:31:42:949
-0,056814	-0,026012	0,044140	2020-11-19T14:31:42:967
-0,021309	-0,064315	0,026151	2020-11-19T14:31:42:989
-0,015930	-0,111906	0,068483	2020-11-19T14:31:43:008
-0,020537	-0,040194	0,077818	2020-11-19T14:31:43:029
-0,038860	-0,074107	0,078704	2020-11-19T14:31:43:047
-0,035456	-0,067234	0,039568	2020-11-19T14:31:43:069
-0,036850	-0,067176	0,085931	2020-11-19T14:31:43:089
0,016660	-0,024379	0,056428	2020-11-19T14:31:43:110
0,019870	-0,069530	0,061749	2020-11-19T14:31:43:127
-0,036725	-0,129114	0,090649	2020-11-19T14:31:43:149
-0,045523	-0,110225	0,056396	2020-11-19T14:31:43:167
-0,037142	-0,064735	0,047694	2020-11-19T14:31:43:189
-0,033689	-0,098273	0,091237	2020-11-19T14:31:43:208
-0,009146	-0,084428	0,098713	2020-11-19T14:31:43:229
-0,014641	-0,015412	0,019875	2020-11-19T14:31:43:247
-0,038525	-0,096575	0,049555	2020-11-19T14:31:43:270
0,033886	-0,029365	0,074894	2020-11-19T14:31:43:287
-0,030755	-0,048228	0,072352	2020-11-19T14:31:43:310
-0,027791	-0,031603	0,045781	2020-11-19T14:31:43:329
-0,019467	-0,141779	0,017258	2020-11-19T14:31:43:349
0,006656	-0,057382	0,046606	2020-11-19T14:31:43:368
0,011599	-0,075936	0,050470	2020-11-19T14:31:43:390
0,047492	-0,142935	0,093541	2020-11-19T14:31:43:408
-0,035585	-0,008375	0,065010	2020-11-19T14:31:43:429
-0,094317	-0,070640	0,086971	2020-11-19T14:31:43:448
0,038504	-0,143068	0,052577	2020-11-19T14:31:43:470
-0,005238	-0,080302	0,084473	2020-11-19T14:31:43:488
-0,018520	-0,073032	0,055386	2020-11-19T14:31:43:511
-0,075948	-0,135246	0,062564	2020-11-19T14:31:43:528
-0,016138	-0,128139	0,051723	2020-11-19T14:31:43:550
0,012074	-0,089506	0,038751	2020-11-19T14:31:43:569
-0,035911	-0,029478	0,063607	2020-11-19T14:31:43:590
-0,039434	-0,116046	0,095813	2020-11-19T14:31:43:609
-0,044220	-0,053832	0,031207	2020-11-19T14:31:43:630
0,044003	-0,116058	0,053971	2020-11-19T14:31:43:648
0,029158	-0,089285	0,092674	2020-11-19T14:31:43:670
-0,035237	-0,120436	0,086326	2020-11-19T14:31:43:688
-0,039537	-0,101521	0,087910	2020-11-19T14:31:43:710
-0,024084	-0,065976	0,060574	2020-11-19T14:31:43:729
0,030951	-0,044441	0,103645	2020-11-19T14:31:43:750
-0,052918	-0,094808	0,060848	2020-11-19T14:31:43:768
0,001224	-0,075696	0,023338	2020-11-19T14:31:43:790
-0,059324	-0,087154	0,042094	2020-11-19T14:31:43:809
-0,052414	-0,080074	0,035754	2020-11-19T14:31:43:830
0,006786	-0,096807	0,051294	2020-11-19T14:31:43:848
-0,067009	-0,082821	0,135868	2020-11-19T14:31:43:871
0,042406	-0,089756	0,082521	2020-11-19T14:31:43:889
-0,058093	-0,073006	0,116020	2020-11-19T14:31:43:910
-0,036912	-0,080810	0,087922	2020-11-19T14:31:43:929
-0,039305	-0,126273	0,073565	2020-11-19T14:31:43:950
-0,041511	-0,118854	0,084421	2020-11-19T14:31:43:968
0,028596	-0,073608	0,086194	2020-11-19T14:31:43:990
-0,073587	-0,028436	0,050244	2020-11-19T14:31:44:008
-0,060627	-0,060204	0,037170	2020-11-19T14:31:44:030
-0,051099	-0,043620	0,040214	2020-11-19T14:31:44:049
-0,004108	-0,081868	0,070056	2020-11-19T14:31:44:070
-0,012345	-0,060218	0,074741	2020-11-19T14:31:44:089
0,032822	-0,038825	0,052325	2020-11-19T14:31:44:111
-0,024303	-0,095935	0,047788	2020-11-19T14:31:44:128
0,018973	-0,083722	0,046733	2020-11-19T14:31:44:150
-0,028846	-0,007254	0,065403	2020-11-19T14:31:44:169
0,002261	-0,138859	0,122831	2020-11-19T14:31:44:190
-0,029369	-0,081540	0,047799	2020-11-19T14:31:44:210
-0,022190	-0,057611	0,088477	2020-11-19T14:31:44:231
-0,005137	-0,156038	0,070360	2020-11-19T14:31:44:248
-0,073185	-0,107999	0,080168	2020-11-19T14:31:44:270
-0,027750	-0,094107	0,088954	2020-11-19T14:31:44:289
0,013174	-0,144598	0,109465	2020-11-19T14:31:44:311
-0,014924	-0,075280	0,103222	2020-11-19T14:31:44:329
0,049664	-0,034953	0,046478	2020-11-19T14:31:44:351
0,046904	-0,091996	0,060994	2020-11-19T14:31:44:369
-0,054203	-0,053260	0,075686	2020-11-19T14:31:44:390
-0,025495	-0,063418	0,086278	2020-11-19T14:31:44:410
0,012790	-0,065811	0,033635	2020-11-19T14:31:44:431
-0,012509	-0,098839	0,080537	2020-11-19T14:31:44:449
0,011302	-0,082271	0,110695	2020-11-19T14:31:44:471
-0,025389	-0,068889	0,122245	2020-11-19T14:31:44:489
-0,006246	-0,040174	0,117459	2020-11-19T14:31:44:511
0,043523	-0,088567	0,066724	2020-11-19T14:31:44:530
0,016808	-0,035515	0,069390	2020-11-19T14:31:44:550
-0,034704	-0,073733	0,052188	2020-11-19T14:31:44:569
-0,026531	-0,131206	0,110013	2020-11-19T14:31:44:591
-0,083841	-0,028686	0,062833	2020-11-19T14:31:44:609
-0,020614	-0,100983	0,014594	2020-11-19T14:31:44:630
0,004494	-0,136710	0,139074	2020-11-19T14:31:44:649
0,011672	-0,103210	0,103181	2020-11-19T14:31:44:671
-0,069237	-0,100847	0,077923	2020-11-19T14:31:44:689
-0,045473	-0,113132	0,058596	2020-11-19T14:31:44:711
0,017717	-0,108214	0,026330	2020-11-19T14:31:44:729
-0,013020	-0,097803	0,026741	2020-11-19T14:31:44:751
-0,020420	-0,023239	0,064360	2020-11-19T14:31:44:770
-0,003038	-0,049810	0,070722	2020-11-19T14:31:44:790
-0,013098	-0,116796	0,046554	2020-11-19T14:31:44:809
-0,048990	-0,126369	0,015448	2020-11-19T14:31:44:831
-0,076484	0,010567	0,002065	2020-11-19T14:31:44:849
-0,013627	-0,068321	0,119149	2020-11-19T14:31:44:871
0,004364	-0,054400	0,070874	2020-11-19T14:31:44:889
-0,052858	-0,028452	0,053924	2020-11-19T14:31:44:912
-0,007181	-0,066824	0,058420	2020-11-19T14:31:44:929
0,033497	-0,136216	0,058420	2020-11-19T14:31:44:951
0,003580	-0,154318	0,039698	2020-11-19T14:31:44:969
-0,111275	-0,068176	-0,015337	2020-11-19T14:31:44:991
-0,067945	-0,079705	0,030555	2020-11-19T14:31:45:011
-0,043872	-0,039051	0,063119	2020-11-19T14:31:45:030
-0,025593	-0,041765	0,117549	2020-11-19T14:31:45:049
-0,056102	-0,147717	0,100325	2020-11-19T14:31:45:071
-0,004498	-0,073955	0,041732	2020-11-19T14:31:45:089
-0,033866	-0,088037	0,083325	2020-11-19T14:31:45:111
-0,018941	-0,083438	0,068426	2020-11-19T14:31:45:129
0,069499	-0,097708	0,008968	2020-11-19T14:31:45:151
0,010549	-0,084682	0,064327	2020-11-19T14:31:45:169
-0,011753	-0,168385	0,083214	2020-11-19T14:31:45:191
0,018995	-0,020061	0,121127	2020-11-19T14:31:45:210
-0,017950	-0,121040	0,048753	2020-11-19T14:31:45:231
-0,029957	-0,144638	0,093399	2020-11-19T14:31:45:250
-0,024796	-0,075359	0,119403	2020-11-19T14:31:45:271
-0,024076	-0,064045	0,016206	2020-11-19T14:31:45:289
-0,012105	-0,123662	0,062662	2020-11-19T14:31:45:312
0,011823	-0,135626	0,081805	2020-11-19T14:31:45:329
-0,004915	-0,082829	0,071512	2020-11-19T14:31:45:351
-0,018031	-0,097021	0,078775	2020-11-19T14:31:45:374
-0,039926	-0,125614	0,069569	2020-11-19T14:31:45:391
-0,067665	-0,044263	0,110825	2020-11-19T14:31:45:410
-0,087756	-0,093304	0,058699	2020-11-19T14:31:45:432
-0,077456	-0,100697	0,052418	2020-11-19T14:31:45:450
-0,036778	-0,088732	0,059597	2020-11-19T14:31:45:471
-0,040618	-0,117379	0,060509	2020-11-19T14:31:45:491
0,005432	-0,112420	0,068889	2020-11-19T14:31:45:512
0,037569	-0,052455	0,047209	2020-11-19T14:31:45:530
0,039744	-0,023350	0,061837	2020-11-19T14:31:45:551
0,006126	-0,123822	0,036484	2020-11-19T14:31:45:570
0,057131	-0,029984	0,054722	2020-11-19T14:31:45:591
0,021232	-0,048426	0,052763	2020-11-19T14:31:45:611
0,011661	-0,019711	0,050370	2020-11-19T14:31:45:632
-0,041510	-0,060387	0,081166	2020-11-19T14:31:45:650
0,003502	-0,039337	0,051298	2020-11-19T14:31:45:672
0,051076	-0,070371	0,161545	2020-11-19T14:31:45:690
-0,028154	-0,073433	0,046611	2020-11-19T14:31:45:712
-0,005758	-0,010723	0,023216	2020-11-19T14:31:45:732
-0,099748	-0,101660	0,037668	2020-11-19T14:31:45:752
-0,026585	-0,034997	0,065604	2020-11-19T14:31:45:770
0,018879	-0,121139	0,058425	2020-11-19T14:31:45:792
-0,043826	-0,090096	0,069785	2020-11-19T14:31:45:811
-0,015112	-0,109238	0,091320	2020-11-19T14:31:45:832
-0,011125	-0,049471	0,028354	2020-11-19T14:31:45:850
-0,037845	-0,075366	0,042131	2020-11-19T14:31:45:872
-0,008033	-0,099225	0,026395	2020-11-19T14:31:45:890
-0,042004	-0,015000	0,004481	2020-11-19T14:31:45:913
0,012565	-0,062634	0,071355	2020-11-19T14:31:45:930
-0,052984	-0,086559	0,068393	2020-11-19T14:31:45:952
-0,003188	-0,015059	0,058644	2020-11-19T14:31:45:971
0,015858	-0,086961	0,065196	2020-11-19T14:31:45:999
0,056757	-0,052964	0,050426	2020-11-19T14:31:46:012
-0,010242	-0,079285	0,074355	2020-11-19T14:31:46:032
0,006150	-0,024476	0,056287	2020-11-19T14:31:46:051
-0,028076	-0,038808	0,000925	2020-11-19T14:31:46:072
-0,075114	-0,033497	0,023117	2020-11-19T14:31:46:090
0,001951	-0,100402	0,085184	2020-11-19T14:31:46:112
-0,030250	-0,064437	0,017860	2020-11-19T14:31:46:130
-0,015221	-0,145453	0,015141	2020-11-19T14:31:46:152
0,012761	-0,022691	0,039764	2020-11-19T14:31:46:170
-0,041210	-0,101332	0,088365	2020-11-19T14:31:46:192
-0,042674	-0,072878	0,073317	2020-11-19T14:31:46:212
-0,062692	-0,097031	0,135383	2020-11-19T14:31:46:232
-0,035382	-0,061820	0,033670	2020-11-19T14:31:46:251
-0,001882	-0,124034	0,048027	2020-11-19T14:31:46:272
0,042663	-0,085505	0,091706	2020-11-19T14:31:46:290
-0,022310	-0,009112	0,110665	2020-11-19T14:31:46:313
-0,000423	-0,072106	0,047272	2020-11-19T14:31:46:331
-0,061532	-0,076545	0,064914	2020-11-19T14:31:46:352
0,011767	-0,028765	-0,025450	2020-11-19T14:31:46:371
-0,025162	-0,085307	0,095457	2020-11-19T14:31:46:393
0,049126	-0,133450	0,086959	2020-11-19T14:31:46:410
0,005182	-0,087743	0,122009	2020-11-19T14:31:46:432
0,011461	-0,033193	0,138239	2020-11-19T14:31:46:451
-0,094564	-0,079334	0,053143	2020-11-19T14:31:46:472
-0,009470	-0,084134	0,062563	2020-11-19T14:31:46:491
-0,033398	-0,098491	0,038635	2020-11-19T14:31:46:513
-0,051819	-0,081471	0,081064	2020-11-19T14:31:46:531
-0,055404	-0,050690	0,075447	2020-11-19T14:31:46:552
-0,043568	-0,137395	0,090871	2020-11-19T14:31:46:571
-0,026818	-0,115859	0,050193	2020-11-19T14:31:46:592
-0,052717	-0,139641	0,108590	2020-11-19T14:31:46:610
-0,022776	-0,106558	0,057085	2020-11-19T14:31:46:633
-0,015484	-0,060917	0,098694	2020-11-19T14:31:46:650
-0,015543	-0,001385	0,054187	2020-11-19T14:31:46:672
0,016139	-0,080538	0,029698	2020-11-19T14:31:46:691
-0,047219	-0,058721	0,080603	2020-11-19T14:31:46:713
0,019738	-0,113514	0,026712	2020-11-19T14:31:46:731
-0,018547	-0,106336	0,050640	2020-11-19T14:31:46:753
-0,087903	-0,020024	0,053876	2020-11-19T14:31:46:770
0,006449	-0,061133	0,118524	2020-11-19T14:31:46:793
-0,002226	-0,152259	0,018523	2020-11-19T14:31:46:812
-0,022596	-0,046185	0,110129	2020-11-19T14:31:46:833
-0,017757	-0,106347	0,113286	2020-11-19T14:31:46:852
0,105716	-0,087250	0,191436	2020-11-19T14:31:46:873
-0,134885	-0,137790	0,145579	2020-11-19T14:31:46:892
0,152926	-0,307946	0,172502	2020-11-19T14:31:46:913
-0,071982	-0,046192	0,055384	2020-11-19T14:31:46:933
0,084400	-0,179170	0,004989	2020-11-19T14:31:46:953
-0,069433	-0,062619	0,147956	2020-11-19T14:31:46:971
-0,108576	-0,446282	-1,088180	2020-11-19T14:31:46:994
-0,285806	-0,086452	0,049443	2020-11-19T14:31:47:012
0,156866	-0,112773	0,049443	2020-11-19T14:31:47:033
0,069038	-0,285898	0,166058	2020-11-19T14:31:47:053
-0,060174	-0,275688	0,591131	2020-11-19T14:31:47:073
0,090335	-0,279237	0,485259	2020-11-19T14:31:47:092
0,065756	-0,207276	0,471522	2020-11-19T14:31:47:115
-0,074860	-0,128980	0,418700	2020-11-19T14:31:47:133
0,037357	-0,272397	0,552247	2020-11-19T14:31:47:153
0,098261	-0,327590	0,487586	2020-11-19T14:31:47:173
0,116583	-0,252393	0,478691	2020-11-19T14:31:47:193
0,094345	0,144817	0,413020	2020-11-19T14:31:47:212
0,157315	-0,219528	0,821474	2020-11-19T14:31:47:234
0,192025	0,119237	0,630880	2020-11-19T14:31:47:252
-0,035423	0,120615	0,727974	2020-11-19T14:31:47:273
0,314401	0,561975	0,418217	2020-11-19T14:31:47:293
-0,060743	0,142642	0,708092	2020-11-19T14:31:47:314
0,374941	0,460164	0,221087	2020-11-19T14:31:47:332
0,365370	0,079705	0,115802	2020-11-19T14:31:47:354
0,282448	-0,342546	0,307648	2020-11-19T14:31:47:372
0,282448	-0,081727	0,506253	2020-11-19T14:31:47:394
0,517109	0,093411	0,197422	2020-11-19T14:31:47:414
0,370076	-0,048244	-0,221191	2020-11-19T14:31:47:433
0,252250	-0,030128	0,128999	2020-11-19T14:31:47:452
0,108681	0,032085	0,504673	2020-11-19T14:31:47:474
0,237894	0,734748	0,766865	2020-11-19T14:31:47:492
0,476320	0,984469	0,111703	2020-11-19T14:31:47:514
-0,053435	-0,606008	0,542821	2020-11-19T14:31:47:533
-0,461779	-0,830168	0,954248	2020-11-19T14:31:47:554
-0,133235	0,104458	1,403461	2020-11-19T14:31:47:572
-0,173913	-0,807208	1,286213	2020-11-19T14:31:47:594
0,306182	0,067125	0,767877	2020-11-19T14:31:47:612
0,242509	0,510238	0,378368	2020-11-19T14:31:47:635
0,125430	0,930083	0,290102	2020-11-19T14:31:47:653
0,250837	1,336810	1,080825	2020-11-19T14:31:47:674
0,461762	0,406724	1,836631	2020-11-19T14:31:47:692
0,620555	-1,040632	1,644997	2020-11-19T14:31:47:715
0,897125	0,009785	1,259055	2020-11-19T14:31:47:732
0,688488	1,287269	0,796062	2020-11-19T14:31:47:754
0,419047	2,156245	0,459148	2020-11-19T14:31:47:772
0,361884	1,866137	0,269175	2020-11-19T14:31:47:794
0,622319	0,801892	0,458915	2020-11-19T14:31:47:813
0,605344	-0,504042	0,384601	2020-11-19T14:31:47:835
0,763275	-0,409131	-0,245259	2020-11-19T14:31:47:852
0,687959	0,099067	-0,526866	2020-11-19T14:31:47:875
0,433303	-0,774627	-1,000786	2020-11-19T14:31:47:893
0,737404	-1,238960	-1,528438	2020-11-19T14:31:47:914
1,183993	-1,880758	-2,304022	2020-11-19T14:31:47:932
-0,301163	-1,602773	-1,600565	2020-11-19T14:31:47:955
0,802506	-1,685984	-1,038743	2020-11-19T14:31:47:973
-0,046946	-1,370131	-0,986100	2020-11-19T14:31:47:994
0,079729	-1,401563	-0,835532	2020-11-19T14:31:48:013
0,146922	-0,854192	-0,793526	2020-11-19T14:31:48:035
0,042210	-0,620178	-0,495620	2020-11-19T14:31:48:053
-0,156394	-0,141614	-0,615261	2020-11-19T14:31:48:077
-0,284834	0,719485	-0,243815	2020-11-19T14:31:48:097
-0,315941	0,906126	0,217999	2020-11-19T14:31:48:116
-0,481496	1,516223	0,716627	2020-11-19T14:31:48:135
-0,480222	1,774895	0,636107	2020-11-19T14:31:48:155
-0,383182	1,520393	0,608222	2020-11-19T14:31:48:174
-0,340575	1,165581	0,331731	2020-11-19T14:31:48:196
-0,294598	1,281853	0,599703	2020-11-19T14:31:48:214
-0,226563	1,034868	0,570643	2020-11-19T14:31:48:236
-0,221271	0,925729	0,416624	2020-11-19T14:31:48:254
-0,222729	0,925306	0,539421	2020-11-19T14:31:48:277
-0,422446	1,406995	0,583792	2020-11-19T14:31:48:293
-0,339312	1,339247	0,665653	2020-11-19T14:31:48:316
-0,298413	1,142139	0,285905	2020-11-19T14:31:48:334
-0,127903	0,792228	0,041849	2020-11-19T14:31:48:356
-0,087783	0,645475	-0,015076	2020-11-19T14:31:48:375
-0,024283	0,599092	-0,028542	2020-11-19T14:31:48:396
-0,061120	0,566218	0,135777	2020-11-19T14:31:48:414
-0,140808	0,587940	0,109793	2020-11-19T14:31:48:436
-0,147341	0,615746	0,079162	2020-11-19T14:31:48:454
-0,006361	0,745675	-0,281685	2020-11-19T14:31:48:476
-0,143100	0,183358	0,023845	2020-11-19T14:31:48:494
-0,030638	0,456140	-0,004869	2020-11-19T14:31:48:517
-0,204574	0,514727	0,061946	2020-11-19T14:31:48:534
-0,057341	0,471867	0,104675	2020-11-19T14:31:48:556
-0,211646	0,399336	0,222043	2020-11-19T14:31:48:574
-0,131256	0,513725	0,104859	2020-11-19T14:31:48:596
-0,142034	0,615154	0,131614	2020-11-19T14:31:48:616
-0,013807	0,629853	0,130963	2020-11-19T14:31:48:636
-0,108271	0,369003	0,075937	2020-11-19T14:31:48:654
0,071699	0,500823	-0,004478	2020-11-19T14:31:48:676
0,036901	0,599998	-0,033757	2020-11-19T14:31:48:694
0,176755	0,606857	0,093181	2020-11-19T14:31:48:717
-0,140323	0,238048	0,204098	2020-11-19T14:31:48:734
0,101802	0,418075	-0,216589	2020-11-19T14:31:48:756
0,040048	0,089608	-0,317269	2020-11-19T14:31:48:774
-0,078717	0,203491	0,048212	2020-11-19T14:31:48:797
0,027764	0,230191	0,003249	2020-11-19T14:31:48:814
-0,026636	0,298835	-0,079544	2020-11-19T14:31:48:836
-0,041753	0,291905	-0,132016	2020-11-19T14:31:48:855
-0,095216	0,239777	0,009423	2020-11-19T14:31:48:876
0,029056	0,173280	-0,009350	2020-11-19T14:31:48:894
-0,001524	0,188806	-0,025634	2020-11-19T14:31:48:917
0,394549	0,225923	-0,004290	2020-11-19T14:31:48:935
0,339514	0,156531	-0,219645	2020-11-19T14:31:48:957
-0,086730	0,288667	-0,038734	2020-11-19T14:31:48:975
-0,275392	0,180881	0,043530	2020-11-19T14:31:48:997
0,095557	0,288279	0,233922	2020-11-19T14:31:49:015
-0,101920	0,129799	-0,165252	2020-11-19T14:31:49:038
0,017287	0,091132	-0,272902	2020-11-19T14:31:49:055
0,010042	0,140178	-0,182041	2020-11-19T14:31:49:077
-0,041964	0,058839	-0,109015	2020-11-19T14:31:49:095
0,047410	0,229497	0,025261	2020-11-19T14:31:49:117
0,132342	0,237579	0,059232	2020-11-19T14:31:49:134
0,203156	0,148677	0,029908	2020-11-19T14:31:49:157
0,013990	0,249236	0,083108	2020-11-19T14:31:49:175
0,026302	0,221981	-0,119737	2020-11-19T14:31:49:197
0,049887	0,067596	-0,103104	2020-11-19T14:31:49:215
-0,050377	0,036111	-0,086456	2020-11-19T14:31:49:237
-0,091141	0,130833	-0,157893	2020-11-19T14:31:49:255
0,018963	0,026638	-0,017695	2020-11-19T14:31:49:277
0,012299	0,002342	0,028519	2020-11-19T14:31:49:295
0,120530	0,145328	0,059512	2020-11-19T14:31:49:317
0,210512	0,359017	-0,117346	2020-11-19T14:31:49:335
0,172742	0,240210	-0,133499	2020-11-19T14:31:49:357
0,117393	0,129494	-0,111996	2020-11-19T14:31:49:375
0,155679	0,249135	-0,092854	2020-11-19T14:31:49:397
0,000770	0,206898	-0,041320	2020-11-19T14:31:49:415
0,033708	0,245453	-0,025452	2020-11-19T14:31:49:437
0,062602	0,214241	-0,099260	2020-11-19T14:31:49:455
0,066759	0,129907	-0,032984	2020-11-19T14:31:49:477
0,034714	0,215471	0,014894	2020-11-19T14:31:49:495
-0,096052	0,343370	0,022934	2020-11-19T14:31:49:518
0,078596	0,441382	-0,037045	2020-11-19T14:31:49:535
-0,071770	0,178853	-0,009546	2020-11-19T14:31:49:557
0,066302	0,248216	-0,026204	2020-11-19T14:31:49:575
0,053821	0,132859	-0,064728	2020-11-19T14:31:49:597
-0,027294	-0,044043	-0,148446	2020-11-19T14:31:49:615
0,077553	-0,037367	-0,145681	2020-11-19T14:31:49:637
0,138554	-0,191282	-0,131831	2020-11-19T14:31:49:655
0,119709	-0,039742	-0,063696	2020-11-19T14:31:49:678
0,163759	0,098100	-0,037459	2020-11-19T14:31:49:695
0,125990	0,529084	-0,149201	2020-11-19T14:31:49:717
0,197591	0,264101	-0,080709	2020-11-19T14:31:49:735
0,146548	0,323144	-0,018736	2020-11-19T14:31:49:757
0,117925	0,191599	0,051167	2020-11-19T14:31:49:775
0,060159	0,102134	0,012491	2020-11-19T14:31:49:797
0,007462	0,071569	-0,089128	2020-11-19T14:31:49:817
0,059711	0,040857	-0,099558	2020-11-19T14:31:49:837
-0,022836	0,128629	-0,103642	2020-11-19T14:31:49:855
-0,007708	0,101484	-0,096734	2020-11-19T14:31:49:878
-0,033825	0,120047	-0,001287	2020-11-19T14:31:49:895
-0,013967	0,220016	-0,000660	2020-11-19T14:31:49:917
0,018755	0,219318	-0,055333	2020-11-19T14:31:49:935
0,037330	0,213568	-0,062551	2020-11-19T14:31:49:957
0,054739	0,018273	-0,074098	2020-11-19T14:31:49:975
0,136422	-0,057847	-0,026855	2020-11-19T14:31:49:999
0,071448	0,004937	-0,043834	2020-11-19T14:31:50:015
0,084571	0,192445	-0,098410	2020-11-19T14:31:50:037
0,138085	0,207653	-0,058894	2020-11-19T14:31:50:056
0,097683	0,160936	-0,080317	2020-11-19T14:31:50:077
0,055213	0,135023	-0,011022	2020-11-19T14:31:50:095
0,135100	0,321470	0,013018	2020-11-19T14:31:50:118
0,140480	0,291035	-0,048308	2020-11-19T14:31:50:135
0,064083	0,155125	-0,077064	2020-11-19T14:31:50:157
0,070207	0,163310	-0,050996	2020-11-19T14:31:50:175
0,105433	-0,033543	-0,015058	2020-11-19T14:31:50:197
0,024531	0,093588	-0,036069	2020-11-19T14:31:50:216
0,015782	0,253603	-0,004590	2020-11-19T14:31:50:238
0,057443	0,194826	-0,016430	2020-11-19T14:31:50:255
0,029567	0,315891	-0,007822	2020-11-19T14:31:50:278
0,007856	0,223189	0,008758	2020-11-19T14:31:50:296
0,043572	0,144379	0,044255	2020-11-19T14:31:50:318
0,054802	0,009463	-0,065448	2020-11-19T14:31:50:335
0,048992	-0,008569	-0,158638	2020-11-19T14:31:50:358
0,132877	0,112539	-0,153429	2020-11-19T14:31:50:400
0,049096	0,210288	-0,126804	2020-11-19T14:31:50:401
-0,031264	0,277836	-0,027180	2020-11-19T14:31:50:416
0,057463	0,286269	0,047019	2020-11-19T14:31:50:438
0,132910	0,247809	0,016979	2020-11-19T14:31:50:456
0,108787	0,230820	-0,048761	2020-11-19T14:31:50:478
0,160149	0,227738	-0,057878	2020-11-19T14:31:50:495
0,175821	0,155933	-0,016088	2020-11-19T14:31:50:519
0,097620	0,031159	-0,094227	2020-11-19T14:31:50:537
0,024581	0,042071	-0,077835	2020-11-19T14:31:50:562
0,077447	0,094424	-0,135553	2020-11-19T14:31:50:577
0,034803	0,171568	-0,111099	2020-11-19T14:31:50:598
-0,013179	0,108315	-0,092217	2020-11-19T14:31:50:617
-0,163927	0,134636	-0,073075	2020-11-19T14:31:50:638
-0,028724	0,163350	-0,032203	2020-11-19T14:31:50:656
-0,069402	0,225563	-0,010668	2020-11-19T14:31:50:678
-0,013972	0,191814	-0,068212	2020-11-19T14:31:50:696
0,003484	0,149970	0,027188	2020-11-19T14:31:50:719
0,038432	0,113480	-0,061725	2020-11-19T14:31:50:736
0,074256	0,156981	-0,027727	2020-11-19T14:31:50:758
0,079099	0,026168	-0,021058	2020-11-19T14:31:50:777
0,164466	0,082485	-0,039129	2020-11-19T14:31:50:798
0,120896	0,118782	-0,027847	2020-11-19T14:31:50:816
0,169755	0,104547	-0,012415	2020-11-19T14:31:50:838
0,192606	0,146326	-0,056800	2020-11-19T14:31:50:855
0,135642	0,103230	-0,029115	2020-11-19T14:31:50:879
0,123751	0,027714	-0,059105	2020-11-19T14:31:50:897
0,087858	0,042071	-0,013641	2020-11-19T14:31:50:919
0,102304	-0,084922	-0,081570	2020-11-19T14:31:50:936
0,063930	0,145058	-0,012187	2020-11-19T14:31:50:960
0,074376	0,159608	-0,038313	2020-11-19T14:31:50:977
0,048055	0,162000	-0,059848	2020-11-19T14:31:50:998
0,042674	0,126132	-0,066747	2020-11-19T14:31:51:017
0,008304	0,098082	-0,053546	2020-11-19T14:31:51:039
0,045078	0,051985	-0,099198	2020-11-19T14:31:51:057
0,006793	0,068735	-0,135091	2020-11-19T14:31:51:078
-0,021045	0,085091	-0,036269	2020-11-19T14:31:51:097
0,053837	0,133131	-0,080036	2020-11-19T14:31:51:120
0,037268	0,087378	-0,043843	2020-11-19T14:31:51:136
0,073910	0,128931	-0,004783	2020-11-19T14:31:51:159
0,052269	0,085244	-0,079973	2020-11-19T14:31:51:176
0,108014	0,111526	-0,015270	2020-11-19T14:31:51:200
0,145530	0,032517	-0,033316	2020-11-19T14:31:51:217
0,118981	-0,008556	0,004859	2020-11-19T14:31:51:239
0,137123	0,113691	-0,071369	2020-11-19T14:31:51:257
0,130753	0,080291	-0,055988	2020-11-19T14:31:51:279
0,222831	0,049002	-0,013534	2020-11-19T14:31:51:296
0,242721	0,243963	-0,105424	2020-11-19T14:31:51:319
-0,010209	0,014741	-0,146467	2020-11-19T14:31:51:337
-0,045432	-0,062277	-0,053297	2020-11-19T14:31:51:360
-0,099659	0,053278	-0,047074	2020-11-19T14:31:51:377
-0,062419	0,218157	-0,194630	2020-11-19T14:31:51:398
-0,090450	0,212671	-0,082421	2020-11-19T14:31:51:417
-0,092029	0,173930	0,012356	2020-11-19T14:31:51:440
0,058033	0,074383	-0,002685	2020-11-19T14:31:51:457
0,191068	-0,067723	0,080978	2020-11-19T14:31:51:479
0,215253	-0,026292	-0,031520	2020-11-19T14:31:51:498
0,229947	0,000197	-0,066399	2020-11-19T14:31:51:520
0,209496	-0,076026	-0,083115	2020-11-19T14:31:51:537
0,237886	0,012933	-0,078909	2020-11-19T14:31:51:559
0,231318	0,005994	-0,054233	2020-11-19T14:31:51:577
0,120481	0,062867	-0,009717	2020-11-19T14:31:51:600
0,073099	0,162796	-0,050436	2020-11-19T14:31:51:617
0,070121	0,135058	-0,052592	2020-11-19T14:31:51:639
-0,029787	0,046323	-0,094046	2020-11-19T14:31:51:657
-0,028183	0,148311	-0,145226	2020-11-19T14:31:51:680
0,019480	0,227646	-0,136070	2020-11-19T14:31:51:697
-0,028734	0,274797	-0,062257	2020-11-19T14:31:51:719
0,018409	0,353350	-0,130808	2020-11-19T14:31:51:738
-0,195992	0,020476	0,002815	2020-11-19T14:31:51:760
-0,027300	0,170135	0,001656	2020-11-19T14:31:51:779
-0,008157	0,110315	-0,077308	2020-11-19T14:31:51:799
0,106702	-0,005261	-0,030114	2020-11-19T14:31:51:817
0,194540	0,004121	-0,180978	2020-11-19T14:31:51:840
0,373881	-0,065692	-0,154926	2020-11-19T14:31:51:857
0,201598	-0,228404	-0,099891	2020-11-19T14:31:51:879
0,073498	0,331028	-0,147283	2020-11-19T14:31:51:898
-0,050929	0,299922	-0,080284	2020-11-19T14:31:51:921
-0,095756	0,127423	0,057139	2020-11-19T14:31:51:937
-0,013085	0,144406	0,189708	2020-11-19T14:31:51:959
0,032102	0,128202	0,015109	2020-11-19T14:31:51:977
0,008511	0,063635	-0,002377	2020-11-19T14:31:52:000
0,049178	-0,007795	-0,133865	2020-11-19T14:31:52:017
0,100505	0,082024	-0,075408	2020-11-19T14:31:52:040
0,150370	0,080396	-0,092649	2020-11-19T14:31:52:057
0,176691	0,056468	-0,056755	2020-11-19T14:31:52:080
0,142047	0,035048	-0,090690	2020-11-19T14:31:52:098
0,092470	0,103374	-0,035035	2020-11-19T14:31:52:120
0,129636	0,106277	-0,011106	2020-11-19T14:31:52:138
0,143498	0,204962	-0,087921	2020-11-19T14:31:52:161
0,063396	0,074795	-0,134665	2020-11-19T14:31:52:178
0,017932	0,067616	-0,058093	2020-11-19T14:31:52:199
-0,001574	0,252197	-0,113127	2020-11-19T14:31:52:219
-0,091925	0,181676	-0,059263	2020-11-19T14:31:52:240
-0,006377	0,224794	-0,076228	2020-11-19T14:31:52:257
-0,087310	0,215453	-0,044254	2020-11-19T14:31:52:279
-0,004904	0,214775	-0,036036	2020-11-19T14:31:52:297
0,099317	0,115937	0,014548	2020-11-19T14:31:52:321
0,091195	0,006382	0,012609	2020-11-19T14:31:52:338
0,140259	-0,052828	-0,097813	2020-11-19T14:31:52:360
0,109624	-0,102889	-0,057741	2020-11-19T14:31:52:377
0,046240	0,193234	-0,028603	2020-11-19T14:31:52:401
0,072600	0,292170	-0,067038	2020-11-19T14:31:52:418
0,133916	0,179378	-0,039787	2020-11-19T14:31:52:440
0,093296	0,056383	0,008989	2020-11-19T14:31:52:459
0,132364	-0,003185	-0,009525	2020-11-19T14:31:52:481
0,064319	0,076061	-0,083712	2020-11-19T14:31:52:498
0,040587	0,084781	-0,093535	2020-11-19T14:31:52:521
0,090836	0,163744	-0,088750	2020-11-19T14:31:52:538
0,084666	0,094166	-0,018032	2020-11-19T14:31:52:561
0,134902	-0,023374	-0,070346	2020-11-19T14:31:52:578
0,152951	-0,071149	-0,032145	2020-11-19T14:31:52:600
0,118099	0,130592	-0,115780	2020-11-19T14:31:52:618
0,067496	0,204219	-0,106809	2020-11-19T14:31:52:642
-0,005783	0,204113	-0,120340	2020-11-19T14:31:52:659
0,001396	0,101222	-0,072484	2020-11-19T14:31:52:680
-0,040544	0,018875	0,028589	2020-11-19T14:31:52:699
0,044600	-0,046084	-0,029593	2020-11-19T14:31:52:721
0,015353	0,056913	-0,089859	2020-11-19T14:31:52:738
0,006910	0,199172	-0,126432	2020-11-19T14:31:52:760
0,068124	0,251647	-0,042179	2020-11-19T14:31:52:778
0,072854	0,221032	-0,022107	2020-11-19T14:31:52:801
0,144066	0,143482	0,027719	2020-11-19T14:31:52:818
0,086523	0,059189	0,004448	2020-11-19T14:31:52:840
0,155882	0,063050	-0,064827	2020-11-19T14:31:52:858
0,131932	0,096088	-0,067313	2020-11-19T14:31:52:882
0,104603	0,239344	-0,091867	2020-11-19T14:31:52:898
0,195026	0,287035	-0,066837	2020-11-19T14:31:52:920
0,127288	-0,221714	-0,015877	2020-11-19T14:31:52:939
-0,031163	-0,027997	-0,058637	2020-11-19T14:31:52:961
-0,027805	0,402060	-0,219501	2020-11-19T14:31:52:979
-0,059106	0,232378	-0,224406	2020-11-19T14:31:53:000
-0,028781	0,017445	0,028333	2020-11-19T14:31:53:018
-0,050144	0,235221	0,053349	2020-11-19T14:31:53:041
-0,050144	0,168222	-0,028008	2020-11-19T14:31:53:058
0,008225	0,035825	-0,120707	2020-11-19T14:31:53:080
0,044121	0,039632	-0,100718	2020-11-19T14:31:53:098
0,190308	0,089310	-0,096088	2020-11-19T14:31:53:122
0,290534	0,103718	-0,076496	2020-11-19T14:31:53:138
0,224007	0,076264	-0,025091	2020-11-19T14:31:53:161
0,243150	0,104978	-0,003556	2020-11-19T14:31:53:180
0,136893	0,171117	-0,067666	2020-11-19T14:31:53:201
0,164929	0,118385	-0,061781	2020-11-19T14:31:53:219
-0,026497	0,013101	-0,073746	2020-11-19T14:31:53:240
0,094064	-0,023870	-0,010640	2020-11-19T14:31:53:258
0,033736	-0,029015	-0,030717	2020-11-19T14:31:53:282
0,014593	0,150447	-0,114466	2020-11-19T14:31:53:298
0,019264	0,246952	-0,078766	2020-11-19T14:31:53:321
-0,006770	0,275298	-0,090470	2020-11-19T14:31:53:338
-0,004634	0,245834	-0,135510	2020-11-19T14:31:53:362
-0,000359	0,140370	-0,067979	2020-11-19T14:31:53:379
0,003506	0,098541	-0,054998	2020-11-19T14:31:53:401
0,096826	0,151183	-0,100463	2020-11-19T14:31:53:420
0,058421	0,152836	-0,048100	2020-11-19T14:31:53:442
0,043031	0,229763	-0,031825	2020-11-19T14:31:53:459
0,102852	0,069444	-0,034218	2020-11-19T14:31:53:481
0,152122	0,145090	-0,058976	2020-11-19T14:31:53:498
0,229088	-0,076038	-0,085079	2020-11-19T14:31:53:522
0,106224	-0,316672	-0,079943	2020-11-19T14:31:53:539
0,029892	-0,024403	-0,052167	2020-11-19T14:31:53:561
0,191376	0,614687	-0,374123	2020-11-19T14:31:53:579
-0,002443	-0,122302	-0,261661	2020-11-19T14:31:53:602
0,164009	-0,060259	0,033268	2020-11-19T14:31:53:619
0,000156	-0,066072	0,158479	2020-11-19T14:31:53:641
0,036332	0,388940	0,037038	2020-11-19T14:31:53:660
0,060402	0,325103	-0,073299	2020-11-19T14:31:53:682
-0,023518	-0,057530	-0,099248	2020-11-19T14:31:53:699
0,127712	0,134938	-0,009459	2020-11-19T14:31:53:721
0,143466	0,145107	-0,060841	2020-11-19T14:31:53:739
0,152629	0,042772	-0,079013	2020-11-19T14:31:53:762
0,096391	0,104973	-0,073517	2020-11-19T14:31:53:779
0,105862	0,118356	-0,030342	2020-11-19T14:31:53:801
0,034877	0,059646	-0,111562	2020-11-19T14:31:53:819
0,069434	0,081919	-0,113937	2020-11-19T14:31:53:842
0,100177	0,027200	-0,064027	2020-11-19T14:31:53:859
0,053995	-0,022931	-0,068815	2020-11-19T14:31:53:881
0,042978	0,077412	0,006350	2020-11-19T14:31:53:900
0,072851	0,142477	-0,045133	2020-11-19T14:31:53:922
0,051574	0,315805	-0,083843	2020-11-19T14:31:53:939
0,030107	0,270386	-0,091528	2020-11-19T14:31:53:961
0,000147	0,164894	-0,069589	2020-11-19T14:31:53:979
0,064785	0,056430	-0,016476	2020-11-19T14:31:54:002
0,170397	0,116308	-0,073013	2020-11-19T14:31:54:020
0,036671	0,184031	-0,087817	2020-11-19T14:31:54:041
0,055706	0,167139	-0,090789	2020-11-19T14:31:54:059
0,089206	0,128854	-0,136252	2020-11-19T14:31:54:083
0,114013	0,130656	0,027210	2020-11-19T14:31:54:099
0,190077	0,029577	0,001822	2020-11-19T14:31:54:122
0,120318	-0,151587	-0,005461	2020-11-19T14:31:54:141
-0,059357	0,078628	-0,103658	2020-11-19T14:31:54:162
0,006775	0,268120	-0,197598	2020-11-19T14:31:54:181
-0,007582	0,227441	-0,106670	2020-11-19T14:31:54:202
-0,016010	0,131669	0,079595	2020-11-19T14:31:54:220
-0,050930	0,145378	0,072269	2020-11-19T14:31:54:242
-0,024273	0,230329	0,018382	2020-11-19T14:31:54:259
0,089162	0,046477	-0,152534	2020-11-19T14:31:54:282
0,149142	0,109850	-0,087883	2020-11-19T14:31:54:299
0,217537	0,031926	-0,090060	2020-11-19T14:31:54:323
0,243377	-0,017693	-0,048336	2020-11-19T14:31:54:339
0,206030	0,079175	-0,041649	2020-11-19T14:31:54:362
0,177199	0,087502	-0,067482	2020-11-19T14:31:54:380
0,173075	0,113972	-0,070814	2020-11-19T14:31:54:402
0,048728	0,067719	-0,039874	2020-11-19T14:31:54:420
0,038878	0,125464	-0,088065	2020-11-19T14:31:54:442
-0,033800	0,117561	-0,102868	2020-11-19T14:31:54:461
0,040219	0,096865	-0,074280	2020-11-19T14:31:54:483
-0,033959	0,022687	-0,028817	2020-11-19T14:31:54:499
-0,076669	0,150540	0,000289	2020-11-19T14:31:54:522
0,029941	0,268202	-0,060094	2020-11-19T14:31:54:539
0,038317	0,194570	-0,063001	2020-11-19T14:31:54:563
0,010537	0,101240	-0,100389	2020-11-19T14:31:54:580
0,067946	0,168921	-0,051932	2020-11-19T14:31:54:602
0,057927	0,105909	-0,050698	2020-11-19T14:31:54:621
0,072942	0,082207	-0,033769	2020-11-19T14:31:54:642
0,037672	0,143275	-0,016499	2020-11-19T14:31:54:660
0,044170	0,142901	-0,079391	2020-11-19T14:31:54:682
0,060059	0,174841	-0,027043	2020-11-19T14:31:54:700
0,046225	0,043723	-0,022826	2020-11-19T14:31:54:723
0,080784	0,058821	-0,066241	2020-11-19T14:31:54:740
0,068438	0,101488	-0,074374	2020-11-19T14:31:54:762
0,051533	0,146676	-0,029031	2020-11-19T14:31:54:780
0,106489	0,175680	-0,068863	2020-11-19T14:31:54:803
0,101519	0,147466	-0,032438	2020-11-19T14:31:54:820
0,058595	0,050401	-0,040422	2020-11-19T14:31:54:842
0,130012	0,049714	-0,072582	2020-11-19T14:31:54:862
0,064525	-0,054958	-0,049710	2020-11-19T14:31:54:884
0,100282	0,107145	-0,051450	2020-11-19T14:31:54:900
0,120149	0,146618	-0,060870	2020-11-19T14:31:54:923
-0,006680	0,205400	-0,042454	2020-11-19T14:31:54:940
0,007332	0,208773	-0,031109	2020-11-19T14:31:54:963
0,102074	0,143067	-0,036501	2020-11-19T14:31:54:980
0,122213	0,030834	-0,003139	2020-11-19T14:31:55:002
0,030317	0,020909	-0,011712	2020-11-19T14:31:55:020
0,045428	0,068370	-0,084269	2020-11-19T14:31:55:043
0,127164	0,109197	0,009982	2020-11-19T14:31:55:059
0,154438	0,132926	-0,055283	2020-11-19T14:31:55:082
0,008417	0,220757	-0,063445	2020-11-19T14:31:55:102
-0,004416	0,163443	-0,045304	2020-11-19T14:31:55:123
0,047976	0,208537	-0,028804	2020-11-19T14:31:55:140
0,031157	0,157210	-0,066341	2020-11-19T14:31:55:162
-0,028089	0,113047	-0,016824	2020-11-19T14:31:55:180
0,106417	0,074777	-0,081420	2020-11-19T14:31:55:203
0,068467	0,094498	-0,072786	2020-11-19T14:31:55:221
0,136316	-0,003865	-0,050814	2020-11-19T14:31:55:242
0,102979	-0,122894	-0,048113	2020-11-19T14:31:55:260
0,041741	0,081714	-0,078152	2020-11-19T14:31:55:283
0,084628	0,248692	-0,097131	2020-11-19T14:31:55:300
0,089843	0,133618	-0,109159	2020-11-19T14:31:55:323
0,070679	0,034449	0,030074	2020-11-19T14:31:55:341
0,077899	0,047955	0,050566	2020-11-19T14:31:55:363
0,107389	0,144146	-0,063169	2020-11-19T14:31:55:384
0,064318	0,196789	-0,111026	2020-11-19T14:31:55:403
0,076458	0,135222	-0,124372	2020-11-19T14:31:55:421
0,083245	0,167246	0,007485	2020-11-19T14:31:55:443
0,122254	0,091635	-0,036330	2020-11-19T14:31:55:460
0,092293	0,012610	-0,134202	2020-11-19T14:31:55:483
0,050300	0,095371	-0,089220	2020-11-19T14:31:55:500
0,016104	0,175319	-0,059910	2020-11-19T14:31:55:524
-0,003760	0,214010	-0,034460	2020-11-19T14:31:55:540
-0,001417	0,289027	-0,064604	2020-11-19T14:31:55:563
-0,030198	0,034946	-0,030573	2020-11-19T14:31:55:582
0,110849	0,008804	-0,107127	2020-11-19T14:31:55:603
0,091831	0,029774	-0,047800	2020-11-19T14:31:55:621
0,054077	0,078259	-0,092522	2020-11-19T14:31:55:643
0,104758	0,187981	0,000747	2020-11-19T14:31:55:661
0,114222	0,226161	0,007449	2020-11-19T14:31:55:683
0,097019	0,182838	-0,048969	2020-11-19T14:31:55:701
0,008485	0,175659	-0,065720	2020-11-19T14:31:55:723
0,063549	0,060275	-0,110619	2020-11-19T14:31:55:741
0,014761	0,079817	-0,005740	2020-11-19T14:31:55:764
0,072746	0,018429	-0,045680	2020-11-19T14:31:55:781
0,127427	0,159631	-0,040128	2020-11-19T14:31:55:803
0,088512	0,196873	0,025234	2020-11-19T14:31:55:823
0,106192	0,093316	-0,065377	2020-11-19T14:31:55:843
0,008767	0,123677	-0,079440	2020-11-19T14:31:55:861
0,062222	0,085826	0,002560	2020-11-19T14:31:55:883
0,031135	0,127132	-0,094959	2020-11-19T14:31:55:901
0,083777	0,105597	-0,047102	2020-11-19T14:31:55:924
0,131494	0,151726	-0,058863	2020-11-19T14:31:55:941
-0,029090	0,144254	-0,062578	2020-11-19T14:31:55:963
0,013953	0,246405	-0,055724	2020-11-19T14:31:55:981
0,155838	0,110834	-0,019108	2020-11-19T14:31:56:010
0,070704	0,066132	-0,100794	2020-11-19T14:31:56:022
0,068604	0,035714	-0,078171	2020-11-19T14:31:56:043
0,032705	0,192232	-0,057885	2020-11-19T14:31:56:062
0,128243	0,149706	-0,008727	2020-11-19T14:31:56:084
0,115891	0,070883	-0,005136	2020-11-19T14:31:56:101
0,041645	0,175507	-0,050395	2020-11-19T14:31:56:124
0,055170	-0,003894	-0,062906	2020-11-19T14:31:56:141
0,093922	0,081013	-0,087143	2020-11-19T14:31:56:164
0,045228	0,172195	-0,072020	2020-11-19T14:31:56:181
0,010713	0,141312	-0,065362	2020-11-19T14:31:56:203
0,095044	0,188155	-0,036530	2020-11-19T14:31:56:221
0,029444	0,134720	-0,049726	2020-11-19T14:31:56:244
0,074039	0,107878	-0,133413	2020-11-19T14:31:56:262
0,126681	0,081558	-0,030523	2020-11-19T14:31:56:283
0,063159	0,134577	-0,035756	2020-11-19T14:31:56:302
0,070362	0,127439	-0,031762	2020-11-19T14:31:56:324
0,034238	0,161804	-0,037100	2020-11-19T14:31:56:341
0,112614	0,059330	-0,032701	2020-11-19T14:31:56:363
0,036303	0,084205	-0,082153	2020-11-19T14:31:56:381
0,066873	0,036778	-0,061769	2020-11-19T14:31:56:404
0,038812	0,115347	-0,041037	2020-11-19T14:31:56:422
0,074120	0,169663	-0,062534	2020-11-19T14:31:56:443
0,079245	0,200592	-0,058566	2020-11-19T14:31:56:461
0,055563	0,120186	-0,078968	2020-11-19T14:31:56:484
0,031768	0,183264	-0,043198	2020-11-19T14:31:56:502
0,098767	0,020552	-0,069519	2020-11-19T14:31:56:523
0,135348	0,116992	-0,039207	2020-11-19T14:31:56:543
0,048214	0,199854	-0,104641	2020-11-19T14:31:56:564
0,030363	0,154709	-0,077236	2020-11-19T14:31:56:581
0,113721	0,154878	-0,027426	2020-11-19T14:31:56:603
0,090097	0,069455	-0,047458	2020-11-19T14:31:56:622
0,041324	0,150992	-0,025197	2020-11-19T14:31:56:644
-0,004975	0,029741	-0,049426	2020-11-19T14:31:56:662
0,128190	0,096157	-0,061748	2020-11-19T14:31:56:683
0,041695	0,107071	-0,042580	2020-11-19T14:31:56:701
0,023997	0,116906	-0,070979	2020-11-19T14:31:56:724
0,039232	0,058392	-0,060455	2020-11-19T14:31:56:743
0,053590	0,132570	-0,060455	2020-11-19T14:31:56:763
0,056698	0,018982	-0,075081	2020-11-19T14:31:56:783
0,092790	0,035290	-0,056829	2020-11-19T14:31:56:804
-0,006726	0,105726	-0,084599	2020-11-19T14:31:56:822
0,052206	0,175328	0,007010	2020-11-19T14:31:56:843
0,095665	0,188026	-0,046945	2020-11-19T14:31:56:862
0,080061	0,131210	-0,074875	2020-11-19T14:31:56:884
0,016675	0,083493	-0,065064	2020-11-19T14:31:56:903
0,093246	0,093064	-0,033958	2020-11-19T14:31:56:925
0,120205	0,111542	-0,093468	2020-11-19T14:31:56:942
0,060442	0,117631	-0,062285	2020-11-19T14:31:56:966
0,041612	0,150818	-0,081485	2020-11-19T14:31:56:981
0,035688	0,115211	-0,012610	2020-11-19T14:31:57:004
-0,017659	0,116643	-0,092069	2020-11-19T14:31:57:024
0,147445	0,111857	-0,039426	2020-11-19T14:31:57:045
0,058567	0,175510	-0,097980	2020-11-19T14:31:57:061
0,047170	0,156181	-0,103547	2020-11-19T14:31:57:084
0,046194	0,092443	-0,017698	2020-11-19T14:31:57:102
0,059003	0,126218	-0,062937	2020-11-19T14:31:57:125
0,073654	0,096606	0,008591	2020-11-19T14:31:57:143
0,113536	0,091114	-0,106627	2020-11-19T14:31:57:164
0,031464	0,200328	-0,048013	2020-11-19T14:31:57:183
0,067356	0,102222	-0,031263	2020-11-19T14:31:57:205
0,021913	0,135756	-0,103033	2020-11-19T14:31:57:223
0,065698	0,088037	-0,071393	2020-11-19T14:31:57:244
0,085515	0,059162	-0,044214	2020-11-19T14:31:57:263
0,082197	0,147590	-0,041196	2020-11-19T14:31:57:285
0,091055	0,101743	-0,068565	2020-11-19T14:31:57:302
0,058535	0,163502	-0,073726	2020-11-19T14:31:57:324
0,149972	0,153849	-0,069693	2020-11-19T14:31:57:342
0,081500	0,083489	-0,065838	2020-11-19T14:31:57:365
0,066412	0,131000	-0,055692	2020-11-19T14:31:57:382
0,104911	0,111469	-0,058182	2020-11-19T14:31:57:404
0,069801	0,102136	-0,065532	2020-11-19T14:31:57:423
0,088954	0,090508	-0,024738	2020-11-19T14:31:57:445
0,023347	0,110274	-0,098862	2020-11-19T14:31:57:462
0,035245	0,103363	-0,060124	2020-11-19T14:31:57:484
0,122899	0,137073	-0,083746	2020-11-19T14:31:57:503
0,079650	0,033441	-0,065253	2020-11-19T14:31:57:525
0,012094	0,039528	0,014868	2020-11-19T14:31:57:542
0,071478	0,079683	-0,055981	2020-11-19T14:31:57:564
0,092864	0,119278	-0,057955	2020-11-19T14:31:57:583
0,008142	0,162050	-0,029493	2020-11-19T14:31:57:605
0,006361	0,156627	0,008238	2020-11-19T14:31:57:623
0,092845	0,124285	-0,054770	2020-11-19T14:31:57:645
0,036572	0,126137	-0,095824	2020-11-19T14:31:57:663
0,107458	0,116417	-0,031034	2020-11-19T14:31:57:685
0,128962	0,078014	-0,052987	2020-11-19T14:31:57:703
0,058889	0,176016	-0,035948	2020-11-19T14:31:57:725
0,042844	0,108820	-0,082173	2020-11-19T14:31:57:743
0,144796	0,078712	-0,055289	2020-11-19T14:31:57:765
0,071864	0,073294	-0,086354	2020-11-19T14:31:57:783
0,040426	0,134043	-0,078917	2020-11-19T14:31:57:804
0,058405	0,184168	-0,038895	2020-11-19T14:31:57:823
0,022918	0,145783	0,014561	2020-11-19T14:31:57:845
0,072255	0,143129	-0,132062	2020-11-19T14:31:57:863
0,046125	0,002403	-0,084024	2020-11-19T14:31:57:884
0,032737	0,108507	-0,058061	2020-11-19T14:31:57:903
0,029883	0,134902	-0,062519	2020-11-19T14:31:57:926
0,094274	0,111697	-0,065133	2020-11-19T14:31:57:943
0,083485	0,185142	-0,084713	2020-11-19T14:31:57:964
0,047491	0,212874	-0,045184	2020-11-19T14:31:57:984
0,015580	0,086495	-0,041609	2020-11-19T14:31:58:005
0,058931	0,062289	-0,073978	2020-11-19T14:31:58:023
0,083166	0,041755	-0,113468	2020-11-19T14:31:58:044
0,061313	0,169050	-0,036788	2020-11-19T14:31:58:063
0,070884	0,106837	-0,046359	2020-11-19T14:31:58:085
0,087488	0,170123	-0,065969	2020-11-19T14:31:58:103
0,103474	0,102348	-0,052795	2020-11-19T14:31:58:125
0,073141	0,038706	-0,112547	2020-11-19T14:31:58:143
0,142510	0,079174	-0,127763	2020-11-19T14:31:58:166
0,093846	0,041709	-0,079327	2020-11-19T14:31:58:183
0,071075	0,124033	-0,040103	2020-11-19T14:31:58:204
0,092534	0,130088	-0,066814	2020-11-19T14:31:58:224
0,039065	0,090830	-0,067271	2020-11-19T14:31:58:247
