light_intensity	ts
2112666,000000	2020-11-19T14:31:12:670
2112037,000000	2020-11-19T14:31:12:697
2110557,000000	2020-11-19T14:31:12:737
2110113,000000	2020-11-19T14:31:12:779
2109063,000000	2020-11-19T14:31:12:817
2108313,000000	2020-11-19T14:31:12:857
2108442,000000	2020-11-19T14:31:12:897
2108295,000000	2020-11-19T14:31:12:937
2108034,000000	2020-11-19T14:31:12:978
2108149,000000	2020-11-19T14:31:13:017
2108565,000000	2020-11-19T14:31:13:059
2108349,000000	2020-11-19T14:31:13:097
2104333,000000	2020-11-19T14:31:13:137
2097637,000000	2020-11-19T14:31:13:178
2092328,000000	2020-11-19T14:31:13:217
2088753,000000	2020-11-19T14:31:13:257
2086554,000000	2020-11-19T14:31:13:298
2084650,000000	2020-11-19T14:31:13:337
2083929,000000	2020-11-19T14:31:13:378
2081657,000000	2020-11-19T14:31:13:417
2079552,000000	2020-11-19T14:31:13:457
2077038,000000	2020-11-19T14:31:13:498
2075479,000000	2020-11-19T14:31:13:538
2074635,000000	2020-11-19T14:31:13:579
2073537,000000	2020-11-19T14:31:13:618
2072188,000000	2020-11-19T14:31:13:657
2069031,000000	2020-11-19T14:31:13:698
2065225,000000	2020-11-19T14:31:13:738
2063363,000000	2020-11-19T14:31:13:779
2061206,000000	2020-11-19T14:31:13:817
2058682,000000	2020-11-19T14:31:14:019
2050987,000000	2020-11-19T14:31:14:055
2040715,000000	2020-11-19T14:31:14:056
2029475,000000	2020-11-19T14:31:14:063
2017553,000000	2020-11-19T14:31:14:063
2008300,000000	2020-11-19T14:31:14:069
2004846,000000	2020-11-19T14:31:14:099
2002299,000000	2020-11-19T14:31:14:139
2000594,000000	2020-11-19T14:31:14:180
1998669,000000	2020-11-19T14:31:14:220
1992790,000000	2020-11-19T14:31:14:262
1988182,000000	2020-11-19T14:31:14:301
1984122,000000	2020-11-19T14:31:14:341
1979554,000000	2020-11-19T14:31:14:381
1974813,000000	2020-11-19T14:31:14:420
1970234,000000	2020-11-19T14:31:14:467
1965309,000000	2020-11-19T14:31:14:523
1962260,000000	2020-11-19T14:31:14:544
1963116,000000	2020-11-19T14:31:14:581
1959488,000000	2020-11-19T14:31:14:631
1955142,000000	2020-11-19T14:31:14:665
1950278,000000	2020-11-19T14:31:14:701
1948129,000000	2020-11-19T14:31:14:743
1944447,000000	2020-11-19T14:31:14:781
1941904,000000	2020-11-19T14:31:14:821
1941742,000000	2020-11-19T14:31:14:861
1940825,000000	2020-11-19T14:31:14:901
1942106,000000	2020-11-19T14:31:14:941
1945115,000000	2020-11-19T14:31:14:983
1949616,000000	2020-11-19T14:31:15:021
1948005,000000	2020-11-19T14:31:15:062
1942717,000000	2020-11-19T14:31:15:101
1937633,000000	2020-11-19T14:31:15:141
1932438,000000	2020-11-19T14:31:15:181
1929203,000000	2020-11-19T14:31:15:223
1927288,000000	2020-11-19T14:31:15:262
1922639,000000	2020-11-19T14:31:15:301
1912102,000000	2020-11-19T14:31:15:341
1898777,000000	2020-11-19T14:31:15:382
1886471,000000	2020-11-19T14:31:15:424
1875874,000000	2020-11-19T14:31:15:463
1866907,000000	2020-11-19T14:31:15:501
1859701,000000	2020-11-19T14:31:15:542
1852350,000000	2020-11-19T14:31:15:582
1844623,000000	2020-11-19T14:31:15:622
1835596,000000	2020-11-19T14:31:15:661
1827192,000000	2020-11-19T14:31:15:703
1819040,000000	2020-11-19T14:31:15:742
1811715,000000	2020-11-19T14:31:15:783
1805493,000000	2020-11-19T14:31:15:822
1799447,000000	2020-11-19T14:31:15:862
1794045,000000	2020-11-19T14:31:15:902
1789243,000000	2020-11-19T14:31:15:943
1784057,000000	2020-11-19T14:31:15:987
1771960,000000	2020-11-19T14:31:16:022
1756810,000000	2020-11-19T14:31:16:063
1744682,000000	2020-11-19T14:31:16:102
1735453,000000	2020-11-19T14:31:16:142
1729175,000000	2020-11-19T14:31:16:185
1724725,000000	2020-11-19T14:31:16:223
1720935,000000	2020-11-19T14:31:16:263
1715862,000000	2020-11-19T14:31:16:309
1710212,000000	2020-11-19T14:31:16:343
1704689,000000	2020-11-19T14:31:16:382
1699804,000000	2020-11-19T14:31:16:427
1696122,000000	2020-11-19T14:31:16:463
1692415,000000	2020-11-19T14:31:16:502
1689997,000000	2020-11-19T14:31:16:542
1687796,000000	2020-11-19T14:31:16:582
1685487,000000	2020-11-19T14:31:16:622
1677976,000000	2020-11-19T14:31:16:664
1666795,000000	2020-11-19T14:31:16:702
1655808,000000	2020-11-19T14:31:16:742
1648873,000000	2020-11-19T14:31:16:783
1644213,000000	2020-11-19T14:31:16:822
1641414,000000	2020-11-19T14:31:16:861
1639302,000000	2020-11-19T14:31:16:903
1636710,000000	2020-11-19T14:31:16:941
1633336,000000	2020-11-19T14:31:16:982
1629336,000000	2020-11-19T14:31:17:021
1625713,000000	2020-11-19T14:31:17:062
1623114,000000	2020-11-19T14:31:17:102
1622127,000000	2020-11-19T14:31:17:144
1621058,000000	2020-11-19T14:31:17:192
1620167,000000	2020-11-19T14:31:17:380
1620038,000000	2020-11-19T14:31:17:426
1618737,000000	2020-11-19T14:31:17:436
1612158,000000	2020-11-19T14:31:17:501
1601967,000000	2020-11-19T14:31:17:502
1593602,000000	2020-11-19T14:31:17:502
1587955,000000	2020-11-19T14:31:17:503
1585105,000000	2020-11-19T14:31:17:508
1582964,000000	2020-11-19T14:31:17:542
1582035,000000	2020-11-19T14:31:17:582
1581094,000000	2020-11-19T14:31:17:622
1578959,000000	2020-11-19T14:31:17:662
1577068,000000	2020-11-19T14:31:17:703
1576276,000000	2020-11-19T14:31:17:741
1575783,000000	2020-11-19T14:31:17:783
1576385,000000	2020-11-19T14:31:17:823
1576706,000000	2020-11-19T14:31:17:864
1577483,000000	2020-11-19T14:31:17:903
1578499,000000	2020-11-19T14:31:17:944
1577903,000000	2020-11-19T14:31:18:045
1570995,000000	2020-11-19T14:31:18:111
1560062,000000	2020-11-19T14:31:18:112
1551547,000000	2020-11-19T14:31:18:113
1546714,000000	2020-11-19T14:31:18:167
1544847,000000	2020-11-19T14:31:18:183
1545136,000000	2020-11-19T14:31:18:223
1545910,000000	2020-11-19T14:31:18:262
1546750,000000	2020-11-19T14:31:18:303
1546883,000000	2020-11-19T14:31:18:346
1546945,000000	2020-11-19T14:31:18:384
1547017,000000	2020-11-19T14:31:18:424
1547755,000000	2020-11-19T14:31:18:463
1548873,000000	2020-11-19T14:31:18:503
1551280,000000	2020-11-19T14:31:18:543
1553459,000000	2020-11-19T14:31:18:588
1556075,000000	2020-11-19T14:31:18:624
1558049,000000	2020-11-19T14:31:18:664
1555506,000000	2020-11-19T14:31:18:704
1550485,000000	2020-11-19T14:31:18:747
1546430,000000	2020-11-19T14:31:18:904
1545405,000000	2020-11-19T14:31:18:904
1545973,000000	2020-11-19T14:31:18:905
1547934,000000	2020-11-19T14:31:18:909
1550324,000000	2020-11-19T14:31:18:943
1551522,000000	2020-11-19T14:31:18:984
1552630,000000	2020-11-19T14:31:19:039
1554036,000000	2020-11-19T14:31:19:065
1555841,000000	2020-11-19T14:31:19:103
1557767,000000	2020-11-19T14:31:19:144
1560951,000000	2020-11-19T14:31:19:184
1563424,000000	2020-11-19T14:31:19:223
1566571,000000	2020-11-19T14:31:19:265
1569575,000000	2020-11-19T14:31:19:307
1569829,000000	2020-11-19T14:31:19:345
1566270,000000	2020-11-19T14:31:19:386
1562373,000000	2020-11-19T14:31:19:425
1561148,000000	2020-11-19T14:31:19:465
1561305,000000	2020-11-19T14:31:19:505
1562900,000000	2020-11-19T14:31:19:547
1565487,000000	2020-11-19T14:31:19:586
1567138,000000	2020-11-19T14:31:19:626
1568354,000000	2020-11-19T14:31:19:667
1569327,000000	2020-11-19T14:31:19:706
1570841,000000	2020-11-19T14:31:19:746
1572680,000000	2020-11-19T14:31:19:787
1575048,000000	2020-11-19T14:31:19:826
1577649,000000	2020-11-19T14:31:19:866
1580083,000000	2020-11-19T14:31:19:906
1582454,000000	2020-11-19T14:31:19:947
1584584,000000	2020-11-19T14:31:19:986
1583450,000000	2020-11-19T14:31:20:032
1579956,000000	2020-11-19T14:31:20:066
1576374,000000	2020-11-19T14:31:20:106
1575748,000000	2020-11-19T14:31:20:146
1576222,000000	2020-11-19T14:31:20:186
1577742,000000	2020-11-19T14:31:20:226
1579680,000000	2020-11-19T14:31:20:268
1581429,000000	2020-11-19T14:31:20:306
1582494,000000	2020-11-19T14:31:20:346
1583461,000000	2020-11-19T14:31:20:387
1584821,000000	2020-11-19T14:31:20:426
1587060,000000	2020-11-19T14:31:20:466
1589049,000000	2020-11-19T14:31:20:508
1591527,000000	2020-11-19T14:31:20:546
1594289,000000	2020-11-19T14:31:20:587
1596430,000000	2020-11-19T14:31:20:627
1599384,000000	2020-11-19T14:31:20:666
1600133,000000	2020-11-19T14:31:20:707
1597912,000000	2020-11-19T14:31:20:748
1594734,000000	2020-11-19T14:31:20:787
1593485,000000	2020-11-19T14:31:20:827
1594016,000000	2020-11-19T14:31:20:867
1595378,000000	2020-11-19T14:31:20:907
1597022,000000	2020-11-19T14:31:20:947
1598880,000000	2020-11-19T14:31:20:989
1599969,000000	2020-11-19T14:31:21:027
1601314,000000	2020-11-19T14:31:21:067
1602478,000000	2020-11-19T14:31:21:107
1604416,000000	2020-11-19T14:31:21:147
1606305,000000	2020-11-19T14:31:21:187
1608604,000000	2020-11-19T14:31:21:228
1611277,000000	2020-11-19T14:31:21:267
1613500,000000	2020-11-19T14:31:21:307
1616219,000000	2020-11-19T14:31:21:348
1618165,000000	2020-11-19T14:31:21:387
1617529,000000	2020-11-19T14:31:21:426
1615404,000000	2020-11-19T14:31:21:470
1613620,000000	2020-11-19T14:31:21:507
1613728,000000	2020-11-19T14:31:21:546
1615209,000000	2020-11-19T14:31:21:588
1616864,000000	2020-11-19T14:31:21:627
1619075,000000	2020-11-19T14:31:21:667
1620054,000000	2020-11-19T14:31:21:708
1621264,000000	2020-11-19T14:31:21:747
1622210,000000	2020-11-19T14:31:21:787
1623889,000000	2020-11-19T14:31:21:827
1625983,000000	2020-11-19T14:31:21:867
1627909,000000	2020-11-19T14:31:21:907
1630329,000000	2020-11-19T14:31:21:948
1632567,000000	2020-11-19T14:31:21:987
1635025,000000	2020-11-19T14:31:22:027
1637500,000000	2020-11-19T14:31:22:068
1639786,000000	2020-11-19T14:31:22:108
1640613,000000	2020-11-19T14:31:22:147
1639031,000000	2020-11-19T14:31:22:189
1637189,000000	2020-11-19T14:31:22:227
1636514,000000	2020-11-19T14:31:22:267
1636712,000000	2020-11-19T14:31:22:308
1638395,000000	2020-11-19T14:31:22:347
1639760,000000	2020-11-19T14:31:22:388
1641370,000000	2020-11-19T14:31:22:429
1642639,000000	2020-11-19T14:31:22:468
1643524,000000	2020-11-19T14:31:22:507
1644626,000000	2020-11-19T14:31:22:548
1646389,000000	2020-11-19T14:31:22:588
1647856,000000	2020-11-19T14:31:22:628
1649565,000000	2020-11-19T14:31:22:674
1651869,000000	2020-11-19T14:31:22:708
1653996,000000	2020-11-19T14:31:22:748
1655634,000000	2020-11-19T14:31:22:788
1657822,000000	2020-11-19T14:31:22:828
1659797,000000	2020-11-19T14:31:22:867
1660353,000000	2020-11-19T14:31:22:910
1658471,000000	2020-11-19T14:31:22:948
1656623,000000	2020-11-19T14:31:22:989
1655968,000000	2020-11-19T14:31:23:028
1656358,000000	2020-11-19T14:31:23:069
1657442,000000	2020-11-19T14:31:23:108
1658526,000000	2020-11-19T14:31:23:149
1659928,000000	2020-11-19T14:31:23:188
1660071,000000	2020-11-19T14:31:23:228
1660739,000000	2020-11-19T14:31:23:268
1661294,000000	2020-11-19T14:31:23:308
1662142,000000	2020-11-19T14:31:23:348
1663466,000000	2020-11-19T14:31:23:391
1664747,000000	2020-11-19T14:31:23:429
1665641,000000	2020-11-19T14:31:23:469
1667275,000000	2020-11-19T14:31:23:508
1668604,000000	2020-11-19T14:31:23:548
1670068,000000	2020-11-19T14:31:23:589
1671689,000000	2020-11-19T14:31:23:630
1672385,000000	2020-11-19T14:31:23:668
1670945,000000	2020-11-19T14:31:23:709
1668970,000000	2020-11-19T14:31:23:749
1667762,000000	2020-11-19T14:31:23:789
1667426,000000	2020-11-19T14:31:23:829
1668186,000000	2020-11-19T14:31:23:871
1668777,000000	2020-11-19T14:31:23:909
1669570,000000	2020-11-19T14:31:23:949
1670053,000000	2020-11-19T14:31:23:993
1670018,000000	2020-11-19T14:31:24:029
1670577,000000	2020-11-19T14:31:24:069
1671051,000000	2020-11-19T14:31:24:109
1671837,000000	2020-11-19T14:31:24:149
1673039,000000	2020-11-19T14:31:24:189
1674358,000000	2020-11-19T14:31:24:229
1675525,000000	2020-11-19T14:31:24:269
1676508,000000	2020-11-19T14:31:24:309
1677990,000000	2020-11-19T14:31:24:352
1679486,000000	2020-11-19T14:31:24:389
1680853,000000	2020-11-19T14:31:24:429
1680305,000000	2020-11-19T14:31:24:470
1677793,000000	2020-11-19T14:31:24:509
1675278,000000	2020-11-19T14:31:24:549
1674089,000000	2020-11-19T14:31:24:591
1673881,000000	2020-11-19T14:31:24:629
1674331,000000	2020-11-19T14:31:24:671
1675338,000000	2020-11-19T14:31:24:710
1675616,000000	2020-11-19T14:31:24:749
1675711,000000	2020-11-19T14:31:24:790
1675457,000000	2020-11-19T14:31:24:830
1675301,000000	2020-11-19T14:31:24:870
1675676,000000	2020-11-19T14:31:24:910
1676175,000000	2020-11-19T14:31:24:950
1676937,000000	2020-11-19T14:31:24:990
1678159,000000	2020-11-19T14:31:25:030
1678705,000000	2020-11-19T14:31:25:072
1679987,000000	2020-11-19T14:31:25:110
1680835,000000	2020-11-19T14:31:25:150
1682224,000000	2020-11-19T14:31:25:190
1682831,000000	2020-11-19T14:31:25:230
1681345,000000	2020-11-19T14:31:25:270
1678753,000000	2020-11-19T14:31:25:312
1676108,000000	2020-11-19T14:31:25:350
1675112,000000	2020-11-19T14:31:25:391
1674926,000000	2020-11-19T14:31:25:430
1675512,000000	2020-11-19T14:31:25:470
1675671,000000	2020-11-19T14:31:25:510
1675351,000000	2020-11-19T14:31:25:552
1675219,000000	2020-11-19T14:31:25:590
1674905,000000	2020-11-19T14:31:25:631
1674696,000000	2020-11-19T14:31:25:671
1675269,000000	2020-11-19T14:31:25:710
1675234,000000	2020-11-19T14:31:25:751
1675800,000000	2020-11-19T14:31:25:792
1676661,000000	2020-11-19T14:31:25:831
1677204,000000	2020-11-19T14:31:25:871
1677834,000000	2020-11-19T14:31:25:911
1678853,000000	2020-11-19T14:31:25:951
1679470,000000	2020-11-19T14:31:25:996
1679403,000000	2020-11-19T14:31:26:032
1677110,000000	2020-11-19T14:31:26:071
1673494,000000	2020-11-19T14:31:26:111
1670886,000000	2020-11-19T14:31:26:151
1670091,000000	2020-11-19T14:31:26:192
1669594,000000	2020-11-19T14:31:26:231
1669215,000000	2020-11-19T14:31:26:273
1668942,000000	2020-11-19T14:31:26:311
1668013,000000	2020-11-19T14:31:26:351
1666771,000000	2020-11-19T14:31:26:392
1665612,000000	2020-11-19T14:31:26:431
1664559,000000	2020-11-19T14:31:26:471
1663557,000000	2020-11-19T14:31:26:513
1663109,000000	2020-11-19T14:31:26:551
1662830,000000	2020-11-19T14:31:26:592
1662911,000000	2020-11-19T14:31:26:631
1662628,000000	2020-11-19T14:31:26:671
1662535,000000	2020-11-19T14:31:26:712
1662985,000000	2020-11-19T14:31:26:753
1662753,000000	2020-11-19T14:31:26:792
1661832,000000	2020-11-19T14:31:26:833
1657947,000000	2020-11-19T14:31:26:872
1654485,000000	2020-11-19T14:31:26:912
1651836,000000	2020-11-19T14:31:26:952
1649975,000000	2020-11-19T14:31:26:993
1649537,000000	2020-11-19T14:31:27:031
1648929,000000	2020-11-19T14:31:27:072
1648019,000000	2020-11-19T14:31:27:112
1647024,000000	2020-11-19T14:31:27:152
1644066,000000	2020-11-19T14:31:27:193
1643421,000000	2020-11-19T14:31:27:235
1643177,000000	2020-11-19T14:31:27:273
1642924,000000	2020-11-19T14:31:27:313
1643146,000000	2020-11-19T14:31:27:353
1642698,000000	2020-11-19T14:31:27:393
1643104,000000	2020-11-19T14:31:27:433
1642781,000000	2020-11-19T14:31:27:475
1643055,000000	2020-11-19T14:31:27:513
1643276,000000	2020-11-19T14:31:27:553
1640695,000000	2020-11-19T14:31:27:596
1636198,000000	2020-11-19T14:31:27:632
1632724,000000	2020-11-19T14:31:27:673
1631205,000000	2020-11-19T14:31:27:715
1629713,000000	2020-11-19T14:31:27:752
1629143,000000	2020-11-19T14:31:27:793
1628748,000000	2020-11-19T14:31:27:832
1627777,000000	2020-11-19T14:31:27:872
1626435,000000	2020-11-19T14:31:27:912
1624910,000000	2020-11-19T14:31:27:954
1624037,000000	2020-11-19T14:31:27:993
1623300,000000	2020-11-19T14:31:28:033
1623350,000000	2020-11-19T14:31:28:073
1623197,000000	2020-11-19T14:31:28:113
1623103,000000	2020-11-19T14:31:28:153
1623799,000000	2020-11-19T14:31:28:195
1623732,000000	2020-11-19T14:31:28:233
1624725,000000	2020-11-19T14:31:28:273
1625022,000000	2020-11-19T14:31:28:313
1623736,000000	2020-11-19T14:31:28:353
1620481,000000	2020-11-19T14:31:28:394
1617403,000000	2020-11-19T14:31:28:435
1616325,000000	2020-11-19T14:31:28:473
1615817,000000	2020-11-19T14:31:28:513
1615834,000000	2020-11-19T14:31:28:554
1615855,000000	2020-11-19T14:31:28:594
1615518,000000	2020-11-19T14:31:28:633
1614759,000000	2020-11-19T14:31:28:676
1614381,000000	2020-11-19T14:31:28:713
1613693,000000	2020-11-19T14:31:28:754
1614169,000000	2020-11-19T14:31:28:794
1614439,000000	2020-11-19T14:31:28:834
1614891,000000	2020-11-19T14:31:28:873
1615400,000000	2020-11-19T14:31:28:915
1616087,000000	2020-11-19T14:31:28:954
1616488,000000	2020-11-19T14:31:28:994
1617218,000000	2020-11-19T14:31:29:035
1618044,000000	2020-11-19T14:31:29:074
1617243,000000	2020-11-19T14:31:29:114
1614404,000000	2020-11-19T14:31:29:156
1612034,000000	2020-11-19T14:31:29:194
1610855,000000	2020-11-19T14:31:29:234
1610484,000000	2020-11-19T14:31:29:274
1610279,000000	2020-11-19T14:31:29:314
1610492,000000	2020-11-19T14:31:29:354
1610594,000000	2020-11-19T14:31:29:396
1609963,000000	2020-11-19T14:31:29:435
1609337,000000	2020-11-19T14:31:29:474
1609015,000000	2020-11-19T14:31:29:515
1608864,000000	2020-11-19T14:31:29:554
1608720,000000	2020-11-19T14:31:29:594
1608794,000000	2020-11-19T14:31:29:636
1608677,000000	2020-11-19T14:31:29:680
1608767,000000	2020-11-19T14:31:29:715
1608998,000000	2020-11-19T14:31:29:755
1609241,000000	2020-11-19T14:31:29:795
1609355,000000	2020-11-19T14:31:29:835
1607918,000000	2020-11-19T14:31:29:875
1604664,000000	2020-11-19T14:31:29:915
1601992,000000	2020-11-19T14:31:29:955
1600561,000000	2020-11-19T14:31:29:995
1599678,000000	2020-11-19T14:31:30:035
1599675,000000	2020-11-19T14:31:30:075
1599388,000000	2020-11-19T14:31:30:117
1599465,000000	2020-11-19T14:31:30:155
1598441,000000	2020-11-19T14:31:30:195
1597966,000000	2020-11-19T14:31:30:235
1597651,000000	2020-11-19T14:31:30:275
1597672,000000	2020-11-19T14:31:30:315
1597828,000000	2020-11-19T14:31:30:355
1598298,000000	2020-11-19T14:31:30:396
1598282,000000	2020-11-19T14:31:30:435
1598965,000000	2020-11-19T14:31:30:476
1599592,000000	2020-11-19T14:31:30:514
1600398,000000	2020-11-19T14:31:30:555
1601726,000000	2020-11-19T14:31:30:597
1601104,000000	2020-11-19T14:31:30:635
1599524,000000	2020-11-19T14:31:30:686
1597234,000000	2020-11-19T14:31:30:716
1596444,000000	2020-11-19T14:31:30:756
1595842,000000	2020-11-19T14:31:30:796
1596205,000000	2020-11-19T14:31:30:837
1596544,000000	2020-11-19T14:31:30:875
1596660,000000	2020-11-19T14:31:30:916
1596258,000000	2020-11-19T14:31:30:957
1596039,000000	2020-11-19T14:31:30:996
1596572,000000	2020-11-19T14:31:31:036
1596701,000000	2020-11-19T14:31:31:078
1597396,000000	2020-11-19T14:31:31:115
1597953,000000	2020-11-19T14:31:31:156
1598424,000000	2020-11-19T14:31:31:196
1599409,000000	2020-11-19T14:31:31:236
1599743,000000	2020-11-19T14:31:31:276
1600900,000000	2020-11-19T14:31:31:318
1601769,000000	2020-11-19T14:31:31:356
1602073,000000	2020-11-19T14:31:31:397
1601442,000000	2020-11-19T14:31:31:436
1599488,000000	2020-11-19T14:31:31:476
1598459,000000	2020-11-19T14:31:31:516
1597908,000000	2020-11-19T14:31:31:558
1597855,000000	2020-11-19T14:31:31:597
1598261,000000	2020-11-19T14:31:31:637
1598866,000000	2020-11-19T14:31:31:676
1599208,000000	2020-11-19T14:31:31:717
1599259,000000	2020-11-19T14:31:31:757
1599460,000000	2020-11-19T14:31:31:799
1600090,000000	2020-11-19T14:31:31:837
1600983,000000	2020-11-19T14:31:31:877
1601656,000000	2020-11-19T14:31:31:917
1602522,000000	2020-11-19T14:31:31:957
1603501,000000	2020-11-19T14:31:31:997
1604800,000000	2020-11-19T14:31:32:039
1605764,000000	2020-11-19T14:31:32:077
1607012,000000	2020-11-19T14:31:32:118
1607799,000000	2020-11-19T14:31:32:157
1608899,000000	2020-11-19T14:31:32:197
1608845,000000	2020-11-19T14:31:32:237
1607638,000000	2020-11-19T14:31:32:278
1606893,000000	2020-11-19T14:31:32:317
1606419,000000	2020-11-19T14:31:32:357
1607054,000000	2020-11-19T14:31:32:398
1607642,000000	2020-11-19T14:31:32:437
1607991,000000	2020-11-19T14:31:32:477
1608765,000000	2020-11-19T14:31:32:519
1608917,000000	2020-11-19T14:31:32:557
1609229,000000	2020-11-19T14:31:32:599
1609785,000000	2020-11-19T14:31:32:637
1610775,000000	2020-11-19T14:31:32:677
1611704,000000	2020-11-19T14:31:32:717
1613185,000000	2020-11-19T14:31:32:759
1614265,000000	2020-11-19T14:31:32:799
1615958,000000	2020-11-19T14:31:32:837
1617547,000000	2020-11-19T14:31:32:878
1619865,000000	2020-11-19T14:31:32:918
1621597,000000	2020-11-19T14:31:32:957
1623041,000000	2020-11-19T14:31:33:001
1623145,000000	2020-11-19T14:31:33:037
1623511,000000	2020-11-19T14:31:33:078
1623956,000000	2020-11-19T14:31:33:118
1625126,000000	2020-11-19T14:31:33:158
1626826,000000	2020-11-19T14:31:33:199
1628267,000000	2020-11-19T14:31:33:240
1629854,000000	2020-11-19T14:31:33:277
1631107,000000	2020-11-19T14:31:33:318
1632404,000000	2020-11-19T14:31:33:358
1633738,000000	2020-11-19T14:31:33:398
1635186,000000	2020-11-19T14:31:33:438
1636342,000000	2020-11-19T14:31:33:480
1637649,000000	2020-11-19T14:31:33:518
1639621,000000	2020-11-19T14:31:33:558
1640855,000000	2020-11-19T14:31:33:599
1642369,000000	2020-11-19T14:31:33:638
1643976,000000	2020-11-19T14:31:33:678
1645434,000000	2020-11-19T14:31:33:720
1646246,000000	2020-11-19T14:31:33:759
1645276,000000	2020-11-19T14:31:33:799
1644868,000000	2020-11-19T14:31:33:839
1644531,000000	2020-11-19T14:31:33:879
1644656,000000	2020-11-19T14:31:33:919
1645353,000000	2020-11-19T14:31:33:960
1645761,000000	2020-11-19T14:31:33:999
1646210,000000	2020-11-19T14:31:34:039
1646752,000000	2020-11-19T14:31:34:079
1646980,000000	2020-11-19T14:31:34:119
1647084,000000	2020-11-19T14:31:34:159
1647613,000000	2020-11-19T14:31:34:202
1648297,000000	2020-11-19T14:31:34:239
1648884,000000	2020-11-19T14:31:34:279
1649600,000000	2020-11-19T14:31:34:319
1650267,000000	2020-11-19T14:31:34:359
1650962,000000	2020-11-19T14:31:34:399
1651566,000000	2020-11-19T14:31:34:441
1652323,000000	2020-11-19T14:31:34:479
1653345,000000	2020-11-19T14:31:34:520
1653676,000000	2020-11-19T14:31:34:560
1652968,000000	2020-11-19T14:31:34:600
1652129,000000	2020-11-19T14:31:34:640
1651520,000000	2020-11-19T14:31:34:683
1651472,000000	2020-11-19T14:31:34:720
1651898,000000	2020-11-19T14:31:34:760
1652444,000000	2020-11-19T14:31:34:800
1653012,000000	2020-11-19T14:31:34:840
1653234,000000	2020-11-19T14:31:34:880
1653331,000000	2020-11-19T14:31:34:922
1653828,000000	2020-11-19T14:31:34:960
1654645,000000	2020-11-19T14:31:35:002
1655899,000000	2020-11-19T14:31:35:053
1656699,000000	2020-11-19T14:31:35:083
1658393,000000	2020-11-19T14:31:35:120
1659805,000000	2020-11-19T14:31:35:175
1661484,000000	2020-11-19T14:31:35:323
1663312,000000	2020-11-19T14:31:35:324
1665190,000000	2020-11-19T14:31:35:325
1666489,000000	2020-11-19T14:31:35:327
1667078,000000	2020-11-19T14:31:35:366
1666845,000000	2020-11-19T14:31:35:400
1667578,000000	2020-11-19T14:31:35:439
1668549,000000	2020-11-19T14:31:35:480
1670140,000000	2020-11-19T14:31:35:520
1672397,000000	2020-11-19T14:31:35:561
1674096,000000	2020-11-19T14:31:35:600
1676247,000000	2020-11-19T14:31:35:645
1677540,000000	2020-11-19T14:31:35:680
1679092,000000	2020-11-19T14:31:35:721
1680794,000000	2020-11-19T14:31:35:761
1682667,000000	2020-11-19T14:31:35:801
1684413,000000	2020-11-19T14:31:35:840
1686406,000000	2020-11-19T14:31:35:882
1688215,000000	2020-11-19T14:31:35:921
1690014,000000	2020-11-19T14:31:35:961
1691589,000000	2020-11-19T14:31:36:006
1693257,000000	2020-11-19T14:31:36:041
1694716,000000	2020-11-19T14:31:36:081
1694635,000000	2020-11-19T14:31:36:123
1693523,000000	2020-11-19T14:31:36:161
1692543,000000	2020-11-19T14:31:36:201
1692435,000000	2020-11-19T14:31:36:241
1692618,000000	2020-11-19T14:31:36:281
1692937,000000	2020-11-19T14:31:36:321
1693526,000000	2020-11-19T14:31:36:363
1694552,000000	2020-11-19T14:31:36:401
1694432,000000	2020-11-19T14:31:36:441
1694591,000000	2020-11-19T14:31:36:482
1694955,000000	2020-11-19T14:31:36:521
1695526,000000	2020-11-19T14:31:36:562
1695420,000000	2020-11-19T14:31:36:605
1695706,000000	2020-11-19T14:31:36:641
1695545,000000	2020-11-19T14:31:36:681
1695745,000000	2020-11-19T14:31:36:722
1695924,000000	2020-11-19T14:31:36:762
1695881,000000	2020-11-19T14:31:36:802
1696139,000000	2020-11-19T14:31:36:845
1696104,000000	2020-11-19T14:31:36:882
1694059,000000	2020-11-19T14:31:36:921
1691217,000000	2020-11-19T14:31:36:962
1688681,000000	2020-11-19T14:31:37:003
1687457,000000	2020-11-19T14:31:37:041
1686311,000000	2020-11-19T14:31:37:084
1685854,000000	2020-11-19T14:31:37:123
1685092,000000	2020-11-19T14:31:37:162
1683311,000000	2020-11-19T14:31:37:202
1681791,000000	2020-11-19T14:31:37:242
1680885,000000	2020-11-19T14:31:37:282
1679982,000000	2020-11-19T14:31:37:324
1679268,000000	2020-11-19T14:31:37:362
1678913,000000	2020-11-19T14:31:37:402
1678605,000000	2020-11-19T14:31:37:442
1678011,000000	2020-11-19T14:31:37:482
1677743,000000	2020-11-19T14:31:37:522
1677351,000000	2020-11-19T14:31:37:564
1677135,000000	2020-11-19T14:31:37:603
1676865,000000	2020-11-19T14:31:37:642
1675746,000000	2020-11-19T14:31:37:683
1673199,000000	2020-11-19T14:31:37:722
1670301,000000	2020-11-19T14:31:37:762
1668410,000000	2020-11-19T14:31:37:805
1666363,000000	2020-11-19T14:31:37:857
1665802,000000	2020-11-19T14:31:37:883
1665397,000000	2020-11-19T14:31:37:923
1665013,000000	2020-11-19T14:31:37:962
1664590,000000	2020-11-19T14:31:38:003
1663721,000000	2020-11-19T14:31:38:044
1663470,000000	2020-11-19T14:31:38:083
1663353,000000	2020-11-19T14:31:38:123
1663598,000000	2020-11-19T14:31:38:162
1664071,000000	2020-11-19T14:31:38:203
1664657,000000	2020-11-19T14:31:38:243
1665505,000000	2020-11-19T14:31:38:284
1666258,000000	2020-11-19T14:31:38:322
1666978,000000	2020-11-19T14:31:38:363
1667957,000000	2020-11-19T14:31:38:404
1668230,000000	2020-11-19T14:31:38:443
1666818,000000	2020-11-19T14:31:38:483
1664535,000000	2020-11-19T14:31:38:523
1662936,000000	2020-11-19T14:31:38:563
1662120,000000	2020-11-19T14:31:38:604
1661824,000000	2020-11-19T14:31:38:644
1661561,000000	2020-11-19T14:31:38:683
1661445,000000	2020-11-19T14:31:38:724
1660970,000000	2020-11-19T14:31:38:765
1660234,000000	2020-11-19T14:31:38:804
1659889,000000	2020-11-19T14:31:38:844
1659785,000000	2020-11-19T14:31:38:884
1659654,000000	2020-11-19T14:31:38:923
1660049,000000	2020-11-19T14:31:38:964
1660299,000000	2020-11-19T14:31:39:004
1660677,000000	2020-11-19T14:31:39:044
1660948,000000	2020-11-19T14:31:39:084
1661321,000000	2020-11-19T14:31:39:123
1661393,000000	2020-11-19T14:31:39:164
1661707,000000	2020-11-19T14:31:39:204
1660192,000000	2020-11-19T14:31:39:245
1657291,000000	2020-11-19T14:31:39:284
1654162,000000	2020-11-19T14:31:39:323
1652529,000000	2020-11-19T14:31:39:364
1650903,000000	2020-11-19T14:31:39:404
1649977,000000	2020-11-19T14:31:39:443
1649147,000000	2020-11-19T14:31:39:485
1648225,000000	2020-11-19T14:31:39:524
1646861,000000	2020-11-19T14:31:39:564
1645180,000000	2020-11-19T14:31:39:604
1643913,000000	2020-11-19T14:31:39:644
1642706,000000	2020-11-19T14:31:39:684
1642046,000000	2020-11-19T14:31:39:726
1641397,000000	2020-11-19T14:31:39:764
1640598,000000	2020-11-19T14:31:39:804
1639942,000000	2020-11-19T14:31:39:844
1639310,000000	2020-11-19T14:31:39:884
1638965,000000	2020-11-19T14:31:39:924
1638679,000000	2020-11-19T14:31:39:965
1637793,000000	2020-11-19T14:31:40:005
1636568,000000	2020-11-19T14:31:40:045
1633563,000000	2020-11-19T14:31:40:085
1629947,000000	2020-11-19T14:31:40:125
1627500,000000	2020-11-19T14:31:40:164
1625527,000000	2020-11-19T14:31:40:207
1624480,000000	2020-11-19T14:31:40:245
1623574,000000	2020-11-19T14:31:40:285
1622619,000000	2020-11-19T14:31:40:325
1621674,000000	2020-11-19T14:31:40:388
1620394,000000	2020-11-19T14:31:40:405
1619032,000000	2020-11-19T14:31:40:447
1618748,000000	2020-11-19T14:31:40:485
1618869,000000	2020-11-19T14:31:40:525
1619073,000000	2020-11-19T14:31:40:565
1619372,000000	2020-11-19T14:31:40:605
1619798,000000	2020-11-19T14:31:40:645
1620186,000000	2020-11-19T14:31:40:687
1621437,000000	2020-11-19T14:31:40:725
1622551,000000	2020-11-19T14:31:40:765
1623415,000000	2020-11-19T14:31:40:806
1622769,000000	2020-11-19T14:31:40:845
1620811,000000	2020-11-19T14:31:40:885
1619381,000000	2020-11-19T14:31:40:927
1618773,000000	2020-11-19T14:31:40:965
1618847,000000	2020-11-19T14:31:41:006
1619516,000000	2020-11-19T14:31:41:045
1620187,000000	2020-11-19T14:31:41:086
1620766,000000	2020-11-19T14:31:41:126
1620779,000000	2020-11-19T14:31:41:167
1621061,000000	2020-11-19T14:31:41:205
1621670,000000	2020-11-19T14:31:41:245
1622229,000000	2020-11-19T14:31:41:286
1622974,000000	2020-11-19T14:31:41:326
1623928,000000	2020-11-19T14:31:41:366
1624900,000000	2020-11-19T14:31:41:408
1626008,000000	2020-11-19T14:31:41:446
1626930,000000	2020-11-19T14:31:41:485
1627773,000000	2020-11-19T14:31:41:526
1628502,000000	2020-11-19T14:31:41:566
1628833,000000	2020-11-19T14:31:41:607
1627319,000000	2020-11-19T14:31:41:648
1625120,000000	2020-11-19T14:31:41:686
1623636,000000	2020-11-19T14:31:41:726
1622403,000000	2020-11-19T14:31:41:766
1622361,000000	2020-11-19T14:31:41:807
1622302,000000	2020-11-19T14:31:41:847
1622190,000000	2020-11-19T14:31:41:888
1622040,000000	2020-11-19T14:31:41:927
1621959,000000	2020-11-19T14:31:41:966
1621614,000000	2020-11-19T14:31:42:007
1621955,000000	2020-11-19T14:31:42:046
1622363,000000	2020-11-19T14:31:42:087
1622563,000000	2020-11-19T14:31:42:129
1623446,000000	2020-11-19T14:31:42:166
1623766,000000	2020-11-19T14:31:42:207
1624414,000000	2020-11-19T14:31:42:247
1624660,000000	2020-11-19T14:31:42:286
1624796,000000	2020-11-19T14:31:42:326
1625019,000000	2020-11-19T14:31:42:369
1624799,000000	2020-11-19T14:31:42:407
1622741,000000	2020-11-19T14:31:42:447
1619879,000000	2020-11-19T14:31:42:487
1617653,000000	2020-11-19T14:31:42:527
1616565,000000	2020-11-19T14:31:42:567
1615421,000000	2020-11-19T14:31:42:609
1615267,000000	2020-11-19T14:31:42:647
1614778,000000	2020-11-19T14:31:42:687
1614035,000000	2020-11-19T14:31:42:727
1613202,000000	2020-11-19T14:31:42:767
1612500,000000	2020-11-19T14:31:42:808
1611844,000000	2020-11-19T14:31:42:849
1611988,000000	2020-11-19T14:31:42:887
1611759,000000	2020-11-19T14:31:42:928
1612027,000000	2020-11-19T14:31:42:968
1611917,000000	2020-11-19T14:31:43:008
1612676,000000	2020-11-19T14:31:43:048
1613358,000000	2020-11-19T14:31:43:090
1613659,000000	2020-11-19T14:31:43:127
1614742,000000	2020-11-19T14:31:43:168
1614622,000000	2020-11-19T14:31:43:208
1613452,000000	2020-11-19T14:31:43:248
1612175,000000	2020-11-19T14:31:43:288
1611489,000000	2020-11-19T14:31:43:329
1611678,000000	2020-11-19T14:31:43:368
1612351,000000	2020-11-19T14:31:43:408
1613125,000000	2020-11-19T14:31:43:448
1614701,000000	2020-11-19T14:31:43:488
1615779,000000	2020-11-19T14:31:43:528
1616602,000000	2020-11-19T14:31:43:570
1617890,000000	2020-11-19T14:31:43:608
1619633,000000	2020-11-19T14:31:43:648
1620963,000000	2020-11-19T14:31:43:689
1623140,000000	2020-11-19T14:31:43:727
1624656,000000	2020-11-19T14:31:43:768
1627090,000000	2020-11-19T14:31:43:811
1628613,000000	2020-11-19T14:31:43:848
1630761,000000	2020-11-19T14:31:43:888
1632655,000000	2020-11-19T14:31:43:929
1634212,000000	2020-11-19T14:31:43:968
1634380,000000	2020-11-19T14:31:44:009
1634124,000000	2020-11-19T14:31:44:050
1633824,000000	2020-11-19T14:31:44:089
1634018,000000	2020-11-19T14:31:44:129
1634551,000000	2020-11-19T14:31:44:169
1635389,000000	2020-11-19T14:31:44:208
1636603,000000	2020-11-19T14:31:44:249
1637342,000000	2020-11-19T14:31:44:291
1637816,000000	2020-11-19T14:31:44:329
1638258,000000	2020-11-19T14:31:44:369
1638937,000000	2020-11-19T14:31:44:409
1639977,000000	2020-11-19T14:31:44:449
1640614,000000	2020-11-19T14:31:44:489
1641854,000000	2020-11-19T14:31:44:531
1642570,000000	2020-11-19T14:31:44:569
1643662,000000	2020-11-19T14:31:44:609
1644780,000000	2020-11-19T14:31:44:649
1645855,000000	2020-11-19T14:31:44:689
1646470,000000	2020-11-19T14:31:44:729
1646453,000000	2020-11-19T14:31:44:771
1645250,000000	2020-11-19T14:31:44:809
1644206,000000	2020-11-19T14:31:44:849
1643464,000000	2020-11-19T14:31:44:889
1643056,000000	2020-11-19T14:31:44:929
1643448,000000	2020-11-19T14:31:44:969
1643230,000000	2020-11-19T14:31:45:012
1643560,000000	2020-11-19T14:31:45:049
1643515,000000	2020-11-19T14:31:45:090
1642973,000000	2020-11-19T14:31:45:130
1642959,000000	2020-11-19T14:31:45:170
1643054,000000	2020-11-19T14:31:45:210
1642966,000000	2020-11-19T14:31:45:251
1643262,000000	2020-11-19T14:31:45:290
1643553,000000	2020-11-19T14:31:45:330
1643737,000000	2020-11-19T14:31:45:374
1643965,000000	2020-11-19T14:31:45:410
1644486,000000	2020-11-19T14:31:45:449
1644422,000000	2020-11-19T14:31:45:491
1644360,000000	2020-11-19T14:31:45:530
1642637,000000	2020-11-19T14:31:45:570
1640918,000000	2020-11-19T14:31:45:610
1639610,000000	2020-11-19T14:31:45:650
1638606,000000	2020-11-19T14:31:45:690
1638259,000000	2020-11-19T14:31:45:731
1637992,000000	2020-11-19T14:31:45:771
1638006,000000	2020-11-19T14:31:45:810
1637476,000000	2020-11-19T14:31:45:851
1636873,000000	2020-11-19T14:31:45:891
1636767,000000	2020-11-19T14:31:45:931
1636602,000000	2020-11-19T14:31:45:972
1636725,000000	2020-11-19T14:31:46:012
1637097,000000	2020-11-19T14:31:46:051
1637666,000000	2020-11-19T14:31:46:091
1637971,000000	2020-11-19T14:31:46:131
1639315,000000	2020-11-19T14:31:46:171
1640563,000000	2020-11-19T14:31:46:213
1641693,000000	2020-11-19T14:31:46:250
1641900,000000	2020-11-19T14:31:46:290
1641419,000000	2020-11-19T14:31:46:331
1640926,000000	2020-11-19T14:31:46:371
1640945,000000	2020-11-19T14:31:46:411
1641340,000000	2020-11-19T14:31:46:452
1642009,000000	2020-11-19T14:31:46:490
1642729,000000	2020-11-19T14:31:46:531
1643842,000000	2020-11-19T14:31:46:570
1644649,000000	2020-11-19T14:31:46:611
1645442,000000	2020-11-19T14:31:46:651
1646828,000000	2020-11-19T14:31:46:692
1648255,000000	2020-11-19T14:31:46:730
1650106,000000	2020-11-19T14:31:46:771
1654170,000000	2020-11-19T14:31:46:812
1656874,000000	2020-11-19T14:31:46:852
1659435,000000	2020-11-19T14:31:46:892
1663342,000000	2020-11-19T14:31:46:933
1669261,000000	2020-11-19T14:31:46:972
1675059,000000	2020-11-19T14:31:47:011
1680699,000000	2020-11-19T14:31:47:053
1687475,000000	2020-11-19T14:31:47:093
1695167,000000	2020-11-19T14:31:47:133
1703801,000000	2020-11-19T14:31:47:174
1714294,000000	2020-11-19T14:31:47:212
1725883,000000	2020-11-19T14:31:47:252
1738317,000000	2020-11-19T14:31:47:291
1752045,000000	2020-11-19T14:31:47:332
1766889,000000	2020-11-19T14:31:47:371
1782870,000000	2020-11-19T14:31:47:415
1801155,000000	2020-11-19T14:31:47:452
1818131,000000	2020-11-19T14:31:47:492
1833003,000000	2020-11-19T14:31:47:531
1845273,000000	2020-11-19T14:31:47:572
1853934,000000	2020-11-19T14:31:47:613
1861491,000000	2020-11-19T14:31:47:654
1870446,000000	2020-11-19T14:31:47:692
1879980,000000	2020-11-19T14:31:47:732
1887100,000000	2020-11-19T14:31:47:773
1891845,000000	2020-11-19T14:31:47:813
1893431,000000	2020-11-19T14:31:47:853
1894960,000000	2020-11-19T14:31:47:894
1897600,000000	2020-11-19T14:31:47:932
1900964,000000	2020-11-19T14:31:47:972
1902742,000000	2020-11-19T14:31:48:013
1905231,000000	2020-11-19T14:31:48:053
1906942,000000	2020-11-19T14:31:48:098
1909181,000000	2020-11-19T14:31:48:136
1911511,000000	2020-11-19T14:31:48:174
1915938,000000	2020-11-19T14:31:48:215
1919791,000000	2020-11-19T14:31:48:254
1924523,000000	2020-11-19T14:31:48:294
1928846,000000	2020-11-19T14:31:48:334
1933371,000000	2020-11-19T14:31:48:376
1937827,000000	2020-11-19T14:31:48:414
1942046,000000	2020-11-19T14:31:48:454
1946019,000000	2020-11-19T14:31:48:495
1950294,000000	2020-11-19T14:31:48:534
1953707,000000	2020-11-19T14:31:48:574
1956286,000000	2020-11-19T14:31:48:617
1957375,000000	2020-11-19T14:31:48:655
1958003,000000	2020-11-19T14:31:48:695
1960071,000000	2020-11-19T14:31:48:734
1961950,000000	2020-11-19T14:31:48:775
1964127,000000	2020-11-19T14:31:48:815
1966367,000000	2020-11-19T14:31:48:856
1967776,000000	2020-11-19T14:31:48:894
1969028,000000	2020-11-19T14:31:48:934
1970273,000000	2020-11-19T14:31:48:975
1971443,000000	2020-11-19T14:31:49:015
1972383,000000	2020-11-19T14:31:49:055
1974303,000000	2020-11-19T14:31:49:096
1975955,000000	2020-11-19T14:31:49:135
1977912,000000	2020-11-19T14:31:49:175
1979862,000000	2020-11-19T14:31:49:215
1982045,000000	2020-11-19T14:31:49:256
1984249,000000	2020-11-19T14:31:49:295
1986791,000000	2020-11-19T14:31:49:337
1987479,000000	2020-11-19T14:31:49:375
1986957,000000	2020-11-19T14:31:49:415
1986620,000000	2020-11-19T14:31:49:455
1986952,000000	2020-11-19T14:31:49:495
1988260,000000	2020-11-19T14:31:49:535
1989806,000000	2020-11-19T14:31:49:576
1991890,000000	2020-11-19T14:31:49:616
1993248,000000	2020-11-19T14:31:49:655
1993936,000000	2020-11-19T14:31:49:695
1994724,000000	2020-11-19T14:31:49:735
1995833,000000	2020-11-19T14:31:49:775
1996539,000000	2020-11-19T14:31:49:817
1997998,000000	2020-11-19T14:31:49:855
1999656,000000	2020-11-19T14:31:49:896
2000858,000000	2020-11-19T14:31:49:936
2002688,000000	2020-11-19T14:31:49:976
2004189,000000	2020-11-19T14:31:50:016
2005923,000000	2020-11-19T14:31:50:056
2008296,000000	2020-11-19T14:31:50:096
2008859,000000	2020-11-19T14:31:50:136
2007865,000000	2020-11-19T14:31:50:176
2007548,000000	2020-11-19T14:31:50:216
2007248,000000	2020-11-19T14:31:50:256
2008105,000000	2020-11-19T14:31:50:297
2009306,000000	2020-11-19T14:31:50:336
2010550,000000	2020-11-19T14:31:50:400
2011990,000000	2020-11-19T14:31:50:416
2012928,000000	2020-11-19T14:31:50:456
2013763,000000	2020-11-19T14:31:50:496
2014699,000000	2020-11-19T14:31:50:538
2015568,000000	2020-11-19T14:31:50:577
2017307,000000	2020-11-19T14:31:50:616
2018474,000000	2020-11-19T14:31:50:656
2020269,000000	2020-11-19T14:31:50:696
2021895,000000	2020-11-19T14:31:50:736
2023502,000000	2020-11-19T14:31:50:778
2025094,000000	2020-11-19T14:31:50:817
2026457,000000	2020-11-19T14:31:50:856
2027529,000000	2020-11-19T14:31:50:896
2026252,000000	2020-11-19T14:31:50:936
2024738,000000	2020-11-19T14:31:50:976
2023947,000000	2020-11-19T14:31:51:018
2023829,000000	2020-11-19T14:31:51:056
2024121,000000	2020-11-19T14:31:51:097
2025083,000000	2020-11-19T14:31:51:137
2025788,000000	2020-11-19T14:31:51:177
2026905,000000	2020-11-19T14:31:51:217
2026639,000000	2020-11-19T14:31:51:258
2026683,000000	2020-11-19T14:31:51:297
2027580,000000	2020-11-19T14:31:51:337
2027447,000000	2020-11-19T14:31:51:377
2028387,000000	2020-11-19T14:31:51:417
2029594,000000	2020-11-19T14:31:51:457
2030189,000000	2020-11-19T14:31:51:499
2031409,000000	2020-11-19T14:31:51:537
2032725,000000	2020-11-19T14:31:51:577
2033817,000000	2020-11-19T14:31:51:618
2034541,000000	2020-11-19T14:31:51:657
2033160,000000	2020-11-19T14:31:51:697
2031424,000000	2020-11-19T14:31:51:739
2029379,000000	2020-11-19T14:31:51:779
2027825,000000	2020-11-19T14:31:51:817
2027343,000000	2020-11-19T14:31:51:857
2027092,000000	2020-11-19T14:31:51:897
2026733,000000	2020-11-19T14:31:51:937
2026782,000000	2020-11-19T14:31:51:979
2025660,000000	2020-11-19T14:31:52:018
2025354,000000	2020-11-19T14:31:52:057
2024747,000000	2020-11-19T14:31:52:098
2024725,000000	2020-11-19T14:31:52:138
2025180,000000	2020-11-19T14:31:52:178
2025166,000000	2020-11-19T14:31:52:219
2025694,000000	2020-11-19T14:31:52:258
2026027,000000	2020-11-19T14:31:52:298
2026983,000000	2020-11-19T14:31:52:338
2027547,000000	2020-11-19T14:31:52:378
2027711,000000	2020-11-19T14:31:52:418
2025730,000000	2020-11-19T14:31:52:459
2023114,000000	2020-11-19T14:31:52:498
2021335,000000	2020-11-19T14:31:52:538
2020353,000000	2020-11-19T14:31:52:578
2019718,000000	2020-11-19T14:31:52:618
2020139,000000	2020-11-19T14:31:52:658
2020091,000000	2020-11-19T14:31:52:700
2019860,000000	2020-11-19T14:31:52:738
2019356,000000	2020-11-19T14:31:52:778
2018852,000000	2020-11-19T14:31:52:819
2018563,000000	2020-11-19T14:31:52:858
2018518,000000	2020-11-19T14:31:52:898
2018175,000000	2020-11-19T14:31:52:940
2018459,000000	2020-11-19T14:31:52:979
2019144,000000	2020-11-19T14:31:53:019
2019818,000000	2020-11-19T14:31:53:058
2020604,000000	2020-11-19T14:31:53:099
2021565,000000	2020-11-19T14:31:53:138
2022046,000000	2020-11-19T14:31:53:181
2020727,000000	2020-11-19T14:31:53:218
2018405,000000	2020-11-19T14:31:53:259
2016054,000000	2020-11-19T14:31:53:299
2014984,000000	2020-11-19T14:31:53:339
2014210,000000	2020-11-19T14:31:53:378
2014412,000000	2020-11-19T14:31:53:420
2014331,000000	2020-11-19T14:31:53:459
2013868,000000	2020-11-19T14:31:53:499
2013466,000000	2020-11-19T14:31:53:539
2012719,000000	2020-11-19T14:31:53:578
2012124,000000	2020-11-19T14:31:53:619
2012279,000000	2020-11-19T14:31:53:661
2012447,000000	2020-11-19T14:31:53:699
2012173,000000	2020-11-19T14:31:53:739
2012872,000000	2020-11-19T14:31:53:779
2013406,000000	2020-11-19T14:31:53:820
2013621,000000	2020-11-19T14:31:53:859
2014137,000000	2020-11-19T14:31:53:901
2014293,000000	2020-11-19T14:31:53:939
2012970,000000	2020-11-19T14:31:53:979
2010033,000000	2020-11-19T14:31:54:020
2006426,000000	2020-11-19T14:31:54:058
2004471,000000	2020-11-19T14:31:54:100
2004170,000000	2020-11-19T14:31:54:141
2002630,000000	2020-11-19T14:31:54:179
2002458,000000	2020-11-19T14:31:54:220
2002239,000000	2020-11-19T14:31:54:259
2001026,000000	2020-11-19T14:31:54:299
2000186,000000	2020-11-19T14:31:54:340
1999236,000000	2020-11-19T14:31:54:381
1998627,000000	2020-11-19T14:31:54:420
1998552,000000	2020-11-19T14:31:54:459
1998384,000000	2020-11-19T14:31:54:500
1998322,000000	2020-11-19T14:31:54:540
1998686,000000	2020-11-19T14:31:54:580
1998995,000000	2020-11-19T14:31:54:622
1998813,000000	2020-11-19T14:31:54:660
1998489,000000	2020-11-19T14:31:54:700
1995309,000000	2020-11-19T14:31:54:740
1991745,000000	2020-11-19T14:31:54:780
1988118,000000	2020-11-19T14:31:54:821
1986301,000000	2020-11-19T14:31:54:863
1983795,000000	2020-11-19T14:31:54:900
1983023,000000	2020-11-19T14:31:54:940
1981850,000000	2020-11-19T14:31:54:980
1980805,000000	2020-11-19T14:31:55:020
1978454,000000	2020-11-19T14:31:55:060
1976865,000000	2020-11-19T14:31:55:104
1975251,000000	2020-11-19T14:31:55:140
1974370,000000	2020-11-19T14:31:55:180
1974051,000000	2020-11-19T14:31:55:221
1973880,000000	2020-11-19T14:31:55:261
1973961,000000	2020-11-19T14:31:55:301
1973910,000000	2020-11-19T14:31:55:343
1974535,000000	2020-11-19T14:31:55:380
1974654,000000	2020-11-19T14:31:55:421
1974080,000000	2020-11-19T14:31:55:461
1970789,000000	2020-11-19T14:31:55:501
1966871,000000	2020-11-19T14:31:55:541
1964129,000000	2020-11-19T14:31:55:583
1962163,000000	2020-11-19T14:31:55:621
1960854,000000	2020-11-19T14:31:55:661
1959650,000000	2020-11-19T14:31:55:701
1958680,000000	2020-11-19T14:31:55:741
1957606,000000	2020-11-19T14:31:55:781
1955835,000000	2020-11-19T14:31:55:824
1954685,000000	2020-11-19T14:31:55:861
1953400,000000	2020-11-19T14:31:55:901
1952725,000000	2020-11-19T14:31:55:941
1952540,000000	2020-11-19T14:31:55:981
1952538,000000	2020-11-19T14:31:56:022
1952444,000000	2020-11-19T14:31:56:063
1952743,000000	2020-11-19T14:31:56:102
1952756,000000	2020-11-19T14:31:56:142
1953290,000000	2020-11-19T14:31:56:182
1952783,000000	2020-11-19T14:31:56:222
1950450,000000	2020-11-19T14:31:56:262
1946491,000000	2020-11-19T14:31:56:303
1943341,000000	2020-11-19T14:31:56:342
1941223,000000	2020-11-19T14:31:56:382
1939385,000000	2020-11-19T14:31:56:422
1939146,000000	2020-11-19T14:31:56:462
1938085,000000	2020-11-19T14:31:56:501
1937099,000000	2020-11-19T14:31:56:543
1935808,000000	2020-11-19T14:31:56:582
1934451,000000	2020-11-19T14:31:56:622
1933194,000000	2020-11-19T14:31:56:662
1932806,000000	2020-11-19T14:31:56:702
1932449,000000	2020-11-19T14:31:56:742
1932071,000000	2020-11-19T14:31:56:784
1932015,000000	2020-11-19T14:31:56:823
1931613,000000	2020-11-19T14:31:56:862
1931648,000000	2020-11-19T14:31:56:902
1931767,000000	2020-11-19T14:31:56:942
1930592,000000	2020-11-19T14:31:56:982
1927327,000000	2020-11-19T14:31:57:023
1923232,000000	2020-11-19T14:31:57:062
1920715,000000	2020-11-19T14:31:57:103
1919059,000000	2020-11-19T14:31:57:143
1917818,000000	2020-11-19T14:31:57:182
1917128,000000	2020-11-19T14:31:57:223
1916159,000000	2020-11-19T14:31:57:264
1914804,000000	2020-11-19T14:31:57:303
1913523,000000	2020-11-19T14:31:57:343
1912261,000000	2020-11-19T14:31:57:383
1911246,000000	2020-11-19T14:31:57:423
1910747,000000	2020-11-19T14:31:57:463
1910561,000000	2020-11-19T14:31:57:504
1910427,000000	2020-11-19T14:31:57:543
1910407,000000	2020-11-19T14:31:57:583
1910534,000000	2020-11-19T14:31:57:623
1910954,000000	2020-11-19T14:31:57:663
1911441,000000	2020-11-19T14:31:57:703
1911145,000000	2020-11-19T14:31:57:745
1907772,000000	2020-11-19T14:31:57:783
1904047,000000	2020-11-19T14:31:57:824
1900924,000000	2020-11-19T14:31:57:863
1898782,000000	2020-11-19T14:31:57:903
1897336,000000	2020-11-19T14:31:57:943
1896806,000000	2020-11-19T14:31:57:985
1896109,000000	2020-11-19T14:31:58:024
1894645,000000	2020-11-19T14:31:58:063
1893214,000000	2020-11-19T14:31:58:104
1892253,000000	2020-11-19T14:31:58:143
1891413,000000	2020-11-19T14:31:58:183
1890731,000000	2020-11-19T14:31:58:225
1890767,000000	2020-11-19T14:31:58:263
1890663,000000	2020-11-19T14:31:58:327
1890885,000000	2020-11-19T14:31:58:343
1891047,000000	2020-11-19T14:31:58:384
1891484,000000	2020-11-19T14:31:58:425
1891725,000000	2020-11-19T14:31:58:464
1892225,000000	2020-11-19T14:31:58:503
1889939,000000	2020-11-19T14:31:58:543
1886306,000000	2020-11-19T14:31:58:583
1882605,000000	2020-11-19T14:31:58:623
1880383,000000	2020-11-19T14:31:58:663
1879059,000000	2020-11-19T14:31:58:704
1878420,000000	2020-11-19T14:31:58:743
1878073,000000	2020-11-19T14:31:58:783
1877133,000000	2020-11-19T14:31:58:824
1875765,000000	2020-11-19T14:31:58:863
1874841,000000	2020-11-19T14:31:58:903
1874380,000000	2020-11-19T14:31:58:945
1873463,000000	2020-11-19T14:31:58:983
1873732,000000	2020-11-19T14:31:59:023
1873886,000000	2020-11-19T14:31:59:063
1874102,000000	2020-11-19T14:31:59:104
1874214,000000	2020-11-19T14:31:59:143
1874698,000000	2020-11-19T14:31:59:185
1875659,000000	2020-11-19T14:31:59:224
1876113,000000	2020-11-19T14:31:59:263
1875265,000000	2020-11-19T14:31:59:303
1872142,000000	2020-11-19T14:31:59:343
1868636,000000	2020-11-19T14:31:59:383
1866409,000000	2020-11-19T14:31:59:425
1865119,000000	2020-11-19T14:31:59:463
1864139,000000	2020-11-19T14:31:59:503
1864310,000000	2020-11-19T14:31:59:544
1863753,000000	2020-11-19T14:31:59:583
1862662,000000	2020-11-19T14:31:59:624
1861417,000000	2020-11-19T14:31:59:665
1861202,000000	2020-11-19T14:31:59:704
1860502,000000	2020-11-19T14:31:59:743
1860811,000000	2020-11-19T14:31:59:783
1861202,000000	2020-11-19T14:31:59:824
1861541,000000	2020-11-19T14:31:59:864
1862220,000000	2020-11-19T14:31:59:906
1863839,000000	2020-11-19T14:31:59:944
1864760,000000	2020-11-19T14:31:59:985
1865229,000000	2020-11-19T14:32:00:025
1865873,000000	2020-11-19T14:32:00:065
1864226,000000	2020-11-19T14:32:00:105
1860628,000000	2020-11-19T14:32:00:147
1857898,000000	2020-11-19T14:32:00:185
1856159,000000	2020-11-19T14:32:00:224
1855167,000000	2020-11-19T14:32:00:265
1854943,000000	2020-11-19T14:32:00:305
1855066,000000	2020-11-19T14:32:00:344
1854261,000000	2020-11-19T14:32:00:409
1853278,000000	2020-11-19T14:32:00:425
1852854,000000	2020-11-19T14:32:00:465
1852650,000000	2020-11-19T14:32:00:505
1852938,000000	2020-11-19T14:32:00:545
1852926,000000	2020-11-19T14:32:00:584
1853362,000000	2020-11-19T14:32:00:627
1854511,000000	2020-11-19T14:32:00:665
1854966,000000	2020-11-19T14:32:00:705
1855827,000000	2020-11-19T14:32:00:745
1856095,000000	2020-11-19T14:32:00:785
1857177,000000	2020-11-19T14:32:00:825
1858313,000000	2020-11-19T14:32:00:867
1857415,000000	2020-11-19T14:32:00:905
1854439,000000	2020-11-19T14:32:00:945
1850899,000000	2020-11-19T14:32:00:985
1849234,000000	2020-11-19T14:32:01:026
1848137,000000	2020-11-19T14:32:01:065
1847797,000000	2020-11-19T14:32:01:107
1847968,000000	2020-11-19T14:32:01:145
1847561,000000	2020-11-19T14:32:01:186
1847069,000000	2020-11-19T14:32:01:226
1846901,000000	2020-11-19T14:32:01:265
1846422,000000	2020-11-19T14:32:01:305
1846550,000000	2020-11-19T14:32:01:349
1847258,000000	2020-11-19T14:32:01:385
1847589,000000	2020-11-19T14:32:01:426
1848905,000000	2020-11-19T14:32:01:466
1849691,000000	2020-11-19T14:32:01:505
1851176,000000	2020-11-19T14:32:01:546
1852055,000000	2020-11-19T14:32:01:589
1853286,000000	2020-11-19T14:32:01:625
1854701,000000	2020-11-19T14:32:01:666
1855590,000000	2020-11-19T14:32:01:707
1854025,000000	2020-11-19T14:32:01:746
1850770,000000	2020-11-19T14:32:01:786
1848965,000000	2020-11-19T14:32:01:828
1847945,000000	2020-11-19T14:32:01:866
1847752,000000	2020-11-19T14:32:01:906
1848753,000000	2020-11-19T14:32:01:946
1849092,000000	2020-11-19T14:32:01:985
1848996,000000	2020-11-19T14:32:02:027
1848346,000000	2020-11-19T14:32:02:068
1848331,000000	2020-11-19T14:32:02:106
1848610,000000	2020-11-19T14:32:02:147
1849621,000000	2020-11-19T14:32:02:186
1850081,000000	2020-11-19T14:32:02:226
1851503,000000	2020-11-19T14:32:02:266
1852755,000000	2020-11-19T14:32:02:307
1854053,000000	2020-11-19T14:32:02:346
1855045,000000	2020-11-19T14:32:02:388
1856274,000000	2020-11-19T14:32:02:427
1858010,000000	2020-11-19T14:32:02:467
1858776,000000	2020-11-19T14:32:02:507
1857311,000000	2020-11-19T14:32:02:548
1855052,000000	2020-11-19T14:32:02:587
1852855,000000	2020-11-19T14:32:02:627
1851995,000000	2020-11-19T14:32:02:667
1852291,000000	2020-11-19T14:32:02:707
1852622,000000	2020-11-19T14:32:02:747
1853866,000000	2020-11-19T14:32:02:788
1853738,000000	2020-11-19T14:32:02:827
1853384,000000	2020-11-19T14:32:02:866
1853557,000000	2020-11-19T14:32:02:906
1853490,000000	2020-11-19T14:32:02:946
1853678,000000	2020-11-19T14:32:02:986
1854945,000000	2020-11-19T14:32:03:029
1856043,000000	2020-11-19T14:32:03:067
1856984,000000	2020-11-19T14:32:03:107
1858462,000000	2020-11-19T14:32:03:147
1859741,000000	2020-11-19T14:32:03:187
1860938,000000	2020-11-19T14:32:03:227
1862192,000000	2020-11-19T14:32:03:267
1863856,000000	2020-11-19T14:32:03:307
1862038,000000	2020-11-19T14:32:03:347
1859229,000000	2020-11-19T14:32:03:388
1856800,000000	2020-11-19T14:32:03:428
1855867,000000	2020-11-19T14:32:03:468
1855431,000000	2020-11-19T14:32:03:509
1856078,000000	2020-11-19T14:32:03:548
1856112,000000	2020-11-19T14:32:03:588
1856180,000000	2020-11-19T14:32:03:628
1855790,000000	2020-11-19T14:32:03:668
1855408,000000	2020-11-19T14:32:03:708
1855485,000000	2020-11-19T14:32:03:749
1855887,000000	2020-11-19T14:32:03:788
1856623,000000	2020-11-19T14:32:03:828
1857635,000000	2020-11-19T14:32:03:868
1858422,000000	2020-11-19T14:32:03:908
1859997,000000	2020-11-19T14:32:03:948
1861027,000000	2020-11-19T14:32:03:990
1862111,000000	2020-11-19T14:32:04:029
1863318,000000	2020-11-19T14:32:04:068
1864295,000000	2020-11-19T14:32:04:109
1862132,000000	2020-11-19T14:32:04:148
1859221,000000	2020-11-19T14:32:04:188
1856614,000000	2020-11-19T14:32:04:230
1855853,000000	2020-11-19T14:32:04:268
1855167,000000	2020-11-19T14:32:04:308
1855632,000000	2020-11-19T14:32:04:348
1855895,000000	2020-11-19T14:32:04:388
1855677,000000	2020-11-19T14:32:04:429
1855126,000000	2020-11-19T14:32:04:470
1854733,000000	2020-11-19T14:32:04:509
1854814,000000	2020-11-19T14:32:04:549
1855083,000000	2020-11-19T14:32:04:589
1855940,000000	2020-11-19T14:32:04:629
1856510,000000	2020-11-19T14:32:04:669
1857549,000000	2020-11-19T14:32:04:710
1858117,000000	2020-11-19T14:32:04:749
1859479,000000	2020-11-19T14:32:04:789
1860387,000000	2020-11-19T14:32:04:829
1861811,000000	2020-11-19T14:32:04:869
1862455,000000	2020-11-19T14:32:04:909
1860841,000000	2020-11-19T14:32:04:951
1857872,000000	2020-11-19T14:32:04:988
1855380,000000	2020-11-19T14:32:05:033
1854855,000000	2020-11-19T14:32:05:069
1854174,000000	2020-11-19T14:32:05:109
1854827,000000	2020-11-19T14:32:05:150
1855150,000000	2020-11-19T14:32:05:191
1854737,000000	2020-11-19T14:32:05:229
1853644,000000	2020-11-19T14:32:05:269
1853256,000000	2020-11-19T14:32:05:309
1853086,000000	2020-11-19T14:32:05:350
1853505,000000	2020-11-19T14:32:05:392
1853781,000000	2020-11-19T14:32:05:432
1854665,000000	2020-11-19T14:32:05:469
1855374,000000	2020-11-19T14:32:05:509
1856125,000000	2020-11-19T14:32:05:550
1857364,000000	2020-11-19T14:32:05:589
1857931,000000	2020-11-19T14:32:05:630
1858888,000000	2020-11-19T14:32:05:671
1858072,000000	2020-11-19T14:32:05:710
1854565,000000	2020-11-19T14:32:05:750
1851696,000000	2020-11-19T14:32:05:791
1849921,000000	2020-11-19T14:32:05:830
1850433,000000	2020-11-19T14:32:05:870
1850252,000000	2020-11-19T14:32:05:912
1850590,000000	2020-11-19T14:32:05:949
1850196,000000	2020-11-19T14:32:05:996
1849411,000000	2020-11-19T14:32:06:030
1848605,000000	2020-11-19T14:32:06:070
1848240,000000	2020-11-19T14:32:06:110
1848172,000000	2020-11-19T14:32:06:152
1848952,000000	2020-11-19T14:32:06:190
1849308,000000	2020-11-19T14:32:06:231
1850115,000000	2020-11-19T14:32:06:270
1851230,000000	2020-11-19T14:32:06:310
1851939,000000	2020-11-19T14:32:06:350
1852630,000000	2020-11-19T14:32:06:391
1853520,000000	2020-11-19T14:32:06:430
1854205,000000	2020-11-19T14:32:06:471
1852118,000000	2020-11-19T14:32:06:510
1847974,000000	2020-11-19T14:32:06:551
1844574,000000	2020-11-19T14:32:06:591
1842346,000000	2020-11-19T14:32:06:633
1841084,000000	2020-11-19T14:32:06:670
1840739,000000	2020-11-19T14:32:06:710
1840090,000000	2020-11-19T14:32:06:751
1839754,000000	2020-11-19T14:32:06:791
1838140,000000	2020-11-19T14:32:06:830
1837022,000000	2020-11-19T14:32:06:872
1836505,000000	2020-11-19T14:32:06:910
1836232,000000	2020-11-19T14:32:06:950
1836253,000000	2020-11-19T14:32:06:991
1836772,000000	2020-11-19T14:32:07:032
1837630,000000	2020-11-19T14:32:07:072
1837873,000000	2020-11-19T14:32:07:113
1838518,000000	2020-11-19T14:32:07:152
1839544,000000	2020-11-19T14:32:07:192
1839980,000000	2020-11-19T14:32:07:232
1837079,000000	2020-11-19T14:32:07:271
1832832,000000	2020-11-19T14:32:07:311
1829489,000000	2020-11-19T14:32:07:352
1827540,000000	2020-11-19T14:32:07:391
1826784,000000	2020-11-19T14:32:07:431
1826079,000000	2020-11-19T14:32:07:472
1825906,000000	2020-11-19T14:32:07:511
1825249,000000	2020-11-19T14:32:07:551
1824158,000000	2020-11-19T14:32:07:592
1823126,000000	2020-11-19T14:32:07:632
1822603,000000	2020-11-19T14:32:07:672
1822349,000000	2020-11-19T14:32:07:711
1822931,000000	2020-11-19T14:32:07:751
1823227,000000	2020-11-19T14:32:07:791
1824044,000000	2020-11-19T14:32:07:834
1824933,000000	2020-11-19T14:32:07:871
1825255,000000	2020-11-19T14:32:07:911
1826120,000000	2020-11-19T14:32:07:951
1826883,000000	2020-11-19T14:32:07:991
1827441,000000	2020-11-19T14:32:08:032
1825343,000000	2020-11-19T14:32:08:072
1821083,000000	2020-11-19T14:32:08:112
1817910,000000	2020-11-19T14:32:08:152
1815372,000000	2020-11-19T14:32:08:192
1814643,000000	2020-11-19T14:32:08:233
1814384,000000	2020-11-19T14:32:08:272
1814440,000000	2020-11-19T14:32:08:314
1813791,000000	2020-11-19T14:32:08:353
1812272,000000	2020-11-19T14:32:08:392
1811322,000000	2020-11-19T14:32:08:433
1810760,000000	2020-11-19T14:32:08:473
1810775,000000	2020-11-19T14:32:08:513
1810731,000000	2020-11-19T14:32:08:557
1810789,000000	2020-11-19T14:32:08:594
1811452,000000	2020-11-19T14:32:08:633
1811603,000000	2020-11-19T14:32:08:672
1811952,000000	2020-11-19T14:32:08:713
1812615,000000	2020-11-19T14:32:08:753
1812357,000000	2020-11-19T14:32:08:795
1809174,000000	2020-11-19T14:32:08:834
1804300,000000	2020-11-19T14:32:08:873
1800991,000000	2020-11-19T14:32:08:913
1799387,000000	2020-11-19T14:32:08:953
1799197,000000	2020-11-19T14:32:08:993
1798889,000000	2020-11-19T14:32:09:035
1798982,000000	2020-11-19T14:32:09:073
1798579,000000	2020-11-19T14:32:09:114
1797144,000000	2020-11-19T14:32:09:154
1796839,000000	2020-11-19T14:32:09:193
1796278,000000	2020-11-19T14:32:09:234
1796534,000000	2020-11-19T14:32:09:275
1796946,000000	2020-11-19T14:32:09:314
1797532,000000	2020-11-19T14:32:09:354
1798244,000000	2020-11-19T14:32:09:394
1799402,000000	2020-11-19T14:32:09:433
1800145,000000	2020-11-19T14:32:09:474
1801138,000000	2020-11-19T14:32:09:515
1801064,000000	2020-11-19T14:32:09:553
1797618,000000	2020-11-19T14:32:09:594
1793165,000000	2020-11-19T14:32:09:634
1790016,000000	2020-11-19T14:32:09:674
1788339,000000	2020-11-19T14:32:09:714
1786975,000000	2020-11-19T14:32:09:755
1786988,000000	2020-11-19T14:32:09:794
1786725,000000	2020-11-19T14:32:09:834
1785821,000000	2020-11-19T14:32:09:874
1784551,000000	2020-11-19T14:32:09:914
1783923,000000	2020-11-19T14:32:09:954
1783078,000000	2020-11-19T14:32:09:996
1783856,000000	2020-11-19T14:32:10:035
1784243,000000	2020-11-19T14:32:10:073
1785260,000000	2020-11-19T14:32:10:114
1786191,000000	2020-11-19T14:32:10:154
1787229,000000	2020-11-19T14:32:10:196
1788412,000000	2020-11-19T14:32:10:237
1789316,000000	2020-11-19T14:32:10:275
1789398,000000	2020-11-19T14:32:10:320
1785217,000000	2020-11-19T14:32:10:356
1781187,000000	2020-11-19T14:32:10:422
1778977,000000	2020-11-19T14:32:10:441
1777554,000000	2020-11-19T14:32:10:480
1777196,000000	2020-11-19T14:32:10:567
1777664,000000	2020-11-19T14:32:10:569
1777120,000000	2020-11-19T14:32:10:651
1776807,000000	2020-11-19T14:32:10:653
1776022,000000	2020-11-19T14:32:10:723
1776009,000000	2020-11-19T14:32:10:724
1776273,000000	2020-11-19T14:32:10:791
1776740,000000	2020-11-19T14:32:10:801
1777641,000000	2020-11-19T14:32:10:834
1778610,000000	2020-11-19T14:32:10:879
1780329,000000	2020-11-19T14:32:10:915
1781638,000000	2020-11-19T14:32:10:954
1783130,000000	2020-11-19T14:32:10:993
1782863,000000	2020-11-19T14:32:11:033
1779435,000000	2020-11-19T14:32:11:075
1776370,000000	2020-11-19T14:32:11:113
1774138,000000	2020-11-19T14:32:11:154
1773436,000000	2020-11-19T14:32:11:195
1773896,000000	2020-11-19T14:32:11:236
1774794,000000	2020-11-19T14:32:11:274
1774990,000000	2020-11-19T14:32:11:318
1774423,000000	2020-11-19T14:32:11:353
1773934,000000	2020-11-19T14:32:11:394
1773807,000000	2020-11-19T14:32:11:444
1774017,000000	2020-11-19T14:32:11:474
1775211,000000	2020-11-19T14:32:11:515
1776487,000000	2020-11-19T14:32:11:556
1777503,000000	2020-11-19T14:32:11:595
1780142,000000	2020-11-19T14:32:11:637
1780999,000000	2020-11-19T14:32:11:677
1780684,000000	2020-11-19T14:32:11:715
1776728,000000	2020-11-19T14:32:11:756
1772895,000000	2020-11-19T14:32:11:796
1771093,000000	2020-11-19T14:32:11:835
1769925,000000	2020-11-19T14:32:11:876
1770314,000000	2020-11-19T14:32:11:917
1770807,000000	2020-11-19T14:32:11:956
1770921,000000	2020-11-19T14:32:11:997
1770427,000000	2020-11-19T14:32:12:037
1769647,000000	2020-11-19T14:32:12:076
1769840,000000	2020-11-19T14:32:12:117
1770322,000000	2020-11-19T14:32:12:159
1771231,000000	2020-11-19T14:32:12:196
1772385,000000	2020-11-19T14:32:12:236
1774042,000000	2020-11-19T14:32:12:276
1775818,000000	2020-11-19T14:32:12:316
1775895,000000	2020-11-19T14:32:12:356
1773326,000000	2020-11-19T14:32:12:398
1768950,000000	2020-11-19T14:32:12:437
1764787,000000	2020-11-19T14:32:12:477
1764214,000000	2020-11-19T14:32:12:517
1763624,000000	2020-11-19T14:32:12:557
1764163,000000	2020-11-19T14:32:12:597
1764302,000000	2020-11-19T14:32:12:639
1764119,000000	2020-11-19T14:32:12:677
1763537,000000	2020-11-19T14:32:12:717
1763135,000000	2020-11-19T14:32:12:756
1763527,000000	2020-11-19T14:32:12:797
1764688,000000	2020-11-19T14:32:12:837
1765848,000000	2020-11-19T14:32:12:879
1767227,000000	2020-11-19T14:32:12:917
1768751,000000	2020-11-19T14:32:12:957
1767838,000000	2020-11-19T14:32:12:997
1764460,000000	2020-11-19T14:32:13:037
1760311,000000	2020-11-19T14:32:13:077
1757540,000000	2020-11-19T14:32:13:118
1756352,000000	2020-11-19T14:32:13:157
1756367,000000	2020-11-19T14:32:13:197
1756392,000000	2020-11-19T14:32:13:238
1756595,000000	2020-11-19T14:32:13:277
1755860,000000	2020-11-19T14:32:13:317
1755538,000000	2020-11-19T14:32:13:359
1755628,000000	2020-11-19T14:32:13:397
1756190,000000	2020-11-19T14:32:13:438
1757266,000000	2020-11-19T14:32:13:477
1759239,000000	2020-11-19T14:32:13:517
1760765,000000	2020-11-19T14:32:13:558
1762697,000000	2020-11-19T14:32:13:600
1763659,000000	2020-11-19T14:32:13:638
1761693,000000	2020-11-19T14:32:13:678
1757647,000000	2020-11-19T14:32:13:718
1754847,000000	2020-11-19T14:32:13:758
1753179,000000	2020-11-19T14:32:13:798
1752986,000000	2020-11-19T14:32:13:840
1753623,000000	2020-11-19T14:32:13:878
1753996,000000	2020-11-19T14:32:13:918
1754022,000000	2020-11-19T14:32:13:958
1754006,000000	2020-11-19T14:32:13:998
1754640,000000	2020-11-19T14:32:14:039
1755488,000000	2020-11-19T14:32:14:080
1756863,000000	2020-11-19T14:32:14:118
1758218,000000	2020-11-19T14:32:14:158
1760084,000000	2020-11-19T14:32:14:198
1762008,000000	2020-11-19T14:32:14:239
1764294,000000	2020-11-19T14:32:14:278
1766147,000000	2020-11-19T14:32:14:320
1765463,000000	2020-11-19T14:32:14:358
1761912,000000	2020-11-19T14:32:14:398
1759008,000000	2020-11-19T14:32:14:438
1757698,000000	2020-11-19T14:32:14:482
1758186,000000	2020-11-19T14:32:14:524
1759501,000000	2020-11-19T14:32:14:559
1760909,000000	2020-11-19T14:32:14:601
1761438,000000	2020-11-19T14:32:14:640
1761969,000000	2020-11-19T14:32:14:680
1762157,000000	2020-11-19T14:32:14:719
1763689,000000	2020-11-19T14:32:14:761
1764736,000000	2020-11-19T14:32:14:799
1767149,000000	2020-11-19T14:32:14:842
1769225,000000	2020-11-19T14:32:14:880
1771093,000000	2020-11-19T14:32:14:920
1773175,000000	2020-11-19T14:32:14:962
1775429,000000	2020-11-19T14:32:14:999
1777514,000000	2020-11-19T14:32:15:046
1776693,000000	2020-11-19T14:32:15:085
1773160,000000	2020-11-19T14:32:15:124
1771118,000000	2020-11-19T14:32:15:169
1770510,000000	2020-11-19T14:32:15:199
1771455,000000	2020-11-19T14:32:15:246
1773041,000000	2020-11-19T14:32:15:288
1774477,000000	2020-11-19T14:32:15:322
1775297,000000	2020-11-19T14:32:15:358
1776454,000000	2020-11-19T14:32:15:399
1776918,000000	2020-11-19T14:32:15:440
1778749,000000	2020-11-19T14:32:15:479
1780405,000000	2020-11-19T14:32:15:521
1782606,000000	2020-11-19T14:32:15:559
1785049,000000	2020-11-19T14:32:15:600
1787599,000000	2020-11-19T14:32:15:640
1790546,000000	2020-11-19T14:32:15:680
1793189,000000	2020-11-19T14:32:15:720
1796103,000000	2020-11-19T14:32:15:761
1798596,000000	2020-11-19T14:32:15:799
1797696,000000	2020-11-19T14:32:15:868
1795324,000000	2020-11-19T14:32:15:880
1793829,000000	2020-11-19T14:32:15:920
1794183,000000	2020-11-19T14:32:15:960
1795630,000000	2020-11-19T14:32:16:008
1797507,000000	2020-11-19T14:32:16:040
1799932,000000	2020-11-19T14:32:16:080
1801367,000000	2020-11-19T14:32:16:120
1802170,000000	2020-11-19T14:32:16:160
1804231,000000	2020-11-19T14:32:16:200
1806053,000000	2020-11-19T14:32:16:242
1808792,000000	2020-11-19T14:32:16:280
1811491,000000	2020-11-19T14:32:16:320
1814359,000000	2020-11-19T14:32:16:360
1817542,000000	2020-11-19T14:32:16:400
1820679,000000	2020-11-19T14:32:16:441
1824304,000000	2020-11-19T14:32:16:482
1827798,000000	2020-11-19T14:32:16:521
1830776,000000	2020-11-19T14:32:16:560
1833692,000000	2020-11-19T14:32:16:601
1833646,000000	2020-11-19T14:32:16:641
1832495,000000	2020-11-19T14:32:16:681
1832413,000000	2020-11-19T14:32:16:723
1833614,000000	2020-11-19T14:32:16:760
1835782,000000	2020-11-19T14:32:16:801
1838868,000000	2020-11-19T14:32:16:841
1841384,000000	2020-11-19T14:32:16:880
1843152,000000	2020-11-19T14:32:16:921
1845385,000000	2020-11-19T14:32:16:963
1846711,000000	2020-11-19T14:32:17:001
1849190,000000	2020-11-19T14:32:17:041
1851743,000000	2020-11-19T14:32:17:081
1854664,000000	2020-11-19T14:32:17:121
1857566,000000	2020-11-19T14:32:17:162
1860604,000000	2020-11-19T14:32:17:203
1863846,000000	2020-11-19T14:32:17:241
1866943,000000	2020-11-19T14:32:17:281
1870014,000000	2020-11-19T14:32:17:321
1872637,000000	2020-11-19T14:32:17:361
1872527,000000	2020-11-19T14:32:17:401
1871831,000000	2020-11-19T14:32:17:443
1872206,000000	2020-11-19T14:32:17:481
1873552,000000	2020-11-19T14:32:17:521
1876846,000000	2020-11-19T14:32:17:561
1879700,000000	2020-11-19T14:32:17:601
1882228,000000	2020-11-19T14:32:17:641
1884271,000000	2020-11-19T14:32:17:683
1885911,000000	2020-11-19T14:32:17:721
1888063,000000	2020-11-19T14:32:17:761
1890142,000000	2020-11-19T14:32:17:802
1893219,000000	2020-11-19T14:32:17:842
1895630,000000	2020-11-19T14:32:17:882
1898531,000000	2020-11-19T14:32:17:923
1901810,000000	2020-11-19T14:32:17:961
1904552,000000	2020-11-19T14:32:18:002
1907504,000000	2020-11-19T14:32:18:042
1910066,000000	2020-11-19T14:32:18:082
1910566,000000	2020-11-19T14:32:18:122
1909019,000000	2020-11-19T14:32:18:163
1908381,000000	2020-11-19T14:32:18:202
1909519,000000	2020-11-19T14:32:18:242
1910735,000000	2020-11-19T14:32:18:282
1912503,000000	2020-11-19T14:32:18:322
1914776,000000	2020-11-19T14:32:18:362
1916411,000000	2020-11-19T14:32:18:403
1917543,000000	2020-11-19T14:32:18:442
1919071,000000	2020-11-19T14:32:18:482
1921017,000000	2020-11-19T14:32:18:522
1923075,000000	2020-11-19T14:32:18:561
1925128,000000	2020-11-19T14:32:18:602
1927477,000000	2020-11-19T14:32:18:646
1930168,000000	2020-11-19T14:32:18:682
1932405,000000	2020-11-19T14:32:18:722
1934904,000000	2020-11-19T14:32:18:763
1937596,000000	2020-11-19T14:32:18:812
1939014,000000	2020-11-19T14:32:18:843
1937723,000000	2020-11-19T14:32:18:887
1935849,000000	2020-11-19T14:32:18:927
1935123,000000	2020-11-19T14:32:18:989
1936212,000000	2020-11-19T14:32:19:003
1938000,000000	2020-11-19T14:32:19:042
1939468,000000	2020-11-19T14:32:19:083
1941243,000000	2020-11-19T14:32:19:125
1942416,000000	2020-11-19T14:32:19:163
1943086,000000	2020-11-19T14:32:19:203
1944325,000000	2020-11-19T14:32:19:243
1945377,000000	2020-11-19T14:32:19:283
1947466,000000	2020-11-19T14:32:19:322
1948959,000000	2020-11-19T14:32:19:363
1950842,000000	2020-11-19T14:32:19:403
1952806,000000	2020-11-19T14:32:19:443
1955261,000000	2020-11-19T14:32:19:483
1957068,000000	2020-11-19T14:32:19:524
1959501,000000	2020-11-19T14:32:19:564
1959138,000000	2020-11-19T14:32:19:605
1956659,000000	2020-11-19T14:32:19:643
1954785,000000	2020-11-19T14:32:19:684
1954257,000000	2020-11-19T14:32:19:724
1954598,000000	2020-11-19T14:32:19:764
1956101,000000	2020-11-19T14:32:19:804
1957223,000000	2020-11-19T14:32:19:845
1958197,000000	2020-11-19T14:32:19:884
1958228,000000	2020-11-19T14:32:19:924
1957874,000000	2020-11-19T14:32:19:964
1958427,000000	2020-11-19T14:32:20:004
1959325,000000	2020-11-19T14:32:20:044
1959995,000000	2020-11-19T14:32:20:085
1961516,000000	2020-11-19T14:32:20:124
1962707,000000	2020-11-19T14:32:20:164
1963961,000000	2020-11-19T14:32:20:204
1965741,000000	2020-11-19T14:32:20:244
1966799,000000	2020-11-19T14:32:20:284
1965645,000000	2020-11-19T14:32:20:325
1961965,000000	2020-11-19T14:32:20:364
1959210,000000	2020-11-19T14:32:20:405
1957835,000000	2020-11-19T14:32:20:445
1957599,000000	2020-11-19T14:32:20:484
1958322,000000	2020-11-19T14:32:20:524
1958708,000000	2020-11-19T14:32:20:565
1958922,000000	2020-11-19T14:32:20:604
1958060,000000	2020-11-19T14:32:20:645
1957667,000000	2020-11-19T14:32:20:684
1957520,000000	2020-11-19T14:32:20:724
1957274,000000	2020-11-19T14:32:20:764
1957790,000000	2020-11-19T14:32:20:806
1958603,000000	2020-11-19T14:32:20:870
1959056,000000	2020-11-19T14:32:20:885
1959781,000000	2020-11-19T14:32:20:925
1960756,000000	2020-11-19T14:32:20:964
1961269,000000	2020-11-19T14:32:21:004
1957792,000000	2020-11-19T14:32:21:047
1952664,000000	2020-11-19T14:32:21:086
1948971,000000	2020-11-19T14:32:21:126
1946714,000000	2020-11-19T14:32:21:165
1945773,000000	2020-11-19T14:32:21:205
1945307,000000	2020-11-19T14:32:21:245
1944807,000000	2020-11-19T14:32:21:287
1943435,000000	2020-11-19T14:32:21:325
1941615,000000	2020-11-19T14:32:21:365
1940342,000000	2020-11-19T14:32:21:405
1939056,000000	2020-11-19T14:32:21:445
1938420,000000	2020-11-19T14:32:21:485
1938060,000000	2020-11-19T14:32:21:527
1938073,000000	2020-11-19T14:32:21:564
1937897,000000	2020-11-19T14:32:21:605
1937931,000000	2020-11-19T14:32:21:646
1938449,000000	2020-11-19T14:32:21:685
1937498,000000	2020-11-19T14:32:21:725
1932514,000000	2020-11-19T14:32:21:765
1926018,000000	2020-11-19T14:32:21:805
1921988,000000	2020-11-19T14:32:21:846
1919170,000000	2020-11-19T14:32:21:885
1917409,000000	2020-11-19T14:32:21:925
1916429,000000	2020-11-19T14:32:21:966
1915135,000000	2020-11-19T14:32:22:006
1912887,000000	2020-11-19T14:32:22:046
1911046,000000	2020-11-19T14:32:22:085
1908931,000000	2020-11-19T14:32:22:126
1907388,000000	2020-11-19T14:32:22:166
1906794,000000	2020-11-19T14:32:22:206
1906342,000000	2020-11-19T14:32:22:247
1906072,000000	2020-11-19T14:32:22:286
1906171,000000	2020-11-19T14:32:22:326
1906070,000000	2020-11-19T14:32:22:366
1906165,000000	2020-11-19T14:32:22:405
1905089,000000	2020-11-19T14:32:22:446
1900215,000000	2020-11-19T14:32:22:487
1893796,000000	2020-11-19T14:32:22:525
1889323,000000	2020-11-19T14:32:22:566
1886528,000000	2020-11-19T14:32:22:607
1884994,000000	2020-11-19T14:32:22:647
1884016,000000	2020-11-19T14:32:22:686
1882487,000000	2020-11-19T14:32:22:728
1880198,000000	2020-11-19T14:32:22:766
1878246,000000	2020-11-19T14:32:22:807
1875827,000000	2020-11-19T14:32:22:847
1874775,000000	2020-11-19T14:32:22:886
1873891,000000	2020-11-19T14:32:22:926
1873219,000000	2020-11-19T14:32:22:968
1872846,000000	2020-11-19T14:32:23:007
1872605,000000	2020-11-19T14:32:23:047
1872650,000000	2020-11-19T14:32:23:087
1872420,000000	2020-11-19T14:32:23:127
1869066,000000	2020-11-19T14:32:23:167
1863566,000000	2020-11-19T14:32:23:208
1857946,000000	2020-11-19T14:32:23:247
1854161,000000	2020-11-19T14:32:23:287
1852133,000000	2020-11-19T14:32:23:328
1852496,000000	2020-11-19T14:32:23:366
1851253,000000	2020-11-19T14:32:23:407
1849602,000000	2020-11-19T14:32:23:448
1847392,000000	2020-11-19T14:32:23:487
1845417,000000	2020-11-19T14:32:23:527
1844502,000000	2020-11-19T14:32:23:567
1843554,000000	2020-11-19T14:32:23:607
1843368,000000	2020-11-19T14:32:23:647
1843061,000000	2020-11-19T14:32:23:689
1843581,000000	2020-11-19T14:32:23:727
1843588,000000	2020-11-19T14:32:23:767
1844083,000000	2020-11-19T14:32:23:808
1843534,000000	2020-11-19T14:32:23:847
1838884,000000	2020-11-19T14:32:23:888
1833071,000000	2020-11-19T14:32:23:928
1828895,000000	2020-11-19T14:32:23:968
1825865,000000	2020-11-19T14:32:24:007
1824385,000000	2020-11-19T14:32:24:048
1823416,000000	2020-11-19T14:32:24:088
1822429,000000	2020-11-19T14:32:24:128
1820647,000000	2020-11-19T14:32:24:170
1819410,000000	2020-11-19T14:32:24:208
1817285,000000	2020-11-19T14:32:24:248
1817035,000000	2020-11-19T14:32:24:288
1816975,000000	2020-11-19T14:32:24:327
1816954,000000	2020-11-19T14:32:24:368
1817713,000000	2020-11-19T14:32:24:409
1818596,000000	2020-11-19T14:32:24:448
1819400,000000	2020-11-19T14:32:24:488
1820329,000000	2020-11-19T14:32:24:528
1820619,000000	2020-11-19T14:32:24:568
1817528,000000	2020-11-19T14:32:24:608
1812827,000000	2020-11-19T14:32:24:649
1809157,000000	2020-11-19T14:32:24:688
1807246,000000	2020-11-19T14:32:24:728
1806319,000000	2020-11-19T14:32:24:768
1805853,000000	2020-11-19T14:32:24:808
1805810,000000	2020-11-19T14:32:24:849
1805377,000000	2020-11-19T14:32:24:890
1804650,000000	2020-11-19T14:32:24:928
1804341,000000	2020-11-19T14:32:24:969
1804435,000000	2020-11-19T14:32:25:008
1805201,000000	2020-11-19T14:32:25:049
1806595,000000	2020-11-19T14:32:25:089
1807847,000000	2020-11-19T14:32:25:131
1809313,000000	2020-11-19T14:32:25:169
1810660,000000	2020-11-19T14:32:25:209
1812216,000000	2020-11-19T14:32:25:249
1813960,000000	2020-11-19T14:32:25:289
1815541,000000	2020-11-19T14:32:25:329
1814238,000000	2020-11-19T14:32:25:371
1810906,000000	2020-11-19T14:32:25:409
1808360,000000	2020-11-19T14:32:25:449
1806731,000000	2020-11-19T14:32:25:489
1807092,000000	2020-11-19T14:32:25:529
1807822,000000	2020-11-19T14:32:25:569
1808350,000000	2020-11-19T14:32:25:611
1808844,000000	2020-11-19T14:32:25:651
1809004,000000	2020-11-19T14:32:25:689
1809167,000000	2020-11-19T14:32:25:729
1809976,000000	2020-11-19T14:32:25:769
1811362,000000	2020-11-19T14:32:25:809
1812979,000000	2020-11-19T14:32:25:855
1814895,000000	2020-11-19T14:32:25:889
1816532,000000	2020-11-19T14:32:25:929
1818541,000000	2020-11-19T14:32:25:970
1820516,000000	2020-11-19T14:32:26:011
1822871,000000	2020-11-19T14:32:26:049
1824074,000000	2020-11-19T14:32:26:091
1823110,000000	2020-11-19T14:32:26:130
1820733,000000	2020-11-19T14:32:26:170
1819212,000000	2020-11-19T14:32:26:210
1818950,000000	2020-11-19T14:32:26:250
1820054,000000	2020-11-19T14:32:26:290
1821232,000000	2020-11-19T14:32:26:331
1822682,000000	2020-11-19T14:32:26:369
1823610,000000	2020-11-19T14:32:26:410
1825465,000000	2020-11-19T14:32:26:451
1825465,000000	2020-11-19T14:32:26:489
1828862,000000	2020-11-19T14:32:26:531
1830635,000000	2020-11-19T14:32:26:572
1832689,000000	2020-11-19T14:32:26:611
1834910,000000	2020-11-19T14:32:26:651
1837649,000000	2020-11-19T14:32:26:691
1839581,000000	2020-11-19T14:32:26:731
1841858,000000	2020-11-19T14:32:26:771
1844597,000000	2020-11-19T14:32:26:812
1843974,000000	2020-11-19T14:32:26:850
1841693,000000	2020-11-19T14:32:26:890
1840607,000000	2020-11-19T14:32:26:930
1840768,000000	2020-11-19T14:32:26:970
1841508,000000	2020-11-19T14:32:27:010
1843412,000000	2020-11-19T14:32:27:052
1844790,000000	2020-11-19T14:32:27:090
1845965,000000	2020-11-19T14:32:27:131
1846808,000000	2020-11-19T14:32:27:171
1848340,000000	2020-11-19T14:32:27:211
1849823,000000	2020-11-19T14:32:27:251
1851328,000000	2020-11-19T14:32:27:292
1853699,000000	2020-11-19T14:32:27:331
1855992,000000	2020-11-19T14:32:27:371
1858817,000000	2020-11-19T14:32:27:411
1861200,000000	2020-11-19T14:32:27:451
1864153,000000	2020-11-19T14:32:27:491
1866229,000000	2020-11-19T14:32:27:532
1869521,000000	2020-11-19T14:32:27:571
1871917,000000	2020-11-19T14:32:27:610
1871639,000000	2020-11-19T14:32:27:652
1870589,000000	2020-11-19T14:32:27:691
1869761,000000	2020-11-19T14:32:27:731
1870663,000000	2020-11-19T14:32:27:772
1871496,000000	2020-11-19T14:32:27:811
1873618,000000	2020-11-19T14:32:27:851
1875599,000000	2020-11-19T14:32:27:892
1876736,000000	2020-11-19T14:32:27:932
1878107,000000	2020-11-19T14:32:27:972
1879615,000000	2020-11-19T14:32:28:013
1881300,000000	2020-11-19T14:32:28:052
1883574,000000	2020-11-19T14:32:28:092
1885817,000000	2020-11-19T14:32:28:132
1888225,000000	2020-11-19T14:32:28:172
1890926,000000	2020-11-19T14:32:28:212
1893514,000000	2020-11-19T14:32:28:254
1895845,000000	2020-11-19T14:32:28:292
1898602,000000	2020-11-19T14:32:28:332
1900999,000000	2020-11-19T14:32:28:372
1903574,000000	2020-11-19T14:32:28:412
1904819,000000	2020-11-19T14:32:28:453
1903909,000000	2020-11-19T14:32:28:494
1902968,000000	2020-11-19T14:32:28:532
1903525,000000	2020-11-19T14:32:28:572
1905044,000000	2020-11-19T14:32:28:612
1906826,000000	2020-11-19T14:32:28:652
1909060,000000	2020-11-19T14:32:28:693
1910878,000000	2020-11-19T14:32:28:734
1911495,000000	2020-11-19T14:32:28:773
1912831,000000	2020-11-19T14:32:28:813
1914873,000000	2020-11-19T14:32:28:852
1916573,000000	2020-11-19T14:32:28:892
1918783,000000	2020-11-19T14:32:28:933
1921135,000000	2020-11-19T14:32:28:974
1923453,000000	2020-11-19T14:32:29:012
1925774,000000	2020-11-19T14:32:29:055
1927929,000000	2020-11-19T14:32:29:093
1930667,000000	2020-11-19T14:32:29:133
1932800,000000	2020-11-19T14:32:29:172
1934524,000000	2020-11-19T14:32:29:214
1933967,000000	2020-11-19T14:32:29:253
1932358,000000	2020-11-19T14:32:29:293
1932085,000000	2020-11-19T14:32:29:332
1933042,000000	2020-11-19T14:32:29:373
1934375,000000	2020-11-19T14:32:29:413
1936029,000000	2020-11-19T14:32:29:454
1937669,000000	2020-11-19T14:32:29:493
1939155,000000	2020-11-19T14:32:29:533
1940252,000000	2020-11-19T14:32:29:573
1941199,000000	2020-11-19T14:32:29:613
1942637,000000	2020-11-19T14:32:29:653
1944322,000000	2020-11-19T14:32:29:695
1946136,000000	2020-11-19T14:32:29:733
1948115,000000	2020-11-19T14:32:29:773
1950585,000000	2020-11-19T14:32:29:814
1952225,000000	2020-11-19T14:32:29:854
1954735,000000	2020-11-19T14:32:29:893
1956532,000000	2020-11-19T14:32:29:934
1958704,000000	2020-11-19T14:32:29:973
1959572,000000	2020-11-19T14:32:30:014
1957529,000000	2020-11-19T14:32:30:054
1956126,000000	2020-11-19T14:32:30:095
1955584,000000	2020-11-19T14:32:30:134
1955964,000000	2020-11-19T14:32:30:175
1956879,000000	2020-11-19T14:32:30:213
1958307,000000	2020-11-19T14:32:30:254
1959769,000000	2020-11-19T14:32:30:294
1960428,000000	2020-11-19T14:32:30:333
1960488,000000	2020-11-19T14:32:30:374
1961558,000000	2020-11-19T14:32:30:415
1962346,000000	2020-11-19T14:32:30:454
1963587,000000	2020-11-19T14:32:30:494
1965758,000000	2020-11-19T14:32:30:534
1967049,000000	2020-11-19T14:32:30:573
1968599,000000	2020-11-19T14:32:30:614
1970112,000000	2020-11-19T14:32:30:656
1971845,000000	2020-11-19T14:32:30:694
1973940,000000	2020-11-19T14:32:30:734
1974963,000000	2020-11-19T14:32:30:774
1974054,000000	2020-11-19T14:32:30:815
1971209,000000	2020-11-19T14:32:30:880
1969761,000000	2020-11-19T14:32:30:896
1969172,000000	2020-11-19T14:32:30:934
1969608,000000	2020-11-19T14:32:30:974
1970973,000000	2020-11-19T14:32:31:015
1971951,000000	2020-11-19T14:32:31:054
1972262,000000	2020-11-19T14:32:31:095
1971835,000000	2020-11-19T14:32:31:136
1972044,000000	2020-11-19T14:32:31:175
1972563,000000	2020-11-19T14:32:31:215
1973006,000000	2020-11-19T14:32:31:255
1974357,000000	2020-11-19T14:32:31:295
1975528,000000	2020-11-19T14:32:31:335
1976547,000000	2020-11-19T14:32:31:376
1977766,000000	2020-11-19T14:32:31:416
1978636,000000	2020-11-19T14:32:31:454
1980324,000000	2020-11-19T14:32:31:495
1980627,000000	2020-11-19T14:32:31:535
1978771,000000	2020-11-19T14:32:31:575
1975245,000000	2020-11-19T14:32:31:618
1973444,000000	2020-11-19T14:32:31:655
1972199,000000	2020-11-19T14:32:31:695
1972199,000000	2020-11-19T14:32:31:735
1973197,000000	2020-11-19T14:32:31:775
1973230,000000	2020-11-19T14:32:31:817
1972880,000000	2020-11-19T14:32:31:867
1972168,000000	2020-11-19T14:32:31:896
1971614,000000	2020-11-19T14:32:31:936
1971308,000000	2020-11-19T14:32:32:012
1971780,000000	2020-11-19T14:32:32:016
1972265,000000	2020-11-19T14:32:32:057
1973158,000000	2020-11-19T14:32:32:104
1973317,000000	2020-11-19T14:32:32:136
1974654,000000	2020-11-19T14:32:32:177
1975218,000000	2020-11-19T14:32:32:222
1976167,000000	2020-11-19T14:32:32:256
1975224,000000	2020-11-19T14:32:32:296
1971625,000000	2020-11-19T14:32:32:337
1967598,000000	2020-11-19T14:32:32:376
1964905,000000	2020-11-19T14:32:32:415
1963772,000000	2020-11-19T14:32:32:456
1963320,000000	2020-11-19T14:32:32:496
1962925,000000	2020-11-19T14:32:32:535
1962300,000000	2020-11-19T14:32:32:576
1960929,000000	2020-11-19T14:32:32:616
1959760,000000	2020-11-19T14:32:32:657
1958692,000000	2020-11-19T14:32:32:696
1958083,000000	2020-11-19T14:32:32:736
1957805,000000	2020-11-19T14:32:32:776
1957838,000000	2020-11-19T14:32:32:818
1958329,000000	2020-11-19T14:32:32:857
1958198,000000	2020-11-19T14:32:32:896
1958821,000000	2020-11-19T14:32:32:936
1958875,000000	2020-11-19T14:32:32:977
1959468,000000	2020-11-19T14:32:33:017
1955658,000000	2020-11-19T14:32:33:060
1950636,000000	2020-11-19T14:32:33:096
1946314,000000	2020-11-19T14:32:33:136
1944223,000000	2020-11-19T14:32:33:176
1942545,000000	2020-11-19T14:32:33:215
1941843,000000	2020-11-19T14:32:33:257
1941022,000000	2020-11-19T14:32:33:298
1939883,000000	2020-11-19T14:32:33:337
1938244,000000	2020-11-19T14:32:33:376
1936668,000000	2020-11-19T14:32:33:416
1935649,000000	2020-11-19T14:32:33:457
1935244,000000	2020-11-19T14:32:33:497
1935001,000000	2020-11-19T14:32:33:538
1934769,000000	2020-11-19T14:32:33:577
1935181,000000	2020-11-19T14:32:33:617
1935451,000000	2020-11-19T14:32:33:657
1936059,000000	2020-11-19T14:32:33:697
1936214,000000	2020-11-19T14:32:33:737
1934548,000000	2020-11-19T14:32:33:778
1929563,000000	2020-11-19T14:32:33:817
1924855,000000	2020-11-19T14:32:33:858
1921893,000000	2020-11-19T14:32:33:897
1919787,000000	2020-11-19T14:32:33:937
1919260,000000	2020-11-19T14:32:33:978
1918510,000000	2020-11-19T14:32:34:019
1917256,000000	2020-11-19T14:32:34:058
1915537,000000	2020-11-19T14:32:34:097
1913982,000000	2020-11-19T14:32:34:138
1912197,000000	2020-11-19T14:32:34:178
1911866,000000	2020-11-19T14:32:34:217
1911225,000000	2020-11-19T14:32:34:259
1910879,000000	2020-11-19T14:32:34:298
1910785,000000	2020-11-19T14:32:34:338
1910991,000000	2020-11-19T14:32:34:378
1911037,000000	2020-11-19T14:32:34:418
1910839,000000	2020-11-19T14:32:34:458
1908616,000000	2020-11-19T14:32:34:499
1903421,000000	2020-11-19T14:32:34:538
1898651,000000	2020-11-19T14:32:34:578
1895402,000000	2020-11-19T14:32:34:618
1893767,000000	2020-11-19T14:32:34:658
1892857,000000	2020-11-19T14:32:34:698
1892648,000000	2020-11-19T14:32:34:739
1890894,000000	2020-11-19T14:32:34:778
1889231,000000	2020-11-19T14:32:34:818
1887616,000000	2020-11-19T14:32:34:858
1886329,000000	2020-11-19T14:32:34:898
1885764,000000	2020-11-19T14:32:34:938
1885928,000000	2020-11-19T14:32:34:980
1885704,000000	2020-11-19T14:32:35:018
1885649,000000	2020-11-19T14:32:35:062
1885909,000000	2020-11-19T14:32:35:099
1886230,000000	2020-11-19T14:32:35:139
1885263,000000	2020-11-19T14:32:35:179
1880591,000000	2020-11-19T14:32:35:220
1875542,000000	2020-11-19T14:32:35:259
1871630,000000	2020-11-19T14:32:35:299
1869044,000000	2020-11-19T14:32:35:339
1867334,000000	2020-11-19T14:32:35:379
1866642,000000	2020-11-19T14:32:35:418
1865306,000000	2020-11-19T14:32:35:461
1863703,000000	2020-11-19T14:32:35:499
1862018,000000	2020-11-19T14:32:35:539
1860813,000000	2020-11-19T14:32:35:579
1859903,000000	2020-11-19T14:32:35:619
1859606,000000	2020-11-19T14:32:35:660
1859572,000000	2020-11-19T14:32:35:701
1859625,000000	2020-11-19T14:32:35:739
1860373,000000	2020-11-19T14:32:35:779
1860505,000000	2020-11-19T14:32:35:820
1860900,000000	2020-11-19T14:32:35:863
1858923,000000	2020-11-19T14:32:35:899
1853884,000000	2020-11-19T14:32:35:941
1849204,000000	2020-11-19T14:32:35:980
1846067,000000	2020-11-19T14:32:36:019
1844289,000000	2020-11-19T14:32:36:060
1843775,000000	2020-11-19T14:32:36:099
1843310,000000	2020-11-19T14:32:36:140
1842156,000000	2020-11-19T14:32:36:184
1840576,000000	2020-11-19T14:32:36:219
1839621,000000	2020-11-19T14:32:36:260
1839073,000000	2020-11-19T14:32:36:300
1839220,000000	2020-11-19T14:32:36:339
1839205,000000	2020-11-19T14:32:36:379
1840030,000000	2020-11-19T14:32:36:421
1840678,000000	2020-11-19T14:32:36:460
1841383,000000	2020-11-19T14:32:36:500
1842420,000000	2020-11-19T14:32:36:539
1843412,000000	2020-11-19T14:32:36:580
1841937,000000	2020-11-19T14:32:36:620
1838008,000000	2020-11-19T14:32:36:662
1834289,000000	2020-11-19T14:32:36:700
1832185,000000	2020-11-19T14:32:36:740
1831319,000000	2020-11-19T14:32:36:779
1831131,000000	2020-11-19T14:32:36:819
1831549,000000	2020-11-19T14:32:36:860
1830942,000000	2020-11-19T14:32:36:902
1830237,000000	2020-11-19T14:32:36:940
1829580,000000	2020-11-19T14:32:36:980
1829432,000000	2020-11-19T14:32:37:020
1830377,000000	2020-11-19T14:32:37:061
1831207,000000	2020-11-19T14:32:37:101
1831773,000000	2020-11-19T14:32:37:142
1833322,000000	2020-11-19T14:32:37:181
1834565,000000	2020-11-19T14:32:37:220
1835562,000000	2020-11-19T14:32:37:261
1836925,000000	2020-11-19T14:32:37:300
1836342,000000	2020-11-19T14:32:37:341
1833021,000000	2020-11-19T14:32:37:382
1830655,000000	2020-11-19T14:32:37:421
1828920,000000	2020-11-19T14:32:37:461
1828914,000000	2020-11-19T14:32:37:501
1829476,000000	2020-11-19T14:32:37:541
1830139,000000	2020-11-19T14:32:37:581
1830235,000000	2020-11-19T14:32:37:622
1830496,000000	2020-11-19T14:32:37:662
1830442,000000	2020-11-19T14:32:37:701
1831346,000000	2020-11-19T14:32:37:741
1832495,000000	2020-11-19T14:32:37:781
1834267,000000	2020-11-19T14:32:37:821
1835820,000000	2020-11-19T14:32:37:863
1837611,000000	2020-11-19T14:32:37:901
1839458,000000	2020-11-19T14:32:37:941
1841456,000000	2020-11-19T14:32:37:982
1843933,000000	2020-11-19T14:32:38:021
1845375,000000	2020-11-19T14:32:38:062
1843643,000000	2020-11-19T14:32:38:104
1841511,000000	2020-11-19T14:32:38:142
1840668,000000	2020-11-19T14:32:38:181
1840365,000000	2020-11-19T14:32:38:222
1841200,000000	2020-11-19T14:32:38:262
1842598,000000	2020-11-19T14:32:38:301
1843738,000000	2020-11-19T14:32:38:342
1844585,000000	2020-11-19T14:32:38:381
1845572,000000	2020-11-19T14:32:38:422
1846807,000000	2020-11-19T14:32:38:462
1848506,000000	2020-11-19T14:32:38:501
1850250,000000	2020-11-19T14:32:38:541
1852367,000000	2020-11-19T14:32:38:583
1854512,000000	2020-11-19T14:32:38:621
1857238,000000	2020-11-19T14:32:38:662
1859764,000000	2020-11-19T14:32:38:702
1862267,000000	2020-11-19T14:32:38:742
1865012,000000	2020-11-19T14:32:38:781
1867623,000000	2020-11-19T14:32:38:824
1867504,000000	2020-11-19T14:32:38:862
1866350,000000	2020-11-19T14:32:38:902
1866669,000000	2020-11-19T14:32:38:942
1867588,000000	2020-11-19T14:32:38:983
1869083,000000	2020-11-19T14:32:39:022
1871103,000000	2020-11-19T14:32:39:064
1873273,000000	2020-11-19T14:32:39:102
1875033,000000	2020-11-19T14:32:39:143
1877153,000000	2020-11-19T14:32:39:183
1879050,000000	2020-11-19T14:32:39:223
1881157,000000	2020-11-19T14:32:39:272
1883417,000000	2020-11-19T14:32:39:305
1886466,000000	2020-11-19T14:32:39:343
1889689,000000	2020-11-19T14:32:39:382
1892103,000000	2020-11-19T14:32:39:423
1895307,000000	2020-11-19T14:32:39:463
1898125,000000	2020-11-19T14:32:39:502
1901189,000000	2020-11-19T14:32:39:545
1904232,000000	2020-11-19T14:32:39:583
1906172,000000	2020-11-19T14:32:39:622
1906158,000000	2020-11-19T14:32:39:664
1906621,000000	2020-11-19T14:32:39:703
1907716,000000	2020-11-19T14:32:39:743
1910056,000000	2020-11-19T14:32:39:785
1912206,000000	2020-11-19T14:32:39:823
1914657,000000	2020-11-19T14:32:39:863
1916792,000000	2020-11-19T14:32:39:903
1918597,000000	2020-11-19T14:32:39:943
1920412,000000	2020-11-19T14:32:39:983
1922621,000000	2020-11-19T14:32:40:025
1924932,000000	2020-11-19T14:32:40:064
1927917,000000	2020-11-19T14:32:40:103
1930247,000000	2020-11-19T14:32:40:144
1933219,000000	2020-11-19T14:32:40:184
1935644,000000	2020-11-19T14:32:40:224
1938604,000000	2020-11-19T14:32:40:265
1941165,000000	2020-11-19T14:32:40:303
1943911,000000	2020-11-19T14:32:40:344
1944832,000000	2020-11-19T14:32:40:383
1944995,000000	2020-11-19T14:32:40:423
1945292,000000	2020-11-19T14:32:40:464
1946033,000000	2020-11-19T14:32:40:505
1947846,000000	2020-11-19T14:32:40:543
1950511,000000	2020-11-19T14:32:40:584
1952561,000000	2020-11-19T14:32:40:624
1954677,000000	2020-11-19T14:32:40:664
1956056,000000	2020-11-19T14:32:40:704
1958054,000000	2020-11-19T14:32:40:745
1960160,000000	2020-11-19T14:32:40:784
1962798,000000	2020-11-19T14:32:40:824
1964779,000000	2020-11-19T14:32:40:890
1967184,000000	2020-11-19T14:32:40:904
1969405,000000	2020-11-19T14:32:40:944
1972575,000000	2020-11-19T14:32:40:986
1974681,000000	2020-11-19T14:32:41:024
1977426,000000	2020-11-19T14:32:41:064
1979490,000000	2020-11-19T14:32:41:104
1982580,000000	2020-11-19T14:32:41:144
1982259,000000	2020-11-19T14:32:41:184
1982138,000000	2020-11-19T14:32:41:226
1983065,000000	2020-11-19T14:32:41:265
1983645,000000	2020-11-19T14:32:41:304
1985901,000000	2020-11-19T14:32:41:344
1987609,000000	2020-11-19T14:32:41:384
1989711,000000	2020-11-19T14:32:41:424
1990922,000000	2020-11-19T14:32:41:467
1992555,000000	2020-11-19T14:32:41:504
1993797,000000	2020-11-19T14:32:41:544
1995990,000000	2020-11-19T14:32:41:585
1998041,000000	2020-11-19T14:32:41:625
2000124,000000	2020-11-19T14:32:41:665
2002312,000000	2020-11-19T14:32:41:706
2004501,000000	2020-11-19T14:32:41:745
2006714,000000	2020-11-19T14:32:41:785
2009160,000000	2020-11-19T14:32:41:825
2011283,000000	2020-11-19T14:32:41:865
2013919,000000	2020-11-19T14:32:41:905
2015907,000000	2020-11-19T14:32:41:947
2016264,000000	2020-11-19T14:32:41:985
2015522,000000	2020-11-19T14:32:42:025
2015914,000000	2020-11-19T14:32:42:065
2016764,000000	2020-11-19T14:32:42:105
2018340,000000	2020-11-19T14:32:42:146
2020242,000000	2020-11-19T14:32:42:187
2021501,000000	2020-11-19T14:32:42:225
2023008,000000	2020-11-19T14:32:42:266
2024031,000000	2020-11-19T14:32:42:305
2025247,000000	2020-11-19T14:32:42:345
2026407,000000	2020-11-19T14:32:42:385
2028231,000000	2020-11-19T14:32:42:427
2030137,000000	2020-11-19T14:32:42:466
2031687,000000	2020-11-19T14:32:42:506
2033453,000000	2020-11-19T14:32:42:546
2035109,000000	2020-11-19T14:32:42:585
2036550,000000	2020-11-19T14:32:42:626
2038442,000000	2020-11-19T14:32:42:668
2039786,000000	2020-11-19T14:32:42:705
2040314,000000	2020-11-19T14:32:42:746
2038922,000000	2020-11-19T14:32:42:786
2037600,000000	2020-11-19T14:32:42:825
2037765,000000	2020-11-19T14:32:42:866
2038646,000000	2020-11-19T14:32:42:907
2039714,000000	2020-11-19T14:32:42:945
2040985,000000	2020-11-19T14:32:42:986
2041699,000000	2020-11-19T14:32:43:026
2041746,000000	2020-11-19T14:32:43:067
2042520,000000	2020-11-19T14:32:43:106
2042811,000000	2020-11-19T14:32:43:148
2044158,000000	2020-11-19T14:32:43:187
2045133,000000	2020-11-19T14:32:43:226
2046302,000000	2020-11-19T14:32:43:267
2047482,000000	2020-11-19T14:32:43:306
2049201,000000	2020-11-19T14:32:43:346
2049822,000000	2020-11-19T14:32:43:389
2051336,000000	2020-11-19T14:32:43:426
2052933,000000	2020-11-19T14:32:43:467
2053651,000000	2020-11-19T14:32:43:507
2051760,000000	2020-11-19T14:32:43:546
2049902,000000	2020-11-19T14:32:43:586
2048418,000000	2020-11-19T14:32:43:628
2047852,000000	2020-11-19T14:32:43:667
2048005,000000	2020-11-19T14:32:43:706
2048805,000000	2020-11-19T14:32:43:747
2049315,000000	2020-11-19T14:32:43:787
2048668,000000	2020-11-19T14:32:43:827
2048222,000000	2020-11-19T14:32:43:869
2048409,000000	2020-11-19T14:32:43:906
2048377,000000	2020-11-19T14:32:43:947
2048725,000000	2020-11-19T14:32:43:987
2049499,000000	2020-11-19T14:32:44:027
2050388,000000	2020-11-19T14:32:44:068
2050825,000000	2020-11-19T14:32:44:109
2051620,000000	2020-11-19T14:32:44:147
2052375,000000	2020-11-19T14:32:44:188
2053431,000000	2020-11-19T14:32:44:227
2053179,000000	2020-11-19T14:32:44:268
2050886,000000	2020-11-19T14:32:44:307
2047923,000000	2020-11-19T14:32:44:349
2046010,000000	2020-11-19T14:32:44:387
2044740,000000	2020-11-19T14:32:44:428
2044490,000000	2020-11-19T14:32:44:468
2044844,000000	2020-11-19T14:32:44:507
2044876,000000	2020-11-19T14:32:44:548
2044485,000000	2020-11-19T14:32:44:589
2043348,000000	2020-11-19T14:32:44:628
2043193,000000	2020-11-19T14:32:44:668
2042583,000000	2020-11-19T14:32:44:708
2042757,000000	2020-11-19T14:32:44:747
2043085,000000	2020-11-19T14:32:44:787
2043593,000000	2020-11-19T14:32:44:830
2044204,000000	2020-11-19T14:32:44:867
2044919,000000	2020-11-19T14:32:44:908
2045983,000000	2020-11-19T14:32:44:948
2046438,000000	2020-11-19T14:32:44:988
2045732,000000	2020-11-19T14:32:45:028
2039432,000000	2020-11-19T14:32:45:071
2039432,000000	2020-11-19T14:32:45:108
2037247,000000	2020-11-19T14:32:45:148
2036720,000000	2020-11-19T14:32:45:188
2035824,000000	2020-11-19T14:32:45:229
2035346,000000	2020-11-19T14:32:45:269
2034412,000000	2020-11-19T14:32:45:310
2033453,000000	2020-11-19T14:32:45:349
2032530,000000	2020-11-19T14:32:45:389
2031798,000000	2020-11-19T14:32:45:429
2032020,000000	2020-11-19T14:32:45:469
2031977,000000	2020-11-19T14:32:45:509
2032068,000000	2020-11-19T14:32:45:549
2031820,000000	2020-11-19T14:32:45:589
2032432,000000	2020-11-19T14:32:45:628
2032422,000000	2020-11-19T14:32:45:668
2031358,000000	2020-11-19T14:32:45:708
2027804,000000	2020-11-19T14:32:45:748
2024347,000000	2020-11-19T14:32:45:790
2021113,000000	2020-11-19T14:32:45:828
2019658,000000	2020-11-19T14:32:45:871
2018535,000000	2020-11-19T14:32:45:908
2018624,000000	2020-11-19T14:32:45:948
2017866,000000	2020-11-19T14:32:45:991
2016002,000000	2020-11-19T14:32:46:030
2014671,000000	2020-11-19T14:32:46:069
2012857,000000	2020-11-19T14:32:46:109
2012271,000000	2020-11-19T14:32:46:149
2011671,000000	2020-11-19T14:32:46:189
2011625,000000	2020-11-19T14:32:46:228
2011130,000000	2020-11-19T14:32:46:271
2011363,000000	2020-11-19T14:32:46:309
2011421,000000	2020-11-19T14:32:46:349
2011413,000000	2020-11-19T14:32:46:389
2009739,000000	2020-11-19T14:32:46:429
2004935,000000	2020-11-19T14:32:46:470
2000494,000000	2020-11-19T14:32:46:511
1997303,000000	2020-11-19T14:32:46:549
1995309,000000	2020-11-19T14:32:46:590
1994361,000000	2020-11-19T14:32:46:629
1993145,000000	2020-11-19T14:32:46:670
1991895,000000	2020-11-19T14:32:46:710
1989751,000000	2020-11-19T14:32:46:751
1987929,000000	2020-11-19T14:32:46:790
1986624,000000	2020-11-19T14:32:46:830
1985503,000000	2020-11-19T14:32:46:870
1985031,000000	2020-11-19T14:32:46:910
1984862,000000	2020-11-19T14:32:46:950
1984368,000000	2020-11-19T14:32:46:992
1984361,000000	2020-11-19T14:32:47:030
1984481,000000	2020-11-19T14:32:47:071
1984420,000000	2020-11-19T14:32:47:110
1983745,000000	2020-11-19T14:32:47:151
1979380,000000	2020-11-19T14:32:47:191
1975012,000000	2020-11-19T14:32:47:232
1971181,000000	2020-11-19T14:32:47:271
1969056,000000	2020-11-19T14:32:47:310
1967736,000000	2020-11-19T14:32:47:351
1966623,000000	2020-11-19T14:32:47:390
1965934,000000	2020-11-19T14:32:47:431
1964251,000000	2020-11-19T14:32:47:472
1962800,000000	2020-11-19T14:32:47:511
1961656,000000	2020-11-19T14:32:47:551
1961050,000000	2020-11-19T14:32:47:591
1960490,000000	2020-11-19T14:32:47:631
1960758,000000	2020-11-19T14:32:47:671
1960778,000000	2020-11-19T14:32:47:713
1961440,000000	2020-11-19T14:32:47:751
1961719,000000	2020-11-19T14:32:47:791
1961841,000000	2020-11-19T14:32:47:831
1962840,000000	2020-11-19T14:32:47:871
1962860,000000	2020-11-19T14:32:47:910
1960409,000000	2020-11-19T14:32:47:952
1956273,000000	2020-11-19T14:32:47:990
1953494,000000	2020-11-19T14:32:48:032
1952160,000000	2020-11-19T14:32:48:071
1950946,000000	2020-11-19T14:32:48:111
1950888,000000	2020-11-19T14:32:48:152
1950492,000000	2020-11-19T14:32:48:191
1949571,000000	2020-11-19T14:32:48:230
1949135,000000	2020-11-19T14:32:48:272
1947782,000000	2020-11-19T14:32:48:311
1947834,000000	2020-11-19T14:32:48:351
1947854,000000	2020-11-19T14:32:48:391
1947840,000000	2020-11-19T14:32:48:433
1948620,000000	2020-11-19T14:32:48:471
1949200,000000	2020-11-19T14:32:48:511
1949773,000000	2020-11-19T14:32:48:552
1950681,000000	2020-11-19T14:32:48:592
1951419,000000	2020-11-19T14:32:48:632
1952281,000000	2020-11-19T14:32:48:674
1950396,000000	2020-11-19T14:32:48:712
1947188,000000	2020-11-19T14:32:48:752
1944425,000000	2020-11-19T14:32:48:792
1942864,000000	2020-11-19T14:32:48:832
1942671,000000	2020-11-19T14:32:48:872
1942730,000000	2020-11-19T14:32:48:914
1942794,000000	2020-11-19T14:32:48:952
1942686,000000	2020-11-19T14:32:48:991
1941940,000000	2020-11-19T14:32:49:032
1941411,000000	2020-11-19T14:32:49:073
1941376,000000	2020-11-19T14:32:49:112
1941898,000000	2020-11-19T14:32:49:156
1942895,000000	2020-11-19T14:32:49:192
1943305,000000	2020-11-19T14:32:49:233
1944622,000000	2020-11-19T14:32:49:273
1945431,000000	2020-11-19T14:32:49:312
1946625,000000	2020-11-19T14:32:49:353
1947968,000000	2020-11-19T14:32:49:394
1949010,000000	2020-11-19T14:32:49:433
1948792,000000	2020-11-19T14:32:49:473
1946471,000000	2020-11-19T14:32:49:514
1943630,000000	2020-11-19T14:32:49:553
1942032,000000	2020-11-19T14:32:49:593
1941860,000000	2020-11-19T14:32:49:635
1941870,000000	2020-11-19T14:32:49:672
1942516,000000	2020-11-19T14:32:49:713
1942458,000000	2020-11-19T14:32:49:753
1942235,000000	2020-11-19T14:32:49:793
1942027,000000	2020-11-19T14:32:49:833
1942468,000000	2020-11-19T14:32:49:875
1943116,000000	2020-11-19T14:32:49:912
1944197,000000	2020-11-19T14:32:49:952
1945114,000000	2020-11-19T14:32:49:993
1946640,000000	2020-11-19T14:32:50:033
1948145,000000	2020-11-19T14:32:50:073
1949860,000000	2020-11-19T14:32:50:115
1951002,000000	2020-11-19T14:32:50:153
1952378,000000	2020-11-19T14:32:50:193
1954096,000000	2020-11-19T14:32:50:233
1955997,000000	2020-11-19T14:32:50:273
1955468,000000	2020-11-19T14:32:50:313
1953542,000000	2020-11-19T14:32:50:355
1952045,000000	2020-11-19T14:32:50:393
1951300,000000	2020-11-19T14:32:50:433
1951610,000000	2020-11-19T14:32:50:474
1952749,000000	2020-11-19T14:32:50:514
1953532,000000	2020-11-19T14:32:50:554
1953743,000000	2020-11-19T14:32:50:596
1954228,000000	2020-11-19T14:32:50:634
1954739,000000	2020-11-19T14:32:50:674
1955080,000000	2020-11-19T14:32:50:713
1956383,000000	2020-11-19T14:32:50:753
1957661,000000	2020-11-19T14:32:50:794
1958645,000000	2020-11-19T14:32:50:835
1960187,000000	2020-11-19T14:32:50:900
1961363,000000	2020-11-19T14:32:50:914
1962725,000000	2020-11-19T14:32:50:954
1964463,000000	2020-11-19T14:32:50:994
1965877,000000	2020-11-19T14:32:51:034
1967650,000000	2020-11-19T14:32:51:077
1968051,000000	2020-11-19T14:32:51:114
1966585,000000	2020-11-19T14:32:51:155
1964998,000000	2020-11-19T14:32:51:195
1964973,000000	2020-11-19T14:32:51:234
1965595,000000	2020-11-19T14:32:51:275
1966120,000000	2020-11-19T14:32:51:316
1967573,000000	2020-11-19T14:32:51:355
1967913,000000	2020-11-19T14:32:51:395
1968777,000000	2020-11-19T14:32:51:435
1969158,000000	2020-11-19T14:32:51:475
1969556,000000	2020-11-19T14:32:51:515
1971004,000000	2020-11-19T14:32:51:556
1971898,000000	2020-11-19T14:32:51:594
1973339,000000	2020-11-19T14:32:51:635
1975000,000000	2020-11-19T14:32:51:675
1976329,000000	2020-11-19T14:32:51:715
1977952,000000	2020-11-19T14:32:51:754
1979779,000000	2020-11-19T14:32:51:796
1981129,000000	2020-11-19T14:32:51:835
1983135,000000	2020-11-19T14:32:51:876
1983816,000000	2020-11-19T14:32:51:915
1982515,000000	2020-11-19T14:32:51:955
1980779,000000	2020-11-19T14:32:51:995
1980003,000000	2020-11-19T14:32:52:036
1980110,000000	2020-11-19T14:32:52:075
1980464,000000	2020-11-19T14:32:52:115
1981490,000000	2020-11-19T14:32:52:155
1982066,000000	2020-11-19T14:32:52:195
1982343,000000	2020-11-19T14:32:52:235
1983011,000000	2020-11-19T14:32:52:277
1983160,000000	2020-11-19T14:32:52:315
1983407,000000	2020-11-19T14:32:52:355
1984447,000000	2020-11-19T14:32:52:395
1985774,000000	2020-11-19T14:32:52:435
1986887,000000	2020-11-19T14:32:52:476
1988804,000000	2020-11-19T14:32:52:517
1989949,000000	2020-11-19T14:32:52:556
1991878,000000	2020-11-19T14:32:52:595
1992982,000000	2020-11-19T14:32:52:635
1994643,000000	2020-11-19T14:32:52:676
1996077,000000	2020-11-19T14:32:52:716
1995058,000000	2020-11-19T14:32:52:757
1993176,000000	2020-11-19T14:32:52:796
1991797,000000	2020-11-19T14:32:52:835
1991859,000000	2020-11-19T14:32:52:876
1992121,000000	2020-11-19T14:32:52:916
1993005,000000	2020-11-19T14:32:52:956
1993939,000000	2020-11-19T14:32:52:997
1994105,000000	2020-11-19T14:32:53:036
1994027,000000	2020-11-19T14:32:53:077
1994434,000000	2020-11-19T14:32:53:116
1994880,000000	2020-11-19T14:32:53:157
1995365,000000	2020-11-19T14:32:53:196
1996438,000000	2020-11-19T14:32:53:238
1997705,000000	2020-11-19T14:32:53:277
1998737,000000	2020-11-19T14:32:53:317
1999793,000000	2020-11-19T14:32:53:357
2000879,000000	2020-11-19T14:32:53:396
2002247,000000	2020-11-19T14:32:53:437
2003611,000000	2020-11-19T14:32:53:479
2004373,000000	2020-11-19T14:32:53:517
2002272,000000	2020-11-19T14:32:53:557
2000310,000000	2020-11-19T14:32:53:597
1998867,000000	2020-11-19T14:32:53:637
1998077,000000	2020-11-19T14:32:53:677
1998884,000000	2020-11-19T14:32:53:718
1999099,000000	2020-11-19T14:32:53:757
1999415,000000	2020-11-19T14:32:53:797
1999614,000000	2020-11-19T14:32:53:837
1999211,000000	2020-11-19T14:32:53:877
1999541,000000	2020-11-19T14:32:53:917
1999636,000000	2020-11-19T14:32:53:959
1999801,000000	2020-11-19T14:32:53:997
2000417,000000	2020-11-19T14:32:54:037
2001271,000000	2020-11-19T14:32:54:077
2002344,000000	2020-11-19T14:32:54:117
2003033,000000	2020-11-19T14:32:54:158
2004163,000000	2020-11-19T14:32:54:200
2005546,000000	2020-11-19T14:32:54:237
2006522,000000	2020-11-19T14:32:54:278
2005421,000000	2020-11-19T14:32:54:318
2002507,000000	2020-11-19T14:32:54:357
1999662,000000	2020-11-19T14:32:54:398
1997904,000000	2020-11-19T14:32:54:439
1997459,000000	2020-11-19T14:32:54:478
1996971,000000	2020-11-19T14:32:54:518
1996872,000000	2020-11-19T14:32:54:558
1996471,000000	2020-11-19T14:32:54:597
1995790,000000	2020-11-19T14:32:54:637
1994985,000000	2020-11-19T14:32:54:680
1994295,000000	2020-11-19T14:32:54:717
1993976,000000	2020-11-19T14:32:54:758
1994477,000000	2020-11-19T14:32:54:798
1994317,000000	2020-11-19T14:32:54:838
1994732,000000	2020-11-19T14:32:54:878
1995295,000000	2020-11-19T14:32:54:923
1995979,000000	2020-11-19T14:32:54:958
1996399,000000	2020-11-19T14:32:54:999
1995778,000000	2020-11-19T14:32:55:038
1994750,000000	2020-11-19T14:32:55:078
1990910,000000	2020-11-19T14:32:55:118
1987496,000000	2020-11-19T14:32:55:160
1985100,000000	2020-11-19T14:32:55:198
1983660,000000	2020-11-19T14:32:55:238
1982857,000000	2020-11-19T14:32:55:278
1982468,000000	2020-11-19T14:32:55:318
1981529,000000	2020-11-19T14:32:55:358
1980641,000000	2020-11-19T14:32:55:400
1978970,000000	2020-11-19T14:32:55:438
1978130,000000	2020-11-19T14:32:55:478
1977441,000000	2020-11-19T14:32:55:518
1977242,000000	2020-11-19T14:32:55:558
1977784,000000	2020-11-19T14:32:55:599
1977886,000000	2020-11-19T14:32:55:640
1977861,000000	2020-11-19T14:32:55:679
1978182,000000	2020-11-19T14:32:55:719
1978671,000000	2020-11-19T14:32:55:759
1978813,000000	2020-11-19T14:32:55:798
1978114,000000	2020-11-19T14:32:55:838
1975093,000000	2020-11-19T14:32:55:883
1970803,000000	2020-11-19T14:32:55:919
1968055,000000	2020-11-19T14:32:55:959
1966362,000000	2020-11-19T14:32:56:004
1965349,000000	2020-11-19T14:32:56:039
1964754,000000	2020-11-19T14:32:56:079
1963845,000000	2020-11-19T14:32:56:120
1962751,000000	2020-11-19T14:32:56:159
1961031,000000	2020-11-19T14:32:56:199
1959774,000000	2020-11-19T14:32:56:240
1958602,000000	2020-11-19T14:32:56:279
1958309,000000	2020-11-19T14:32:56:319
1958274,000000	2020-11-19T14:32:56:360
1958159,000000	2020-11-19T14:32:56:399
1958056,000000	2020-11-19T14:32:56:439
1958182,000000	2020-11-19T14:32:56:479
1958129,000000	2020-11-19T14:32:56:519
1958171,000000	2020-11-19T14:32:56:559
1956480,000000	2020-11-19T14:32:56:600
1952280,000000	2020-11-19T14:32:56:639
1948163,000000	2020-11-19T14:32:56:680
1944925,000000	2020-11-19T14:32:56:719
1943303,000000	2020-11-19T14:32:56:759
1942359,000000	2020-11-19T14:32:56:800
1941396,000000	2020-11-19T14:32:56:841
1940599,000000	2020-11-19T14:32:56:880
1938793,000000	2020-11-19T14:32:56:920
1937375,000000	2020-11-19T14:32:56:960
1935732,000000	2020-11-19T14:32:56:999
1934935,000000	2020-11-19T14:32:57:040
1934465,000000	2020-11-19T14:32:57:081
1934371,000000	2020-11-19T14:32:57:120
1934327,000000	2020-11-19T14:32:57:160
1934289,000000	2020-11-19T14:32:57:201
1934471,000000	2020-11-19T14:32:57:240
1934512,000000	2020-11-19T14:32:57:280
1934971,000000	2020-11-19T14:32:57:321
1932906,000000	2020-11-19T14:32:57:359
1928451,000000	2020-11-19T14:32:57:400
1924258,000000	2020-11-19T14:32:57:440
1920849,000000	2020-11-19T14:32:57:481
1919548,000000	2020-11-19T14:32:57:520
1918164,000000	2020-11-19T14:32:57:562
1917728,000000	2020-11-19T14:32:57:600
1916190,000000	2020-11-19T14:32:57:640
1914867,000000	2020-11-19T14:32:57:681
1913496,000000	2020-11-19T14:32:57:720
1912083,000000	2020-11-19T14:32:57:760
1911522,000000	2020-11-19T14:32:57:802
1911139,000000	2020-11-19T14:32:57:841
1911452,000000	2020-11-19T14:32:57:881
1911426,000000	2020-11-19T14:32:57:921
1911461,000000	2020-11-19T14:32:57:961
1911825,000000	2020-11-19T14:32:58:001
1912175,000000	2020-11-19T14:32:58:041
1912522,000000	2020-11-19T14:32:58:081
1912259,000000	2020-11-19T14:32:58:121
1908835,000000	2020-11-19T14:32:58:161
1904762,000000	2020-11-19T14:32:58:200
1901667,000000	2020-11-19T14:32:58:241
1899884,000000	2020-11-19T14:32:58:283
1899411,000000	2020-11-19T14:32:58:321
1898659,000000	2020-11-19T14:32:58:361
1897962,000000	2020-11-19T14:32:58:401
1896874,000000	2020-11-19T14:32:58:441
1895297,000000	2020-11-19T14:32:58:481
1894159,000000	2020-11-19T14:32:58:525
1893524,000000	2020-11-19T14:32:58:561
1893209,000000	2020-11-19T14:32:58:601
1893608,000000	2020-11-19T14:32:58:641
1893429,000000	2020-11-19T14:32:58:682
1893804,000000	2020-11-19T14:32:58:721
1894353,000000	2020-11-19T14:32:58:763
1895048,000000	2020-11-19T14:32:58:801
1895162,000000	2020-11-19T14:32:58:842
1895289,000000	2020-11-19T14:32:58:881
1892254,000000	2020-11-19T14:32:58:922
1888112,000000	2020-11-19T14:32:58:961
1885445,000000	2020-11-19T14:32:59:003
1883622,000000	2020-11-19T14:32:59:041
1883068,000000	2020-11-19T14:32:59:082
1882695,000000	2020-11-19T14:32:59:122
1882400,000000	2020-11-19T14:32:59:162
1881157,000000	2020-11-19T14:32:59:202
1880626,000000	2020-11-19T14:32:59:243
1879409,000000	2020-11-19T14:32:59:282
1879078,000000	2020-11-19T14:32:59:322
1879730,000000	2020-11-19T14:32:59:362
1879786,000000	2020-11-19T14:32:59:402
1880239,000000	2020-11-19T14:32:59:442
1881240,000000	2020-11-19T14:32:59:484
1881813,000000	2020-11-19T14:32:59:522
1882746,000000	2020-11-19T14:32:59:563
1883265,000000	2020-11-19T14:32:59:602
1884297,000000	2020-11-19T14:32:59:642
1883672,000000	2020-11-19T14:32:59:683
1880415,000000	2020-11-19T14:32:59:724
1877248,000000	2020-11-19T14:32:59:782
1875207,000000	2020-11-19T14:32:59:803
1874126,000000	2020-11-19T14:32:59:843
1873297,000000	2020-11-19T14:32:59:883
1873662,000000	2020-11-19T14:32:59:922
1873421,000000	2020-11-19T14:32:59:965
1873279,000000	2020-11-19T14:33:00:003
1872260,000000	2020-11-19T14:33:00:043
1871802,000000	2020-11-19T14:33:00:084
1872059,000000	2020-11-19T14:33:00:123
1872704,000000	2020-11-19T14:33:00:163
1873060,000000	2020-11-19T14:33:00:203
1874323,000000	2020-11-19T14:33:00:243
1875459,000000	2020-11-19T14:33:00:283
1876568,000000	2020-11-19T14:33:00:323
1877941,000000	2020-11-19T14:33:00:362
1878995,000000	2020-11-19T14:33:00:403
1880531,000000	2020-11-19T14:33:00:444
1880598,000000	2020-11-19T14:33:00:483
1878024,000000	2020-11-19T14:33:00:523
1875722,000000	2020-11-19T14:33:00:563
1873989,000000	2020-11-19T14:33:00:603
1873455,000000	2020-11-19T14:33:00:643
1873572,000000	2020-11-19T14:33:00:685
1874060,000000	2020-11-19T14:33:00:724
1874271,000000	2020-11-19T14:33:00:764
1874183,000000	2020-11-19T14:33:00:804
1874111,000000	2020-11-19T14:33:00:843
1874126,000000	2020-11-19T14:33:00:909
1874323,000000	2020-11-19T14:33:00:925
1874998,000000	2020-11-19T14:33:00:963
1875963,000000	2020-11-19T14:33:01:004
1877104,000000	2020-11-19T14:33:01:043
1878341,000000	2020-11-19T14:33:01:084
1879623,000000	2020-11-19T14:33:01:124
1881013,000000	2020-11-19T14:33:01:165
1882642,000000	2020-11-19T14:33:01:204
1883780,000000	2020-11-19T14:33:01:243
1883335,000000	2020-11-19T14:33:01:284
1880684,000000	2020-11-19T14:33:01:324
1878384,000000	2020-11-19T14:33:01:364
1877707,000000	2020-11-19T14:33:01:405
1877382,000000	2020-11-19T14:33:01:444
1877688,000000	2020-11-19T14:33:01:485
1878380,000000	2020-11-19T14:33:01:524
1878961,000000	2020-11-19T14:33:01:564
1878688,000000	2020-11-19T14:33:01:604
1878621,000000	2020-11-19T14:33:01:646
1878820,000000	2020-11-19T14:33:01:685
1879872,000000	2020-11-19T14:33:01:724
1880635,000000	2020-11-19T14:33:01:765
1881988,000000	2020-11-19T14:33:01:804
1883196,000000	2020-11-19T14:33:01:844
1884389,000000	2020-11-19T14:33:01:887
1886102,000000	2020-11-19T14:33:01:925
1887650,000000	2020-11-19T14:33:01:965
1889254,000000	2020-11-19T14:33:02:005
1890663,000000	2020-11-19T14:33:02:045
1889329,000000	2020-11-19T14:33:02:085
1886953,000000	2020-11-19T14:33:02:126
1884912,000000	2020-11-19T14:33:02:165
1884128,000000	2020-11-19T14:33:02:206
1884072,000000	2020-11-19T14:33:02:245
1884661,000000	2020-11-19T14:33:02:285
1885380,000000	2020-11-19T14:33:02:325
1886083,000000	2020-11-19T14:33:02:368
1886002,000000	2020-11-19T14:33:02:405
1886233,000000	2020-11-19T14:33:02:446
1886691,000000	2020-11-19T14:33:02:486
1887291,000000	2020-11-19T14:33:02:525
1888228,000000	2020-11-19T14:33:02:565
1889705,000000	2020-11-19T14:33:02:607
1891261,000000	2020-11-19T14:33:02:645
1892779,000000	2020-11-19T14:33:02:686
1894141,000000	2020-11-19T14:33:02:726
1895782,000000	2020-11-19T14:33:02:765
1897237,000000	2020-11-19T14:33:02:806
1898836,000000	2020-11-19T14:33:02:846
1898776,000000	2020-11-19T14:33:02:886
1896634,000000	2020-11-19T14:33:02:925
1894566,000000	2020-11-19T14:33:02:965
1893784,000000	2020-11-19T14:33:03:006
1894137,000000	2020-11-19T14:33:03:045
1894626,000000	2020-11-19T14:33:03:088
1895952,000000	2020-11-19T14:33:03:126
1896550,000000	2020-11-19T14:33:03:166
1896369,000000	2020-11-19T14:33:03:206
1896520,000000	2020-11-19T14:33:03:246
1896838,000000	2020-11-19T14:33:03:286
1897505,000000	2020-11-19T14:33:03:327
1898885,000000	2020-11-19T14:33:03:366
1899892,000000	2020-11-19T14:33:03:406
1901014,000000	2020-11-19T14:33:03:446
1902256,000000	2020-11-19T14:33:03:486
1903498,000000	2020-11-19T14:33:03:526
1904876,000000	2020-11-19T14:33:03:567
1906249,000000	2020-11-19T14:33:03:606
1905285,000000	2020-11-19T14:33:03:647
1903150,000000	2020-11-19T14:33:03:686
1901375,000000	2020-11-19T14:33:03:727
1901219,000000	2020-11-19T14:33:03:767
1901525,000000	2020-11-19T14:33:03:809
1902963,000000	2020-11-19T14:33:03:847
1903114,000000	2020-11-19T14:33:03:887
1903367,000000	2020-11-19T14:33:03:927
1902862,000000	2020-11-19T14:33:03:967
1903072,000000	2020-11-19T14:33:04:006
1903490,000000	2020-11-19T14:33:04:048
1904764,000000	2020-11-19T14:33:04:087
1905613,000000	2020-11-19T14:33:04:126
1906536,000000	2020-11-19T14:33:04:167
1907602,000000	2020-11-19T14:33:04:206
1908813,000000	2020-11-19T14:33:04:246
1910076,000000	2020-11-19T14:33:04:289
1911383,000000	2020-11-19T14:33:04:326
1912410,000000	2020-11-19T14:33:04:366
1912226,000000	2020-11-19T14:33:04:407
1909941,000000	2020-11-19T14:33:04:446
1906832,000000	2020-11-19T14:33:04:487
1905512,000000	2020-11-19T14:33:04:528
1904713,000000	2020-11-19T14:33:04:567
1904815,000000	2020-11-19T14:33:04:607
1905165,000000	2020-11-19T14:33:04:647
1904788,000000	2020-11-19T14:33:04:687
1904716,000000	2020-11-19T14:33:04:726
1903843,000000	2020-11-19T14:33:04:768
1903392,000000	2020-11-19T14:33:04:807
1903769,000000	2020-11-19T14:33:04:847
1904230,000000	2020-11-19T14:33:04:888
1904623,000000	2020-11-19T14:33:04:927
1905560,000000	2020-11-19T14:33:04:968
1906559,000000	2020-11-19T14:33:05:009
1907424,000000	2020-11-19T14:33:05:055
1908615,000000	2020-11-19T14:33:05:088
1909621,000000	2020-11-19T14:33:05:128
1910730,000000	2020-11-19T14:33:05:168
1910954,000000	2020-11-19T14:33:05:207
1908560,000000	2020-11-19T14:33:05:251
1905395,000000	2020-11-19T14:33:05:288
1903555,000000	2020-11-19T14:33:05:328
1902613,000000	2020-11-19T14:33:05:368
1902128,000000	2020-11-19T14:33:05:408
1902616,000000	2020-11-19T14:33:05:448
1902353,000000	2020-11-19T14:33:05:491
1902001,000000	2020-11-19T14:33:05:528
1901173,000000	2020-11-19T14:33:05:568
1900958,000000	2020-11-19T14:33:05:608
1900979,000000	2020-11-19T14:33:05:648
1901366,000000	2020-11-19T14:33:05:688
1901923,000000	2020-11-19T14:33:05:729
1902564,000000	2020-11-19T14:33:05:768
1903081,000000	2020-11-19T14:33:05:808
1903949,000000	2020-11-19T14:33:05:848
1904631,000000	2020-11-19T14:33:05:890
1905410,000000	2020-11-19T14:33:05:928
1905767,000000	2020-11-19T14:33:05:970
1903600,000000	2020-11-19T14:33:06:012
1900362,000000	2020-11-19T14:33:06:049
1898144,000000	2020-11-19T14:33:06:089
1897036,000000	2020-11-19T14:33:06:129
1896713,000000	2020-11-19T14:33:06:169
1896572,000000	2020-11-19T14:33:06:211
1896790,000000	2020-11-19T14:33:06:249
1896367,000000	2020-11-19T14:33:06:289
1895552,000000	2020-11-19T14:33:06:329
1894841,000000	2020-11-19T14:33:06:369
1894851,000000	2020-11-19T14:33:06:409
1895283,000000	2020-11-19T14:33:06:451
1895912,000000	2020-11-19T14:33:06:490
1896215,000000	2020-11-19T14:33:06:529
1897088,000000	2020-11-19T14:33:06:569
1897981,000000	2020-11-19T14:33:06:609
1898889,000000	2020-11-19T14:33:06:649
1899872,000000	2020-11-19T14:33:06:691
1900430,000000	2020-11-19T14:33:06:730
1899119,000000	2020-11-19T14:33:06:770
1895227,000000	2020-11-19T14:33:06:810
1892279,000000	2020-11-19T14:33:06:849
1890256,000000	2020-11-19T14:33:06:890
1889585,000000	2020-11-19T14:33:06:931
1889440,000000	2020-11-19T14:33:06:970
1889191,000000	2020-11-19T14:33:07:009
1888687,000000	2020-11-19T14:33:07:050
1888039,000000	2020-11-19T14:33:07:090
1886808,000000	2020-11-19T14:33:07:130
1886539,000000	2020-11-19T14:33:07:178
1886339,000000	2020-11-19T14:33:07:211
1886954,000000	2020-11-19T14:33:07:250
1887346,000000	2020-11-19T14:33:07:290
1888026,000000	2020-11-19T14:33:07:330
1888464,000000	2020-11-19T14:33:07:370
1889502,000000	2020-11-19T14:33:07:411
1890305,000000	2020-11-19T14:33:07:450
1891101,000000	2020-11-19T14:33:07:490
1890896,000000	2020-11-19T14:33:07:530
1888187,000000	2020-11-19T14:33:07:570
1884415,000000	2020-11-19T14:33:07:610
1882411,000000	2020-11-19T14:33:07:652
1880953,000000	2020-11-19T14:33:07:691
1880500,000000	2020-11-19T14:33:07:730
1880280,000000	2020-11-19T14:33:07:770
1880178,000000	2020-11-19T14:33:07:810
1879383,000000	2020-11-19T14:33:07:850
1878181,000000	2020-11-19T14:33:07:892
1877998,000000	2020-11-19T14:33:07:930
1877770,000000	2020-11-19T14:33:07:970
1877548,000000	2020-11-19T14:33:08:011
1878411,000000	2020-11-19T14:33:08:051
1878842,000000	2020-11-19T14:33:08:092
1879497,000000	2020-11-19T14:33:08:131
1880359,000000	2020-11-19T14:33:08:171
1881056,000000	2020-11-19T14:33:08:211
1881876,000000	2020-11-19T14:33:08:251
1882918,000000	2020-11-19T14:33:08:291
1881823,000000	2020-11-19T14:33:08:331
1878666,000000	2020-11-19T14:33:08:373
1875851,000000	2020-11-19T14:33:08:411
1874022,000000	2020-11-19T14:33:08:451
1873491,000000	2020-11-19T14:33:08:491
1873466,000000	2020-11-19T14:33:08:530
1873589,000000	2020-11-19T14:33:08:571
1873108,000000	2020-11-19T14:33:08:612
1871966,000000	2020-11-19T14:33:08:651
1871384,000000	2020-11-19T14:33:08:691
1871023,000000	2020-11-19T14:33:08:731
1871156,000000	2020-11-19T14:33:08:771
1871957,000000	2020-11-19T14:33:08:811
1872504,000000	2020-11-19T14:33:08:853
1873104,000000	2020-11-19T14:33:08:892
1874274,000000	2020-11-19T14:33:08:931
1874916,000000	2020-11-19T14:33:08:971
1875565,000000	2020-11-19T14:33:09:011
1876926,000000	2020-11-19T14:33:09:051
1876942,000000	2020-11-19T14:33:09:093
1874582,000000	2020-11-19T14:33:09:132
1871045,000000	2020-11-19T14:33:09:172
1869087,000000	2020-11-19T14:33:09:212
1868009,000000	2020-11-19T14:33:09:252
1867646,000000	2020-11-19T14:33:09:292
1867890,000000	2020-11-19T14:33:09:334
1867672,000000	2020-11-19T14:33:09:372
1867238,000000	2020-11-19T14:33:09:411
1866827,000000	2020-11-19T14:33:09:452
1866169,000000	2020-11-19T14:33:09:492
1866410,000000	2020-11-19T14:33:09:532
1866752,000000	2020-11-19T14:33:09:574
1867552,000000	2020-11-19T14:33:09:612
1868220,000000	2020-11-19T14:33:09:652
1869147,000000	2020-11-19T14:33:09:693
1870236,000000	2020-11-19T14:33:09:732
1871178,000000	2020-11-19T14:33:09:773
1872346,000000	2020-11-19T14:33:09:814
1873302,000000	2020-11-19T14:33:09:852
1873896,000000	2020-11-19T14:33:09:893
1871306,000000	2020-11-19T14:33:09:933
1868516,000000	2020-11-19T14:33:09:972
1866194,000000	2020-11-19T14:33:10:015
1865384,000000	2020-11-19T14:33:10:055
1865415,000000	2020-11-19T14:33:10:093
1865291,000000	2020-11-19T14:33:10:132
1865798,000000	2020-11-19T14:33:10:173
1865280,000000	2020-11-19T14:33:10:213
1865093,000000	2020-11-19T14:33:10:252
1864917,000000	2020-11-19T14:33:10:296
1865230,000000	2020-11-19T14:33:10:333
1865545,000000	2020-11-19T14:33:10:373
1866756,000000	2020-11-19T14:33:10:413
1867794,000000	2020-11-19T14:33:10:453
1868762,000000	2020-11-19T14:33:10:494
1870039,000000	2020-11-19T14:33:10:535
1871663,000000	2020-11-19T14:33:10:573
1872750,000000	2020-11-19T14:33:10:613
1874347,000000	2020-11-19T14:33:10:654
1875403,000000	2020-11-19T14:33:10:693
1874307,000000	2020-11-19T14:33:10:733
1871903,000000	2020-11-19T14:33:10:775
1869452,000000	2020-11-19T14:33:10:813
1868914,000000	2020-11-19T14:33:10:853
1868501,000000	2020-11-19T14:33:10:919
1869682,000000	2020-11-19T14:33:10:933
1869949,000000	2020-11-19T14:33:10:973
1870394,000000	2020-11-19T14:33:11:015
1870203,000000	2020-11-19T14:33:11:054
1870095,000000	2020-11-19T14:33:11:095
1870502,000000	2020-11-19T14:33:11:133
1871202,000000	2020-11-19T14:33:11:174
1872150,000000	2020-11-19T14:33:11:213
1873376,000000	2020-11-19T14:33:11:256
1874705,000000	2020-11-19T14:33:11:294
1875926,000000	2020-11-19T14:33:11:333
1877145,000000	2020-11-19T14:33:11:374
1878867,000000	2020-11-19T14:33:11:413
1880419,000000	2020-11-19T14:33:11:454
1881696,000000	2020-11-19T14:33:11:496
1880427,000000	2020-11-19T14:33:11:534
1877894,000000	2020-11-19T14:33:11:574
1875828,000000	2020-11-19T14:33:11:614
1875138,000000	2020-11-19T14:33:11:654
1875182,000000	2020-11-19T14:33:11:695
1875717,000000	2020-11-19T14:33:11:735
1876232,000000	2020-11-19T14:33:11:775
1876650,000000	2020-11-19T14:33:11:814
1876653,000000	2020-11-19T14:33:11:854
1876801,000000	2020-11-19T14:33:11:895
1877134,000000	2020-11-19T14:33:11:934
1877600,000000	2020-11-19T14:33:11:974
1878767,000000	2020-11-19T14:33:12:014
1879774,000000	2020-11-19T14:33:12:055
1881007,000000	2020-11-19T14:33:12:095
1882557,000000	2020-11-19T14:33:12:134
1883952,000000	2020-11-19T14:33:12:175
1885345,000000	2020-11-19T14:33:12:217
1886855,000000	2020-11-19T14:33:12:255
1888336,000000	2020-11-19T14:33:12:294
1889495,000000	2020-11-19T14:33:12:335
1887684,000000	2020-11-19T14:33:12:375
1885163,000000	2020-11-19T14:33:12:415
1883358,000000	2020-11-19T14:33:12:456
1882834,000000	2020-11-19T14:33:12:495
1883350,000000	2020-11-19T14:33:12:534
1884197,000000	2020-11-19T14:33:12:575
1884915,000000	2020-11-19T14:33:12:614
1885072,000000	2020-11-19T14:33:12:655
1884974,000000	2020-11-19T14:33:12:697
1885115,000000	2020-11-19T14:33:12:735
1885526,000000	2020-11-19T14:33:12:776
1886328,000000	2020-11-19T14:33:12:815
1887453,000000	2020-11-19T14:33:12:855
1888842,000000	2020-11-19T14:33:12:896
1889978,000000	2020-11-19T14:33:12:937
1891809,000000	2020-11-19T14:33:12:976
1893012,000000	2020-11-19T14:33:13:015
1894751,000000	2020-11-19T14:33:13:056
1895961,000000	2020-11-19T14:33:13:096
1897922,000000	2020-11-19T14:33:13:136
1897188,000000	2020-11-19T14:33:13:177
1895030,000000	2020-11-19T14:33:13:215
1893199,000000	2020-11-19T14:33:13:256
1891989,000000	2020-11-19T14:33:13:296
1892513,000000	2020-11-19T14:33:13:336
1893290,000000	2020-11-19T14:33:13:376
1893819,000000	2020-11-19T14:33:13:417
1894458,000000	2020-11-19T14:33:13:456
1894421,000000	2020-11-19T14:33:13:496
1894108,000000	2020-11-19T14:33:13:536
1894107,000000	2020-11-19T14:33:13:576
1895174,000000	2020-11-19T14:33:13:616
1895817,000000	2020-11-19T14:33:13:657
1896893,000000	2020-11-19T14:33:13:696
1898151,000000	2020-11-19T14:33:13:736
1899539,000000	2020-11-19T14:33:13:775
1900800,000000	2020-11-19T14:33:13:816
1902014,000000	2020-11-19T14:33:13:856
1903236,000000	2020-11-19T14:33:13:898
1903801,000000	2020-11-19T14:33:13:936
1901469,000000	2020-11-19T14:33:13:977
1898606,000000	2020-11-19T14:33:14:016
1897126,000000	2020-11-19T14:33:14:056
1896702,000000	2020-11-19T14:33:14:097
1896924,000000	2020-11-19T14:33:14:138
1897432,000000	2020-11-19T14:33:14:177
1898061,000000	2020-11-19T14:33:14:217
1897997,000000	2020-11-19T14:33:14:256
1897838,000000	2020-11-19T14:33:14:297
1897461,000000	2020-11-19T14:33:14:336
1898034,000000	2020-11-19T14:33:14:377
1898627,000000	2020-11-19T14:33:14:417
1899212,000000	2020-11-19T14:33:14:457
1900484,000000	2020-11-19T14:33:14:497
1901242,000000	2020-11-19T14:33:14:537
1902420,000000	2020-11-19T14:33:14:577
1903437,000000	2020-11-19T14:33:14:619
1905043,000000	2020-11-19T14:33:14:657
1906058,000000	2020-11-19T14:33:14:697
1904565,000000	2020-11-19T14:33:14:737
1901132,000000	2020-11-19T14:33:14:777
1898504,000000	2020-11-19T14:33:14:817
1897527,000000	2020-11-19T14:33:14:859
1897110,000000	2020-11-19T14:33:14:898
1896826,000000	2020-11-19T14:33:14:938
1897142,000000	2020-11-19T14:33:14:978
1896936,000000	2020-11-19T14:33:15:017
1896514,000000	2020-11-19T14:33:15:058
1896104,000000	2020-11-19T14:33:15:099
1895861,000000	2020-11-19T14:33:15:138
1896317,000000	2020-11-19T14:33:15:178
1896745,000000	2020-11-19T14:33:15:218
1897658,000000	2020-11-19T14:33:15:258
1898080,000000	2020-11-19T14:33:15:298
1899300,000000	2020-11-19T14:33:15:338
1899910,000000	2020-11-19T14:33:15:378
1901247,000000	2020-11-19T14:33:15:418
1902268,000000	2020-11-19T14:33:15:458
1902219,000000	2020-11-19T14:33:15:498
1899412,000000	2020-11-19T14:33:15:538
1896243,000000	2020-11-19T14:33:15:579
1894003,000000	2020-11-19T14:33:15:618
1892992,000000	2020-11-19T14:33:15:658
1892689,000000	2020-11-19T14:33:15:698
1892808,000000	2020-11-19T14:33:15:738
1892875,000000	2020-11-19T14:33:15:778
