x	y	z	ts
-1,050000	2,800000	-0,630000	2020-11-19T14:31:12:668
-7,560000	-30,240000	3,430000	2020-11-19T14:31:12:669
0,350000	1,820000	-0,980000	2020-11-19T14:31:12:669
-0,770000	1,470000	-0,770000	2020-11-19T14:31:12:669
-2,380000	0,980000	-0,700000	2020-11-19T14:31:12:670
-1,540000	0,910000	-0,560000	2020-11-19T14:31:12:670
1,050000	1,120000	-0,140000	2020-11-19T14:31:12:676
0,140000	0,840000	0,210000	2020-11-19T14:31:12:697
-3,500000	0,070000	3,010000	2020-11-19T14:31:12:717
-3,710000	0,280000	1,400000	2020-11-19T14:31:12:737
-2,450000	0,630000	1,820000	2020-11-19T14:31:12:769
-3,080000	0,280000	2,100000	2020-11-19T14:31:12:779
-2,730000	0,280000	2,450000	2020-11-19T14:31:12:798
-1,750000	0,490000	2,100000	2020-11-19T14:31:12:817
-2,380000	0,630000	1,260000	2020-11-19T14:31:12:838
-6,090000	1,400000	2,240000	2020-11-19T14:31:12:857
-7,140000	1,120000	0,700000	2020-11-19T14:31:12:877
-2,030000	2,800000	0,770000	2020-11-19T14:31:12:897
2,660000	3,500000	-0,070000	2020-11-19T14:31:12:918
-1,470000	3,780000	0,630000	2020-11-19T14:31:12:937
-5,880000	3,780000	0,490000	2020-11-19T14:31:12:958
-5,530000	2,870000	0,350000	2020-11-19T14:31:12:978
-4,060000	2,520000	0,420000	2020-11-19T14:31:12:998
-1,400000	2,240000	0,280000	2020-11-19T14:31:13:017
1,260000	2,380000	-0,140000	2020-11-19T14:31:13:039
-1,470000	2,030000	-1,190000	2020-11-19T14:31:13:058
-2,940000	3,290000	-0,910000	2020-11-19T14:31:13:077
-0,350000	3,920000	-1,120000	2020-11-19T14:31:13:097
-0,140000	4,270000	0,070000	2020-11-19T14:31:13:118
-4,130000	3,780000	0,560000	2020-11-19T14:31:13:137
-6,370000	3,150000	0,630000	2020-11-19T14:31:13:158
-8,400000	2,660000	0,630000	2020-11-19T14:31:13:178
-9,870000	1,960000	1,050000	2020-11-19T14:31:13:198
-5,460000	1,890000	1,540000	2020-11-19T14:31:13:217
-5,460000	2,240000	1,890000	2020-11-19T14:31:13:238
-5,950000	1,820000	1,890000	2020-11-19T14:31:13:257
-7,070000	2,520000	3,570000	2020-11-19T14:31:13:277
-3,780000	2,590000	6,020000	2020-11-19T14:31:13:297
-1,960000	1,750000	2,870000	2020-11-19T14:31:13:319
-7,280000	1,890000	2,940000	2020-11-19T14:31:13:337
-13,650000	1,890000	2,520000	2020-11-19T14:31:13:358
-16,940001	2,800000	2,030000	2020-11-19T14:31:13:378
-9,520000	3,780000	2,240000	2020-11-19T14:31:13:398
3,920000	5,600000	2,660000	2020-11-19T14:31:13:417
6,440000	6,090000	3,360000	2020-11-19T14:31:13:438
-2,030000	4,900000	3,010000	2020-11-19T14:31:13:457
-8,330000	4,200000	2,800000	2020-11-19T14:31:13:478
-10,220000	3,920000	3,500000	2020-11-19T14:31:13:498
-15,960000	4,060000	5,320000	2020-11-19T14:31:13:519
-30,030001	4,200000	7,840000	2020-11-19T14:31:13:538
-49,700001	3,920000	11,200000	2020-11-19T14:31:13:559
-69,720001	2,170000	14,770000	2020-11-19T14:31:13:578
-86,099998	-0,560000	15,820000	2020-11-19T14:31:13:599
-103,320000	-2,730000	19,180000	2020-11-19T14:31:13:617
-128,520004	-7,070000	19,110001	2020-11-19T14:31:13:638
-158,479996	-10,710000	20,860001	2020-11-19T14:31:13:657
-185,639999	-17,080000	22,540001	2020-11-19T14:31:13:678
-200,690002	-24,639999	19,740000	2020-11-19T14:31:13:698
-195,860001	-30,380001	20,930000	2020-11-19T14:31:13:719
-189,630005	-32,410000	21,420000	2020-11-19T14:31:13:737
-197,610001	-33,950001	23,170000	2020-11-19T14:31:13:759
-230,509995	-36,959999	18,760000	2020-11-19T14:31:13:779
-291,760010	-40,670002	9,030000	2020-11-19T14:31:13:799
-328,929993	-44,380001	-0,910000	2020-11-19T14:31:13:817
-334,320007	-48,580002	-8,540000	2020-11-19T14:31:14:019
-342,510010	-49,420002	-12,670000	2020-11-19T14:31:14:023
-409,850006	-50,470001	-15,960000	2020-11-19T14:31:14:055
-531,859985	-57,750000	-14,140000	2020-11-19T14:31:14:062
-593,669983	-60,130001	-8,470000	2020-11-19T14:31:14:063
-508,269989	-56,630001	-11,340000	2020-11-19T14:31:14:064
-349,440002	-48,369999	-13,580000	2020-11-19T14:31:14:064
-197,050003	-45,430000	-14,980000	2020-11-19T14:31:14:065
-70,699997	-40,740002	-10,500000	2020-11-19T14:31:14:067
2,310000	-35,070000	-1,820000	2020-11-19T14:31:14:068
13,720000	-24,920000	14,560000	2020-11-19T14:31:14:068
10,360000	-12,320000	23,590000	2020-11-19T14:31:14:069
20,510000	1,960000	30,030001	2020-11-19T14:31:14:079
60,200001	12,740000	30,520000	2020-11-19T14:31:14:098
112,840004	19,600000	27,930000	2020-11-19T14:31:14:120
132,580002	28,490000	18,270000	2020-11-19T14:31:14:138
119,770004	36,680000	9,940000	2020-11-19T14:31:14:161
108,989998	45,920002	4,200000	2020-11-19T14:31:14:180
110,739998	50,189999	-1,610000	2020-11-19T14:31:14:201
110,040001	49,070000	-5,740000	2020-11-19T14:31:14:219
94,080002	44,170002	-9,170000	2020-11-19T14:31:14:241
56,840000	37,660000	-7,910000	2020-11-19T14:31:14:261
22,120001	32,060001	-1,820000	2020-11-19T14:31:14:280
2,590000	27,860001	6,930000	2020-11-19T14:31:14:300
5,110000	25,129999	15,820000	2020-11-19T14:31:14:321
34,439999	23,799999	21,700001	2020-11-19T14:31:14:340
32,270000	22,120001	15,680000	2020-11-19T14:31:14:361
47,950001	17,500000	10,080000	2020-11-19T14:31:14:381
50,470001	14,000000	5,600000	2020-11-19T14:31:14:401
53,340000	10,220000	2,730000	2020-11-19T14:31:14:420
87,919998	11,480000	3,500000	2020-11-19T14:31:14:443
133,419998	12,250000	-0,770000	2020-11-19T14:31:14:467
147,979996	9,450000	-6,720000	2020-11-19T14:31:14:482
121,169998	3,570000	-13,020000	2020-11-19T14:31:14:517
65,519997	3,150000	-18,480000	2020-11-19T14:31:14:524
22,680000	8,750000	-22,680000	2020-11-19T14:31:14:544
21,070000	10,360000	-13,580000	2020-11-19T14:31:14:579
37,450001	14,280000	-6,720000	2020-11-19T14:31:14:581
49,700001	21,700001	-8,820000	2020-11-19T14:31:14:601
50,049999	27,790001	-16,590000	2020-11-19T14:31:14:631
38,570000	33,320000	-20,090000	2020-11-19T14:31:14:644
28,980000	33,389999	-11,410000	2020-11-19T14:31:14:664
26,600000	28,840000	-10,640000	2020-11-19T14:31:14:682
43,540001	25,549999	-6,930000	2020-11-19T14:31:14:701
33,110001	21,210001	-6,160000	2020-11-19T14:31:14:722
13,860000	17,850000	-10,640000	2020-11-19T14:31:14:743
29,680000	12,110000	-0,700000	2020-11-19T14:31:14:762
21,770000	8,260000	2,170000	2020-11-19T14:31:14:781
22,960001	8,050000	7,910000	2020-11-19T14:31:14:802
28,770000	4,200000	13,090000	2020-11-19T14:31:14:821
9,520000	-0,350000	14,490000	2020-11-19T14:31:14:843
-11,690000	-1,890000	15,890000	2020-11-19T14:31:14:861
-24,639999	-1,610000	16,450001	2020-11-19T14:31:14:883
-28,420000	-0,140000	16,590000	2020-11-19T14:31:14:900
-27,090000	5,460000	14,420000	2020-11-19T14:31:14:922
-20,299999	9,730000	9,660000	2020-11-19T14:31:14:941
-6,790000	13,440001	6,860000	2020-11-19T14:31:14:963
3,150000	16,240000	2,170000	2020-11-19T14:31:14:982
5,810000	16,030001	3,290000	2020-11-19T14:31:15:003
3,290000	9,730000	8,610000	2020-11-19T14:31:15:021
10,430000	-6,860000	12,600000	2020-11-19T14:31:15:043
-15,470000	-4,970000	5,600000	2020-11-19T14:31:15:061
-29,260000	2,170000	2,520000	2020-11-19T14:31:15:083
-15,750000	-1,120000	1,260000	2020-11-19T14:31:15:101
-3,640000	-1,540000	-2,380000	2020-11-19T14:31:15:123
4,340000	1,890000	-2,310000	2020-11-19T14:31:15:140
2,170000	3,010000	-2,310000	2020-11-19T14:31:15:163
-3,850000	7,980000	-0,350000	2020-11-19T14:31:15:181
-4,760000	13,790000	2,870000	2020-11-19T14:31:15:203
-2,940000	17,290001	6,720000	2020-11-19T14:31:15:222
-8,330000	19,530001	11,620000	2020-11-19T14:31:15:243
-18,340000	16,590000	12,040000	2020-11-19T14:31:15:262
-19,530001	11,690000	9,800000	2020-11-19T14:31:15:283
-12,810000	6,440000	2,940000	2020-11-19T14:31:15:301
-10,990000	3,920000	-2,100000	2020-11-19T14:31:15:323
-13,230000	1,680000	-3,850000	2020-11-19T14:31:15:341
-14,210000	-0,490000	-5,810000	2020-11-19T14:31:15:363
-11,900000	-0,420000	-8,050000	2020-11-19T14:31:15:382
-9,240000	3,920000	-4,760000	2020-11-19T14:31:15:404
-3,570000	6,860000	-2,450000	2020-11-19T14:31:15:423
5,740000	9,800000	-0,700000	2020-11-19T14:31:15:444
5,880000	9,380000	0,420000	2020-11-19T14:31:15:461
-5,110000	6,860000	1,890000	2020-11-19T14:31:15:484
-12,530000	1,400000	2,940000	2020-11-19T14:31:15:501
-8,680000	-1,190000	1,820000	2020-11-19T14:31:15:523
-2,380000	0,630000	4,060000	2020-11-19T14:31:15:542
-11,690000	0,350000	7,490000	2020-11-19T14:31:15:563
-8,260000	-1,050000	6,440000	2020-11-19T14:31:15:582
3,710000	-2,310000	1,960000	2020-11-19T14:31:15:603
9,030000	-4,270000	-7,420000	2020-11-19T14:31:15:622
7,350000	-4,900000	-13,580000	2020-11-19T14:31:15:644
6,720000	-6,090000	-13,930000	2020-11-19T14:31:15:661
12,110000	-2,800000	-15,400000	2020-11-19T14:31:15:684
15,750000	2,940000	-13,650000	2020-11-19T14:31:15:703
16,030001	6,720000	-12,250000	2020-11-19T14:31:15:724
19,040001	9,100000	-10,780000	2020-11-19T14:31:15:742
20,719999	12,880000	-6,440000	2020-11-19T14:31:15:764
13,860000	10,080000	-1,190000	2020-11-19T14:31:15:783
4,760000	8,820000	4,060000	2020-11-19T14:31:15:804
-3,710000	6,090000	9,100000	2020-11-19T14:31:15:821
-9,800000	3,010000	10,850000	2020-11-19T14:31:15:844
-17,150000	0,280000	9,590000	2020-11-19T14:31:15:862
-21,910000	-1,680000	6,440000	2020-11-19T14:31:15:885
-20,860001	-4,690000	3,500000	2020-11-19T14:31:15:902
-16,870001	-7,490000	0,840000	2020-11-19T14:31:15:924
-10,710000	-8,680000	-0,070000	2020-11-19T14:31:15:943
-2,310000	-9,240000	0,140000	2020-11-19T14:31:15:964
0,210000	-11,970000	0,910000	2020-11-19T14:31:15:986
-13,860000	-16,170000	3,150000	2020-11-19T14:31:16:008
-28,559999	-19,320000	8,470000	2020-11-19T14:31:16:022
-41,160000	-20,930000	11,970000	2020-11-19T14:31:16:043
-57,750000	-17,639999	10,150000	2020-11-19T14:31:16:063
-67,059998	-16,030001	7,770000	2020-11-19T14:31:16:084
-57,119999	-11,270000	4,550000	2020-11-19T14:31:16:102
-34,439999	-5,950000	7,980000	2020-11-19T14:31:16:125
-21,559999	-5,110000	8,050000	2020-11-19T14:31:16:142
-25,549999	-5,670000	1,890000	2020-11-19T14:31:16:164
-21,629999	-7,490000	0,350000	2020-11-19T14:31:16:184
-7,420000	-8,680000	-2,240000	2020-11-19T14:31:16:204
3,080000	-6,580000	-5,110000	2020-11-19T14:31:16:221
8,890000	-4,620000	-4,690000	2020-11-19T14:31:16:244
22,750000	-3,570000	0,420000	2020-11-19T14:31:16:262
31,430000	-2,660000	4,900000	2020-11-19T14:31:16:288
23,379999	-1,680000	9,240000	2020-11-19T14:31:16:308
6,020000	0,560000	10,990000	2020-11-19T14:31:16:326
1,190000	3,360000	8,960000	2020-11-19T14:31:16:342
7,000000	2,660000	9,380000	2020-11-19T14:31:16:366
11,200000	2,380000	4,480000	2020-11-19T14:31:16:381
8,330000	1,960000	0,280000	2020-11-19T14:31:16:405
5,390000	1,260000	-1,120000	2020-11-19T14:31:16:426
5,530000	1,330000	0,420000	2020-11-19T14:31:16:444
5,390000	1,540000	1,680000	2020-11-19T14:31:16:463
4,480000	2,170000	3,220000	2020-11-19T14:31:16:485
-1,190000	2,660000	3,360000	2020-11-19T14:31:16:502
-4,970000	2,590000	2,940000	2020-11-19T14:31:16:526
-4,900000	2,940000	2,870000	2020-11-19T14:31:16:542
-2,870000	3,080000	2,870000	2020-11-19T14:31:16:566
-1,260000	3,220000	3,010000	2020-11-19T14:31:16:582
-1,120000	3,360000	3,360000	2020-11-19T14:31:16:605
-5,040000	3,570000	3,500000	2020-11-19T14:31:16:622
-13,860000	3,290000	4,480000	2020-11-19T14:31:16:644
-20,790001	3,220000	5,670000	2020-11-19T14:31:16:664
-22,190001	3,150000	6,720000	2020-11-19T14:31:16:685
-20,299999	3,010000	6,580000	2020-11-19T14:31:16:702
-15,960000	2,870000	4,900000	2020-11-19T14:31:16:724
-11,480000	2,590000	2,450000	2020-11-19T14:31:16:742
-7,280000	2,730000	0,280000	2020-11-19T14:31:16:765
-4,830000	2,450000	-1,400000	2020-11-19T14:31:16:783
-2,450000	2,450000	-2,100000	2020-11-19T14:31:16:804
-0,770000	2,590000	-1,190000	2020-11-19T14:31:16:821
-0,140000	2,450000	-0,070000	2020-11-19T14:31:16:844
-2,940000	1,470000	0,700000	2020-11-19T14:31:16:861
-9,730000	-0,070000	0,770000	2020-11-19T14:31:16:883
-14,070000	-1,750000	1,120000	2020-11-19T14:31:16:902
-12,460000	-2,380000	0,980000	2020-11-19T14:31:16:924
-5,950000	-2,100000	0,770000	2020-11-19T14:31:16:941
1,960000	-1,190000	0,630000	2020-11-19T14:31:16:963
7,840000	-0,560000	1,120000	2020-11-19T14:31:16:982
10,220000	-0,070000	1,540000	2020-11-19T14:31:17:003
8,050000	-0,210000	2,310000	2020-11-19T14:31:17:021
4,550000	-0,280000	2,800000	2020-11-19T14:31:17:043
2,450000	0,070000	2,100000	2020-11-19T14:31:17:062
2,380000	0,560000	0,770000	2020-11-19T14:31:17:085
2,800000	1,260000	-0,210000	2020-11-19T14:31:17:102
0,280000	1,190000	-1,400000	2020-11-19T14:31:17:123
-2,100000	1,120000	-2,170000	2020-11-19T14:31:17:143
-3,080000	1,190000	-2,450000	2020-11-19T14:31:17:164
-2,100000	1,610000	-2,240000	2020-11-19T14:31:17:191
0,350000	1,820000	-1,890000	2020-11-19T14:31:17:203
1,890000	2,170000	-1,540000	2020-11-19T14:31:17:380
2,800000	2,590000	-1,330000	2020-11-19T14:31:17:432
3,150000	2,870000	-1,470000	2020-11-19T14:31:17:475
2,450000	3,010000	-1,330000	2020-11-19T14:31:17:502
2,450000	2,800000	-0,770000	2020-11-19T14:31:17:502
-1,190000	2,380000	-0,210000	2020-11-19T14:31:17:503
0,140000	1,890000	0,350000	2020-11-19T14:31:17:505
0,910000	1,470000	0,910000	2020-11-19T14:31:17:506
0,770000	1,120000	1,540000	2020-11-19T14:31:17:506
1,190000	0,840000	1,890000	2020-11-19T14:31:17:507
2,520000	0,700000	1,610000	2020-11-19T14:31:17:507
3,290000	0,700000	0,700000	2020-11-19T14:31:17:507
4,270000	1,330000	-0,280000	2020-11-19T14:31:17:508
6,090000	1,890000	-1,120000	2020-11-19T14:31:17:508
6,650000	2,380000	-1,330000	2020-11-19T14:31:17:508
4,270000	2,380000	-0,980000	2020-11-19T14:31:17:524
0,350000	2,240000	0,210000	2020-11-19T14:31:17:542
-0,980000	2,100000	0,560000	2020-11-19T14:31:17:564
-0,980000	1,960000	0,700000	2020-11-19T14:31:17:582
-0,140000	1,750000	0,770000	2020-11-19T14:31:17:604
1,470000	1,750000	0,700000	2020-11-19T14:31:17:621
3,080000	1,750000	0,420000	2020-11-19T14:31:17:644
3,290000	1,470000	0,070000	2020-11-19T14:31:17:661
3,010000	1,260000	-0,140000	2020-11-19T14:31:17:685
2,660000	0,980000	-0,210000	2020-11-19T14:31:17:703
2,030000	0,630000	-0,210000	2020-11-19T14:31:17:724
1,890000	0,560000	-0,210000	2020-11-19T14:31:17:741
2,310000	0,560000	-0,560000	2020-11-19T14:31:17:766
2,310000	0,700000	-0,980000	2020-11-19T14:31:17:783
1,750000	0,840000	-1,260000	2020-11-19T14:31:17:806
1,540000	1,050000	-1,400000	2020-11-19T14:31:17:823
2,450000	1,470000	-1,260000	2020-11-19T14:31:17:846
3,570000	1,820000	-1,120000	2020-11-19T14:31:17:864
4,690000	2,170000	-0,700000	2020-11-19T14:31:17:885
6,440000	2,310000	-0,840000	2020-11-19T14:31:17:903
6,510000	2,730000	-0,910000	2020-11-19T14:31:17:926
5,390000	2,940000	-0,280000	2020-11-19T14:31:17:944
11,060000	4,900000	1,750000	2020-11-19T14:31:17:966
20,580000	7,700000	3,220000	2020-11-19T14:31:18:006
25,340000	9,450000	3,780000	2020-11-19T14:31:18:046
24,920000	9,450000	3,360000	2020-11-19T14:31:18:111
22,540001	7,910000	2,730000	2020-11-19T14:31:18:111
17,850000	5,250000	2,240000	2020-11-19T14:31:18:112
5,740000	4,340000	-1,330000	2020-11-19T14:31:18:112
6,020000	0,210000	1,960000	2020-11-19T14:31:18:113
1,890000	-0,630000	0,350000	2020-11-19T14:31:18:166
0,350000	-0,560000	0,420000	2020-11-19T14:31:18:167
0,210000	-0,490000	-0,140000	2020-11-19T14:31:18:167
0,630000	-0,140000	-0,280000	2020-11-19T14:31:18:183
0,910000	0,280000	-0,560000	2020-11-19T14:31:18:204
1,470000	0,630000	-0,840000	2020-11-19T14:31:18:223
1,190000	0,560000	-1,050000	2020-11-19T14:31:18:245
1,540000	0,840000	-0,910000	2020-11-19T14:31:18:262
2,380000	1,190000	-0,490000	2020-11-19T14:31:18:286
2,590000	1,820000	-0,210000	2020-11-19T14:31:18:303
3,080000	1,890000	-0,140000	2020-11-19T14:31:18:329
3,780000	2,100000	-0,070000	2020-11-19T14:31:18:346
3,640000	1,820000	0,140000	2020-11-19T14:31:18:365
3,990000	1,680000	0,070000	2020-11-19T14:31:18:384
3,990000	1,890000	0,350000	2020-11-19T14:31:18:406
4,900000	2,870000	1,680000	2020-11-19T14:31:18:424
4,060000	3,150000	2,730000	2020-11-19T14:31:18:445
0,910000	2,590000	2,450000	2020-11-19T14:31:18:463
-1,540000	2,100000	1,750000	2020-11-19T14:31:18:486
-2,170000	1,750000	1,260000	2020-11-19T14:31:18:503
-1,610000	1,610000	1,120000	2020-11-19T14:31:18:527
-1,400000	1,820000	1,400000	2020-11-19T14:31:18:542
-2,450000	1,680000	1,610000	2020-11-19T14:31:18:566
-3,710000	1,190000	1,750000	2020-11-19T14:31:18:588
-3,850000	0,630000	1,680000	2020-11-19T14:31:18:606
-1,120000	-0,070000	0,420000	2020-11-19T14:31:18:624
1,400000	-0,070000	-0,490000	2020-11-19T14:31:18:647
2,170000	-0,070000	-1,050000	2020-11-19T14:31:18:664
1,470000	-0,070000	-1,610000	2020-11-19T14:31:18:687
0,700000	-0,140000	-2,030000	2020-11-19T14:31:18:704
-0,280000	-0,070000	-1,890000	2020-11-19T14:31:18:727
-1,260000	-0,070000	-1,330000	2020-11-19T14:31:18:747
-1,820000	0,280000	-0,630000	2020-11-19T14:31:18:844
-2,100000	0,490000	0,350000	2020-11-19T14:31:18:903
-2,240000	0,770000	1,050000	2020-11-19T14:31:18:904
-2,240000	0,910000	1,540000	2020-11-19T14:31:18:905
-1,960000	1,050000	1,750000	2020-11-19T14:31:18:905
-1,820000	1,330000	1,540000	2020-11-19T14:31:18:906
-1,890000	1,470000	1,190000	2020-11-19T14:31:18:908
-1,680000	1,750000	0,770000	2020-11-19T14:31:18:908
-1,540000	1,820000	0,280000	2020-11-19T14:31:18:932
-1,610000	1,890000	0,070000	2020-11-19T14:31:18:943
-1,610000	1,820000	0,070000	2020-11-19T14:31:18:971
-1,610000	1,680000	0,210000	2020-11-19T14:31:18:983
-1,400000	1,540000	0,140000	2020-11-19T14:31:19:011
-0,630000	1,470000	0,140000	2020-11-19T14:31:19:039
-0,070000	1,470000	-0,210000	2020-11-19T14:31:19:046
0,210000	1,400000	-0,210000	2020-11-19T14:31:19:065
-0,070000	1,330000	-0,210000	2020-11-19T14:31:19:087
-1,050000	1,190000	0,280000	2020-11-19T14:31:19:103
-1,400000	0,980000	0,420000	2020-11-19T14:31:19:127
-0,630000	0,770000	0,350000	2020-11-19T14:31:19:143
0,490000	0,630000	0,140000	2020-11-19T14:31:19:165
0,420000	0,630000	0,140000	2020-11-19T14:31:19:184
0,420000	0,770000	-0,210000	2020-11-19T14:31:19:207
0,280000	0,770000	-0,350000	2020-11-19T14:31:19:223
0,560000	0,910000	-0,420000	2020-11-19T14:31:19:246
0,420000	1,050000	-0,350000	2020-11-19T14:31:19:265
-0,420000	1,260000	-0,350000	2020-11-19T14:31:19:288
-1,120000	1,470000	-0,280000	2020-11-19T14:31:19:306
-1,260000	1,400000	-0,070000	2020-11-19T14:31:19:327
-1,120000	1,400000	0,140000	2020-11-19T14:31:19:345
-0,420000	1,330000	0,070000	2020-11-19T14:31:19:368
0,280000	1,400000	0,070000	2020-11-19T14:31:19:385
0,280000	1,260000	0,070000	2020-11-19T14:31:19:408
0,280000	1,120000	-0,280000	2020-11-19T14:31:19:425
-0,070000	1,050000	-0,490000	2020-11-19T14:31:19:448
-0,210000	1,050000	-0,770000	2020-11-19T14:31:19:465
-1,190000	0,840000	-0,840000	2020-11-19T14:31:19:488
-1,330000	0,980000	-0,210000	2020-11-19T14:31:19:504
-0,700000	1,120000	-0,140000	2020-11-19T14:31:19:528
-0,350000	1,190000	-0,140000	2020-11-19T14:31:19:546
-0,350000	1,260000	-0,070000	2020-11-19T14:31:19:568
0,280000	1,260000	-0,070000	2020-11-19T14:31:19:586
0,350000	1,190000	-0,070000	2020-11-19T14:31:19:609
0,630000	1,120000	-0,420000	2020-11-19T14:31:19:626
1,260000	1,260000	-0,420000	2020-11-19T14:31:19:647
0,700000	1,260000	-0,350000	2020-11-19T14:31:19:667
-0,280000	1,190000	-0,420000	2020-11-19T14:31:19:689
-0,280000	1,260000	-0,210000	2020-11-19T14:31:19:705
-0,070000	1,330000	-0,070000	2020-11-19T14:31:19:728
-0,350000	1,190000	-0,070000	2020-11-19T14:31:19:746
-0,350000	1,190000	-0,140000	2020-11-19T14:31:19:769
-0,350000	1,120000	-0,140000	2020-11-19T14:31:19:787
-0,420000	1,120000	-0,070000	2020-11-19T14:31:19:809
-0,350000	1,120000	-0,070000	2020-11-19T14:31:19:825
0,210000	1,190000	-0,070000	2020-11-19T14:31:19:849
0,490000	1,330000	0,070000	2020-11-19T14:31:19:866
0,490000	1,330000	0,070000	2020-11-19T14:31:19:888
-0,910000	1,260000	-0,210000	2020-11-19T14:31:19:906
-1,120000	1,260000	-0,210000	2020-11-19T14:31:19:929
-0,140000	1,260000	-0,420000	2020-11-19T14:31:19:947
0,140000	1,330000	-0,630000	2020-11-19T14:31:19:969
0,070000	1,330000	-0,700000	2020-11-19T14:31:19:985
0,210000	1,260000	-0,560000	2020-11-19T14:31:20:010
0,630000	1,330000	-0,280000	2020-11-19T14:31:20:032
0,420000	1,330000	-0,210000	2020-11-19T14:31:20:049
-0,140000	1,190000	-0,140000	2020-11-19T14:31:20:066
-0,280000	0,910000	-0,140000	2020-11-19T14:31:20:090
-0,280000	0,980000	-0,210000	2020-11-19T14:31:20:106
0,210000	1,050000	-0,140000	2020-11-19T14:31:20:128
0,140000	1,190000	0,070000	2020-11-19T14:31:20:146
-0,420000	1,260000	0,280000	2020-11-19T14:31:20:169
-0,840000	1,190000	0,420000	2020-11-19T14:31:20:186
-0,630000	1,400000	0,280000	2020-11-19T14:31:20:209
-0,560000	1,400000	0,140000	2020-11-19T14:31:20:226
-0,630000	1,330000	-0,070000	2020-11-19T14:31:20:249
-0,560000	1,330000	-0,140000	2020-11-19T14:31:20:267
-0,350000	1,330000	-0,140000	2020-11-19T14:31:20:289
-0,070000	1,120000	-0,140000	2020-11-19T14:31:20:306
0,070000	1,120000	-0,490000	2020-11-19T14:31:20:329
-0,140000	1,120000	-0,560000	2020-11-19T14:31:20:346
-0,560000	1,260000	-0,420000	2020-11-19T14:31:20:368
-1,050000	1,260000	-0,070000	2020-11-19T14:31:20:386
-1,190000	1,260000	0,280000	2020-11-19T14:31:20:409
-0,980000	1,190000	0,420000	2020-11-19T14:31:20:426
-0,700000	1,120000	0,420000	2020-11-19T14:31:20:449
-0,350000	1,120000	0,350000	2020-11-19T14:31:20:466
-0,420000	1,120000	0,140000	2020-11-19T14:31:20:490
-0,630000	1,050000	0,140000	2020-11-19T14:31:20:507
-0,910000	1,050000	-0,140000	2020-11-19T14:31:20:528
-0,770000	0,980000	-0,140000	2020-11-19T14:31:20:546
-0,560000	1,190000	-0,070000	2020-11-19T14:31:20:569
-0,630000	1,260000	-0,140000	2020-11-19T14:31:20:587
-0,280000	1,190000	-0,210000	2020-11-19T14:31:20:609
-0,070000	1,400000	-0,140000	2020-11-19T14:31:20:627
-0,210000	1,540000	-0,070000	2020-11-19T14:31:20:650
-0,910000	1,400000	-0,070000	2020-11-19T14:31:20:665
-1,330000	1,330000	0,070000	2020-11-19T14:31:20:690
-0,770000	1,190000	0,210000	2020-11-19T14:31:20:706
-0,770000	1,190000	0,140000	2020-11-19T14:31:20:730
-0,770000	1,120000	-0,070000	2020-11-19T14:31:20:747
-0,490000	0,980000	-0,140000	2020-11-19T14:31:20:769
-0,770000	0,980000	-0,210000	2020-11-19T14:31:20:787
-0,420000	1,050000	-0,140000	2020-11-19T14:31:20:810
-0,140000	1,190000	-0,070000	2020-11-19T14:31:20:826
-0,490000	1,190000	0,070000	2020-11-19T14:31:20:849
-1,050000	1,190000	0,140000	2020-11-19T14:31:20:867
-0,840000	1,260000	0,140000	2020-11-19T14:31:20:890
-0,770000	1,330000	0,140000	2020-11-19T14:31:20:907
-1,120000	1,260000	0,140000	2020-11-19T14:31:20:930
-1,190000	1,190000	0,140000	2020-11-19T14:31:20:947
-0,700000	1,120000	0,070000	2020-11-19T14:31:20:970
-0,560000	1,050000	-0,070000	2020-11-19T14:31:20:987
-0,420000	0,980000	-0,210000	2020-11-19T14:31:21:009
-0,560000	1,120000	-0,140000	2020-11-19T14:31:21:027
-0,770000	1,120000	-0,210000	2020-11-19T14:31:21:050
-0,910000	1,330000	-0,070000	2020-11-19T14:31:21:067
-1,050000	1,260000	0,070000	2020-11-19T14:31:21:089
-0,840000	1,190000	0,070000	2020-11-19T14:31:21:107
-0,140000	1,260000	-0,140000	2020-11-19T14:31:21:130
0,210000	1,120000	-0,350000	2020-11-19T14:31:21:147
0,420000	0,910000	-0,630000	2020-11-19T14:31:21:170
0,700000	0,560000	-0,980000	2020-11-19T14:31:21:187
0,980000	0,350000	-1,470000	2020-11-19T14:31:21:210
0,910000	0,280000	-1,610000	2020-11-19T14:31:21:228
0,840000	0,630000	-1,330000	2020-11-19T14:31:21:249
0,350000	1,050000	-0,840000	2020-11-19T14:31:21:267
-0,490000	1,260000	-0,350000	2020-11-19T14:31:21:291
-0,910000	1,470000	0,350000	2020-11-19T14:31:21:307
-1,400000	1,540000	0,630000	2020-11-19T14:31:21:330
-1,610000	1,610000	0,770000	2020-11-19T14:31:21:347
-1,540000	1,610000	0,770000	2020-11-19T14:31:21:369
-1,680000	1,680000	0,560000	2020-11-19T14:31:21:387
-0,980000	1,540000	0,140000	2020-11-19T14:31:21:409
-0,070000	1,400000	-0,280000	2020-11-19T14:31:21:426
0,560000	1,190000	-0,700000	2020-11-19T14:31:21:449
0,490000	1,120000	-0,770000	2020-11-19T14:31:21:467
-0,210000	1,050000	-0,700000	2020-11-19T14:31:21:489
-0,490000	1,190000	-0,350000	2020-11-19T14:31:21:507
-0,420000	1,400000	0,070000	2020-11-19T14:31:21:530
-0,770000	1,330000	0,420000	2020-11-19T14:31:21:546
-1,120000	1,260000	0,560000	2020-11-19T14:31:21:569
-0,840000	1,190000	0,490000	2020-11-19T14:31:21:587
-0,840000	1,190000	0,140000	2020-11-19T14:31:21:610
-1,050000	1,260000	-0,070000	2020-11-19T14:31:21:627
-0,910000	1,330000	-0,140000	2020-11-19T14:31:21:649
-0,140000	1,330000	-0,140000	2020-11-19T14:31:21:667
0,070000	1,330000	-0,140000	2020-11-19T14:31:21:690
-0,280000	1,260000	-0,140000	2020-11-19T14:31:21:708
-0,490000	1,330000	-0,280000	2020-11-19T14:31:21:729
-0,630000	1,260000	-0,350000	2020-11-19T14:31:21:747
-0,560000	1,470000	-0,280000	2020-11-19T14:31:21:770
-0,420000	1,540000	-0,140000	2020-11-19T14:31:21:786
-0,630000	1,400000	-0,140000	2020-11-19T14:31:21:809
-0,700000	1,540000	-0,140000	2020-11-19T14:31:21:827
-0,560000	1,470000	0,070000	2020-11-19T14:31:21:850
-0,630000	1,330000	0,070000	2020-11-19T14:31:21:867
-0,280000	1,190000	-0,280000	2020-11-19T14:31:21:890
-0,140000	1,120000	-0,490000	2020-11-19T14:31:21:907
-0,210000	0,980000	-0,560000	2020-11-19T14:31:21:930
-0,420000	1,120000	-0,420000	2020-11-19T14:31:21:948
-0,700000	1,260000	-0,070000	2020-11-19T14:31:21:969
-0,910000	1,260000	0,070000	2020-11-19T14:31:21:987
-0,840000	1,400000	-0,070000	2020-11-19T14:31:22:010
-0,980000	1,400000	-0,350000	2020-11-19T14:31:22:027
-1,190000	1,400000	-0,490000	2020-11-19T14:31:22:051
-0,980000	1,540000	-0,280000	2020-11-19T14:31:22:067
-0,700000	1,610000	-0,210000	2020-11-19T14:31:22:091
-0,840000	1,540000	-0,350000	2020-11-19T14:31:22:108
-0,980000	1,400000	-0,560000	2020-11-19T14:31:22:130
-0,350000	1,400000	-0,140000	2020-11-19T14:31:22:147
0,210000	1,400000	0,210000	2020-11-19T14:31:22:170
0,070000	1,540000	0,070000	2020-11-19T14:31:22:189
-0,350000	1,470000	0,070000	2020-11-19T14:31:22:209
-0,700000	1,260000	-0,210000	2020-11-19T14:31:22:227
-0,560000	1,190000	-0,210000	2020-11-19T14:31:22:251
-0,280000	1,120000	-0,140000	2020-11-19T14:31:22:267
-0,490000	1,050000	0,070000	2020-11-19T14:31:22:289
-0,770000	0,910000	0,210000	2020-11-19T14:31:22:307
-0,630000	1,050000	0,280000	2020-11-19T14:31:22:330
-0,560000	1,120000	0,210000	2020-11-19T14:31:22:347
-1,050000	1,190000	0,070000	2020-11-19T14:31:22:370
-1,610000	1,260000	-0,140000	2020-11-19T14:31:22:387
-1,890000	1,400000	-0,140000	2020-11-19T14:31:22:410
-1,820000	1,540000	-0,210000	2020-11-19T14:31:22:428
-1,750000	1,680000	-0,560000	2020-11-19T14:31:22:449
-1,750000	1,750000	-0,840000	2020-11-19T14:31:22:467
-1,400000	1,750000	-0,910000	2020-11-19T14:31:22:491
-0,700000	1,820000	-0,770000	2020-11-19T14:31:22:507
-0,490000	1,750000	-0,490000	2020-11-19T14:31:22:531
-0,910000	1,680000	-0,210000	2020-11-19T14:31:22:548
-1,190000	1,610000	-0,140000	2020-11-19T14:31:22:570
-1,190000	1,610000	-0,070000	2020-11-19T14:31:22:588
-0,980000	1,470000	-0,070000	2020-11-19T14:31:22:611
-0,560000	1,330000	-0,070000	2020-11-19T14:31:22:627
-0,280000	1,400000	-0,070000	2020-11-19T14:31:22:650
-0,280000	1,260000	-0,280000	2020-11-19T14:31:22:673
-0,350000	1,190000	-0,280000	2020-11-19T14:31:22:692
-0,700000	1,190000	-0,140000	2020-11-19T14:31:22:707
-1,050000	1,190000	0,070000	2020-11-19T14:31:22:731
-0,840000	1,190000	0,140000	2020-11-19T14:31:22:748
-0,280000	1,190000	0,140000	2020-11-19T14:31:22:770
-0,070000	1,260000	-0,070000	2020-11-19T14:31:22:788
-0,210000	1,260000	-0,210000	2020-11-19T14:31:22:809
-0,490000	1,190000	-0,280000	2020-11-19T14:31:22:828
-0,770000	1,190000	-0,210000	2020-11-19T14:31:22:850
-0,980000	1,260000	-0,070000	2020-11-19T14:31:22:867
-0,840000	1,260000	-0,070000	2020-11-19T14:31:22:890
-0,490000	1,120000	0,070000	2020-11-19T14:31:22:909
-0,210000	1,260000	0,070000	2020-11-19T14:31:22:930
0,070000	1,260000	-0,140000	2020-11-19T14:31:22:948
-0,560000	1,330000	-0,280000	2020-11-19T14:31:22:971
-0,980000	1,330000	-0,280000	2020-11-19T14:31:22:989
-0,770000	1,400000	-0,280000	2020-11-19T14:31:23:010
-0,770000	1,330000	0,280000	2020-11-19T14:31:23:028
-0,840000	1,120000	0,350000	2020-11-19T14:31:23:051
-0,770000	1,120000	0,420000	2020-11-19T14:31:23:068
-0,630000	1,120000	0,350000	2020-11-19T14:31:23:091
-0,490000	0,980000	0,280000	2020-11-19T14:31:23:108
-0,560000	0,840000	0,280000	2020-11-19T14:31:23:131
-0,490000	0,770000	0,070000	2020-11-19T14:31:23:148
-0,350000	0,840000	-0,070000	2020-11-19T14:31:23:170
-0,350000	0,840000	-0,070000	2020-11-19T14:31:23:188
-0,490000	0,910000	-0,070000	2020-11-19T14:31:23:211
-0,560000	0,910000	0,070000	2020-11-19T14:31:23:227
-0,770000	1,050000	0,070000	2020-11-19T14:31:23:249
-0,910000	1,120000	0,280000	2020-11-19T14:31:23:268
-0,840000	1,120000	0,280000	2020-11-19T14:31:23:291
-0,910000	1,050000	0,280000	2020-11-19T14:31:23:308
-0,210000	0,980000	0,280000	2020-11-19T14:31:23:331
0,070000	0,980000	0,140000	2020-11-19T14:31:23:348
-1,400000	0,910000	0,140000	2020-11-19T14:31:23:371
-1,260000	0,910000	0,280000	2020-11-19T14:31:23:391
-0,280000	0,910000	0,420000	2020-11-19T14:31:23:410
-0,420000	0,840000	0,350000	2020-11-19T14:31:23:429
-0,560000	0,910000	0,280000	2020-11-19T14:31:23:451
-0,350000	1,050000	0,280000	2020-11-19T14:31:23:468
-0,350000	1,190000	-0,210000	2020-11-19T14:31:23:491
-0,210000	1,120000	-0,280000	2020-11-19T14:31:23:508
-0,700000	1,190000	-0,280000	2020-11-19T14:31:23:531
-0,700000	1,330000	-0,280000	2020-11-19T14:31:23:548
-0,350000	1,610000	-0,280000	2020-11-19T14:31:23:570
-0,490000	1,680000	-0,350000	2020-11-19T14:31:23:588
-0,910000	1,680000	-0,210000	2020-11-19T14:31:23:611
-1,260000	1,750000	-0,070000	2020-11-19T14:31:23:629
-1,050000	1,680000	-0,070000	2020-11-19T14:31:23:650
-0,630000	1,540000	0,070000	2020-11-19T14:31:23:668
-0,210000	1,400000	-0,140000	2020-11-19T14:31:23:691
0,350000	1,470000	-0,350000	2020-11-19T14:31:23:708
0,350000	1,470000	-0,490000	2020-11-19T14:31:23:730
-0,210000	1,400000	-0,560000	2020-11-19T14:31:23:748
-0,350000	1,260000	-0,280000	2020-11-19T14:31:23:771
-0,210000	1,190000	0,140000	2020-11-19T14:31:23:789
-0,140000	1,050000	0,280000	2020-11-19T14:31:23:811
-0,280000	0,980000	0,140000	2020-11-19T14:31:23:829
-0,490000	1,050000	0,140000	2020-11-19T14:31:23:851
-0,910000	1,050000	-0,070000	2020-11-19T14:31:23:870
-1,120000	1,120000	-0,070000	2020-11-19T14:31:23:891
-0,560000	0,980000	-0,070000	2020-11-19T14:31:23:908
-0,280000	1,120000	-0,070000	2020-11-19T14:31:23:931
-0,560000	1,190000	-0,210000	2020-11-19T14:31:23:949
-0,910000	1,260000	-0,280000	2020-11-19T14:31:23:971
-0,770000	1,260000	-0,070000	2020-11-19T14:31:23:993
-0,840000	1,330000	-0,070000	2020-11-19T14:31:24:011
-0,910000	1,330000	-0,070000	2020-11-19T14:31:24:029
-0,770000	1,190000	-0,210000	2020-11-19T14:31:24:051
-0,770000	1,190000	-0,210000	2020-11-19T14:31:24:069
-0,910000	1,190000	-0,210000	2020-11-19T14:31:24:092
-0,910000	1,330000	-0,070000	2020-11-19T14:31:24:109
-0,700000	1,260000	0,070000	2020-11-19T14:31:24:130
-0,420000	1,190000	0,070000	2020-11-19T14:31:24:149
-0,420000	1,190000	-0,210000	2020-11-19T14:31:24:172
-0,560000	1,260000	-0,280000	2020-11-19T14:31:24:189
-0,770000	1,260000	-0,210000	2020-11-19T14:31:24:211
-0,840000	1,260000	-0,140000	2020-11-19T14:31:24:229
-0,700000	1,260000	-0,140000	2020-11-19T14:31:24:262
-0,560000	1,260000	0,070000	2020-11-19T14:31:24:269
-0,770000	1,050000	-0,070000	2020-11-19T14:31:24:292
-0,490000	0,840000	-0,490000	2020-11-19T14:31:24:309
0,560000	0,560000	-0,980000	2020-11-19T14:31:24:332
1,120000	0,560000	-1,330000	2020-11-19T14:31:24:349
0,630000	0,560000	-1,470000	2020-11-19T14:31:24:371
0,630000	0,770000	-1,260000	2020-11-19T14:31:24:389
-0,280000	1,260000	-0,840000	2020-11-19T14:31:24:412
-1,050000	1,470000	-0,140000	2020-11-19T14:31:24:429
-1,400000	1,540000	0,560000	2020-11-19T14:31:24:451
-1,120000	1,610000	0,840000	2020-11-19T14:31:24:469
-0,700000	1,540000	0,700000	2020-11-19T14:31:24:492
-0,560000	1,330000	0,210000	2020-11-19T14:31:24:508
-0,560000	1,400000	-0,070000	2020-11-19T14:31:24:531
-1,330000	1,400000	-0,140000	2020-11-19T14:31:24:549
-1,750000	1,400000	-0,140000	2020-11-19T14:31:24:572
-1,190000	1,330000	-0,070000	2020-11-19T14:31:24:590
-0,630000	1,260000	-0,140000	2020-11-19T14:31:24:611
-0,770000	1,260000	-0,070000	2020-11-19T14:31:24:629
-1,330000	1,400000	0,210000	2020-11-19T14:31:24:653
-1,260000	1,470000	0,560000	2020-11-19T14:31:24:670
-0,980000	1,260000	0,630000	2020-11-19T14:31:24:691
-0,980000	1,050000	0,280000	2020-11-19T14:31:24:710
-0,840000	1,050000	-0,420000	2020-11-19T14:31:24:732
-0,420000	0,980000	-0,560000	2020-11-19T14:31:24:749
-0,070000	0,910000	-0,490000	2020-11-19T14:31:24:772
0,140000	0,980000	-0,280000	2020-11-19T14:31:24:790
-0,070000	1,050000	-0,140000	2020-11-19T14:31:24:811
-0,560000	1,260000	-0,140000	2020-11-19T14:31:24:829
-0,910000	1,260000	-0,140000	2020-11-19T14:31:24:851
-1,050000	1,330000	-0,070000	2020-11-19T14:31:24:869
-1,190000	1,190000	-0,140000	2020-11-19T14:31:24:893
-0,910000	1,330000	-0,070000	2020-11-19T14:31:24:910
-0,420000	1,330000	0,140000	2020-11-19T14:31:24:932
-0,140000	1,400000	0,280000	2020-11-19T14:31:24:950
-0,210000	1,260000	0,280000	2020-11-19T14:31:24:972
-0,630000	1,260000	0,140000	2020-11-19T14:31:24:990
-0,840000	1,190000	0,070000	2020-11-19T14:31:25:012
-0,840000	1,190000	-0,210000	2020-11-19T14:31:25:030
-1,120000	1,190000	-0,630000	2020-11-19T14:31:25:052
-0,490000	1,330000	-0,560000	2020-11-19T14:31:25:071
-0,490000	1,260000	-0,280000	2020-11-19T14:31:25:092
-0,070000	1,050000	-0,280000	2020-11-19T14:31:25:110
-0,560000	1,260000	0,140000	2020-11-19T14:31:25:133
-1,190000	1,330000	0,070000	2020-11-19T14:31:25:150
-1,190000	1,470000	-0,070000	2020-11-19T14:31:25:171
-1,540000	1,400000	-0,280000	2020-11-19T14:31:25:189
-1,890000	1,400000	-0,490000	2020-11-19T14:31:25:213
-1,190000	1,330000	-0,210000	2020-11-19T14:31:25:230
0,070000	1,400000	0,070000	2020-11-19T14:31:25:252
0,700000	1,400000	0,280000	2020-11-19T14:31:25:270
0,630000	1,330000	0,350000	2020-11-19T14:31:25:293
0,210000	1,260000	0,140000	2020-11-19T14:31:25:311
-0,700000	1,120000	-0,420000	2020-11-19T14:31:25:332
-1,190000	1,330000	-0,770000	2020-11-19T14:31:25:349
-0,980000	1,400000	-0,630000	2020-11-19T14:31:25:373
-0,700000	1,330000	-0,350000	2020-11-19T14:31:25:391
-0,350000	1,470000	0,070000	2020-11-19T14:31:25:412
-0,490000	1,540000	0,420000	2020-11-19T14:31:25:430
-1,260000	1,610000	0,490000	2020-11-19T14:31:25:453
-1,820000	1,540000	0,630000	2020-11-19T14:31:25:469
-1,470000	1,400000	0,490000	2020-11-19T14:31:25:493
-0,910000	1,190000	0,070000	2020-11-19T14:31:25:510
-0,420000	1,120000	-0,560000	2020-11-19T14:31:25:533
-0,070000	1,120000	-0,840000	2020-11-19T14:31:25:551
0,070000	1,050000	-0,630000	2020-11-19T14:31:25:572
-0,350000	1,120000	-0,140000	2020-11-19T14:31:25:590
-0,700000	1,120000	0,350000	2020-11-19T14:31:25:613
-1,050000	0,980000	0,490000	2020-11-19T14:31:25:630
-1,050000	0,840000	0,490000	2020-11-19T14:31:25:653
-1,050000	1,050000	0,210000	2020-11-19T14:31:25:671
-0,980000	1,330000	-0,210000	2020-11-19T14:31:25:693
-0,560000	1,330000	-0,420000	2020-11-19T14:31:25:710
-0,280000	1,400000	-0,350000	2020-11-19T14:31:25:733
-0,490000	1,190000	-0,140000	2020-11-19T14:31:25:751
-0,840000	1,330000	-0,140000	2020-11-19T14:31:25:773
-1,260000	1,330000	0,070000	2020-11-19T14:31:25:792
-1,120000	1,400000	0,140000	2020-11-19T14:31:25:812
-0,770000	1,260000	0,140000	2020-11-19T14:31:25:830
-0,630000	1,120000	-0,140000	2020-11-19T14:31:25:852
-0,490000	1,050000	-0,210000	2020-11-19T14:31:25:871
-0,280000	1,190000	-0,070000	2020-11-19T14:31:25:893
-0,350000	1,120000	-0,070000	2020-11-19T14:31:25:911
-0,490000	1,190000	-0,070000	2020-11-19T14:31:25:933
-0,840000	1,190000	-0,210000	2020-11-19T14:31:25:951
-1,050000	1,190000	-0,070000	2020-11-19T14:31:25:973
-0,770000	1,120000	-0,140000	2020-11-19T14:31:25:996
-0,840000	1,190000	-0,280000	2020-11-19T14:31:26:014
-1,260000	1,400000	-0,140000	2020-11-19T14:31:26:031
-0,490000	1,540000	0,140000	2020-11-19T14:31:26:053
0,560000	1,260000	0,350000	2020-11-19T14:31:26:071
0,560000	1,050000	-0,070000	2020-11-19T14:31:26:094
-0,350000	0,980000	-0,490000	2020-11-19T14:31:26:111
0,560000	0,840000	-0,700000	2020-11-19T14:31:26:133
0,560000	0,630000	-0,560000	2020-11-19T14:31:26:151
-1,120000	0,700000	-0,420000	2020-11-19T14:31:26:173
-0,840000	0,980000	-0,070000	2020-11-19T14:31:26:191
-0,560000	1,190000	-0,070000	2020-11-19T14:31:26:213
-0,630000	1,260000	-0,070000	2020-11-19T14:31:26:230
-0,770000	1,190000	-0,070000	2020-11-19T14:31:26:254
-0,980000	1,050000	-0,280000	2020-11-19T14:31:26:272
-0,630000	0,910000	-0,280000	2020-11-19T14:31:26:293
0,350000	1,050000	-0,490000	2020-11-19T14:31:26:311
1,750000	1,190000	-0,630000	2020-11-19T14:31:26:334
1,540000	1,120000	-0,630000	2020-11-19T14:31:26:350
0,560000	0,770000	-0,980000	2020-11-19T14:31:26:373
0,560000	0,630000	-0,980000	2020-11-19T14:31:26:392
0,840000	0,700000	-0,840000	2020-11-19T14:31:26:414
0,700000	1,120000	-0,420000	2020-11-19T14:31:26:431
0,210000	1,400000	0,280000	2020-11-19T14:31:26:453
-0,700000	1,610000	0,980000	2020-11-19T14:31:26:471
-2,380000	1,470000	1,400000	2020-11-19T14:31:26:494
-3,010000	1,330000	1,260000	2020-11-19T14:31:26:512
-2,170000	1,330000	0,560000	2020-11-19T14:31:26:533
-0,420000	1,260000	-0,140000	2020-11-19T14:31:26:551
0,770000	1,330000	-0,560000	2020-11-19T14:31:26:574
0,490000	1,260000	-0,630000	2020-11-19T14:31:26:592
-0,140000	1,400000	-0,490000	2020-11-19T14:31:26:613
-0,560000	1,400000	-0,280000	2020-11-19T14:31:26:631
-1,120000	1,120000	-0,490000	2020-11-19T14:31:26:654
-0,700000	0,980000	-0,770000	2020-11-19T14:31:26:671
0,420000	0,980000	-0,910000	2020-11-19T14:31:26:694
1,050000	1,120000	-0,980000	2020-11-19T14:31:26:712
0,350000	1,260000	-0,700000	2020-11-19T14:31:26:734
-0,700000	1,330000	-0,700000	2020-11-19T14:31:26:752
-1,820000	1,260000	0,630000	2020-11-19T14:31:26:772
-2,590000	0,980000	0,840000	2020-11-19T14:31:26:792
-2,030000	1,120000	0,630000	2020-11-19T14:31:26:815
-0,630000	1,120000	0,070000	2020-11-19T14:31:26:832
0,560000	1,330000	-0,420000	2020-11-19T14:31:26:853
0,140000	1,330000	-0,700000	2020-11-19T14:31:26:872
-0,700000	1,260000	-0,490000	2020-11-19T14:31:26:895
-1,190000	1,260000	-0,140000	2020-11-19T14:31:26:911
-1,330000	1,260000	0,210000	2020-11-19T14:31:26:935
-0,840000	1,330000	0,350000	2020-11-19T14:31:26:951
-0,210000	1,330000	-0,140000	2020-11-19T14:31:26:975
0,630000	1,400000	-0,490000	2020-11-19T14:31:26:993
0,840000	1,400000	-0,490000	2020-11-19T14:31:27:014
-0,210000	1,330000	-0,280000	2020-11-19T14:31:27:031
-0,910000	1,330000	-0,490000	2020-11-19T14:31:27:055
-0,630000	1,190000	-0,140000	2020-11-19T14:31:27:072
-0,280000	1,190000	-0,350000	2020-11-19T14:31:27:094
-0,070000	1,330000	-0,350000	2020-11-19T14:31:27:112
-0,490000	1,260000	0,280000	2020-11-19T14:31:27:134
-0,630000	1,260000	0,490000	2020-11-19T14:31:27:151
-0,980000	1,400000	0,210000	2020-11-19T14:31:27:174
-1,330000	1,330000	-0,350000	2020-11-19T14:31:27:193
-1,330000	1,330000	-0,070000	2020-11-19T14:31:27:215
-1,330000	1,120000	0,070000	2020-11-19T14:31:27:235
-0,630000	1,120000	0,070000	2020-11-19T14:31:27:254
0,140000	1,260000	-0,490000	2020-11-19T14:31:27:273
0,350000	1,330000	-0,770000	2020-11-19T14:31:27:295
-0,140000	1,260000	-0,700000	2020-11-19T14:31:27:313
-0,700000	1,260000	-0,210000	2020-11-19T14:31:27:334
-1,260000	1,260000	0,280000	2020-11-19T14:31:27:353
-1,750000	1,120000	0,490000	2020-11-19T14:31:27:375
-1,470000	1,120000	0,350000	2020-11-19T14:31:27:393
-0,350000	1,120000	0,350000	2020-11-19T14:31:27:414
0,070000	1,190000	-0,350000	2020-11-19T14:31:27:433
0,070000	1,260000	-0,490000	2020-11-19T14:31:27:455
-0,350000	1,120000	-0,350000	2020-11-19T14:31:27:474
-0,630000	1,050000	-0,140000	2020-11-19T14:31:27:496
-0,840000	1,190000	-0,210000	2020-11-19T14:31:27:513
-0,560000	1,400000	-0,280000	2020-11-19T14:31:27:535
-0,560000	1,540000	-0,280000	2020-11-19T14:31:27:553
-0,420000	1,470000	-0,280000	2020-11-19T14:31:27:574
-0,140000	1,260000	-0,140000	2020-11-19T14:31:27:596
-0,070000	1,120000	-0,070000	2020-11-19T14:31:27:616
-0,350000	1,190000	-0,070000	2020-11-19T14:31:27:632
-0,630000	1,190000	-0,070000	2020-11-19T14:31:27:655
-0,630000	1,260000	-0,070000	2020-11-19T14:31:27:672
-0,420000	1,330000	-0,070000	2020-11-19T14:31:27:695
-0,350000	1,330000	0,140000	2020-11-19T14:31:27:714
-0,770000	1,330000	0,140000	2020-11-19T14:31:27:734
-0,980000	1,330000	-0,070000	2020-11-19T14:31:27:752
-0,770000	1,190000	-0,350000	2020-11-19T14:31:27:775
-0,560000	1,260000	-0,280000	2020-11-19T14:31:27:793
-0,630000	1,470000	-0,070000	2020-11-19T14:31:27:814
-0,630000	1,540000	0,210000	2020-11-19T14:31:27:832
-0,980000	1,400000	0,210000	2020-11-19T14:31:27:854
-0,910000	1,190000	0,210000	2020-11-19T14:31:27:872
-0,980000	0,910000	0,210000	2020-11-19T14:31:27:895
-1,050000	0,840000	-0,490000	2020-11-19T14:31:27:912
-0,350000	0,980000	-0,490000	2020-11-19T14:31:27:935
0,140000	1,190000	-0,280000	2020-11-19T14:31:27:954
-0,280000	1,400000	0,210000	2020-11-19T14:31:27:974
-1,050000	1,540000	0,700000	2020-11-19T14:31:27:993
-1,400000	1,540000	0,910000	2020-11-19T14:31:28:016
-1,680000	1,400000	0,770000	2020-11-19T14:31:28:032
-1,540000	1,260000	0,210000	2020-11-19T14:31:28:055
-0,560000	1,190000	-0,490000	2020-11-19T14:31:28:073
0,210000	1,120000	-0,910000	2020-11-19T14:31:28:096
-0,280000	1,190000	-0,700000	2020-11-19T14:31:28:113
-1,120000	1,260000	-0,280000	2020-11-19T14:31:28:135
-1,400000	1,540000	0,070000	2020-11-19T14:31:28:153
-1,400000	1,610000	0,280000	2020-11-19T14:31:28:175
-1,260000	1,540000	0,350000	2020-11-19T14:31:28:195
-1,120000	1,470000	0,210000	2020-11-19T14:31:28:215
-1,120000	1,470000	0,070000	2020-11-19T14:31:28:232
-1,190000	1,260000	-0,070000	2020-11-19T14:31:28:255
-0,980000	1,330000	-0,210000	2020-11-19T14:31:28:273
-0,700000	1,330000	-0,210000	2020-11-19T14:31:28:295
-0,770000	1,260000	0,070000	2020-11-19T14:31:28:313
-1,190000	1,190000	0,420000	2020-11-19T14:31:28:336
-1,400000	1,260000	0,630000	2020-11-19T14:31:28:352
-1,120000	1,260000	0,490000	2020-11-19T14:31:28:375
-0,840000	1,260000	0,140000	2020-11-19T14:31:28:394
-0,700000	1,190000	-0,210000	2020-11-19T14:31:28:416
-0,630000	1,330000	-0,280000	2020-11-19T14:31:28:434
-0,700000	1,260000	-0,280000	2020-11-19T14:31:28:455
-0,700000	1,400000	-0,070000	2020-11-19T14:31:28:473
-0,910000	1,260000	0,140000	2020-11-19T14:31:28:496
-0,910000	1,260000	0,140000	2020-11-19T14:31:28:513
-0,630000	1,330000	0,140000	2020-11-19T14:31:28:535
-0,840000	1,330000	0,140000	2020-11-19T14:31:28:554
-1,190000	1,400000	0,070000	2020-11-19T14:31:28:576
-1,190000	1,330000	0,070000	2020-11-19T14:31:28:594
-0,910000	1,330000	0,070000	2020-11-19T14:31:28:615
-0,700000	1,260000	0,140000	2020-11-19T14:31:28:633
-0,840000	1,330000	0,140000	2020-11-19T14:31:28:656
-0,980000	1,190000	0,070000	2020-11-19T14:31:28:675
-0,910000	1,260000	0,070000	2020-11-19T14:31:28:695
-0,700000	1,330000	0,070000	2020-11-19T14:31:28:713
-0,700000	1,330000	-0,140000	2020-11-19T14:31:28:736
-0,980000	1,260000	-0,140000	2020-11-19T14:31:28:753
-0,980000	1,400000	-0,070000	2020-11-19T14:31:28:775
-0,700000	1,330000	-0,070000	2020-11-19T14:31:28:794
-0,630000	1,330000	0,070000	2020-11-19T14:31:28:816
-0,700000	1,260000	0,140000	2020-11-19T14:31:28:834
-0,840000	1,400000	0,070000	2020-11-19T14:31:28:856
-0,840000	1,330000	0,070000	2020-11-19T14:31:28:873
-0,770000	1,400000	0,070000	2020-11-19T14:31:28:896
-1,120000	1,330000	0,070000	2020-11-19T14:31:28:915
-1,540000	1,400000	0,070000	2020-11-19T14:31:28:935
-1,330000	1,470000	0,140000	2020-11-19T14:31:28:953
-0,840000	1,330000	0,350000	2020-11-19T14:31:28:977
-0,770000	1,260000	0,350000	2020-11-19T14:31:28:994
-0,770000	1,260000	0,210000	2020-11-19T14:31:29:015
-0,840000	1,260000	0,140000	2020-11-19T14:31:29:033
-0,700000	1,190000	-0,070000	2020-11-19T14:31:29:056
-0,630000	1,260000	-0,140000	2020-11-19T14:31:29:074
-1,050000	1,190000	-0,420000	2020-11-19T14:31:29:096
-1,540000	1,260000	-0,350000	2020-11-19T14:31:29:114
-0,980000	1,330000	-0,210000	2020-11-19T14:31:29:136
-0,140000	1,470000	-0,070000	2020-11-19T14:31:29:155
0,070000	1,400000	-0,070000	2020-11-19T14:31:29:175
-0,420000	1,330000	0,070000	2020-11-19T14:31:29:193
-0,840000	1,260000	0,070000	2020-11-19T14:31:29:216
-0,630000	1,330000	0,070000	2020-11-19T14:31:29:233
-0,490000	1,260000	0,070000	2020-11-19T14:31:29:256
-0,770000	1,120000	-0,280000	2020-11-19T14:31:29:273
-0,910000	1,190000	-0,280000	2020-11-19T14:31:29:297
-0,770000	1,260000	-0,070000	2020-11-19T14:31:29:314
-1,260000	1,050000	-0,070000	2020-11-19T14:31:29:336
-1,330000	1,120000	0,140000	2020-11-19T14:31:29:354
-0,140000	0,910000	-0,070000	2020-11-19T14:31:29:376
0,070000	0,910000	-0,420000	2020-11-19T14:31:29:396
0,420000	0,770000	-0,840000	2020-11-19T14:31:29:416
0,280000	0,770000	-0,840000	2020-11-19T14:31:29:433
-0,490000	0,770000	-0,700000	2020-11-19T14:31:29:457
-0,840000	0,980000	-0,910000	2020-11-19T14:31:29:474
-0,280000	1,260000	-1,050000	2020-11-19T14:31:29:496
-0,280000	1,400000	-0,910000	2020-11-19T14:31:29:515
-0,420000	1,400000	-0,280000	2020-11-19T14:31:29:537
-0,910000	1,470000	0,490000	2020-11-19T14:31:29:554
-0,980000	1,470000	0,770000	2020-11-19T14:31:29:576
-1,050000	1,400000	0,560000	2020-11-19T14:31:29:594
-0,910000	1,120000	-0,140000	2020-11-19T14:31:29:617
-0,420000	1,050000	-0,560000	2020-11-19T14:31:29:634
0,140000	0,980000	-0,490000	2020-11-19T14:31:29:656
-0,140000	0,910000	-0,210000	2020-11-19T14:31:29:679
-0,420000	1,050000	-0,420000	2020-11-19T14:31:29:698
0,140000	1,190000	-0,770000	2020-11-19T14:31:29:714
0,910000	1,260000	-0,980000	2020-11-19T14:31:29:735
0,840000	1,120000	-0,700000	2020-11-19T14:31:29:755
-0,350000	1,120000	-0,700000	2020-11-19T14:31:29:777
-1,540000	1,260000	0,700000	2020-11-19T14:31:29:795
-1,470000	1,050000	0,420000	2020-11-19T14:31:29:817
-0,210000	0,910000	-0,140000	2020-11-19T14:31:29:835
0,770000	0,910000	-0,840000	2020-11-19T14:31:29:857
0,700000	0,980000	-0,980000	2020-11-19T14:31:29:874
0,350000	1,120000	-0,700000	2020-11-19T14:31:29:896
-0,140000	1,330000	0,070000	2020-11-19T14:31:29:914
-1,050000	1,540000	0,630000	2020-11-19T14:31:29:937
-1,750000	1,400000	0,490000	2020-11-19T14:31:29:955
-1,260000	1,330000	0,140000	2020-11-19T14:31:29:978
-1,260000	1,400000	-0,420000	2020-11-19T14:31:29:995
0,280000	1,260000	-0,420000	2020-11-19T14:31:30:017
-0,560000	1,400000	-0,140000	2020-11-19T14:31:30:034
-1,260000	1,470000	0,350000	2020-11-19T14:31:30:057
-1,540000	1,540000	0,560000	2020-11-19T14:31:30:075
-1,470000	1,610000	0,560000	2020-11-19T14:31:30:097
-1,120000	1,470000	0,350000	2020-11-19T14:31:30:116
-0,560000	1,260000	0,350000	2020-11-19T14:31:30:136
-0,490000	0,980000	-0,420000	2020-11-19T14:31:30:155
-0,210000	0,840000	-0,770000	2020-11-19T14:31:30:177
0,140000	0,840000	-0,840000	2020-11-19T14:31:30:195
0,210000	1,050000	-0,700000	2020-11-19T14:31:30:217
-0,140000	1,330000	-0,210000	2020-11-19T14:31:30:234
-0,770000	1,400000	0,210000	2020-11-19T14:31:30:257
-1,470000	1,330000	0,630000	2020-11-19T14:31:30:275
-1,820000	1,400000	0,910000	2020-11-19T14:31:30:297
-2,100000	1,190000	0,630000	2020-11-19T14:31:30:315
-1,050000	1,120000	0,070000	2020-11-19T14:31:30:337
0,420000	1,260000	-0,630000	2020-11-19T14:31:30:355
0,630000	1,470000	-0,980000	2020-11-19T14:31:30:376
-0,420000	1,680000	-0,630000	2020-11-19T14:31:30:395
-1,820000	1,610000	0,280000	2020-11-19T14:31:30:417
-2,590000	1,680000	1,260000	2020-11-19T14:31:30:435
-2,520000	1,540000	1,120000	2020-11-19T14:31:30:457
-1,470000	1,400000	0,560000	2020-11-19T14:31:30:475
-0,210000	1,190000	-0,070000	2020-11-19T14:31:30:498
0,210000	1,120000	-0,560000	2020-11-19T14:31:30:514
-0,070000	0,980000	-0,910000	2020-11-19T14:31:30:537
-0,630000	1,120000	-0,770000	2020-11-19T14:31:30:555
-0,910000	1,050000	-0,560000	2020-11-19T14:31:30:577
-1,050000	1,190000	-0,070000	2020-11-19T14:31:30:596
-0,980000	1,190000	0,210000	2020-11-19T14:31:30:617
-0,630000	1,260000	0,210000	2020-11-19T14:31:30:635
-0,280000	1,190000	0,140000	2020-11-19T14:31:30:658
-0,070000	1,330000	-0,140000	2020-11-19T14:31:30:686
-0,210000	1,260000	-0,210000	2020-11-19T14:31:30:697
-0,420000	1,190000	-0,350000	2020-11-19T14:31:30:716
-0,630000	1,260000	-0,350000	2020-11-19T14:31:30:738
-0,560000	1,330000	-0,280000	2020-11-19T14:31:30:755
-0,490000	1,330000	-0,210000	2020-11-19T14:31:30:777
-0,770000	1,260000	-0,140000	2020-11-19T14:31:30:796
-0,980000	1,330000	-0,070000	2020-11-19T14:31:30:818
-0,770000	1,330000	0,070000	2020-11-19T14:31:30:837
-0,770000	1,400000	0,070000	2020-11-19T14:31:30:857
-0,910000	1,330000	0,070000	2020-11-19T14:31:30:874
-0,700000	1,330000	0,070000	2020-11-19T14:31:30:899
-0,560000	1,330000	0,070000	2020-11-19T14:31:30:915
-0,560000	1,260000	0,070000	2020-11-19T14:31:30:937
-0,630000	1,190000	-0,140000	2020-11-19T14:31:30:956
-0,490000	1,120000	-0,210000	2020-11-19T14:31:30:980
-0,420000	1,120000	-0,280000	2020-11-19T14:31:30:996
-0,490000	1,120000	-0,140000	2020-11-19T14:31:31:018
-0,840000	1,190000	-0,140000	2020-11-19T14:31:31:035
-0,980000	1,190000	0,140000	2020-11-19T14:31:31:057
-0,980000	1,260000	0,140000	2020-11-19T14:31:31:077
-0,840000	1,260000	0,140000	2020-11-19T14:31:31:097
-0,700000	1,260000	0,070000	2020-11-19T14:31:31:115
-0,630000	1,260000	-0,070000	2020-11-19T14:31:31:138
-0,490000	1,190000	-0,070000	2020-11-19T14:31:31:156
-0,490000	1,190000	-0,140000	2020-11-19T14:31:31:177
-0,630000	1,190000	-0,210000	2020-11-19T14:31:31:196
-0,770000	1,120000	-0,140000	2020-11-19T14:31:31:218
-0,700000	1,190000	-0,140000	2020-11-19T14:31:31:236
-0,630000	1,120000	-0,070000	2020-11-19T14:31:31:258
-0,630000	1,120000	-0,070000	2020-11-19T14:31:31:276
-0,560000	1,260000	-0,070000	2020-11-19T14:31:31:299
-0,700000	1,190000	0,070000	2020-11-19T14:31:31:317
-0,840000	1,120000	0,140000	2020-11-19T14:31:31:337
-0,910000	1,120000	0,140000	2020-11-19T14:31:31:356
-0,840000	1,120000	-0,070000	2020-11-19T14:31:31:379
-0,770000	1,190000	-0,140000	2020-11-19T14:31:31:397
-0,630000	0,980000	-0,210000	2020-11-19T14:31:31:417
-0,280000	1,050000	-0,210000	2020-11-19T14:31:31:436
0,140000	1,190000	-0,140000	2020-11-19T14:31:31:459
0,420000	1,190000	-0,280000	2020-11-19T14:31:31:476
0,420000	1,330000	-0,420000	2020-11-19T14:31:31:499
-2,240000	1,260000	-0,210000	2020-11-19T14:31:31:516
-0,980000	1,400000	0,350000	2020-11-19T14:31:31:539
-0,210000	1,190000	0,490000	2020-11-19T14:31:31:558
-1,190000	1,260000	0,420000	2020-11-19T14:31:31:578
-1,820000	1,260000	0,280000	2020-11-19T14:31:31:597
-0,840000	1,330000	0,350000	2020-11-19T14:31:31:619
-0,280000	1,190000	0,420000	2020-11-19T14:31:31:636
-1,260000	1,120000	0,210000	2020-11-19T14:31:31:658
-1,890000	1,120000	0,210000	2020-11-19T14:31:31:676
-0,980000	1,120000	0,140000	2020-11-19T14:31:31:699
-0,420000	1,260000	0,070000	2020-11-19T14:31:31:716
-0,700000	1,330000	0,070000	2020-11-19T14:31:31:739
-0,840000	1,260000	0,070000	2020-11-19T14:31:31:757
-0,980000	1,120000	-0,070000	2020-11-19T14:31:31:779
-1,190000	1,190000	-0,070000	2020-11-19T14:31:31:798
-1,120000	1,260000	-0,140000	2020-11-19T14:31:31:818
-0,840000	1,400000	-0,070000	2020-11-19T14:31:31:836
-0,700000	1,330000	-0,070000	2020-11-19T14:31:31:859
-0,770000	1,330000	0,070000	2020-11-19T14:31:31:877
-0,770000	1,260000	0,210000	2020-11-19T14:31:31:899
-0,840000	1,120000	0,280000	2020-11-19T14:31:31:917
-0,910000	1,120000	0,140000	2020-11-19T14:31:31:939
-0,770000	1,050000	-0,070000	2020-11-19T14:31:31:957
-0,490000	1,190000	-0,070000	2020-11-19T14:31:31:979
-0,420000	1,120000	-0,070000	2020-11-19T14:31:31:996
-0,700000	1,120000	-0,140000	2020-11-19T14:31:32:019
-0,770000	1,190000	-0,070000	2020-11-19T14:31:32:038
-0,630000	1,260000	-0,070000	2020-11-19T14:31:32:058
-0,490000	1,260000	-0,070000	2020-11-19T14:31:32:077
-0,560000	1,260000	-0,070000	2020-11-19T14:31:32:100
-0,630000	1,190000	-0,140000	2020-11-19T14:31:32:118
-0,910000	1,260000	-0,140000	2020-11-19T14:31:32:138
-0,910000	1,260000	-0,280000	2020-11-19T14:31:32:156
-0,630000	1,330000	-0,070000	2020-11-19T14:31:32:179
-0,840000	1,330000	-0,070000	2020-11-19T14:31:32:197
-0,840000	1,330000	-0,070000	2020-11-19T14:31:32:219
-0,490000	1,190000	0,070000	2020-11-19T14:31:32:237
-0,070000	1,120000	-0,140000	2020-11-19T14:31:32:259
-0,070000	1,190000	-0,280000	2020-11-19T14:31:32:277
-0,630000	1,260000	-0,280000	2020-11-19T14:31:32:299
-1,190000	1,330000	-0,280000	2020-11-19T14:31:32:317
-0,770000	1,260000	0,070000	2020-11-19T14:31:32:339
-0,210000	1,330000	0,070000	2020-11-19T14:31:32:357
-0,140000	1,190000	0,140000	2020-11-19T14:31:32:379
-0,700000	1,190000	0,210000	2020-11-19T14:31:32:397
-0,910000	1,330000	0,280000	2020-11-19T14:31:32:419
-1,260000	1,330000	0,280000	2020-11-19T14:31:32:437
-1,820000	1,330000	0,350000	2020-11-19T14:31:32:458
-1,750000	1,470000	0,490000	2020-11-19T14:31:32:477
-0,980000	1,330000	0,420000	2020-11-19T14:31:32:500
-0,350000	1,330000	0,280000	2020-11-19T14:31:32:517
-0,280000	1,330000	-0,070000	2020-11-19T14:31:32:539
-0,490000	1,050000	-0,350000	2020-11-19T14:31:32:557
-0,840000	1,120000	-0,420000	2020-11-19T14:31:32:580
-1,120000	1,190000	-0,140000	2020-11-19T14:31:32:599
-0,840000	1,120000	-0,140000	2020-11-19T14:31:32:620
-0,560000	1,260000	0,070000	2020-11-19T14:31:32:637
-0,350000	1,330000	0,070000	2020-11-19T14:31:32:660
-0,350000	1,260000	-0,140000	2020-11-19T14:31:32:677
-0,560000	1,260000	-0,280000	2020-11-19T14:31:32:700
-0,700000	1,190000	-0,280000	2020-11-19T14:31:32:717
-0,560000	1,190000	-0,210000	2020-11-19T14:31:32:740
-0,700000	1,190000	-0,070000	2020-11-19T14:31:32:759
-0,980000	1,260000	-0,070000	2020-11-19T14:31:32:779
-0,980000	1,330000	0,070000	2020-11-19T14:31:32:799
-0,770000	1,330000	0,070000	2020-11-19T14:31:32:820
-0,700000	1,330000	0,140000	2020-11-19T14:31:32:837
-0,630000	1,260000	0,070000	2020-11-19T14:31:32:859
-0,630000	1,190000	-0,070000	2020-11-19T14:31:32:878
-0,700000	1,190000	-0,140000	2020-11-19T14:31:32:900
-0,770000	1,190000	-0,280000	2020-11-19T14:31:32:918
-0,770000	1,330000	-0,140000	2020-11-19T14:31:32:940
-0,910000	1,260000	-0,140000	2020-11-19T14:31:32:957
-0,980000	1,190000	-0,140000	2020-11-19T14:31:32:980
-0,490000	1,190000	-0,070000	2020-11-19T14:31:33:001
-0,140000	1,120000	-0,280000	2020-11-19T14:31:33:019
0,070000	1,190000	-0,560000	2020-11-19T14:31:33:036
-0,070000	1,120000	-0,490000	2020-11-19T14:31:33:060
-0,560000	1,260000	-0,350000	2020-11-19T14:31:33:078
-0,630000	1,260000	-0,140000	2020-11-19T14:31:33:100
-0,560000	1,260000	-0,070000	2020-11-19T14:31:33:118
-0,700000	1,330000	-0,070000	2020-11-19T14:31:33:140
-0,700000	1,330000	-0,070000	2020-11-19T14:31:33:158
-0,490000	1,260000	-0,070000	2020-11-19T14:31:33:180
-0,560000	1,260000	-0,070000	2020-11-19T14:31:33:197
-1,050000	1,260000	-0,070000	2020-11-19T14:31:33:220
-1,190000	1,260000	-0,070000	2020-11-19T14:31:33:239
-0,700000	1,330000	0,070000	2020-11-19T14:31:33:259
-0,490000	1,190000	-0,070000	2020-11-19T14:31:33:277
-0,560000	1,190000	-0,140000	2020-11-19T14:31:33:301
-0,630000	1,120000	-0,070000	2020-11-19T14:31:33:317
-0,560000	1,190000	-0,070000	2020-11-19T14:31:33:340
-0,490000	1,260000	-0,070000	2020-11-19T14:31:33:358
-0,630000	1,260000	-0,140000	2020-11-19T14:31:33:380
-0,770000	1,190000	-0,210000	2020-11-19T14:31:33:397
-0,770000	1,260000	-0,070000	2020-11-19T14:31:33:420
-0,840000	1,330000	-0,070000	2020-11-19T14:31:33:438
-0,700000	1,260000	-0,070000	2020-11-19T14:31:33:460
-0,560000	1,260000	-0,070000	2020-11-19T14:31:33:479
-0,560000	1,260000	-0,070000	2020-11-19T14:31:33:500
-0,770000	1,330000	-0,070000	2020-11-19T14:31:33:518
-0,770000	1,260000	0,140000	2020-11-19T14:31:33:541
-0,700000	1,190000	-0,070000	2020-11-19T14:31:33:557
-0,700000	1,260000	-0,210000	2020-11-19T14:31:33:580
-0,630000	1,190000	-0,280000	2020-11-19T14:31:33:599
-0,490000	1,260000	-0,210000	2020-11-19T14:31:33:621
-0,490000	1,190000	-0,140000	2020-11-19T14:31:33:638
-0,560000	1,260000	-0,070000	2020-11-19T14:31:33:660
-0,560000	1,260000	-0,070000	2020-11-19T14:31:33:677
-0,770000	1,260000	-0,140000	2020-11-19T14:31:33:701
-1,050000	1,190000	-0,140000	2020-11-19T14:31:33:719
-1,120000	1,120000	-0,210000	2020-11-19T14:31:33:740
-0,490000	1,120000	-0,280000	2020-11-19T14:31:33:758
0,070000	1,190000	-0,350000	2020-11-19T14:31:33:781
0,140000	1,190000	-0,350000	2020-11-19T14:31:33:799
-0,420000	1,190000	-0,070000	2020-11-19T14:31:33:820
-0,910000	1,120000	-0,070000	2020-11-19T14:31:33:839
-0,840000	1,120000	-0,070000	2020-11-19T14:31:33:861
-0,350000	1,190000	-0,140000	2020-11-19T14:31:33:878
-0,420000	1,190000	-0,070000	2020-11-19T14:31:33:901
-0,980000	1,190000	-0,070000	2020-11-19T14:31:33:919
-0,840000	1,260000	-0,070000	2020-11-19T14:31:33:941
-0,490000	1,330000	0,140000	2020-11-19T14:31:33:960
-0,700000	1,260000	0,140000	2020-11-19T14:31:33:980
-1,120000	1,260000	0,140000	2020-11-19T14:31:33:998
-0,980000	1,190000	-0,070000	2020-11-19T14:31:34:021
-0,560000	1,190000	-0,140000	2020-11-19T14:31:34:038
-0,350000	1,190000	-0,210000	2020-11-19T14:31:34:060
-0,560000	1,120000	-0,210000	2020-11-19T14:31:34:079
-0,770000	1,050000	-0,210000	2020-11-19T14:31:34:101
-0,840000	1,190000	-0,210000	2020-11-19T14:31:34:119
-0,910000	1,190000	-0,210000	2020-11-19T14:31:34:141
-0,980000	1,190000	-0,210000	2020-11-19T14:31:34:159
-1,120000	1,120000	-0,070000	2020-11-19T14:31:34:181
-1,050000	1,190000	0,070000	2020-11-19T14:31:34:199
-0,840000	1,260000	0,140000	2020-11-19T14:31:34:220
-0,560000	1,190000	0,070000	2020-11-19T14:31:34:239
-0,700000	1,190000	0,070000	2020-11-19T14:31:34:262
-0,700000	1,120000	-0,140000	2020-11-19T14:31:34:279
-0,560000	1,050000	-0,210000	2020-11-19T14:31:34:301
-0,490000	1,260000	-0,140000	2020-11-19T14:31:34:319
-0,700000	1,260000	-0,140000	2020-11-19T14:31:34:341
-0,700000	1,260000	-0,140000	2020-11-19T14:31:34:359
-0,700000	1,260000	-0,070000	2020-11-19T14:31:34:381
-0,700000	1,120000	0,070000	2020-11-19T14:31:34:399
-0,700000	1,190000	0,140000	2020-11-19T14:31:34:421
-0,770000	1,120000	0,070000	2020-11-19T14:31:34:440
-0,980000	1,120000	0,140000	2020-11-19T14:31:34:461
-1,190000	1,190000	0,140000	2020-11-19T14:31:34:479
-0,910000	1,120000	0,210000	2020-11-19T14:31:34:502
-0,980000	1,190000	0,140000	2020-11-19T14:31:34:519
-1,120000	1,050000	0,070000	2020-11-19T14:31:34:541
-0,840000	0,910000	0,070000	2020-11-19T14:31:34:559
-0,350000	0,980000	-0,140000	2020-11-19T14:31:34:582
-0,070000	0,910000	-0,350000	2020-11-19T14:31:34:600
-0,070000	0,980000	-0,350000	2020-11-19T14:31:34:621
-0,630000	1,050000	-0,280000	2020-11-19T14:31:34:639
-0,840000	1,190000	-0,070000	2020-11-19T14:31:34:662
-0,560000	1,190000	-0,070000	2020-11-19T14:31:34:682
-0,630000	1,260000	0,070000	2020-11-19T14:31:34:701
-0,980000	1,260000	0,140000	2020-11-19T14:31:34:720
-0,700000	1,190000	0,070000	2020-11-19T14:31:34:743
-0,770000	1,260000	0,070000	2020-11-19T14:31:34:759
-1,260000	1,260000	0,070000	2020-11-19T14:31:34:781
-1,260000	1,330000	0,140000	2020-11-19T14:31:34:800
-0,770000	1,190000	0,140000	2020-11-19T14:31:34:822
-0,490000	1,190000	-0,140000	2020-11-19T14:31:34:840
-0,630000	1,120000	-0,140000	2020-11-19T14:31:34:862
-0,910000	1,190000	-0,070000	2020-11-19T14:31:34:879
-0,980000	1,120000	0,070000	2020-11-19T14:31:34:902
-0,910000	1,330000	0,140000	2020-11-19T14:31:34:922
-0,840000	1,260000	0,210000	2020-11-19T14:31:34:942
-0,910000	1,260000	0,280000	2020-11-19T14:31:34:960
-0,770000	1,190000	0,140000	2020-11-19T14:31:34:982
-0,630000	1,400000	0,070000	2020-11-19T14:31:35:002
-0,770000	1,260000	-0,070000	2020-11-19T14:31:35:053
-0,630000	1,050000	-0,210000	2020-11-19T14:31:35:054
-0,630000	1,120000	-0,280000	2020-11-19T14:31:35:076
-0,770000	1,190000	-0,210000	2020-11-19T14:31:35:083
-0,490000	1,470000	-0,560000	2020-11-19T14:31:35:103
-0,630000	1,470000	0,560000	2020-11-19T14:31:35:120
-0,910000	1,400000	0,070000	2020-11-19T14:31:35:148
-0,980000	1,330000	0,210000	2020-11-19T14:31:35:174
-0,910000	1,470000	0,280000	2020-11-19T14:31:35:183
-0,700000	1,400000	0,140000	2020-11-19T14:31:35:323
-0,560000	1,260000	-0,070000	2020-11-19T14:31:35:324
-0,700000	1,330000	-0,140000	2020-11-19T14:31:35:324
-0,840000	1,260000	-0,280000	2020-11-19T14:31:35:325
-0,770000	1,330000	-0,140000	2020-11-19T14:31:35:325
-0,910000	1,330000	-0,070000	2020-11-19T14:31:35:326
-0,910000	1,260000	-0,070000	2020-11-19T14:31:35:326
-0,350000	1,190000	-0,140000	2020-11-19T14:31:35:342
-0,350000	1,120000	-0,350000	2020-11-19T14:31:35:366
-0,210000	1,120000	-0,420000	2020-11-19T14:31:35:381
-0,770000	1,120000	-0,280000	2020-11-19T14:31:35:400
-0,910000	1,330000	-0,070000	2020-11-19T14:31:35:421
-0,770000	1,260000	0,140000	2020-11-19T14:31:35:439
-0,140000	2,100000	-0,980000	2020-11-19T14:31:35:462
-0,770000	1,330000	0,280000	2020-11-19T14:31:35:480
-1,120000	1,260000	0,070000	2020-11-19T14:31:35:503
-0,770000	1,260000	-0,210000	2020-11-19T14:31:35:520
-0,630000	1,330000	-0,070000	2020-11-19T14:31:35:544
-0,980000	1,190000	-0,140000	2020-11-19T14:31:35:561
-1,120000	1,260000	-0,210000	2020-11-19T14:31:35:583
-0,700000	1,260000	-0,210000	2020-11-19T14:31:35:600
-0,420000	1,190000	-0,210000	2020-11-19T14:31:35:623
-0,350000	1,190000	-0,210000	2020-11-19T14:31:35:644
-0,560000	1,190000	-0,280000	2020-11-19T14:31:35:666
-0,560000	1,120000	-0,210000	2020-11-19T14:31:35:680
-0,490000	1,190000	-0,070000	2020-11-19T14:31:35:703
-0,420000	1,190000	-0,070000	2020-11-19T14:31:35:721
-0,560000	1,260000	-0,070000	2020-11-19T14:31:35:742
-0,700000	1,260000	-0,140000	2020-11-19T14:31:35:761
-0,700000	1,190000	-0,070000	2020-11-19T14:31:35:783
-0,770000	1,260000	-0,070000	2020-11-19T14:31:35:801
-0,630000	1,120000	-0,140000	2020-11-19T14:31:35:823
-0,420000	1,190000	-0,140000	2020-11-19T14:31:35:840
-0,560000	1,190000	-0,140000	2020-11-19T14:31:35:863
-0,280000	1,120000	-0,210000	2020-11-19T14:31:35:881
-0,280000	1,190000	-0,070000	2020-11-19T14:31:35:903
-0,840000	1,260000	-0,210000	2020-11-19T14:31:35:920
-1,120000	1,260000	-0,140000	2020-11-19T14:31:35:943
-0,840000	1,260000	-0,140000	2020-11-19T14:31:35:961
-0,490000	1,190000	0,070000	2020-11-19T14:31:35:982
-0,350000	1,260000	0,070000	2020-11-19T14:31:36:006
-0,560000	1,120000	-0,210000	2020-11-19T14:31:36:023
-0,560000	0,980000	-0,280000	2020-11-19T14:31:36:040
-0,910000	1,190000	-0,280000	2020-11-19T14:31:36:073
-1,120000	1,190000	-0,210000	2020-11-19T14:31:36:081
-0,700000	1,190000	-0,140000	2020-11-19T14:31:36:104
-0,070000	1,190000	-0,140000	2020-11-19T14:31:36:123
0,140000	1,190000	-0,140000	2020-11-19T14:31:36:142
-0,280000	1,260000	-0,070000	2020-11-19T14:31:36:160
-0,560000	1,190000	-0,070000	2020-11-19T14:31:36:183
-0,630000	1,260000	-0,210000	2020-11-19T14:31:36:201
-0,490000	1,330000	-0,280000	2020-11-19T14:31:36:222
-0,700000	1,260000	-0,140000	2020-11-19T14:31:36:241
-0,770000	1,260000	-0,140000	2020-11-19T14:31:36:264
-0,560000	1,260000	0,070000	2020-11-19T14:31:36:281
-0,490000	1,330000	0,140000	2020-11-19T14:31:36:303
-0,980000	1,260000	0,070000	2020-11-19T14:31:36:321
-1,330000	1,260000	0,070000	2020-11-19T14:31:36:343
-0,980000	1,260000	0,070000	2020-11-19T14:31:36:363
-0,420000	1,120000	-0,140000	2020-11-19T14:31:36:383
-0,350000	1,190000	-0,210000	2020-11-19T14:31:36:401
-0,630000	1,120000	-0,140000	2020-11-19T14:31:36:423
-0,630000	1,330000	-0,070000	2020-11-19T14:31:36:441
-0,560000	1,260000	-0,070000	2020-11-19T14:31:36:463
-0,560000	1,190000	-0,070000	2020-11-19T14:31:36:481
-0,630000	1,190000	-0,140000	2020-11-19T14:31:36:504
-0,630000	1,260000	-0,280000	2020-11-19T14:31:36:521
-0,420000	1,260000	-0,210000	2020-11-19T14:31:36:543
-0,280000	1,330000	-0,140000	2020-11-19T14:31:36:561
-0,280000	1,330000	-0,140000	2020-11-19T14:31:36:584
-0,490000	1,400000	-0,140000	2020-11-19T14:31:36:604
-0,350000	1,260000	-0,210000	2020-11-19T14:31:36:623
-0,350000	1,260000	-0,280000	2020-11-19T14:31:36:640
-0,700000	1,330000	-0,140000	2020-11-19T14:31:36:664
-1,050000	1,190000	0,070000	2020-11-19T14:31:36:681
-0,980000	1,330000	0,070000	2020-11-19T14:31:36:703
-0,770000	1,260000	0,070000	2020-11-19T14:31:36:721
-0,560000	1,260000	0,140000	2020-11-19T14:31:36:744
-0,490000	1,260000	0,140000	2020-11-19T14:31:36:762
-0,560000	1,260000	-0,140000	2020-11-19T14:31:36:783
-0,630000	1,190000	-0,210000	2020-11-19T14:31:36:802
-0,630000	1,120000	-0,280000	2020-11-19T14:31:36:824
-0,700000	1,260000	-0,280000	2020-11-19T14:31:36:845
-0,910000	1,260000	-0,070000	2020-11-19T14:31:36:863
-0,980000	1,190000	0,070000	2020-11-19T14:31:36:882
-0,560000	1,260000	0,070000	2020-11-19T14:31:36:904
-0,140000	1,260000	-0,140000	2020-11-19T14:31:36:921
-0,210000	1,330000	-0,210000	2020-11-19T14:31:36:943
-0,700000	1,190000	-0,140000	2020-11-19T14:31:36:962
-0,910000	1,190000	-0,140000	2020-11-19T14:31:36:985
-0,630000	1,260000	-0,210000	2020-11-19T14:31:37:002
-0,490000	1,260000	-0,140000	2020-11-19T14:31:37:028
-0,840000	1,330000	-0,070000	2020-11-19T14:31:37:041
-0,980000	1,260000	0,070000	2020-11-19T14:31:37:065
-0,770000	1,260000	0,070000	2020-11-19T14:31:37:083
-0,980000	1,330000	0,070000	2020-11-19T14:31:37:104
-1,400000	1,260000	0,070000	2020-11-19T14:31:37:123
-1,330000	1,260000	0,140000	2020-11-19T14:31:37:145
-0,840000	1,190000	-0,070000	2020-11-19T14:31:37:162
-0,420000	1,190000	-0,140000	2020-11-19T14:31:37:183
-0,490000	1,190000	-0,210000	2020-11-19T14:31:37:201
-0,770000	1,120000	-0,140000	2020-11-19T14:31:37:225
-0,840000	1,190000	-0,070000	2020-11-19T14:31:37:241
-0,840000	1,330000	0,070000	2020-11-19T14:31:37:264
-0,770000	1,330000	0,140000	2020-11-19T14:31:37:282
-0,630000	1,330000	0,070000	2020-11-19T14:31:37:304
-0,700000	1,260000	0,070000	2020-11-19T14:31:37:323
-0,630000	1,260000	0,070000	2020-11-19T14:31:37:343
-0,630000	1,190000	0,070000	2020-11-19T14:31:37:362
-0,630000	1,330000	0,070000	2020-11-19T14:31:37:385
-0,560000	1,260000	-0,140000	2020-11-19T14:31:37:402
-0,420000	1,260000	-0,140000	2020-11-19T14:31:37:423
-0,280000	1,260000	-0,070000	2020-11-19T14:31:37:442
-0,560000	1,190000	0,070000	2020-11-19T14:31:37:464
-0,700000	1,260000	0,070000	2020-11-19T14:31:37:482
-0,420000	1,190000	-0,070000	2020-11-19T14:31:37:503
-0,630000	1,120000	-0,140000	2020-11-19T14:31:37:521
-0,910000	1,190000	-0,210000	2020-11-19T14:31:37:544
-0,700000	1,050000	-0,140000	2020-11-19T14:31:37:563
-0,560000	1,260000	-0,140000	2020-11-19T14:31:37:583
-0,630000	1,260000	0,140000	2020-11-19T14:31:37:602
-0,770000	1,400000	0,210000	2020-11-19T14:31:37:625
-0,980000	1,330000	0,210000	2020-11-19T14:31:37:641
-1,050000	1,190000	0,140000	2020-11-19T14:31:37:663
-0,630000	1,260000	-0,070000	2020-11-19T14:31:37:681
0,140000	1,120000	-0,420000	2020-11-19T14:31:37:705
0,210000	1,190000	-0,700000	2020-11-19T14:31:37:722
-0,140000	1,330000	-0,630000	2020-11-19T14:31:37:744
-0,560000	1,470000	-0,420000	2020-11-19T14:31:37:761
-0,700000	1,400000	-0,140000	2020-11-19T14:31:37:783
-0,630000	1,330000	0,140000	2020-11-19T14:31:37:804
-0,770000	1,330000	0,210000	2020-11-19T14:31:37:827
-0,980000	1,260000	0,140000	2020-11-19T14:31:37:857
-0,770000	1,120000	0,070000	2020-11-19T14:31:37:865
-0,490000	1,260000	-0,070000	2020-11-19T14:31:37:881
-0,700000	1,260000	-0,140000	2020-11-19T14:31:37:904
-0,910000	1,190000	-0,280000	2020-11-19T14:31:37:921
-0,770000	1,190000	-0,280000	2020-11-19T14:31:37:944
-0,420000	1,260000	-0,350000	2020-11-19T14:31:37:961
-0,420000	1,260000	-0,210000	2020-11-19T14:31:37:983
-0,420000	1,400000	-0,070000	2020-11-19T14:31:38:003
-0,630000	1,400000	-0,070000	2020-11-19T14:31:38:024
-0,770000	1,330000	-0,070000	2020-11-19T14:31:38:043
-0,630000	1,260000	-0,070000	2020-11-19T14:31:38:064
-0,560000	1,260000	-0,140000	2020-11-19T14:31:38:083
-0,770000	1,190000	-0,210000	2020-11-19T14:31:38:105
-0,770000	1,260000	-0,210000	2020-11-19T14:31:38:121
-0,560000	1,190000	-0,210000	2020-11-19T14:31:38:144
-0,490000	1,190000	-0,140000	2020-11-19T14:31:38:162
-0,420000	1,190000	-0,070000	2020-11-19T14:31:38:183
-0,560000	1,260000	-0,070000	2020-11-19T14:31:38:202
-0,630000	1,260000	-0,140000	2020-11-19T14:31:38:224
-0,490000	1,190000	-0,210000	2020-11-19T14:31:38:242
-0,420000	1,190000	-0,210000	2020-11-19T14:31:38:263
-0,560000	1,260000	-0,210000	2020-11-19T14:31:38:283
-0,630000	1,330000	-0,070000	2020-11-19T14:31:38:305
-0,490000	1,190000	-0,140000	2020-11-19T14:31:38:322
-0,490000	1,260000	-0,140000	2020-11-19T14:31:38:344
-0,700000	1,190000	-0,140000	2020-11-19T14:31:38:362
-0,770000	1,260000	-0,070000	2020-11-19T14:31:38:384
-0,980000	1,190000	-0,140000	2020-11-19T14:31:38:403
-1,050000	1,120000	-0,280000	2020-11-19T14:31:38:425
-0,630000	1,190000	-0,350000	2020-11-19T14:31:38:442
-0,210000	1,260000	-0,420000	2020-11-19T14:31:38:465
-0,210000	1,190000	-0,350000	2020-11-19T14:31:38:482
-0,070000	1,330000	-0,210000	2020-11-19T14:31:38:505
-0,490000	1,190000	-0,210000	2020-11-19T14:31:38:522
-0,630000	1,260000	-0,140000	2020-11-19T14:31:38:545
-0,630000	1,190000	-0,210000	2020-11-19T14:31:38:562
-0,630000	1,190000	-0,140000	2020-11-19T14:31:38:584
-0,770000	1,190000	-0,140000	2020-11-19T14:31:38:602
-0,490000	1,190000	-0,140000	2020-11-19T14:31:38:624
-0,490000	1,330000	0,070000	2020-11-19T14:31:38:642
-0,840000	1,260000	0,070000	2020-11-19T14:31:38:665
-0,980000	1,260000	0,070000	2020-11-19T14:31:38:682
-0,980000	1,330000	0,070000	2020-11-19T14:31:38:705
-0,630000	1,260000	-0,140000	2020-11-19T14:31:38:722
-0,560000	1,260000	-0,210000	2020-11-19T14:31:38:745
-0,630000	1,260000	-0,210000	2020-11-19T14:31:38:764
-0,560000	1,330000	-0,140000	2020-11-19T14:31:38:785
-0,630000	1,260000	-0,140000	2020-11-19T14:31:38:803
-0,770000	1,330000	-0,140000	2020-11-19T14:31:38:825
-0,700000	1,120000	-0,070000	2020-11-19T14:31:38:842
-0,700000	1,260000	-0,070000	2020-11-19T14:31:38:865
-0,840000	1,260000	-0,070000	2020-11-19T14:31:38:883
-0,840000	1,260000	-0,070000	2020-11-19T14:31:38:906
-0,560000	1,120000	-0,070000	2020-11-19T14:31:38:922
-0,420000	1,120000	-0,140000	2020-11-19T14:31:38:946
-0,280000	1,190000	-0,140000	2020-11-19T14:31:38:962
-0,490000	1,190000	-0,210000	2020-11-19T14:31:38:984
-0,630000	1,050000	-0,210000	2020-11-19T14:31:39:004
-0,700000	1,050000	-0,140000	2020-11-19T14:31:39:024
-0,840000	1,260000	-0,140000	2020-11-19T14:31:39:043
-0,630000	1,260000	-0,070000	2020-11-19T14:31:39:065
-0,630000	1,260000	0,070000	2020-11-19T14:31:39:084
-0,700000	1,330000	0,070000	2020-11-19T14:31:39:105
-0,700000	1,330000	-0,070000	2020-11-19T14:31:39:123
-0,840000	1,190000	-0,210000	2020-11-19T14:31:39:145
-0,700000	1,330000	-0,210000	2020-11-19T14:31:39:163
-0,770000	1,260000	-0,210000	2020-11-19T14:31:39:186
-1,120000	1,190000	-0,140000	2020-11-19T14:31:39:203
-0,700000	1,190000	-0,070000	2020-11-19T14:31:39:225
-0,070000	1,190000	-0,070000	2020-11-19T14:31:39:245
0,140000	1,190000	-0,070000	2020-11-19T14:31:39:265
-0,280000	1,330000	-0,070000	2020-11-19T14:31:39:284
-0,770000	1,260000	-0,140000	2020-11-19T14:31:39:306
-0,700000	1,260000	-0,210000	2020-11-19T14:31:39:323
-0,490000	1,190000	-0,210000	2020-11-19T14:31:39:345
-0,630000	1,260000	-0,140000	2020-11-19T14:31:39:364
-0,840000	1,190000	-0,070000	2020-11-19T14:31:39:386
-0,700000	1,190000	-0,070000	2020-11-19T14:31:39:404
-0,560000	1,330000	0,070000	2020-11-19T14:31:39:426
-0,980000	1,260000	0,140000	2020-11-19T14:31:39:443
-1,260000	1,330000	0,070000	2020-11-19T14:31:39:465
-0,910000	1,260000	0,070000	2020-11-19T14:31:39:485
-0,490000	1,330000	-0,070000	2020-11-19T14:31:39:506
-0,560000	1,190000	-0,140000	2020-11-19T14:31:39:524
-0,630000	1,260000	-0,070000	2020-11-19T14:31:39:546
-0,560000	1,120000	-0,070000	2020-11-19T14:31:39:563
-0,560000	1,260000	-0,070000	2020-11-19T14:31:39:586
-0,490000	1,260000	-0,070000	2020-11-19T14:31:39:604
-0,560000	1,260000	-0,070000	2020-11-19T14:31:39:626
-0,700000	1,190000	-0,070000	2020-11-19T14:31:39:644
-0,840000	1,330000	0,070000	2020-11-19T14:31:39:665
-0,840000	1,190000	0,070000	2020-11-19T14:31:39:683
-0,350000	1,260000	-0,070000	2020-11-19T14:31:39:706
-0,280000	1,260000	-0,070000	2020-11-19T14:31:39:724
-0,700000	1,260000	-0,140000	2020-11-19T14:31:39:746
-0,980000	1,190000	-0,140000	2020-11-19T14:31:39:763
-0,910000	1,260000	-0,070000	2020-11-19T14:31:39:786
-0,980000	1,260000	-0,070000	2020-11-19T14:31:39:804
-0,980000	1,330000	0,070000	2020-11-19T14:31:39:826
-0,700000	1,260000	0,070000	2020-11-19T14:31:39:844
-0,490000	1,260000	0,070000	2020-11-19T14:31:39:866
-0,700000	1,120000	-0,070000	2020-11-19T14:31:39:884
-0,700000	1,120000	-0,140000	2020-11-19T14:31:39:907
-0,560000	1,050000	-0,280000	2020-11-19T14:31:39:923
-0,770000	1,120000	-0,210000	2020-11-19T14:31:39:946
-1,050000	1,190000	-0,140000	2020-11-19T14:31:39:965
-1,120000	1,260000	0,070000	2020-11-19T14:31:39:986
-1,190000	1,330000	0,210000	2020-11-19T14:31:40:005
-1,120000	1,260000	0,210000	2020-11-19T14:31:40:025
-0,490000	1,260000	0,070000	2020-11-19T14:31:40:043
-0,070000	1,260000	-0,140000	2020-11-19T14:31:40:066
-0,140000	1,120000	-0,350000	2020-11-19T14:31:40:085
-0,770000	1,260000	-0,350000	2020-11-19T14:31:40:107
-0,700000	1,260000	-0,210000	2020-11-19T14:31:40:125
-0,490000	1,330000	-0,210000	2020-11-19T14:31:40:147
-0,630000	1,260000	0,140000	2020-11-19T14:31:40:164
-0,840000	1,190000	0,210000	2020-11-19T14:31:40:193
-0,770000	1,190000	0,140000	2020-11-19T14:31:40:206
-0,700000	1,260000	0,070000	2020-11-19T14:31:40:227
-1,120000	1,260000	0,070000	2020-11-19T14:31:40:245
-1,330000	1,260000	0,140000	2020-11-19T14:31:40:267
-1,120000	1,260000	0,210000	2020-11-19T14:31:40:285
-0,770000	1,260000	0,140000	2020-11-19T14:31:40:307
-0,560000	1,120000	-0,070000	2020-11-19T14:31:40:324
-0,630000	1,050000	-0,210000	2020-11-19T14:31:40:347
-0,700000	1,190000	-0,210000	2020-11-19T14:31:40:388
-0,700000	1,260000	-0,210000	2020-11-19T14:31:40:389
-0,700000	1,260000	-0,140000	2020-11-19T14:31:40:405
-0,490000	1,330000	-0,140000	2020-11-19T14:31:40:426
-0,490000	1,260000	-0,140000	2020-11-19T14:31:40:446
-0,700000	1,190000	-0,140000	2020-11-19T14:31:40:466
-0,700000	1,260000	-0,070000	2020-11-19T14:31:40:485
-0,630000	1,260000	-0,070000	2020-11-19T14:31:40:509
-0,560000	1,120000	-0,140000	2020-11-19T14:31:40:525
-0,490000	1,190000	-0,210000	2020-11-19T14:31:40:546
-0,700000	1,120000	-0,210000	2020-11-19T14:31:40:564
-0,630000	1,260000	-0,210000	2020-11-19T14:31:40:587
-0,630000	1,260000	-0,140000	2020-11-19T14:31:40:605
-0,840000	1,330000	-0,140000	2020-11-19T14:31:40:627
-0,910000	1,330000	0,140000	2020-11-19T14:31:40:645
-0,910000	1,330000	0,210000	2020-11-19T14:31:40:666
-0,700000	1,190000	0,070000	2020-11-19T14:31:40:686
-0,630000	1,260000	-0,070000	2020-11-19T14:31:40:707
-0,700000	1,190000	-0,210000	2020-11-19T14:31:40:725
-0,770000	1,120000	-0,420000	2020-11-19T14:31:40:747
-0,770000	1,190000	-0,280000	2020-11-19T14:31:40:765
-0,840000	1,190000	-0,210000	2020-11-19T14:31:40:787
-0,770000	1,190000	-0,140000	2020-11-19T14:31:40:805
-0,420000	1,260000	-0,070000	2020-11-19T14:31:40:827
-0,070000	1,190000	-0,140000	2020-11-19T14:31:40:844
-0,210000	1,260000	-0,210000	2020-11-19T14:31:40:867
-0,490000	1,120000	-0,280000	2020-11-19T14:31:40:885
-0,770000	1,190000	-0,350000	2020-11-19T14:31:40:907
-0,630000	1,190000	-0,350000	2020-11-19T14:31:40:927
-0,560000	1,190000	-0,280000	2020-11-19T14:31:40:947
-0,770000	1,260000	-0,070000	2020-11-19T14:31:40:965
-0,770000	1,120000	-0,070000	2020-11-19T14:31:40:987
-0,560000	1,260000	-0,070000	2020-11-19T14:31:41:006
-0,490000	1,260000	-0,070000	2020-11-19T14:31:41:027
-0,910000	1,260000	-0,070000	2020-11-19T14:31:41:045
-0,980000	1,260000	-0,070000	2020-11-19T14:31:41:066
-0,560000	1,260000	-0,070000	2020-11-19T14:31:41:086
-0,350000	1,190000	-0,210000	2020-11-19T14:31:41:108
-0,420000	1,120000	-0,210000	2020-11-19T14:31:41:125
-0,490000	1,260000	-0,140000	2020-11-19T14:31:41:147
-0,490000	1,190000	-0,140000	2020-11-19T14:31:41:167
-0,490000	1,260000	-0,140000	2020-11-19T14:31:41:187
-0,560000	1,190000	-0,280000	2020-11-19T14:31:41:205
-0,560000	1,190000	-0,210000	2020-11-19T14:31:41:227
-0,700000	1,260000	-0,140000	2020-11-19T14:31:41:245
-0,840000	1,260000	-0,140000	2020-11-19T14:31:41:267
-0,840000	1,260000	-0,140000	2020-11-19T14:31:41:286
-0,700000	1,190000	0,070000	2020-11-19T14:31:41:308
-0,560000	1,190000	0,070000	2020-11-19T14:31:41:326
-0,490000	1,190000	-0,140000	2020-11-19T14:31:41:347
-0,560000	1,190000	-0,210000	2020-11-19T14:31:41:366
-0,700000	1,260000	-0,210000	2020-11-19T14:31:41:387
-0,770000	1,190000	-0,140000	2020-11-19T14:31:41:407
-0,560000	1,190000	-0,140000	2020-11-19T14:31:41:427
-0,210000	1,190000	-0,140000	2020-11-19T14:31:41:446
-0,490000	1,190000	-0,140000	2020-11-19T14:31:41:467
-0,770000	1,190000	-0,070000	2020-11-19T14:31:41:485
-1,050000	1,330000	-0,070000	2020-11-19T14:31:41:508
-0,910000	1,190000	-0,070000	2020-11-19T14:31:41:526
-0,770000	1,260000	-0,070000	2020-11-19T14:31:41:548
-0,980000	1,190000	-0,210000	2020-11-19T14:31:41:566
-1,050000	1,120000	-0,210000	2020-11-19T14:31:41:587
-0,560000	1,190000	-0,140000	2020-11-19T14:31:41:607
-0,560000	1,260000	-0,140000	2020-11-19T14:31:41:628
0,070000	1,260000	-0,140000	2020-11-19T14:31:41:647
-0,350000	1,190000	-0,140000	2020-11-19T14:31:41:668
-0,560000	1,190000	-0,210000	2020-11-19T14:31:41:686
-0,490000	1,190000	-0,210000	2020-11-19T14:31:41:708
-0,490000	1,260000	-0,210000	2020-11-19T14:31:41:726
-0,770000	1,190000	-0,070000	2020-11-19T14:31:41:748
-0,700000	1,190000	0,070000	2020-11-19T14:31:41:765
-0,490000	1,330000	0,140000	2020-11-19T14:31:41:788
-0,420000	1,330000	0,070000	2020-11-19T14:31:41:806
-0,840000	1,260000	0,070000	2020-11-19T14:31:41:828
-1,260000	1,260000	0,070000	2020-11-19T14:31:41:846
-1,050000	1,330000	-0,070000	2020-11-19T14:31:41:868
-0,560000	1,260000	-0,070000	2020-11-19T14:31:41:886
-0,420000	1,260000	-0,070000	2020-11-19T14:31:41:908
-0,700000	1,190000	-0,070000	2020-11-19T14:31:41:925
-0,770000	1,260000	-0,070000	2020-11-19T14:31:41:947
-0,770000	1,330000	-0,070000	2020-11-19T14:31:41:965
-0,770000	1,190000	-0,070000	2020-11-19T14:31:41:988
-0,770000	1,190000	-0,070000	2020-11-19T14:31:42:006
-0,770000	1,260000	-0,070000	2020-11-19T14:31:42:028
-0,700000	1,260000	-0,070000	2020-11-19T14:31:42:046
-0,630000	1,120000	-0,070000	2020-11-19T14:31:42:069
-0,770000	1,260000	-0,070000	2020-11-19T14:31:42:087
-0,560000	1,120000	-0,140000	2020-11-19T14:31:42:110
-0,210000	1,260000	-0,140000	2020-11-19T14:31:42:128
-0,350000	1,120000	-0,210000	2020-11-19T14:31:42:148
-0,770000	1,190000	-0,210000	2020-11-19T14:31:42:166
-0,910000	1,330000	-0,210000	2020-11-19T14:31:42:188
-0,770000	1,260000	-0,210000	2020-11-19T14:31:42:207
-0,560000	1,190000	-0,210000	2020-11-19T14:31:42:228
-0,490000	1,120000	-0,210000	2020-11-19T14:31:42:247
-0,350000	1,190000	0,140000	2020-11-19T14:31:42:269
-0,210000	1,260000	0,070000	2020-11-19T14:31:42:286
-0,420000	1,260000	-0,070000	2020-11-19T14:31:42:309
-0,700000	1,260000	-0,210000	2020-11-19T14:31:42:326
-0,840000	1,260000	-0,280000	2020-11-19T14:31:42:348
-1,050000	1,260000	-0,140000	2020-11-19T14:31:42:368
-0,910000	1,190000	-0,210000	2020-11-19T14:31:42:388
-0,210000	1,260000	-0,280000	2020-11-19T14:31:42:406
0,350000	1,190000	-0,420000	2020-11-19T14:31:42:429
0,140000	1,190000	-0,420000	2020-11-19T14:31:42:447
-0,630000	1,120000	-0,280000	2020-11-19T14:31:42:469
-1,050000	1,120000	-0,210000	2020-11-19T14:31:42:486
-1,050000	1,120000	-0,070000	2020-11-19T14:31:42:509
-0,840000	1,190000	0,070000	2020-11-19T14:31:42:526
-0,840000	1,190000	0,210000	2020-11-19T14:31:42:549
-0,910000	1,190000	0,210000	2020-11-19T14:31:42:566
-0,630000	1,190000	0,140000	2020-11-19T14:31:42:588
-0,630000	1,260000	0,070000	2020-11-19T14:31:42:609
-0,980000	1,190000	0,070000	2020-11-19T14:31:42:629
-1,190000	1,260000	0,070000	2020-11-19T14:31:42:646
-0,840000	1,260000	-0,070000	2020-11-19T14:31:42:669
-0,560000	1,190000	-0,140000	2020-11-19T14:31:42:687
-0,490000	1,260000	-0,140000	2020-11-19T14:31:42:709
-0,700000	1,190000	-0,070000	2020-11-19T14:31:42:727
-0,910000	1,260000	-0,070000	2020-11-19T14:31:42:749
-0,980000	1,330000	0,070000	2020-11-19T14:31:42:767
-0,840000	1,260000	0,140000	2020-11-19T14:31:42:789
-0,910000	1,330000	0,210000	2020-11-19T14:31:42:808
-0,980000	1,260000	0,140000	2020-11-19T14:31:42:829
-0,910000	1,190000	0,070000	2020-11-19T14:31:42:848
-0,630000	1,050000	-0,140000	2020-11-19T14:31:42:871
-0,280000	1,190000	-0,140000	2020-11-19T14:31:42:887
-0,350000	1,190000	-0,070000	2020-11-19T14:31:42:910
-0,770000	1,190000	-0,070000	2020-11-19T14:31:42:927
-1,050000	1,190000	-0,070000	2020-11-19T14:31:42:949
-1,050000	1,190000	-0,070000	2020-11-19T14:31:42:967
-0,840000	1,190000	0,070000	2020-11-19T14:31:42:989
-0,630000	1,260000	0,070000	2020-11-19T14:31:43:008
-0,560000	1,190000	0,070000	2020-11-19T14:31:43:030
-0,560000	1,190000	-0,140000	2020-11-19T14:31:43:047
-0,560000	1,330000	-0,140000	2020-11-19T14:31:43:069
-0,770000	1,260000	-0,140000	2020-11-19T14:31:43:089
-0,910000	1,330000	-0,210000	2020-11-19T14:31:43:110
-0,770000	1,330000	-0,070000	2020-11-19T14:31:43:127
-0,630000	1,400000	-0,070000	2020-11-19T14:31:43:150
-0,770000	1,330000	-0,070000	2020-11-19T14:31:43:168
-0,560000	1,260000	-0,140000	2020-11-19T14:31:43:189
-0,070000	1,050000	-0,280000	2020-11-19T14:31:43:208
-0,070000	1,120000	-0,420000	2020-11-19T14:31:43:229
-0,280000	1,190000	-0,350000	2020-11-19T14:31:43:248
-0,840000	1,260000	-0,210000	2020-11-19T14:31:43:270
-0,980000	1,260000	-0,210000	2020-11-19T14:31:43:287
-0,770000	1,260000	-0,210000	2020-11-19T14:31:43:310
-0,700000	1,260000	0,070000	2020-11-19T14:31:43:329
-0,840000	1,260000	-0,070000	2020-11-19T14:31:43:349
-0,700000	1,260000	-0,140000	2020-11-19T14:31:43:368
-0,770000	1,330000	-0,140000	2020-11-19T14:31:43:389
-1,120000	1,330000	-0,070000	2020-11-19T14:31:43:408
-1,190000	1,400000	-0,070000	2020-11-19T14:31:43:429
-0,770000	1,260000	-0,070000	2020-11-19T14:31:43:448
-0,490000	1,120000	-0,210000	2020-11-19T14:31:43:470
-0,490000	1,190000	-0,350000	2020-11-19T14:31:43:488
-0,630000	1,050000	-0,350000	2020-11-19T14:31:43:510
-0,770000	1,190000	-0,210000	2020-11-19T14:31:43:528
-0,840000	1,120000	-0,140000	2020-11-19T14:31:43:550
-0,770000	1,260000	-0,140000	2020-11-19T14:31:43:569
-0,700000	1,260000	0,070000	2020-11-19T14:31:43:589
-0,700000	1,330000	0,070000	2020-11-19T14:31:43:608
-0,700000	1,260000	0,070000	2020-11-19T14:31:43:630
-0,560000	1,190000	-0,070000	2020-11-19T14:31:43:648
-0,490000	1,190000	-0,140000	2020-11-19T14:31:43:670
-0,490000	1,190000	-0,210000	2020-11-19T14:31:43:688
-0,490000	1,260000	-0,210000	2020-11-19T14:31:43:711
-0,560000	1,330000	-0,210000	2020-11-19T14:31:43:727
-0,770000	1,330000	-0,140000	2020-11-19T14:31:43:750
-0,910000	1,260000	-0,070000	2020-11-19T14:31:43:768
-0,770000	1,330000	-0,070000	2020-11-19T14:31:43:790
-0,560000	1,260000	-0,070000	2020-11-19T14:31:43:810
-0,630000	1,260000	-0,070000	2020-11-19T14:31:43:830
-0,770000	1,260000	-0,210000	2020-11-19T14:31:43:848
-0,630000	1,260000	-0,210000	2020-11-19T14:31:43:869
-0,700000	1,190000	-0,140000	2020-11-19T14:31:43:887
-0,980000	1,050000	-0,140000	2020-11-19T14:31:43:910
-1,190000	1,120000	-0,280000	2020-11-19T14:31:43:928
-1,050000	1,190000	-0,280000	2020-11-19T14:31:43:950
-0,560000	1,120000	-0,210000	2020-11-19T14:31:43:968
-0,070000	1,190000	-0,070000	2020-11-19T14:31:43:990
-0,070000	1,260000	-0,070000	2020-11-19T14:31:44:009
-0,490000	1,260000	-0,070000	2020-11-19T14:31:44:031
-0,770000	1,190000	-0,210000	2020-11-19T14:31:44:049
-0,560000	1,190000	-0,350000	2020-11-19T14:31:44:070
-0,420000	1,260000	-0,280000	2020-11-19T14:31:44:089
-0,770000	1,190000	-0,070000	2020-11-19T14:31:44:111
-0,910000	1,260000	-0,070000	2020-11-19T14:31:44:128
-0,630000	1,260000	0,140000	2020-11-19T14:31:44:150
-0,700000	1,260000	0,070000	2020-11-19T14:31:44:168
-0,980000	1,260000	0,070000	2020-11-19T14:31:44:190
-0,980000	1,400000	0,070000	2020-11-19T14:31:44:208
-0,700000	1,190000	-0,140000	2020-11-19T14:31:44:231
-0,490000	1,260000	-0,210000	2020-11-19T14:31:44:249
-0,420000	1,190000	-0,210000	2020-11-19T14:31:44:270
-0,560000	1,190000	-0,210000	2020-11-19T14:31:44:290
-0,700000	1,190000	-0,070000	2020-11-19T14:31:44:311
-0,700000	1,260000	-0,070000	2020-11-19T14:31:44:329
-0,630000	1,190000	-0,070000	2020-11-19T14:31:44:351
-0,770000	1,190000	-0,070000	2020-11-19T14:31:44:369
-0,770000	1,260000	-0,070000	2020-11-19T14:31:44:390
-0,770000	1,330000	-0,070000	2020-11-19T14:31:44:409
-0,700000	1,260000	-0,070000	2020-11-19T14:31:44:431
-0,490000	1,260000	-0,070000	2020-11-19T14:31:44:449
-0,350000	1,260000	-0,140000	2020-11-19T14:31:44:471
-0,490000	1,330000	-0,140000	2020-11-19T14:31:44:488
-0,770000	1,260000	-0,140000	2020-11-19T14:31:44:511
-0,840000	1,330000	-0,070000	2020-11-19T14:31:44:531
-0,770000	1,330000	-0,070000	2020-11-19T14:31:44:550
-0,630000	1,260000	-0,070000	2020-11-19T14:31:44:569
-0,560000	1,190000	-0,140000	2020-11-19T14:31:44:591
-0,630000	1,260000	-0,140000	2020-11-19T14:31:44:609
-0,630000	1,120000	-0,140000	2020-11-19T14:31:44:630
-0,700000	1,190000	-0,140000	2020-11-19T14:31:44:648
-0,840000	1,120000	-0,140000	2020-11-19T14:31:44:671
-0,700000	1,330000	-0,140000	2020-11-19T14:31:44:689
-0,910000	1,260000	-0,140000	2020-11-19T14:31:44:711
-1,120000	1,120000	-0,140000	2020-11-19T14:31:44:729
-0,560000	1,260000	-0,140000	2020-11-19T14:31:44:751
-0,560000	1,190000	-0,070000	2020-11-19T14:31:44:770
-0,560000	1,260000	-0,070000	2020-11-19T14:31:44:790
-0,490000	1,120000	-0,070000	2020-11-19T14:31:44:808
-0,700000	1,260000	-0,210000	2020-11-19T14:31:44:832
-0,630000	1,260000	-0,280000	2020-11-19T14:31:44:849
-0,560000	1,260000	-0,210000	2020-11-19T14:31:44:871
-0,700000	1,330000	-0,210000	2020-11-19T14:31:44:888
-0,770000	1,190000	0,140000	2020-11-19T14:31:44:910
-0,630000	1,330000	0,140000	2020-11-19T14:31:44:928
-0,770000	1,330000	0,140000	2020-11-19T14:31:44:952
-1,120000	1,260000	0,070000	2020-11-19T14:31:44:968
-1,120000	1,260000	-0,070000	2020-11-19T14:31:44:991
-0,630000	1,260000	-0,070000	2020-11-19T14:31:45:011
-0,490000	1,260000	-0,140000	2020-11-19T14:31:45:031
-0,560000	1,260000	-0,140000	2020-11-19T14:31:45:049
-0,560000	1,120000	-0,140000	2020-11-19T14:31:45:071
-0,560000	1,260000	-0,210000	2020-11-19T14:31:45:090
-0,770000	1,120000	-0,140000	2020-11-19T14:31:45:111
-0,980000	1,050000	-0,070000	2020-11-19T14:31:45:129
-0,910000	1,120000	0,070000	2020-11-19T14:31:45:151
-0,700000	1,330000	0,140000	2020-11-19T14:31:45:169
-0,630000	1,260000	0,070000	2020-11-19T14:31:45:192
-0,840000	1,330000	0,070000	2020-11-19T14:31:45:210
-1,050000	1,190000	0,070000	2020-11-19T14:31:45:231
-0,980000	1,190000	0,070000	2020-11-19T14:31:45:251
-0,700000	1,260000	0,070000	2020-11-19T14:31:45:271
-0,350000	1,120000	-0,140000	2020-11-19T14:31:45:289
-0,070000	1,120000	-0,350000	2020-11-19T14:31:45:311
-0,280000	1,120000	-0,420000	2020-11-19T14:31:45:329
-0,700000	1,050000	-0,350000	2020-11-19T14:31:45:351
-1,050000	1,190000	-0,140000	2020-11-19T14:31:45:374
-0,980000	1,190000	0,070000	2020-11-19T14:31:45:391
-0,910000	1,330000	0,210000	2020-11-19T14:31:45:410
-0,910000	1,260000	0,140000	2020-11-19T14:31:45:431
-0,910000	1,190000	0,140000	2020-11-19T14:31:45:449
-0,910000	1,260000	-0,070000	2020-11-19T14:31:45:471
-0,980000	1,120000	-0,140000	2020-11-19T14:31:45:491
-0,490000	1,190000	-0,210000	2020-11-19T14:31:45:512
-0,490000	1,050000	-0,280000	2020-11-19T14:31:45:530
-0,070000	1,050000	-0,350000	2020-11-19T14:31:45:552
-0,420000	1,190000	-0,350000	2020-11-19T14:31:45:570
-0,700000	1,260000	-0,210000	2020-11-19T14:31:45:591
-0,770000	1,190000	-0,070000	2020-11-19T14:31:45:609
-0,700000	1,260000	0,140000	2020-11-19T14:31:45:632
-0,840000	1,260000	0,280000	2020-11-19T14:31:45:650
-0,840000	1,260000	0,140000	2020-11-19T14:31:45:672
-0,560000	1,190000	0,070000	2020-11-19T14:31:45:690
-0,770000	1,330000	0,070000	2020-11-19T14:31:45:712
-1,400000	1,400000	0,070000	2020-11-19T14:31:45:730
-1,260000	1,330000	0,140000	2020-11-19T14:31:45:751
-0,770000	1,260000	0,210000	2020-11-19T14:31:45:769
-0,420000	1,260000	0,070000	2020-11-19T14:31:45:792
-0,490000	1,190000	-0,140000	2020-11-19T14:31:45:810
-0,700000	1,050000	-0,280000	2020-11-19T14:31:45:832
-0,840000	1,120000	-0,210000	2020-11-19T14:31:45:851
-0,700000	1,260000	-0,070000	2020-11-19T14:31:45:872
-0,770000	1,190000	-0,070000	2020-11-19T14:31:45:891
-0,840000	1,190000	0,070000	2020-11-19T14:31:45:913
-0,770000	1,190000	0,070000	2020-11-19T14:31:45:930
-0,770000	1,190000	0,070000	2020-11-19T14:31:45:952
-0,560000	1,260000	-0,070000	2020-11-19T14:31:45:971
-0,490000	1,260000	-0,140000	2020-11-19T14:31:45:999
-0,350000	1,190000	-0,280000	2020-11-19T14:31:46:012
-0,280000	1,120000	-0,210000	2020-11-19T14:31:46:032
-0,560000	1,260000	-0,140000	2020-11-19T14:31:46:051
-0,910000	1,400000	-0,070000	2020-11-19T14:31:46:072
-1,050000	1,260000	-0,070000	2020-11-19T14:31:46:091
-0,910000	1,190000	-0,070000	2020-11-19T14:31:46:112
-0,700000	1,260000	-0,140000	2020-11-19T14:31:46:131
-0,630000	1,260000	-0,280000	2020-11-19T14:31:46:153
-0,630000	1,260000	-0,280000	2020-11-19T14:31:46:170
-0,700000	1,330000	-0,140000	2020-11-19T14:31:46:192
-0,910000	1,400000	0,070000	2020-11-19T14:31:46:212
-1,120000	1,260000	0,210000	2020-11-19T14:31:46:232
-0,910000	1,260000	0,070000	2020-11-19T14:31:46:250
-0,350000	1,260000	-0,140000	2020-11-19T14:31:46:272
0,070000	1,050000	-0,280000	2020-11-19T14:31:46:290
-0,070000	1,190000	-0,420000	2020-11-19T14:31:46:313
-0,560000	1,120000	-0,420000	2020-11-19T14:31:46:331
-0,770000	1,190000	-0,350000	2020-11-19T14:31:46:352
-0,700000	1,190000	-0,140000	2020-11-19T14:31:46:371
-0,630000	1,120000	-0,210000	2020-11-19T14:31:46:393
-0,490000	1,330000	-0,140000	2020-11-19T14:31:46:411
-0,490000	1,260000	-0,070000	2020-11-19T14:31:46:433
-0,770000	1,330000	0,070000	2020-11-19T14:31:46:452
-1,260000	1,400000	0,210000	2020-11-19T14:31:46:472
-1,190000	1,400000	0,070000	2020-11-19T14:31:46:490
-0,700000	1,260000	-0,140000	2020-11-19T14:31:46:513
-0,420000	1,190000	-0,350000	2020-11-19T14:31:46:531
-0,490000	1,190000	-0,350000	2020-11-19T14:31:46:552
-0,630000	1,190000	-0,140000	2020-11-19T14:31:46:570
-0,630000	1,190000	-0,070000	2020-11-19T14:31:46:593
-0,770000	1,120000	-0,070000	2020-11-19T14:31:46:611
-0,840000	1,260000	-0,070000	2020-11-19T14:31:46:633
-0,840000	1,050000	-0,070000	2020-11-19T14:31:46:651
-0,560000	1,260000	-0,070000	2020-11-19T14:31:46:672
-0,280000	1,260000	-0,070000	2020-11-19T14:31:46:691
-0,770000	1,120000	-0,070000	2020-11-19T14:31:46:713
-0,910000	1,190000	-0,070000	2020-11-19T14:31:46:730
-0,630000	1,190000	-0,070000	2020-11-19T14:31:46:753
-0,700000	1,190000	-0,140000	2020-11-19T14:31:46:770
-0,980000	1,120000	-0,210000	2020-11-19T14:31:46:793
-0,770000	1,190000	-0,140000	2020-11-19T14:31:46:812
-0,910000	1,190000	-0,210000	2020-11-19T14:31:46:833
-1,050000	1,120000	-0,350000	2020-11-19T14:31:46:852
-0,630000	1,190000	-0,350000	2020-11-19T14:31:46:873
-1,260000	2,800000	-1,120000	2020-11-19T14:31:46:892
-4,760000	0,350000	-1,400000	2020-11-19T14:31:46:913
-6,090000	1,050000	-1,680000	2020-11-19T14:31:46:933
-4,760000	1,120000	-1,470000	2020-11-19T14:31:46:953
-3,920000	1,400000	-3,080000	2020-11-19T14:31:46:972
-3,990000	-0,140000	-5,110000	2020-11-19T14:31:46:992
-2,100000	2,170000	-6,790000	2020-11-19T14:31:47:011
-0,630000	-2,450000	-8,400000	2020-11-19T14:31:47:033
0,910000	-0,770000	-6,860000	2020-11-19T14:31:47:053
3,080000	-1,050000	-8,610000	2020-11-19T14:31:47:073
5,600000	-2,170000	-10,220000	2020-11-19T14:31:47:092
7,490000	-3,850000	-10,780000	2020-11-19T14:31:47:115
9,450000	-4,480000	-10,570000	2020-11-19T14:31:47:133
9,590000	-5,880000	-10,290000	2020-11-19T14:31:47:154
14,000000	-8,050000	-10,360000	2020-11-19T14:31:47:173
16,100000	-9,660000	-10,360000	2020-11-19T14:31:47:193
20,930000	-11,900000	-10,570000	2020-11-19T14:31:47:212
14,420000	-11,410000	-11,340000	2020-11-19T14:31:47:234
16,240000	-13,720000	-11,620000	2020-11-19T14:31:47:252
12,740000	-14,910000	-11,200000	2020-11-19T14:31:47:274
14,350000	-17,010000	-9,380000	2020-11-19T14:31:47:291
2,520000	-16,590000	-8,960000	2020-11-19T14:31:47:313
5,320000	-19,180000	-5,180000	2020-11-19T14:31:47:330
-0,700000	-17,990000	-5,040000	2020-11-19T14:31:47:354
-3,990000	-17,080000	-4,480000	2020-11-19T14:31:47:371
0,140000	-17,710001	-5,250000	2020-11-19T14:31:47:394
0,140000	-18,900000	-5,670000	2020-11-19T14:31:47:414
-0,700000	-16,520000	-5,390000	2020-11-19T14:31:47:433
2,240000	-14,840000	-7,070000	2020-11-19T14:31:47:450
10,500000	-13,790000	-3,920000	2020-11-19T14:31:47:474
18,620001	-15,680000	-4,690000	2020-11-19T14:31:47:492
23,730000	-14,980000	0,770000	2020-11-19T14:31:47:514
3,290000	-12,040000	-0,350000	2020-11-19T14:31:47:531
23,940001	-12,250000	3,430000	2020-11-19T14:31:47:553
55,230000	-17,990000	5,460000	2020-11-19T14:31:47:571
76,090004	-20,719999	7,700000	2020-11-19T14:31:47:594
106,470001	-28,210001	5,530000	2020-11-19T14:31:47:613
143,779999	-21,420000	7,280000	2020-11-19T14:31:47:635
148,750000	-16,030001	14,490000	2020-11-19T14:31:47:653
125,160004	-16,100000	19,389999	2020-11-19T14:31:47:674
101,430000	-21,280001	20,370001	2020-11-19T14:31:47:692
100,169998	-25,969999	12,810000	2020-11-19T14:31:47:715
129,149994	-25,830000	8,610000	2020-11-19T14:31:47:732
131,740005	-23,590000	9,170000	2020-11-19T14:31:47:755
96,739998	-24,290001	10,780000	2020-11-19T14:31:47:772
53,970001	-26,809999	14,210000	2020-11-19T14:31:47:795
38,990002	-30,799999	21,700001	2020-11-19T14:31:47:813
48,090000	-32,900002	22,400000	2020-11-19T14:31:47:835
82,040001	-31,780001	28,980000	2020-11-19T14:31:47:852
115,430000	-28,139999	38,360001	2020-11-19T14:31:47:875
139,300003	-26,950001	43,959999	2020-11-19T14:31:47:893
159,740005	-24,850000	50,750000	2020-11-19T14:31:47:915
170,309998	-13,790000	58,730000	2020-11-19T14:31:47:932
144,059998	16,730000	30,520000	2020-11-19T14:31:47:955
106,190002	12,740000	25,270000	2020-11-19T14:31:47:971
78,120003	18,270000	23,730000	2020-11-19T14:31:47:995
52,080002	16,170000	17,850000	2020-11-19T14:31:48:012
48,580002	18,059999	9,660000	2020-11-19T14:31:48:034
44,099998	22,190001	4,340000	2020-11-19T14:31:48:052
41,650002	24,010000	-4,340000	2020-11-19T14:31:48:077
37,869999	24,360001	-7,630000	2020-11-19T14:31:48:098
33,880001	23,870001	-9,380000	2020-11-19T14:31:48:116
32,130001	22,960001	-8,260000	2020-11-19T14:31:48:136
27,020000	20,860001	-5,810000	2020-11-19T14:31:48:155
17,780001	17,500000	-5,390000	2020-11-19T14:31:48:174
12,320000	15,050000	-5,670000	2020-11-19T14:31:48:196
7,280000	14,350000	-6,090000	2020-11-19T14:31:48:214
4,060000	12,460000	-8,190000	2020-11-19T14:31:48:236
4,340000	12,180000	-7,210000	2020-11-19T14:31:48:254
10,290000	12,040000	-7,210000	2020-11-19T14:31:48:277
15,540000	10,360000	-5,180000	2020-11-19T14:31:48:293
11,270000	7,140000	-3,850000	2020-11-19T14:31:48:317
2,590000	2,800000	-4,130000	2020-11-19T14:31:48:334
-0,210000	1,050000	-3,010000	2020-11-19T14:31:48:356
0,910000	1,680000	-1,190000	2020-11-19T14:31:48:375
0,140000	2,240000	-1,750000	2020-11-19T14:31:48:396
-0,140000	3,150000	-2,240000	2020-11-19T14:31:48:414
0,070000	3,360000	-2,450000	2020-11-19T14:31:48:436
-0,350000	3,570000	-2,170000	2020-11-19T14:31:48:454
-2,240000	3,010000	-2,870000	2020-11-19T14:31:48:476
-2,450000	4,550000	-4,620000	2020-11-19T14:31:48:493
0,280000	4,130000	-3,360000	2020-11-19T14:31:48:517
-0,070000	4,760000	-3,080000	2020-11-19T14:31:48:534
-0,630000	4,480000	-2,940000	2020-11-19T14:31:48:556
0,280000	4,200000	-3,220000	2020-11-19T14:31:48:574
2,520000	3,150000	-3,220000	2020-11-19T14:31:48:597
2,800000	2,520000	-2,240000	2020-11-19T14:31:48:616
0,210000	1,400000	-1,820000	2020-11-19T14:31:48:636
-0,980000	1,330000	-1,540000	2020-11-19T14:31:48:654
1,750000	1,960000	-0,210000	2020-11-19T14:31:48:677
2,170000	2,100000	-0,210000	2020-11-19T14:31:48:694
-0,980000	1,610000	0,350000	2020-11-19T14:31:48:717
-5,250000	0,560000	-2,030000	2020-11-19T14:31:48:734
-4,340000	0,560000	1,260000	2020-11-19T14:31:48:757
-5,250000	0,490000	1,120000	2020-11-19T14:31:48:774
-3,850000	1,330000	1,610000	2020-11-19T14:31:48:797
-2,240000	1,190000	1,820000	2020-11-19T14:31:48:815
-1,470000	1,400000	2,170000	2020-11-19T14:31:48:837
-2,240000	0,560000	2,450000	2020-11-19T14:31:48:855
-2,450000	0,140000	2,380000	2020-11-19T14:31:48:876
-1,960000	-0,070000	2,100000	2020-11-19T14:31:48:894
-1,470000	-0,140000	1,610000	2020-11-19T14:31:48:917
-0,490000	-1,050000	1,190000	2020-11-19T14:31:48:933
2,660000	-0,490000	-0,630000	2020-11-19T14:31:48:957
-1,540000	3,500000	-0,210000	2020-11-19T14:31:48:975
-3,360000	4,620000	-3,010000	2020-11-19T14:31:48:997
-3,570000	2,450000	-5,320000	2020-11-19T14:31:49:015
-4,550000	0,700000	-5,390000	2020-11-19T14:31:49:038
-2,590000	0,280000	-0,420000	2020-11-19T14:31:49:055
-2,100000	0,770000	-0,350000	2020-11-19T14:31:49:077
-1,750000	1,260000	-0,630000	2020-11-19T14:31:49:096
-0,070000	1,680000	-0,630000	2020-11-19T14:31:49:117
0,770000	1,750000	-1,120000	2020-11-19T14:31:49:134
1,050000	1,750000	-2,170000	2020-11-19T14:31:49:157
0,070000	1,400000	-4,270000	2020-11-19T14:31:49:175
0,280000	1,960000	-3,850000	2020-11-19T14:31:49:197
0,140000	1,960000	-4,550000	2020-11-19T14:31:49:215
0,630000	2,030000	-4,270000	2020-11-19T14:31:49:237
0,770000	1,750000	-3,360000	2020-11-19T14:31:49:255
1,120000	1,400000	-2,450000	2020-11-19T14:31:49:277
2,590000	1,610000	-1,960000	2020-11-19T14:31:49:295
4,200000	1,190000	-1,750000	2020-11-19T14:31:49:317
2,940000	0,700000	-2,100000	2020-11-19T14:31:49:335
1,050000	0,840000	-2,380000	2020-11-19T14:31:49:357
-1,400000	0,840000	-2,940000	2020-11-19T14:31:49:374
-0,560000	1,890000	-2,870000	2020-11-19T14:31:49:397
1,400000	2,520000	-2,170000	2020-11-19T14:31:49:415
1,470000	2,380000	-1,400000	2020-11-19T14:31:49:437
0,070000	2,100000	-0,980000	2020-11-19T14:31:49:455
0,070000	2,170000	-0,140000	2020-11-19T14:31:49:477
0,700000	2,450000	-0,140000	2020-11-19T14:31:49:495
0,350000	2,380000	-1,050000	2020-11-19T14:31:49:518
-1,680000	1,470000	-1,960000	2020-11-19T14:31:49:535
-3,920000	1,260000	-3,010000	2020-11-19T14:31:49:557
-3,290000	0,770000	-2,170000	2020-11-19T14:31:49:576
-4,200000	0,770000	-2,450000	2020-11-19T14:31:49:597
-3,500000	0,700000	-1,260000	2020-11-19T14:31:49:615
-4,060000	0,280000	-1,260000	2020-11-19T14:31:49:637
-3,640000	0,350000	-1,400000	2020-11-19T14:31:49:655
-1,400000	0,770000	-1,330000	2020-11-19T14:31:49:678
0,840000	0,770000	-1,190000	2020-11-19T14:31:49:695
2,170000	1,190000	-0,840000	2020-11-19T14:31:49:718
-0,420000	1,400000	-0,350000	2020-11-19T14:31:49:735
-1,680000	1,960000	-1,540000	2020-11-19T14:31:49:758
-4,620000	2,030000	-1,470000	2020-11-19T14:31:49:775
-4,620000	1,960000	-1,260000	2020-11-19T14:31:49:797
-3,570000	1,610000	-1,190000	2020-11-19T14:31:49:817
-2,380000	1,540000	-1,260000	2020-11-19T14:31:49:837
-1,610000	1,820000	-1,400000	2020-11-19T14:31:49:855
-0,910000	2,100000	-1,330000	2020-11-19T14:31:49:878
0,280000	2,170000	-1,120000	2020-11-19T14:31:49:895
1,120000	1,820000	-0,770000	2020-11-19T14:31:49:918
1,050000	1,260000	-0,420000	2020-11-19T14:31:49:935
-0,140000	0,840000	-0,350000	2020-11-19T14:31:49:957
-1,050000	1,120000	-0,420000	2020-11-19T14:31:49:976
0,070000	1,960000	-0,490000	2020-11-19T14:31:49:999
2,870000	2,800000	-0,280000	2020-11-19T14:31:50:016
5,390000	3,080000	-0,140000	2020-11-19T14:31:50:037
5,880000	3,080000	-0,280000	2020-11-19T14:31:50:056
2,730000	1,750000	-0,910000	2020-11-19T14:31:50:077
3,080000	2,240000	-0,070000	2020-11-19T14:31:50:096
5,180000	3,010000	0,070000	2020-11-19T14:31:50:118
3,500000	2,450000	0,070000	2020-11-19T14:31:50:136
-0,070000	1,890000	-0,350000	2020-11-19T14:31:50:157
-0,560000	2,170000	-0,210000	2020-11-19T14:31:50:175
-2,660000	1,050000	-0,350000	2020-11-19T14:31:50:197
0,630000	2,170000	-0,210000	2020-11-19T14:31:50:216
0,910000	2,100000	-0,560000	2020-11-19T14:31:50:238
-0,350000	1,680000	-0,980000	2020-11-19T14:31:50:256
-0,910000	1,400000	-0,770000	2020-11-19T14:31:50:278
-2,870000	0,700000	-0,980000	2020-11-19T14:31:50:297
-3,710000	0,070000	-0,840000	2020-11-19T14:31:50:318
-3,220000	0,140000	-1,050000	2020-11-19T14:31:50:336
-1,680000	0,700000	-1,330000	2020-11-19T14:31:50:358
0,210000	1,750000	-1,470000	2020-11-19T14:31:50:400
1,540000	2,800000	-0,910000	2020-11-19T14:31:50:402
1,680000	2,800000	0,210000	2020-11-19T14:31:50:416
0,910000	1,820000	0,910000	2020-11-19T14:31:50:438
0,420000	1,470000	1,260000	2020-11-19T14:31:50:456
-1,190000	1,120000	0,910000	2020-11-19T14:31:50:478
-2,170000	1,120000	0,420000	2020-11-19T14:31:50:496
-3,920000	1,190000	0,140000	2020-11-19T14:31:50:519
-4,970000	1,610000	-0,070000	2020-11-19T14:31:50:537
-3,850000	2,170000	-0,350000	2020-11-19T14:31:50:563
-2,310000	2,380000	-0,350000	2020-11-19T14:31:50:577
-2,240000	2,380000	0,350000	2020-11-19T14:31:50:598
-2,800000	2,380000	0,700000	2020-11-19T14:31:50:616
-2,660000	2,380000	0,910000	2020-11-19T14:31:50:638
-1,960000	2,100000	0,630000	2020-11-19T14:31:50:655
-1,120000	2,100000	0,490000	2020-11-19T14:31:50:678
-0,490000	1,820000	0,350000	2020-11-19T14:31:50:696
-0,490000	1,750000	0,280000	2020-11-19T14:31:50:719
-0,910000	1,540000	0,350000	2020-11-19T14:31:50:736
-1,470000	1,120000	0,490000	2020-11-19T14:31:50:758
-1,400000	0,980000	0,560000	2020-11-19T14:31:50:777
-0,980000	0,700000	0,560000	2020-11-19T14:31:50:799
-0,840000	0,490000	0,560000	2020-11-19T14:31:50:817
-1,050000	0,490000	0,770000	2020-11-19T14:31:50:838
-2,240000	0,350000	0,420000	2020-11-19T14:31:50:856
-3,290000	0,630000	0,420000	2020-11-19T14:31:50:879
-4,340000	0,910000	0,280000	2020-11-19T14:31:50:896
-4,550000	1,120000	-0,070000	2020-11-19T14:31:50:919
-3,150000	1,610000	-0,210000	2020-11-19T14:31:50:936
-1,680000	1,470000	-0,210000	2020-11-19T14:31:50:960
-1,680000	1,190000	-0,210000	2020-11-19T14:31:50:976
-2,030000	1,120000	0,140000	2020-11-19T14:31:50:998
-3,010000	0,770000	0,140000	2020-11-19T14:31:51:018
-3,150000	1,050000	-0,140000	2020-11-19T14:31:51:039
-2,450000	1,540000	-0,070000	2020-11-19T14:31:51:056
-1,820000	1,750000	0,140000	2020-11-19T14:31:51:079
-1,400000	1,680000	0,350000	2020-11-19T14:31:51:097
-0,490000	1,960000	0,630000	2020-11-19T14:31:51:120
-0,490000	1,960000	0,980000	2020-11-19T14:31:51:137
-0,210000	1,330000	0,840000	2020-11-19T14:31:51:159
-0,700000	0,910000	0,910000	2020-11-19T14:31:51:176
-1,050000	0,350000	1,120000	2020-11-19T14:31:51:200
-1,540000	0,210000	1,260000	2020-11-19T14:31:51:217
-0,910000	0,630000	1,260000	2020-11-19T14:31:51:239
-0,560000	0,560000	1,190000	2020-11-19T14:31:51:257
-0,840000	0,630000	0,980000	2020-11-19T14:31:51:279
-1,050000	0,420000	0,770000	2020-11-19T14:31:51:297
-1,750000	0,420000	0,420000	2020-11-19T14:31:51:319
-3,990000	1,190000	0,280000	2020-11-19T14:31:51:337
-3,990000	2,030000	0,350000	2020-11-19T14:31:51:360
-0,840000	2,660000	0,630000	2020-11-19T14:31:51:377
1,750000	3,010000	0,840000	2020-11-19T14:31:51:399
1,680000	2,660000	0,770000	2020-11-19T14:31:51:417
0,630000	2,100000	1,050000	2020-11-19T14:31:51:440
-0,070000	1,680000	1,540000	2020-11-19T14:31:51:457
-0,070000	0,980000	1,470000	2020-11-19T14:31:51:479
0,770000	0,280000	1,260000	2020-11-19T14:31:51:498
1,400000	-0,070000	0,840000	2020-11-19T14:31:51:520
0,700000	-0,210000	0,350000	2020-11-19T14:31:51:537
0,420000	-0,140000	-0,070000	2020-11-19T14:31:51:560
0,420000	0,350000	-0,910000	2020-11-19T14:31:51:577
-0,350000	0,910000	-1,750000	2020-11-19T14:31:51:600
-1,330000	1,330000	-2,100000	2020-11-19T14:31:51:617
-2,100000	1,750000	-2,170000	2020-11-19T14:31:51:639
-1,540000	2,310000	-1,890000	2020-11-19T14:31:51:657
-0,420000	2,520000	-1,680000	2020-11-19T14:31:51:681
0,350000	2,380000	-1,190000	2020-11-19T14:31:51:697
0,280000	2,170000	-0,420000	2020-11-19T14:31:51:719
-0,770000	1,190000	-0,420000	2020-11-19T14:31:51:738
-1,470000	1,190000	0,350000	2020-11-19T14:31:51:760
0,070000	0,770000	1,960000	2020-11-19T14:31:51:776
-1,890000	-0,420000	2,240000	2020-11-19T14:31:51:799
-2,870000	-1,400000	2,240000	2020-11-19T14:31:51:817
-4,620000	-1,470000	3,920000	2020-11-19T14:31:51:840
-4,970000	-1,260000	2,170000	2020-11-19T14:31:51:856
-2,660000	1,610000	-0,070000	2020-11-19T14:31:51:879
1,470000	3,850000	-0,280000	2020-11-19T14:31:51:897
2,170000	4,130000	-0,490000	2020-11-19T14:31:51:921
-2,590000	3,080000	-0,630000	2020-11-19T14:31:51:937
-1,540000	2,100000	0,140000	2020-11-19T14:31:51:959
-1,190000	0,560000	0,140000	2020-11-19T14:31:51:978
-1,820000	-0,280000	0,070000	2020-11-19T14:31:52:000
-0,840000	-0,140000	0,210000	2020-11-19T14:31:52:018
0,210000	-0,140000	0,280000	2020-11-19T14:31:52:040
-0,700000	-0,280000	0,280000	2020-11-19T14:31:52:056
-1,330000	0,140000	-0,350000	2020-11-19T14:31:52:081
-0,490000	1,050000	-0,490000	2020-11-19T14:31:52:098
-0,280000	1,540000	-0,700000	2020-11-19T14:31:52:120
-0,490000	1,540000	-0,630000	2020-11-19T14:31:52:138
-1,190000	1,610000	-0,420000	2020-11-19T14:31:52:161
-1,890000	1,470000	-0,350000	2020-11-19T14:31:52:177
-1,330000	1,890000	-0,070000	2020-11-19T14:31:52:199
-0,280000	1,820000	0,350000	2020-11-19T14:31:52:219
0,140000	1,890000	0,910000	2020-11-19T14:31:52:241
0,210000	1,750000	1,120000	2020-11-19T14:31:52:257
0,210000	1,470000	1,260000	2020-11-19T14:31:52:280
-0,140000	1,050000	1,330000	2020-11-19T14:31:52:298
-0,630000	0,210000	1,190000	2020-11-19T14:31:52:321
-1,050000	-0,140000	1,260000	2020-11-19T14:31:52:338
-1,820000	0,280000	0,980000	2020-11-19T14:31:52:360
-0,420000	1,680000	0,770000	2020-11-19T14:31:52:378
2,380000	2,380000	0,630000	2020-11-19T14:31:52:401
2,100000	2,240000	0,560000	2020-11-19T14:31:52:418
-0,350000	1,540000	0,350000	2020-11-19T14:31:52:440
-1,470000	1,050000	0,140000	2020-11-19T14:31:52:459
-0,700000	0,700000	-0,070000	2020-11-19T14:31:52:481
0,210000	0,560000	-0,420000	2020-11-19T14:31:52:497
0,280000	0,840000	-0,490000	2020-11-19T14:31:52:520
-0,560000	1,050000	-0,280000	2020-11-19T14:31:52:538
-2,310000	0,280000	-0,560000	2020-11-19T14:31:52:561
-3,640000	-0,490000	-0,980000	2020-11-19T14:31:52:578
-2,520000	0,210000	-1,120000	2020-11-19T14:31:52:600
-0,140000	1,120000	-0,770000	2020-11-19T14:31:52:618
0,910000	1,680000	-0,630000	2020-11-19T14:31:52:642
-0,070000	2,310000	-0,420000	2020-11-19T14:31:52:657
-2,100000	2,030000	-0,630000	2020-11-19T14:31:52:680
-3,220000	1,750000	-0,630000	2020-11-19T14:31:52:699
-2,870000	1,540000	-0,700000	2020-11-19T14:31:52:721
-0,420000	1,820000	-0,280000	2020-11-19T14:31:52:738
1,750000	1,750000	0,280000	2020-11-19T14:31:52:760
1,680000	1,400000	0,490000	2020-11-19T14:31:52:778
0,280000	1,050000	0,560000	2020-11-19T14:31:52:801
-1,120000	0,630000	0,350000	2020-11-19T14:31:52:819
-1,680000	0,350000	0,280000	2020-11-19T14:31:52:840
-1,120000	0,700000	0,490000	2020-11-19T14:31:52:858
-0,420000	0,980000	0,350000	2020-11-19T14:31:52:882
0,980000	0,630000	0,140000	2020-11-19T14:31:52:898
-1,400000	-0,140000	0,210000	2020-11-19T14:31:52:921
-6,160000	0,560000	-0,770000	2020-11-19T14:31:52:940
-3,920000	2,730000	-0,980000	2020-11-19T14:31:52:962
1,400000	3,150000	-0,350000	2020-11-19T14:31:52:979
-1,540000	1,960000	-1,050000	2020-11-19T14:31:53:000
-1,050000	2,380000	-0,070000	2020-11-19T14:31:53:019
1,120000	2,310000	0,280000	2020-11-19T14:31:53:040
0,770000	1,120000	0,280000	2020-11-19T14:31:53:058
0,070000	0,910000	0,420000	2020-11-19T14:31:53:081
0,630000	0,770000	0,700000	2020-11-19T14:31:53:099
0,420000	0,420000	0,490000	2020-11-19T14:31:53:122
-0,770000	-0,140000	0,490000	2020-11-19T14:31:53:138
-0,770000	0,210000	-0,420000	2020-11-19T14:31:53:160
0,070000	1,260000	-0,490000	2020-11-19T14:31:53:180
-0,350000	2,100000	-0,630000	2020-11-19T14:31:53:201
-1,610000	2,800000	-0,910000	2020-11-19T14:31:53:218
-2,590000	2,520000	-1,190000	2020-11-19T14:31:53:240
-2,520000	1,610000	-1,540000	2020-11-19T14:31:53:258
-1,820000	0,980000	-1,540000	2020-11-19T14:31:53:281
-0,210000	1,050000	-1,260000	2020-11-19T14:31:53:298
0,630000	1,540000	-0,700000	2020-11-19T14:31:53:321
0,140000	1,610000	-0,280000	2020-11-19T14:31:53:338
-1,330000	1,470000	0,280000	2020-11-19T14:31:53:362
-2,450000	1,190000	0,630000	2020-11-19T14:31:53:378
-1,680000	1,120000	0,980000	2020-11-19T14:31:53:400
-0,280000	1,190000	1,190000	2020-11-19T14:31:53:420
0,210000	1,190000	1,330000	2020-11-19T14:31:53:441
-0,070000	0,980000	1,330000	2020-11-19T14:31:53:458
-0,700000	0,420000	0,980000	2020-11-19T14:31:53:482
-1,540000	-0,560000	0,490000	2020-11-19T14:31:53:499
-4,550000	-0,840000	-0,280000	2020-11-19T14:31:53:522
-5,320000	0,490000	-0,840000	2020-11-19T14:31:53:539
-1,050000	1,610000	-1,190000	2020-11-19T14:31:53:561
-1,050000	-0,420000	-1,470000	2020-11-19T14:31:53:578
-3,290000	0,560000	-1,750000	2020-11-19T14:31:53:602
-1,190000	2,380000	-1,330000	2020-11-19T14:31:53:619
-0,490000	2,310000	-1,750000	2020-11-19T14:31:53:641
1,750000	2,310000	-0,980000	2020-11-19T14:31:53:660
-0,980000	1,890000	-0,630000	2020-11-19T14:31:53:682
-4,620000	0,980000	-0,210000	2020-11-19T14:31:53:699
-0,980000	0,910000	0,350000	2020-11-19T14:31:53:722
-1,260000	0,210000	-0,140000	2020-11-19T14:31:53:739
-2,380000	-0,070000	-0,420000	2020-11-19T14:31:53:762
-1,750000	0,420000	-0,280000	2020-11-19T14:31:53:779
-1,260000	1,330000	-0,280000	2020-11-19T14:31:53:801
-0,980000	2,030000	-0,280000	2020-11-19T14:31:53:820
-1,050000	2,170000	-0,420000	2020-11-19T14:31:53:843
-1,610000	1,680000	-0,770000	2020-11-19T14:31:53:859
-1,610000	1,540000	-1,120000	2020-11-19T14:31:53:881
-0,840000	1,680000	-1,190000	2020-11-19T14:31:53:900
0,350000	1,890000	-0,980000	2020-11-19T14:31:53:922
0,910000	2,170000	-0,630000	2020-11-19T14:31:53:939
0,910000	2,240000	-0,630000	2020-11-19T14:31:53:961
-1,120000	1,750000	0,280000	2020-11-19T14:31:53:979
-1,050000	1,330000	0,350000	2020-11-19T14:31:54:002
-1,050000	1,190000	0,490000	2020-11-19T14:31:54:020
0,630000	1,260000	0,490000	2020-11-19T14:31:54:041
0,140000	1,120000	0,560000	2020-11-19T14:31:54:058
-1,260000	1,540000	0,770000	2020-11-19T14:31:54:083
-0,560000	0,980000	0,490000	2020-11-19T14:31:54:100
-1,540000	0,350000	0,140000	2020-11-19T14:31:54:122
-2,730000	1,190000	-0,350000	2020-11-19T14:31:54:141
-0,070000	2,870000	-0,070000	2020-11-19T14:31:54:162
1,820000	3,360000	0,490000	2020-11-19T14:31:54:179
0,420000	2,870000	0,490000	2020-11-19T14:31:54:202
0,350000	2,590000	0,490000	2020-11-19T14:31:54:220
0,980000	1,750000	-0,070000	2020-11-19T14:31:54:242
0,980000	0,910000	0,770000	2020-11-19T14:31:54:259
-0,140000	0,350000	0,280000	2020-11-19T14:31:54:282
0,070000	0,070000	0,840000	2020-11-19T14:31:54:299
-0,420000	-0,280000	0,420000	2020-11-19T14:31:54:323
-0,840000	-0,210000	-0,070000	2020-11-19T14:31:54:339
-0,420000	-0,210000	-0,420000	2020-11-19T14:31:54:362
-0,140000	0,770000	-0,560000	2020-11-19T14:31:54:381
-0,350000	1,610000	-1,050000	2020-11-19T14:31:54:403
-0,840000	2,170000	-1,260000	2020-11-19T14:31:54:420
-1,400000	2,100000	-1,330000	2020-11-19T14:31:54:442
-2,030000	1,960000	-1,330000	2020-11-19T14:31:54:459
-2,170000	1,540000	-1,050000	2020-11-19T14:31:54:482
-1,120000	1,330000	-0,840000	2020-11-19T14:31:54:499
0,210000	1,260000	-0,560000	2020-11-19T14:31:54:523
0,280000	0,980000	-0,560000	2020-11-19T14:31:54:540
-0,280000	0,980000	-0,350000	2020-11-19T14:31:54:563
-0,700000	0,980000	-0,350000	2020-11-19T14:31:54:580
-0,840000	0,840000	0,140000	2020-11-19T14:31:54:602
-0,770000	1,260000	0,140000	2020-11-19T14:31:54:621
-0,280000	1,820000	0,070000	2020-11-19T14:31:54:643
0,070000	1,610000	-0,140000	2020-11-19T14:31:54:660
-0,140000	1,470000	-0,280000	2020-11-19T14:31:54:683
-1,190000	1,260000	-0,350000	2020-11-19T14:31:54:700
-2,100000	1,190000	-0,350000	2020-11-19T14:31:54:723
-1,470000	1,260000	-0,350000	2020-11-19T14:31:54:740
0,070000	1,330000	-0,420000	2020-11-19T14:31:54:762
0,700000	1,190000	-0,490000	2020-11-19T14:31:54:780
0,140000	0,980000	-0,490000	2020-11-19T14:31:54:803
-0,910000	0,980000	-0,560000	2020-11-19T14:31:54:820
-1,680000	0,840000	-0,630000	2020-11-19T14:31:54:843
-1,750000	0,980000	-0,630000	2020-11-19T14:31:54:862
-1,330000	1,260000	-0,630000	2020-11-19T14:31:54:884
-0,700000	1,330000	-0,770000	2020-11-19T14:31:54:900
-0,210000	1,470000	-0,770000	2020-11-19T14:31:54:923
-0,280000	1,820000	-0,560000	2020-11-19T14:31:54:940
-0,840000	1,680000	-0,280000	2020-11-19T14:31:54:963
-1,400000	1,260000	-0,280000	2020-11-19T14:31:54:980
-1,610000	0,910000	-0,280000	2020-11-19T14:31:55:002
-1,470000	0,840000	-0,350000	2020-11-19T14:31:55:020
-1,190000	0,770000	-0,280000	2020-11-19T14:31:55:043
-1,120000	0,840000	-0,280000	2020-11-19T14:31:55:060
-0,840000	0,840000	-0,350000	2020-11-19T14:31:55:082
-0,350000	1,680000	-0,210000	2020-11-19T14:31:55:103
0,140000	1,960000	-0,210000	2020-11-19T14:31:55:123
0,350000	1,960000	0,560000	2020-11-19T14:31:55:140
0,210000	1,750000	0,770000	2020-11-19T14:31:55:162
-0,070000	1,610000	0,980000	2020-11-19T14:31:55:180
0,910000	1,190000	0,700000	2020-11-19T14:31:55:203
1,470000	0,700000	0,560000	2020-11-19T14:31:55:221
-0,560000	0,490000	0,420000	2020-11-19T14:31:55:242
-1,050000	1,400000	0,420000	2020-11-19T14:31:55:260
0,980000	1,960000	0,140000	2020-11-19T14:31:55:283
0,700000	1,750000	0,210000	2020-11-19T14:31:55:300
-1,120000	1,470000	-0,140000	2020-11-19T14:31:55:323
-1,120000	1,610000	-0,210000	2020-11-19T14:31:55:341
-0,210000	1,260000	-0,490000	2020-11-19T14:31:55:363
0,280000	0,980000	-0,560000	2020-11-19T14:31:55:380
-0,420000	1,050000	-0,420000	2020-11-19T14:31:55:403
-1,330000	0,910000	-0,350000	2020-11-19T14:31:55:421
-2,030000	0,630000	-0,350000	2020-11-19T14:31:55:443
-2,100000	0,490000	-0,140000	2020-11-19T14:31:55:461
-1,400000	0,840000	-0,070000	2020-11-19T14:31:55:483
-0,140000	1,680000	-0,070000	2020-11-19T14:31:55:501
0,980000	2,240000	-0,070000	2020-11-19T14:31:55:524
0,840000	2,170000	0,070000	2020-11-19T14:31:55:541
-0,700000	1,610000	0,210000	2020-11-19T14:31:55:563
-2,100000	1,050000	0,210000	2020-11-19T14:31:55:582
-1,960000	0,700000	0,210000	2020-11-19T14:31:55:603
-0,630000	0,980000	-0,070000	2020-11-19T14:31:55:621
0,490000	1,260000	-0,070000	2020-11-19T14:31:55:643
0,840000	1,190000	0,070000	2020-11-19T14:31:55:661
0,350000	1,400000	0,070000	2020-11-19T14:31:55:684
-0,770000	1,470000	0,070000	2020-11-19T14:31:55:700
-1,680000	1,540000	0,070000	2020-11-19T14:31:55:723
-1,540000	1,540000	0,070000	2020-11-19T14:31:55:741
-0,560000	1,610000	0,140000	2020-11-19T14:31:55:764
0,140000	1,400000	0,140000	2020-11-19T14:31:55:781
0,070000	1,260000	-0,140000	2020-11-19T14:31:55:803
-0,420000	1,190000	-0,140000	2020-11-19T14:31:55:823
-0,980000	1,190000	-0,140000	2020-11-19T14:31:55:844
-1,050000	1,260000	-0,140000	2020-11-19T14:31:55:861
-0,770000	1,400000	-0,070000	2020-11-19T14:31:55:883
-0,490000	1,470000	-0,070000	2020-11-19T14:31:55:900
-0,490000	1,610000	-0,070000	2020-11-19T14:31:55:924
0,280000	1,540000	-0,140000	2020-11-19T14:31:55:941
0,280000	1,470000	-0,140000	2020-11-19T14:31:55:963
-0,560000	1,330000	-0,140000	2020-11-19T14:31:55:981
-0,770000	1,540000	-0,140000	2020-11-19T14:31:56:010
-0,770000	1,330000	-0,140000	2020-11-19T14:31:56:022
-0,560000	1,260000	-0,070000	2020-11-19T14:31:56:043
-0,210000	1,470000	-0,070000	2020-11-19T14:31:56:062
-0,420000	1,400000	-0,070000	2020-11-19T14:31:56:084
-0,770000	1,330000	-0,140000	2020-11-19T14:31:56:101
-0,980000	1,260000	-0,140000	2020-11-19T14:31:56:124
-1,120000	1,190000	-0,210000	2020-11-19T14:31:56:141
-0,910000	1,330000	-0,210000	2020-11-19T14:31:56:164
-0,770000	1,260000	-0,280000	2020-11-19T14:31:56:181
-0,700000	1,330000	-0,280000	2020-11-19T14:31:56:203
-0,770000	1,330000	-0,140000	2020-11-19T14:31:56:222
-0,770000	1,120000	-0,140000	2020-11-19T14:31:56:244
-0,630000	1,050000	-0,140000	2020-11-19T14:31:56:261
-0,420000	1,120000	0,070000	2020-11-19T14:31:56:283
-0,280000	1,190000	0,070000	2020-11-19T14:31:56:303
-0,420000	1,260000	-0,070000	2020-11-19T14:31:56:324
-0,980000	1,260000	-0,070000	2020-11-19T14:31:56:341
-1,330000	1,190000	-0,070000	2020-11-19T14:31:56:363
-1,400000	1,190000	-0,070000	2020-11-19T14:31:56:381
-0,910000	1,540000	-0,070000	2020-11-19T14:31:56:404
-0,280000	1,540000	-0,070000	2020-11-19T14:31:56:422
-0,280000	1,540000	-0,140000	2020-11-19T14:31:56:443
-0,420000	1,540000	-0,070000	2020-11-19T14:31:56:462
-1,050000	1,260000	-0,070000	2020-11-19T14:31:56:485
-1,330000	1,050000	-0,140000	2020-11-19T14:31:56:501
-0,980000	1,190000	-0,070000	2020-11-19T14:31:56:523
-0,280000	1,260000	-0,140000	2020-11-19T14:31:56:543
-0,070000	1,260000	-0,140000	2020-11-19T14:31:56:564
-0,420000	1,260000	-0,140000	2020-11-19T14:31:56:582
-0,840000	1,260000	-0,140000	2020-11-19T14:31:56:603
-0,910000	1,330000	-0,140000	2020-11-19T14:31:56:622
-0,840000	1,400000	-0,070000	2020-11-19T14:31:56:644
-0,840000	1,540000	-0,070000	2020-11-19T14:31:56:662
-0,910000	1,190000	-0,070000	2020-11-19T14:31:56:683
-0,770000	1,330000	-0,070000	2020-11-19T14:31:56:702
-0,560000	1,260000	-0,070000	2020-11-19T14:31:56:724
-0,560000	1,190000	-0,070000	2020-11-19T14:31:56:741
-0,770000	1,120000	-0,070000	2020-11-19T14:31:56:763
-0,980000	0,980000	0,070000	2020-11-19T14:31:56:783
-0,980000	1,050000	0,070000	2020-11-19T14:31:56:804
-0,700000	1,190000	0,070000	2020-11-19T14:31:56:822
-0,490000	1,190000	-0,070000	2020-11-19T14:31:56:843
-0,350000	1,260000	-0,070000	2020-11-19T14:31:56:862
-0,630000	1,050000	-0,070000	2020-11-19T14:31:56:884
-0,980000	0,980000	-0,070000	2020-11-19T14:31:56:901
-1,260000	1,050000	-0,140000	2020-11-19T14:31:56:925
-1,120000	1,050000	-0,210000	2020-11-19T14:31:56:942
-0,630000	1,190000	-0,210000	2020-11-19T14:31:56:966
-0,350000	1,190000	-0,140000	2020-11-19T14:31:56:981
-0,210000	1,050000	-0,070000	2020-11-19T14:31:57:004
-0,280000	1,050000	-0,070000	2020-11-19T14:31:57:022
-0,490000	0,980000	-0,070000	2020-11-19T14:31:57:045
-0,700000	1,050000	-0,070000	2020-11-19T14:31:57:062
-0,700000	1,190000	-0,070000	2020-11-19T14:31:57:085
-0,700000	1,260000	-0,070000	2020-11-19T14:31:57:103
-0,630000	1,120000	-0,140000	2020-11-19T14:31:57:125
-0,490000	1,190000	-0,070000	2020-11-19T14:31:57:143
-0,420000	1,120000	-0,070000	2020-11-19T14:31:57:165
-0,350000	1,190000	-0,140000	2020-11-19T14:31:57:181
-0,560000	1,330000	-0,140000	2020-11-19T14:31:57:205
-0,840000	1,470000	-0,070000	2020-11-19T14:31:57:223
-1,050000	1,400000	-0,070000	2020-11-19T14:31:57:244
-0,700000	1,260000	-0,140000	2020-11-19T14:31:57:263
-0,070000	1,330000	-0,140000	2020-11-19T14:31:57:285
-0,210000	1,120000	-0,140000	2020-11-19T14:31:57:302
-0,630000	1,120000	-0,070000	2020-11-19T14:31:57:324
-1,050000	1,050000	-0,070000	2020-11-19T14:31:57:342
-1,190000	1,050000	-0,070000	2020-11-19T14:31:57:365
-0,980000	1,190000	-0,070000	2020-11-19T14:31:57:383
-0,700000	1,260000	-0,070000	2020-11-19T14:31:57:404
-0,560000	1,260000	-0,070000	2020-11-19T14:31:57:423
-0,630000	1,330000	-0,070000	2020-11-19T14:31:57:445
-0,630000	1,190000	-0,070000	2020-11-19T14:31:57:463
-0,700000	1,190000	-0,070000	2020-11-19T14:31:57:484
-0,700000	1,120000	-0,070000	2020-11-19T14:31:57:503
-0,700000	1,260000	-0,070000	2020-11-19T14:31:57:525
-0,700000	1,190000	-0,070000	2020-11-19T14:31:57:543
-0,630000	1,260000	-0,070000	2020-11-19T14:31:57:564
-0,560000	1,330000	-0,070000	2020-11-19T14:31:57:583
-0,420000	1,400000	-0,070000	2020-11-19T14:31:57:605
-0,490000	1,260000	-0,070000	2020-11-19T14:31:57:623
-0,770000	1,120000	-0,070000	2020-11-19T14:31:57:645
-0,980000	0,980000	-0,070000	2020-11-19T14:31:57:663
-1,120000	0,910000	-0,140000	2020-11-19T14:31:57:686
-1,050000	1,120000	-0,210000	2020-11-19T14:31:57:703
-0,980000	1,260000	-0,070000	2020-11-19T14:31:57:725
-1,050000	1,190000	-0,070000	2020-11-19T14:31:57:743
-0,700000	1,260000	-0,070000	2020-11-19T14:31:57:765
-0,140000	1,190000	-0,070000	2020-11-19T14:31:57:783
0,210000	1,260000	-0,070000	2020-11-19T14:31:57:804
-0,070000	1,260000	-0,070000	2020-11-19T14:31:57:823
-0,840000	1,050000	-0,070000	2020-11-19T14:31:57:845
-1,330000	0,980000	-0,070000	2020-11-19T14:31:57:863
-1,120000	1,120000	-0,070000	2020-11-19T14:31:57:884
-0,630000	1,330000	-0,070000	2020-11-19T14:31:57:903
-0,280000	1,400000	-0,070000	2020-11-19T14:31:57:926
-0,070000	1,330000	-0,210000	2020-11-19T14:31:57:943
-0,140000	1,470000	-0,140000	2020-11-19T14:31:57:964
-0,770000	1,400000	-0,140000	2020-11-19T14:31:57:984
-1,400000	1,260000	-0,070000	2020-11-19T14:31:58:005
-1,400000	0,980000	-0,070000	2020-11-19T14:31:58:023
-0,560000	1,120000	-0,070000	2020-11-19T14:31:58:045
-0,560000	1,260000	-0,070000	2020-11-19T14:31:58:062
0,070000	1,400000	-0,070000	2020-11-19T14:31:58:085
-0,350000	1,260000	-0,070000	2020-11-19T14:31:58:103
-0,980000	1,190000	-0,070000	2020-11-19T14:31:58:125
