x	y	z	ts
-0,697117	-0,292937	9,777453	2020-11-19T14:31:12:665
-0,709360	-0,290310	9,776651	2020-11-19T14:31:12:668
-0,667510	-0,290685	9,779587	2020-11-19T14:31:12:668
-0,679720	-0,284286	9,778934	2020-11-19T14:31:12:669
-0,691333	-0,280018	9,778243	2020-11-19T14:31:12:669
-0,706400	-0,281848	9,777113	2020-11-19T14:31:12:670
-0,718226	-0,283581	9,776201	2020-11-19T14:31:12:670
-0,724609	-0,274516	9,775990	2020-11-19T14:31:12:676
-0,731055	-0,263903	9,775802	2020-11-19T14:31:12:697
-0,744914	-0,263932	9,774755	2020-11-19T14:31:12:717
-0,760559	-0,268247	9,773433	2020-11-19T14:31:12:736
-0,773313	-0,270223	9,772377	2020-11-19T14:31:12:768
-0,788849	-0,270023	9,771141	2020-11-19T14:31:12:779
-0,797244	-0,272393	9,770393	2020-11-19T14:31:12:797
-0,798340	-0,277649	9,770156	2020-11-19T14:31:12:817
-0,807160	-0,275696	9,769486	2020-11-19T14:31:12:838
-0,832009	-0,297901	9,766749	2020-11-19T14:31:12:857
-0,849263	-0,321230	9,764525	2020-11-19T14:31:12:877
-0,852327	-0,337209	9,763720	2020-11-19T14:31:12:897
-0,846737	-0,326140	9,764582	2020-11-19T14:31:12:918
-0,854456	-0,328445	9,763832	2020-11-19T14:31:12:937
-0,883273	-0,340494	9,760855	2020-11-19T14:31:12:958
-0,902830	-0,354478	9,758567	2020-11-19T14:31:12:978
-0,911881	-0,364667	9,757350	2020-11-19T14:31:12:998
-0,917068	-0,376603	9,756411	2020-11-19T14:31:13:017
-0,915253	-0,368764	9,756880	2020-11-19T14:31:13:038
-0,918226	-0,365240	9,756733	2020-11-19T14:31:13:058
-0,929086	-0,379630	9,755156	2020-11-19T14:31:13:077
-0,936003	-0,380146	9,754475	2020-11-19T14:31:13:097
-0,946842	-0,373920	9,753669	2020-11-19T14:31:13:118
-0,968266	-0,377558	9,751425	2020-11-19T14:31:13:137
-0,992398	-0,382321	9,748814	2020-11-19T14:31:13:158
-1,018282	-0,395752	9,745607	2020-11-19T14:31:13:178
-1,048665	-0,412423	9,741693	2020-11-19T14:31:13:198
-1,059498	-0,418031	9,740282	2020-11-19T14:31:13:217
-1,079757	-0,416309	9,738132	2020-11-19T14:31:13:238
-1,093110	-0,426659	9,736193	2020-11-19T14:31:13:257
-1,110070	-0,453921	9,733041	2020-11-19T14:31:13:277
-1,104430	-0,474483	9,732701	2020-11-19T14:31:13:298
-1,101225	-0,473714	9,733103	2020-11-19T14:31:13:319
-1,116288	-0,486853	9,730738	2020-11-19T14:31:13:337
-1,144169	-0,511147	9,726253	2020-11-19T14:31:13:358
-1,179055	-0,561975	9,719279	2020-11-19T14:31:13:378
-1,186593	-0,601302	9,716008	2020-11-19T14:31:13:398
-1,171342	-0,601098	9,717872	2020-11-19T14:31:13:418
-1,155633	-0,579315	9,721074	2020-11-19T14:31:13:438
-1,164916	-0,576996	9,720104	2020-11-19T14:31:13:457
-1,191224	-0,593586	9,715916	2020-11-19T14:31:13:477
-1,220075	-0,607411	9,711480	2020-11-19T14:31:13:497
-1,281200	-0,612340	9,703296	2020-11-19T14:31:13:519
-1,395539	-0,635914	9,685993	2020-11-19T14:31:13:538
-1,577996	-0,701867	9,653378	2020-11-19T14:31:13:558
-1,786134	-0,810149	9,608526	2020-11-19T14:31:13:578
-2,084899	-0,983841	9,531822	2020-11-19T14:31:13:598
-2,335075	-1,173010	9,452083	2020-11-19T14:31:13:617
-2,519119	-1,379135	9,376696	2020-11-19T14:31:13:639
-2,725549	-1,685694	9,268236	2020-11-19T14:31:13:658
-2,908194	-2,127811	9,120593	2020-11-19T14:31:13:678
-3,016183	-2,525437	8,983050	2020-11-19T14:31:13:698
-3,060786	-2,923641	8,846146	2020-11-19T14:31:13:719
-3,070410	-3,245711	8,729738	2020-11-19T14:31:13:738
-3,072834	-3,678969	8,555306	2020-11-19T14:31:13:759
-3,070351	-4,115460	8,355018	2020-11-19T14:31:13:779
-3,074796	-4,625929	8,081881	2020-11-19T14:31:13:799
-3,057233	-5,221062	7,717786	2020-11-19T14:31:13:817
-2,992775	-5,787583	7,329226	2020-11-19T14:31:14:018
-2,902070	-6,350250	6,886415	2020-11-19T14:31:14:023
-2,945823	-6,964781	6,243743	2020-11-19T14:31:14:055
-3,126021	-7,689057	5,222718	2020-11-19T14:31:14:061
-3,334222	-8,376417	3,858625	2020-11-19T14:31:14:063
-3,477596	-8,817932	2,514116	2020-11-19T14:31:14:063
-3,536114	-9,030046	1,457585	2020-11-19T14:31:14:064
-3,452220	-9,143641	0,803980	2020-11-19T14:31:14:065
-3,328996	-9,208714	0,536424	2020-11-19T14:31:14:066
-3,262106	-9,236756	0,459757	2020-11-19T14:31:14:068
-3,151444	-9,279176	0,368353	2020-11-19T14:31:14:068
-3,114075	-9,292767	0,342655	2020-11-19T14:31:14:069
-3,078761	-9,302670	0,389818	2020-11-19T14:31:14:078
-3,022178	-9,309147	0,613683	2020-11-19T14:31:14:098
-2,949293	-9,304212	0,950627	2020-11-19T14:31:14:120
-2,818656	-9,276485	1,473897	2020-11-19T14:31:14:138
-2,701598	-9,244331	1,847725	2020-11-19T14:31:14:160
-2,584115	-9,199559	2,204732	2020-11-19T14:31:14:180
-2,410258	-9,153252	2,564962	2020-11-19T14:31:14:201
-2,287081	-9,096143	2,863533	2020-11-19T14:31:14:221
-2,198303	-9,013041	3,178512	2020-11-19T14:31:14:241
-2,138086	-8,974548	3,325124	2020-11-19T14:31:14:261
-2,078578	-8,963140	3,392936	2020-11-19T14:31:14:279
-1,953037	-8,965990	3,459342	2020-11-19T14:31:14:300
-1,968906	-8,973343	3,431166	2020-11-19T14:31:14:321
-1,947796	-8,957244	3,484861	2020-11-19T14:31:14:340
-1,984536	-8,949974	3,482810	2020-11-19T14:31:14:361
-2,003160	-8,936494	3,506680	2020-11-19T14:31:14:381
-1,982822	-8,941442	3,505629	2020-11-19T14:31:14:401
-2,001282	-8,986082	3,378696	2020-11-19T14:31:14:420
-2,015732	-8,963676	3,429245	2020-11-19T14:31:14:442
-2,004794	-8,884732	3,634930	2020-11-19T14:31:14:466
-1,947594	-8,795517	3,875067	2020-11-19T14:31:14:482
-1,823149	-8,690255	4,162449	2020-11-19T14:31:14:516
-1,624756	-8,568980	4,483652	2020-11-19T14:31:14:523
-1,455234	-8,512142	4,647161	2020-11-19T14:31:14:544
-1,335178	-8,475319	4,749384	2020-11-19T14:31:14:578
-1,280477	-8,456658	4,797467	2020-11-19T14:31:14:580
-1,276293	-8,529863	4,667215	2020-11-19T14:31:14:602
-1,336436	-8,805370	4,104848	2020-11-19T14:31:14:631
-1,317796	-8,904099	3,892406	2020-11-19T14:31:14:643
-1,275690	-8,978716	3,731711	2020-11-19T14:31:14:664
-1,224415	-9,015341	3,659893	2020-11-19T14:31:14:682
-1,196806	-9,027800	3,638253	2020-11-19T14:31:14:700
-1,153806	-9,031787	3,642243	2020-11-19T14:31:14:722
-1,103961	-9,054832	3,600233	2020-11-19T14:31:14:742
-1,067573	-9,035380	3,659586	2020-11-19T14:31:14:762
-1,030990	-9,020900	3,705511	2020-11-19T14:31:14:781
-1,033541	-9,014677	3,719916	2020-11-19T14:31:14:803
-1,066610	-8,994491	3,759238	2020-11-19T14:31:14:821
-1,095474	-8,981298	3,782406	2020-11-19T14:31:14:842
-1,115064	-8,992265	3,750493	2020-11-19T14:31:14:861
-1,116021	-9,007977	3,712306	2020-11-19T14:31:14:882
-1,103023	-9,024747	3,675279	2020-11-19T14:31:14:901
-1,088917	-9,050735	3,615086	2020-11-19T14:31:14:923
-1,052759	-9,072544	3,570859	2020-11-19T14:31:14:941
-1,043577	-9,082671	3,547735	2020-11-19T14:31:14:962
-0,999274	-9,088905	3,544522	2020-11-19T14:31:14:981
-0,992475	-9,093369	3,534971	2020-11-19T14:31:15:002
-1,022992	-9,073943	3,575951	2020-11-19T14:31:15:020
-0,957006	-9,022265	3,721996	2020-11-19T14:31:15:042
-0,861666	-8,990206	3,821534	2020-11-19T14:31:15:061
-0,836956	-9,014975	3,768306	2020-11-19T14:31:15:083
-0,806438	-9,019953	3,763043	2020-11-19T14:31:15:101
-0,767187	-9,043909	3,713423	2020-11-19T14:31:15:122
-0,764470	-9,093062	3,591961	2020-11-19T14:31:15:141
-0,761723	-9,129929	3,497795	2020-11-19T14:31:15:163
-0,767243	-9,168457	3,394278	2020-11-19T14:31:15:181
-0,778790	-9,215257	3,262349	2020-11-19T14:31:15:202
-0,796890	-9,247916	3,164078	2020-11-19T14:31:15:222
-0,824309	-9,267920	3,097833	2020-11-19T14:31:15:242
-0,852477	-9,286697	3,033302	2020-11-19T14:31:15:261
-0,870980	-9,298410	2,991880	2020-11-19T14:31:15:283
-0,868948	-9,313336	2,945687	2020-11-19T14:31:15:301
-0,864921	-9,334321	2,879713	2020-11-19T14:31:15:323
-0,857311	-9,358270	2,803246	2020-11-19T14:31:15:341
-0,829988	-9,396935	2,679389	2020-11-19T14:31:15:362
-0,808112	-9,430832	2,564516	2020-11-19T14:31:15:381
-0,780426	-9,451938	2,494433	2020-11-19T14:31:15:403
-0,765066	-9,466994	2,441533	2020-11-19T14:31:15:423
-0,756554	-9,474154	2,416284	2020-11-19T14:31:15:443
-0,758390	-9,474723	2,413476	2020-11-19T14:31:15:462
-0,768887	-9,482583	2,379037	2020-11-19T14:31:15:483
-0,764657	-9,491282	2,345476	2020-11-19T14:31:15:501
-0,769284	-9,501974	2,300235	2020-11-19T14:31:15:523
-0,799630	-9,512715	2,244823	2020-11-19T14:31:15:541
-0,826680	-9,521978	2,195203	2020-11-19T14:31:15:563
-0,840729	-9,528824	2,159881	2020-11-19T14:31:15:582
-0,839368	-9,531211	2,149852	2020-11-19T14:31:15:603
-0,816107	-9,540791	2,116050	2020-11-19T14:31:15:621
-0,800303	-9,553938	2,062081	2020-11-19T14:31:15:644
-0,772177	-9,563949	2,026083	2020-11-19T14:31:15:662
-0,727734	-9,575452	1,987841	2020-11-19T14:31:15:684
-0,705721	-9,579778	1,974892	2020-11-19T14:31:15:702
-0,675420	-9,578487	1,991675	2020-11-19T14:31:15:724
-0,647366	-9,574415	2,020367	2020-11-19T14:31:15:741
-0,659279	-9,562296	2,073216	2020-11-19T14:31:15:764
-0,675720	-9,551021	2,119384	2020-11-19T14:31:15:783
-0,695475	-9,543263	2,147747	2020-11-19T14:31:15:804
-0,711496	-9,539051	2,161173	2020-11-19T14:31:15:822
-0,734193	-9,536500	2,164837	2020-11-19T14:31:15:844
-0,748267	-9,539936	2,144784	2020-11-19T14:31:15:861
-0,756834	-9,547124	2,109504	2020-11-19T14:31:15:884
-0,760725	-9,554036	2,076553	2020-11-19T14:31:15:902
-0,763298	-9,559801	2,048892	2020-11-19T14:31:15:924
-0,767615	-9,561332	2,040118	2020-11-19T14:31:15:942
-0,774783	-9,555890	2,062778	2020-11-19T14:31:15:964
-0,781028	-9,546446	2,103748	2020-11-19T14:31:15:986
-0,781896	-9,540356	2,130876	2020-11-19T14:31:16:007
-0,784687	-9,539362	2,134298	2020-11-19T14:31:16:021
-0,773476	-9,545605	2,110342	2020-11-19T14:31:16:044
-0,748268	-9,571140	2,000940	2020-11-19T14:31:16:062
-0,711680	-9,597747	1,883387	2020-11-19T14:31:16:084
-0,684690	-9,620040	1,776630	2020-11-19T14:31:16:102
-0,677750	-9,638326	1,677416	2020-11-19T14:31:16:124
-0,661077	-9,642841	1,658004	2020-11-19T14:31:16:142
-0,656078	-9,664704	1,527557	2020-11-19T14:31:16:164
-0,654256	-9,682195	1,413308	2020-11-19T14:31:16:184
-0,641654	-9,696402	1,318508	2020-11-19T14:31:16:204
-0,633619	-9,708219	1,232641	2020-11-19T14:31:16:222
-0,630097	-9,718834	1,147881	2020-11-19T14:31:16:244
-0,650224	-9,718164	1,142307	2020-11-19T14:31:16:262
-0,682552	-9,711270	1,181411	2020-11-19T14:31:16:287
-0,716255	-9,703187	1,226998	2020-11-19T14:31:16:306
-0,742959	-9,698952	1,244482	2020-11-19T14:31:16:325
-0,769081	-9,694487	1,263263	2020-11-19T14:31:16:347
-0,791493	-9,686061	1,313067	2020-11-19T14:31:16:366
-0,794948	-9,681806	1,342042	2020-11-19T14:31:16:382
-0,788291	-9,678815	1,367307	2020-11-19T14:31:16:405
-0,780397	-9,678144	1,376548	2020-11-19T14:31:16:425
-0,783334	-9,676521	1,386255	2020-11-19T14:31:16:444
-0,790697	-9,675007	1,392631	2020-11-19T14:31:16:463
-0,800728	-9,671833	1,408855	2020-11-19T14:31:16:484
-0,806903	-9,671765	1,405793	2020-11-19T14:31:16:502
-0,807061	-9,673752	1,391963	2020-11-19T14:31:16:527
-0,802550	-9,676774	1,373443	2020-11-19T14:31:16:542
-0,801871	-9,677886	1,365983	2020-11-19T14:31:16:566
-0,808282	-9,677532	1,364711	2020-11-19T14:31:16:582
-0,821902	-9,675911	1,368068	2020-11-19T14:31:16:604
-0,835554	-9,676047	1,358801	2020-11-19T14:31:16:622
-0,848182	-9,678573	1,332743	2020-11-19T14:31:16:644
-0,861242	-9,683914	1,284698	2020-11-19T14:31:16:663
-0,873344	-9,689882	1,230380	2020-11-19T14:31:16:685
-0,888286	-9,695367	1,175241	2020-11-19T14:31:16:702
-0,903090	-9,699047	1,132831	2020-11-19T14:31:16:724
-0,912352	-9,702624	1,094110	2020-11-19T14:31:16:742
-0,919349	-9,705163	1,065359	2020-11-19T14:31:16:764
-0,923039	-9,707044	1,044842	2020-11-19T14:31:16:783
-0,924664	-9,708713	1,027751	2020-11-19T14:31:16:803
-0,930895	-9,709344	1,016103	2020-11-19T14:31:16:821
-0,941067	-9,708783	1,012085	2020-11-19T14:31:16:844
-0,948730	-9,708101	1,011467	2020-11-19T14:31:16:861
-0,950695	-9,709502	0,996054	2020-11-19T14:31:16:883
-0,945482	-9,713630	0,960126	2020-11-19T14:31:16:902
-0,940079	-9,718017	0,920215	2020-11-19T14:31:16:923
-0,938488	-9,721124	0,888470	2020-11-19T14:31:16:941
-0,942710	-9,721588	0,878867	2020-11-19T14:31:16:963
-0,958939	-9,719598	0,883312	2020-11-19T14:31:16:981
-0,978483	-9,715880	0,902562	2020-11-19T14:31:17:003
-1,000347	-9,711437	0,926104	2020-11-19T14:31:17:021
-1,015205	-9,708672	0,938850	2020-11-19T14:31:17:043
-1,027882	-9,706897	0,943395	2020-11-19T14:31:17:061
-1,030429	-9,706903	0,940545	2020-11-19T14:31:17:085
-1,033028	-9,706618	0,940633	2020-11-19T14:31:17:102
-1,029267	-9,707600	0,934612	2020-11-19T14:31:17:123
-1,016497	-9,710136	0,922157	2020-11-19T14:31:17:143
-1,008473	-9,712262	0,908473	2020-11-19T14:31:17:164
-1,001056	-9,713902	0,899103	2020-11-19T14:31:17:191
-0,998596	-9,714247	0,898111	2020-11-19T14:31:17:203
-0,999637	-9,714109	0,898441	2020-11-19T14:31:17:380
-1,002334	-9,713755	0,899263	2020-11-19T14:31:17:429
-1,008011	-9,712898	0,902163	2020-11-19T14:31:17:441
-1,009130	-9,712202	0,908389	2020-11-19T14:31:17:501
-1,014655	-9,710694	0,918298	2020-11-19T14:31:17:502
-1,016542	-9,710271	0,920690	2020-11-19T14:31:17:503
-1,020539	-9,709136	0,928206	2020-11-19T14:31:17:504
-1,029008	-9,707459	0,936353	2020-11-19T14:31:17:506
-1,039151	-9,705873	0,941580	2020-11-19T14:31:17:506
-1,049521	-9,704132	0,948005	2020-11-19T14:31:17:507
-1,059032	-9,702751	0,951556	2020-11-19T14:31:17:507
-1,064157	-9,701778	0,955744	2020-11-19T14:31:17:507
-1,067826	-9,700826	0,961312	2020-11-19T14:31:17:507
-1,070051	-9,699243	0,974714	2020-11-19T14:31:17:508
-1,070900	-9,697306	0,992885	2020-11-19T14:31:17:508
-1,070148	-9,695897	1,007343	2020-11-19T14:31:17:524
-1,071095	-9,695271	1,012348	2020-11-19T14:31:17:541
-1,070518	-9,695226	1,013394	2020-11-19T14:31:17:564
-1,073488	-9,694713	1,015166	2020-11-19T14:31:17:582
-1,077214	-9,694003	1,017984	2020-11-19T14:31:17:604
-1,079403	-9,693270	1,022646	2020-11-19T14:31:17:621
-1,090180	-9,690775	1,034778	2020-11-19T14:31:17:644
-1,094590	-9,688948	1,047164	2020-11-19T14:31:17:661
-1,097508	-9,687366	1,058678	2020-11-19T14:31:17:685
-1,103037	-9,685592	1,069119	2020-11-19T14:31:17:703
-1,101195	-9,684807	1,078086	2020-11-19T14:31:17:724
-1,102791	-9,683640	1,086908	2020-11-19T14:31:17:741
-1,105275	-9,682590	1,093718	2020-11-19T14:31:17:765
-1,106055	-9,681849	1,099470	2020-11-19T14:31:17:783
-1,101315	-9,682180	1,101306	2020-11-19T14:31:17:805
-1,097545	-9,682186	1,105015	2020-11-19T14:31:17:823
-1,096401	-9,681987	1,107889	2020-11-19T14:31:17:845
-1,097464	-9,680889	1,116398	2020-11-19T14:31:17:863
-1,097516	-9,679499	1,128337	2020-11-19T14:31:17:885
-1,095925	-9,677758	1,144699	2020-11-19T14:31:17:903
-1,098913	-9,675605	1,159938	2020-11-19T14:31:17:926
-1,097599	-9,675238	1,164231	2020-11-19T14:31:17:943
-1,104738	-9,673122	1,175006	2020-11-19T14:31:17:965
-1,130979	-9,664944	1,216608	2020-11-19T14:31:18:005
-1,164331	-9,652816	1,279788	2020-11-19T14:31:18:045
-1,201884	-9,638008	1,354495	2020-11-19T14:31:18:111
-1,239240	-9,622901	1,426340	2020-11-19T14:31:18:111
-1,265191	-9,609055	1,495243	2020-11-19T14:31:18:112
-1,281335	-9,599266	1,543588	2020-11-19T14:31:18:112
-1,293260	-9,592203	1,577179	2020-11-19T14:31:18:113
-1,289924	-9,590613	1,589532	2020-11-19T14:31:18:166
-1,286798	-9,590141	1,594904	2020-11-19T14:31:18:167
-1,280151	-9,590136	1,600283	2020-11-19T14:31:18:167
-1,268886	-9,590976	1,604215	2020-11-19T14:31:18:183
-1,262695	-9,590991	1,609001	2020-11-19T14:31:18:204
-1,251899	-9,591392	1,615037	2020-11-19T14:31:18:222
-1,241377	-9,591696	1,621336	2020-11-19T14:31:18:245
-1,230482	-9,592481	1,624996	2020-11-19T14:31:18:262
-1,223644	-9,591629	1,635157	2020-11-19T14:31:18:285
-1,220551	-9,589901	1,647557	2020-11-19T14:31:18:303
-1,222353	-9,587640	1,659337	2020-11-19T14:31:18:328
-1,220902	-9,584579	1,677989	2020-11-19T14:31:18:345
-1,221956	-9,581835	1,692824	2020-11-19T14:31:18:365
-1,219612	-9,580082	1,704394	2020-11-19T14:31:18:384
-1,217142	-9,578019	1,717703	2020-11-19T14:31:18:406
-1,220346	-9,573407	1,740979	2020-11-19T14:31:18:424
-1,228498	-9,567811	1,765834	2020-11-19T14:31:18:445
-1,235105	-9,564112	1,781197	2020-11-19T14:31:18:462
-1,231521	-9,563561	1,786626	2020-11-19T14:31:18:486
-1,229077	-9,563642	1,787877	2020-11-19T14:31:18:503
-1,225406	-9,563916	1,788928	2020-11-19T14:31:18:526
-1,224572	-9,563740	1,790444	2020-11-19T14:31:18:542
-1,226747	-9,562903	1,793421	2020-11-19T14:31:18:565
-1,230779	-9,562918	1,790578	2020-11-19T14:31:18:588
-1,231742	-9,563968	1,784298	2020-11-19T14:31:18:605
-1,236236	-9,563557	1,783392	2020-11-19T14:31:18:624
-1,237443	-9,562657	1,787374	2020-11-19T14:31:18:647
-1,236489	-9,561151	1,796074	2020-11-19T14:31:18:664
-1,231663	-9,560796	1,801270	2020-11-19T14:31:18:687
-1,227085	-9,560330	1,806857	2020-11-19T14:31:18:704
-1,217478	-9,560909	1,810288	2020-11-19T14:31:18:727
-1,210274	-9,561412	1,812464	2020-11-19T14:31:18:745
-1,203392	-9,562510	1,811256	2020-11-19T14:31:18:843
-1,196118	-9,563430	1,811215	2020-11-19T14:31:18:903
-1,196610	-9,563525	1,810383	2020-11-19T14:31:18:904
-1,196402	-9,563885	1,808620	2020-11-19T14:31:18:905
-1,192962	-9,564676	1,806709	2020-11-19T14:31:18:905
-1,193147	-9,564977	1,804993	2020-11-19T14:31:18:906
-1,195412	-9,565250	1,802046	2020-11-19T14:31:18:906
-1,197663	-9,565383	1,799845	2020-11-19T14:31:18:909
-1,198456	-9,565591	1,798211	2020-11-19T14:31:18:931
-1,200620	-9,565289	1,798372	2020-11-19T14:31:18:943
-1,201901	-9,565354	1,797170	2020-11-19T14:31:18:971
-1,201329	-9,565551	1,796507	2020-11-19T14:31:18:984
-1,203277	-9,565148	1,797343	2020-11-19T14:31:19:011
-1,204328	-9,565006	1,797394	2020-11-19T14:31:19:038
-1,205347	-9,564465	1,799597	2020-11-19T14:31:19:046
-1,205783	-9,563829	1,802676	2020-11-19T14:31:19:065
-1,208971	-9,562624	1,806929	2020-11-19T14:31:19:086
-1,209255	-9,562352	1,808176	2020-11-19T14:31:19:103
-1,210445	-9,562694	1,805576	2020-11-19T14:31:19:126
-1,214310	-9,562251	1,805321	2020-11-19T14:31:19:143
-1,215320	-9,561569	1,808254	2020-11-19T14:31:19:165
-1,218034	-9,560787	1,810559	2020-11-19T14:31:19:183
-1,217677	-9,560699	1,811264	2020-11-19T14:31:19:207
-1,213644	-9,561264	1,810988	2020-11-19T14:31:19:223
-1,209912	-9,561318	1,813197	2020-11-19T14:31:19:246
-1,208890	-9,561007	1,815518	2020-11-19T14:31:19:264
-1,211775	-9,559897	1,819434	2020-11-19T14:31:19:288
-1,208725	-9,560604	1,817749	2020-11-19T14:31:19:306
-1,205876	-9,561013	1,817492	2020-11-19T14:31:19:327
-1,205547	-9,561415	1,815596	2020-11-19T14:31:19:345
-1,206415	-9,561274	1,815761	2020-11-19T14:31:19:368
-1,206196	-9,560600	1,819450	2020-11-19T14:31:19:385
-1,207578	-9,559811	1,822682	2020-11-19T14:31:19:408
-1,207641	-9,559715	1,823137	2020-11-19T14:31:19:425
-1,209659	-9,559550	1,822664	2020-11-19T14:31:19:448
-1,209196	-9,558974	1,825989	2020-11-19T14:31:19:464
-1,206569	-9,559468	1,825141	2020-11-19T14:31:19:489
-1,206905	-9,560380	1,820140	2020-11-19T14:31:19:505
-1,206063	-9,560646	1,819298	2020-11-19T14:31:19:528
-1,201544	-9,561031	1,820264	2020-11-19T14:31:19:546
-1,202512	-9,560621	1,821779	2020-11-19T14:31:19:567
-1,201348	-9,560316	1,824143	2020-11-19T14:31:19:585
-1,201368	-9,559918	1,826213	2020-11-19T14:31:19:609
-1,202906	-9,559153	1,829207	2020-11-19T14:31:19:625
-1,204299	-9,558242	1,833047	2020-11-19T14:31:19:648
-1,208084	-9,556839	1,837863	2020-11-19T14:31:19:665
-1,205999	-9,557142	1,837657	2020-11-19T14:31:19:689
-1,205302	-9,557105	1,838309	2020-11-19T14:31:19:705
-1,205213	-9,556704	1,840451	2020-11-19T14:31:19:728
-1,205563	-9,556440	1,841587	2020-11-19T14:31:19:746
-1,204259	-9,556307	1,843133	2020-11-19T14:31:19:768
-1,204603	-9,556293	1,842981	2020-11-19T14:31:19:786
-1,203718	-9,555943	1,845370	2020-11-19T14:31:19:809
-1,201967	-9,556203	1,845168	2020-11-19T14:31:19:825
-1,201299	-9,556042	1,846437	2020-11-19T14:31:19:848
-1,203538	-9,555214	1,849259	2020-11-19T14:31:19:865
-1,206291	-9,553866	1,854424	2020-11-19T14:31:19:888
-1,207456	-9,553913	1,853424	2020-11-19T14:31:19:905
-1,206766	-9,554320	1,851774	2020-11-19T14:31:19:928
-1,208623	-9,553322	1,855708	2020-11-19T14:31:19:947
-1,207186	-9,552779	1,859435	2020-11-19T14:31:19:968
-1,206321	-9,552677	1,860519	2020-11-19T14:31:19:986
-1,203883	-9,552709	1,861937	2020-11-19T14:31:20:010
-1,203733	-9,551554	1,867946	2020-11-19T14:31:20:031
-1,203860	-9,550547	1,873011	2020-11-19T14:31:20:049
-1,201776	-9,550683	1,873653	2020-11-19T14:31:20:066
-1,199797	-9,550676	1,874954	2020-11-19T14:31:20:089
-1,199687	-9,550742	1,874687	2020-11-19T14:31:20:105
-1,197967	-9,550467	1,877188	2020-11-19T14:31:20:128
-1,197438	-9,549895	1,880432	2020-11-19T14:31:20:145
-1,195443	-9,550136	1,880479	2020-11-19T14:31:20:168
-1,193104	-9,550323	1,881016	2020-11-19T14:31:20:186
-1,193844	-9,549686	1,883777	2020-11-19T14:31:20:208
-1,192345	-9,549312	1,886621	2020-11-19T14:31:20:226
-1,193003	-9,548687	1,889366	2020-11-19T14:31:20:249
-1,192185	-9,548738	1,889628	2020-11-19T14:31:20:267
-1,192189	-9,548444	1,891110	2020-11-19T14:31:20:288
-1,193246	-9,548399	1,890668	2020-11-19T14:31:20:306
-1,192848	-9,548176	1,892045	2020-11-19T14:31:20:329
-1,195173	-9,547788	1,892537	2020-11-19T14:31:20:346
-1,196469	-9,547302	1,894167	2020-11-19T14:31:20:368
-1,196248	-9,547140	1,895122	2020-11-19T14:31:20:387
-1,193636	-9,547698	1,893956	2020-11-19T14:31:20:409
-1,195381	-9,547447	1,894122	2020-11-19T14:31:20:426
-1,198590	-9,547258	1,893045	2020-11-19T14:31:20:449
-1,199642	-9,546571	1,895844	2020-11-19T14:31:20:465
-1,200676	-9,545988	1,898122	2020-11-19T14:31:20:489
-1,201042	-9,545777	1,898953	2020-11-19T14:31:20:507
-1,200407	-9,546211	1,897169	2020-11-19T14:31:20:529
-1,197229	-9,546814	1,896148	2020-11-19T14:31:20:546
-1,197712	-9,547056	1,894621	2020-11-19T14:31:20:569
-1,199627	-9,547112	1,893131	2020-11-19T14:31:20:586
-1,196855	-9,546936	1,895769	2020-11-19T14:31:20:608
-1,195200	-9,546521	1,898898	2020-11-19T14:31:20:626
-1,197129	-9,545604	1,902293	2020-11-19T14:31:20:649
-1,197263	-9,545341	1,903521	2020-11-19T14:31:20:666
-1,199351	-9,545541	1,901208	2020-11-19T14:31:20:689
-1,202488	-9,545722	1,898314	2020-11-19T14:31:20:706
-1,201847	-9,545013	1,902281	2020-11-19T14:31:20:729
-1,201758	-9,544900	1,902907	2020-11-19T14:31:20:748
-1,203383	-9,544578	1,903495	2020-11-19T14:31:20:768
-1,204330	-9,544753	1,902016	2020-11-19T14:31:20:786
-1,205495	-9,544422	1,902937	2020-11-19T14:31:20:810
-1,203310	-9,544236	1,905254	2020-11-19T14:31:20:826
-1,203046	-9,543710	1,908054	2020-11-19T14:31:20:849
-1,203954	-9,543529	1,908386	2020-11-19T14:31:20:866
-1,204453	-9,543795	1,906742	2020-11-19T14:31:20:890
-1,203402	-9,543770	1,907527	2020-11-19T14:31:20:906
-1,200855	-9,544222	1,906873	2020-11-19T14:31:20:929
-1,196894	-9,545019	1,905370	2020-11-19T14:31:20:946
-1,201688	-9,544337	1,905770	2020-11-19T14:31:20:969
-1,202951	-9,544398	1,904665	2020-11-19T14:31:20:987
-1,200567	-9,544549	1,905414	2020-11-19T14:31:21:009
-1,198393	-9,545177	1,903634	2020-11-19T14:31:21:026
-1,198685	-9,544903	1,904826	2020-11-19T14:31:21:049
-1,196096	-9,545791	1,902002	2020-11-19T14:31:21:067
-1,198339	-9,545706	1,901018	2020-11-19T14:31:21:089
-1,198251	-9,546001	1,899588	2020-11-19T14:31:21:107
-1,199314	-9,545811	1,899875	2020-11-19T14:31:21:129
-1,199714	-9,545322	1,902076	2020-11-19T14:31:21:146
-1,199371	-9,544395	1,906936	2020-11-19T14:31:21:169
-1,199389	-9,543507	1,911367	2020-11-19T14:31:21:187
-1,195597	-9,543800	1,912278	2020-11-19T14:31:21:210
-1,190868	-9,544571	1,911384	2020-11-19T14:31:21:228
-1,186907	-9,545088	1,911267	2020-11-19T14:31:21:249
-1,187485	-9,544765	1,912518	2020-11-19T14:31:21:266
-1,185775	-9,544606	1,914372	2020-11-19T14:31:21:290
-1,184407	-9,544565	1,915419	2020-11-19T14:31:21:306
-1,184840	-9,544089	1,917525	2020-11-19T14:31:21:329
-1,186609	-9,543983	1,916963	2020-11-19T14:31:21:347
-1,192389	-9,543400	1,916276	2020-11-19T14:31:21:369
-1,195582	-9,543576	1,913403	2020-11-19T14:31:21:386
-1,197035	-9,543937	1,910697	2020-11-19T14:31:21:409
-1,196918	-9,543162	1,914635	2020-11-19T14:31:21:426
-1,198184	-9,542016	1,919549	2020-11-19T14:31:21:449
-1,195114	-9,541667	1,923193	2020-11-19T14:31:21:467
-1,192487	-9,541960	1,923371	2020-11-19T14:31:21:489
-1,190695	-9,542255	1,923015	2020-11-19T14:31:21:506
-1,189271	-9,542017	1,925079	2020-11-19T14:31:21:529
-1,187245	-9,541966	1,926581	2020-11-19T14:31:21:547
-1,185645	-9,542493	1,924955	2020-11-19T14:31:21:569
-1,184417	-9,542262	1,926856	2020-11-19T14:31:21:587
-1,186357	-9,541998	1,926972	2020-11-19T14:31:21:609
-1,188147	-9,542272	1,924513	2020-11-19T14:31:21:626
-1,187730	-9,542694	1,922673	2020-11-19T14:31:21:649
-1,187778	-9,542480	1,923709	2020-11-19T14:31:21:666
-1,189771	-9,541311	1,928268	2020-11-19T14:31:21:690
-1,188033	-9,541044	1,930659	2020-11-19T14:31:21:707
-1,188458	-9,540832	1,931447	2020-11-19T14:31:21:729
-1,186376	-9,541103	1,931382	2020-11-19T14:31:21:746
-1,188192	-9,541160	1,929989	2020-11-19T14:31:21:770
-1,186736	-9,541230	1,930537	2020-11-19T14:31:21:787
-1,190798	-9,540523	1,931532	2020-11-19T14:31:21:808
-1,192561	-9,540312	1,931484	2020-11-19T14:31:21:826
-1,192991	-9,539707	1,934204	2020-11-19T14:31:21:850
-1,192220	-9,540155	1,932465	2020-11-19T14:31:21:866
-1,192633	-9,539463	1,935626	2020-11-19T14:31:21:889
-1,193059	-9,539220	1,936562	2020-11-19T14:31:21:906
-1,191318	-9,539372	1,936882	2020-11-19T14:31:21:930
-1,188471	-9,539856	1,936250	2020-11-19T14:31:21:947
-1,187878	-9,540276	1,934546	2020-11-19T14:31:21:969
-1,186762	-9,540376	1,934738	2020-11-19T14:31:21:987
-1,186316	-9,540572	1,934042	2020-11-19T14:31:22:010
-1,182805	-9,541161	1,933290	2020-11-19T14:31:22:027
-1,183157	-9,541948	1,929183	2020-11-19T14:31:22:050
-1,179251	-9,542575	1,928477	2020-11-19T14:31:22:067
-1,175066	-9,542700	1,930411	2020-11-19T14:31:22:090
-1,174510	-9,542681	1,930841	2020-11-19T14:31:22:107
-1,173388	-9,543083	1,929536	2020-11-19T14:31:22:129
-1,172818	-9,543118	1,929707	2020-11-19T14:31:22:147
-1,174425	-9,542584	1,931370	2020-11-19T14:31:22:170
-1,175693	-9,541429	1,936303	2020-11-19T14:31:22:188
-1,179186	-9,540433	1,939084	2020-11-19T14:31:22:209
-1,182974	-9,540072	1,938550	2020-11-19T14:31:22:227
-1,186488	-9,539720	1,938140	2020-11-19T14:31:22:250
-1,188687	-9,538774	1,941444	2020-11-19T14:31:22:267
-1,188915	-9,538490	1,942695	2020-11-19T14:31:22:289
-1,186104	-9,538620	1,943777	2020-11-19T14:31:22:307
-1,185135	-9,538518	1,944868	2020-11-19T14:31:22:329
-1,183955	-9,539152	1,942474	2020-11-19T14:31:22:347
-1,182419	-9,539774	1,940357	2020-11-19T14:31:22:369
-1,184201	-9,540300	1,936677	2020-11-19T14:31:22:387
-1,181699	-9,541433	1,932620	2020-11-19T14:31:22:409
-1,181464	-9,542105	1,929447	2020-11-19T14:31:22:428
-1,178788	-9,542560	1,928834	2020-11-19T14:31:22:449
-1,175421	-9,543747	1,925012	2020-11-19T14:31:22:467
-1,171112	-9,544706	1,922878	2020-11-19T14:31:22:490
-1,172055	-9,544848	1,921598	2020-11-19T14:31:22:507
-1,173801	-9,544170	1,923899	2020-11-19T14:31:22:530
-1,174890	-9,543780	1,925169	2020-11-19T14:31:22:547
-1,174951	-9,544220	1,922952	2020-11-19T14:31:22:570
-1,175260	-9,544512	1,921311	2020-11-19T14:31:22:588
-1,176983	-9,544352	1,921054	2020-11-19T14:31:22:610
-1,177428	-9,544302	1,921027	2020-11-19T14:31:22:627
-1,177688	-9,544384	1,920459	2020-11-19T14:31:22:650
-1,177968	-9,543690	1,923735	2020-11-19T14:31:22:673
-1,180490	-9,542781	1,926698	2020-11-19T14:31:22:691
-1,182698	-9,542678	1,925855	2020-11-19T14:31:22:707
-1,181863	-9,543011	1,924716	2020-11-19T14:31:22:730
-1,184696	-9,542863	1,923707	2020-11-19T14:31:22:747
-1,185286	-9,542777	1,923768	2020-11-19T14:31:22:770
-1,185742	-9,542908	1,922837	2020-11-19T14:31:22:788
-1,184487	-9,542623	1,925027	2020-11-19T14:31:22:811
-1,184431	-9,542292	1,926701	2020-11-19T14:31:22:827
-1,184770	-9,542131	1,927288	2020-11-19T14:31:22:850
-1,181964	-9,542440	1,927480	2020-11-19T14:31:22:868
-1,183795	-9,542788	1,924636	2020-11-19T14:31:22:891
-1,183552	-9,543030	1,923583	2020-11-19T14:31:22:909
-1,186149	-9,542388	1,925167	2020-11-19T14:31:22:930
-1,185727	-9,541918	1,927756	2020-11-19T14:31:22:948
-1,184096	-9,542464	1,926051	2020-11-19T14:31:22:970
-1,182021	-9,543208	1,923639	2020-11-19T14:31:22:989
-1,179518	-9,543646	1,923004	2020-11-19T14:31:23:009
-1,180848	-9,543226	1,924268	2020-11-19T14:31:23:028
-1,181753	-9,542882	1,925419	2020-11-19T14:31:23:050
-1,184895	-9,542305	1,926351	2020-11-19T14:31:23:068
-1,185165	-9,541618	1,929585	2020-11-19T14:31:23:090
-1,187848	-9,540915	1,931406	2020-11-19T14:31:23:108
-1,189033	-9,540206	1,934183	2020-11-19T14:31:23:130
-1,187749	-9,540180	1,935098	2020-11-19T14:31:23:149
-1,183573	-9,540462	1,936265	2020-11-19T14:31:23:169
-1,183628	-9,540204	1,937500	2020-11-19T14:31:23:188
-1,181427	-9,540183	1,938949	2020-11-19T14:31:23:210
-1,182666	-9,539728	1,940431	2020-11-19T14:31:23:229
-1,181711	-9,539865	1,940338	2020-11-19T14:31:23:249
-1,181161	-9,540392	1,938085	2020-11-19T14:31:23:268
-1,178989	-9,540558	1,938588	2020-11-19T14:31:23:291
-1,182559	-9,540313	1,937618	2020-11-19T14:31:23:308
-1,181153	-9,539766	1,941166	2020-11-19T14:31:23:330
-1,184234	-9,539519	1,940499	2020-11-19T14:31:23:348
-1,185129	-9,539970	1,937736	2020-11-19T14:31:23:371
-1,184145	-9,540472	1,935867	2020-11-19T14:31:23:390
-1,185767	-9,540027	1,937066	2020-11-19T14:31:23:410
-1,190074	-9,538992	1,939521	2020-11-19T14:31:23:429
-1,190603	-9,539183	1,938258	2020-11-19T14:31:23:451
-1,191192	-9,538972	1,938931	2020-11-19T14:31:23:469
-1,187301	-9,539261	1,939897	2020-11-19T14:31:23:490
-1,188257	-9,539310	1,939068	2020-11-19T14:31:23:509
-1,185440	-9,539977	1,937512	2020-11-19T14:31:23:531
-1,186006	-9,540110	1,936515	2020-11-19T14:31:23:549
-1,182923	-9,540652	1,935723	2020-11-19T14:31:23:570
-1,181501	-9,540945	1,935152	2020-11-19T14:31:23:588
-1,180648	-9,541099	1,934912	2020-11-19T14:31:23:610
-1,181002	-9,541399	1,933217	2020-11-19T14:31:23:629
-1,182746	-9,541743	1,930450	2020-11-19T14:31:23:650
-1,186251	-9,541817	1,927934	2020-11-19T14:31:23:668
-1,188507	-9,541860	1,926332	2020-11-19T14:31:23:691
-1,190683	-9,541058	1,928956	2020-11-19T14:31:23:708
-1,192287	-9,540765	1,929413	2020-11-19T14:31:23:730
-1,189623	-9,541147	1,929168	2020-11-19T14:31:23:748
-1,193523	-9,540139	1,931744	2020-11-19T14:31:23:770
-1,196846	-9,539272	1,933968	2020-11-19T14:31:23:788
-1,197800	-9,538789	1,935762	2020-11-19T14:31:23:811
-1,196568	-9,538768	1,936625	2020-11-19T14:31:23:828
-1,192830	-9,539164	1,936981	2020-11-19T14:31:23:851
-1,192298	-9,539155	1,937350	2020-11-19T14:31:23:869
-1,193790	-9,538969	1,937346	2020-11-19T14:31:23:890
-1,190618	-9,539932	1,934554	2020-11-19T14:31:23:908
-1,194686	-9,539037	1,936464	2020-11-19T14:31:23:931
-1,195089	-9,538967	1,936557	2020-11-19T14:31:23:949
-1,196890	-9,539203	1,934281	2020-11-19T14:31:23:970
-1,197353	-9,539293	1,933548	2020-11-19T14:31:23:992
-1,196544	-9,539296	1,934036	2020-11-19T14:31:24:011
-1,198488	-9,539266	1,932982	2020-11-19T14:31:24:028
-1,196130	-9,539642	1,932583	2020-11-19T14:31:24:051
-1,193859	-9,540486	1,929818	2020-11-19T14:31:24:069
-1,192393	-9,541099	1,927701	2020-11-19T14:31:24:091
-1,195107	-9,540965	1,926679	2020-11-19T14:31:24:111
-1,195606	-9,541193	1,925237	2020-11-19T14:31:24:130
-1,195612	-9,541183	1,925286	2020-11-19T14:31:24:148
-1,194472	-9,541070	1,926553	2020-11-19T14:31:24:171
-1,194999	-9,540977	1,926685	2020-11-19T14:31:24:189
-1,194516	-9,541174	1,926008	2020-11-19T14:31:24:210
-1,192902	-9,541629	1,924758	2020-11-19T14:31:24:229
-1,192250	-9,541567	1,925468	2020-11-19T14:31:24:262
-1,191885	-9,541248	1,927270	2020-11-19T14:31:24:269
-1,192236	-9,540726	1,929641	2020-11-19T14:31:24:291
-1,188414	-9,541286	1,929228	2020-11-19T14:31:24:309
-1,185675	-9,541449	1,930111	2020-11-19T14:31:24:331
-1,185933	-9,541202	1,931170	2020-11-19T14:31:24:351
-1,181190	-9,542415	1,928082	2020-11-19T14:31:24:370
-1,180810	-9,542784	1,926488	2020-11-19T14:31:24:389
-1,178763	-9,542994	1,926702	2020-11-19T14:31:24:411
-1,179148	-9,543125	1,925814	2020-11-19T14:31:24:429
-1,182416	-9,542394	1,927433	2020-11-19T14:31:24:451
-1,184309	-9,542020	1,928120	2020-11-19T14:31:24:469
-1,182837	-9,541373	1,932219	2020-11-19T14:31:24:492
-1,184105	-9,540968	1,933443	2020-11-19T14:31:24:509
-1,185859	-9,541015	1,932138	2020-11-19T14:31:24:531
-1,185166	-9,541256	1,931372	2020-11-19T14:31:24:549
-1,186694	-9,541571	1,928877	2020-11-19T14:31:24:571
-1,185949	-9,542012	1,927152	2020-11-19T14:31:24:592
-1,183861	-9,542563	1,925706	2020-11-19T14:31:24:611
-1,183094	-9,542477	1,926608	2020-11-19T14:31:24:629
-1,186704	-9,542122	1,926143	2020-11-19T14:31:24:652
-1,190960	-9,541519	1,926502	2020-11-19T14:31:24:669
-1,191911	-9,540794	1,929502	2020-11-19T14:31:24:691
-1,190483	-9,541872	1,925051	2020-11-19T14:31:24:709
-1,187884	-9,542013	1,925957	2020-11-19T14:31:24:732
-1,187238	-9,542164	1,925608	2020-11-19T14:31:24:750
-1,184718	-9,542089	1,927524	2020-11-19T14:31:24:771
-1,182647	-9,541888	1,929792	2020-11-19T14:31:24:789
-1,181478	-9,541634	1,931768	2020-11-19T14:31:24:812
-1,182318	-9,541718	1,930831	2020-11-19T14:31:24:831
-1,179819	-9,541880	1,931564	2020-11-19T14:31:24:851
-1,179191	-9,541903	1,931829	2020-11-19T14:31:24:869
-1,175385	-9,542765	1,929897	2020-11-19T14:31:24:892
-1,173853	-9,543380	1,927783	2020-11-19T14:31:24:909
-1,177663	-9,542835	1,928158	2020-11-19T14:31:24:931
-1,178885	-9,541983	1,931628	2020-11-19T14:31:24:949
-1,182179	-9,540925	1,934837	2020-11-19T14:31:24:972
-1,183239	-9,540404	1,936755	2020-11-19T14:31:24:989
-1,184082	-9,540215	1,937171	2020-11-19T14:31:25:012
-1,185103	-9,540132	1,936957	2020-11-19T14:31:25:029
-1,181554	-9,540963	1,935027	2020-11-19T14:31:25:052
-1,182800	-9,540582	1,936146	2020-11-19T14:31:25:071
-1,185072	-9,540014	1,937554	2020-11-19T14:31:25:092
-1,184010	-9,539511	1,940680	2020-11-19T14:31:25:109
-1,183559	-9,539241	1,942279	2020-11-19T14:31:25:132
-1,184101	-9,539561	1,940378	2020-11-19T14:31:25:150
-1,185134	-9,539620	1,939454	2020-11-19T14:31:25:171
-1,182831	-9,540002	1,938985	2020-11-19T14:31:25:190
-1,177416	-9,541923	1,932818	2020-11-19T14:31:25:212
-1,177740	-9,542751	1,928526	2020-11-19T14:31:25:230
-1,179839	-9,541806	1,931913	2020-11-19T14:31:25:252
-1,181922	-9,540188	1,938625	2020-11-19T14:31:25:269
-1,183145	-9,538221	1,947531	2020-11-19T14:31:25:293
-1,186149	-9,537103	1,951181	2020-11-19T14:31:25:311
-1,187496	-9,537826	1,946825	2020-11-19T14:31:25:331
-1,185300	-9,538944	1,942678	2020-11-19T14:31:25:350
-1,182369	-9,540006	1,939247	2020-11-19T14:31:25:372
-1,182988	-9,540236	1,937738	2020-11-19T14:31:25:390
-1,182978	-9,539831	1,939733	2020-11-19T14:31:25:412
-1,184608	-9,538911	1,943262	2020-11-19T14:31:25:430
-1,187625	-9,538100	1,945398	2020-11-19T14:31:25:452
-1,190047	-9,537819	1,945297	2020-11-19T14:31:25:470
-1,193025	-9,537646	1,944321	2020-11-19T14:31:25:492
-1,194752	-9,538241	1,940337	2020-11-19T14:31:25:510
-1,195678	-9,538759	1,937220	2020-11-19T14:31:25:532
-1,192289	-9,538935	1,938443	2020-11-19T14:31:25:551
-1,193263	-9,538192	1,941495	2020-11-19T14:31:25:572
-1,197393	-9,536800	1,945786	2020-11-19T14:31:25:591
-1,199017	-9,535787	1,949745	2020-11-19T14:31:25:613
-1,199427	-9,535418	1,951299	2020-11-19T14:31:25:630
-1,197561	-9,535852	1,950322	2020-11-19T14:31:25:653
-1,196320	-9,536119	1,949776	2020-11-19T14:31:25:670
-1,194291	-9,536728	1,948043	2020-11-19T14:31:25:693
-1,191350	-9,537052	1,948256	2020-11-19T14:31:25:710
-1,190100	-9,536865	1,949934	2020-11-19T14:31:25:732
-1,193715	-9,535740	1,953228	2020-11-19T14:31:25:751
-1,194496	-9,535515	1,953848	2020-11-19T14:31:25:773
-1,195771	-9,535409	1,953582	2020-11-19T14:31:25:791
-1,197005	-9,535210	1,953803	2020-11-19T14:31:25:812
-1,199372	-9,535369	1,951571	2020-11-19T14:31:25:830
-1,199437	-9,534947	1,953590	2020-11-19T14:31:25:853
-1,199203	-9,535092	1,953026	2020-11-19T14:31:25:870
-1,198041	-9,535180	1,953308	2020-11-19T14:31:25:892
-1,197805	-9,535943	1,949728	2020-11-19T14:31:25:910
-1,195453	-9,535727	1,952228	2020-11-19T14:31:25:933
-1,196160	-9,536029	1,950320	2020-11-19T14:31:25:950
-1,194131	-9,536699	1,948283	2020-11-19T14:31:25:972
-1,193210	-9,537124	1,946766	2020-11-19T14:31:25:995
-1,194613	-9,538280	1,940234	2020-11-19T14:31:26:014
-1,197623	-9,538692	1,936342	2020-11-19T14:31:26:031
-1,200026	-9,537914	1,938690	2020-11-19T14:31:26:052
-1,203831	-9,535576	1,947809	2020-11-19T14:31:26:071
-1,207063	-9,534868	1,949274	2020-11-19T14:31:26:093
-1,208665	-9,534985	1,947712	2020-11-19T14:31:26:110
-1,206157	-9,534386	1,952192	2020-11-19T14:31:26:132
-1,205172	-9,534264	1,953397	2020-11-19T14:31:26:151
-1,201562	-9,534967	1,952184	2020-11-19T14:31:26:173
-1,199622	-9,535304	1,951737	2020-11-19T14:31:26:191
-1,199387	-9,534754	1,954563	2020-11-19T14:31:26:213
-1,201497	-9,534087	1,956522	2020-11-19T14:31:26:231
-1,202265	-9,534083	1,956067	2020-11-19T14:31:26:253
-1,200871	-9,534953	1,952681	2020-11-19T14:31:26:271
-1,201002	-9,535355	1,950640	2020-11-19T14:31:26:293
-1,199464	-9,535918	1,948830	2020-11-19T14:31:26:311
-1,194801	-9,535919	1,951686	2020-11-19T14:31:26:333
-1,191958	-9,534846	1,958654	2020-11-19T14:31:26:351
-1,186687	-9,534798	1,962087	2020-11-19T14:31:26:372
-1,182149	-9,535522	1,961311	2020-11-19T14:31:26:391
-1,178746	-9,535427	1,963814	2020-11-19T14:31:26:414
-1,177349	-9,534356	1,969843	2020-11-19T14:31:26:431
-1,177775	-9,532961	1,976331	2020-11-19T14:31:26:453
-1,176878	-9,531213	1,985278	2020-11-19T14:31:26:471
-1,178251	-9,530495	1,987906	2020-11-19T14:31:26:493
-1,176812	-9,531093	1,985895	2020-11-19T14:31:26:513
-1,179760	-9,531635	1,981536	2020-11-19T14:31:26:532
-1,183987	-9,531380	1,980243	2020-11-19T14:31:26:551
-1,187131	-9,530424	1,982960	2020-11-19T14:31:26:574
-1,190147	-9,529444	1,985857	2020-11-19T14:31:26:591
-1,190598	-9,529546	1,985098	2020-11-19T14:31:26:613
-1,190501	-9,529464	1,985550	2020-11-19T14:31:26:631
-1,189173	-9,530402	1,981838	2020-11-19T14:31:26:653
-1,184495	-9,531679	1,978498	2020-11-19T14:31:26:671
-1,182069	-9,531775	1,979489	2020-11-19T14:31:26:694
-1,180092	-9,531100	1,983907	2020-11-19T14:31:26:711
-1,178478	-9,530456	1,987959	2020-11-19T14:31:26:734
-1,175505	-9,530063	1,991603	2020-11-19T14:31:26:753
-1,175706	-9,529526	1,994050	2020-11-19T14:31:26:773
-1,173912	-9,531017	1,987969	2020-11-19T14:31:26:791
-1,175648	-9,532243	1,981056	2020-11-19T14:31:26:814
-1,176650	-9,532433	1,979547	2020-11-19T14:31:26:832
-1,180129	-9,530566	1,986449	2020-11-19T14:31:26:853
-1,180359	-9,530047	1,988804	2020-11-19T14:31:26:871
-1,180655	-9,530504	1,986436	2020-11-19T14:31:26:895
-1,177018	-9,531415	1,984223	2020-11-19T14:31:26:911
-1,178439	-9,531885	1,981118	2020-11-19T14:31:26:935
-1,178796	-9,531759	1,981510	2020-11-19T14:31:26:951
-1,175781	-9,532308	1,980667	2020-11-19T14:31:26:974
-1,175093	-9,531445	1,985222	2020-11-19T14:31:26:992
-1,175248	-9,530560	1,989374	2020-11-19T14:31:27:013
-1,175511	-9,529629	1,993674	2020-11-19T14:31:27:031
-1,174267	-9,529792	1,993625	2020-11-19T14:31:27:054
-1,174500	-9,529861	1,993159	2020-11-19T14:31:27:071
-1,170530	-9,529831	1,995638	2020-11-19T14:31:27:094
-1,173498	-9,529234	1,996743	2020-11-19T14:31:27:112
-1,173357	-9,528734	1,999211	2020-11-19T14:31:27:134
-1,175188	-9,528280	2,000300	2020-11-19T14:31:27:151
-1,177888	-9,528122	1,999464	2020-11-19T14:31:27:174
-1,175244	-9,528018	2,001516	2020-11-19T14:31:27:192
-1,174085	-9,529073	1,997168	2020-11-19T14:31:27:214
-1,174796	-9,529566	1,994397	2020-11-19T14:31:27:234
-1,177339	-9,529719	1,992160	2020-11-19T14:31:27:253
-1,178252	-9,529354	1,993368	2020-11-19T14:31:27:272
-1,176942	-9,529365	1,994094	2020-11-19T14:31:27:295
-1,173611	-9,529142	1,997114	2020-11-19T14:31:27:314
-1,168170	-9,529074	2,000627	2020-11-19T14:31:27:333
-1,167859	-9,529183	2,000288	2020-11-19T14:31:27:352
-1,169764	-9,529263	1,998791	2020-11-19T14:31:27:374
-1,172292	-9,529893	1,994307	2020-11-19T14:31:27:392
-1,172511	-9,529715	1,995030	2020-11-19T14:31:27:414
-1,175119	-9,529311	1,995423	2020-11-19T14:31:27:432
-1,174043	-9,528201	2,001346	2020-11-19T14:31:27:454
-1,173660	-9,528328	2,000969	2020-11-19T14:31:27:473
-1,171383	-9,528609	2,000965	2020-11-19T14:31:27:495
-1,170286	-9,528862	2,000400	2020-11-19T14:31:27:512
-1,170704	-9,529537	1,996935	2020-11-19T14:31:27:535
-1,171839	-9,529487	1,996512	2020-11-19T14:31:27:552
-1,171576	-9,529353	1,997303	2020-11-19T14:31:27:573
-1,170378	-9,529361	1,997971	2020-11-19T14:31:27:595
-1,170435	-9,528711	2,001032	2020-11-19T14:31:27:615
-1,169650	-9,528178	2,004028	2020-11-19T14:31:27:632
-1,167004	-9,528254	2,005212	2020-11-19T14:31:27:654
-1,170468	-9,528071	2,004058	2020-11-19T14:31:27:672
-1,172781	-9,527478	2,005524	2020-11-19T14:31:27:695
-1,172054	-9,527688	2,004953	2020-11-19T14:31:27:713
-1,174448	-9,526773	2,007894	2020-11-19T14:31:27:734
-1,170198	-9,527197	2,008370	2020-11-19T14:31:27:752
-1,169284	-9,527729	2,006374	2020-11-19T14:31:27:775
-1,170123	-9,527598	2,006505	2020-11-19T14:31:27:793
-1,173006	-9,527044	2,007455	2020-11-19T14:31:27:814
-1,174821	-9,526235	2,010233	2020-11-19T14:31:27:832
-1,179677	-9,525318	2,011730	2020-11-19T14:31:27:855
-1,180184	-9,524899	2,013420	2020-11-19T14:31:27:872
-1,180251	-9,524621	2,014693	2020-11-19T14:31:27:895
-1,175440	-9,525826	2,011808	2020-11-19T14:31:27:912
-1,173582	-9,526477	2,009810	2020-11-19T14:31:27:935
-1,173975	-9,526826	2,007924	2020-11-19T14:31:27:953
-1,173903	-9,526646	2,008822	2020-11-19T14:31:27:974
-1,176785	-9,526501	2,007820	2020-11-19T14:31:27:993
-1,180011	-9,526158	2,007550	2020-11-19T14:31:28:015
-1,184687	-9,525325	2,008751	2020-11-19T14:31:28:032
-1,183480	-9,525872	2,006866	2020-11-19T14:31:28:054
-1,184004	-9,526226	2,004876	2020-11-19T14:31:28:073
-1,182616	-9,526284	2,005420	2020-11-19T14:31:28:095
-1,181005	-9,526132	2,007095	2020-11-19T14:31:28:112
-1,178280	-9,527381	2,002760	2020-11-19T14:31:28:135
-1,176954	-9,527414	2,003382	2020-11-19T14:31:28:152
-1,176310	-9,527697	2,002417	2020-11-19T14:31:28:175
-1,179036	-9,527317	2,002620	2020-11-19T14:31:28:194
-1,183919	-9,527508	1,998829	2020-11-19T14:31:28:214
-1,183975	-9,526955	2,001430	2020-11-19T14:31:28:232
-1,184730	-9,527301	1,999335	2020-11-19T14:31:28:255
-1,183580	-9,527687	1,998173	2020-11-19T14:31:28:272
-1,184065	-9,527178	2,000312	2020-11-19T14:31:28:295
-1,187734	-9,526520	2,001275	2020-11-19T14:31:28:312
-1,187377	-9,526975	1,999320	2020-11-19T14:31:28:335
-1,188268	-9,527577	1,995914	2020-11-19T14:31:28:352
-1,185713	-9,528366	1,993667	2020-11-19T14:31:28:375
-1,189375	-9,527835	1,994024	2020-11-19T14:31:28:393
-1,188102	-9,528454	1,991823	2020-11-19T14:31:28:415
-1,188308	-9,528874	1,989689	2020-11-19T14:31:28:434
-1,187929	-9,528629	1,991087	2020-11-19T14:31:28:454
-1,190287	-9,528426	1,990653	2020-11-19T14:31:28:472
-1,189504	-9,528403	1,991229	2020-11-19T14:31:28:496
-1,190118	-9,528461	1,990586	2020-11-19T14:31:28:513
-1,189054	-9,528660	1,990270	2020-11-19T14:31:28:534
-1,188231	-9,528666	1,990734	2020-11-19T14:31:28:553
-1,187818	-9,529079	1,988999	2020-11-19T14:31:28:575
-1,188452	-9,528913	1,989421	2020-11-19T14:31:28:593
-1,186655	-9,529202	1,989111	2020-11-19T14:31:28:615
-1,183318	-9,529537	1,989487	2020-11-19T14:31:28:633
-1,180316	-9,529757	1,990217	2020-11-19T14:31:28:656
-1,181445	-9,529701	1,989818	2020-11-19T14:31:28:674
-1,180488	-9,530253	1,987738	2020-11-19T14:31:28:695
-1,180670	-9,530527	1,986318	2020-11-19T14:31:28:714
-1,182525	-9,530033	1,987585	2020-11-19T14:31:28:736
-1,182950	-9,530243	1,986323	2020-11-19T14:31:28:753
-1,183083	-9,530823	1,983461	2020-11-19T14:31:28:775
-1,184774	-9,530571	1,983664	2020-11-19T14:31:28:794
-1,187137	-9,530361	1,983256	2020-11-19T14:31:28:816
-1,188825	-9,530592	1,981136	2020-11-19T14:31:28:833
-1,189576	-9,530765	1,979854	2020-11-19T14:31:28:855
-1,189662	-9,531041	1,978470	2020-11-19T14:31:28:874
-1,192150	-9,530690	1,978663	2020-11-19T14:31:28:896
-1,192787	-9,531139	1,976112	2020-11-19T14:31:28:914
-1,191947	-9,532198	1,971508	2020-11-19T14:31:28:935
-1,191871	-9,532485	1,970167	2020-11-19T14:31:28:954
-1,194777	-9,531895	1,971264	2020-11-19T14:31:28:976
-1,197517	-9,531640	1,970830	2020-11-19T14:31:28:994
-1,196513	-9,532036	1,969527	2020-11-19T14:31:29:015
-1,197371	-9,531711	1,970578	2020-11-19T14:31:29:034
-1,191546	-9,532630	1,969664	2020-11-19T14:31:29:056
-1,187693	-9,533308	1,968706	2020-11-19T14:31:29:074
-1,186644	-9,534187	1,965076	2020-11-19T14:31:29:096
-1,185046	-9,535546	1,959442	2020-11-19T14:31:29:113
-1,182664	-9,536928	1,954146	2020-11-19T14:31:29:136
-1,184511	-9,535975	1,957678	2020-11-19T14:31:29:155
-1,187914	-9,535127	1,959746	2020-11-19T14:31:29:175
-1,188942	-9,534502	1,962160	2020-11-19T14:31:29:195
-1,189951	-9,534318	1,962445	2020-11-19T14:31:29:216
-1,189853	-9,534465	1,961791	2020-11-19T14:31:29:234
-1,192334	-9,533468	1,965124	2020-11-19T14:31:29:255
-1,193034	-9,533046	1,966748	2020-11-19T14:31:29:274
-1,191697	-9,533988	1,962985	2020-11-19T14:31:29:296
-1,188711	-9,534537	1,962128	2020-11-19T14:31:29:314
-1,188187	-9,534378	1,963222	2020-11-19T14:31:29:336
-1,190749	-9,534492	1,961114	2020-11-19T14:31:29:354
-1,193839	-9,533438	1,964357	2020-11-19T14:31:29:376
-1,195864	-9,532788	1,966275	2020-11-19T14:31:29:395
-1,193843	-9,533073	1,966119	2020-11-19T14:31:29:415
-1,194608	-9,533412	1,964014	2020-11-19T14:31:29:434
-1,192124	-9,534545	1,960021	2020-11-19T14:31:29:456
-1,186212	-9,535743	1,957780	2020-11-19T14:31:29:474
-1,182345	-9,536021	1,958762	2020-11-19T14:31:29:496
-1,178402	-9,536196	1,960286	2020-11-19T14:31:29:514
-1,177630	-9,536018	1,961613	2020-11-19T14:31:29:536
-1,178508	-9,535781	1,962240	2020-11-19T14:31:29:555
-1,181166	-9,534755	1,965628	2020-11-19T14:31:29:576
-1,183986	-9,534090	1,967153	2020-11-19T14:31:29:595
-1,183891	-9,534023	1,967531	2020-11-19T14:31:29:616
-1,181703	-9,534095	1,968499	2020-11-19T14:31:29:635
-1,182294	-9,534344	1,966942	2020-11-19T14:31:29:655
-1,188612	-9,534378	1,962963	2020-11-19T14:31:29:674
-1,184881	-9,535645	1,959056	2020-11-19T14:31:29:697
-1,183767	-9,535554	1,960179	2020-11-19T14:31:29:714
-1,186670	-9,534138	1,965302	2020-11-19T14:31:29:736
-1,183691	-9,532557	1,974744	2020-11-19T14:31:29:754
-1,181507	-9,532002	1,978727	2020-11-19T14:31:29:776
-1,180250	-9,531916	1,979895	2020-11-19T14:31:29:795
-1,182105	-9,532986	1,973627	2020-11-19T14:31:29:816
-1,180504	-9,533141	1,973833	2020-11-19T14:31:29:834
-1,181882	-9,532086	1,978099	2020-11-19T14:31:29:857
-1,180680	-9,531867	1,979873	2020-11-19T14:31:29:876
-1,179219	-9,531528	1,982371	2020-11-19T14:31:29:896
-1,181142	-9,530544	1,985953	2020-11-19T14:31:29:915
-1,182789	-9,529907	1,988030	2020-11-19T14:31:29:937
-1,183759	-9,529846	1,987745	2020-11-19T14:31:29:955
-1,184307	-9,530917	1,982277	2020-11-19T14:31:29:977
-1,182619	-9,531255	1,981661	2020-11-19T14:31:29:994
-1,184508	-9,529927	1,986910	2020-11-19T14:31:30:017
-1,183327	-9,529530	1,989517	2020-11-19T14:31:30:035
-1,184012	-9,529526	1,989132	2020-11-19T14:31:30:056
-1,185548	-9,529037	1,990559	2020-11-19T14:31:30:075
-1,189304	-9,529086	1,988078	2020-11-19T14:31:30:097
-1,190808	-9,529246	1,986410	2020-11-19T14:31:30:116
-1,191169	-9,528652	1,989040	2020-11-19T14:31:30:136
-1,187526	-9,529133	1,988916	2020-11-19T14:31:30:154
-1,187330	-9,529688	1,986374	2020-11-19T14:31:30:177
-1,182742	-9,529860	1,988287	2020-11-19T14:31:30:195
-1,180944	-9,529770	1,989784	2020-11-19T14:31:30:216
-1,181553	-9,529193	1,992186	2020-11-19T14:31:30:235
-1,179053	-9,528769	1,995692	2020-11-19T14:31:30:257
-1,176221	-9,528632	1,998012	2020-11-19T14:31:30:274
-1,182158	-9,528213	1,996510	2020-11-19T14:31:30:297
-1,183409	-9,528561	1,994108	2020-11-19T14:31:30:315
-1,183403	-9,529440	1,989904	2020-11-19T14:31:30:337
-1,183268	-9,529548	1,989467	2020-11-19T14:31:30:356
-1,180312	-9,529645	1,990756	2020-11-19T14:31:30:377
-1,176503	-9,529983	1,991397	2020-11-19T14:31:30:395
-1,171980	-9,530909	1,989629	2020-11-19T14:31:30:418
-1,172412	-9,531589	1,986114	2020-11-19T14:31:30:435
-1,175828	-9,531791	1,983122	2020-11-19T14:31:30:456
-1,180681	-9,531917	1,979634	2020-11-19T14:31:30:475
-1,184990	-9,531277	1,980139	2020-11-19T14:31:30:497
-1,187424	-9,530314	1,983307	2020-11-19T14:31:30:515
-1,184671	-9,530325	1,984905	2020-11-19T14:31:30:537
-1,182294	-9,530434	1,985802	2020-11-19T14:31:30:555
-1,179830	-9,531097	1,984078	2020-11-19T14:31:30:577
-1,178396	-9,531421	1,983376	2020-11-19T14:31:30:598
-1,176314	-9,531991	1,981871	2020-11-19T14:31:30:616
-1,175555	-9,532338	1,980651	2020-11-19T14:31:30:635
-1,179219	-9,531350	1,983229	2020-11-19T14:31:30:657
-1,182264	-9,531056	1,982827	2020-11-19T14:31:30:685
-1,185544	-9,530440	1,983827	2020-11-19T14:31:30:697
-1,186234	-9,530839	1,981498	2020-11-19T14:31:30:715
-1,186352	-9,531047	1,980429	2020-11-19T14:31:30:737
-1,185931	-9,531104	1,980406	2020-11-19T14:31:30:755
-1,187694	-9,530747	1,981065	2020-11-19T14:31:30:777
-1,190084	-9,530294	1,981808	2020-11-19T14:31:30:795
-1,189941	-9,530613	1,980366	2020-11-19T14:31:30:818
-1,188646	-9,530720	1,980628	2020-11-19T14:31:30:836
-1,189776	-9,530213	1,982385	2020-11-19T14:31:30:857
-1,191771	-9,529348	1,985341	2020-11-19T14:31:30:876
-1,195512	-9,529367	1,983001	2020-11-19T14:31:30:898
-1,195994	-9,528929	1,984815	2020-11-19T14:31:30:915
-1,196035	-9,528593	1,986405	2020-11-19T14:31:30:937
-1,194229	-9,528674	1,987100	2020-11-19T14:31:30:956
-1,194994	-9,528919	1,985463	2020-11-19T14:31:30:979
-1,194682	-9,529106	1,984758	2020-11-19T14:31:30:995
-1,193890	-9,529574	1,982985	2020-11-19T14:31:31:017
-1,192148	-9,530097	1,981520	2020-11-19T14:31:31:035
-1,191896	-9,530374	1,980340	2020-11-19T14:31:31:058
-1,192170	-9,529976	1,982090	2020-11-19T14:31:31:077
-1,192093	-9,530196	1,981074	2020-11-19T14:31:31:097
-1,192294	-9,530213	1,980871	2020-11-19T14:31:31:116
-1,192322	-9,530272	1,980570	2020-11-19T14:31:31:138
-1,189124	-9,530564	1,981088	2020-11-19T14:31:31:156
-1,188841	-9,530232	1,982856	2020-11-19T14:31:31:177
-1,189872	-9,529698	1,984804	2020-11-19T14:31:31:196
-1,189312	-9,530207	1,982696	2020-11-19T14:31:31:218
-1,185463	-9,530646	1,982888	2020-11-19T14:31:31:236
-1,186920	-9,530195	1,984182	2020-11-19T14:31:31:258
-1,188666	-9,530242	1,982911	2020-11-19T14:31:31:276
-1,187114	-9,530097	1,984540	2020-11-19T14:31:31:298
-1,189624	-9,530284	1,982139	2020-11-19T14:31:31:317
-1,189192	-9,530387	1,981900	2020-11-19T14:31:31:337
-1,187469	-9,531271	1,978680	2020-11-19T14:31:31:356
-1,186974	-9,531439	1,978170	2020-11-19T14:31:31:378
-1,186521	-9,531980	1,975832	2020-11-19T14:31:31:396
-1,188701	-9,531696	1,975888	2020-11-19T14:31:31:417
-1,188152	-9,531750	1,975963	2020-11-19T14:31:31:436
-1,189005	-9,530904	1,979526	2020-11-19T14:31:31:458
-1,186143	-9,530372	1,983798	2020-11-19T14:31:31:476
-1,186707	-9,530328	1,983673	2020-11-19T14:31:31:498
-1,184742	-9,531934	1,977120	2020-11-19T14:31:31:516
-1,185065	-9,531723	1,977945	2020-11-19T14:31:31:538
-1,187586	-9,530957	1,980121	2020-11-19T14:31:31:557
-1,190642	-9,530090	1,982458	2020-11-19T14:31:31:577
-1,188211	-9,530973	1,979669	2020-11-19T14:31:31:596
-1,188741	-9,530729	1,980524	2020-11-19T14:31:31:618
-1,191149	-9,529803	1,983532	2020-11-19T14:31:31:636
-1,190960	-9,529726	1,984016	2020-11-19T14:31:31:657
-1,193855	-9,530206	1,979970	2020-11-19T14:31:31:676
-1,196475	-9,529689	1,980876	2020-11-19T14:31:31:699
-1,199192	-9,528831	1,983355	2020-11-19T14:31:31:716
-1,199957	-9,529217	1,981039	2020-11-19T14:31:31:738
-1,202691	-9,528944	1,980691	2020-11-19T14:31:31:756
-1,200101	-9,529342	1,980350	2020-11-19T14:31:31:778
-1,197431	-9,529686	1,980312	2020-11-19T14:31:31:798
-1,201426	-9,529655	1,978039	2020-11-19T14:31:31:817
-1,200513	-9,530059	1,976648	2020-11-19T14:31:31:836
-1,203705	-9,529841	1,975752	2020-11-19T14:31:31:859
-1,204958	-9,529958	1,974426	2020-11-19T14:31:31:876
-1,207293	-9,530098	1,972323	2020-11-19T14:31:31:898
-1,206786	-9,530353	1,971405	2020-11-19T14:31:31:916
-1,202685	-9,531127	1,970166	2020-11-19T14:31:31:939
-1,208033	-9,529891	1,972869	2020-11-19T14:31:31:956
-1,208157	-9,529960	1,972462	2020-11-19T14:31:31:978
-1,209973	-9,529677	1,972711	2020-11-19T14:31:31:997
-1,208816	-9,530174	1,971020	2020-11-19T14:31:32:019
-1,207762	-9,530624	1,969493	2020-11-19T14:31:32:037
-1,206548	-9,530774	1,969512	2020-11-19T14:31:32:058
-1,206809	-9,530519	1,970585	2020-11-19T14:31:32:077
-1,203683	-9,530847	1,970911	2020-11-19T14:31:32:099
-1,199271	-9,531447	1,970695	2020-11-19T14:31:32:117
-1,199525	-9,531246	1,971514	2020-11-19T14:31:32:138
-1,198283	-9,531949	1,968871	2020-11-19T14:31:32:157
-1,202372	-9,531429	1,968894	2020-11-19T14:31:32:178
-1,199502	-9,532027	1,967747	2020-11-19T14:31:32:197
-1,199313	-9,532473	1,965706	2020-11-19T14:31:32:219
-1,196790	-9,532941	1,964973	2020-11-19T14:31:32:237
-1,197685	-9,532434	1,966888	2020-11-19T14:31:32:259
-1,197249	-9,532100	1,968768	2020-11-19T14:31:32:278
-1,194965	-9,532264	1,969364	2020-11-19T14:31:32:298
-1,192945	-9,532863	1,967690	2020-11-19T14:31:32:317
-1,191142	-9,533084	1,967706	2020-11-19T14:31:32:339
-1,191507	-9,533339	1,966252	2020-11-19T14:31:32:357
-1,192826	-9,533366	1,965318	2020-11-19T14:31:32:378
-1,194661	-9,533253	1,964754	2020-11-19T14:31:32:397
-1,194074	-9,533153	1,965596	2020-11-19T14:31:32:419
-1,194210	-9,533141	1,965569	2020-11-19T14:31:32:437
-1,196176	-9,533102	1,964566	2020-11-19T14:31:32:459
-1,198872	-9,532888	1,963956	2020-11-19T14:31:32:477
-1,200273	-9,532968	1,962715	2020-11-19T14:31:32:499
-1,202000	-9,532595	1,963471	2020-11-19T14:31:32:519
-1,200376	-9,532575	1,964560	2020-11-19T14:31:32:538
-1,198734	-9,532920	1,963889	2020-11-19T14:31:32:557
-1,200461	-9,533757	1,958764	2020-11-19T14:31:32:579
-1,200743	-9,533945	1,957676	2020-11-19T14:31:32:599
-1,201349	-9,534214	1,955994	2020-11-19T14:31:32:619
-1,201748	-9,534139	1,956115	2020-11-19T14:31:32:638
-1,201418	-9,533979	1,957096	2020-11-19T14:31:32:659
-1,202692	-9,533555	1,958376	2020-11-19T14:31:32:677
-1,204205	-9,533178	1,959282	2020-11-19T14:31:32:699
-1,204981	-9,533114	1,959117	2020-11-19T14:31:32:717
-1,206644	-9,533260	1,957382	2020-11-19T14:31:32:739
-1,208487	-9,533128	1,956888	2020-11-19T14:31:32:758
-1,209325	-9,533046	1,956772	2020-11-19T14:31:32:778
-1,208838	-9,533622	1,954267	2020-11-19T14:31:32:798
-1,211434	-9,533041	1,955489	2020-11-19T14:31:32:819
-1,211795	-9,533031	1,955312	2020-11-19T14:31:32:837
-1,214058	-9,532753	1,955267	2020-11-19T14:31:32:859
-1,212561	-9,532884	1,955558	2020-11-19T14:31:32:877
-1,212056	-9,533066	1,954986	2020-11-19T14:31:32:900
-1,212593	-9,532598	1,956932	2020-11-19T14:31:32:917
-1,211378	-9,532556	1,957892	2020-11-19T14:31:32:939
-1,212252	-9,532383	1,958188	2020-11-19T14:31:32:958
-1,213851	-9,532773	1,955298	2020-11-19T14:31:32:979
-1,212921	-9,533067	1,954444	2020-11-19T14:31:33:000
-1,211678	-9,533062	1,955239	2020-11-19T14:31:33:019
-1,210264	-9,533068	1,956084	2020-11-19T14:31:33:037
-1,209495	-9,533202	1,955903	2020-11-19T14:31:33:060
-1,210361	-9,532995	1,956376	2020-11-19T14:31:33:077
-1,209628	-9,533478	1,954479	2020-11-19T14:31:33:099
-1,211172	-9,532946	1,956115	2020-11-19T14:31:33:117
-1,211105	-9,532952	1,956126	2020-11-19T14:31:33:140
-1,213101	-9,532453	1,957324	2020-11-19T14:31:33:158
-1,213505	-9,532084	1,958868	2020-11-19T14:31:33:179
-1,212662	-9,532067	1,959473	2020-11-19T14:31:33:198
-1,217916	-9,531528	1,958834	2020-11-19T14:31:33:220
-1,217331	-9,531880	1,957485	2020-11-19T14:31:33:239
-1,212963	-9,532799	1,955722	2020-11-19T14:31:33:259
-1,212389	-9,532832	1,955917	2020-11-19T14:31:33:278
-1,206152	-9,533205	1,957954	2020-11-19T14:31:33:300
-1,206348	-9,533134	1,958179	2020-11-19T14:31:33:318
-1,205568	-9,533522	1,956770	2020-11-19T14:31:33:339
-1,205625	-9,533545	1,956625	2020-11-19T14:31:33:358
-1,204590	-9,533386	1,958034	2020-11-19T14:31:33:380
-1,204498	-9,533551	1,957288	2020-11-19T14:31:33:398
-1,205819	-9,533457	1,956933	2020-11-19T14:31:33:420
-1,209026	-9,533401	1,955222	2020-11-19T14:31:33:438
-1,208461	-9,533712	1,954057	2020-11-19T14:31:33:460
-1,207699	-9,533540	1,955371	2020-11-19T14:31:33:479
-1,207027	-9,532817	1,959305	2020-11-19T14:31:33:500
-1,205865	-9,532645	1,960854	2020-11-19T14:31:33:518
-1,204797	-9,532683	1,961326	2020-11-19T14:31:33:540
-1,203391	-9,533104	1,960144	2020-11-19T14:31:33:558
-1,203659	-9,533248	1,959281	2020-11-19T14:31:33:579
-1,204582	-9,533095	1,959455	2020-11-19T14:31:33:598
-1,201439	-9,533512	1,959358	2020-11-19T14:31:33:620
-1,202208	-9,533885	1,957070	2020-11-19T14:31:33:638
-1,203946	-9,533207	1,959300	2020-11-19T14:31:33:660
-1,202660	-9,533537	1,958487	2020-11-19T14:31:33:678
-1,204071	-9,533412	1,958225	2020-11-19T14:31:33:701
-1,205016	-9,533726	1,956117	2020-11-19T14:31:33:719
-1,206229	-9,534173	1,953188	2020-11-19T14:31:33:740
-1,206803	-9,534412	1,951665	2020-11-19T14:31:33:758
-1,205815	-9,533999	1,954292	2020-11-19T14:31:33:780
-1,206099	-9,532918	1,959384	2020-11-19T14:31:33:798
-1,207262	-9,532266	1,961839	2020-11-19T14:31:33:820
-1,205586	-9,532465	1,961902	2020-11-19T14:31:33:838
-1,206877	-9,532455	1,961153	2020-11-19T14:31:33:861
-1,206544	-9,532189	1,962650	2020-11-19T14:31:33:878
-1,207968	-9,531543	1,964914	2020-11-19T14:31:33:900
-1,209451	-9,531594	1,963752	2020-11-19T14:31:33:918
-1,209736	-9,531579	1,963650	2020-11-19T14:31:33:940
-1,210137	-9,531192	1,965282	2020-11-19T14:31:33:959
-1,212162	-9,530796	1,965952	2020-11-19T14:31:33:979
-1,213201	-9,530930	1,964666	2020-11-19T14:31:33:999
-1,217134	-9,531108	1,961364	2020-11-19T14:31:34:021
-1,214228	-9,531589	1,960828	2020-11-19T14:31:34:038
-1,216160	-9,531711	1,959037	2020-11-19T14:31:34:060
-1,215903	-9,531284	1,961270	2020-11-19T14:31:34:079
-1,214616	-9,531033	1,963290	2020-11-19T14:31:34:101
-1,216533	-9,530790	1,963281	2020-11-19T14:31:34:118
-1,214329	-9,531237	1,962479	2020-11-19T14:31:34:140
-1,213352	-9,531586	1,961386	2020-11-19T14:31:34:158
-1,210653	-9,532027	1,960908	2020-11-19T14:31:34:181
-1,209895	-9,532514	1,959010	2020-11-19T14:31:34:201
-1,214925	-9,531995	1,958421	2020-11-19T14:31:34:220
-1,214918	-9,532173	1,957558	2020-11-19T14:31:34:238
-1,216653	-9,531944	1,957593	2020-11-19T14:31:34:261
-1,214900	-9,532180	1,957537	2020-11-19T14:31:34:278
-1,216025	-9,531725	1,959052	2020-11-19T14:31:34:300
-1,215517	-9,531541	1,960263	2020-11-19T14:31:34:318
-1,214780	-9,531128	1,962727	2020-11-19T14:31:34:341
-1,211033	-9,531107	1,965143	2020-11-19T14:31:34:359
-1,209955	-9,531247	1,965128	2020-11-19T14:31:34:381
-1,208286	-9,531446	1,965185	2020-11-19T14:31:34:400
-1,210079	-9,531171	1,965418	2020-11-19T14:31:34:421
-1,209534	-9,531383	1,964731	2020-11-19T14:31:34:440
-1,209985	-9,531204	1,965315	2020-11-19T14:31:34:460
-1,212123	-9,531123	1,964393	2020-11-19T14:31:34:479
-1,214495	-9,530602	1,965452	2020-11-19T14:31:34:502
-1,217422	-9,530235	1,965420	2020-11-19T14:31:34:519
-1,217594	-9,530413	1,964454	2020-11-19T14:31:34:540
-1,217778	-9,530323	1,964776	2020-11-19T14:31:34:559
-1,219348	-9,530334	1,963752	2020-11-19T14:31:34:581
-1,216504	-9,530266	1,965844	2020-11-19T14:31:34:599
-1,212092	-9,530480	1,967528	2020-11-19T14:31:34:621
-1,209252	-9,531104	1,966252	2020-11-19T14:31:34:639
-1,207829	-9,531862	1,963450	2020-11-19T14:31:34:661
-1,206701	-9,532659	1,960275	2020-11-19T14:31:34:682
-1,207719	-9,532602	1,959922	2020-11-19T14:31:34:701
-1,205673	-9,532514	1,961614	2020-11-19T14:31:34:720
-1,203841	-9,532376	1,963406	2020-11-19T14:31:34:742
-1,202009	-9,532908	1,961939	2020-11-19T14:31:34:759
-1,203070	-9,533792	1,956994	2020-11-19T14:31:34:781
-1,203286	-9,534510	1,953362	2020-11-19T14:31:34:800
-1,206755	-9,533929	1,954053	2020-11-19T14:31:34:822
-1,204871	-9,534033	1,954711	2020-11-19T14:31:34:839
-1,206905	-9,534019	1,953522	2020-11-19T14:31:34:861
-1,205218	-9,534280	1,953292	2020-11-19T14:31:34:879
-1,204970	-9,534543	1,952160	2020-11-19T14:31:34:902
-1,206193	-9,534820	1,950049	2020-11-19T14:31:34:921
-1,207742	-9,534933	1,948537	2020-11-19T14:31:34:941
-1,209590	-9,534412	1,949938	2020-11-19T14:31:34:959
-1,211208	-9,534241	1,949775	2020-11-19T14:31:34:982
-1,212375	-9,533953	1,950455	2020-11-19T14:31:35:001
-1,214224	-9,533829	1,949910	2020-11-19T14:31:35:052
-1,213927	-9,533692	1,950763	2020-11-19T14:31:35:053
-1,210537	-9,534327	1,949771	2020-11-19T14:31:35:075
-1,209801	-9,534479	1,949481	2020-11-19T14:31:35:083
-1,209118	-9,535033	1,947191	2020-11-19T14:31:35:103
-1,213775	-9,534477	1,947018	2020-11-19T14:31:35:120
-1,214844	-9,534365	1,946902	2020-11-19T14:31:35:147
-1,216030	-9,534215	1,946897	2020-11-19T14:31:35:174
-1,216629	-9,534180	1,946693	2020-11-19T14:31:35:182
-1,216823	-9,534098	1,946975	2020-11-19T14:31:35:323
-1,218688	-9,533873	1,946910	2020-11-19T14:31:35:324
-1,220247	-9,534057	1,945032	2020-11-19T14:31:35:324
-1,221450	-9,534263	1,943266	2020-11-19T14:31:35:324
-1,221752	-9,533783	1,945428	2020-11-19T14:31:35:325
-1,223571	-9,532840	1,948903	2020-11-19T14:31:35:325
-1,222426	-9,533058	1,948552	2020-11-19T14:31:35:326
-1,220334	-9,533010	1,950104	2020-11-19T14:31:35:342
-1,221070	-9,532939	1,949987	2020-11-19T14:31:35:365
-1,221462	-9,532440	1,952179	2020-11-19T14:31:35:381
-1,221851	-9,532525	1,951522	2020-11-19T14:31:35:400
-1,218423	-9,533366	1,949552	2020-11-19T14:31:35:421
-1,216775	-9,533732	1,948793	2020-11-19T14:31:35:439
-1,220835	-9,531437	1,957464	2020-11-19T14:31:35:462
-1,220619	-9,531204	1,958730	2020-11-19T14:31:35:480
-1,221174	-9,531812	1,955422	2020-11-19T14:31:35:503
-1,221675	-9,531877	1,954794	2020-11-19T14:31:35:520
-1,222416	-9,531427	1,956520	2020-11-19T14:31:35:543
-1,223823	-9,532093	1,952394	2020-11-19T14:31:35:561
-1,224451	-9,532583	1,949607	2020-11-19T14:31:35:582
-1,224414	-9,533094	1,947125	2020-11-19T14:31:35:600
-1,223626	-9,532910	1,948524	2020-11-19T14:31:35:623
-1,222532	-9,533311	1,947250	2020-11-19T14:31:35:644
-1,219726	-9,534015	1,945565	2020-11-19T14:31:35:665
-1,219165	-9,533708	1,947416	2020-11-19T14:31:35:680
-1,220046	-9,533882	1,946012	2020-11-19T14:31:35:703
-1,220705	-9,533466	1,947636	2020-11-19T14:31:35:721
-1,219358	-9,533510	1,948264	2020-11-19T14:31:35:741
-1,221195	-9,533558	1,946882	2020-11-19T14:31:35:760
-1,221976	-9,533234	1,947980	2020-11-19T14:31:35:782
-1,225027	-9,532670	1,948817	2020-11-19T14:31:35:800
-1,226575	-9,532538	1,948488	2020-11-19T14:31:35:822
-1,226338	-9,532643	1,948127	2020-11-19T14:31:35:841
-1,228525	-9,532188	1,948972	2020-11-19T14:31:35:862
-1,229214	-9,531693	1,950962	2020-11-19T14:31:35:881
-1,229071	-9,531927	1,949905	2020-11-19T14:31:35:902
-1,230676	-9,531714	1,949934	2020-11-19T14:31:35:920
-1,230559	-9,531851	1,949342	2020-11-19T14:31:35:943
-1,230474	-9,531892	1,949193	2020-11-19T14:31:35:960
-1,232682	-9,531350	1,950449	2020-11-19T14:31:35:981
-1,229963	-9,531152	1,953133	2020-11-19T14:31:36:005
-1,229326	-9,531379	1,952426	2020-11-19T14:31:36:023
-1,228098	-9,531598	1,952125	2020-11-19T14:31:36:040
-1,226691	-9,532233	1,949906	2020-11-19T14:31:36:073
-1,226559	-9,532803	1,947206	2020-11-19T14:31:36:081
-1,225309	-9,533006	1,947000	2020-11-19T14:31:36:103
-1,225194	-9,532455	1,949764	2020-11-19T14:31:36:122
-1,227436	-9,531442	1,953305	2020-11-19T14:31:36:142
-1,227830	-9,530962	1,955399	2020-11-19T14:31:36:160
-1,226219	-9,531558	1,953503	2020-11-19T14:31:36:183
-1,225014	-9,531563	1,954236	2020-11-19T14:31:36:201
-1,224539	-9,531250	1,956059	2020-11-19T14:31:36:222
-1,225524	-9,531446	1,954482	2020-11-19T14:31:36:241
-1,224392	-9,532267	1,951191	2020-11-19T14:31:36:264
-1,221021	-9,532318	1,953052	2020-11-19T14:31:36:281
-1,218803	-9,532593	1,953092	2020-11-19T14:31:36:304
-1,218817	-9,532206	1,954975	2020-11-19T14:31:36:320
-1,218258	-9,532657	1,953121	2020-11-19T14:31:36:343
-1,218275	-9,532822	1,952305	2020-11-19T14:31:36:363
-1,217580	-9,533508	1,949387	2020-11-19T14:31:36:382
-1,217707	-9,533608	1,948817	2020-11-19T14:31:36:401
-1,217692	-9,533529	1,949214	2020-11-19T14:31:36:423
-1,216795	-9,533792	1,948489	2020-11-19T14:31:36:440
-1,217651	-9,533432	1,949713	2020-11-19T14:31:36:462
-1,219986	-9,533261	1,949091	2020-11-19T14:31:36:481
-1,220303	-9,533495	1,947747	2020-11-19T14:31:36:503
-1,218797	-9,533581	1,948269	2020-11-19T14:31:36:521
-1,218672	-9,533633	1,948092	2020-11-19T14:31:36:542
-1,217982	-9,533607	1,948650	2020-11-19T14:31:36:561
-1,219178	-9,533483	1,948510	2020-11-19T14:31:36:583
-1,217465	-9,533771	1,948175	2020-11-19T14:31:36:604
-1,217250	-9,533480	1,949732	2020-11-19T14:31:36:623
-1,215581	-9,533789	1,949260	2020-11-19T14:31:36:641
-1,216887	-9,533594	1,949396	2020-11-19T14:31:36:663
-1,216843	-9,533967	1,947603	2020-11-19T14:31:36:681
-1,216638	-9,533993	1,947603	2020-11-19T14:31:36:702
-1,213933	-9,534379	1,947399	2020-11-19T14:31:36:721
-1,214755	-9,534070	1,948400	2020-11-19T14:31:36:743
-1,217312	-9,533858	1,947839	2020-11-19T14:31:36:761
-1,216738	-9,533544	1,949740	2020-11-19T14:31:36:783
-1,215432	-9,533570	1,950420	2020-11-19T14:31:36:802
-1,213979	-9,533996	1,949250	2020-11-19T14:31:36:823
-1,212219	-9,534129	1,949691	2020-11-19T14:31:36:842
-1,213144	-9,534402	1,947777	2020-11-19T14:31:36:862
-1,214721	-9,534426	1,946682	2020-11-19T14:31:36:881
-1,215128	-9,533889	1,949055	2020-11-19T14:31:36:905
-1,212471	-9,533748	1,951399	2020-11-19T14:31:36:921
-1,214549	-9,533129	1,953130	2020-11-19T14:31:36:942
-1,213811	-9,533780	1,950405	2020-11-19T14:31:36:961
-1,214923	-9,534155	1,947882	2020-11-19T14:31:36:984
-1,214992	-9,534667	1,945328	2020-11-19T14:31:37:002
-1,214885	-9,534638	1,945537	2020-11-19T14:31:37:027
-1,214283	-9,534545	1,946368	2020-11-19T14:31:37:042
-1,213315	-9,533972	1,949780	2020-11-19T14:31:37:064
-1,210047	-9,533604	1,953607	2020-11-19T14:31:37:083
-1,209963	-9,533215	1,955557	2020-11-19T14:31:37:103
-1,212276	-9,532849	1,955903	2020-11-19T14:31:37:122
-1,214816	-9,533217	1,952530	2020-11-19T14:31:37:145
-1,218078	-9,533376	1,949721	2020-11-19T14:31:37:162
-1,214110	-9,533685	1,950685	2020-11-19T14:31:37:183
-1,217361	-9,533014	1,951935	2020-11-19T14:31:37:202
-1,216256	-9,533330	1,951085	2020-11-19T14:31:37:224
-1,216104	-9,533533	1,950184	2020-11-19T14:31:37:241
-1,216325	-9,533528	1,950072	2020-11-19T14:31:37:264
-1,219159	-9,533180	1,950004	2020-11-19T14:31:37:281
-1,216167	-9,533651	1,949568	2020-11-19T14:31:37:304
-1,217293	-9,533341	1,950379	2020-11-19T14:31:37:323
-1,216022	-9,533622	1,949804	2020-11-19T14:31:37:343
-1,215262	-9,533487	1,950934	2020-11-19T14:31:37:361
-1,215850	-9,533816	1,948959	2020-11-19T14:31:37:384
-1,218618	-9,534081	1,945932	2020-11-19T14:31:37:402
-1,218530	-9,534499	1,943937	2020-11-19T14:31:37:423
-1,220805	-9,533735	1,946256	2020-11-19T14:31:37:441
-1,219663	-9,534037	1,945495	2020-11-19T14:31:37:464
-1,220053	-9,533689	1,946950	2020-11-19T14:31:37:481
-1,220378	-9,533472	1,947814	2020-11-19T14:31:37:504
-1,221250	-9,532634	1,951367	2020-11-19T14:31:37:522
-1,215501	-9,533783	1,949340	2020-11-19T14:31:37:544
-1,216292	-9,533845	1,948544	2020-11-19T14:31:37:563
-1,215042	-9,533889	1,949109	2020-11-19T14:31:37:583
-1,214435	-9,533480	1,951487	2020-11-19T14:31:37:602
-1,216765	-9,532972	1,952510	2020-11-19T14:31:37:625
-1,218533	-9,532894	1,951793	2020-11-19T14:31:37:642
-1,217663	-9,533559	1,949085	2020-11-19T14:31:37:663
-1,217958	-9,533639	1,948510	2020-11-19T14:31:37:682
-1,215880	-9,533721	1,949407	2020-11-19T14:31:37:704
-1,215772	-9,533525	1,950431	2020-11-19T14:31:37:722
-1,215502	-9,533528	1,950582	2020-11-19T14:31:37:743
-1,213942	-9,533639	1,951015	2020-11-19T14:31:37:762
-1,213223	-9,533840	1,950480	2020-11-19T14:31:37:783
-1,213649	-9,533298	1,952864	2020-11-19T14:31:37:803
-1,219891	-9,531843	1,956070	2020-11-19T14:31:37:826
-1,218956	-9,531602	1,957827	2020-11-19T14:31:37:857
-1,216286	-9,531781	1,958618	2020-11-19T14:31:37:864
-1,217655	-9,531417	1,959540	2020-11-19T14:31:37:882
-1,216933	-9,531435	1,959898	2020-11-19T14:31:37:903
-1,217427	-9,531397	1,959776	2020-11-19T14:31:37:923
-1,215779	-9,532272	1,956538	2020-11-19T14:31:37:943
-1,214575	-9,532688	1,955260	2020-11-19T14:31:37:963
-1,213895	-9,532528	1,956466	2020-11-19T14:31:37:985
-1,212479	-9,532437	1,957781	2020-11-19T14:31:38:002
-1,211746	-9,532479	1,958033	2020-11-19T14:31:38:023
-1,214716	-9,531557	1,960682	2020-11-19T14:31:38:043
-1,216872	-9,531553	1,959363	2020-11-19T14:31:38:063
-1,215526	-9,531752	1,959235	2020-11-19T14:31:38:082
-1,214434	-9,532009	1,958656	2020-11-19T14:31:38:104
-1,212006	-9,532845	1,956087	2020-11-19T14:31:38:123
-1,212713	-9,532553	1,957076	2020-11-19T14:31:38:143
-1,211699	-9,532603	1,957459	2020-11-19T14:31:38:163
-1,212371	-9,532413	1,957965	2020-11-19T14:31:38:185
-1,214680	-9,532291	1,957129	2020-11-19T14:31:38:203
-1,215882	-9,532293	1,956375	2020-11-19T14:31:38:225
-1,214962	-9,532064	1,958060	2020-11-19T14:31:38:243
-1,214991	-9,531695	1,959836	2020-11-19T14:31:38:265
-1,216465	-9,531571	1,959526	2020-11-19T14:31:38:284
-1,215606	-9,532042	1,957771	2020-11-19T14:31:38:305
-1,214050	-9,532303	1,957466	2020-11-19T14:31:38:323
-1,213411	-9,531969	1,959484	2020-11-19T14:31:38:345
-1,212237	-9,532268	1,958759	2020-11-19T14:31:38:363
-1,209947	-9,532629	1,958418	2020-11-19T14:31:38:385
-1,209507	-9,532315	1,960215	2020-11-19T14:31:38:403
-1,209177	-9,532709	1,958504	2020-11-19T14:31:38:425
-1,209119	-9,533059	1,956833	2020-11-19T14:31:38:443
-1,207972	-9,532389	1,960804	2020-11-19T14:31:38:465
-1,209725	-9,532331	1,960008	2020-11-19T14:31:38:483
-1,210469	-9,531599	1,963104	2020-11-19T14:31:38:505
-1,212407	-9,531355	1,963092	2020-11-19T14:31:38:524
-1,211890	-9,531409	1,963148	2020-11-19T14:31:38:544
-1,211502	-9,531309	1,963871	2020-11-19T14:31:38:563
-1,211347	-9,530731	1,966768	2020-11-19T14:31:38:585
-1,211438	-9,530760	1,966577	2020-11-19T14:31:38:603
-1,209882	-9,530922	1,966746	2020-11-19T14:31:38:625
-1,210604	-9,530263	1,969497	2020-11-19T14:31:38:643
-1,211532	-9,530142	1,969511	2020-11-19T14:31:38:665
-1,211136	-9,530297	1,969000	2020-11-19T14:31:38:683
-1,215340	-9,529621	1,969686	2020-11-19T14:31:38:706
-1,211127	-9,530197	1,969494	2020-11-19T14:31:38:723
-1,212248	-9,529981	1,969850	2020-11-19T14:31:38:745
-1,212652	-9,529819	1,970388	2020-11-19T14:31:38:764
-1,212199	-9,529873	1,970401	2020-11-19T14:31:38:785
-1,211472	-9,529449	1,972898	2020-11-19T14:31:38:804
-1,212320	-9,529635	1,971473	2020-11-19T14:31:38:825
-1,214239	-9,529550	1,970709	2020-11-19T14:31:38:844
-1,216712	-9,529209	1,970831	2020-11-19T14:31:38:865
-1,215944	-9,529602	1,969402	2020-11-19T14:31:38:884
-1,217811	-9,529450	1,968985	2020-11-19T14:31:38:905
-1,219055	-9,529648	1,967258	2020-11-19T14:31:38:924
-1,219562	-9,529792	1,966247	2020-11-19T14:31:38:946
-1,217576	-9,529870	1,967096	2020-11-19T14:31:38:963
-1,215542	-9,530286	1,966340	2020-11-19T14:31:38:985
-1,216573	-9,529998	1,967098	2020-11-19T14:31:39:005
-1,212618	-9,530601	1,966622	2020-11-19T14:31:39:025
-1,212180	-9,530684	1,966488	2020-11-19T14:31:39:043
-1,213478	-9,530631	1,965943	2020-11-19T14:31:39:065
-1,214998	-9,530453	1,965869	2020-11-19T14:31:39:083
-1,216938	-9,530138	1,966193	2020-11-19T14:31:39:105
-1,217431	-9,530212	1,965529	2020-11-19T14:31:39:124
-1,214912	-9,531291	1,961852	2020-11-19T14:31:39:145
-1,214182	-9,531088	1,963288	2020-11-19T14:31:39:163
-1,215384	-9,530796	1,963964	2020-11-19T14:31:39:185
-1,213794	-9,531307	1,962466	2020-11-19T14:31:39:204
-1,211332	-9,531914	1,961040	2020-11-19T14:31:39:225
-1,210686	-9,531839	1,961800	2020-11-19T14:31:39:244
-1,212499	-9,530720	1,966117	2020-11-19T14:31:39:265
-1,214529	-9,530438	1,966226	2020-11-19T14:31:39:283
-1,215355	-9,530814	1,963892	2020-11-19T14:31:39:305
-1,213691	-9,530922	1,964400	2020-11-19T14:31:39:324
-1,214597	-9,529989	1,968362	2020-11-19T14:31:39:345
-1,212695	-9,529646	1,971192	2020-11-19T14:31:39:364
-1,210169	-9,530314	1,969512	2020-11-19T14:31:39:385
-1,210685	-9,530279	1,969365	2020-11-19T14:31:39:404
-1,211748	-9,529804	1,971013	2020-11-19T14:31:39:426
-1,210057	-9,530085	1,970693	2020-11-19T14:31:39:444
-1,210381	-9,530656	1,967731	2020-11-19T14:31:39:466
-1,210105	-9,530922	1,966612	2020-11-19T14:31:39:484
-1,209273	-9,530664	1,968371	2020-11-19T14:31:39:505
-1,209095	-9,530459	1,969473	2020-11-19T14:31:39:523
-1,206460	-9,530768	1,969593	2020-11-19T14:31:39:545
-1,205506	-9,531313	1,967541	2020-11-19T14:31:39:564
-1,209677	-9,530299	1,969889	2020-11-19T14:31:39:585
-1,209923	-9,529925	1,971548	2020-11-19T14:31:39:605
-1,212256	-9,529628	1,971550	2020-11-19T14:31:39:625
-1,211948	-9,529065	1,974456	2020-11-19T14:31:39:644
-1,212276	-9,528847	1,975311	2020-11-19T14:31:39:666
-1,210991	-9,529254	1,974136	2020-11-19T14:31:39:684
-1,213239	-9,529166	1,973175	2020-11-19T14:31:39:706
-1,212705	-9,529092	1,973864	2020-11-19T14:31:39:727
-1,215005	-9,528430	1,975645	2020-11-19T14:31:39:745
-1,216331	-9,528111	1,976363	2020-11-19T14:31:39:765
-1,219202	-9,527750	1,976336	2020-11-19T14:31:39:787
-1,218965	-9,527748	1,976493	2020-11-19T14:31:39:805
-1,215092	-9,528940	1,973130	2020-11-19T14:31:39:826
-1,215531	-9,528826	1,973410	2020-11-19T14:31:39:845
-1,216799	-9,528750	1,972993	2020-11-19T14:31:39:866
-1,216125	-9,528913	1,972620	2020-11-19T14:31:39:884
-1,214868	-9,529103	1,972480	2020-11-19T14:31:39:906
-1,215083	-9,528832	1,973653	2020-11-19T14:31:39:924
-1,212603	-9,528888	1,974910	2020-11-19T14:31:39:946
-1,211948	-9,529544	1,972145	2020-11-19T14:31:39:968
-1,213567	-9,529623	1,970767	2020-11-19T14:31:39:985
-1,214689	-9,529750	1,969462	2020-11-19T14:31:40:004
-1,215367	-9,530145	1,967132	2020-11-19T14:31:40:026
-1,217390	-9,529667	1,968195	2020-11-19T14:31:40:044
-1,217646	-9,529428	1,969196	2020-11-19T14:31:40:066
-1,216677	-9,529623	1,968850	2020-11-19T14:31:40:084
-1,213074	-9,530890	1,964934	2020-11-19T14:31:40:106
-1,210578	-9,531034	1,965772	2020-11-19T14:31:40:124
-1,208354	-9,531404	1,965350	2020-11-19T14:31:40:146
-1,211054	-9,531012	1,965592	2020-11-19T14:31:40:165
-1,208254	-9,531281	1,966011	2020-11-19T14:31:40:196
-1,205804	-9,531715	1,965406	2020-11-19T14:31:40:206
-1,204919	-9,531917	1,964976	2020-11-19T14:31:40:226
-1,205782	-9,531688	1,965556	2020-11-19T14:31:40:244
-1,204144	-9,532659	1,961845	2020-11-19T14:31:40:266
-1,203757	-9,533196	1,959471	2020-11-19T14:31:40:284
-1,203345	-9,533103	1,960178	2020-11-19T14:31:40:307
-1,204164	-9,533038	1,959988	2020-11-19T14:31:40:325
-1,203330	-9,533728	1,957145	2020-11-19T14:31:40:346
-1,204809	-9,533673	1,956502	2020-11-19T14:31:40:365
-1,203757	-9,534108	1,955028	2020-11-19T14:31:40:389
-1,205675	-9,534056	1,954100	2020-11-19T14:31:40:405
-1,204145	-9,534376	1,953482	2020-11-19T14:31:40:426
-1,203572	-9,533873	1,956291	2020-11-19T14:31:40:445
-1,201027	-9,534431	1,955130	2020-11-19T14:31:40:466
-1,203702	-9,533822	1,956456	2020-11-19T14:31:40:484
-1,205313	-9,533430	1,957375	2020-11-19T14:31:40:509
-1,204897	-9,533199	1,958756	2020-11-19T14:31:40:524
-1,205940	-9,532750	1,960296	2020-11-19T14:31:40:547
-1,204339	-9,533070	1,959730	2020-11-19T14:31:40:565
-1,205579	-9,532775	1,960401	2020-11-19T14:31:40:586
-1,205544	-9,533001	1,959322	2020-11-19T14:31:40:605
-1,207958	-9,532604	1,959767	2020-11-19T14:31:40:627
-1,208967	-9,532540	1,959453	2020-11-19T14:31:40:644
-1,211328	-9,532356	1,958891	2020-11-19T14:31:40:667
-1,209630	-9,532241	1,960500	2020-11-19T14:31:40:685
-1,210489	-9,532603	1,958207	2020-11-19T14:31:40:707
-1,210237	-9,532754	1,957627	2020-11-19T14:31:40:725
-1,207007	-9,533437	1,956297	2020-11-19T14:31:40:747
-1,209363	-9,533297	1,955528	2020-11-19T14:31:40:765
-1,211478	-9,533010	1,955616	2020-11-19T14:31:40:786
-1,210577	-9,533521	1,953681	2020-11-19T14:31:40:805
-1,208874	-9,532982	1,957361	2020-11-19T14:31:40:827
-1,208275	-9,532940	1,957934	2020-11-19T14:31:40:845
-1,206424	-9,532803	1,959746	2020-11-19T14:31:40:867
-1,205964	-9,532894	1,959583	2020-11-19T14:31:40:885
-1,208693	-9,533073	1,957026	2020-11-19T14:31:40:907
-1,206719	-9,532969	1,958754	2020-11-19T14:31:40:926
-1,208329	-9,532657	1,959280	2020-11-19T14:31:40:947
-1,209679	-9,532458	1,959414	2020-11-19T14:31:40:965
-1,210182	-9,532131	1,960694	2020-11-19T14:31:40:987
-1,208600	-9,532434	1,960199	2020-11-19T14:31:41:005
-1,211457	-9,531861	1,961216	2020-11-19T14:31:41:026
-1,214025	-9,531540	1,961194	2020-11-19T14:31:41:045
-1,213578	-9,531528	1,961523	2020-11-19T14:31:41:067
-1,216006	-9,531074	1,962229	2020-11-19T14:31:41:085
-1,216118	-9,531127	1,961903	2020-11-19T14:31:41:108
-1,215594	-9,531394	1,960930	2020-11-19T14:31:41:125
-1,214979	-9,531150	1,962499	2020-11-19T14:31:41:147
-1,215597	-9,530866	1,963493	2020-11-19T14:31:41:166
-1,215926	-9,530748	1,963861	2020-11-19T14:31:41:187
-1,214207	-9,531260	1,962439	2020-11-19T14:31:41:206
-1,212108	-9,531248	1,963794	2020-11-19T14:31:41:227
-1,210814	-9,531020	1,965698	2020-11-19T14:31:41:246
-1,208445	-9,531275	1,965919	2020-11-19T14:31:41:267
-1,207182	-9,531600	1,965121	2020-11-19T14:31:41:285
-1,206493	-9,531928	1,963954	2020-11-19T14:31:41:307
-1,210846	-9,531129	1,965153	2020-11-19T14:31:41:325
-1,211320	-9,531442	1,963342	2020-11-19T14:31:41:348
-1,212814	-9,531783	1,960757	2020-11-19T14:31:41:365
-1,211671	-9,531999	1,960417	2020-11-19T14:31:41:387
-1,209617	-9,532272	1,960357	2020-11-19T14:31:41:407
-1,211439	-9,531669	1,962163	2020-11-19T14:31:41:427
-1,211175	-9,531441	1,963435	2020-11-19T14:31:41:445
-1,211119	-9,531520	1,963087	2020-11-19T14:31:41:468
-1,207482	-9,532351	1,961291	2020-11-19T14:31:41:486
-1,210573	-9,531368	1,964157	2020-11-19T14:31:41:508
-1,208348	-9,531617	1,964320	2020-11-19T14:31:41:526
-1,207000	-9,531316	1,966611	2020-11-19T14:31:41:547
-1,206560	-9,531877	1,964160	2020-11-19T14:31:41:565
-1,204760	-9,532873	1,960426	2020-11-19T14:31:41:588
-1,204572	-9,533614	1,956936	2020-11-19T14:31:41:607
-1,206450	-9,533595	1,955870	2020-11-19T14:31:41:627
-1,207591	-9,532882	1,958641	2020-11-19T14:31:41:647
-1,208632	-9,531698	1,963752	2020-11-19T14:31:41:667
-1,211574	-9,531390	1,963433	2020-11-19T14:31:41:685
-1,211808	-9,531116	1,964617	2020-11-19T14:31:41:708
-1,211526	-9,530852	1,966075	2020-11-19T14:31:41:726
-1,211470	-9,530698	1,966858	2020-11-19T14:31:41:747
-1,210516	-9,530673	1,967564	2020-11-19T14:31:41:766
-1,209659	-9,530647	1,968214	2020-11-19T14:31:41:788
-1,208075	-9,530341	1,970669	2020-11-19T14:31:41:806
-1,209618	-9,529965	1,971541	2020-11-19T14:31:41:828
-1,212017	-9,529932	1,970229	2020-11-19T14:31:41:846
-1,213124	-9,529996	1,969236	2020-11-19T14:31:41:868
-1,212773	-9,530005	1,969412	2020-11-19T14:31:41:888
-1,213755	-9,529836	1,969624	2020-11-19T14:31:41:908
-1,212999	-9,529939	1,969592	2020-11-19T14:31:41:926
-1,213057	-9,529778	1,970332	2020-11-19T14:31:41:948
-1,210786	-9,530501	1,968231	2020-11-19T14:31:41:966
-1,211333	-9,530793	1,966477	2020-11-19T14:31:41:988
-1,211999	-9,530549	1,967250	2020-11-19T14:31:42:007
-1,213309	-9,530840	1,965033	2020-11-19T14:31:42:028
-1,212505	-9,531070	1,964415	2020-11-19T14:31:42:046
-1,212804	-9,530754	1,965763	2020-11-19T14:31:42:068
-1,215867	-9,529742	1,968773	2020-11-19T14:31:42:086
-1,212365	-9,530635	1,966612	2020-11-19T14:31:42:109
-1,211500	-9,530209	1,969206	2020-11-19T14:31:42:128
-1,212556	-9,530163	1,968779	2020-11-19T14:31:42:148
-1,210207	-9,531266	1,964878	2020-11-19T14:31:42:167
-1,207776	-9,531968	1,962970	2020-11-19T14:31:42:188
-1,204493	-9,532275	1,963495	2020-11-19T14:31:42:206
-1,206547	-9,531961	1,963758	2020-11-19T14:31:42:228
-1,207555	-9,531453	1,965601	2020-11-19T14:31:42:246
-1,208758	-9,531143	1,966365	2020-11-19T14:31:42:268
-1,208245	-9,531329	1,965782	2020-11-19T14:31:42:287
-1,210843	-9,530389	1,968737	2020-11-19T14:31:42:309
-1,209540	-9,530519	1,968906	2020-11-19T14:31:42:327
-1,210647	-9,530804	1,966851	2020-11-19T14:31:42:349
-1,213017	-9,530934	1,964755	2020-11-19T14:31:42:368
-1,211726	-9,530690	1,966734	2020-11-19T14:31:42:388
-1,211696	-9,530769	1,966369	2020-11-19T14:31:42:407
-1,209941	-9,530079	1,970792	2020-11-19T14:31:42:428
-1,212747	-9,528936	1,974591	2020-11-19T14:31:42:446
-1,212919	-9,529343	1,972520	2020-11-19T14:31:42:468
-1,212335	-9,530141	1,969022	2020-11-19T14:31:42:487
-1,214276	-9,530890	1,964195	2020-11-19T14:31:42:509
-1,215763	-9,530772	1,963844	2020-11-19T14:31:42:527
-1,215192	-9,531182	1,962209	2020-11-19T14:31:42:549
-1,214246	-9,531260	1,962412	2020-11-19T14:31:42:567
-1,215452	-9,530919	1,963325	2020-11-19T14:31:42:589
-1,214673	-9,530128	1,967639	2020-11-19T14:31:42:608
-1,215045	-9,529766	1,969166	2020-11-19T14:31:42:629
-1,214260	-9,529778	1,969594	2020-11-19T14:31:42:647
-1,212543	-9,530285	1,968194	2020-11-19T14:31:42:669
-1,211917	-9,530313	1,968442	2020-11-19T14:31:42:687
-1,213415	-9,529922	1,969417	2020-11-19T14:31:42:709
-1,210980	-9,530183	1,969651	2020-11-19T14:31:42:727
-1,210085	-9,530708	1,967659	2020-11-19T14:31:42:749
-1,207532	-9,531031	1,967667	2020-11-19T14:31:42:767
-1,208039	-9,531267	1,966207	2020-11-19T14:31:42:789
-1,206236	-9,531287	1,967219	2020-11-19T14:31:42:807
-1,206952	-9,531370	1,966376	2020-11-19T14:31:42:829
-1,211434	-9,531146	1,964707	2020-11-19T14:31:42:848
-1,210272	-9,531935	1,961595	2020-11-19T14:31:42:870
-1,208472	-9,532263	1,961107	2020-11-19T14:31:42:887
-1,209966	-9,531489	1,963945	2020-11-19T14:31:42:909
-1,208585	-9,531418	1,965139	2020-11-19T14:31:42:927
-1,211382	-9,530921	1,965831	2020-11-19T14:31:42:949
-1,213387	-9,530904	1,964677	2020-11-19T14:31:42:967
-1,213980	-9,531169	1,963024	2020-11-19T14:31:42:989
-1,214159	-9,531097	1,963259	2020-11-19T14:31:43:007
-1,214979	-9,530683	1,964766	2020-11-19T14:31:43:029
-1,215990	-9,530377	1,965618	2020-11-19T14:31:43:047
-1,216989	-9,530436	1,964718	2020-11-19T14:31:43:069
-1,217857	-9,530162	1,965507	2020-11-19T14:31:43:088
-1,216282	-9,530474	1,964972	2020-11-19T14:31:43:109
-1,214721	-9,530711	1,964785	2020-11-19T14:31:43:127
-1,215495	-9,530457	1,965540	2020-11-19T14:31:43:149
-1,216697	-9,530483	1,964670	2020-11-19T14:31:43:167
-1,217757	-9,530445	1,964198	2020-11-19T14:31:43:189
-1,218372	-9,529934	1,966293	2020-11-19T14:31:43:208
-1,217663	-9,529557	1,968560	2020-11-19T14:31:43:229
-1,217706	-9,529751	1,967594	2020-11-19T14:31:43:247
-1,218333	-9,529962	1,966184	2020-11-19T14:31:43:269
-1,215905	-9,530241	1,966332	2020-11-19T14:31:43:287
-1,216477	-9,530116	1,966583	2020-11-19T14:31:43:309
-1,217623	-9,530009	1,966392	2020-11-19T14:31:43:328
-1,217425	-9,530659	1,963365	2020-11-19T14:31:43:349
-1,216408	-9,530932	1,962666	2020-11-19T14:31:43:368
-1,215189	-9,531247	1,961894	2020-11-19T14:31:43:390
-1,211076	-9,531809	1,961710	2020-11-19T14:31:43:408
-1,212164	-9,531757	1,961285	2020-11-19T14:31:43:429
-1,215773	-9,531114	1,962180	2020-11-19T14:31:43:448
-1,212709	-9,531667	1,961391	2020-11-19T14:31:43:469
-1,211758	-9,531603	1,962287	2020-11-19T14:31:43:487
-1,211391	-9,531757	1,961764	2020-11-19T14:31:43:511
-1,213772	-9,531686	1,960641	2020-11-19T14:31:43:528
-1,213271	-9,532034	1,959256	2020-11-19T14:31:43:549
-1,211786	-9,532528	1,957772	2020-11-19T14:31:43:569
-1,213142	-9,532241	1,958328	2020-11-19T14:31:43:590
-1,214405	-9,531815	1,959622	2020-11-19T14:31:43:609
-1,216486	-9,531802	1,958393	2020-11-19T14:31:43:630
-1,213606	-9,532255	1,957975	2020-11-19T14:31:43:648
-1,211424	-9,532211	1,959538	2020-11-19T14:31:43:669
-1,211909	-9,531983	1,960346	2020-11-19T14:31:43:688
-1,212741	-9,531662	1,961391	2020-11-19T14:31:43:710
-1,213005	-9,531635	1,961361	2020-11-19T14:31:43:729
-1,210492	-9,531518	1,963480	2020-11-19T14:31:43:750
-1,211992	-9,531487	1,962705	2020-11-19T14:31:43:768
-1,211265	-9,531993	1,960699	2020-11-19T14:31:43:789
-1,213389	-9,531895	1,959860	2020-11-19T14:31:43:809
-1,215162	-9,531912	1,958677	2020-11-19T14:31:43:829
-1,213726	-9,532323	1,957570	2020-11-19T14:31:43:848
-1,215544	-9,531541	1,960245	2020-11-19T14:31:43:871
-1,212496	-9,531784	1,960950	2020-11-19T14:31:43:888
-1,214369	-9,531128	1,962979	2020-11-19T14:31:43:910
-1,214534	-9,531159	1,962727	2020-11-19T14:31:43:929
-1,214721	-9,531400	1,961442	2020-11-19T14:31:43:950
-1,215436	-9,531181	1,962062	2020-11-19T14:31:43:968
-1,213752	-9,530890	1,964513	2020-11-19T14:31:43:990
-1,217141	-9,530230	1,965623	2020-11-19T14:31:44:008
-1,219490	-9,530064	1,964972	2020-11-19T14:31:44:030
-1,221017	-9,530101	1,963844	2020-11-19T14:31:44:049
-1,219959	-9,530215	1,963944	2020-11-19T14:31:44:070
-1,219662	-9,530072	1,964825	2020-11-19T14:31:44:088
-1,217572	-9,530391	1,964576	2020-11-19T14:31:44:110
-1,217777	-9,530640	1,963238	2020-11-19T14:31:44:128
-1,216649	-9,530852	1,962907	2020-11-19T14:31:44:150
-1,217815	-9,530538	1,963711	2020-11-19T14:31:44:169
-1,216567	-9,530297	1,965651	2020-11-19T14:31:44:190
-1,217292	-9,530429	1,964565	2020-11-19T14:31:44:210
-1,217596	-9,530107	1,965932	2020-11-19T14:31:44:230
-1,216546	-9,530291	1,965696	2020-11-19T14:31:44:248
-1,218911	-9,529826	1,966481	2020-11-19T14:31:44:270
-1,219156	-9,529584	1,967505	2020-11-19T14:31:44:289
-1,217380	-9,529510	1,968962	2020-11-19T14:31:44:310
-1,217361	-9,529159	1,970672	2020-11-19T14:31:44:328
-1,214602	-9,529544	1,970512	2020-11-19T14:31:44:350
-1,211600	-9,529995	1,970178	2020-11-19T14:31:44:368
-1,213516	-9,529635	1,970739	2020-11-19T14:31:44:390
-1,213987	-9,529408	1,971550	2020-11-19T14:31:44:409
-1,212616	-9,529880	1,970112	2020-11-19T14:31:44:430
-1,212499	-9,529698	1,971061	2020-11-19T14:31:44:448
-1,211272	-9,529296	1,973757	2020-11-19T14:31:44:471
-1,211701	-9,528723	1,976260	2020-11-19T14:31:44:489
-1,211221	-9,528187	1,979140	2020-11-19T14:31:44:511
-1,208433	-9,528597	1,978866	2020-11-19T14:31:44:530
-1,207171	-9,528664	1,979318	2020-11-19T14:31:44:550
-1,208165	-9,528620	1,978921	2020-11-19T14:31:44:568
-1,208283	-9,528248	1,980637	2020-11-19T14:31:44:590
-1,211690	-9,527736	1,981020	2020-11-19T14:31:44:609
-1,211731	-9,528222	1,978657	2020-11-19T14:31:44:630
-1,210476	-9,527901	1,980967	2020-11-19T14:31:44:649
-1,208531	-9,527871	1,982297	2020-11-19T14:31:44:670
-1,210759	-9,527551	1,982482	2020-11-19T14:31:44:689
-1,211736	-9,527682	1,981248	2020-11-19T14:31:44:711
-1,209713	-9,528522	1,978444	2020-11-19T14:31:44:728
-1,209490	-9,528909	1,976718	2020-11-19T14:31:44:750
-1,210123	-9,528659	1,977534	2020-11-19T14:31:44:770
-1,209813	-9,528524	1,978371	2020-11-19T14:31:44:790
-1,209634	-9,528671	1,977774	2020-11-19T14:31:44:809
-1,210855	-9,529215	1,974407	2020-11-19T14:31:44:831
-1,213891	-9,529290	1,972178	2020-11-19T14:31:44:849
-1,213640	-9,528785	1,974771	2020-11-19T14:31:44:871
-1,212740	-9,528854	1,974990	2020-11-19T14:31:44:889
-1,215338	-9,528481	1,975190	2020-11-19T14:31:44:911
-1,215552	-9,528395	1,975479	2020-11-19T14:31:44:929
-1,213007	-9,528867	1,974763	2020-11-19T14:31:44:951
-1,211956	-9,529435	1,972666	2020-11-19T14:31:44:969
-1,217001	-9,529870	1,967452	2020-11-19T14:31:44:990
-1,219539	-9,529846	1,965994	2020-11-19T14:31:45:011
-1,221068	-9,529526	1,966599	2020-11-19T14:31:45:030
-1,221665	-9,528857	1,969467	2020-11-19T14:31:45:049
-1,223020	-9,528442	1,970631	2020-11-19T14:31:45:071
-1,222366	-9,528716	1,969717	2020-11-19T14:31:45:089
-1,222934	-9,528531	1,970259	2020-11-19T14:31:45:111
-1,222840	-9,528618	1,969896	2020-11-19T14:31:45:129
-1,218924	-9,529680	1,967179	2020-11-19T14:31:45:151
-1,218158	-9,529726	1,967435	2020-11-19T14:31:45:169
-1,217799	-9,529695	1,967807	2020-11-19T14:31:45:191
-1,216746	-9,529213	1,970789	2020-11-19T14:31:45:209
-1,216704	-9,529544	1,969214	2020-11-19T14:31:45:231
-1,217079	-9,529430	1,969532	2020-11-19T14:31:45:250
-1,217799	-9,528781	1,972229	2020-11-19T14:31:45:271
-1,218373	-9,528992	1,970856	2020-11-19T14:31:45:289
-1,217806	-9,528985	1,971237	2020-11-19T14:31:45:312
-1,215425	-9,529140	1,971959	2020-11-19T14:31:45:329
-1,214273	-9,529305	1,971874	2020-11-19T14:31:45:351
-1,213913	-9,529426	1,971509	2020-11-19T14:31:45:369
-1,214888	-9,529421	1,970931	2020-11-19T14:31:45:391
-1,217980	-9,528537	1,973295	2020-11-19T14:31:45:410
-1,221118	-9,528236	1,972808	2020-11-19T14:31:45:432
-1,224239	-9,528022	1,971910	2020-11-19T14:31:45:450
-1,225185	-9,528089	1,970997	2020-11-19T14:31:45:471
-1,225772	-9,528262	1,969795	2020-11-19T14:31:45:490
-1,224409	-9,528407	1,969940	2020-11-19T14:31:45:511
-1,221798	-9,528798	1,969669	2020-11-19T14:31:45:529
-1,219288	-9,528825	1,971094	2020-11-19T14:31:45:551
-1,217650	-9,529343	1,969606	2020-11-19T14:31:45:569
-1,214252	-9,529804	1,969467	2020-11-19T14:31:45:591
-1,212857	-9,530044	1,969172	2020-11-19T14:31:45:611
-1,212330	-9,530046	1,969483	2020-11-19T14:31:45:631
-1,214271	-9,529560	1,970637	2020-11-19T14:31:45:649
-1,213988	-9,529634	1,970460	2020-11-19T14:31:45:672
-1,211328	-9,528964	1,975324	2020-11-19T14:31:45:689
-1,212271	-9,529000	1,974571	2020-11-19T14:31:45:712
-1,212189	-9,529461	1,972398	2020-11-19T14:31:45:732
-1,216304	-9,529451	1,969910	2020-11-19T14:31:45:752
-1,217683	-9,529115	1,970688	2020-11-19T14:31:45:770
-1,216113	-9,529273	1,970890	2020-11-19T14:31:45:792
-1,217191	-9,529052	1,971293	2020-11-19T14:31:45:811
-1,216393	-9,528998	1,972045	2020-11-19T14:31:45:832
-1,215994	-9,529424	1,970233	2020-11-19T14:31:45:850
-1,217092	-9,529493	1,969219	2020-11-19T14:31:45:872
-1,216621	-9,529969	1,967205	2020-11-19T14:31:45:890
-1,218547	-9,530191	1,964937	2020-11-19T14:31:45:912
-1,217605	-9,530194	1,965506	2020-11-19T14:31:45:930
-1,219545	-9,529910	1,965684	2020-11-19T14:31:45:952
-1,219447	-9,529793	1,966311	2020-11-19T14:31:45:971
-1,217939	-9,529922	1,966617	2020-11-19T14:31:45:998
-1,214884	-9,530291	1,966723	2020-11-19T14:31:46:012
-1,214526	-9,530065	1,968041	2020-11-19T14:31:46:032
-1,213799	-9,530089	1,968368	2020-11-19T14:31:46:050
-1,214618	-9,530615	1,965318	2020-11-19T14:31:46:071
-1,217505	-9,530709	1,963072	2020-11-19T14:31:46:090
-1,216411	-9,530782	1,963397	2020-11-19T14:31:46:112
-1,217082	-9,531121	1,961330	2020-11-19T14:31:46:130
-1,216351	-9,531850	1,958243	2020-11-19T14:31:46:152
-1,215022	-9,532172	1,957498	2020-11-19T14:31:46:170
-1,215951	-9,531912	1,958189	2020-11-19T14:31:46:192
-1,217469	-9,531688	1,958337	2020-11-19T14:31:46:212
-1,219785	-9,530878	1,960832	2020-11-19T14:31:46:232
-1,220850	-9,531006	1,959551	2020-11-19T14:31:46:251
-1,219932	-9,531248	1,958943	2020-11-19T14:31:46:272
-1,217172	-9,531072	1,961519	2020-11-19T14:31:46:290
-1,217524	-9,530291	1,965091	2020-11-19T14:31:46:312
-1,216236	-9,530639	1,964199	2020-11-19T14:31:46:330
-1,217750	-9,530561	1,963636	2020-11-19T14:31:46:352
-1,216713	-9,531446	1,959978	2020-11-19T14:31:46:370
-1,216823	-9,531161	1,961297	2020-11-19T14:31:46:392
-1,213557	-9,531404	1,962139	2020-11-19T14:31:46:410
-1,212658	-9,530919	1,965052	2020-11-19T14:31:46:432
-1,211917	-9,530241	1,968793	2020-11-19T14:31:46:451
-1,215882	-9,530018	1,967430	2020-11-19T14:31:46:472
-1,215656	-9,530228	1,966550	2020-11-19T14:31:46:491
-1,216377	-9,530498	1,964799	2020-11-19T14:31:46:513
-1,217577	-9,530172	1,965631	2020-11-19T14:31:46:531
-1,219136	-9,529818	1,966386	2020-11-19T14:31:46:552
-1,219843	-9,529609	1,966957	2020-11-19T14:31:46:571
-1,220264	-9,529756	1,965987	2020-11-19T14:31:46:592
-1,221492	-9,529339	1,967243	2020-11-19T14:31:46:610
-1,221606	-9,529516	1,966312	2020-11-19T14:31:46:632
-1,221546	-9,529227	1,967748	2020-11-19T14:31:46:650
-1,222121	-9,529037	1,968309	2020-11-19T14:31:46:672
-1,220977	-9,529320	1,967653	2020-11-19T14:31:46:691
-1,222536	-9,528948	1,968487	2020-11-19T14:31:46:712
-1,220935	-9,529561	1,966510	2020-11-19T14:31:46:731
-1,220971	-9,529731	1,965666	2020-11-19T14:31:46:752
-1,224396	-9,529300	1,965624	2020-11-19T14:31:46:770
-1,222899	-9,529101	1,967520	2020-11-19T14:31:46:792
-1,221672	-9,529892	1,964448	2020-11-19T14:31:46:812
-1,221725	-9,529550	1,966077	2020-11-19T14:31:46:832
-1,220772	-9,529504	1,966890	2020-11-19T14:31:46:851
-1,214666	-9,529214	1,972069	2020-11-19T14:31:46:873
-1,217732	-9,528947	1,971467	2020-11-19T14:31:46:891
-1,203393	-9,532277	1,964158	2020-11-19T14:31:46:913
-1,199455	-9,535690	1,949947	2020-11-19T14:31:46:932
-1,189192	-9,539778	1,936192	2020-11-19T14:31:46:953
-1,183420	-9,542131	1,928117	2020-11-19T14:31:46:971
-1,181155	-9,555716	1,861061	2020-11-19T14:31:46:994
-1,178601	-9,559015	1,845672	2020-11-19T14:31:47:012
-1,148201	-9,565353	1,831949	2020-11-19T14:31:47:032
-1,129059	-9,568384	1,828013	2020-11-19T14:31:47:052
-1,114463	-9,567228	1,842957	2020-11-19T14:31:47:073
-1,089884	-9,567404	1,856694	2020-11-19T14:31:47:092
-1,066516	-9,566737	1,873624	2020-11-19T14:31:47:115
-1,051914	-9,564496	1,893218	2020-11-19T14:31:47:132
-1,031462	-9,561946	1,917201	2020-11-19T14:31:47:153
-1,009106	-9,558181	1,947632	2020-11-19T14:31:47:173
-0,986868	-9,553396	1,982196	2020-11-19T14:31:47:193
-0,968482	-9,545581	2,028378	2020-11-19T14:31:47:211
-0,940979	-9,539780	2,068224	2020-11-19T14:31:47:233
-0,912135	-9,533978	2,107521	2020-11-19T14:31:47:252
-0,892393	-9,527309	2,145787	2020-11-19T14:31:47:273
-0,864750	-9,523095	2,175602	2020-11-19T14:31:47:293
-0,843744	-9,520114	2,196795	2020-11-19T14:31:47:314
-0,810435	-9,519391	2,212414	2020-11-19T14:31:47:332
-0,768668	-9,524187	2,206672	2020-11-19T14:31:47:354
-0,741870	-9,527848	2,200030	2020-11-19T14:31:47:371
-0,706142	-9,528312	2,209757	2020-11-19T14:31:47:394
-0,662000	-9,532619	2,204841	2020-11-19T14:31:47:413
-0,626231	-9,540029	2,183133	2020-11-19T14:31:47:433
-0,599210	-9,543555	2,175289	2020-11-19T14:31:47:452
-0,582460	-9,535550	2,214592	2020-11-19T14:31:47:473
-0,564855	-9,522060	2,276334	2020-11-19T14:31:47:491
-0,545027	-9,506589	2,344800	2020-11-19T14:31:47:514
-0,542378	-9,501275	2,366852	2020-11-19T14:31:47:532
-0,562349	-9,475718	2,462703	2020-11-19T14:31:47:554
-0,589397	-9,417324	2,671516	2020-11-19T14:31:47:572
-0,624428	-9,332134	2,948176	2020-11-19T14:31:47:594
-0,632539	-9,234468	3,239579	2020-11-19T14:31:47:612
-0,654244	-9,099179	3,598234	2020-11-19T14:31:47:634
-0,695902	-8,929236	3,994352	2020-11-19T14:31:47:653
-0,734544	-8,728961	4,408636	2020-11-19T14:31:47:674
-0,749767	-8,535444	4,770160	2020-11-19T14:31:47:692
-0,748770	-8,346378	5,093889	2020-11-19T14:31:47:715
-0,714809	-8,133134	5,432456	2020-11-19T14:31:47:732
-0,687043	-7,870305	5,810048	2020-11-19T14:31:47:754
-0,677737	-7,623268	6,131626	2020-11-19T14:31:47:772
-0,665390	-7,386940	6,415665	2020-11-19T14:31:47:794
-0,631665	-7,112313	6,722082	2020-11-19T14:31:47:813
-0,590992	-6,798050	7,043268	2020-11-19T14:31:47:835
-0,544390	-6,382620	7,425375	2020-11-19T14:31:47:852
-0,500302	-5,831956	7,868187	2020-11-19T14:31:47:874
-0,464622	-5,281481	8,249877	2020-11-19T14:31:47:893
-0,406326	-4,656434	8,621074	2020-11-19T14:31:47:914
-0,342506	-4,101716	8,901067	2020-11-19T14:31:47:932
-0,396142	-3,991161	8,948972	2020-11-19T14:31:47:954
-0,386155	-3,848614	9,011628	2020-11-19T14:31:47:972
-0,436712	-3,832463	9,016202	2020-11-19T14:31:47:994
-0,464974	-3,850683	9,007021	2020-11-19T14:31:48:013
-0,493882	-3,883597	8,991337	2020-11-19T14:31:48:035
-0,532739	-3,952506	8,959033	2020-11-19T14:31:48:052
-0,586854	-4,053478	8,910404	2020-11-19T14:31:48:077
-0,631617	-4,093365	8,889084	2020-11-19T14:31:48:097
-0,690987	-4,122007	8,871413	2020-11-19T14:31:48:116
-0,749688	-4,072005	8,889720	2020-11-19T14:31:48:135
-0,810836	-3,982607	8,924784	2020-11-19T14:31:48:155
-0,860622	-3,914934	8,950028	2020-11-19T14:31:48:173
-0,901813	-3,878065	8,962016	2020-11-19T14:31:48:196
-0,941134	-3,834470	8,976719	2020-11-19T14:31:48:214
-0,970355	-3,813866	8,982384	2020-11-19T14:31:48:235
-1,000003	-3,796693	8,986406	2020-11-19T14:31:48:254
-1,027605	-3,763925	8,997070	2020-11-19T14:31:48:276
-1,065275	-3,667464	9,032457	2020-11-19T14:31:48:293
-1,094210	-3,570854	9,067639	2020-11-19T14:31:48:316
-1,113972	-3,503297	9,091555	2020-11-19T14:31:48:334
-1,122985	-3,464220	9,105409	2020-11-19T14:31:48:356
-1,131450	-3,432194	9,116482	2020-11-19T14:31:48:375
-1,137684	-3,408891	9,124446	2020-11-19T14:31:48:395
-1,146531	-3,387542	9,131288	2020-11-19T14:31:48:414
-1,159141	-3,365099	9,137991	2020-11-19T14:31:48:436
-1,173301	-3,341887	9,144700	2020-11-19T14:31:48:453
-1,182318	-3,322561	9,150579	2020-11-19T14:31:48:475
-1,194487	-3,332313	9,145452	2020-11-19T14:31:48:494
-1,204799	-3,321508	9,148028	2020-11-19T14:31:48:516
-1,222820	-3,307362	9,150763	2020-11-19T14:31:48:533
-1,233619	-3,297045	9,153036	2020-11-19T14:31:48:556
-1,249402	-3,284613	9,155364	2020-11-19T14:31:48:574
-1,260160	-3,261616	9,162109	2020-11-19T14:31:48:596
-1,271138	-3,228458	9,172331	2020-11-19T14:31:48:616
-1,274780	-3,199712	9,181893	2020-11-19T14:31:48:636
-1,282467	-3,185570	9,185740	2020-11-19T14:31:48:654
-1,283561	-3,162712	9,193481	2020-11-19T14:31:48:676
-1,287025	-3,133678	9,202935	2020-11-19T14:31:48:694
-1,283407	-3,109436	9,211659	2020-11-19T14:31:48:716
-1,291035	-3,107608	9,211209	2020-11-19T14:31:48:734
-1,291494	-3,099779	9,213783	2020-11-19T14:31:48:756
-1,294763	-3,110771	9,209619	2020-11-19T14:31:48:774
-1,303139	-3,108757	9,209118	2020-11-19T14:31:48:796
-1,306166	-3,103223	9,210555	2020-11-19T14:31:48:814
-1,312585	-3,093900	9,212778	2020-11-19T14:31:48:836
-1,318942	-3,084843	9,214908	2020-11-19T14:31:48:855
-1,325966	-3,075773	9,216931	2020-11-19T14:31:48:876
-1,326492	-3,069765	9,218859	2020-11-19T14:31:48:894
-1,328087	-3,062413	9,221074	2020-11-19T14:31:48:917
-1,311000	-3,054239	9,226229	2020-11-19T14:31:48:935
-1,291536	-3,045199	9,231959	2020-11-19T14:31:48:956
-1,303871	-3,042696	9,231051	2020-11-19T14:31:48:974
-1,325467	-3,051989	9,224905	2020-11-19T14:31:48:996
-1,324202	-3,053828	9,224479	2020-11-19T14:31:49:014
-1,330947	-3,065410	9,219666	2020-11-19T14:31:49:037
-1,333273	-3,071386	9,217340	2020-11-19T14:31:49:054
-1,336302	-3,073795	9,216098	2020-11-19T14:31:49:076
-1,341927	-3,079349	9,213427	2020-11-19T14:31:49:095
-1,343110	-3,073074	9,215349	2020-11-19T14:31:49:117
-1,339747	-3,065528	9,218351	2020-11-19T14:31:49:134
-1,332435	-3,063195	9,220186	2020-11-19T14:31:49:156
-1,332783	-3,057476	9,222034	2020-11-19T14:31:49:174
-1,334832	-3,056231	9,222151	2020-11-19T14:31:49:196
-1,335067	-3,063032	9,219860	2020-11-19T14:31:49:215
-1,339767	-3,069219	9,217120	2020-11-19T14:31:49:236
-1,346979	-3,070308	9,215706	2020-11-19T14:31:49:255
-1,347494	-3,072334	9,214955	2020-11-19T14:31:49:277
-1,348048	-3,071750	9,215069	2020-11-19T14:31:49:294
-1,342317	-3,060514	9,219644	2020-11-19T14:31:49:317
-1,333261	-3,044598	9,226225	2020-11-19T14:31:49:335
-1,326638	-3,038350	9,229239	2020-11-19T14:31:49:356
-1,323376	-3,041559	9,228650	2020-11-19T14:31:49:375
-1,319215	-3,040000	9,229759	2020-11-19T14:31:49:397
-1,323439	-3,035484	9,230640	2020-11-19T14:31:49:415
-1,326012	-3,028200	9,232664	2020-11-19T14:31:49:436
-1,327777	-3,025222	9,233386	2020-11-19T14:31:49:454
-1,329231	-3,024645	9,233366	2020-11-19T14:31:49:476
-1,332464	-3,018546	9,234897	2020-11-19T14:31:49:494
-1,342006	-3,006488	9,237448	2020-11-19T14:31:49:518
-1,342388	-2,995205	9,241056	2020-11-19T14:31:49:535
-1,348855	-2,999963	9,238571	2020-11-19T14:31:49:557
-1,348338	-2,999461	9,238810	2020-11-19T14:31:49:576
-1,348579	-3,006806	9,236386	2020-11-19T14:31:49:597
-1,352927	-3,020661	9,231229	2020-11-19T14:31:49:615
-1,351715	-3,034243	9,226951	2020-11-19T14:31:49:637
-1,347227	-3,054178	9,221028	2020-11-19T14:31:49:655
-1,343420	-3,062808	9,218720	2020-11-19T14:31:49:678
-1,336758	-3,060690	9,220392	2020-11-19T14:31:49:695
-1,334182	-3,037383	9,228470	2020-11-19T14:31:49:717
-1,328603	-3,031820	9,231103	2020-11-19T14:31:49:735
-1,326301	-3,027094	9,232985	2020-11-19T14:31:49:757
-1,325963	-3,033341	9,230983	2020-11-19T14:31:49:775
-1,328300	-3,043455	9,227318	2020-11-19T14:31:49:797
-1,332692	-3,053421	9,223391	2020-11-19T14:31:49:816
-1,333894	-3,062230	9,220296	2020-11-19T14:31:49:837
-1,339451	-3,066191	9,218174	2020-11-19T14:31:49:855
-1,344441	-3,070397	9,216047	2020-11-19T14:31:49:878
-1,349942	-3,069867	9,215420	2020-11-19T14:31:49:895
-1,353950	-3,061992	9,217451	2020-11-19T14:31:49:917
-1,355776	-3,053849	9,219884	2020-11-19T14:31:49:935
-1,356435	-3,047587	9,221859	2020-11-19T14:31:49:957
-1,356761	-3,052822	9,220079	2020-11-19T14:31:49:975
-1,354001	-3,060572	9,217916	2020-11-19T14:31:49:998
-1,355160	-3,061439	9,217457	2020-11-19T14:31:50:016
-1,356032	-3,050327	9,221012	2020-11-19T14:31:50:037
-1,353915	-3,037109	9,225685	2020-11-19T14:31:50:055
-1,352123	-3,030338	9,228174	2020-11-19T14:31:50:077
-1,353047	-3,022967	9,230456	2020-11-19T14:31:50:095
-1,351248	-3,004496	9,236748	2020-11-19T14:31:50:118
-1,349029	-2,990620	9,241574	2020-11-19T14:31:50:135
-1,350367	-2,989233	9,241828	2020-11-19T14:31:50:157
-1,352093	-2,988592	9,241782	2020-11-19T14:31:50:175
-1,350155	-2,998475	9,238865	2020-11-19T14:31:50:197
-1,353370	-2,998170	9,238493	2020-11-19T14:31:50:215
-1,356746	-2,989643	9,240761	2020-11-19T14:31:50:238
-1,357583	-2,986281	9,241725	2020-11-19T14:31:50:256
-1,359800	-2,977328	9,244287	2020-11-19T14:31:50:277
-1,362017	-2,975088	9,244682	2020-11-19T14:31:50:296
-1,361283	-2,976563	9,244315	2020-11-19T14:31:50:317
-1,360259	-2,984852	9,241793	2020-11-19T14:31:50:335
-1,360396	-2,993498	9,238976	2020-11-19T14:31:50:357
-1,357970	-2,995534	9,238673	2020-11-19T14:31:50:376
-1,361359	-2,991297	9,239547	2020-11-19T14:31:50:401
-1,368730	-2,980587	9,241919	2020-11-19T14:31:50:416
-1,369999	-2,968448	9,245637	2020-11-19T14:31:50:437
-1,367412	-2,958637	9,249164	2020-11-19T14:31:50:455
-1,366132	-2,953163	9,251102	2020-11-19T14:31:50:478
-1,362661	-2,950750	9,252384	2020-11-19T14:31:50:495
-1,358638	-2,955188	9,251559	2020-11-19T14:31:50:518
-1,359776	-2,968493	9,247131	2020-11-19T14:31:50:537
-1,364786	-2,980168	9,242637	2020-11-19T14:31:50:562
-1,367605	-2,987921	9,239717	2020-11-19T14:31:50:576
-1,372703	-2,990859	9,238010	2020-11-19T14:31:50:598
-1,379443	-2,996452	9,235193	2020-11-19T14:31:50:617
-1,395925	-3,000748	9,231321	2020-11-19T14:31:50:637
-1,402184	-3,001237	9,230213	2020-11-19T14:31:50:656
-1,412150	-2,996202	9,230330	2020-11-19T14:31:50:677
-1,417642	-2,992643	9,230642	2020-11-19T14:31:50:696
-1,421483	-2,989653	9,231021	2020-11-19T14:31:50:718
-1,423808	-2,990083	9,230523	2020-11-19T14:31:50:736
-1,423866	-2,988482	9,231032	2020-11-19T14:31:50:758
-1,423090	-2,992158	9,229961	2020-11-19T14:31:50:777
-1,417806	-2,992562	9,230643	2020-11-19T14:31:50:798
-1,414022	-2,990291	9,231960	2020-11-19T14:31:50:816
-1,408159	-2,989000	9,233274	2020-11-19T14:31:50:838
-1,401445	-2,988974	9,234303	2020-11-19T14:31:50:855
-1,398237	-2,992867	9,233529	2020-11-19T14:31:50:879
-1,396732	-3,001992	9,230794	2020-11-19T14:31:50:896
-1,396820	-3,013784	9,226938	2020-11-19T14:31:50:918
-1,396732	-3,028409	9,222161	2020-11-19T14:31:50:936
-1,397598	-3,028890	9,221872	2020-11-19T14:31:50:959
-1,397607	-3,028602	9,221966	2020-11-19T14:31:50:977
-1,399404	-3,028626	9,221685	2020-11-19T14:31:50:998
-1,400927	-3,031682	9,220449	2020-11-19T14:31:51:017
-1,404304	-3,036596	9,218319	2020-11-19T14:31:51:039
-1,406594	-3,043013	9,215853	2020-11-19T14:31:51:057
-1,412256	-3,049799	9,212744	2020-11-19T14:31:51:078
-1,417746	-3,052374	9,211047	2020-11-19T14:31:51:096
-1,420319	-3,052086	9,210747	2020-11-19T14:31:51:120
-1,423462	-3,052960	9,209971	2020-11-19T14:31:51:136
-1,423357	-3,049951	9,210984	2020-11-19T14:31:51:158
-1,424066	-3,049912	9,210888	2020-11-19T14:31:51:176
-1,420904	-3,047473	9,212183	2020-11-19T14:31:51:200
-1,415891	-3,049471	9,212294	2020-11-19T14:31:51:216
-1,412497	-3,052077	9,211952	2020-11-19T14:31:51:238
-1,408520	-3,049784	9,213321	2020-11-19T14:31:51:257
-1,404886	-3,049601	9,213936	2020-11-19T14:31:51:279
-1,396062	-3,050744	9,214899	2020-11-19T14:31:51:296
-1,387199	-3,046448	9,217658	2020-11-19T14:31:51:319
-1,392654	-3,057964	9,213021	2020-11-19T14:31:51:336
-1,400641	-3,073020	9,206799	2020-11-19T14:31:51:359
-1,411559	-3,077580	9,203608	2020-11-19T14:31:51:376
-1,421814	-3,072094	9,203861	2020-11-19T14:31:51:398
-1,432199	-3,064460	9,204797	2020-11-19T14:31:51:417
-1,441085	-3,058233	9,205481	2020-11-19T14:31:51:440
-1,442514	-3,057304	9,205565	2020-11-19T14:31:51:456
-1,435592	-3,060450	9,205602	2020-11-19T14:31:51:478
-1,426358	-3,060617	9,206982	2020-11-19T14:31:51:497
-1,415479	-3,058572	9,209340	2020-11-19T14:31:51:520
-1,405583	-3,061389	9,209920	2020-11-19T14:31:51:536
-1,394229	-3,061629	9,211565	2020-11-19T14:31:51:560
-1,383891	-3,063467	9,212513	2020-11-19T14:31:51:576
-1,379580	-3,065289	9,212554	2020-11-19T14:31:51:600
-1,378995	-3,066266	9,212317	2020-11-19T14:31:51:617
-1,379586	-3,070851	9,210700	2020-11-19T14:31:51:639
-1,385975	-3,079519	9,206846	2020-11-19T14:31:51:657
-1,392960	-3,082283	9,204867	2020-11-19T14:31:51:680
-1,397388	-3,079185	9,205233	2020-11-19T14:31:51:697
-1,403853	-3,071596	9,206784	2020-11-19T14:31:51:719
-1,407199	-3,061754	9,209552	2020-11-19T14:31:51:738
-1,419204	-3,065333	9,206518	2020-11-19T14:31:51:760
-1,422751	-3,058272	9,208319	2020-11-19T14:31:51:779
-1,425147	-3,055159	9,208982	2020-11-19T14:31:51:799
-1,419666	-3,057362	9,209097	2020-11-19T14:31:51:817
-1,412505	-3,063349	9,208209	2020-11-19T14:31:51:840
-1,398009	-3,073691	9,206974	2020-11-19T14:31:51:857
-1,392266	-3,096621	9,200159	2020-11-19T14:31:51:879
-1,396729	-3,089953	9,201724	2020-11-19T14:31:51:897
-1,409329	-3,080166	9,203084	2020-11-19T14:31:51:921
-1,420216	-3,085185	9,199728	2020-11-19T14:31:51:937
-1,424724	-3,083338	9,199651	2020-11-19T14:31:51:959
-1,425062	-3,080984	9,200387	2020-11-19T14:31:51:978
-1,425051	-3,081339	9,200270	2020-11-19T14:31:52:000
-1,423736	-3,085016	9,199241	2020-11-19T14:31:52:017
-1,419513	-3,081943	9,200924	2020-11-19T14:31:52:039
-1,413780	-3,080996	9,202124	2020-11-19T14:31:52:057
-1,405457	-3,083504	9,202559	2020-11-19T14:31:52:080
-1,401344	-3,087223	9,201939	2020-11-19T14:31:52:097
-1,400225	-3,087734	9,201938	2020-11-19T14:31:52:119
-1,397337	-3,088313	9,202182	2020-11-19T14:31:52:138
-1,394922	-3,087040	9,202975	2020-11-19T14:31:52:161
-1,396198	-3,092144	9,201069	2020-11-19T14:31:52:178
-1,400620	-3,097263	9,198674	2020-11-19T14:31:52:199
-1,405982	-3,091348	9,199846	2020-11-19T14:31:52:218
-1,414959	-3,086610	9,200061	2020-11-19T14:31:52:240
-1,420168	-3,079662	9,201587	2020-11-19T14:31:52:257
-1,428397	-3,071805	9,202939	2020-11-19T14:31:52:279
-1,432119	-3,063894	9,204997	2020-11-19T14:31:52:297
-1,428783	-3,059623	9,206936	2020-11-19T14:31:52:321
-1,425205	-3,060234	9,207288	2020-11-19T14:31:52:338
-1,420891	-3,067601	9,205503	2020-11-19T14:31:52:359
-1,419721	-3,076585	9,202684	2020-11-19T14:31:52:377
-1,422152	-3,067845	9,205227	2020-11-19T14:31:52:401
-1,423648	-3,055551	9,209084	2020-11-19T14:31:52:418
-1,421313	-3,052197	9,210556	2020-11-19T14:31:52:439
-1,419703	-3,054843	9,209928	2020-11-19T14:31:52:458
-1,415197	-3,058345	9,209458	2020-11-19T14:31:52:480
-1,413871	-3,057518	9,209937	2020-11-19T14:31:52:498
-1,414067	-3,056667	9,210190	2020-11-19T14:31:52:520
-1,412683	-3,054088	9,211257	2020-11-19T14:31:52:537
-1,410276	-3,056189	9,210929	2020-11-19T14:31:52:561
-1,404397	-3,065842	9,208619	2020-11-19T14:31:52:577
-1,398259	-3,076157	9,206113	2020-11-19T14:31:52:600
-1,395513	-3,075607	9,206714	2020-11-19T14:31:52:618
-1,396093	-3,070364	9,208375	2020-11-19T14:31:52:642
-1,401197	-3,068322	9,208281	2020-11-19T14:31:52:658
-1,407113	-3,074510	9,205314	2020-11-19T14:31:52:680
-1,413295	-3,083728	9,201283	2020-11-19T14:31:52:699
-1,415154	-3,095798	9,196942	2020-11-19T14:31:52:721
-1,418676	-3,099273	9,195230	2020-11-19T14:31:52:738
-1,422461	-3,091928	9,197118	2020-11-19T14:31:52:760
-1,422406	-3,080455	9,200974	2020-11-19T14:31:52:777
-1,421833	-3,072297	9,203791	2020-11-19T14:31:52:800
-1,416932	-3,069360	9,205526	2020-11-19T14:31:52:818
-1,414506	-3,070828	9,205410	2020-11-19T14:31:52:840
-1,409699	-3,072759	9,205503	2020-11-19T14:31:52:858
-1,406298	-3,072446	9,206128	2020-11-19T14:31:52:881
-1,403402	-3,062710	9,209813	2020-11-19T14:31:52:898
-1,395484	-3,054060	9,213887	2020-11-19T14:31:52:920
-1,392566	-3,077886	9,206398	2020-11-19T14:31:52:939
-1,400710	-3,093986	9,199763	2020-11-19T14:31:52:961
-1,410087	-3,082230	9,202277	2020-11-19T14:31:52:979
-1,418876	-3,082651	9,200785	2020-11-19T14:31:53:000
-1,425196	-3,088368	9,197890	2020-11-19T14:31:53:018
-1,431013	-3,080287	9,199697	2020-11-19T14:31:53:041
-1,436740	-3,072318	9,201468	2020-11-19T14:31:53:057
-1,439136	-3,073731	9,200623	2020-11-19T14:31:53:080
-1,439362	-3,073159	9,200778	2020-11-19T14:31:53:098
-1,431910	-3,070818	9,202722	2020-11-19T14:31:53:121
-1,419336	-3,069469	9,205120	2020-11-19T14:31:53:138
-1,410847	-3,069686	9,206352	2020-11-19T14:31:53:161
-1,400304	-3,068825	9,208249	2020-11-19T14:31:53:180
-1,398572	-3,068189	9,208724	2020-11-19T14:31:53:201
-1,397233	-3,073521	9,207150	2020-11-19T14:31:53:219
-1,405331	-3,086799	9,201472	2020-11-19T14:31:53:240
-1,404391	-3,097963	9,197864	2020-11-19T14:31:53:258
-1,404823	-3,105583	9,195228	2020-11-19T14:31:53:282
-1,407101	-3,103982	9,195420	2020-11-19T14:31:53:298
-1,409781	-3,096436	9,197554	2020-11-19T14:31:53:321
-1,414310	-3,088508	9,199523	2020-11-19T14:31:53:338
-1,419591	-3,084655	9,200003	2020-11-19T14:31:53:362
-1,423371	-3,085935	9,198990	2020-11-19T14:31:53:379
-1,427235	-3,087177	9,197974	2020-11-19T14:31:53:401
-1,426488	-3,083612	9,199286	2020-11-19T14:31:53:419
-1,427116	-3,079258	9,200646	2020-11-19T14:31:53:442
-1,428475	-3,070043	9,203514	2020-11-19T14:31:53:459
-1,425104	-3,069119	9,204345	2020-11-19T14:31:53:481
-1,418321	-3,065738	9,206519	2020-11-19T14:31:53:498
-1,407919	-3,078743	9,203775	2020-11-19T14:31:53:522
-1,405765	-3,105409	9,195143	2020-11-19T14:31:53:538
-1,407645	-3,113569	9,192095	2020-11-19T14:31:53:560
-1,402144	-3,096045	9,198853	2020-11-19T14:31:53:579
-1,405884	-3,117410	9,191063	2020-11-19T14:31:53:602
-1,402350	-3,128346	9,187886	2020-11-19T14:31:53:618
-1,405027	-3,135900	9,184901	2020-11-19T14:31:53:641
-1,407561	-3,119920	9,189954	2020-11-19T14:31:53:660
-1,409783	-3,112960	9,191974	2020-11-19T14:31:53:682
-1,415051	-3,128359	9,185934	2020-11-19T14:31:53:698
-1,411662	-3,126564	9,187066	2020-11-19T14:31:53:721
-1,406468	-3,124728	9,188488	2020-11-19T14:31:53:738
-1,400479	-3,129501	9,187778	2020-11-19T14:31:53:762
-1,397986	-3,130920	9,187675	2020-11-19T14:31:53:779
-1,396393	-3,132030	9,187538	2020-11-19T14:31:53:801
-1,399843	-3,137554	9,185128	2020-11-19T14:31:53:819
-1,401872	-3,142655	9,183074	2020-11-19T14:31:53:842
-1,401154	-3,149951	9,180684	2020-11-19T14:31:53:859
-1,402101	-3,159368	9,177303	2020-11-19T14:31:53:881
-1,403261	-3,162219	9,176144	2020-11-19T14:31:53:900
-1,403519	-3,160871	9,176569	2020-11-19T14:31:53:922
-1,405980	-3,151345	9,179468	2020-11-19T14:31:53:939
-1,409520	-3,143958	9,181458	2020-11-19T14:31:53:961
-1,414337	-3,143171	9,180986	2020-11-19T14:31:53:979
-1,414665	-3,145621	9,180097	2020-11-19T14:31:54:001
-1,410151	-3,146345	9,180543	2020-11-19T14:31:54:019
-1,411808	-3,140532	9,182279	2020-11-19T14:31:54:041
-1,412437	-3,136632	9,183515	2020-11-19T14:31:54:059
-1,413316	-3,138435	9,182764	2020-11-19T14:31:54:083
-1,410416	-3,135461	9,184225	2020-11-19T14:31:54:099
-1,402871	-3,138544	9,184328	2020-11-19T14:31:54:121
-1,400264	-3,153405	9,179634	2020-11-19T14:31:54:140
-1,409375	-3,157258	9,176915	2020-11-19T14:31:54:162
-1,416147	-3,151471	9,177861	2020-11-19T14:31:54:180
-1,424470	-3,146626	9,178236	2020-11-19T14:31:54:202
-1,430228	-3,143585	9,178383	2020-11-19T14:31:54:220
-1,435349	-3,137608	9,179628	2020-11-19T14:31:54:242
-1,438714	-3,126040	9,183047	2020-11-19T14:31:54:259
-1,436481	-3,127199	9,183002	2020-11-19T14:31:54:281
-1,430699	-3,123453	9,185180	2020-11-19T14:31:54:299
-1,420646	-3,124083	9,186525	2020-11-19T14:31:54:323
-1,409619	-3,127631	9,187017	2020-11-19T14:31:54:339
-1,399931	-3,126387	9,188922	2020-11-19T14:31:54:362
-1,393414	-3,126536	9,189861	2020-11-19T14:31:54:380
-1,388708	-3,128139	9,190028	2020-11-19T14:31:54:402
-1,390823	-3,133242	9,187970	2020-11-19T14:31:54:420
-1,393778	-3,137301	9,186136	2020-11-19T14:31:54:442
-1,399501	-3,142089	9,183630	2020-11-19T14:31:54:460
-1,401735	-3,147714	9,181363	2020-11-19T14:31:54:483
-1,406881	-3,153533	9,178578	2020-11-19T14:31:54:499
-1,412992	-3,149161	9,179141	2020-11-19T14:31:54:522
-1,414190	-3,140134	9,182048	2020-11-19T14:31:54:539
-1,415123	-3,135339	9,183543	2020-11-19T14:31:54:563
-1,417498	-3,136021	9,182943	2020-11-19T14:31:54:579
-1,417050	-3,132830	9,184102	2020-11-19T14:31:54:602
-1,417709	-3,133056	9,183923	2020-11-19T14:31:54:621
-1,418330	-3,134303	9,183402	2020-11-19T14:31:54:642
-1,420043	-3,131537	9,184081	2020-11-19T14:31:54:659
-1,421575	-3,129977	9,184376	2020-11-19T14:31:54:682
-1,422098	-3,128071	9,184944	2020-11-19T14:31:54:700
-1,423157	-3,133598	9,182896	2020-11-19T14:31:54:723
-1,422776	-3,137980	9,181458	2020-11-19T14:31:54:740
-1,422620	-3,137705	9,181577	2020-11-19T14:31:54:762
-1,422542	-3,133209	9,183124	2020-11-19T14:31:54:780
-1,419964	-3,128923	9,184984	2020-11-19T14:31:54:803
-1,417718	-3,127571	9,185791	2020-11-19T14:31:54:820
-1,417351	-3,131670	9,184451	2020-11-19T14:31:54:842
-1,414076	-3,137068	9,183114	2020-11-19T14:31:54:861
-1,413942	-3,146030	9,180068	2020-11-19T14:31:54:883
-1,412274	-3,147218	9,179917	2020-11-19T14:31:54:899
-1,409871	-3,146179	9,180643	2020-11-19T14:31:54:923
-1,414312	-3,142373	9,181263	2020-11-19T14:31:54:940
-1,418127	-3,138881	9,181870	2020-11-19T14:31:54:963
-1,416729	-3,139110	9,182007	2020-11-19T14:31:54:980
-1,413368	-3,143543	9,181008	2020-11-19T14:31:55:002
-1,414123	-3,147933	9,179388	2020-11-19T14:31:55:020
-1,414502	-3,150475	9,178457	2020-11-19T14:31:55:043
-1,410670	-3,150275	9,179115	2020-11-19T14:31:55:059
-1,405825	-3,149572	9,180099	2020-11-19T14:31:55:082
-1,409742	-3,144900	9,181101	2020-11-19T14:31:55:102
-1,414278	-3,142137	9,181350	2020-11-19T14:31:55:123
-1,416602	-3,136274	9,182996	2020-11-19T14:31:55:140
-1,419568	-3,132789	9,183727	2020-11-19T14:31:55:162
-1,424862	-3,130412	9,183718	2020-11-19T14:31:55:180
-1,422805	-3,128597	9,184655	2020-11-19T14:31:55:203
-1,421262	-3,123554	9,186610	2020-11-19T14:31:55:220
-1,416639	-3,126559	9,186302	2020-11-19T14:31:55:242
-1,415221	-3,137349	9,182841	2020-11-19T14:31:55:260
-1,417430	-3,136829	9,182678	2020-11-19T14:31:55:283
-1,417860	-3,129432	9,185136	2020-11-19T14:31:55:300
-1,417838	-3,130761	9,184686	2020-11-19T14:31:55:322
-1,417880	-3,134696	9,183337	2020-11-19T14:31:55:341
-1,416340	-3,135541	9,183287	2020-11-19T14:31:55:363
-1,413870	-3,132782	9,184608	2020-11-19T14:31:55:384
-1,414045	-3,128643	9,185992	2020-11-19T14:31:55:402
-1,413655	-3,129560	9,185740	2020-11-19T14:31:55:420
-1,411985	-3,128128	9,186484	2020-11-19T14:31:55:443
-1,408346	-3,130458	9,186250	2020-11-19T14:31:55:460
-1,407030	-3,136648	9,184340	2020-11-19T14:31:55:482
-1,408726	-3,137634	9,183743	2020-11-19T14:31:55:500
-1,412791	-3,133253	9,184614	2020-11-19T14:31:55:524
-1,417526	-3,126915	9,186044	2020-11-19T14:31:55:540
-1,422245	-3,119294	9,187905	2020-11-19T14:31:55:562
-1,426901	-3,124259	9,185496	2020-11-19T14:31:55:581
-1,424633	-3,130872	9,183597	2020-11-19T14:31:55:603
-1,422771	-3,133894	9,182855	2020-11-19T14:31:55:620
-1,423203	-3,133546	9,182906	2020-11-19T14:31:55:642
-1,420703	-3,126261	9,185776	2020-11-19T14:31:55:660
-1,418436	-3,118721	9,188689	2020-11-19T14:31:55:683
-1,417857	-3,116438	9,189552	2020-11-19T14:31:55:700
-1,422672	-3,115910	9,188988	2020-11-19T14:31:55:723
-1,424133	-3,121095	9,187001	2020-11-19T14:31:55:740
-1,427084	-3,121920	9,186263	2020-11-19T14:31:55:764
-1,426729	-3,124338	9,185496	2020-11-19T14:31:55:781
-1,423707	-3,120902	9,187133	2020-11-19T14:31:55:803
-1,422244	-3,115450	9,189210	2020-11-19T14:31:55:823
-1,420533	-3,117098	9,188915	2020-11-19T14:31:55:843
-1,423738	-3,117533	9,188272	2020-11-19T14:31:55:861
-1,423985	-3,118341	9,187960	2020-11-19T14:31:55:883
-1,426150	-3,118161	9,187685	2020-11-19T14:31:55:901
-1,426011	-3,118826	9,187481	2020-11-19T14:31:55:924
-1,423353	-3,116140	9,188804	2020-11-19T14:31:55:941
-1,428111	-3,113006	9,189128	2020-11-19T14:31:55:963
-1,431212	-3,106648	9,190797	2020-11-19T14:31:55:981
-1,427434	-3,107410	9,191127	2020-11-19T14:31:56:008
-1,427727	-3,110492	9,190040	2020-11-19T14:31:56:021
-1,427720	-3,113869	9,188896	2020-11-19T14:31:56:042
-1,429939	-3,109627	9,189988	2020-11-19T14:31:56:061
-1,427158	-3,107375	9,191182	2020-11-19T14:31:56:084
-1,424696	-3,109108	9,190978	2020-11-19T14:31:56:101
-1,426258	-3,106775	9,191525	2020-11-19T14:31:56:124
-1,426724	-3,112719	9,189441	2020-11-19T14:31:56:141
-1,425887	-3,115366	9,188674	2020-11-19T14:31:56:163
-1,427263	-3,113198	9,189195	2020-11-19T14:31:56:181
-1,430240	-3,112184	9,189075	2020-11-19T14:31:56:203
-1,429245	-3,108999	9,190309	2020-11-19T14:31:56:221
-1,430910	-3,107738	9,190475	2020-11-19T14:31:56:244
-1,430769	-3,108478	9,190248	2020-11-19T14:31:56:262
-1,427068	-3,108855	9,190695	2020-11-19T14:31:56:283
-1,427093	-3,106503	9,191486	2020-11-19T14:31:56:302
-1,426860	-3,104976	9,192039	2020-11-19T14:31:56:324
-1,428667	-3,103000	9,192426	2020-11-19T14:31:56:341
-1,426533	-3,106339	9,191628	2020-11-19T14:31:56:363
-1,428389	-3,109162	9,190387	2020-11-19T14:31:56:381
-1,429042	-3,113554	9,188798	2020-11-19T14:31:56:404
-1,430851	-3,112835	9,188760	2020-11-19T14:31:56:421
-1,431189	-3,110265	9,189577	2020-11-19T14:31:56:443
-1,431436	-3,106428	9,190837	2020-11-19T14:31:56:461
-1,432451	-3,107102	9,190451	2020-11-19T14:31:56:484
-1,433962	-3,104900	9,190959	2020-11-19T14:31:56:502
-1,432257	-3,110414	9,189361	2020-11-19T14:31:56:523
-1,428872	-3,109526	9,190188	2020-11-19T14:31:56:542
-1,430164	-3,105059	9,191497	2020-11-19T14:31:56:564
-1,432166	-3,102835	9,191936	2020-11-19T14:31:56:581
-1,430078	-3,101161	9,192826	2020-11-19T14:31:56:603
-1,429161	-3,103735	9,192101	2020-11-19T14:31:56:622
-1,430718	-3,102125	9,192402	2020-11-19T14:31:56:644
-1,434671	-3,106328	9,190366	2020-11-19T14:31:56:662
-1,431925	-3,107671	9,190341	2020-11-19T14:31:56:683
-1,433369	-3,107934	9,190026	2020-11-19T14:31:56:701
-1,435595	-3,107525	9,189817	2020-11-19T14:31:56:724
-1,436641	-3,109241	9,189074	2020-11-19T14:31:56:742
-1,437356	-3,108116	9,189342	2020-11-19T14:31:56:763
-1,437556	-3,112459	9,187840	2020-11-19T14:31:56:783
-1,436146	-3,115897	9,186896	2020-11-19T14:31:56:804
-1,440043	-3,116107	9,186214	2020-11-19T14:31:56:822
-1,440431	-3,112055	9,187528	2020-11-19T14:31:56:843
-1,439184	-3,107881	9,189136	2020-11-19T14:31:56:862
-1,438485	-3,106871	9,189587	2020-11-19T14:31:56:884
-1,440405	-3,108021	9,188897	2020-11-19T14:31:56:902
-1,438650	-3,109749	9,188587	2020-11-19T14:31:56:924
-1,436315	-3,111052	9,188511	2020-11-19T14:31:56:942
-1,436627	-3,110739	9,188568	2020-11-19T14:31:56:965
-1,437882	-3,108632	9,189085	2020-11-19T14:31:56:981
-1,438675	-3,106339	9,189736	2020-11-19T14:31:57:004
-1,441962	-3,105278	9,189580	2020-11-19T14:31:57:023
-1,436833	-3,104326	9,190705	2020-11-19T14:31:57:045
-1,437400	-3,101745	9,191487	2020-11-19T14:31:57:061
-1,438817	-3,100221	9,191780	2020-11-19T14:31:57:084
-1,439661	-3,100497	9,191555	2020-11-19T14:31:57:102
-1,439956	-3,099598	9,191812	2020-11-19T14:31:57:124
-1,439159	-3,098892	9,192175	2020-11-19T14:31:57:143
-1,436965	-3,099904	9,192177	2020-11-19T14:31:57:164
-1,438443	-3,095644	9,193381	2020-11-19T14:31:57:182
-1,438464	-3,095677	9,193366	2020-11-19T14:31:57:205
-1,441571	-3,095816	9,192833	2020-11-19T14:31:57:223
-1,442245	-3,098047	9,191976	2020-11-19T14:31:57:244
-1,441320	-3,100333	9,191350	2020-11-19T14:31:57:263
-1,440607	-3,097557	9,192398	2020-11-19T14:31:57:285
-1,439194	-3,097102	9,192773	2020-11-19T14:31:57:302
-1,439704	-3,094628	9,193525	2020-11-19T14:31:57:324
-1,435838	-3,093660	9,194456	2020-11-19T14:31:57:342
-1,435106	-3,095708	9,193881	2020-11-19T14:31:57:365
-1,435320	-3,095319	9,193978	2020-11-19T14:31:57:382
-1,433710	-3,095557	9,194150	2020-11-19T14:31:57:404
-1,433720	-3,095893	9,194035	2020-11-19T14:31:57:422
-1,432719	-3,096517	9,193981	2020-11-19T14:31:57:445
-1,435046	-3,096784	9,193528	2020-11-19T14:31:57:462
-1,436559	-3,096994	9,193221	2020-11-19T14:31:57:483
-1,433987	-3,096254	9,193871	2020-11-19T14:31:57:503
-1,433431	-3,099948	9,192714	2020-11-19T14:31:57:525
-1,435387	-3,101818	9,191777	2020-11-19T14:31:57:542
-1,435238	-3,103128	9,191359	2020-11-19T14:31:57:564
-1,434264	-3,102829	9,191611	2020-11-19T14:31:57:582
-1,437269	-3,099799	9,192164	2020-11-19T14:31:57:604
-1,440004	-3,096171	9,192959	2020-11-19T14:31:57:623
-1,438766	-3,095630	9,193336	2020-11-19T14:31:57:644
-1,440260	-3,095481	9,193151	2020-11-19T14:31:57:662
-1,437836	-3,095363	9,193570	2020-11-19T14:31:57:685
-1,434762	-3,097652	9,193280	2020-11-19T14:31:57:702
-1,435467	-3,095062	9,194042	2020-11-19T14:31:57:724
-1,436920	-3,096061	9,193479	2020-11-19T14:31:57:743
-1,433380	-3,097822	9,193438	2020-11-19T14:31:57:765
-1,433048	-3,098750	9,193177	2020-11-19T14:31:57:782
-1,434278	-3,096233	9,193833	2020-11-19T14:31:57:804
-1,434683	-3,091348	9,195414	2020-11-19T14:31:57:823
