x	y	z	ts
1,977488	-3,056616	0,611324	2020-10-29T19:45:22:162
0,094524	0,004270	-0,183099	2020-10-29T19:45:22:163
-0,095485	0,174894	-0,193377	2020-10-29T19:45:22:163
-0,067365	-0,077294	-0,084071	2020-10-29T19:45:22:163
-0,137085	0,042323	-0,128252	2020-10-29T19:45:22:164
-0,182621	0,117246	-0,221254	2020-10-29T19:45:22:170
-0,072551	0,011962	-0,264324	2020-10-29T19:45:22:188
-0,277730	0,036605	-0,217710	2020-10-29T19:45:22:220
-0,275391	0,023260	-0,207597	2020-10-29T19:45:22:231
-0,354842	0,085325	-0,191380	2020-10-29T19:45:22:250
-0,445122	0,095613	-0,103388	2020-10-29T19:45:22:270
-0,328663	0,172875	-0,221223	2020-10-29T19:45:22:289
-0,365130	0,346631	-0,344800	2020-10-29T19:45:22:310
-0,512606	0,370921	-0,481392	2020-10-29T19:45:22:331
-0,587702	0,221263	-0,470760	2020-10-29T19:45:22:349
-0,715883	0,116239	-0,266036	2020-10-29T19:45:22:370
-0,785333	0,072662	-0,233928	2020-10-29T19:45:22:389
-0,687613	0,031206	-0,274796	2020-10-29T19:45:22:410
-0,593298	0,118632	-0,408511	2020-10-29T19:45:22:430
-0,415173	0,008558	-0,633673	2020-10-29T19:45:22:450
-0,268195	0,195322	-0,774226	2020-10-29T19:45:22:469
-0,304030	0,182445	-1,167077	2020-10-29T19:45:22:489
-0,244036	0,142056	-1,601163	2020-10-29T19:45:22:510
-0,260964	0,665793	-1,781442	2020-10-29T19:45:22:530
-1,065947	-0,176717	-1,902919	2020-10-29T19:45:22:549
1,305963	-1,179924	-2,694085	2020-10-29T19:45:22:571
2,963666	1,689769	-4,037580	2020-10-29T19:45:22:589
-2,704322	0,752917	-1,945525	2020-10-29T19:45:22:610
-2,037766	-1,080724	-2,816303	2020-10-29T19:45:22:630
-0,604549	-2,583893	-3,232224	2020-10-29T19:45:22:650
-1,116638	-3,260230	-3,230134	2020-10-29T19:45:22:670
-1,610339	-3,303751	-3,206012	2020-10-29T19:45:22:690
-1,200670	-2,538336	-3,474448	2020-10-29T19:45:22:710
-1,264791	-2,136136	-3,442685	2020-10-29T19:45:22:730
-1,247172	-2,830114	-3,053259	2020-10-29T19:45:22:750
-0,866241	-4,022968	-2,359892	2020-10-29T19:45:22:770
-0,583786	-4,714563	-1,611765	2020-10-29T19:45:22:790
-0,056157	-4,755082	-1,081419	2020-10-29T19:45:22:810
0,703027	-5,325552	-0,770854	2020-10-29T19:45:22:830
1,791802	-7,167339	-0,051272	2020-10-29T19:45:22:850
2,955933	-8,413425	1,020970	2020-10-29T19:45:22:870
4,852711	-10,409693	1,929599	2020-10-29T19:45:22:890
6,783247	-14,084857	3,350534	2020-10-29T19:45:22:959
6,893841	-13,696301	3,817524	2020-10-29T19:45:22:960
6,898214	-12,272475	4,933816	2020-10-29T19:45:22:961
6,997999	-10,607588	5,228618	2020-10-29T19:45:22:973
7,770881	-9,054646	4,087242	2020-10-29T19:45:22:995
10,088230	-10,011189	3,599100	2020-10-29T19:45:23:016
11,268051	-12,115150	3,312228	2020-10-29T19:45:23:032
10,831312	-13,560860	3,687346	2020-10-29T19:45:23:051
9,381262	-13,446004	4,039091	2020-10-29T19:45:23:069
8,796812	-13,029832	3,904186	2020-10-29T19:45:23:090
8,426693	-12,470142	3,700030	2020-10-29T19:45:23:110
7,746150	-11,807522	3,985821	2020-10-29T19:45:23:130
6,806838	-11,318058	4,156543	2020-10-29T19:45:23:150
5,785785	-10,929136	4,327512	2020-10-29T19:45:23:170
4,822937	-10,592489	4,436143	2020-10-29T19:45:23:190
3,728896	-10,628685	4,135654	2020-10-29T19:45:23:211
2,799218	-10,552178	3,611100	2020-10-29T19:45:23:231
1,944731	-10,633040	3,542475	2020-10-29T19:45:23:250
1,673167	-10,797529	3,604164	2020-10-29T19:45:23:271
1,910289	-11,038960	3,138622	2020-10-29T19:45:23:291
2,318082	-10,779876	3,128055	2020-10-29T19:45:23:311
2,377307	-9,883026	2,988772	2020-10-29T19:45:23:331
2,228137	-9,026899	3,054944	2020-10-29T19:45:23:351
1,874570	-8,516819	2,539243	2020-10-29T19:45:23:371
1,585369	-8,496789	2,203699	2020-10-29T19:45:23:392
1,276776	-8,933496	2,026921	2020-10-29T19:45:23:411
1,060555	-9,370657	2,754009	2020-10-29T19:45:23:432
1,173218	-8,690308	3,062509	2020-10-29T19:45:23:451
1,593961	-5,827028	3,269109	2020-10-29T19:45:23:472
1,851551	-1,246536	3,017646	2020-10-29T19:45:23:492
1,314381	0,267012	2,794888	2020-10-29T19:45:23:514
1,124427	-1,545225	0,953935	2020-10-29T19:45:23:532
1,958675	-3,804171	0,266352	2020-10-29T19:45:23:553
2,478213	-4,668210	-0,781441	2020-10-29T19:45:23:570
1,358374	-4,804601	-0,812548	2020-10-29T19:45:23:592
0,323687	-4,045044	-0,776527	2020-10-29T19:45:23:611
-0,162112	-3,482250	-0,872655	2020-10-29T19:45:23:634
-0,594784	-2,914795	-1,050722	2020-10-29T19:45:23:652
-1,144662	-2,213883	-1,143103	2020-10-29T19:45:23:673
-1,532669	-1,652457	-1,291053	2020-10-29T19:45:23:693
-1,589853	-1,380125	-1,338474	2020-10-29T19:45:23:714
-1,478405	-0,879135	-1,353114	2020-10-29T19:45:23:733
-1,503676	-0,736821	-1,015698	2020-10-29T19:45:23:754
-1,484161	-0,779269	-0,881902	2020-10-29T19:45:23:774
-1,277290	-0,950455	-0,962403	2020-10-29T19:45:23:793
-1,196141	-0,845699	-1,035171	2020-10-29T19:45:23:813
-1,225958	-0,916514	-1,000597	2020-10-29T19:45:23:840
-0,912880	0,361721	1,226880	2020-10-29T19:45:31:131
-1,226689	0,150457	1,468712	2020-10-29T19:45:31:132
-0,993886	-1,934999	2,609681	2020-10-29T19:45:31:133
-0,526335	-2,837313	3,594691	2020-10-29T19:45:31:150
-0,732945	-1,795145	3,592635	2020-10-29T19:45:31:168
-1,128320	-1,148165	2,647615	2020-10-29T19:45:31:188
-1,325800	-1,840750	1,976339	2020-10-29T19:45:31:206
-1,027888	-2,593192	1,330685	2020-10-29T19:45:31:230
-0,274592	-2,804835	0,882886	2020-10-29T19:45:31:244
0,167189	-2,901690	0,685325	2020-10-29T19:45:31:268
0,524520	-3,138582	0,425935	2020-10-29T19:45:31:286
0,716293	-2,757888	-0,165603	2020-10-29T19:45:31:311
0,593185	-2,137668	-0,722786	2020-10-29T19:45:31:327
0,205045	-1,571919	-0,870433	2020-10-29T19:45:31:349
-0,200341	-1,046922	-0,815298	2020-10-29T19:45:31:366
-0,477176	-0,507453	-0,734053	2020-10-29T19:45:31:390
-0,646290	-0,556727	-0,537014	2020-10-29T19:45:31:407
-0,705848	-0,732825	-0,378236	2020-10-29T19:45:31:429
-0,820569	-0,521779	-0,342271	2020-10-29T19:45:31:446
-0,907303	-0,398540	-0,472980	2020-10-29T19:45:31:469
-1,343675	-0,142028	-0,590517	2020-10-29T19:45:31:486
-1,874646	0,713474	-0,356483	2020-10-29T19:45:31:509
-2,404003	0,794055	-0,034613	2020-10-29T19:45:31:527
-2,443285	-0,226809	0,227052	2020-10-29T19:45:31:550
-2,117380	-1,742258	0,371800	2020-10-29T19:45:31:566
-1,924087	-2,720738	0,272825	2020-10-29T19:45:31:589
-1,568681	-3,140949	0,041519	2020-10-29T19:45:31:606
-0,830885	-2,975336	-0,433120	2020-10-29T19:45:31:630
6,166363	1,946789	-2,397407	2020-10-29T19:45:31:647
11,926540	1,124679	-1,773331	2020-10-29T19:45:31:669
10,959768	-0,095653	-0,877730	2020-10-29T19:45:31:688
3,339758	1,786403	0,495103	2020-10-29T19:45:31:710
0,702641	1,952082	-0,002153	2020-10-29T19:45:31:726
0,881833	2,071878	-0,432598	2020-10-29T19:45:31:749
2,405379	2,054715	-0,502238	2020-10-29T19:45:31:766
3,677615	1,860049	-0,221715	2020-10-29T19:45:31:790
4,154752	1,854760	0,002545	2020-10-29T19:45:31:807
4,417548	1,733807	-0,363685	2020-10-29T19:45:31:829
4,666104	1,741663	-1,134084	2020-10-29T19:45:31:847
4,760390	1,771111	-1,795719	2020-10-29T19:45:31:870
5,260120	1,642630	-1,963697	2020-10-29T19:45:31:888
6,065156	2,328394	-1,562210	2020-10-29T19:45:31:909
6,855171	3,441992	-1,794976	2020-10-29T19:45:31:927
7,617209	3,426327	-2,677079	2020-10-29T19:45:31:949
7,548812	2,891445	-2,745949	2020-10-29T19:45:31:967
7,195110	1,966065	-1,423138	2020-10-29T19:45:31:990
7,705399	0,800106	-0,412186	2020-10-29T19:45:32:007
0,261580	-1,881159	2,805749	2020-10-29T19:45:32:030
-0,069123	-0,918648	2,133003	2020-10-29T19:45:32:047
-0,354050	-0,624048	1,769636	2020-10-29T19:45:32:069
-0,502504	-0,072101	1,302522	2020-10-29T19:45:32:087
-0,475264	0,073027	0,519419	2020-10-29T19:45:32:110
-0,771441	0,348873	-0,786155	2020-10-29T19:45:32:129
-0,955163	0,081979	-1,190990	2020-10-29T19:45:32:151
-0,629756	-1,014400	0,362776	2020-10-29T19:45:32:167
-0,363636	-0,336060	1,178701	2020-10-29T19:45:32:191
-0,303256	0,450947	0,060590	2020-10-29T19:45:32:207
-0,730565	0,288388	-0,122726	2020-10-29T19:45:32:230
-0,400840	-0,039359	-0,375887	2020-10-29T19:45:32:247
-0,150303	0,517864	-0,423982	2020-10-29T19:45:32:270
-0,961372	0,452764	-0,838874	2020-10-29T19:45:32:287
-2,610830	0,402169	-1,395431	2020-10-29T19:45:32:310
-3,086457	0,455351	-1,177080	2020-10-29T19:45:32:328
-2,391264	1,091252	-0,862430	2020-10-29T19:45:32:351
-2,132786	1,790111	-0,692699	2020-10-29T19:45:32:369
-2,541959	1,703970	-0,218920	2020-10-29T19:45:32:390
-2,076194	1,337605	-0,522671	2020-10-29T19:45:32:407
-1,484646	1,408444	-1,289309	2020-10-29T19:45:32:431
-1,062623	1,880615	-0,700032	2020-10-29T19:45:32:447
-1,273775	2,458941	-0,461710	2020-10-29T19:45:32:470
-1,196901	1,809074	-0,262388	2020-10-29T19:45:32:488
-1,216044	1,777968	-0,173854	2020-10-29T19:45:32:510
-1,422246	1,917726	-0,707743	2020-10-29T19:45:32:528
-1,816683	2,181460	-0,868259	2020-10-29T19:45:32:550
-1,651125	1,768626	-0,478055	2020-10-29T19:45:32:567
-0,778109	1,162928	-0,645595	2020-10-29T19:45:32:591
-4,427175	2,574129	5,071445	2020-10-29T19:45:32:608
-4,313604	2,687029	4,371984	2020-10-29T19:45:32:630
-4,139975	2,417169	4,296686	2020-10-29T19:45:32:647
-3,903503	2,243491	3,634044	2020-10-29T19:45:32:671
-4,181536	1,525608	3,934531	2020-10-29T19:45:32:688
-4,046192	3,105668	5,904945	2020-10-29T19:45:32:710
-3,296533	2,784842	6,937419	2020-10-29T19:45:32:728
-3,670833	1,046088	6,072364	2020-10-29T19:45:32:751
-4,293428	1,410780	4,959992	2020-10-29T19:45:32:767
-4,733654	0,701965	5,207304	2020-10-29T19:45:32:790
-5,165528	-0,176289	4,680139	2020-10-29T19:45:32:807
-5,457945	-0,331157	4,795589	2020-10-29T19:45:32:831
-5,715677	0,800998	4,333988	2020-10-29T19:45:32:849
-5,662814	1,147858	3,753617	2020-10-29T19:45:32:870
-1,957170	-0,107168	0,944501	2020-10-29T19:45:32:888
-2,386780	0,132287	0,588529	2020-10-29T19:45:32:911
-2,438721	-0,188545	0,445382	2020-10-29T19:45:32:928
-2,365425	-0,778228	0,592879	2020-10-29T19:45:32:950
-2,192864	-0,931503	0,845209	2020-10-29T19:45:32:967
-2,502176	-0,614143	0,659019	2020-10-29T19:45:32:991
-2,191417	-0,824584	0,052394	2020-10-29T19:45:33:008
-2,363700	-0,235950	-1,160768	2020-10-29T19:45:33:031
-2,617528	-1,552130	0,940256	2020-10-29T19:45:33:048
-3,123635	-2,667229	2,793650	2020-10-29T19:45:33:071
-2,451232	-1,392979	0,203561	2020-10-29T19:45:33:089
-2,590731	-0,403568	-0,648253	2020-10-29T19:45:33:110
-3,411518	-3,486917	-0,026510	2020-10-29T19:45:33:128
-3,121992	-4,468579	-0,027514	2020-10-29T19:45:33:151
-2,931457	-4,376641	-0,257684	2020-10-29T19:45:33:168
-2,906705	-4,628045	0,149608	2020-10-29T19:45:33:191
-2,912874	-4,479378	-0,470961	2020-10-29T19:45:33:208
-3,085364	4,697012	0,488823	2020-10-29T19:45:33:231
-2,947515	4,676572	-0,001911	2020-10-29T19:45:33:248
-3,425437	4,291059	-0,705684	2020-10-29T19:45:33:270
-5,006573	3,847674	-0,504166	2020-10-29T19:45:33:288
-4,718575	3,145965	-0,918948	2020-10-29T19:45:33:312
-3,442825	3,010076	-1,035773	2020-10-29T19:45:33:330
-2,803910	3,525698	-1,178387	2020-10-29T19:45:33:350
-3,101288	3,380636	-1,052498	2020-10-29T19:45:33:369
-3,084830	2,909565	-0,878104	2020-10-29T19:45:33:392
-3,200887	3,169565	-0,899159	2020-10-29T19:45:33:408
-3,131656	3,563483	-1,104394	2020-10-29T19:45:33:431
-2,995982	2,901486	-1,173076	2020-10-29T19:45:33:448
-3,430510	2,559663	-1,525733	2020-10-29T19:45:33:471
-3,490242	1,972964	-1,347484	2020-10-29T19:45:33:489
-3,635128	2,389832	-1,830833	2020-10-29T19:45:33:511
-2,904570	2,747300	-1,868052	2020-10-29T19:45:33:528
-2,495381	3,027104	-1,584796	2020-10-29T19:45:33:552
-2,052470	3,052608	-1,367372	2020-10-29T19:45:33:571
-1,849124	2,188893	-1,164301	2020-10-29T19:45:33:591
-1,859987	1,257697	-1,454285	2020-10-29T19:45:33:609
-2,151680	1,169756	-1,048190	2020-10-29T19:45:33:632
-2,981194	0,561817	-1,173160	2020-10-29T19:45:33:648
-3,220646	1,138509	-1,320532	2020-10-29T19:45:33:671
-2,521737	1,554643	-1,529372	2020-10-29T19:45:33:689
-2,120371	1,983361	-1,590294	2020-10-29T19:45:33:712
-1,905557	2,103157	-0,767265	2020-10-29T19:45:33:729
-1,853371	1,725854	-0,464406	2020-10-29T19:45:33:752
-2,123005	2,179970	-0,528765	2020-10-29T19:45:33:768
-1,598182	2,626432	-0,929011	2020-10-29T19:45:33:792
-1,514300	1,345360	0,056417	2020-10-29T19:45:33:809
0,230237	-1,244568	2,401936	2020-10-29T19:45:33:831
1,770954	-1,522735	3,318992	2020-10-29T19:45:33:849
2,665142	-1,689727	2,216736	2020-10-29T19:45:33:872
1,577749	-1,794697	0,941561	2020-10-29T19:45:33:889
0,460301	0,172204	-0,350564	2020-10-29T19:45:33:911
0,295125	0,861861	-0,600221	2020-10-29T19:45:33:929
0,582644	-0,944988	1,098372	2020-10-29T19:45:33:951
0,044139	-2,980998	2,720229	2020-10-29T19:45:33:969
-0,857342	-1,678098	-0,042827	2020-10-29T19:45:33:991
-0,172830	-1,837652	-1,146655	2020-10-29T19:45:34:009
0,710122	-1,765867	-0,909765	2020-10-29T19:45:34:032
0,873517	0,863969	-1,114406	2020-10-29T19:45:34:050
1,062485	0,334403	-1,339352	2020-10-29T19:45:34:071
2,177582	-0,968807	0,021204	2020-10-29T19:45:34:089
1,656356	-1,322429	0,963752	2020-10-29T19:45:34:112
2,227063	-2,898754	0,711238	2020-10-29T19:45:34:129
2,816754	-4,415631	-0,955640	2020-10-29T19:45:34:151
3,593100	-4,198476	-1,440865	2020-10-29T19:45:34:169
3,296729	-3,383371	-0,437325	2020-10-29T19:45:34:192
3,530778	-3,755428	0,157481	2020-10-29T19:45:34:209
3,510903	-4,415365	0,187428	2020-10-29T19:45:34:231
3,264678	-4,814977	-0,382814	2020-10-29T19:45:34:249
2,468123	-4,781508	-1,529515	2020-10-29T19:45:34:272
2,717125	3,786834	-0,555306	2020-10-29T19:45:34:292
3,401473	3,932796	0,210398	2020-10-29T19:45:34:311
3,613772	3,688890	0,883842	2020-10-29T19:45:34:369
2,864298	3,204673	0,494862	2020-10-29T19:45:34:399
2,464728	3,195464	-0,442196	2020-10-29T19:45:34:399
2,771075	3,616456	-0,941290	2020-10-29T19:45:34:413
2,921912	3,853585	-1,353464	2020-10-29T19:45:34:414
2,482544	3,242800	-2,238547	2020-10-29T19:45:34:433
1,799564	2,798030	-3,125891	2020-10-29T19:45:34:449
1,548161	2,979198	-4,494199	2020-10-29T19:45:34:471
1,222119	5,343253	-6,884244	2020-10-29T19:45:34:489
1,326922	7,510309	-8,802035	2020-10-29T19:45:34:512
1,563649	3,842361	-6,934789	2020-10-29T19:45:34:532
1,489472	-1,807092	-7,530602	2020-10-29T19:45:34:551
1,828916	-1,360932	-6,957078	2020-10-29T19:45:34:569
3,329807	-0,002514	-5,515768	2020-10-29T19:45:34:593
3,707795	3,867001	-4,757786	2020-10-29T19:45:34:609
2,757590	5,165917	-4,282069	2020-10-29T19:45:34:632
1,446497	3,702591	-3,576460	2020-10-29T19:45:34:649
1,515100	2,897830	-2,434502	2020-10-29T19:45:34:672
2,171289	3,404977	-1,895747	2020-10-29T19:45:34:690
2,128914	3,968811	-1,935683	2020-10-29T19:45:34:711
1,940048	3,764375	-1,919669	2020-10-29T19:45:34:730
2,436310	3,277350	-1,929951	2020-10-29T19:45:34:752
3,400510	2,287115	-0,838494	2020-10-29T19:45:34:772
4,135769	1,995264	1,610344	2020-10-29T19:45:34:792
4,561691	2,339831	2,565081	2020-10-29T19:45:34:810
3,891486	1,708131	2,635082	2020-10-29T19:45:34:833
3,295134	1,823665	2,001652	2020-10-29T19:45:34:849
3,194492	3,091025	0,840073	2020-10-29T19:45:34:872
3,604458	2,973212	0,349034	2020-10-29T19:45:34:890
4,162876	2,595927	0,913825	2020-10-29T19:45:34:912
4,101857	2,359158	1,528242	2020-10-29T19:45:34:930
2,986743	2,501599	1,660907	2020-10-29T19:45:34:952
1,894895	2,084716	1,272115	2020-10-29T19:45:34:969
1,347337	1,331692	1,092753	2020-10-29T19:45:34:993
1,072510	0,811063	1,121949	2020-10-29T19:45:35:012
0,969619	0,588531	0,992738	2020-10-29T19:45:35:032
1,071910	0,336174	0,874585	2020-10-29T19:45:35:050
1,242957	-0,041695	0,619978	2020-10-29T19:45:35:073
1,656997	-0,434381	0,399588	2020-10-29T19:45:35:090
1,726225	-0,759938	0,277616	2020-10-29T19:45:35:112
1,785075	-1,130243	0,097796	2020-10-29T19:45:35:130
2,141112	-1,287006	0,120637	2020-10-29T19:45:35:153
2,562496	-1,214884	-0,053127	2020-10-29T19:45:35:170
2,116906	-1,025587	-0,137208	2020-10-29T19:45:35:192
1,309916	-0,882293	-0,308998	2020-10-29T19:45:35:210
0,683624	-0,928584	-0,486863	2020-10-29T19:45:35:233
0,418824	-0,883165	-0,684853	2020-10-29T19:45:35:252
0,569572	-0,801809	-1,292630	2020-10-29T19:45:35:272
0,708173	-0,687756	-1,669544	2020-10-29T19:45:35:290
1,037951	-0,721326	-1,872903	2020-10-29T19:45:35:314
1,249996	-0,958520	-2,073919	2020-10-29T19:45:35:331
1,499439	-0,835942	-2,269425	2020-10-29T19:45:35:352
1,559898	-0,536753	-2,402634	2020-10-29T19:45:35:371
1,734240	-0,250327	-2,411842	2020-10-29T19:45:35:393
2,300735	-0,264721	-2,232344	2020-10-29T19:45:35:410
3,086706	-0,703897	-1,880149	2020-10-29T19:45:35:433
2,967073	-0,619280	-2,533634	2020-10-29T19:45:35:450
0,981441	-0,043973	-2,667755	2020-10-29T19:45:35:473
0,989447	0,093368	-2,273062	2020-10-29T19:45:35:492
2,223903	0,346372	-1,613478	2020-10-29T19:45:35:512
3,510453	1,161248	-1,171160	2020-10-29T19:45:35:531
4,085024	1,660518	-1,374952	2020-10-29T19:45:35:553
3,294064	1,881990	-1,374162	2020-10-29T19:45:35:570
2,137850	1,922886	-1,418483	2020-10-29T19:45:35:593
1,841783	2,127651	-1,593518	2020-10-29T19:45:35:611
2,032709	2,615024	-2,020833	2020-10-29T19:45:35:633
2,197928	3,324276	-2,471622	2020-10-29T19:45:35:650
2,122128	4,165629	-2,553600	2020-10-29T19:45:35:673
2,058728	4,665932	-1,552560	2020-10-29T19:45:35:691
1,039270	4,893317	-1,658588	2020-10-29T19:45:35:713
0,037545	4,684229	-2,105084	2020-10-29T19:45:35:731
-0,369953	4,058405	-2,471114	2020-10-29T19:45:35:752
-0,397737	3,629932	-2,335123	2020-10-29T19:45:35:770
-0,209439	3,711914	-2,440881	2020-10-29T19:45:35:795
-0,470095	2,673864	-1,686599	2020-10-29T19:45:35:811
-0,472484	0,925516	-0,929795	2020-10-29T19:45:35:834
-0,392895	0,576898	-0,364667	2020-10-29T19:45:35:851
-0,166140	1,497599	-0,268113	2020-10-29T19:45:35:873
-0,138387	1,837912	-0,427471	2020-10-29T19:45:35:891
-0,355705	1,647680	-0,488235	2020-10-29T19:45:35:913
-0,574368	1,215739	-0,572453	2020-10-29T19:45:35:931
-0,547792	0,955321	-0,149502	2020-10-29T19:45:35:954
-0,925280	0,981995	-0,330898	2020-10-29T19:45:35:975
-1,296167	0,893460	-0,670679	2020-10-29T19:45:35:993
-1,791797	0,619271	-0,753738	2020-10-29T19:45:36:011
-2,019535	0,374861	-0,601731	2020-10-29T19:45:36:034
-1,730465	-0,305389	-0,369295	2020-10-29T19:45:36:051
-1,172468	-0,811088	-0,418245	2020-10-29T19:45:36:073
-0,912675	-0,911570	-0,469564	2020-10-29T19:45:36:091
-0,372662	-0,853065	-0,522282	2020-10-29T19:45:36:114
0,890480	-0,904865	-0,786821	2020-10-29T19:45:36:133
3,107512	-1,277570	-0,324850	2020-10-29T19:45:36:153
5,512374	-1,602539	-0,034880	2020-10-29T19:45:36:171
7,154966	-1,856889	-0,002326	2020-10-29T19:45:36:194
7,413991	-2,267699	0,336482	2020-10-29T19:45:36:213
5,942406	-2,155237	0,549443	2020-10-29T19:45:36:233
2,471924	-2,476352	0,895444	2020-10-29T19:45:36:252
0,338503	-1,929294	1,401096	2020-10-29T19:45:36:274
1,114154	-1,027458	1,017643	2020-10-29T19:45:36:292
2,414519	-0,755204	0,637373	2020-10-29T19:45:36:313
2,315071	-0,958680	0,401886	2020-10-29T19:45:36:332
2,005240	-0,697027	-0,108397	2020-10-29T19:45:36:354
1,902639	-0,313163	-0,492978	2020-10-29T19:45:36:371
1,524486	0,140437	-0,370812	2020-10-29T19:45:36:393
1,037895	0,417604	0,024787	2020-10-29T19:45:36:411
0,421809	0,786870	0,406378	2020-10-29T19:45:36:434
0,076837	0,925115	0,321584	2020-10-29T19:45:36:452
-0,091610	0,625110	-0,041065	2020-10-29T19:45:36:473
-0,064220	0,542551	-0,452964	2020-10-29T19:45:36:491
-0,009024	0,609303	-0,865385	2020-10-29T19:45:36:514
0,050953	0,711874	-1,162575	2020-10-29T19:45:36:532
-0,626216	0,790837	-1,117111	2020-10-29T19:45:36:553
-0,691076	1,286252	-1,498360	2020-10-29T19:45:36:571
-0,729246	1,476115	-1,834060	2020-10-29T19:45:36:595
-0,571338	1,705963	-2,281389	2020-10-29T19:45:36:611
-0,440876	1,853017	-2,556613	2020-10-29T19:45:36:633
-0,615150	2,211228	-2,337655	2020-10-29T19:45:36:651
-0,233816	1,490257	-2,298158	2020-10-29T19:45:36:674
0,014417	1,646895	-2,379426	2020-10-29T19:45:36:693
0,614645	1,360217	-2,496975	2020-10-29T19:45:36:713
0,935380	1,521451	-2,584328	2020-10-29T19:45:36:732
1,114942	1,729502	-2,281990	2020-10-29T19:45:36:754
1,249643	1,512498	-1,967108	2020-10-29T19:45:36:779
1,531370	1,413322	-1,992482	2020-10-29T19:45:36:794
3,014305	1,147433	-2,041460	2020-10-29T19:45:36:811
5,225986	0,927083	-2,355546	2020-10-29T19:45:36:835
6,125925	0,414274	-2,181030	2020-10-29T19:45:36:851
3,504276	0,107251	-1,280748	2020-10-29T19:45:36:873
0,309716	0,115241	-0,235626	2020-10-29T19:45:36:892
-1,115850	-0,203270	0,160115	2020-10-29T19:45:36:914
-0,762028	-0,308380	0,055787	2020-10-29T19:45:36:933
0,027243	0,083613	-0,166475	2020-10-29T19:45:36:953
0,301277	-0,032536	-0,341396	2020-10-29T19:45:36:972
-0,418216	-0,597104	-0,578712	2020-10-29T19:45:36:996
-1,048558	-0,801074	-0,729454	2020-10-29T19:45:37:012
-1,096400	-0,623950	-0,965139	2020-10-29T19:45:37:034
-0,455145	-0,264145	-0,824566	2020-10-29T19:45:37:052
0,115404	-0,275684	-0,919272	2020-10-29T19:45:37:074
0,545879	-0,836888	-0,850174	2020-10-29T19:45:37:092
0,610295	-1,795228	-0,850277	2020-10-29T19:45:37:114
0,569663	-2,600717	-0,818645	2020-10-29T19:45:37:132
0,388255	-3,124271	-0,423575	2020-10-29T19:45:37:155
-0,039117	-3,526963	0,646318	2020-10-29T19:45:37:173
-0,290545	-3,709924	2,296448	2020-10-29T19:45:37:194
-0,334432	-3,667223	3,425393	2020-10-29T19:45:37:212
-0,235564	-3,445112	3,581616	2020-10-29T19:45:37:235
-0,112931	-3,285322	3,728168	2020-10-29T19:45:37:252
-0,202040	-3,309125	4,056904	2020-10-29T19:45:37:274
-0,613998	-3,209955	4,237197	2020-10-29T19:45:37:293
-0,641121	-3,093123	4,114810	2020-10-29T19:45:37:315
-0,223656	-2,512509	3,790357	2020-10-29T19:45:37:333
0,193146	-1,629805	3,477960	2020-10-29T19:45:37:356
0,628145	-1,248329	3,138817	2020-10-29T19:45:37:373
0,817177	-0,906156	2,703323	2020-10-29T19:45:37:396
1,125346	-0,941543	2,171924	2020-10-29T19:45:37:413
3,124273	-1,584379	2,319087	2020-10-29T19:45:37:435
5,226219	-2,215400	2,343925	2020-10-29T19:45:37:452
4,127649	-2,248396	2,516438	2020-10-29T19:45:37:475
2,086974	-1,977292	2,838877	2020-10-29T19:45:37:493
1,324784	-1,720538	2,385206	2020-10-29T19:45:37:515
0,890464	-1,359323	1,690084	2020-10-29T19:45:37:533
1,102347	-1,092340	0,997343	2020-10-29T19:45:37:555
1,906505	-0,816758	0,449521	2020-10-29T19:45:37:573
2,777287	-0,834216	-0,597190	2020-10-29T19:45:37:596
3,027833	-0,703215	-0,985964	2020-10-29T19:45:37:612
2,641269	-0,487604	-1,487758	2020-10-29T19:45:37:636
1,766104	-0,234790	-1,734413	2020-10-29T19:45:37:654
1,307870	0,354537	-1,974574	2020-10-29T19:45:37:674
1,100776	0,697336	-2,308408	2020-10-29T19:45:37:693
1,215612	0,826900	-2,534508	2020-10-29T19:45:37:716
1,154055	0,915945	-2,523560	2020-10-29T19:45:37:733
1,320505	0,700903	-2,526597	2020-10-29T19:45:37:755
1,343376	0,623576	-2,524678	2020-10-29T19:45:37:773
1,132659	0,715767	-2,628369	2020-10-29T19:45:37:795
0,783196	0,807242	-2,550796	2020-10-29T19:45:37:813
0,254766	1,268182	-2,636067	2020-10-29T19:45:37:835
-0,310234	1,856131	-2,664625	2020-10-29T19:45:37:853
-0,721115	1,847123	-2,690685	2020-10-29T19:45:37:876
-0,481628	1,035089	-2,437756	2020-10-29T19:45:37:894
-0,210881	0,898084	-2,157511	2020-10-29T19:45:37:915
-0,099730	1,038664	-1,903593	2020-10-29T19:45:37:933
-0,164212	1,214266	-1,574495	2020-10-29T19:45:37:956
-0,479789	1,148444	-1,195904	2020-10-29T19:45:37:973
-0,477455	1,198009	-1,114006	2020-10-29T19:45:37:996
-0,267101	1,366822	-1,042707	2020-10-29T19:45:38:013
0,019035	1,713388	-0,891073	2020-10-29T19:45:38:036
0,155602	1,869296	-0,652039	2020-10-29T19:45:38:053
1,597502	2,009427	-0,368188	2020-10-29T19:45:38:075
3,692106	1,895087	0,155342	2020-10-29T19:45:38:093
3,727991	1,950019	1,302394	2020-10-29T19:45:38:116
1,351912	1,916945	2,864128	2020-10-29T19:45:38:136
-0,560204	2,040016	3,262336	2020-10-29T19:45:38:155
-1,451522	1,905057	3,141163	2020-10-29T19:45:38:174
-1,578137	1,794195	3,071826	2020-10-29T19:45:38:196
-0,737617	1,262830	2,741451	2020-10-29T19:45:38:213
-0,006377	0,757960	2,022253	2020-10-29T19:45:38:236
0,198891	0,354228	1,342746	2020-10-29T19:45:38:253
0,287373	-0,272622	0,934006	2020-10-29T19:45:38:276
0,567617	-0,359650	0,662212	2020-10-29T19:45:38:294
0,484694	0,157758	0,497160	2020-10-29T19:45:38:315
0,152663	0,835250	0,333897	2020-10-29T19:45:38:334
-0,231122	1,180253	0,000767	2020-10-29T19:45:38:356
-0,238776	1,029998	-0,482868	2020-10-29T19:45:38:374
-0,006492	0,639153	-0,882960	2020-10-29T19:45:38:396
-0,070446	0,453908	-1,055839	2020-10-29T19:45:38:415
-0,300332	-0,086101	-1,308778	2020-10-29T19:45:38:436
-0,353243	-1,042433	-1,154089	2020-10-29T19:45:38:453
0,098621	-1,788270	-0,993447	2020-10-29T19:45:38:475
0,389462	-2,239916	-0,806189	2020-10-29T19:45:38:494
0,318146	-2,419914	-0,457840	2020-10-29T19:45:38:516
-0,082521	-2,353034	-0,311280	2020-10-29T19:45:38:534
-0,339199	-2,120419	-0,299951	2020-10-29T19:45:38:556
-0,422859	-1,680308	-0,703043	2020-10-29T19:45:38:573
-0,231968	-1,169359	-1,243515	2020-10-29T19:45:38:597
-0,026677	-0,964791	-1,777537	2020-10-29T19:45:38:615
0,122965	-0,639326	-2,016974	2020-10-29T19:45:38:636
-0,002040	-0,159599	-2,216807	2020-10-29T19:45:38:654
0,099029	0,178635	-2,292020	2020-10-29T19:45:38:676
0,141784	0,530708	-2,441923	2020-10-29T19:45:38:694
-0,095392	0,562806	-2,420751	2020-10-29T19:45:38:716
-0,311177	0,382872	-2,344774	2020-10-29T19:45:38:734
-0,283326	0,108078	-2,366161	2020-10-29T19:45:38:757
-0,021049	0,156847	-2,228200	2020-10-29T19:45:38:774
0,274371	0,153118	-2,081316	2020-10-29T19:45:38:796
0,819968	0,072936	-2,228532	2020-10-29T19:45:38:814
2,397084	-0,355788	-2,169055	2020-10-29T19:45:38:837
3,682190	-0,690102	-1,935789	2020-10-29T19:45:38:856
3,713297	-0,800172	-1,816148	2020-10-29T19:45:38:876
2,976076	-0,895603	-1,732055	2020-10-29T19:45:38:894
2,207221	-1,200247	-1,972788	2020-10-29T19:45:38:917
1,338305	-1,297936	-2,414127	2020-10-29T19:45:38:934
0,934653	-1,254218	-2,566403	2020-10-29T19:45:38:956
1,206346	-1,257833	-2,464055	2020-10-29T19:45:38:974
1,949573	-1,472898	-2,038878	2020-10-29T19:45:38:997
2,420101	-1,806609	-1,676211	2020-10-29T19:45:39:015
2,345923	-1,756360	-1,738424	2020-10-29T19:45:39:036
2,513062	-1,257145	-2,429692	2020-10-29T19:45:39:054
2,438685	-0,800895	-2,981860	2020-10-29T19:45:39:077
1,960421	-0,507915	-3,349697	2020-10-29T19:45:39:095
1,369836	-0,131431	-3,268923	2020-10-29T19:45:39:116
0,909231	-0,163131	-2,994831	2020-10-29T19:45:39:134
0,447975	-0,444575	-2,892337	2020-10-29T19:45:39:157
0,067613	-0,704983	-2,838382	2020-10-29T19:45:39:174
-0,073365	-0,979758	-2,871096	2020-10-29T19:45:39:197
0,185340	-1,082658	-2,921831	2020-10-29T19:45:39:214
0,444452	-1,213144	-2,829577	2020-10-29T19:45:39:237
0,470593	-1,071576	-2,547690	2020-10-29T19:45:39:254
0,520200	-0,880704	-2,205685	2020-10-29T19:45:39:276
0,579562	-0,541008	-2,022073	2020-10-29T19:45:39:296
0,654269	-0,489291	-1,963913	2020-10-29T19:45:39:317
0,613184	-0,267337	-2,136982	2020-10-29T19:45:39:338
0,646815	-0,039186	-2,209442	2020-10-29T19:45:39:356
0,488494	0,231389	-2,164738	2020-10-29T19:45:39:376
0,570643	0,368936	-2,100218	2020-10-29T19:45:39:397
0,566980	0,564807	-2,021190	2020-10-29T19:45:39:415
0,626969	0,746877	-1,873576	2020-10-29T19:45:39:437
0,714639	0,939393	-1,638159	2020-10-29T19:45:39:455
0,775135	0,716454	-1,437857	2020-10-29T19:45:39:477
0,922600	0,382808	-1,063326	2020-10-29T19:45:39:495
1,060969	-0,228760	-0,615824	2020-10-29T19:45:39:517
1,606051	-0,601401	-0,568681	2020-10-29T19:45:39:536
2,905872	-1,113345	-0,031958	2020-10-29T19:45:39:557
2,875002	-1,167769	0,416455	2020-10-29T19:45:39:578
1,331633	-0,442744	0,636594	2020-10-29T19:45:39:597
0,651355	0,102957	0,547649	2020-10-29T19:45:39:615
0,464738	0,423548	0,654589	2020-10-29T19:45:39:637
0,040065	0,938629	0,583565	2020-10-29T19:45:39:655
-0,615294	1,467976	0,436599	2020-10-29T19:45:39:677
-1,160564	1,817829	0,016354	2020-10-29T19:45:39:695
-1,180487	1,638119	-0,275002	2020-10-29T19:45:39:717
-0,878168	1,552503	-0,489966	2020-10-29T19:45:39:735
-0,296175	1,409989	-0,661366	2020-10-29T19:45:39:757
0,359340	1,243183	-0,618243	2020-10-29T19:45:39:774
1,022586	1,438569	-0,652732	2020-10-29T19:45:39:798
1,202220	1,295828	-0,694791	2020-10-29T19:45:39:816
1,538096	0,827224	-0,689034	2020-10-29T19:45:39:837
1,926664	0,335433	-0,707173	2020-10-29T19:45:39:855
1,878563	0,495285	-1,012691	2020-10-29T19:45:39:878
1,108207	0,679325	-1,076283	2020-10-29T19:45:39:895
0,153159	0,671266	-1,024516	2020-10-29T19:45:39:917
-0,618840	0,544797	-0,801205	2020-10-29T19:45:39:935
-1,047755	0,361032	-0,659335	2020-10-29T19:45:39:957
-1,318526	0,197662	-0,310812	2020-10-29T19:45:39:975
-1,631295	0,299303	-0,113411	2020-10-29T19:45:39:997
-1,725669	0,415824	0,002110	2020-10-29T19:45:40:015
-1,684725	0,561052	-0,052357	2020-10-29T19:45:40:038
-1,528498	0,710291	-0,197519	2020-10-29T19:45:40:056
-1,292670	0,836617	-0,282669	2020-10-29T19:45:40:077
-0,890565	0,888737	-0,200509	2020-10-29T19:45:40:095
-0,169497	0,901002	0,480627	2020-10-29T19:45:40:118
0,585335	1,614395	0,496606	2020-10-29T19:45:40:135
0,994225	1,813541	-0,207099	2020-10-29T19:45:40:157
1,057796	1,390525	-0,417971	2020-10-29T19:45:40:175
1,371856	1,085573	-0,119593	2020-10-29T19:45:40:198
1,730432	0,956207	0,306591	2020-10-29T19:45:40:215
2,699354	0,925997	0,925835	2020-10-29T19:45:40:237
3,806440	0,705110	1,260217	2020-10-29T19:45:40:255
2,961829	0,440288	1,352649	2020-10-29T19:45:40:278
2,131495	-0,160172	1,518063	2020-10-29T19:45:40:296
2,291101	-0,422960	1,471660	2020-10-29T19:45:40:317
1,262810	-0,674334	1,140589	2020-10-29T19:45:40:336
-0,132829	-0,899216	0,718004	2020-10-29T19:45:40:358
0,091593	-0,752151	0,350158	2020-10-29T19:45:40:375
1,589334	-0,460347	-0,147219	2020-10-29T19:45:40:398
2,137718	-0,315635	-0,236324	2020-10-29T19:45:40:415
2,134847	-0,542825	-0,285390	2020-10-29T19:45:40:438
2,475739	-0,357085	-0,572449	2020-10-29T19:45:40:456
2,217313	-0,031661	-0,790196	2020-10-29T19:45:40:478
1,307032	0,002817	-0,915012	2020-10-29T19:45:40:496
0,487902	0,152661	-1,004412	2020-10-29T19:45:40:518
0,108124	0,336411	-1,169676	2020-10-29T19:45:40:537
-0,162455	0,178716	-1,221014	2020-10-29T19:45:40:557
-0,335486	0,060722	-1,221862	2020-10-29T19:45:40:576
-0,601089	-0,341272	-1,195541	2020-10-29T19:45:40:599
-0,606253	-0,307448	-1,222748	2020-10-29T19:45:40:615
-0,830579	-0,400141	-1,128416	2020-10-29T19:45:40:638
-0,959352	-0,107557	-1,150878	2020-10-29T19:45:40:656
-1,180122	0,435113	-1,156094	2020-10-29T19:45:40:678
-1,136836	1,105953	-1,281688	2020-10-29T19:45:40:696
-1,183120	1,442921	-1,391756	2020-10-29T19:45:40:718
-1,153227	1,401816	-1,477897	2020-10-29T19:45:40:736
-1,111224	1,170893	-1,491725	2020-10-29T19:45:40:759
-0,847515	0,813504	-1,616149	2020-10-29T19:45:40:777
-0,340529	0,565870	-1,522500	2020-10-29T19:45:40:798
0,003801	0,361467	-1,197012	2020-10-29T19:45:40:820
0,145067	0,043263	-0,966175	2020-10-29T19:45:40:839
0,296844	-0,322330	-0,725146	2020-10-29T19:45:40:856
0,768233	-0,536901	-0,475163	2020-10-29T19:45:40:878
1,358068	-0,681163	-0,179923	2020-10-29T19:45:40:896
1,247357	-0,683177	0,155977	2020-10-29T19:45:40:919
1,751731	-0,947359	0,211296	2020-10-29T19:45:40:936
3,723269	-1,175874	0,621619	2020-10-29T19:45:40:957
4,466568	-1,111721	1,268676	2020-10-29T19:45:40:976
3,307466	-1,227670	1,605616	2020-10-29T19:45:40:999
2,829831	-1,789462	1,683972	2020-10-29T19:45:41:018
1,418065	-1,557358	1,277192	2020-10-29T19:45:41:038
-1,255601	-1,589707	1,096201	2020-10-29T19:45:41:056
-2,720422	-1,287076	0,767747	2020-10-29T19:45:41:079
-2,337111	-0,913496	0,376085	2020-10-29T19:45:41:096
-1,138133	-0,695724	0,162440	2020-10-29T19:45:41:118
-0,683750	-0,998663	0,243919	2020-10-29T19:45:41:137
-0,784184	-0,953894	0,465213	2020-10-29T19:45:41:159
-0,485082	-0,889288	0,608782	2020-10-29T19:45:41:176
-0,344561	-0,559639	0,670586	2020-10-29T19:45:41:198
-0,488297	-0,295540	0,575152	2020-10-29T19:45:41:216
-0,611986	0,066602	0,387187	2020-10-29T19:45:41:239
-0,609364	0,200732	0,171016	2020-10-29T19:45:41:257
-0,484147	0,487216	0,343241	2020-10-29T19:45:41:278
-0,291279	0,696424	0,800572	2020-10-29T19:45:41:297
-0,081208	0,830904	1,149685	2020-10-29T19:45:41:319
-0,036407	0,783766	1,606548	2020-10-29T19:45:41:336
-0,050813	0,839978	2,143642	2020-10-29T19:45:41:358
-0,199443	1,172461	2,743372	2020-10-29T19:45:41:376
-0,046255	2,089044	3,542614	2020-10-29T19:45:41:399
0,112352	4,174091	3,960053	2020-10-29T19:45:41:416
0,160393	5,792423	4,025962	2020-10-29T19:45:41:439
0,126242	4,750345	4,060561	2020-10-29T19:45:41:456
0,179186	3,051265	3,962164	2020-10-29T19:45:41:479
0,419521	1,251576	3,884230	2020-10-29T19:45:41:497
0,884298	0,268044	3,921569	2020-10-29T19:45:41:518
1,443716	-0,136892	3,700949	2020-10-29T19:45:41:537
2,244427	-1,499219	3,194173	2020-10-29T19:45:41:559
2,175557	-1,633428	3,570192	2020-10-29T19:45:41:577
2,349655	-1,907309	4,039168	2020-10-29T19:45:41:599
3,780732	-2,575296	5,040720	2020-10-29T19:45:41:616
5,263988	-3,231544	5,598159	2020-10-29T19:45:41:639
5,111225	-3,550500	5,470808	2020-10-29T19:45:41:656
4,784472	-3,576594	5,568582	2020-10-29T19:45:41:678
5,059453	-4,024148	5,560542	2020-10-29T19:45:41:696
4,771583	-2,497942	5,699952	2020-10-29T19:45:41:719
3,999608	-0,488731	4,821206	2020-10-29T19:45:41:738
2,294269	1,096356	3,172824	2020-10-29T19:45:41:758
1,043922	1,516296	1,313622	2020-10-29T19:45:41:776
0,104199	1,362787	0,397449	2020-10-29T19:45:41:800
0,170326	-0,710180	0,780439	2020-10-29T19:45:41:816
1,688170	-2,627200	1,217665	2020-10-29T19:45:41:839
3,505338	-1,315025	1,601768	2020-10-29T19:45:41:856
4,547129	-0,184852	0,416036	2020-10-29T19:45:41:879
4,273638	0,749464	-0,955074	2020-10-29T19:45:41:897
3,944098	0,432969	-2,125490	2020-10-29T19:45:41:918
3,487504	0,551512	-2,742184	2020-10-29T19:45:41:937
3,051843	0,653534	-2,762098	2020-10-29T19:45:41:959
2,046342	0,761716	-3,132998	2020-10-29T19:45:41:978
-1,745867	2,510352	-1,651876	2020-10-29T19:45:41:999
-2,050714	2,871480	-2,042418	2020-10-29T19:45:42:017
-2,172526	3,645740	-2,509388	2020-10-29T19:45:42:039
-2,720637	3,978486	-2,314451	2020-10-29T19:45:42:056
-2,598750	3,955640	-2,375431	2020-10-29T19:45:42:078
-2,661142	3,790984	-2,353669	2020-10-29T19:45:42:098
-3,554874	4,594712	-2,435021	2020-10-29T19:45:42:411
-3,877573	4,972090	-2,211266	2020-10-29T19:45:42:411
-3,766120	5,097275	-2,197497	2020-10-29T19:45:42:413
-3,582439	4,989851	-2,041316	2020-10-29T19:45:42:416
-3,669826	5,482437	-2,291225	2020-10-29T19:45:42:419
-4,118721	5,939005	-2,285466	2020-10-29T19:45:42:419
-4,442286	5,475315	-2,361840	2020-10-29T19:45:42:420
-4,642529	5,105462	-2,676689	2020-10-29T19:45:42:420
-4,956873	4,699138	-2,561429	2020-10-29T19:45:42:421
-5,214170	4,590975	-2,973244	2020-10-29T19:45:42:421
-5,583001	4,548311	-2,850975	2020-10-29T19:45:42:422
-5,118793	5,237444	-3,384574	2020-10-29T19:45:42:422
-5,312038	5,276570	-3,196244	2020-10-29T19:45:42:423
-5,018900	4,627269	-2,622565	2020-10-29T19:45:42:423
-4,468551	4,828266	-2,947990	2020-10-29T19:45:42:425
-4,351836	4,754683	-2,626705	2020-10-29T19:45:42:425
-3,966335	4,164970	-1,983773	2020-10-29T19:45:42:441
-3,062272	4,350701	-1,509230	2020-10-29T19:45:42:470
-2,668647	5,884543	-1,773160	2020-10-29T19:45:42:477
-3,202848	6,110214	-2,268926	2020-10-29T19:45:42:496
-3,935052	5,332547	-2,690064	2020-10-29T19:45:42:519
-4,646137	3,627325	-2,312816	2020-10-29T19:45:42:535
-4,402070	2,471592	-1,420294	2020-10-29T19:45:42:557
-4,304956	2,833074	-1,243611	2020-10-29T19:45:42:575
-4,525374	3,949550	-1,537509	2020-10-29T19:45:42:598
-4,402781	4,130875	-1,796078	2020-10-29T19:45:42:618
-4,364495	3,633169	-1,930076	2020-10-29T19:45:42:639
-4,607766	2,715858	-1,549664	2020-10-29T19:45:42:658
-4,729220	2,600329	-1,536351	2020-10-29T19:45:42:680
-4,617637	3,155734	-1,797212	2020-10-29T19:45:42:700
-4,363566	3,773659	-2,255221	2020-10-29T19:45:42:720
-4,243925	3,977049	-2,614144	2020-10-29T19:45:42:738
-3,879466	2,723128	-2,638553	2020-10-29T19:45:42:760
-3,685423	2,127115	-2,422521	2020-10-29T19:45:42:777
-3,656212	1,914985	-2,105554	2020-10-29T19:45:42:800
-3,808735	2,290381	-1,754684	2020-10-29T19:45:42:818
-3,930769	2,721089	-1,766648	2020-10-29T19:45:42:840
-3,696663	2,908141	-2,100137	2020-10-29T19:45:42:858
-3,531620	2,869499	-2,645789	2020-10-29T19:45:42:880
-3,301887	1,943101	-3,053315	2020-10-29T19:45:42:898
-2,861889	0,550993	-3,572565	2020-10-29T19:45:42:920
-2,674732	-0,030115	-3,930056	2020-10-29T19:45:42:939
-2,344960	0,418207	-4,061767	2020-10-29T19:45:42:960
-1,646204	0,656985	-4,499238	2020-10-29T19:45:42:978
-1,146138	0,559994	-4,916552	2020-10-29T19:45:43:001
-1,117806	0,128621	-4,881205	2020-10-29T19:45:43:018
-0,785337	-0,334472	-5,404159	2020-10-29T19:45:43:042
0,848543	-1,809793	-6,555095	2020-10-29T19:45:43:058
-1,597230	-3,761171	-6,000870	2020-10-29T19:45:43:081
-0,898526	-5,797463	-6,491398	2020-10-29T19:45:43:099
-1,550282	-7,057942	-5,244358	2020-10-29T19:45:43:132
-0,874697	-8,081659	-5,370361	2020-10-29T19:45:43:138
-0,057664	-8,133178	-5,942451	2020-10-29T19:45:43:161
1,138748	-9,444444	-7,198683	2020-10-29T19:45:43:186
2,030141	-10,617984	-7,854587	2020-10-29T19:45:43:413
3,451767	-11,965536	-8,073417	2020-10-29T19:45:43:430
4,999923	-12,089963	-7,305320	2020-10-29T19:45:43:431
6,881892	-11,949516	-7,489480	2020-10-29T19:45:43:432
9,445970	-13,329733	-10,119608	2020-10-29T19:45:43:432
12,541710	-16,546494	-12,598427	2020-10-29T19:45:43:441
12,932158	-16,977570	-12,311310	2020-10-29T19:45:43:442
12,880774	-17,047073	-10,708745	2020-10-29T19:45:43:442
12,948570	-18,246660	-7,771460	2020-10-29T19:45:43:443
13,199428	-19,546265	-6,080239	2020-10-29T19:45:43:443
12,687348	-19,287067	-6,682750	2020-10-29T19:45:43:444
11,868546	-18,331291	-7,878675	2020-10-29T19:45:43:444
11,076341	-17,144306	-7,557940	2020-10-29T19:45:43:445
10,779338	-15,311844	-5,552885	2020-10-29T19:45:43:457
10,708729	-13,303648	-4,779369	2020-10-29T19:45:43:480
10,857083	-12,174235	-4,719549	2020-10-29T19:45:43:497
10,560184	-13,127566	-5,111335	2020-10-29T19:45:43:519
9,824057	-13,329199	-5,209467	2020-10-29T19:45:43:537
8,722193	-13,261923	-5,511538	2020-10-29T19:45:43:560
7,811009	-12,542418	-6,068540	2020-10-29T19:45:43:579
7,103642	-11,763202	-6,565238	2020-10-29T19:45:43:600
6,568465	-11,650053	-6,804441	2020-10-29T19:45:43:618
6,122434	-11,630121	-6,917983	2020-10-29T19:45:43:641
5,483864	-11,404119	-7,222890	2020-10-29T19:45:43:660
5,567613	-11,528547	-7,184605	2020-10-29T19:45:43:680
5,120607	-10,827917	-6,960493	2020-10-29T19:45:43:699
4,936921	-10,208627	-6,775472	2020-10-29T19:45:43:721
4,832241	-9,772865	-6,533042	2020-10-29T19:45:43:738
4,496721	-9,591057	-6,389743	2020-10-29T19:45:43:760
3,997992	-9,500940	-5,950966	2020-10-29T19:45:43:779
3,731696	-8,761295	-5,620548	2020-10-29T19:45:43:807
4,005989	-7,687612	-5,409934	2020-10-29T19:45:43:829
3,764091	-7,068429	-4,670734	2020-10-29T19:45:43:853
3,377080	-6,522631	-3,787137	2020-10-29T19:45:43:885
2,322913	-6,264199	-3,493603	2020-10-29T19:45:43:886
0,977123	-4,547933	-2,631531	2020-10-29T19:45:43:904
0,131114	-3,276491	-1,348475	2020-10-29T19:45:43:920
0,288667	-2,736681	-0,832420	2020-10-29T19:45:43:946
2,180269	-4,061605	1,754313	2020-10-29T19:45:43:961
3,082790	-2,246583	0,807453	2020-10-29T19:45:43:977
1,484035	6,530507	-0,213474	2020-10-29T19:45:44:000
-0,853182	8,944993	-0,149868	2020-10-29T19:45:44:019
-1,562032	4,264136	-0,332965	2020-10-29T19:45:44:041
-0,500499	-0,393907	-1,608596	2020-10-29T19:45:44:059
-0,238138	-2,043683	-2,210133	2020-10-29T19:45:44:080
-0,865331	-1,773137	-1,951395	2020-10-29T19:45:44:099
-1,198552	-1,500931	-1,887065	2020-10-29T19:45:44:121
-0,208020	-1,822291	-2,043482	2020-10-29T19:45:44:140
0,303474	-1,587208	-1,862486	2020-10-29T19:45:44:160
0,038920	-1,189422	-1,384001	2020-10-29T19:45:44:179
0,039539	-0,620907	-0,849347	2020-10-29T19:45:44:202
0,311408	-0,599852	-0,606017	2020-10-29T19:45:44:218
0,415851	-1,266250	-0,331969	2020-10-29T19:45:44:241
0,357074	-2,096477	0,021754	2020-10-29T19:45:44:259
0,261553	-2,707036	0,301639	2020-10-29T19:45:44:281
0,347453	-2,986714	0,439036	2020-10-29T19:45:44:300
0,349178	-2,939790	0,458510	2020-10-29T19:45:44:321
0,045595	-2,060596	0,097441	2020-10-29T19:45:44:339
0,001466	-0,662958	-0,244785	2020-10-29T19:45:44:361
0,161077	-0,331679	-0,508577	2020-10-29T19:45:44:380
0,450378	-0,798180	-0,629205	2020-10-29T19:45:44:402
0,472273	-1,072711	-0,457735	2020-10-29T19:45:44:420
0,299990	-0,773608	-0,323737	2020-10-29T19:45:44:442
0,196241	-0,094519	-0,314941	2020-10-29T19:45:44:478
0,082284	0,189301	-0,381042	2020-10-29T19:45:44:489
-0,025394	0,430976	-0,304472	2020-10-29T19:45:44:500
0,000845	0,452517	-0,134261	2020-10-29T19:45:44:524
-0,035857	0,313711	0,097359	2020-10-29T19:45:44:542
0,255408	-0,003362	0,127782	2020-10-29T19:45:44:560
0,381692	-0,524652	0,038046	2020-10-29T19:45:44:582
0,389888	-1,034452	-0,037566	2020-10-29T19:45:44:603
0,162101	-1,251693	-0,077351	2020-10-29T19:45:44:620
0,141599	-1,081147	-0,027003	2020-10-29T19:45:44:641
0,095480	-0,640869	-0,003261	2020-10-29T19:45:44:660
0,159348	-0,191841	-0,048062	2020-10-29T19:45:44:682
0,108114	0,065668	-0,055686	2020-10-29T19:45:44:700
0,086958	0,188460	-0,106194	2020-10-29T19:45:44:721
0,139538	0,305500	-0,247497	2020-10-29T19:45:44:739
0,256375	0,075470	-0,245555	2020-10-29T19:45:44:762
0,305377	-0,063705	-0,173465	2020-10-29T19:45:44:780
0,313494	-0,273191	-0,199456	2020-10-29T19:45:44:802
0,204702	-0,458726	-0,147544	2020-10-29T19:45:44:819
0,008793	-0,534148	-0,170411	2020-10-29T19:45:44:842
-0,039144	-0,456738	-0,171312	2020-10-29T19:45:44:860
0,100028	-0,398591	-0,204683	2020-10-29T19:45:44:881
0,162647	-0,223667	-0,170229	2020-10-29T19:45:44:900
0,219691	-0,236321	-0,152277	2020-10-29T19:45:44:922
0,437266	-0,322879	-0,084759	2020-10-29T19:45:44:939
0,542279	-0,378321	-0,135999	2020-10-29T19:45:44:961
0,317344	-0,381195	-0,158711	2020-10-29T19:45:44:980
0,043184	-0,223501	-0,178694	2020-10-29T19:45:45:002
-0,002426	-0,051625	-0,186518	2020-10-29T19:45:45:020
0,130725	0,057191	-0,288162	2020-10-29T19:45:45:043
0,153644	0,267611	-0,312761	2020-10-29T19:45:45:060
0,254383	0,352974	-0,302482	2020-10-29T19:45:45:082
0,258425	0,312614	-0,348880	2020-10-29T19:45:45:102
0,296710	0,274329	-0,511592	2020-10-29T19:45:45:121
0,193936	0,226805	-0,498709	2020-10-29T19:45:45:140
0,204748	0,179434	-0,453210	2020-10-29T19:45:45:163
0,399084	0,348301	-0,297322	2020-10-29T19:45:45:180
0,424273	0,483870	-0,085179	2020-10-29T19:45:45:202
0,487154	0,520304	-0,030177	2020-10-29T19:45:45:220
0,551617	0,551797	0,113814	2020-10-29T19:45:45:242
0,431093	0,501547	0,104429	2020-10-29T19:45:45:261
0,332987	0,427369	0,185785	2020-10-29T19:45:45:281
0,212684	0,323520	0,011472	2020-10-29T19:45:45:301
0,234406	0,080877	-0,256488	2020-10-29T19:45:45:324
0,141535	-0,048562	-0,488113	2020-10-29T19:45:45:341
0,179274	-0,122643	-0,544945	2020-10-29T19:45:45:362
0,330504	-0,044409	-0,573465	2020-10-29T19:45:45:380
0,494200	0,135998	-0,710883	2020-10-29T19:45:45:403
0,593705	0,337224	-0,644073	2020-10-29T19:45:45:420
0,543962	0,521926	-0,613213	2020-10-29T19:45:45:442
0,442863	0,653655	-0,607343	2020-10-29T19:45:45:460
0,262240	0,599610	-0,492802	2020-10-29T19:45:45:527
0,341967	0,606687	-0,480606	2020-10-29T19:45:45:528
0,508945	0,636217	-0,387451	2020-10-29T19:45:45:529
0,713238	0,732473	-0,340635	2020-10-29T19:45:45:541
0,725665	0,912906	-0,311407	2020-10-29T19:45:45:564
0,688606	0,997167	-0,273761	2020-10-29T19:45:45:587
0,645536	1,054595	-0,271369	2020-10-29T19:45:45:605
0,637238	1,024858	-0,349140	2020-10-29T19:45:45:620
0,646628	1,039270	-0,423952	2020-10-29T19:45:45:642
0,379939	1,080985	-0,334268	2020-10-29T19:45:45:660
0,097375	1,312960	-0,279610	2020-10-29T19:45:45:682
0,033771	1,473869	-0,242242	2020-10-29T19:45:45:701
-0,035841	1,592606	-0,122961	2020-10-29T19:45:45:723
-0,031591	1,653980	-0,080834	2020-10-29T19:45:45:740
0,070184	1,685809	-0,010270	2020-10-29T19:45:45:762
0,152205	1,523856	0,083929	2020-10-29T19:45:45:781
0,168955	1,387465	0,270569	2020-10-29T19:45:45:803
0,010704	1,598594	-0,061046	2020-10-29T19:45:45:821
-0,163417	1,412972	0,119527	2020-10-29T19:45:45:842
0,410470	1,241955	0,698617	2020-10-29T19:45:45:860
1,603395	1,205740	0,634787	2020-10-29T19:45:45:883
2,676814	1,103836	0,251856	2020-10-29T19:45:45:901
2,566733	0,089207	-0,050389	2020-10-29T19:45:45:929
0,576177	3,434000	0,443852	2020-10-29T19:46:04:224
0,770652	3,268839	0,754136	2020-10-29T19:46:04:226
1,326952	3,345639	0,708157	2020-10-29T19:46:04:226
1,769132	3,242688	0,664803	2020-10-29T19:46:04:227
2,000399	3,369122	0,841743	2020-10-29T19:46:04:228
1,918614	3,759289	1,006342	2020-10-29T19:46:04:228
1,762238	3,844414	0,798013	2020-10-29T19:46:04:229
1,487881	3,019985	0,575434	2020-10-29T19:46:04:230
1,275080	2,222052	0,558554	2020-10-29T19:46:04:238
0,994161	1,740069	0,564762	2020-10-29T19:46:04:251
0,781108	1,501746	0,491809	2020-10-29T19:46:04:260
0,577719	1,250500	0,534880	2020-10-29T19:46:04:291
0,437318	0,624161	0,502852	2020-10-29T19:46:04:304
0,477996	0,672017	0,411925	2020-10-29T19:46:04:324
0,059285	0,182381	0,220666	2020-10-29T19:46:04:402
-0,146663	-0,300544	0,215171	2020-10-29T19:46:04:405
0,200296	0,008130	0,152958	2020-10-29T19:46:04:405
1,660429	0,143640	0,120396	2020-10-29T19:46:04:406
3,112029	0,067409	0,262421	2020-10-29T19:46:04:420
3,367848	-0,346250	0,549678	2020-10-29T19:46:04:436
3,064097	-0,823504	0,766444	2020-10-29T19:46:04:459
2,311050	-1,531255	0,819376	2020-10-29T19:46:04:481
0,778371	-1,875296	0,963306	2020-10-29T19:46:04:499
-0,854341	-1,788983	1,061259	2020-10-29T19:46:04:518
-1,040980	-1,609521	1,049295	2020-10-29T19:46:04:540
-0,299446	-1,130373	0,332597	2020-10-29T19:46:04:558
0,538719	-1,396387	0,387425	2020-10-29T19:46:04:580
2,419166	-0,715867	-0,387869	2020-10-29T19:46:04:598
3,385864	1,545350	-1,002824	2020-10-29T19:46:04:621
1,751333	-0,763236	-1,404226	2020-10-29T19:46:04:638
2,212276	1,544583	-3,549006	2020-10-29T19:46:04:660
0,646791	3,769846	-2,211447	2020-10-29T19:46:04:679
-0,398591	-0,543271	-1,472945	2020-10-29T19:46:04:700
-0,812881	-1,869925	-1,851123	2020-10-29T19:46:04:720
-1,326211	-2,593408	-2,606272	2020-10-29T19:46:04:744
-1,413239	-3,791674	-2,341200	2020-10-29T19:46:04:758
-1,196967	-3,551191	-1,861083	2020-10-29T19:46:04:780
-0,998451	-2,512356	-1,934924	2020-10-29T19:46:04:798
-0,574377	-1,237454	-2,130759	2020-10-29T19:46:04:820
-0,425464	-0,667219	-2,171193	2020-10-29T19:46:04:839
-0,271686	0,085444	-2,232986	2020-10-29T19:46:04:861
-0,267100	0,810392	-1,854254	2020-10-29T19:46:04:879
-0,171387	0,762535	-1,504902	2020-10-29T19:46:04:900
0,074067	0,635421	-1,221964	2020-10-29T19:46:04:920
0,484750	0,073649	-1,047444	2020-10-29T19:46:04:941
0,760833	-0,193297	-1,009183	2020-10-29T19:46:04:958
0,771456	0,079906	-0,929515	2020-10-29T19:46:04:980
0,826005	0,348771	-0,769800	2020-10-29T19:46:04:998
0,842456	0,675643	-0,470310	2020-10-29T19:46:05:022
0,651524	1,001683	-0,197430	2020-10-29T19:46:05:062
4,676163	0,892929	1,883011	2020-10-29T19:46:38:157
3,485244	1,296676	1,283525	2020-10-29T19:46:38:161
1,920940	1,010062	0,239003	2020-10-29T19:46:38:165
0,424430	1,399901	-0,648852	2020-10-29T19:46:38:167
-0,355997	1,917993	-1,386500	2020-10-29T19:46:38:176
0,442429	2,086700	-1,819375	2020-10-29T19:46:38:193
2,124439	1,629869	-1,917832	2020-10-29T19:46:38:207
3,367826	0,791755	-1,708584	2020-10-29T19:46:38:220
3,558493	-0,198143	-1,942710	2020-10-29T19:46:38:232
3,296399	-0,595023	-2,375368	2020-10-29T19:46:38:266
2,690938	0,171547	-3,017952	2020-10-29T19:46:38:272
2,248034	1,160089	-3,424438	2020-10-29T19:46:38:289
1,434563	2,029479	-3,352803	2020-10-29T19:46:38:310
0,874143	2,570966	-3,365086	2020-10-29T19:46:38:327
0,777917	2,610518	-3,494533	2020-10-29T19:46:38:349
0,806071	2,030652	-3,585388	2020-10-29T19:46:38:369
0,854894	1,782073	-3,810245	2020-10-29T19:46:38:391
0,938012	1,601649	-3,791714	2020-10-29T19:46:38:410
1,289757	1,247511	-3,710359	2020-10-29T19:46:38:430
1,449262	1,222088	-3,439137	2020-10-29T19:46:38:448
1,124305	1,310970	-2,844337	2020-10-29T19:46:38:471
0,929219	1,310223	-2,209908	2020-10-29T19:46:38:489
0,809820	1,523464	-1,636706	2020-10-29T19:46:38:511
0,584454	1,483130	-1,400620	2020-10-29T19:46:38:530
0,241349	1,507887	-0,868712	2020-10-29T19:46:38:551
0,132937	1,388639	-0,192431	2020-10-29T19:46:38:568
0,225601	0,946242	0,505192	2020-10-29T19:46:38:592
0,604348	0,640980	1,138364	2020-10-29T19:46:38:608
0,906968	0,595011	1,661045	2020-10-29T19:46:38:633
0,716969	0,916232	2,027526	2020-10-29T19:46:38:648
0,508359	1,512425	2,288439	2020-10-29T19:46:38:672
0,434329	2,019984	2,290094	2020-10-29T19:46:38:689
0,368974	2,624477	2,164055	2020-10-29T19:46:38:712
0,349065	2,850204	2,017353	2020-10-29T19:46:38:729
1,671324	2,720251	1,178192	2020-10-29T19:46:38:752
3,209075	2,415249	1,715436	2020-10-29T19:46:38:770
3,581118	2,175680	2,055043	2020-10-29T19:46:38:792
3,581948	1,613011	2,391381	2020-10-29T19:46:38:809
2,730582	1,095306	2,748065	2020-10-29T19:46:38:832
0,394604	0,323013	2,482092	2020-10-29T19:46:38:848
-2,252578	0,079674	2,091235	2020-10-29T19:46:38:872
-3,593515	-0,182946	2,032704	2020-10-29T19:46:38:889
-2,692498	-0,653893	1,999339	2020-10-29T19:46:38:912
-1,153837	-1,274547	2,160242	2020-10-29T19:46:38:929
-0,203866	-1,895246	2,223693	2020-10-29T19:46:38:952
0,569516	-2,386161	2,005621	2020-10-29T19:46:38:969
1,084796	-2,322700	1,055396	2020-10-29T19:46:38:992
1,207392	-1,715695	0,133014	2020-10-29T19:46:39:010
1,075380	-1,332825	-0,367578	2020-10-29T19:46:39:032
1,043058	-0,666650	-0,823669	2020-10-29T19:46:39:049
1,010686	-0,192210	-1,194450	2020-10-29T19:46:39:071
0,980362	-0,239296	-1,436956	2020-10-29T19:46:39:089
0,695739	-0,166336	-1,809190	2020-10-29T19:46:39:112
0,444335	-0,285270	-2,020346	2020-10-29T19:46:39:129
0,204360	-0,312300	-2,119814	2020-10-29T19:46:39:151
-0,139847	-0,455384	-2,030226	2020-10-29T19:46:39:169
-0,287379	-0,719331	-1,780432	2020-10-29T19:46:39:194
-0,098376	-0,975524	-1,610322	2020-10-29T19:46:39:209
0,451777	-1,115802	-1,516096	2020-10-29T19:46:39:231
0,819570	-0,812939	-1,748815	2020-10-29T19:46:39:251
0,878148	-0,289721	-2,123635	2020-10-29T19:46:39:272
1,019324	-0,081545	-2,513665	2020-10-29T19:46:39:290
1,509375	0,277252	-3,002641	2020-10-29T19:46:39:311
1,588757	0,523876	-3,045623	2020-10-29T19:46:39:329
1,471754	0,909899	-3,143551	2020-10-29T19:46:39:352
1,160080	1,011576	-3,113691	2020-10-29T19:46:39:370
0,750457	1,163054	-3,142119	2020-10-29T19:46:39:392
0,350906	1,247496	-3,145374	2020-10-29T19:46:39:409
0,127015	1,285429	-3,291957	2020-10-29T19:46:39:433
-0,091583	1,228422	-3,261665	2020-10-29T19:46:39:449
-0,140296	0,965044	-3,425895	2020-10-29T19:46:39:472
0,136028	0,604977	-3,273582	2020-10-29T19:46:39:491
1,065128	-0,443458	-2,985377	2020-10-29T19:46:39:512
11,533228	1,514483	-5,620325	2020-10-29T19:46:39:529
12,378596	0,964860	-5,824235	2020-10-29T19:46:39:552
13,223407	0,319211	-6,056255	2020-10-29T19:46:39:569
13,894988	-0,282226	-6,125159	2020-10-29T19:46:39:593
13,298232	-0,253314	-6,248759	2020-10-29T19:46:39:610
11,886718	0,057389	-6,532686	2020-10-29T19:46:39:632
11,205131	0,176938	-7,053028	2020-10-29T19:46:39:649
11,052178	0,715906	-7,288785	2020-10-29T19:46:39:673
11,039646	0,908364	-7,230044	2020-10-29T19:46:39:690
11,079075	1,030791	-6,846271	2020-10-29T19:46:39:712
11,109694	1,056680	-6,353290	2020-10-29T19:46:39:731
11,287926	0,913511	-6,250802	2020-10-29T19:46:39:752
11,555969	1,146405	-6,303699	2020-10-29T19:46:39:769
12,058195	1,508962	-6,384074	2020-10-29T19:46:39:792
12,198876	1,442848	-6,135475	2020-10-29T19:46:39:809
12,192699	1,136075	-5,834449	2020-10-29T19:46:39:833
11,823850	0,810917	-5,618769	2020-10-29T19:46:39:850
11,770226	-0,007298	-5,491212	2020-10-29T19:46:39:872
11,873487	0,027829	-5,407280	2020-10-29T19:46:39:890
12,425692	1,599491	9,091660	2020-10-29T19:46:39:913
12,607547	2,140269	9,577403	2020-10-29T19:46:39:929
12,641708	3,142063	10,009499	2020-10-29T19:46:39:952
12,246396	3,918494	9,835737	2020-10-29T19:46:39:970
11,685429	3,916421	9,702285	2020-10-29T19:46:39:993
11,237892	3,603021	9,733950	2020-10-29T19:46:40:010
10,896442	4,083823	10,024244	2020-10-29T19:46:40:032
10,739884	3,540024	11,139004	2020-10-29T19:46:40:050
10,599737	1,909854	-1,894718	2020-10-29T19:46:40:073
11,134679	0,617649	-2,092060	2020-10-29T19:46:40:091
10,779964	0,265442	-3,108823	2020-10-29T19:46:40:112
9,683912	0,823930	-3,923215	2020-10-29T19:46:40:130
8,983295	1,693666	-4,355137	2020-10-29T19:46:40:153
8,729613	2,268870	-4,542826	2020-10-29T19:46:40:170
8,560227	2,573954	-4,562224	2020-10-29T19:46:40:193
8,366863	2,578759	-4,531252	2020-10-29T19:46:40:212
8,347721	2,849148	-4,385290	2020-10-29T19:46:40:233
8,851933	2,790830	-4,484582	2020-10-29T19:46:40:250
9,340068	3,034899	-4,448690	2020-10-29T19:46:40:272
9,608194	2,693107	-4,438912	2020-10-29T19:46:40:290
9,809762	1,855282	-4,075916	2020-10-29T19:46:40:313
9,561214	1,704461	-4,033988	2020-10-29T19:46:40:330
9,295532	2,052661	-4,318972	2020-10-29T19:46:40:352
8,955496	2,444785	-4,373921	2020-10-29T19:46:40:370
8,587852	2,867919	-4,418570	2020-10-29T19:46:40:394
8,056174	3,407682	-4,213974	2020-10-29T19:46:40:410
7,736564	3,423281	-3,837688	2020-10-29T19:46:40:433
7,296482	3,212543	-3,341739	2020-10-29T19:46:40:452
6,845243	2,779026	-2,862029	2020-10-29T19:46:40:473
6,274800	2,009107	-2,523853	2020-10-29T19:46:40:491
5,666106	2,463582	-2,054455	2020-10-29T19:46:40:513
5,379728	2,743372	-2,510179	2020-10-29T19:46:40:530
5,414341	3,422809	-3,269978	2020-10-29T19:46:40:554
5,516342	3,665314	-3,594607	2020-10-29T19:46:40:570
0,585438	0,102443	-0,401793	2020-10-29T19:46:40:593
0,448697	0,021198	-0,572932	2020-10-29T19:46:40:611
0,483173	0,121345	-0,648053	2020-10-29T19:46:40:634
0,158741	0,047405	-0,534230	2020-10-29T19:46:40:651
-0,063791	0,088083	-0,787869	2020-10-29T19:46:40:673
-0,397513	-0,119157	-0,552009	2020-10-29T19:46:40:694
-0,739687	-0,013873	-0,410833	2020-10-29T19:46:40:713
-1,069522	-0,135636	-0,143485	2020-10-29T19:46:40:731
-1,181149	-0,310250	0,050058	2020-10-29T19:46:40:753
-1,375251	-0,878377	0,136165	2020-10-29T19:46:40:770
-2,023518	-0,910740	0,045708	2020-10-29T19:46:40:794
-2,642112	-0,762747	-0,288325	2020-10-29T19:46:40:811
-1,264056	-1,273156	-0,226325	2020-10-29T19:46:40:833
1,659230	-2,778177	-1,087862	2020-10-29T19:46:40:851
0,558777	-0,304572	-0,709435	2020-10-29T19:46:40:874
0,737485	-0,535558	-0,436573	2020-10-29T19:46:40:891
2,329319	-0,141329	-0,089939	2020-10-29T19:46:40:913
3,869375	1,365367	0,171327	2020-10-29T19:46:40:932
4,471768	1,991408	0,499698	2020-10-29T19:46:40:954
3,726280	1,251661	1,294422	2020-10-29T19:46:40:971
2,776916	2,079064	1,736517	2020-10-29T19:46:40:994
2,395623	4,773974	1,766169	2020-10-29T19:46:41:010
2,367712	5,589367	1,062310	2020-10-29T19:46:41:034
1,358910	5,357790	0,356585	2020-10-29T19:46:41:051
0,743756	3,814939	-0,613859	2020-10-29T19:46:41:073
0,572264	2,754243	-1,433631	2020-10-29T19:46:41:092
0,530168	2,667639	-2,192082	2020-10-29T19:46:41:114
0,925603	2,111902	-2,760583	2020-10-29T19:46:41:131
1,115965	1,516552	-3,275139	2020-10-29T19:46:41:153
0,944828	0,553824	-3,596957	2020-10-29T19:46:41:172
0,811383	0,000023	-3,542134	2020-10-29T19:46:41:194
1,023645	-0,231528	-3,412108	2020-10-29T19:46:41:211
0,900771	-0,206476	-2,965356	2020-10-29T19:46:41:233
0,241121	0,090606	-2,558340	2020-10-29T19:46:41:251
-0,172220	0,377350	-1,907102	2020-10-29T19:46:41:274
-0,539737	0,422542	-1,556247	2020-10-29T19:46:41:292
-0,939338	0,250259	-1,527533	2020-10-29T19:46:41:313
-0,598981	0,378705	-1,324132	2020-10-29T19:46:41:331
0,278318	0,374412	-1,311656	2020-10-29T19:46:41:354
0,257050	0,153821	-1,297655	2020-10-29T19:46:41:371
0,381013	0,650531	-0,855060	2020-10-29T19:46:41:394
0,830088	1,228302	-1,000549	2020-10-29T19:46:41:412
1,027392	1,329331	-0,620314	2020-10-29T19:46:41:434
0,840207	2,103520	-0,112572	2020-10-29T19:46:41:451
0,529774	2,936112	0,035574	2020-10-29T19:46:41:474
0,115471	2,558610	0,200332	2020-10-29T19:46:41:492
-0,028945	1,493176	0,391303	2020-10-29T19:46:41:515
-0,333673	0,712561	0,113895	2020-10-29T19:46:41:531
-0,013725	0,222455	0,046421	2020-10-29T19:46:41:553
-0,025190	-0,039386	-0,200211	2020-10-29T19:46:41:571
-0,333658	-0,179723	-0,128975	2020-10-29T19:46:41:596
-0,612774	-0,140675	-0,124250	2020-10-29T19:46:41:611
-0,830667	-0,298448	-0,143316	2020-10-29T19:46:41:634
-1,072905	-0,329225	-0,174685	2020-10-29T19:46:41:654
-0,769016	-0,609185	-0,119650	2020-10-29T19:46:41:675
-0,998976	-0,829983	-0,075835	2020-10-29T19:46:41:692
-1,369202	-0,994248	-0,269121	2020-10-29T19:46:41:714
-1,545168	-1,262360	-0,395751	2020-10-29T19:46:41:732
-1,536288	-0,604596	-0,402365	2020-10-29T19:46:41:755
-1,211928	0,096677	-0,331200	2020-10-29T19:46:41:771
-0,266134	0,500626	-0,108258	2020-10-29T19:46:41:794
2,088441	-0,296068	-0,520792	2020-10-29T19:46:41:812
4,803736	-0,118332	-1,070753	2020-10-29T19:46:41:835
6,773499	-0,077343	-1,789762	2020-10-29T19:46:41:851
6,757181	-1,041585	-1,725064	2020-10-29T19:46:41:874
5,601460	-2,228503	-1,142837	2020-10-29T19:46:41:893
3,622691	-2,582568	-0,097982	2020-10-29T19:46:41:914
1,293409	-2,027274	0,635645	2020-10-29T19:46:41:932
-0,808826	-1,768704	0,790659	2020-10-29T19:46:41:954
-1,265592	-1,965748	0,619646	2020-10-29T19:46:41:972
0,284373	-2,626479	-0,320654	2020-10-29T19:46:41:995
0,592516	-1,984061	-0,977014	2020-10-29T19:46:42:012
0,253992	-1,339149	-1,388283	2020-10-29T19:46:42:034
0,008578	-0,641673	-1,533664	2020-10-29T19:46:42:052
-0,328546	-0,165908	-1,467606	2020-10-29T19:46:42:075
-0,730648	0,326588	-1,032976	2020-10-29T19:46:42:092
-1,197848	0,921959	-0,679077	2020-10-29T19:46:42:114
-1,397202	0,323297	-0,590718	2020-10-29T19:46:42:133
-1,892459	-1,248030	-0,662727	2020-10-29T19:46:42:155
-2,389025	-1,582776	-0,887614	2020-10-29T19:46:42:172
-2,359652	-1,453941	-0,914065	2020-10-29T19:46:42:195
-1,166445	-1,341321	-1,228783	2020-10-29T19:46:42:212
0,185721	-1,363658	-1,215240	2020-10-29T19:46:42:235
0,955557	-0,981778	-1,068433	2020-10-29T19:46:42:252
0,963202	-0,037344	-0,900554	2020-10-29T19:46:42:274
0,894488	0,814365	-0,690624	2020-10-29T19:46:42:293
1,176692	0,892984	-0,722318	2020-10-29T19:46:42:316
2,360677	0,547575	-0,442669	2020-10-29T19:46:42:332
2,248533	0,258387	-0,366712	2020-10-29T19:46:42:354
0,695630	0,773667	-0,260907	2020-10-29T19:46:42:375
0,817663	0,591813	-0,239372	2020-10-29T19:46:42:396
1,872515	-0,070127	0,300395	2020-10-29T19:46:42:412
2,173595	-0,146498	1,102566	2020-10-29T19:46:42:435
2,343486	0,162176	1,226993	2020-10-29T19:46:42:452
2,179078	-0,108134	0,802349	2020-10-29T19:46:42:476
1,827188	-0,344176	0,452568	2020-10-29T19:46:42:493
1,618906	-0,090728	0,513808	2020-10-29T19:46:42:514
1,234344	0,345738	0,653621	2020-10-29T19:46:42:532
0,776451	0,827624	0,863029	2020-10-29T19:46:42:557
0,360016	1,041372	0,803290	2020-10-29T19:46:42:572
-0,201175	1,145562	0,929102	2020-10-29T19:46:42:595
-0,708122	1,403154	0,851822	2020-10-29T19:46:42:613
-1,175085	1,905070	0,980186	2020-10-29T19:46:42:636
-1,500817	2,250105	1,019198	2020-10-29T19:46:42:652
-1,525748	2,337073	1,108162	2020-10-29T19:46:42:674
-1,066784	2,351251	0,478591	2020-10-29T19:46:42:694
0,157226	2,226737	0,208495	2020-10-29T19:46:42:716
1,666024	1,798148	0,396184	2020-10-29T19:46:42:733
3,206782	0,250470	-0,011712	2020-10-29T19:46:42:754
3,308971	-0,791773	-0,444695	2020-10-29T19:46:42:772
2,155780	-0,559516	-0,494182	2020-10-29T19:46:42:796
1,829105	-0,871981	-0,480761	2020-10-29T19:46:42:812
1,496299	-0,522034	-0,340704	2020-10-29T19:46:42:834
0,831017	-0,077681	-0,253491	2020-10-29T19:46:42:854
0,097872	0,789283	-0,248076	2020-10-29T19:46:42:876
-0,415771	0,908263	-0,420641	2020-10-29T19:46:42:893
-0,157314	0,073130	-0,655117	2020-10-29T19:46:42:915
0,137706	-0,014228	-0,786066	2020-10-29T19:46:42:934
0,224223	1,000751	-0,707387	2020-10-29T19:46:42:956
0,363802	1,710870	-0,936954	2020-10-29T19:46:42:973
0,428967	1,861259	-1,094463	2020-10-29T19:46:42:995
0,386570	1,795120	-0,889813	2020-10-29T19:46:43:013
0,403226	2,110665	0,091871	2020-10-29T19:46:43:036
0,372066	2,788417	0,311201	2020-10-29T19:46:43:053
0,336174	2,345745	0,629446	2020-10-29T19:46:43:075
0,385780	1,307288	1,190351	2020-10-29T19:46:43:096
0,280497	0,689939	1,795736	2020-10-29T19:46:43:116
0,262941	0,634802	1,842070	2020-10-29T19:46:43:133
0,085183	0,558307	1,373696	2020-10-29T19:46:43:157
-0,201319	0,502367	0,760045	2020-10-29T19:46:43:173
-0,026849	1,237201	0,521544	2020-10-29T19:46:43:197
0,426122	1,580296	0,053722	2020-10-29T19:46:43:213
0,307159	1,411582	-0,345935	2020-10-29T19:46:43:235
0,064766	1,433806	-0,690519	2020-10-29T19:46:43:253
0,205239	1,175859	-0,613053	2020-10-29T19:46:43:276
0,112454	0,656302	-0,002113	2020-10-29T19:46:43:294
-0,272646	1,439333	0,715173	2020-10-29T19:46:43:316
-0,478245	1,260433	0,192304	2020-10-29T19:46:43:334
-0,967951	-0,025448	0,153381	2020-10-29T19:46:43:356
-1,562665	-0,265112	0,398499	2020-10-29T19:46:43:373
-1,931536	-0,253659	0,665455	2020-10-29T19:46:43:396
-2,066123	0,072192	0,776830	2020-10-29T19:46:43:413
-1,883599	0,084312	0,544787	2020-10-29T19:46:43:436
-1,996958	0,238481	0,229980	2020-10-29T19:46:43:453
-1,836629	0,332480	-0,429903	2020-10-29T19:46:43:475
0,418046	0,486311	0,393274	2020-10-29T19:46:43:494
3,843658	0,017237	0,459984	2020-10-29T19:46:43:516
5,396737	-1,086738	0,395337	2020-10-29T19:46:43:533
5,159213	-1,241588	-0,140146	2020-10-29T19:46:43:556
6,039060	-1,865858	-0,108897	2020-10-29T19:46:43:576
6,792800	-1,313116	-0,372108	2020-10-29T19:46:43:597
5,395702	-0,619654	-0,570567	2020-10-29T19:46:43:613
3,774807	0,150101	-0,854052	2020-10-29T19:46:43:636
2,738068	0,277017	-1,238372	2020-10-29T19:46:43:654
2,194896	0,848902	-1,630795	2020-10-29T19:46:43:678
1,210470	1,394182	-2,011094	2020-10-29T19:46:43:695
0,715157	2,071351	-1,944095	2020-10-29T19:46:43:715
0,268619	2,136869	-1,606433	2020-10-29T19:46:43:734
-0,175604	1,586843	-1,179237	2020-10-29T19:46:43:756
-0,307749	1,206857	-0,849081	2020-10-29T19:46:43:773
-0,239858	0,605878	-0,825210	2020-10-29T19:46:43:796
-0,196387	0,264723	-0,788412	2020-10-29T19:46:43:816
-0,105550	0,238312	-0,868997	2020-10-29T19:46:43:837
-0,031373	0,209598	-0,883354	2020-10-29T19:46:43:854
0,128041	0,612580	-0,921993	2020-10-29T19:46:43:876
0,069210	1,351442	-0,950485	2020-10-29T19:46:43:894
-0,009133	1,539560	-1,102899	2020-10-29T19:46:43:917
0,392157	1,759902	-1,148458	2020-10-29T19:46:43:934
0,520175	1,863673	-0,879569	2020-10-29T19:46:43:955
-0,462916	1,945912	-0,585805	2020-10-29T19:46:43:974
-1,060281	1,727138	-0,640859	2020-10-29T19:46:43:997
-0,676456	1,239733	-0,641142	2020-10-29T19:46:44:014
-0,374559	1,112858	-0,697168	2020-10-29T19:46:44:036
-0,154065	0,967602	-0,627613	2020-10-29T19:46:44:055
0,105315	0,846907	-0,465842	2020-10-29T19:46:44:076
0,497607	0,665464	-0,343086	2020-10-29T19:46:44:094
0,432570	0,613112	-0,068034	2020-10-29T19:46:44:116
0,213131	0,690094	0,039241	2020-10-29T19:46:44:134
0,175741	0,796742	0,051425	2020-10-29T19:46:44:157
0,616633	0,936711	0,000002	2020-10-29T19:46:44:174
0,680509	0,996484	0,032826	2020-10-29T19:46:44:197
0,705546	0,986930	0,093822	2020-10-29T19:46:44:215
0,562881	1,484701	0,008685	2020-10-29T19:46:44:238
0,133865	2,220588	-0,252292	2020-10-29T19:46:44:254
-0,187858	1,467700	-0,078978	2020-10-29T19:46:44:276
-0,068871	-0,371925	0,159163	2020-10-29T19:46:44:297
0,249373	-1,372125	0,408016	2020-10-29T19:46:44:317
0,426682	-1,543795	0,444552	2020-10-29T19:46:44:334
3,102868	-1,878828	0,909190	2020-10-29T19:46:44:357
6,771953	-2,422011	1,214996	2020-10-29T19:46:44:374
5,310618	-2,008750	1,402333	2020-10-29T19:46:44:398
1,092274	-1,100116	1,847327	2020-10-29T19:46:44:414
-0,755899	-0,915700	1,493521	2020-10-29T19:46:44:436
-0,835034	-1,117444	1,311283	2020-10-29T19:46:44:454
-1,121626	-1,173817	1,278264	2020-10-29T19:46:44:477
-1,818159	-1,064128	1,400792	2020-10-29T19:46:44:495
-2,101936	-0,989883	1,322431	2020-10-29T19:46:44:517
-1,752342	-1,092555	1,107137	2020-10-29T19:46:44:535
-1,196829	-0,812297	0,701702	2020-10-29T19:46:44:558
-0,771444	-0,260576	0,250407	2020-10-29T19:46:44:574
-0,286298	0,455050	-0,071476	2020-10-29T19:46:44:597
-0,026523	1,043530	-0,412150	2020-10-29T19:46:44:615
-0,039953	1,192719	-0,646000	2020-10-29T19:46:44:638
-0,093156	1,250165	-0,730366	2020-10-29T19:46:44:654
-0,340448	0,995820	-0,815493	2020-10-29T19:46:44:677
-0,630399	1,104589	-0,744670	2020-10-29T19:46:44:695
-0,753743	0,946126	-0,576146	2020-10-29T19:46:44:718
-0,756119	0,728930	-0,231449	2020-10-29T19:46:44:735
-0,713663	0,648618	0,160027	2020-10-29T19:46:44:757
-0,425817	0,720006	0,460969	2020-10-29T19:46:44:777
0,141283	0,574044	0,860570	2020-10-29T19:46:44:798
0,951645	0,649237	1,512115	2020-10-29T19:46:44:814
2,122940	0,808512	2,268556	2020-10-29T19:46:44:837
2,294314	2,071341	2,882109	2020-10-29T19:46:44:854
1,700078	3,970423	3,486006	2020-10-29T19:46:44:878
1,516317	5,383976	3,546480	2020-10-29T19:46:44:895
1,177181	4,970749	2,462522	2020-10-29T19:46:44:918
0,131977	1,188130	2,060748	2020-10-29T19:46:44:935
-0,455333	-1,690919	1,817594	2020-10-29T19:46:44:958
-0,507341	-1,134225	1,316500	2020-10-29T19:46:44:975
-0,597691	-0,339942	0,602716	2020-10-29T19:46:44:998
-0,673699	-0,618117	0,316566	2020-10-29T19:46:45:016
-0,814218	-0,433815	0,037507	2020-10-29T19:46:45:037
-0,957134	0,435605	-0,369456	2020-10-29T19:46:45:057
-1,146917	1,049214	-0,809109	2020-10-29T19:46:45:077
-1,537895	1,192873	-0,841564	2020-10-29T19:46:45:095
-1,577447	1,286759	-0,793576	2020-10-29T19:46:45:118
-0,866963	0,994220	-0,963009	2020-10-29T19:46:45:135
2,658662	-0,293607	-0,191254	2020-10-29T19:46:45:157
5,668412	-1,721658	0,580797	2020-10-29T19:46:45:174
4,933834	-2,378941	0,634269	2020-10-29T19:46:45:199
2,027465	-2,358053	0,490054	2020-10-29T19:46:45:215
0,516374	-2,347518	0,123149	2020-10-29T19:46:45:238
0,135737	-1,828965	1,003587	2020-10-29T19:46:45:257
0,070930	-1,125741	1,136605	2020-10-29T19:46:45:278
0,989773	-0,790745	0,739396	2020-10-29T19:46:45:296
2,319089	-1,119635	0,229480	2020-10-29T19:46:45:317
2,351472	-1,489308	-0,170605	2020-10-29T19:46:45:335
1,852904	-0,663541	-0,486962	2020-10-29T19:46:45:358
1,307627	0,244033	-0,643293	2020-10-29T19:46:45:375
0,536414	0,964056	-1,021417	2020-10-29T19:46:45:398
-0,126662	1,210481	-1,199935	2020-10-29T19:46:45:416
-0,480800	1,232017	-0,924760	2020-10-29T19:46:45:438
-0,291198	0,820117	-0,961513	2020-10-29T19:46:45:455
-0,009812	0,250479	-0,897803	2020-10-29T19:46:45:477
0,315067	-0,554354	-1,020583	2020-10-29T19:46:45:497
0,472447	-1,124272	-1,388524	2020-10-29T19:46:45:518
0,664642	-1,330060	-1,560810	2020-10-29T19:46:45:535
0,760354	-1,373839	-1,656085	2020-10-29T19:46:45:557
0,761833	-1,100432	-1,620805	2020-10-29T19:46:45:575
0,975581	-0,601547	-1,577072	2020-10-29T19:46:45:599
1,017174	-0,148931	-1,589292	2020-10-29T19:46:45:615
0,927686	0,351129	-1,523247	2020-10-29T19:46:45:637
0,714764	0,777651	-1,646499	2020-10-29T19:46:45:655
0,327908	0,880646	-1,727050	2020-10-29T19:46:45:678
0,052395	1,143688	-1,657337	2020-10-29T19:46:45:696
-0,186878	1,164841	-1,691155	2020-10-29T19:46:45:718
-0,220559	1,277881	-1,584734	2020-10-29T19:46:45:737
-0,066804	1,369114	-1,767904	2020-10-29T19:46:45:758
-0,059430	1,483342	-1,681162	2020-10-29T19:46:45:776
-0,131191	1,426668	-1,416404	2020-10-29T19:46:45:798
-0,034071	1,391689	-1,133188	2020-10-29T19:46:45:816
0,108823	1,189597	-0,983455	2020-10-29T19:46:45:839
0,177984	1,242057	-0,694262	2020-10-29T19:46:45:855
-0,021394	1,264880	-0,405833	2020-10-29T19:46:45:877
-0,028384	1,438224	0,130124	2020-10-29T19:46:45:896
-0,090710	1,575862	0,187460	2020-10-29T19:46:45:918
0,622051	2,024764	-0,608426	2020-10-29T19:46:45:936
3,005224	1,557139	-0,495655	2020-10-29T19:46:45:958
3,942370	1,399729	-0,085305	2020-10-29T19:46:45:977
2,563887	1,727102	0,279930	2020-10-29T19:46:45:999
0,704453	1,743385	0,450992	2020-10-29T19:46:46:016
0,417521	1,012394	0,010226	2020-10-29T19:46:46:038
0,656277	0,543148	-0,146218	2020-10-29T19:46:46:056
1,103735	1,698881	-1,155989	2020-10-29T19:46:46:078
1,380476	2,337013	-1,158412	2020-10-29T19:46:46:097
1,155190	0,332879	0,024424	2020-10-29T19:46:46:118
0,867850	-1,246558	0,378561	2020-10-29T19:46:46:136
0,323586	-1,562139	-0,070864	2020-10-29T19:46:46:159
0,180515	-1,260241	-0,655878	2020-10-29T19:46:46:176
0,069155	-1,301197	-0,819364	2020-10-29T19:46:46:199
-0,065849	-1,286102	-0,615340	2020-10-29T19:46:46:217
0,018904	-1,232566	-0,624071	2020-10-29T19:46:46:239
-0,100355	-1,326636	-0,629640	2020-10-29T19:46:46:256
-0,487184	-1,443371	-0,563684	2020-10-29T19:46:46:278
-0,618818	-1,660403	-0,519041	2020-10-29T19:46:46:296
-0,702160	-1,899038	-0,453957	2020-10-29T19:46:46:319
-0,376560	-2,085848	-0,201614	2020-10-29T19:46:46:336
-0,025551	-2,257697	0,128329	2020-10-29T19:46:46:358
0,173090	-2,311758	0,525374	2020-10-29T19:46:46:376
0,370449	-2,378439	0,905662	2020-10-29T19:46:46:400
0,173368	-2,203438	1,305943	2020-10-29T19:46:46:416
-0,056430	-2,361688	1,863323	2020-10-29T19:46:46:438
-0,024314	-2,775552	2,349787	2020-10-29T19:46:46:459
0,025935	-2,234774	2,754174	2020-10-29T19:46:46:479
-0,307718	-2,063639	3,158167	2020-10-29T19:46:46:498
-0,555258	-1,834161	3,456348	2020-10-29T19:46:46:518
-0,658121	-1,635602	3,611305	2020-10-29T19:46:46:536
-0,792351	-1,250830	3,661327	2020-10-29T19:46:46:559
-0,814806	-1,150975	3,796669	2020-10-29T19:46:46:576
-0,281354	-1,475155	3,537942	2020-10-29T19:46:46:599
0,526100	-1,821104	3,249586	2020-10-29T19:46:46:617
0,833739	-1,635717	3,338218	2020-10-29T19:46:46:640
0,786216	-1,155890	3,520219	2020-10-29T19:46:46:656
1,220918	-0,779095	2,857335	2020-10-29T19:46:46:682
3,359779	-0,729112	2,423937	2020-10-29T19:46:46:698
4,780267	-0,525354	2,180652	2020-10-29T19:46:46:720
3,525199	0,021961	1,696435	2020-10-29T19:46:46:737
1,952932	-0,362708	1,381917	2020-10-29T19:46:46:758
1,842618	-1,012216	0,289313	2020-10-29T19:46:46:776
1,286925	-1,388377	-0,006515	2020-10-29T19:46:46:801
0,282862	-1,229114	0,137032	2020-10-29T19:46:46:817
-0,559411	-1,638287	-0,678920	2020-10-29T19:46:46:839
-0,438007	-1,592110	-1,308725	2020-10-29T19:46:46:856
0,363541	-0,981840	-1,886911	2020-10-29T19:46:46:881
1,130366	-0,861953	-1,645008	2020-10-29T19:46:46:897
1,932247	-0,716342	-1,579516	2020-10-29T19:46:46:919
2,021216	-1,528889	-1,855297	2020-10-29T19:46:46:938
1,588997	-3,068319	-1,608774	2020-10-29T19:46:46:960
1,523398	-3,427522	-1,523098	2020-10-29T19:46:46:977
1,484963	-2,762244	-1,662202	2020-10-29T19:46:47:000
1,041519	-1,635893	-1,802880	2020-10-29T19:46:47:016
0,716932	-1,189377	-1,991772	2020-10-29T19:46:47:040
0,626383	-0,834401	-2,226026	2020-10-29T19:46:47:057
0,673818	-0,246266	-2,624328	2020-10-29T19:46:47:079
0,820240	0,119132	-2,723185	2020-10-29T19:46:47:098
1,214121	0,196284	-2,336393	2020-10-29T19:46:47:120
1,503700	-0,047133	-1,885715	2020-10-29T19:46:47:138
1,465688	-0,077431	-1,967958	2020-10-29T19:46:47:159
1,283099	0,118129	-2,073352	2020-10-29T19:46:47:179
1,195419	0,444961	-1,966688	2020-10-29T19:46:47:200
1,043582	0,832309	-1,861693	2020-10-29T19:46:47:218
0,743910	1,166268	-1,946512	2020-10-29T19:46:47:239
0,496519	1,540141	-1,966540	2020-10-29T19:46:47:258
0,222601	1,830933	-1,871235	2020-10-29T19:46:47:280
0,037084	2,009650	-1,883885	2020-10-29T19:46:47:298
0,008292	2,191485	-1,906927	2020-10-29T19:46:47:319
-0,207221	2,324846	-1,924684	2020-10-29T19:46:47:338
-0,377111	2,499522	-1,843328	2020-10-29T19:46:47:360
-0,372501	2,604893	-1,672174	2020-10-29T19:46:47:378
-0,109939	2,965080	-1,579256	2020-10-29T19:46:47:400
0,013371	2,827678	-2,056978	2020-10-29T19:46:47:419
1,669203	3,172245	-2,576220	2020-10-29T19:46:47:440
3,890734	2,603913	-2,897334	2020-10-29T19:46:47:458
5,128148	2,671084	-2,568662	2020-10-29T19:46:47:479
3,487904	2,964158	-1,691255	2020-10-29T19:46:47:498
1,115675	3,026068	-1,053472	2020-10-29T19:46:47:520
-0,227285	2,402332	-0,741658	2020-10-29T19:46:47:537
-0,369534	1,489020	-0,570219	2020-10-29T19:46:47:560
0,353195	0,914863	-0,416975	2020-10-29T19:46:47:577
1,103315	0,591672	-0,532996	2020-10-29T19:46:47:601
1,578185	0,148730	-0,381541	2020-10-29T19:46:47:617
1,648635	-0,255125	-0,275535	2020-10-29T19:46:47:639
1,298678	-0,361503	-0,029674	2020-10-29T19:46:47:662
1,073627	-0,126153	0,104264	2020-10-29T19:46:47:680
0,944415	0,263877	-0,001020	2020-10-29T19:46:47:698
0,585354	-0,400872	0,069432	2020-10-29T19:46:47:719
0,438832	-1,023332	0,055849	2020-10-29T19:46:47:738
0,273015	-1,783216	0,113260	2020-10-29T19:46:47:761
-0,283170	-2,244173	0,513136	2020-10-29T19:46:47:777
-0,927467	-2,626105	0,850839	2020-10-29T19:46:47:800
-1,222985	-2,932013	1,038157	2020-10-29T19:46:47:818
-1,103203	-2,835773	1,134946	2020-10-29T19:46:47:840
-0,455892	-2,770674	0,991820	2020-10-29T19:46:47:858
0,335297	-2,667499	0,885475	2020-10-29T19:46:47:886
0,833657	-2,795355	0,936383	2020-10-29T19:46:47:900
1,077724	-2,857568	1,005775	2020-10-29T19:46:47:921
1,388813	-2,373263	0,967717	2020-10-29T19:46:47:938
1,700196	-2,081861	1,222793	2020-10-29T19:46:47:960
1,897536	-1,424458	1,628117	2020-10-29T19:46:47:978
1,775502	-1,472315	2,881956	2020-10-29T19:46:48:002
2,481306	0,207402	3,749046	2020-10-29T19:46:48:018
2,272301	1,015543	3,453365	2020-10-29T19:46:48:040
1,282338	1,341266	3,165997	2020-10-29T19:46:48:058
0,957229	1,551095	3,261156	2020-10-29T19:46:48:081
0,869030	1,410757	3,569632	2020-10-29T19:46:48:098
0,227705	1,459552	3,709959	2020-10-29T19:46:48:120
-0,066638	0,834973	3,706816	2020-10-29T19:46:48:140
0,399962	1,074255	3,376606	2020-10-29T19:46:48:162
0,039954	0,920977	3,065959	2020-10-29T19:46:48:178
-0,647709	-0,914736	3,112031	2020-10-29T19:46:48:201
0,504045	-0,519790	2,950604	2020-10-29T19:46:48:218
1,740570	-0,130636	2,868508	2020-10-29T19:46:48:241
2,667586	0,131884	2,541173	2020-10-29T19:46:48:258
2,787853	0,038468	2,273919	2020-10-29T19:46:48:280
1,779495	-0,211037	2,104270	2020-10-29T19:46:48:299
1,063863	-0,418310	1,839969	2020-10-29T19:46:48:321
1,185764	-0,547347	1,223696	2020-10-29T19:46:48:337
1,151148	0,021433	0,967062	2020-10-29T19:46:48:361
0,905309	-0,187747	0,102637	2020-10-29T19:46:48:379
0,877360	0,633378	-0,651499	2020-10-29T19:46:48:402
0,924861	1,713316	-0,970290	2020-10-29T19:46:48:418
1,124168	2,008678	-0,445564	2020-10-29T19:46:48:440
1,544326	0,991682	0,005309	2020-10-29T19:46:48:458
1,302906	-0,205435	-0,133428	2020-10-29T19:46:48:481
1,021108	-1,993366	-0,624845	2020-10-29T19:46:48:499
0,450367	-3,209927	-0,600136	2020-10-29T19:46:48:520
-0,018338	-3,972356	-0,017204	2020-10-29T19:46:48:539
0,955541	-4,302566	0,346505	2020-10-29T19:46:48:561
2,196186	-3,489464	-0,476678	2020-10-29T19:46:48:578
2,479034	-2,853021	-1,083246	2020-10-29T19:46:48:601
2,864180	-3,250525	-1,174435	2020-10-29T19:46:48:621
3,302066	-2,843746	-1,224684	2020-10-29T19:46:48:641
2,851622	-2,116427	-1,923173	2020-10-29T19:46:48:659
2,080929	-1,477244	-2,526338	2020-10-29T19:46:48:681
2,018172	-1,166377	-2,581122	2020-10-29T19:46:48:699
2,037673	-0,417924	-2,770176	2020-10-29T19:46:48:722
1,895931	0,336972	-3,135385	2020-10-29T19:46:48:739
1,632749	0,398437	-3,280195	2020-10-29T19:46:48:760
1,298183	0,381356	-3,197138	2020-10-29T19:46:48:778
1,056422	0,262779	-3,233696	2020-10-29T19:46:48:802
1,034473	0,302258	-3,175863	2020-10-29T19:46:48:818
0,910526	0,416678	-3,549443	2020-10-29T19:46:48:841
1,210028	0,786510	-3,930838	2020-10-29T19:46:48:860
1,194767	1,273107	-4,141639	2020-10-29T19:46:48:881
1,051356	1,596017	-4,339474	2020-10-29T19:46:48:899
1,129400	1,993638	-4,782510	2020-10-29T19:46:48:921
1,250546	2,563979	-5,556457	2020-10-29T19:46:48:938
1,073395	3,106674	-5,794218	2020-10-29T19:46:48:962
-2,599625	3,415200	1,572061	2020-10-29T19:46:48:979
-2,271380	2,881935	1,356787	2020-10-29T19:46:49:001
-0,644462	2,876976	1,449924	2020-10-29T19:46:49:019
4,374640	1,869548	-5,407536	2020-10-29T19:46:49:042
4,302483	2,123665	-5,354846	2020-10-29T19:46:49:059
3,833489	2,233735	-5,120350	2020-10-29T19:46:49:081
2,582627	1,631536	-4,451106	2020-10-29T19:46:49:102
1,733175	1,588465	-4,113718	2020-10-29T19:46:49:122
1,477787	2,055625	-3,694602	2020-10-29T19:46:49:139
2,344786	2,494409	-3,975140	2020-10-29T19:46:49:161
3,139241	2,348050	-4,110716	2020-10-29T19:46:49:179
4,000209	1,772857	-4,144468	2020-10-29T19:46:49:203
4,553198	1,278658	-4,029203	2020-10-29T19:46:49:219
4,662233	1,376780	-3,828174	2020-10-29T19:46:49:241
4,270969	1,338321	-3,923838	2020-10-29T19:46:49:259
3,752275	1,109238	-3,620413	2020-10-29T19:46:49:282
2,851909	0,766575	-3,042760	2020-10-29T19:46:49:300
1,868912	0,071782	-2,004175	2020-10-29T19:46:49:321
1,065763	-0,520067	-1,087764	2020-10-29T19:46:49:340
0,628164	-1,537333	-0,847519	2020-10-29T19:46:49:361
0,638076	-2,667796	-0,878697	2020-10-29T19:46:49:379
0,835740	-3,822196	-0,784946	2020-10-29T19:46:49:402
1,208154	-4,437761	-0,544289	2020-10-29T19:46:49:419
1,341453	-4,733023	-0,286926	2020-10-29T19:46:49:442
1,181301	-4,794786	-0,183666	2020-10-29T19:46:49:459
0,814502	-4,851330	0,145261	2020-10-29T19:46:49:481
0,511601	-5,202650	0,676538	2020-10-29T19:46:49:500
0,522867	-5,229486	1,065386	2020-10-29T19:46:49:522
0,788367	-4,963274	1,261228	2020-10-29T19:46:49:539
1,139055	-5,176064	1,531124	2020-10-29T19:46:49:561
2,191006	-8,311328	2,262450	2020-10-29T19:46:49:580
1,716830	-8,129572	2,618302	2020-10-29T19:46:49:602
1,307215	-8,018681	3,399471	2020-10-29T19:46:49:619
0,687208	-7,819792	4,352917	2020-10-29T19:46:49:642
0,694743	-7,566724	4,816133	2020-10-29T19:46:49:659
0,846407	-6,483453	5,076152	2020-10-29T19:46:49:682
0,433810	-5,284371	5,763808	2020-10-29T19:46:49:700
0,040639	-5,107947	5,764143	2020-10-29T19:46:49:721
-0,072774	-5,451210	5,026666	2020-10-29T19:46:49:740
-0,336723	-5,588511	4,499455	2020-10-29T19:46:49:762
-0,481246	-5,228321	3,788041	2020-10-29T19:46:49:779
1,661469	-5,812896	2,686956	2020-10-29T19:46:49:802
2,934929	-4,617649	1,402187	2020-10-29T19:46:49:822
2,267331	-2,337290	1,117441	2020-10-29T19:46:49:842
3,596219	-1,400809	1,011732	2020-10-29T19:46:49:860
5,167072	-0,453591	0,929771	2020-10-29T19:46:49:882
5,164370	0,939906	0,957307	2020-10-29T19:46:49:900
8,228019	-0,745201	1,182796	2020-10-29T19:46:49:922
5,171881	-3,825889	0,967059	2020-10-29T19:46:49:940
3,930282	7,706113	2,812926	2020-10-29T19:46:49:962
15,996510	3,740811	-1,352921	2020-10-29T19:46:49:980
3,503820	-2,502985	-6,152819	2020-10-29T19:46:50:003
1,167507	-2,401954	-6,264467	2020-10-29T19:46:50:020
4,046389	0,010196	-4,124521	2020-10-29T19:46:50:042
6,986163	0,517681	-2,078841	2020-10-29T19:46:50:061
5,147019	2,332107	-2,520535	2020-10-29T19:46:50:083
5,700763	3,057153	-3,262904	2020-10-29T19:46:50:100
8,220252	2,521703	-3,177549	2020-10-29T19:46:50:122
11,095059	2,213605	-2,574742	2020-10-29T19:46:50:140
14,583758	3,685005	-3,367909	2020-10-29T19:46:50:163
15,079907	5,518626	-3,715437	2020-10-29T19:46:50:180
12,581586	5,532373	-3,214170	2020-10-29T19:46:50:202
10,380052	4,876390	-3,424367	2020-10-29T19:46:50:220
9,099618	4,870413	-4,354940	2020-10-29T19:46:50:243
8,309365	5,339042	-4,389353	2020-10-29T19:46:50:260
7,371379	5,650109	-2,915374	2020-10-29T19:46:50:282
8,025386	5,723717	-2,828430	2020-10-29T19:46:50:302
7,861854	5,804173	-2,861842	2020-10-29T19:46:50:323
7,169944	5,529895	-3,298736	2020-10-29T19:46:50:340
6,673599	5,575759	-3,611538	2020-10-29T19:46:50:362
6,722609	5,741580	-3,670293	2020-10-29T19:46:50:380
7,129964	6,193692	-3,459462	2020-10-29T19:46:50:404
7,298403	6,706004	-3,375042	2020-10-29T19:46:50:420
7,323134	7,358900	-3,487062	2020-10-29T19:46:50:442
7,489293	8,508438	9,139425	2020-10-29T19:46:50:460
7,523168	9,373878	8,540573	2020-10-29T19:46:50:483
7,592301	9,854603	7,966310	2020-10-29T19:46:50:501
7,820212	10,260192	7,717893	2020-10-29T19:46:50:522
8,424493	10,124357	7,662416	2020-10-29T19:46:50:541
8,947039	9,697677	7,521133	2020-10-29T19:46:50:563
9,278011	8,769343	7,815562	2020-10-29T19:46:50:580
9,914821	7,691847	8,191426	2020-10-29T19:46:50:603
11,121910	6,456510	8,048442	2020-10-29T19:46:50:620
13,465908	5,164122	8,328451	2020-10-29T19:46:50:644
15,619331	4,080594	9,420468	2020-10-29T19:46:50:661
17,595070	4,520959	10,833089	2020-10-29T19:46:50:682
17,133707	4,824028	11,348564	2020-10-29T19:46:50:701
15,782902	4,131749	11,187191	2020-10-29T19:46:50:724
14,625131	3,427617	-4,378587	2020-10-29T19:46:50:741
13,974568	4,443042	-4,837015	2020-10-29T19:46:50:763
13,132608	4,743588	-5,137017	2020-10-29T19:46:50:782
12,175651	4,590175	-5,089904	2020-10-29T19:46:50:804
10,960371	4,476900	-5,057874	2020-10-29T19:46:50:821
10,168148	4,730003	-5,202574	2020-10-29T19:46:50:842
9,531437	5,139783	-5,184109	2020-10-29T19:46:50:860
8,919574	4,856431	-4,057645	2020-10-29T19:46:50:884
8,158058	3,719850	-1,950469	2020-10-29T19:46:50:902
8,545694	3,983061	-2,103610	2020-10-29T19:46:50:922
7,729904	5,152014	-1,716595	2020-10-29T19:46:50:941
7,230949	4,642896	-2,268605	2020-10-29T19:46:50:964
6,276538	2,445398	-2,322368	2020-10-29T19:46:50:981
5,398373	0,875707	-2,439616	2020-10-29T19:46:51:004
4,355873	-0,109563	-1,513610	2020-10-29T19:46:51:022
3,306416	-1,306303	-1,593172	2020-10-29T19:46:51:044
2,186738	-4,356507	-1,134087	2020-10-29T19:46:51:061
0,494281	-7,208801	0,495705	2020-10-29T19:46:51:083
-0,445898	-6,984349	3,573452	2020-10-29T19:46:51:102
-0,204224	-3,770787	5,068966	2020-10-29T19:46:51:124
-0,293139	-2,328105	5,314924	2020-10-29T19:46:51:141
-0,794185	-2,256606	4,593055	2020-10-29T19:46:51:164
-0,670582	-2,155095	4,628235	2020-10-29T19:46:51:181
-0,045165	-1,416923	4,742016	2020-10-29T19:46:51:205
0,423574	-0,151139	4,495612	2020-10-29T19:46:51:221
0,840585	0,220246	4,742397	2020-10-29T19:46:51:244
1,483352	-0,282114	5,655482	2020-10-29T19:46:51:262
1,623233	0,175764	6,706694	2020-10-29T19:46:51:284
1,181696	2,494350	6,642558	2020-10-29T19:46:51:302
1,020060	4,222480	6,773546	2020-10-29T19:46:51:323
1,428545	4,367013	6,915235	2020-10-29T19:46:51:341
1,803957	4,136003	7,428953	2020-10-29T19:46:51:364
2,151978	3,722339	8,170386	2020-10-29T19:46:51:381
2,439930	2,889148	8,562664	2020-10-29T19:46:51:404
4,256026	2,074822	9,169304	2020-10-29T19:46:51:421
6,968788	2,178375	9,210206	2020-10-29T19:46:51:444
8,979441	2,395824	8,226951	2020-10-29T19:46:51:461
10,087578	2,867969	6,673143	2020-10-29T19:46:51:483
8,850813	3,788775	4,692224	2020-10-29T19:46:51:503
5,931273	3,935661	3,079753	2020-10-29T19:46:51:524
4,493764	3,511431	2,120805	2020-10-29T19:46:51:541
4,569725	3,645785	1,013598	2020-10-29T19:46:51:563
5,727633	3,198734	-0,209612	2020-10-29T19:46:51:581
6,935310	2,439800	-1,291516	2020-10-29T19:46:51:605
7,791208	2,147481	-2,092962	2020-10-29T19:46:51:621
8,518465	2,424868	-2,430297	2020-10-29T19:46:51:643
6,599744	-0,422057	-1,582976	2020-10-29T19:46:51:662
5,726099	-0,422101	-2,212492	2020-10-29T19:46:51:684
4,718523	-0,976870	-2,543977	2020-10-29T19:46:51:702
3,842510	-2,195750	-2,135836	2020-10-29T19:46:51:724
3,573781	-3,196425	-2,407310	2020-10-29T19:46:51:742
2,767636	-3,926207	-3,175800	2020-10-29T19:46:51:764
1,643714	-4,042995	-2,730630	2020-10-29T19:46:51:782
0,967031	-3,529992	-2,160274	2020-10-29T19:46:51:804
1,031576	-3,158657	-2,308695	2020-10-29T19:46:51:821
1,325152	-2,688348	-3,036936	2020-10-29T19:46:51:845
0,917247	-1,777193	-3,527369	2020-10-29T19:46:51:862
0,169089	-0,874897	-4,244882	2020-10-29T19:46:51:883
-0,318976	-0,370417	-4,109359	2020-10-29T19:46:51:902
-0,349574	-0,167314	-3,894866	2020-10-29T19:46:51:925
-0,331576	0,332882	-3,979817	2020-10-29T19:46:51:941
-0,513483	0,974952	-4,172774	2020-10-29T19:46:51:964
-0,633990	1,555555	-4,343206	2020-10-29T19:46:51:983
-0,936687	1,888715	-4,054690	2020-10-29T19:46:52:005
-1,334415	2,134053	-3,750179	2020-10-29T19:46:52:022
-1,282261	2,179932	-3,568895	2020-10-29T19:46:52:044
-1,060123	2,294737	-3,450551	2020-10-29T19:46:52:075
-0,911462	2,434022	-3,300154	2020-10-29T19:46:52:086
-0,845995	2,756262	-3,265965	2020-10-29T19:46:52:104
-0,604908	3,077655	-3,233392	2020-10-29T19:46:52:124
-0,389322	3,280902	-3,031599	2020-10-29T19:46:52:142
-0,736281	3,544113	-2,725317	2020-10-29T19:46:52:166
-0,549349	3,696052	-2,843130	2020-10-29T19:46:52:183
1,496440	3,463785	-3,094359	2020-10-29T19:46:52:205
3,909951	3,422316	-2,927883	2020-10-29T19:46:52:229
4,591420	3,630244	-1,491413	2020-10-29T19:46:52:249
4,476980	3,467077	0,721473	2020-10-29T19:46:52:318
4,574758	2,906994	2,779973	2020-10-29T19:46:52:318
5,380787	2,759711	3,833043	2020-10-29T19:46:52:319
5,746063	3,723902	3,475604	2020-10-29T19:46:52:325
5,480402	5,887132	1,968906	2020-10-29T19:46:52:341
5,063563	6,233747	-0,335861	2020-10-29T19:46:52:362
4,578488	8,088646	7,446878	2020-10-29T19:46:52:381
4,560914	8,588747	6,518412	2020-10-29T19:46:52:405
3,584672	7,925303	6,397644	2020-10-29T19:46:52:421
2,599427	6,696211	6,694083	2020-10-29T19:46:52:443
2,465982	5,600752	6,946722	2020-10-29T19:46:52:462
2,388180	5,096300	7,674656	2020-10-29T19:46:52:484
1,702651	5,277686	9,221848	2020-10-29T19:46:52:501
0,385379	5,284446	10,636744	2020-10-29T19:46:52:523
-0,456054	4,410012	10,407046	2020-10-29T19:46:52:540
-0,931007	2,841227	8,784148	2020-10-29T19:46:52:564
-1,593032	1,672542	7,261862	2020-10-29T19:46:52:581
-0,877939	0,642281	-2,428998	2020-10-29T19:46:52:603
-1,114956	0,345267	-2,232346	2020-10-29T19:46:52:622
-0,809193	0,549416	-2,051451	2020-10-29T19:46:52:644
-0,427114	0,867927	-2,179463	2020-10-29T19:46:52:661
-0,221589	0,984034	-2,234685	2020-10-29T19:46:52:683
-0,116530	1,022790	-2,224091	2020-10-29T19:46:52:703
0,377750	0,918205	-2,092298	2020-10-29T19:46:52:724
0,957465	0,610098	-1,865655	2020-10-29T19:46:52:741
0,810730	0,454781	-1,313775	2020-10-29T19:46:52:763
-0,170224	0,068136	-0,740703	2020-10-29T19:46:52:781
-1,183606	-0,263669	-0,205141	2020-10-29T19:46:52:805
-1,690650	-0,437582	0,210148	2020-10-29T19:46:52:825
-1,645287	-0,495392	0,239082	2020-10-29T19:46:52:843
-1,385931	-0,018810	-0,178318	2020-10-29T19:46:52:861
-1,023730	0,341671	-0,701067	2020-10-29T19:46:52:886
-0,044843	0,679193	-1,476566	2020-10-29T19:46:52:906
1,226415	1,227074	-1,965532	2020-10-29T19:46:52:932
1,803084	1,466357	-1,855462	2020-10-29T19:46:52:941
1,508798	1,273998	-1,492172	2020-10-29T19:46:52:963
0,661987	0,846351	-0,920559	2020-10-29T19:46:52:981
0,005679	0,708104	-0,654778	2020-10-29T19:46:53:006
1,193177	0,430174	-1,096540	2020-10-29T19:46:53:026
5,488347	-0,249397	-1,652087	2020-10-29T19:46:53:063
9,761929	-0,787782	-2,410612	2020-10-29T19:46:53:063
8,295271	-0,492002	-0,744635	2020-10-29T19:46:53:083
2,543535	0,294894	-1,042627	2020-10-29T19:46:53:114
-1,091164	1,007955	-1,633654	2020-10-29T19:46:53:124
-0,350430	-1,332013	-2,885132	2020-10-29T19:46:53:144
1,748075	0,185037	-3,909260	2020-10-29T19:46:53:163
2,366983	2,452761	-3,801569	2020-10-29T19:46:53:182
1,957811	1,612880	-3,177042	2020-10-29T19:46:53:206
1,529241	-0,687140	-2,516037	2020-10-29T19:46:53:223
1,809201	-1,850052	-2,779248	2020-10-29T19:46:53:243
2,523728	-2,052716	-3,114330	2020-10-29T19:46:53:261
2,734297	-2,143643	-3,662287	2020-10-29T19:46:53:286
2,200708	-1,840255	-3,667256	2020-10-29T19:46:53:303
1,746071	-1,660793	-3,743826	2020-10-29T19:46:53:326
1,556896	-1,710958	-3,844272	2020-10-29T19:46:53:342
1,646277	-1,715126	-4,017163	2020-10-29T19:46:53:364
1,590732	-1,592085	-4,101401	2020-10-29T19:46:53:381
10,208662	0,233423	-9,259627	2020-10-29T19:46:53:405
10,223020	0,185567	-9,419947	2020-10-29T19:46:53:422
9,301766	0,558022	8,177796	2020-10-29T19:46:53:445
7,458395	1,467951	7,198654	2020-10-29T19:46:53:462
6,428774	2,155827	6,444286	2020-10-29T19:46:53:484
6,182314	2,749247	6,365323	2020-10-29T19:46:53:502
4,488601	3,215837	5,583523	2020-10-29T19:46:53:525
3,357871	3,242333	5,224660	2020-10-29T19:46:53:542
2,496332	2,635114	5,010515	2020-10-29T19:46:53:563
2,034507	2,263685	4,849021	2020-10-29T19:46:53:582
1,738313	2,359272	5,278927	2020-10-29T19:46:53:605
1,196769	2,956147	5,724666	2020-10-29T19:46:53:621
0,680543	4,371300	5,727342	2020-10-29T19:46:53:644
-0,172628	5,542682	6,077792	2020-10-29T19:46:53:662
-0,873765	4,850537	5,747801	2020-10-29T19:46:53:685
-0,393630	3,177527	6,021660	2020-10-29T19:46:53:702
1,494238	1,246960	6,293629	2020-10-29T19:46:53:724
4,699998	2,403943	4,726035	2020-10-29T19:46:53:742
8,758966	4,244673	3,749594	2020-10-29T19:46:53:765
11,307067	4,232674	2,745827	2020-10-29T19:46:53:782
10,231326	3,745907	4,597229	2020-10-29T19:46:53:806
8,869338	1,203736	7,693165	2020-10-29T19:46:53:824
8,350096	1,397555	8,032946	2020-10-29T19:46:53:847
9,984979	0,416040	-12,323164	2020-10-29T19:46:53:864
7,933448	-0,978785	-12,735180	2020-10-29T19:46:53:886
9,597282	-5,027589	-6,250381	2020-10-29T19:46:53:906
10,247891	-3,909816	-8,058552	2020-10-29T19:46:53:926
10,938626	6,469551	-8,702816	2020-10-29T19:46:53:944
11,607240	10,579443	11,285432	2020-10-29T19:46:53:966
4,502058	9,868858	4,780218	2020-10-29T19:46:53:984
6,335526	5,364737	6,589653	2020-10-29T19:46:54:007
9,767230	0,519315	11,186578	2020-10-29T19:46:54:024
10,716398	5,805912	10,747038	2020-10-29T19:46:54:046
10,814580	7,684326	8,955092	2020-10-29T19:46:54:064
9,009346	4,627820	10,924135	2020-10-29T19:46:54:087
8,966678	2,914567	10,322151	2020-10-29T19:46:54:105
10,117385	1,523629	10,423000	2020-10-29T19:46:54:126
10,805428	0,645423	12,275593	2020-10-29T19:46:54:147
9,431949	1,872941	11,634317	2020-10-29T19:46:54:167
-0,720935	0,063587	7,184053	2020-10-29T19:46:54:184
-1,491991	-0,424583	6,748923	2020-10-29T19:46:54:207
-1,109005	-1,633475	7,473321	2020-10-29T19:46:54:224
-0,551600	-2,085273	8,271992	2020-10-29T19:46:54:247
-0,464277	-1,492400	8,146261	2020-10-29T19:46:54:264
-0,002409	-1,328221	7,448299	2020-10-29T19:46:54:286
-0,092648	-2,246676	6,980609	2020-10-29T19:46:54:305
-0,085907	-2,546468	6,905171	2020-10-29T19:46:54:327
1,356933	-3,565040	-2,072758	2020-10-29T19:46:54:344
1,047073	-2,430175	-2,124780	2020-10-29T19:46:54:366
0,437215	-1,073726	-2,010545	2020-10-29T19:46:54:386
-0,365655	-0,925535	-1,345040	2020-10-29T19:46:54:407
-0,902886	-0,930582	-0,258435	2020-10-29T19:46:54:424
-0,377601	-1,091610	0,396578	2020-10-29T19:46:54:446
-1,489183	-1,260095	-0,748592	2020-10-29T19:46:54:464
-1,634299	-2,351399	-2,116672	2020-10-29T19:46:54:487
-1,803316	-2,666141	-2,342024	2020-10-29T19:46:54:505
-2,015078	-2,741483	-3,038771	2020-10-29T19:46:54:526
-1,347035	-3,330158	-3,127997	2020-10-29T19:46:54:544
0,019310	-4,171593	-3,233153	2020-10-29T19:46:54:568
0,420812	-3,528760	-3,936538	2020-10-29T19:46:54:584
0,018110	-1,906050	-4,204707	2020-10-29T19:46:54:607
-0,002699	-1,468604	-4,193651	2020-10-29T19:46:54:626
0,747954	-1,422387	-3,610173	2020-10-29T19:46:54:647
1,246343	-2,193370	-3,079442	2020-10-29T19:46:54:664
2,245840	-2,280676	-2,062881	2020-10-29T19:46:54:687
2,389826	-1,837580	-1,975967	2020-10-29T19:46:54:705
1,089596	-0,871749	-2,532591	2020-10-29T19:46:54:728
1,189178	-1,351929	-2,206733	2020-10-29T19:46:54:745
2,575243	0,205058	-1,259265	2020-10-29T19:46:54:766
2,003026	-2,116927	3,047126	2020-10-29T19:46:54:785
0,090741	-4,350126	3,229642	2020-10-29T19:46:54:809
-0,027387	-1,281403	0,023710	2020-10-29T19:46:54:825
-0,470614	-2,173606	-1,466692	2020-10-29T19:46:54:847
-0,760640	-1,374827	-2,331872	2020-10-29T19:46:54:866
-0,892342	-1,228677	-2,780837	2020-10-29T19:46:54:887
-0,856012	-1,766768	-3,096862	2020-10-29T19:46:54:906
-0,468365	-2,011205	-3,054420	2020-10-29T19:46:54:928
-0,461011	-1,947608	-2,606658	2020-10-29T19:46:54:945
-0,393673	-1,478653	-2,243276	2020-10-29T19:46:54:968
-0,426116	-1,280696	-2,336623	2020-10-29T19:46:54:985
-0,506924	-1,218113	-1,771832	2020-10-29T19:46:55:008
-0,607660	-1,131491	-1,270425	2020-10-29T19:46:55:025
-0,507650	-1,521093	-0,922214	2020-10-29T19:46:55:048
-2,534520	-0,684965	-1,832939	2020-10-29T19:46:55:065
-0,456417	-1,465456	-0,681480	2020-10-29T19:46:55:087
-0,544039	-1,307877	-0,881509	2020-10-29T19:46:55:106
-0,697277	-1,499885	-0,470192	2020-10-29T19:46:55:128
-0,420563	-1,041528	-0,431341	2020-10-29T19:46:55:145
-0,753483	-1,440144	-0,305321	2020-10-29T19:46:55:167
-0,640839	-1,503099	-0,257143	2020-10-29T19:46:55:186
-0,587461	-1,514778	-0,228296	2020-10-29T19:46:55:209
-0,583032	-1,430812	-0,324896	2020-10-29T19:46:55:225
-0,592286	-1,236479	-0,532981	2020-10-29T19:46:55:247
-0,570330	-1,407154	-0,596304	2020-10-29T19:46:55:265
-0,479048	-1,541366	-0,695302	2020-10-29T19:46:55:288
-0,413560	-1,420808	-0,788658	2020-10-29T19:46:55:306
-0,443610	-1,343416	-0,653621	2020-10-29T19:46:55:327
-0,500608	-1,417011	-0,513197	2020-10-29T19:46:55:346
-0,422042	-1,097569	-0,365948	2020-10-29T19:46:55:368
-0,497596	-0,889189	-0,136821	2020-10-29T19:46:55:385
-0,590209	-0,846737	0,013242	2020-10-29T19:46:55:410
-0,723317	-0,817422	0,063004	2020-10-29T19:46:55:425
-0,633653	-0,849984	0,192652	2020-10-29T19:46:55:448
-0,628143	-0,888680	0,045511	2020-10-29T19:46:55:465
-0,532011	-0,965763	-0,120475	2020-10-29T19:46:55:487
-0,450504	-1,006342	-0,237510	2020-10-29T19:46:55:506
-0,417525	-1,087565	-0,219826	2020-10-29T19:46:55:528
-0,343820	-0,907853	-0,268991	2020-10-29T19:46:55:545
-0,327724	-1,000381	-0,195735	2020-10-29T19:46:55:569
-0,253710	-0,666471	-0,181758	2020-10-29T19:46:55:588
-0,143641	-0,790897	-0,203293	2020-10-29T19:46:55:610
-0,099036	-0,844507	-0,150558	2020-10-29T19:46:55:625
-0,236225	-0,635374	-0,226112	2020-10-29T19:46:55:649
-0,319149	-0,778509	-0,178486	2020-10-29T19:46:55:665
-0,242774	-0,644908	-0,133669	2020-10-29T19:46:55:689
-0,205237	-0,633064	-0,107082	2020-10-29T19:46:55:706
-0,105019	-0,669729	-0,079193	2020-10-29T19:46:55:728
-0,166298	-0,543636	-0,061063	2020-10-29T19:46:55:746
-0,128625	-0,438245	-0,029519	2020-10-29T19:46:55:769
-0,175148	-0,379274	0,062541	2020-10-29T19:46:55:785
-0,043651	-0,513591	0,046747	2020-10-29T19:46:55:809
-0,171443	-0,558752	0,016924	2020-10-29T19:46:55:826
-0,169533	-0,419031	0,028993	2020-10-29T19:46:55:849
-0,248172	-0,349286	0,080699	2020-10-29T19:46:55:866
-0,151499	-0,374952	0,147090	2020-10-29T19:46:55:888
-0,225299	-0,462381	0,085660	2020-10-29T19:46:55:906
-0,241553	-0,439619	0,013579	2020-10-29T19:46:55:929
-0,241130	-0,454682	0,085577	2020-10-29T19:46:55:946
-0,195214	-0,441730	0,047921	2020-10-29T19:46:55:968
-0,253030	-0,434498	0,006011	2020-10-29T19:46:55:986
-0,015934	-0,467803	-0,028920	2020-10-29T19:46:56:010
0,083171	-0,382163	0,003279	2020-10-29T19:46:56:026
0,103326	-0,488330	-0,066051	2020-10-29T19:46:56:048
0,069261	-0,360606	0,043584	2020-10-29T19:46:56:067
-0,102902	-0,216040	-0,037753	2020-10-29T19:46:56:089
0,025563	-0,284990	-0,063335	2020-10-29T19:46:56:106
0,061508	-0,262683	-0,054554	2020-10-29T19:46:56:128
0,021356	-0,233150	-0,088393	2020-10-29T19:46:56:146
-0,057711	-0,256538	-0,040297	2020-10-29T19:46:56:169
-0,084187	-0,178168	0,002959	2020-10-29T19:46:56:186
-0,077022	-0,292313	0,016339	2020-10-29T19:46:56:209
-0,101919	-0,236520	0,108423	2020-10-29T19:46:56:226
0,025181	-0,160087	0,081713	2020-10-29T19:46:56:249
0,055861	-0,174296	-0,000872	2020-10-29T19:46:56:266
0,066252	-0,340722	-0,089612	2020-10-29T19:46:56:288
0,090872	-0,290081	-0,172810	2020-10-29T19:46:56:307
-0,020251	-0,280153	-0,140811	2020-10-29T19:46:56:329
0,009344	-0,197609	-0,074580	2020-10-29T19:46:56:346
0,052031	-0,331053	-0,106926	2020-10-29T19:46:56:368
0,238694	-0,369608	-0,167276	2020-10-29T19:46:56:386
0,240495	-0,457881	-0,073116	2020-10-29T19:46:56:410
0,121850	-0,276623	-0,073946	2020-10-29T19:46:56:426
0,207091	-0,053411	-0,111547	2020-10-29T19:46:56:448
0,188719	-0,199449	-0,051721	2020-10-29T19:46:56:466
0,250808	-0,171469	-0,071918	2020-10-29T19:46:56:489
0,271861	-0,113993	-0,178861	2020-10-29T19:46:56:507
0,349331	-0,123257	-0,252203	2020-10-29T19:46:56:529
0,458061	-0,252630	-0,348691	2020-10-29T19:46:56:547
0,426073	-0,121477	-0,395103	2020-10-29T19:46:56:570
0,539285	-0,087173	-0,453072	2020-10-29T19:46:56:586
0,801714	-0,033601	-0,398721	2020-10-29T19:46:56:609
0,880240	-0,743882	-0,459230	2020-10-29T19:46:56:626
1,007847	-0,135536	-0,291154	2020-10-29T19:46:56:650
1,018898	0,056498	-0,475244	2020-10-29T19:46:56:668
1,068738	0,232809	-0,419742	2020-10-29T19:46:56:689
1,320045	-1,393269	0,264456	2020-10-29T19:46:56:707
0,914921	0,128721	-0,103078	2020-10-29T19:46:56:730
0,804136	0,194977	-0,156276	2020-10-29T19:46:56:747
0,707443	0,368785	-0,268308	2020-10-29T19:46:56:769
0,795723	0,468004	-0,214969	2020-10-29T19:46:56:788
0,758420	0,419076	-0,052428	2020-10-29T19:46:56:810
0,909087	0,210311	0,000945	2020-10-29T19:46:56:827
0,997605	0,529936	0,003894	2020-10-29T19:46:56:849
0,964581	0,446667	-0,099158	2020-10-29T19:46:56:866
0,814710	0,414231	-0,220839	2020-10-29T19:46:56:890
0,769140	-0,200284	-0,257005	2020-10-29T19:46:56:907
0,682161	-0,781582	-0,400259	2020-10-29T19:46:56:928
0,904930	-1,480032	-0,109955	2020-10-29T19:46:56:947
0,637775	-2,705950	0,227798	2020-10-29T19:46:56:970
1,095815	-3,651691	0,338382	2020-10-29T19:46:56:986
5,795201	1,689043	-0,716512	2020-10-29T19:46:57:010
7,617599	1,592753	-0,343650	2020-10-29T19:46:57:028
7,462945	2,842066	-0,871181	2020-10-29T19:46:57:050
5,851887	2,430079	-0,119838	2020-10-29T19:46:57:067
4,942562	2,376510	0,129080	2020-10-29T19:46:57:089
5,350121	2,742093	-0,106270	2020-10-29T19:46:57:107
5,328347	3,383245	-0,234046	2020-10-29T19:46:57:130
4,496426	4,227043	0,012871	2020-10-29T19:46:57:147
3,351744	3,880023	-0,349334	2020-10-29T19:46:57:169
2,685486	4,590191	-0,213683	2020-10-29T19:46:57:187
2,193335	4,562541	-0,038112	2020-10-29T19:46:57:211
1,762662	4,625302	0,167583	2020-10-29T19:46:57:227
1,289973	4,806373	0,307614	2020-10-29T19:46:57:249
-0,306580	0,970773	1,154307	2020-10-29T19:46:57:268
-0,201841	0,624378	1,093770	2020-10-29T19:46:57:290
-0,184870	0,089508	1,020953	2020-10-29T19:46:57:308
-0,136669	-0,436507	0,994583	2020-10-29T19:46:57:331
-0,229135	-0,577383	0,977342	2020-10-29T19:46:57:347
-0,351589	-0,679800	1,010329	2020-10-29T19:46:57:370
-0,510712	-0,784389	0,910079	2020-10-29T19:46:57:387
-0,791203	-0,783215	0,893943	2020-10-29T19:46:57:410
-1,418942	-0,744890	0,789780	2020-10-29T19:46:57:427
-2,383572	-0,490217	0,752092	2020-10-29T19:46:57:450
-3,159492	-0,395567	0,525291	2020-10-29T19:46:57:468
-3,867767	-0,283104	0,510934	2020-10-29T19:46:57:490
-3,953110	-0,157612	0,218844	2020-10-29T19:46:57:509
-3,603830	0,021698	0,099251	2020-10-29T19:46:57:530
-2,686890	0,004962	-0,243920	2020-10-29T19:46:57:547
-1,670270	0,061796	-0,487514	2020-10-29T19:46:57:570
-0,698808	0,177810	-0,714654	2020-10-29T19:46:57:587
0,569440	0,350640	-0,978323	2020-10-29T19:46:57:611
1,690568	0,307417	-1,278765	2020-10-29T19:46:57:627
1,939856	0,268320	-1,504374	2020-10-29T19:46:57:649
1,069963	0,225883	-1,440858	2020-10-29T19:46:57:667
-0,341654	0,142802	-1,222140	2020-10-29T19:46:57:691
-0,925141	0,178337	-0,991817	2020-10-29T19:46:57:708
-1,132170	0,073080	-0,699504	2020-10-29T19:46:57:730
-0,835188	-0,168806	-0,302643	2020-10-29T19:46:57:749
-0,310930	-0,610910	0,192543	2020-10-29T19:46:57:771
0,180747	-1,076925	0,837174	2020-10-29T19:46:57:788
0,601703	-0,923729	1,233638	2020-10-29T19:46:57:810
1,186471	-0,602793	1,730365	2020-10-29T19:46:57:827
1,378101	-0,233183	1,591965	2020-10-29T19:46:57:851
1,185832	0,627113	2,264338	2020-10-29T19:46:57:868
1,248748	1,469424	2,611036	2020-10-29T19:46:57:890
1,299450	2,929783	3,254621	2020-10-29T19:46:57:908
1,597558	4,856791	4,010561	2020-10-29T19:46:57:931
1,574185	6,775518	3,608852	2020-10-29T19:46:57:948
1,086219	7,514492	2,049646	2020-10-29T19:46:57:970
0,613939	5,926961	1,746696	2020-10-29T19:46:57:990
0,216730	3,373820	3,388173	2020-10-29T19:46:58:011
1,029216	1,411590	5,638962	2020-10-29T19:46:58:028
2,040053	0,058374	6,659184	2020-10-29T19:46:58:050
3,008315	-0,482007	6,582737	2020-10-29T19:46:58:068
3,292554	0,136158	6,114430	2020-10-29T19:46:58:091
3,284627	2,048043	5,523913	2020-10-29T19:46:58:131
2,989244	4,091066	4,833870	2020-10-29T19:46:58:132
2,542159	5,630058	3,499722	2020-10-29T19:46:58:160
1,951133	6,149301	2,667019	2020-10-29T19:46:58:180
1,604232	5,143839	1,826505	2020-10-29T19:46:58:189
0,700253	4,952507	1,231948	2020-10-29T19:46:58:211
-0,171432	4,097386	1,214233	2020-10-29T19:46:58:229
-0,697283	2,557566	1,614003	2020-10-29T19:46:58:251
-1,046371	1,545930	1,848678	2020-10-29T19:46:58:268
-1,613611	0,523768	2,053245	2020-10-29T19:46:58:290
-2,179065	1,081400	2,115804	2020-10-29T19:46:58:308
-2,513003	2,084456	1,657762	2020-10-29T19:46:58:331
-2,827093	3,098032	0,406255	2020-10-29T19:46:58:349
-3,183623	5,605711	-1,895640	2020-10-29T19:46:58:393
-3,448129	5,381297	-3,423237	2020-10-29T19:46:58:395
-1,425964	1,104365	-0,401223	2020-10-29T19:46:58:412
1,097842	-1,556166	2,764968	2020-10-29T19:46:58:428
-0,918043	0,507268	2,750003	2020-10-29T19:46:58:451
-3,991560	0,172624	1,389122	2020-10-29T19:46:58:470
-5,388651	0,202674	0,699840	2020-10-29T19:46:58:492
-4,986657	0,764988	0,154276	2020-10-29T19:46:58:509
-5,244644	-2,889145	1,114059	2020-10-29T19:46:58:531
-6,154381	-4,674140	2,373854	2020-10-29T19:46:58:549
-5,958169	-3,465765	2,577244	2020-10-29T19:46:58:572
-5,172597	-1,972626	1,837039	2020-10-29T19:46:58:588
-4,964020	-2,199734	1,410601	2020-10-29T19:46:58:611
-5,728680	-2,673339	1,083909	2020-10-29T19:46:58:629
-5,790092	-2,439614	0,999488	2020-10-29T19:46:58:653
-6,005446	-2,264937	1,111951	2020-10-29T19:46:58:668
-5,989885	-1,831707	1,084803	2020-10-29T19:46:58:691
-6,020655	-1,777029	1,043186	2020-10-29T19:46:58:711
-6,011878	-1,918232	1,187295	2020-10-29T19:46:58:732
-6,093952	-1,962247	1,151132	2020-10-29T19:46:58:749
-6,075979	-1,948869	1,480153	2020-10-29T19:46:58:771
-5,488847	-1,428679	1,688963	2020-10-29T19:46:58:789
-5,177616	-0,829797	1,618761	2020-10-29T19:46:58:812
-5,504663	-0,499563	1,603440	2020-10-29T19:46:58:829
-5,655387	-0,031208	1,295801	2020-10-29T19:46:58:851
-5,606741	0,431951	0,735682	2020-10-29T19:46:58:869
-5,200941	0,076113	0,309784	2020-10-29T19:46:58:892
-4,630475	-0,105855	0,326145	2020-10-29T19:46:58:909
-4,299403	0,480710	0,591535	2020-10-29T19:46:58:931
-4,670776	0,588235	0,868403	2020-10-29T19:46:58:950
-4,948289	0,269782	0,817803	2020-10-29T19:46:58:972
-4,571665	-0,042441	0,652226	2020-10-29T19:46:58:989
-4,216880	-0,153938	0,167352	2020-10-29T19:46:59:012
-3,793326	-0,409015	-0,104953	2020-10-29T19:46:59:028
-3,390913	-0,379310	-0,525603	2020-10-29T19:46:59:052
-3,062981	-0,444983	-0,175779	2020-10-29T19:46:59:069
-2,853565	-0,640003	0,266934	2020-10-29T19:46:59:091
-2,512924	-0,901882	0,152079	2020-10-29T19:46:59:110
-2,182837	-1,023230	0,119208	2020-10-29T19:46:59:132
-1,643200	-0,659755	0,466959	2020-10-29T19:46:59:149
-1,393332	-0,310052	0,096985	2020-10-29T19:46:59:171
-1,257341	-1,114525	-0,067705	2020-10-29T19:46:59:192
-1,003702	-1,167167	-0,584555	2020-10-29T19:46:59:213
-0,154903	-0,141703	-1,109684	2020-10-29T19:46:59:229
1,038685	0,549170	-1,684072	2020-10-29T19:46:59:251
2,131537	0,715311	-1,673182	2020-10-29T19:46:59:269
2,305098	0,195997	-0,861934	2020-10-29T19:46:59:292
3,436106	-1,098000	0,228909	2020-10-29T19:46:59:310
6,736873	-1,830554	0,725234	2020-10-29T19:46:59:331
9,662696	-1,598446	0,791727	2020-10-29T19:46:59:349
4,611244	-0,328148	1,886351	2020-10-29T19:46:59:372
3,157296	-1,499597	1,723701	2020-10-29T19:46:59:389
4,847383	-1,632737	0,470646	2020-10-29T19:46:59:412
5,493487	-1,423964	1,601540	2020-10-29T19:46:59:430
7,696526	-2,386435	6,192973	2020-10-29T19:46:59:452
8,937217	-0,652441	5,711670	2020-10-29T19:46:59:469
8,538994	1,901765	8,135281	2020-10-29T19:46:59:492
9,041654	0,838984	2,802310	2020-10-29T19:46:59:510
5,926447	2,608897	0,660821	2020-10-29T19:46:59:532
2,928920	4,991524	0,231373	2020-10-29T19:46:59:549
1,030564	5,695003	-0,108347	2020-10-29T19:46:59:571
-0,570016	5,903059	-0,196789	2020-10-29T19:46:59:589
-2,457010	6,316687	0,695382	2020-10-29T19:46:59:614
-3,743892	5,788374	1,588450	2020-10-29T19:46:59:629
-3,987821	4,831517	2,079520	2020-10-29T19:46:59:652
-3,327089	3,804724	2,614584	2020-10-29T19:46:59:671
-2,207015	1,682079	3,045281	2020-10-29T19:46:59:692
-1,334320	-0,388294	3,391438	2020-10-29T19:46:59:710
-0,886701	-1,355245	3,412220	2020-10-29T19:46:59:732
-0,851016	-1,269859	3,137181	2020-10-29T19:46:59:750
-0,779247	-1,187831	3,131476	2020-10-29T19:46:59:773
-0,597218	-1,369875	3,225142	2020-10-29T19:46:59:789
-0,528464	-1,357625	3,632405	2020-10-29T19:46:59:812
-0,644623	-0,495228	4,115398	2020-10-29T19:46:59:830
-0,554006	-0,219600	4,584693	2020-10-29T19:46:59:853
-0,240705	-0,442399	4,902176	2020-10-29T19:46:59:869
0,200078	-0,578563	5,051416	2020-10-29T19:46:59:892
0,757917	-0,935559	5,277740	2020-10-29T19:46:59:912
1,234343	-0,899948	5,472949	2020-10-29T19:46:59:933
1,475358	-0,682692	5,536132	2020-10-29T19:46:59:949
1,690558	-0,559690	5,565866	2020-10-29T19:46:59:972
1,847193	-0,425258	5,543122	2020-10-29T19:46:59:990
1,636895	-0,251939	5,494545	2020-10-29T19:47:00:013
1,468302	-0,264222	5,555127	2020-10-29T19:47:00:030
1,747665	-0,288572	5,775273	2020-10-29T19:47:00:052
2,621023	-0,577672	-3,070316	2020-10-29T19:47:00:070
4,158359	-0,991948	-2,596013	2020-10-29T19:47:00:093
8,679737	0,162301	-6,423486	2020-10-29T19:47:00:110
5,203844	-0,006629	-4,249715	2020-10-29T19:47:00:132
1,092873	-0,659173	-1,319079	2020-10-29T19:47:00:152
-0,565354	-0,953490	-1,055869	2020-10-29T19:47:00:172
-1,225362	-1,734393	0,639021	2020-10-29T19:47:00:190
-1,038571	-2,189126	1,123277	2020-10-29T19:47:00:213
-1,187500	-3,643769	1,910428	2020-10-29T19:47:00:230
-1,110313	-3,839813	1,838618	2020-10-29T19:47:00:253
0,228770	-3,364583	1,144545	2020-10-29T19:47:00:270
2,329395	-1,621245	-0,338165	2020-10-29T19:47:00:292
3,233802	1,220307	-1,706643	2020-10-29T19:47:00:311
2,657437	3,711886	-1,897874	2020-10-29T19:47:00:333
1,705787	4,052274	-1,522969	2020-10-29T19:47:00:350
1,379794	2,888638	-0,943909	2020-10-29T19:47:00:372
1,226189	1,486536	-0,498170	2020-10-29T19:47:00:392
-0,097156	0,029873	0,448766	2020-10-29T19:47:00:414
-0,515446	-0,018696	0,715845	2020-10-29T19:47:00:430
-1,069289	1,057136	1,431854	2020-10-29T19:47:00:452
-0,833337	1,604876	1,426090	2020-10-29T19:47:00:470
-0,617667	1,161826	1,553983	2020-10-29T19:47:00:494
-0,872903	0,535440	1,654004	2020-10-29T19:47:00:511
-1,245970	0,554819	1,461467	2020-10-29T19:47:00:532
-1,761197	0,823657	1,026837	2020-10-29T19:47:00:550
-2,049606	0,655686	0,527696	2020-10-29T19:47:00:574
-2,169324	0,049997	0,194479	2020-10-29T19:47:00:591
-2,037736	-0,406648	-0,080489	2020-10-29T19:47:00:613
-1,890109	-0,544990	-0,443350	2020-10-29T19:47:00:633
-1,358903	-0,609596	-0,653918	2020-10-29T19:47:00:653
-0,828216	-0,492394	-0,898916	2020-10-29T19:47:00:670
-0,224954	-0,213603	-0,973154	2020-10-29T19:47:00:693
0,026179	0,116418	-0,824195	2020-10-29T19:47:00:711
-0,436680	0,182873	-0,436411	2020-10-29T19:47:00:733
-0,903927	0,159716	0,010320	2020-10-29T19:47:00:751
-0,630443	-0,104837	0,392495	2020-10-29T19:47:00:772
-0,227480	-0,421440	0,757660	2020-10-29T19:47:00:790
-0,122308	-0,946503	1,139069	2020-10-29T19:47:00:815
-0,056849	-0,738221	1,068844	2020-10-29T19:47:00:830
1,503275	-0,697581	0,942991	2020-10-29T19:47:00:853
4,361703	-1,073446	0,970254	2020-10-29T19:47:00:873
5,929002	-0,666666	0,570652	2020-10-29T19:47:00:893
5,743936	-0,530689	0,792299	2020-10-29T19:47:00:911
4,443637	-0,655552	1,355472	2020-10-29T19:47:00:933
2,411296	-0,910335	1,501204	2020-10-29T19:47:00:950
-0,006236	-0,618063	1,365133	2020-10-29T19:47:00:974
-1,140219	-0,384573	1,403004	2020-10-29T19:47:00:991
0,030501	-0,784243	1,340814	2020-10-29T19:47:01:013
1,721198	-1,283656	1,415875	2020-10-29T19:47:01:030
2,327927	-1,388032	1,448246	2020-10-29T19:47:01:054
2,559918	-1,353374	0,665806	2020-10-29T19:47:01:071
3,064706	-1,037847	-0,195318	2020-10-29T19:47:01:093
3,141756	-0,133068	-0,933140	2020-10-29T19:47:01:112
2,625732	0,549875	-1,371318	2020-10-29T19:47:01:133
2,243633	1,306691	-1,524105	2020-10-29T19:47:01:151
2,101124	1,352151	-1,639505	2020-10-29T19:47:01:173
1,873811	0,605899	-1,739100	2020-10-29T19:47:01:191
1,496126	0,539338	-2,136077	2020-10-29T19:47:01:215
1,255421	0,344858	-2,511417	2020-10-29T19:47:01:231
0,848724	0,056477	-2,823933	2020-10-29T19:47:01:253
0,505836	-0,241795	-2,901967	2020-10-29T19:47:01:271
-0,005163	-0,166852	-2,925843	2020-10-29T19:47:01:294
-0,349749	0,127460	-2,845018	2020-10-29T19:47:01:312
-0,370732	0,436105	-3,088035	2020-10-29T19:47:01:333
-0,453197	0,815452	-3,239363	2020-10-29T19:47:01:352
-0,534092	0,986136	-3,430424	2020-10-29T19:47:01:373
-0,683201	1,103048	-3,704399	2020-10-29T19:47:01:391
-0,787778	1,324700	-3,892312	2020-10-29T19:47:01:414
-0,843134	1,435165	-3,944387	2020-10-29T19:47:01:431
-0,933444	1,387474	-3,794134	2020-10-29T19:47:01:454
-0,889547	1,307048	-3,670881	2020-10-29T19:47:01:471
-0,708426	1,326344	-3,567319	2020-10-29T19:47:01:493
-0,369087	1,416554	-3,250988	2020-10-29T19:47:01:512
-0,146061	1,464534	-3,018012	2020-10-29T19:47:01:534
0,212287	1,590131	-2,525635	2020-10-29T19:47:01:551
0,925488	1,634880	-2,358278	2020-10-29T19:47:01:574
2,680570	1,628037	-2,119092	2020-10-29T19:47:01:592
4,816821	1,723625	-2,104239	2020-10-29T19:47:01:614
6,162593	1,758659	-2,193399	2020-10-29T19:47:01:632
5,746361	1,485437	-1,428590	2020-10-29T19:47:01:654
2,974013	1,366398	-0,175174	2020-10-29T19:47:01:671
0,728130	1,113302	0,591716	2020-10-29T19:47:01:694
-0,254737	0,747246	1,300691	2020-10-29T19:47:01:712
0,107670	0,445074	1,830816	2020-10-29T19:47:01:734
1,438143	0,023092	2,027887	2020-10-29T19:47:01:752
1,941066	-0,513073	1,819885	2020-10-29T19:47:01:774
1,148169	-0,706706	1,091736	2020-10-29T19:47:01:791
0,477841	-0,760268	0,201912	2020-10-29T19:47:01:814
0,197073	-0,489346	-0,396601	2020-10-29T19:47:01:832
0,135724	0,163289	-0,545172	2020-10-29T19:47:01:855
0,025846	0,256768	-0,192836	2020-10-29T19:47:01:871
0,000727	-0,396551	0,114819	2020-10-29T19:47:01:894
-0,050760	-1,454799	0,237691	2020-10-29T19:47:01:912
-0,059510	-2,309920	0,250758	2020-10-29T19:47:01:935
-0,168076	-3,013528	0,483460	2020-10-29T19:47:01:952
-0,587583	-3,649175	0,685701	2020-10-29T19:47:01:974
-0,993382	-3,962754	0,967854	2020-10-29T19:47:01:992
-1,154275	-3,945146	1,242852	2020-10-29T19:47:02:015
-0,881746	-3,872414	1,539915	2020-10-29T19:47:02:032
-0,537809	-3,659278	1,771812	2020-10-29T19:47:02:054
-0,357243	-3,556835	1,909274	2020-10-29T19:47:02:073
-0,436264	-3,449893	2,427928	2020-10-29T19:47:02:094
-0,671121	-3,421974	2,946783	2020-10-29T19:47:02:112
-0,832634	-3,317432	3,241225	2020-10-29T19:47:02:134
-0,938989	-2,995434	3,358052	2020-10-29T19:47:02:152
-0,804696	-2,760023	3,461856	2020-10-29T19:47:02:174
-0,519257	-2,352149	3,451404	2020-10-29T19:47:02:192
-0,593378	-1,864086	3,302908	2020-10-29T19:47:02:214
-0,550861	-1,391290	3,097902	2020-10-29T19:47:02:232
-0,243452	-1,280383	2,413098	2020-10-29T19:47:02:256
1,931535	-1,868663	2,658227	2020-10-29T19:47:02:272
4,975637	-2,431364	2,667249	2020-10-29T19:47:02:294
5,087200	-2,340488	2,789696	2020-10-29T19:47:02:314
3,543586	-2,625304	2,883469	2020-10-29T19:47:02:335
1,847904	-2,535580	2,201530	2020-10-29T19:47:02:352
0,623330	-2,179735	0,780114	2020-10-29T19:47:02:374
1,344538	-2,427046	-0,839133	2020-10-29T19:47:02:392
2,753796	-2,779427	-0,723953	2020-10-29T19:47:02:416
3,407971	-3,763730	0,291852	2020-10-29T19:47:02:432
3,473487	-3,784561	-0,739410	2020-10-29T19:47:02:454
2,808222	-2,447714	-2,587443	2020-10-29T19:47:02:472
2,685909	-1,625945	-3,866992	2020-10-29T19:47:02:496
2,953190	-1,247467	-4,170024	2020-10-29T19:47:02:513
2,795299	-1,420228	-5,201468	2020-10-29T19:47:02:534
2,616075	0,801963	-5,616622	2020-10-29T19:47:02:554
2,903213	3,316820	-5,451518	2020-10-29T19:47:02:576
3,722610	1,088843	-7,001954	2020-10-29T19:47:02:593
2,595611	-1,638231	-6,916148	2020-10-29T19:47:02:616
1,947918	-1,753260	-6,190796	2020-10-29T19:47:02:632
1,531994	-1,621151	-5,112846	2020-10-29T19:47:02:656
1,463541	-1,572039	-4,639817	2020-10-29T19:47:02:672
1,435637	-1,159073	-4,521434	2020-10-29T19:47:02:694
1,549891	-0,546495	-4,568477	2020-10-29T19:47:02:714
1,437531	-0,073963	-4,662924	2020-10-29T19:47:02:735
0,980932	0,301181	-4,966381	2020-10-29T19:47:02:752
0,271331	0,780706	-5,062040	2020-10-29T19:47:02:774
-0,359843	0,977222	-4,919623	2020-10-29T19:47:02:794
-0,921796	0,759015	-4,173364	2020-10-29T19:47:02:818
-1,197408	0,297535	-3,177376	2020-10-29T19:47:02:832
-1,094532	-0,412989	-2,276005	2020-10-29T19:47:02:855
-0,883797	-1,434597	-1,559757	2020-10-29T19:47:02:873
-0,510517	-2,274479	-1,564543	2020-10-29T19:47:02:896
-0,383745	-2,297171	-1,581674	2020-10-29T19:47:02:913
-0,469812	-1,583829	-1,464582	2020-10-29T19:47:02:934
-0,625425	-1,237424	-1,261642	2020-10-29T19:47:02:953
-0,126136	-0,954404	-0,998358	2020-10-29T19:47:02:976
1,098719	-0,931274	-0,695964	2020-10-29T19:47:02:992
2,064240	-0,899014	-0,399951	2020-10-29T19:47:03:015
1,728364	-0,671564	-0,042350	2020-10-29T19:47:03:034
-0,227693	-0,378048	0,598137	2020-10-29T19:47:03:056
-0,890257	-0,003921	0,585601	2020-10-29T19:47:03:072
0,352867	0,397891	0,127754	2020-10-29T19:47:03:094
1,030391	1,094132	-0,258612	2020-10-29T19:47:03:113
0,519940	1,490213	-0,508179	2020-10-29T19:47:03:136
0,242670	1,502517	-0,639032	2020-10-29T19:47:03:152
0,247437	1,509183	-0,806020	2020-10-29T19:47:03:174
0,438736	2,082680	-0,949026	2020-10-29T19:47:03:193
0,668821	2,010817	-0,643302	2020-10-29T19:47:03:216
0,961605	2,221341	-0,024802	2020-10-29T19:47:03:232
1,366831	3,182212	-0,363364	2020-10-29T19:47:03:255
1,851570	4,231542	-1,227311	2020-10-29T19:47:03:274
1,398170	6,198467	6,199924	2020-10-29T19:47:03:295
2,995148	3,340619	5,786589	2020-10-29T19:47:03:313
4,177314	-1,663622	7,480852	2020-10-29T19:47:03:335
4,167939	-6,017305	-0,463272	2020-10-29T19:47:03:353
2,277546	-6,403717	0,932055	2020-10-29T19:47:03:379
1,076453	-4,520210	1,553924	2020-10-29T19:47:03:392
0,345895	-2,519617	0,767841	2020-10-29T19:47:03:415
-0,582355	-1,038392	-0,406363	2020-10-29T19:47:03:433
-1,156655	-1,089067	-1,631042	2020-10-29T19:47:03:455
-1,802329	-1,323302	-2,462403	2020-10-29T19:47:03:473
-2,153208	-1,121351	-2,951673	2020-10-29T19:47:03:496
-2,010284	-0,944745	-3,745528	2020-10-29T19:47:03:516
-2,184960	-0,377646	-3,960882	2020-10-29T19:47:03:536
-2,573756	-0,192576	-4,292766	2020-10-29T19:47:03:553
-3,414052	0,358823	-4,427979	2020-10-29T19:47:03:575
4,895599	3,019773	8,608499	2020-10-29T19:47:03:593
4,015898	3,940675	7,980048	2020-10-29T19:47:03:616
4,559660	4,234170	6,201314	2020-10-29T19:47:03:633
8,547420	4,025238	5,224172	2020-10-29T19:47:03:655
17,843071	2,988303	7,827883	2020-10-29T19:47:03:673
29,588770	-2,965446	11,555879	2020-10-29T19:47:03:696
14,481347	-5,695686	12,974173	2020-10-29T19:47:03:713
7,991874	-4,298144	13,221127	2020-10-29T19:47:03:736
5,347447	-2,287285	-4,199949	2020-10-29T19:47:03:755
7,221242	1,152348	-5,052886	2020-10-29T19:47:03:776
8,131147	3,534440	11,224319	2020-10-29T19:47:03:793
5,820136	3,212909	9,678286	2020-10-29T19:47:03:816
5,073805	2,274099	8,046734	2020-10-29T19:47:03:833
6,027319	2,071500	5,982767	2020-10-29T19:47:03:856
8,454822	3,621778	4,724952	2020-10-29T19:47:03:873
8,598038	5,462948	2,970371	2020-10-29T19:47:03:895
8,021921	9,755972	3,440377	2020-10-29T19:47:03:915
6,426214	11,212897	4,944622	2020-10-29T19:47:03:936
5,008547	9,411830	5,619342	2020-10-29T19:47:03:953
-0,513722	2,579976	3,175616	2020-10-29T19:47:03:975
-1,064205	0,180004	3,127471	2020-10-29T19:47:03:996
-0,999742	-0,752993	2,774003	2020-10-29T19:47:04:016
-0,725869	-0,982879	2,590928	2020-10-29T19:47:04:035
-0,188897	-1,508638	3,451149	2020-10-29T19:47:04:056
0,172419	-1,939347	3,776573	2020-10-29T19:47:04:074
0,910938	-2,081237	-4,251539	2020-10-29T19:47:04:096
0,549270	-1,762322	-3,791189	2020-10-29T19:47:04:115
0,314774	-1,046868	-3,901259	2020-10-29T19:47:04:135
0,080750	-1,056871	-3,794950	2020-10-29T19:47:04:154
-0,090034	-0,840893	-3,820054	2020-10-29T19:47:04:177
-0,032605	-0,249866	-3,863124	2020-10-29T19:47:04:194
0,456477	-0,082450	-3,812692	2020-10-29T19:47:04:216
9,965700	2,356095	-7,914584	2020-10-29T19:47:04:235
11,102888	2,272942	9,583261	2020-10-29T19:47:04:256
10,946977	2,686555	9,692295	2020-10-29T19:47:04:274
10,682474	2,946332	9,853627	2020-10-29T19:47:04:296
10,222932	3,107841	9,921209	2020-10-29T19:47:04:314
9,770827	2,961711	9,989556	2020-10-29T19:47:04:336
9,337710	2,759090	10,320539	2020-10-29T19:47:04:354
8,694754	2,368433	10,714346	2020-10-29T19:47:04:376
8,176248	1,923809	11,229600	2020-10-29T19:47:04:394
8,304075	1,377957	11,832630	2020-10-29T19:47:04:417
8,889459	0,714275	12,356274	2020-10-29T19:47:04:434
9,713814	0,180703	12,477856	2020-10-29T19:47:04:456
9,498696	0,449759	-6,532589	2020-10-29T19:47:04:475
8,836563	0,877030	-6,964111	2020-10-29T19:47:04:496
8,417105	1,194810	-7,156445	2020-10-29T19:47:04:514
8,407367	1,229598	-6,873026	2020-10-29T19:47:04:536
8,606506	1,210516	-6,850498	2020-10-29T19:47:04:554
8,573310	1,076568	-7,024125	2020-10-29T19:47:04:576
8,011493	1,240191	-7,251842	2020-10-29T19:47:04:594
7,072626	1,293194	-7,258008	2020-10-29T19:47:04:616
6,360454	1,211838	-7,184121	2020-10-29T19:47:04:635
6,075135	1,303453	-7,281377	2020-10-29T19:47:04:657
7,072290	0,947513	-6,875000	2020-10-29T19:47:04:674
8,625872	0,727564	-5,891841	2020-10-29T19:47:04:696
8,799426	1,047464	-4,650744	2020-10-29T19:47:04:716
7,397232	0,951751	-4,988132	2020-10-29T19:47:04:736
2,064317	-1,385268	0,097222	2020-10-29T19:47:04:754
1,311728	-1,489602	0,575117	2020-10-29T19:47:04:776
-0,195547	-1,335252	1,350431	2020-10-29T19:47:04:794
-1,488212	-1,133471	1,143937	2020-10-29T19:47:04:818
-1,687600	-1,503705	0,458658	2020-10-29T19:47:04:834
-0,787994	-1,847613	-0,475180	2020-10-29T19:47:04:856
0,095795	-1,552727	-1,443951	2020-10-29T19:47:04:874
0,947311	-0,543323	-2,028373	2020-10-29T19:47:04:897
2,162237	0,071312	-2,278767	2020-10-29T19:47:04:914
3,175761	-0,242337	-1,419571	2020-10-29T19:47:04:938
2,719977	0,609352	-0,879062	2020-10-29T19:47:04:955
1,674976	1,752568	-1,934183	2020-10-29T19:47:04:977
1,171344	1,147465	-3,862607	2020-10-29T19:47:04:994
0,569575	1,053741	-4,627980	2020-10-29T19:47:05:017
0,247715	1,280152	-4,644650	2020-10-29T19:47:05:034
0,199100	1,271218	-4,237607	2020-10-29T19:47:05:057
-0,323691	1,592656	-3,948379	2020-10-29T19:47:05:074
-0,326222	1,754371	-3,606358	2020-10-29T19:47:05:096
0,127224	1,535817	-3,240387	2020-10-29T19:47:05:115
0,605149	0,726091	-2,590249	2020-10-29T19:47:05:137
1,574457	-0,368558	-1,287153	2020-10-29T19:47:05:154
0,483932	0,662001	-0,894773	2020-10-29T19:47:05:176
-0,532355	1,635684	-1,377837	2020-10-29T19:47:05:195
-0,340876	0,866330	-1,656260	2020-10-29T19:47:05:218
-0,692621	0,952472	-1,785473	2020-10-29T19:47:05:235
-1,124907	1,157703	-1,425291	2020-10-29T19:47:05:256
-1,016226	0,940848	-1,354690	2020-10-29T19:47:05:274
-0,648170	0,884517	-1,518175	2020-10-29T19:47:05:297
-0,293275	0,881521	-1,760772	2020-10-29T19:47:05:315
0,127646	0,842352	-1,905245	2020-10-29T19:47:05:336
0,372848	0,890413	-1,799389	2020-10-29T19:47:05:354
0,819238	0,872716	-1,724725	2020-10-29T19:47:05:377
1,256227	1,035177	-1,751743	2020-10-29T19:47:05:394
2,519114	1,200343	-1,829566	2020-10-29T19:47:05:417
4,988073	1,172232	-1,898975	2020-10-29T19:47:05:436
5,831897	1,250466	-1,371785	2020-10-29T19:47:05:457
5,541370	1,026686	-0,509464	2020-10-29T19:47:05:475
5,176288	0,366881	-0,039685	2020-10-29T19:47:05:497
3,226137	0,350132	-0,121041	2020-10-29T19:47:05:515
0,629171	0,438156	-0,539082	2020-10-29T19:47:05:538
-0,144834	0,157088	-1,179529	2020-10-29T19:47:05:555
1,203172	-0,192944	-1,128478	2020-10-29T19:47:05:577
3,131949	-0,367165	-0,596796	2020-10-29T19:47:05:595
3,857202	-0,415283	-0,579968	2020-10-29T19:47:05:619
3,229814	-0,352419	-1,287286	2020-10-29T19:47:05:635
2,621977	-0,394620	-2,076275	2020-10-29T19:47:05:657
2,548307	0,037323	-2,697504	2020-10-29T19:47:05:676
2,349234	1,124143	-2,878864	2020-10-29T19:47:05:698
1,560673	2,095217	-2,763638	2020-10-29T19:47:05:716
0,956709	2,422766	-2,866343	2020-10-29T19:47:05:737
0,709060	2,191371	-2,988042	2020-10-29T19:47:05:755
0,507441	1,370106	-3,118090	2020-10-29T19:47:05:778
0,244985	0,662540	-3,225685	2020-10-29T19:47:05:795
0,028221	0,087194	-3,185601	2020-10-29T19:47:05:817
0,024615	-0,452496	-2,865316	2020-10-29T19:47:05:835
-0,051294	-0,784342	-2,409465	2020-10-29T19:47:05:858
0,036310	-0,505255	-2,188801	2020-10-29T19:47:05:875
0,129176	0,127967	-2,018074	2020-10-29T19:47:05:897
0,188308	0,233825	-1,922677	2020-10-29T19:47:05:916
0,128093	0,404382	-1,896485	2020-10-29T19:47:05:937
-0,240597	0,736138	-1,777101	2020-10-29T19:47:05:955
-0,846814	0,932450	-1,755713	2020-10-29T19:47:05:977
-1,352575	0,824798	-1,594206	2020-10-29T19:47:05:995
-1,233996	0,487588	-1,266396	2020-10-29T19:47:06:019
-0,789159	0,153185	-1,068346	2020-10-29T19:47:06:035
-0,389265	-0,113517	-0,823545	2020-10-29T19:47:06:057
0,054074	-0,279166	-0,536557	2020-10-29T19:47:06:075
0,540647	-0,511978	-0,343993	2020-10-29T19:47:06:098
0,893687	-0,449152	-0,217366	2020-10-29T19:47:06:116
1,233337	-0,246370	-0,044065	2020-10-29T19:47:06:137
