v1	v2	v3	v4	ts
1002,398254	90,740967	28,920000	1002,429932	2020-10-29T19:45:22:331
1002,397644	90,746254	28,920000	1002,392090	2020-10-29T19:45:22:571
1002,398865	90,735687	28,920000	1002,409912	2020-10-29T19:45:22:811
1002,400879	90,717194	28,910000	1002,418945	2020-10-29T19:45:23:051
1002,401733	90,711906	28,920000	1002,409424	2020-10-29T19:45:23:291
1002,400696	90,719833	28,920000	1002,391357	2020-10-29T19:45:23:532
1002,402100	90,709267	28,920000	1002,415039	2020-10-29T19:45:23:774
1002,403809	90,693413	28,920000	1002,419189	2020-10-29T19:45:31:131
1002,406433	90,672272	28,930000	1002,429932	2020-10-29T19:45:31:132
1002,409302	90,645851	28,920000	1002,434814	2020-10-29T19:45:31:133
1002,409546	90,645851	28,930000	1002,411621	2020-10-29T19:45:31:133
1002,407104	90,666985	28,920000	1002,385254	2020-10-29T19:45:31:144
1002,406067	90,674911	28,930000	1002,396729	2020-10-29T19:45:31:144
1002,405579	90,677559	28,930000	1002,400879	2020-10-29T19:45:31:145
1002,404419	90,688126	28,930000	1002,394043	2020-10-29T19:45:31:145
1002,408386	90,656418	28,930000	1002,444336	2020-10-29T19:45:31:145
1002,409180	90,648491	28,930000	1002,416260	2020-10-29T19:45:31:145
1002,408142	90,656418	28,930000	1002,398926	2020-10-29T19:45:31:146
1002,408386	90,656418	28,939999	1002,410400	2020-10-29T19:45:31:147
1002,409180	90,648491	28,939999	1002,416016	2020-10-29T19:45:31:147
1002,408508	90,653778	28,939999	1002,402588	2020-10-29T19:45:31:147
1002,411011	90,632637	28,939999	1002,433350	2020-10-29T19:45:31:147
1002,413879	90,608856	28,939999	1002,439697	2020-10-29T19:45:31:147
1002,414917	90,600929	28,939999	1002,423828	2020-10-29T19:45:31:147
1002,416138	90,590363	28,939999	1002,427002	2020-10-29T19:45:31:148
1002,414368	90,606216	28,939999	1002,398438	2020-10-29T19:45:31:148
1002,413147	90,614143	28,939999	1002,401855	2020-10-29T19:45:31:148
1002,411011	90,632637	28,939999	1002,391846	2020-10-29T19:45:31:148
1002,407043	90,666985	28,939999	1002,371582	2020-10-29T19:45:31:148
1002,406128	90,674911	28,939999	1002,397949	2020-10-29T19:45:31:148
1002,407837	90,659058	28,949999	1002,423340	2020-10-29T19:45:31:148
1002,409851	90,643204	28,949999	1002,427734	2020-10-29T19:45:31:149
1002,411194	90,632637	28,949999	1002,423340	2020-10-29T19:45:31:149
1002,409912	90,643204	28,939999	1002,398193	2020-10-29T19:45:31:149
1002,408936	90,651131	28,949999	1002,400146	2020-10-29T19:45:31:149
1002,410645	90,635277	28,949999	1002,426025	2020-10-29T19:45:31:149
1002,409607	90,645851	28,949999	1002,400146	2020-10-29T19:45:31:150
1002,411316	90,629997	28,939999	1002,426270	2020-10-29T19:45:31:169
1002,410217	90,640564	28,949999	1002,400391	2020-10-29T19:45:31:407
1002,410522	90,637924	28,949999	1002,413330	2020-10-29T19:45:31:648
1002,413757	90,608856	28,949999	1002,442871	2020-10-29T19:45:31:888
1002,416077	90,590363	28,939999	1002,437012	2020-10-29T19:45:32:129
1002,415466	90,595642	28,949999	1002,410156	2020-10-29T19:45:32:369
1002,419189	90,563934	28,949999	1002,452881	2020-10-29T19:45:32:610
1002,422852	90,532234	28,949999	1002,456055	2020-10-29T19:45:32:849
1002,426514	90,503166	28,949999	1002,459717	2020-10-29T19:45:33:092
1002,428650	90,484673	28,949999	1002,447998	2020-10-29T19:45:33:330
1002,432861	90,450317	28,959999	1002,470459	2020-10-29T19:45:33:571
1002,434387	90,437111	28,949999	1002,447998	2020-10-29T19:45:33:810
1002,438477	90,402756	28,949999	1002,475098	2020-10-29T19:45:34:050
1002,442139	90,371056	28,949999	1002,475342	2020-10-29T19:45:34:291
1002,442932	90,365768	28,959999	1002,450439	2020-10-29T19:45:34:531
1002,442993	90,365768	28,949999	1002,443848	2020-10-29T19:45:34:772
1002,440308	90,386902	28,959999	1002,416016	2020-10-29T19:45:35:012
1002,439270	90,394829	28,959999	1002,430176	2020-10-29T19:45:35:251
1002,437134	90,413330	28,959999	1002,417725	2020-10-29T19:45:35:493
1002,436157	90,421257	28,959999	1002,427002	2020-10-29T19:45:35:732
1002,434570	90,434464	28,959999	1002,420410	2020-10-29T19:45:35:974
1002,430908	90,466171	28,959999	1002,397705	2020-10-29T19:45:36:212
1002,428833	90,482025	28,969999	1002,410156	2020-10-29T19:45:36:454
1002,427368	90,495239	28,959999	1002,414307	2020-10-29T19:45:36:694
1002,426697	90,500526	28,969999	1002,420410	2020-10-29T19:45:36:934
1002,427856	90,492599	28,969999	1002,437988	2020-10-29T19:45:37:173
1002,424316	90,521660	28,959999	1002,392578	2020-10-29T19:45:37:414
1002,425415	90,511093	28,969999	1002,434814	2020-10-29T19:45:37:655
1002,425415	90,511093	28,969999	1002,425537	2020-10-29T19:45:37:895
1002,424072	90,524307	28,959999	1002,411621	2020-10-29T19:45:38:137
1002,422852	90,532234	28,969999	1002,412109	2020-10-29T19:45:38:375
1002,421753	90,542801	28,969999	1002,411621	2020-10-29T19:45:38:616
1002,419495	90,561295	28,969999	1002,398926	2020-10-29T19:45:38:856
1002,421875	90,542801	28,959999	1002,443115	2020-10-29T19:45:39:096
1002,422485	90,537514	28,969999	1002,427490	2020-10-29T19:45:39:338
1002,423645	90,526947	28,969999	1002,434082	2020-10-29T19:45:39:577
1002,423584	90,526947	28,969999	1002,422607	2020-10-29T19:45:39:817
1002,423889	90,524307	28,969999	1002,426270	2020-10-29T19:45:40:058
1002,423523	90,526947	28,969999	1002,420654	2020-10-29T19:45:40:298
1002,422302	90,537514	28,969999	1002,411133	2020-10-29T19:45:40:538
1002,423340	90,529587	28,969999	1002,432373	2020-10-29T19:45:40:778
1002,425293	90,513733	28,969999	1002,443115	2020-10-29T19:45:41:016
1002,427551	90,495239	28,969999	1002,447998	2020-10-29T19:45:41:257
1002,429565	90,476746	28,969999	1002,447754	2020-10-29T19:45:41:498
1002,431702	90,458244	28,980000	1002,451172	2020-10-29T19:45:41:738
1002,430725	90,468819	28,969999	1002,421387	2020-10-29T19:45:41:978
1002,431641	90,458244	28,980000	1002,439941	2020-10-29T19:45:42:419
1002,430481	90,468819	28,969999	1002,419922	2020-10-29T19:45:42:470
1002,428650	90,484673	28,969999	1002,412109	2020-10-29T19:45:42:700
1002,424866	90,516380	28,969999	1002,390381	2020-10-29T19:45:42:939
1002,420593	90,553368	28,980000	1002,382080	2020-10-29T19:45:43:187
1002,419373	90,563934	28,980000	1002,407959	2020-10-29T19:45:43:445
1002,417419	90,579788	28,980000	1002,399414	2020-10-29T19:45:43:659
1002,415283	90,595642	28,980000	1002,395996	2020-10-29T19:45:43:905
1002,416260	90,587715	28,980000	1002,425293	2020-10-29T19:45:44:140
1002,419983	90,558655	28,980000	1002,453369	2020-10-29T19:45:44:380
1002,424255	90,521660	28,990000	1002,462646	2020-10-29T19:45:44:621
1002,426453	90,503166	28,980000	1002,446045	2020-10-29T19:45:44:861
1002,426453	90,503166	28,980000	1002,426758	2020-10-29T19:45:45:103
1002,426453	90,503166	28,990000	1002,426514	2020-10-29T19:45:45:342
1002,425720	90,508453	28,980000	1002,419189	2020-10-29T19:45:45:588
1002,427002	90,497879	28,990000	1002,438965	2020-10-29T19:45:45:822
1002,428894	90,482025	28,990000	1002,445801	2020-10-29T19:46:04:200
1002,429016	90,482025	28,990000	1002,430420	2020-10-29T19:46:04:200
1002,432007	90,455605	28,990000	1002,458984	2020-10-29T19:46:04:204
1002,434143	90,439751	28,990000	1002,453125	2020-10-29T19:46:04:206
1002,435425	90,429184	29,000000	1002,446533	2020-10-29T19:46:04:225
1002,438416	90,402756	28,990000	1002,465332	2020-10-29T19:46:04:226
1002,437988	90,405403	29,000000	1002,433594	2020-10-29T19:46:04:227
1002,437317	90,413330	28,990000	1002,431396	2020-10-29T19:46:04:227
1002,437256	90,413330	29,000000	1002,436768	2020-10-29T19:46:04:228
1002,436401	90,418610	29,000000	1002,428711	2020-10-29T19:46:04:228
1002,435242	90,429184	29,000000	1002,424561	2020-10-29T19:46:04:229
1002,432434	90,452965	29,000000	1002,406738	2020-10-29T19:46:04:230
1002,432129	90,455605	29,000000	1002,429688	2020-10-29T19:46:04:230
1002,433228	90,445038	29,000000	1002,442871	2020-10-29T19:46:04:230
1002,435486	90,426537	29,000000	1002,456055	2020-10-29T19:46:04:230
1002,434814	90,431824	29,000000	1002,428711	2020-10-29T19:46:04:230
1002,433960	90,439751	29,010000	1002,426514	2020-10-29T19:46:04:230
1002,433289	90,445038	29,000000	1002,427002	2020-10-29T19:46:04:231
1002,430542	90,468819	29,010000	1002,405762	2020-10-29T19:46:04:231
1002,429504	90,476746	29,010000	1002,420166	2020-10-29T19:46:04:231
1002,428162	90,489952	29,010000	1002,416016	2020-10-29T19:46:04:231
1002,428467	90,487312	29,010000	1002,431396	2020-10-29T19:46:04:231
1002,430298	90,471458	29,010000	1002,446777	2020-10-29T19:46:04:231
1002,432800	90,450317	29,000000	1002,455078	2020-10-29T19:46:04:231
1002,432678	90,450317	29,010000	1002,431152	2020-10-29T19:46:04:231
1002,432800	90,450317	29,010000	1002,433838	2020-10-29T19:46:04:232
1002,435364	90,429184	29,010000	1002,458252	2020-10-29T19:46:04:232
1002,437561	90,410683	29,010000	1002,456787	2020-10-29T19:46:04:232
1002,437866	90,408043	29,010000	1002,440430	2020-10-29T19:46:04:232
1002,436646	90,418610	29,010000	1002,425781	2020-10-29T19:46:04:233
1002,433777	90,442390	29,010000	1002,408203	2020-10-29T19:46:04:233
1002,432617	90,450317	29,010000	1002,422363	2020-10-29T19:46:04:233
1002,432251	90,455605	29,010000	1002,428955	2020-10-29T19:46:04:233
1002,432861	90,450317	29,010000	1002,437988	2020-10-29T19:46:04:233
1002,435791	90,423897	29,010000	1002,462158	2020-10-29T19:46:04:237
1002,436279	90,421257	29,010000	1002,440674	2020-10-29T19:46:04:237
1002,435425	90,429184	29,010000	1002,427490	2020-10-29T19:46:04:238
1002,434998	90,431824	29,010000	1002,431641	2020-10-29T19:46:04:238
1002,433044	90,447678	29,010000	1002,415771	2020-10-29T19:46:04:238
1002,432373	90,452965	29,000000	1002,426270	2020-10-29T19:46:04:239
1002,433289	90,445038	29,010000	1002,441650	2020-10-29T19:46:04:239
1002,428101	90,489952	29,010000	1002,381104	2020-10-29T19:46:04:239
1002,426086	90,505806	29,000000	1002,408203	2020-10-29T19:46:04:239
1002,425842	90,508453	29,000000	1002,423340	2020-10-29T19:46:04:239
1002,423950	90,524307	29,000000	1002,406738	2020-10-29T19:46:04:239
1002,424866	90,516380	29,000000	1002,433105	2020-10-29T19:46:04:239
1002,426270	90,505806	29,000000	1002,438965	2020-10-29T19:46:04:240
1002,429565	90,476746	29,000000	1002,459229	2020-10-29T19:46:04:240
1002,430481	90,468819	29,000000	1002,438477	2020-10-29T19:46:04:240
1002,430664	90,468819	28,990000	1002,432129	2020-10-29T19:46:04:240
1002,431885	90,458244	29,000000	1002,442871	2020-10-29T19:46:04:240
1002,435303	90,429184	29,000000	1002,466064	2020-10-29T19:46:04:241
1002,441040	90,381622	28,990000	1002,492676	2020-10-29T19:46:04:241
1002,441772	90,373695	28,990000	1002,448242	2020-10-29T19:46:04:242
1002,438965	90,397476	28,990000	1002,413574	2020-10-29T19:46:04:242
1002,438171	90,405403	28,990000	1002,430664	2020-10-29T19:46:04:244
1002,439392	90,394829	28,990000	1002,450439	2020-10-29T19:46:04:244
1002,439453	90,394829	28,980000	1002,439697	2020-10-29T19:46:04:244
1002,439758	90,392189	28,980000	1002,442383	2020-10-29T19:46:04:244
1002,439270	90,394829	28,990000	1002,434814	2020-10-29T19:46:04:244
1002,437500	90,410683	28,990000	1002,421875	2020-10-29T19:46:04:244
1002,440125	90,389549	28,980000	1002,463867	2020-10-29T19:46:04:245
1002,441528	90,376335	28,980000	1002,454102	2020-10-29T19:46:04:245
1002,443542	90,360481	28,980000	1002,461914	2020-10-29T19:46:04:245
1002,441833	90,373695	28,969999	1002,426270	2020-10-29T19:46:04:249
1002,440918	90,381622	28,980000	1002,432373	2020-10-29T19:46:04:249
1002,438293	90,402756	28,969999	1002,414795	2020-10-29T19:46:04:249
1002,435303	90,429184	28,980000	1002,408203	2020-10-29T19:46:04:250
1002,435730	90,426537	28,969999	1002,439453	2020-10-29T19:46:04:250
1002,434143	90,439751	28,969999	1002,419678	2020-10-29T19:46:04:250
1002,431580	90,460892	28,969999	1002,408203	2020-10-29T19:46:04:250
1002,430176	90,471458	28,969999	1002,417480	2020-10-29T19:46:04:250
1002,428345	90,487312	28,959999	1002,411621	2020-10-29T19:46:04:250
1002,427856	90,492599	28,969999	1002,423584	2020-10-29T19:46:04:250
1002,428162	90,489952	28,959999	1002,430908	2020-10-29T19:46:04:436
1002,429932	90,474098	28,969999	1002,446045	2020-10-29T19:46:04:679
1002,430115	90,471458	28,959999	1002,431885	2020-10-29T19:46:04:920
1002,429871	90,474098	28,969999	1002,427734	2020-10-29T19:46:38:158
1002,431946	90,455605	28,969999	1002,450195	2020-10-29T19:46:38:161
1002,430481	90,468819	28,959999	1002,417480	2020-10-29T19:46:38:166
1002,427551	90,495239	28,959999	1002,401123	2020-10-29T19:46:38:167
1002,424255	90,521660	28,959999	1002,395020	2020-10-29T19:46:38:167
1002,423889	90,524307	28,959999	1002,420410	2020-10-29T19:46:38:168
1002,426208	90,505806	28,959999	1002,447510	2020-10-29T19:46:38:168
1002,425781	90,508453	28,959999	1002,421631	2020-10-29T19:46:38:169
1002,425903	90,508453	28,959999	1002,427002	2020-10-29T19:46:38:170
1002,424011	90,524307	28,959999	1002,406738	2020-10-29T19:46:38:170
1002,421082	90,548088	28,949999	1002,394775	2020-10-29T19:46:38:171
1002,418823	90,566582	28,949999	1002,398193	2020-10-29T19:46:38:171
1002,419434	90,561295	28,949999	1002,424805	2020-10-29T19:46:38:172
1002,423584	90,526947	28,959999	1002,460693	2020-10-29T19:46:38:172
1002,427063	90,497879	28,949999	1002,458008	2020-10-29T19:46:38:173
1002,428833	90,482025	28,949999	1002,444580	2020-10-29T19:46:38:173
1002,427734	90,492599	28,949999	1002,417969	2020-10-29T19:46:38:174
1002,420532	90,553368	28,949999	1002,355713	2020-10-29T19:46:38:174
1002,414490	90,603569	28,959999	1002,359863	2020-10-29T19:46:38:174
1002,409302	90,645851	28,949999	1002,362549	2020-10-29T19:46:38:177
1002,406677	90,669632	28,949999	1002,383057	2020-10-29T19:46:38:178
1002,406494	90,672272	28,949999	1002,404541	2020-10-29T19:46:38:179
1002,404419	90,688126	28,949999	1002,385742	2020-10-29T19:46:38:179
1002,403748	90,693413	28,949999	1002,397949	2020-10-29T19:46:38:180
1002,406616	90,669632	28,949999	1002,432861	2020-10-29T19:46:38:180
1002,406433	90,672272	28,949999	1002,404297	2020-10-29T19:46:38:181
1002,406433	90,672272	28,939999	1002,406250	2020-10-29T19:46:38:181
1002,410278	90,637924	28,939999	1002,444580	2020-10-29T19:46:38:181
1002,413025	90,616783	28,939999	1002,437256	2020-10-29T19:46:38:182
1002,413269	90,614143	28,939999	1002,415771	2020-10-29T19:46:38:182
1002,415588	90,595642	28,939999	1002,436035	2020-10-29T19:46:38:183
1002,417419	90,579788	28,939999	1002,433838	2020-10-29T19:46:38:183
1002,418152	90,571861	28,949999	1002,424561	2020-10-29T19:46:38:183
1002,420837	90,550728	28,939999	1002,444824	2020-10-29T19:46:38:184
1002,422485	90,537514	28,939999	1002,437500	2020-10-29T19:46:38:184
1002,423767	90,526947	28,939999	1002,434814	2020-10-29T19:46:38:185
1002,426636	90,500526	28,939999	1002,451904	2020-10-29T19:46:38:185
1002,425659	90,511093	28,939999	1002,416748	2020-10-29T19:46:38:186
1002,424377	90,521660	28,939999	1002,412842	2020-10-29T19:46:38:188
1002,421448	90,545441	28,939999	1002,394775	2020-10-29T19:46:38:188
1002,421692	90,542801	28,930000	1002,423828	2020-10-29T19:46:38:189
1002,418091	90,574509	28,930000	1002,385498	2020-10-29T19:46:38:190
1002,416931	90,582436	28,930000	1002,406250	2020-10-29T19:46:38:191
1002,417480	90,579788	28,930000	1002,422363	2020-10-29T19:46:38:191
1002,419678	90,561295	28,930000	1002,439209	2020-10-29T19:46:38:191
1002,421448	90,545441	28,930000	1002,437256	2020-10-29T19:46:38:192
1002,422913	90,532234	28,930000	1002,436035	2020-10-29T19:46:38:195
1002,425354	90,513733	28,920000	1002,447510	2020-10-29T19:46:38:196
1002,425293	90,513733	28,920000	1002,424561	2020-10-29T19:46:38:196
1002,426086	90,505806	28,930000	1002,433350	2020-10-29T19:46:38:196
1002,428284	90,487312	28,930000	1002,447998	2020-10-29T19:46:38:197
1002,425903	90,508453	28,920000	1002,404785	2020-10-29T19:46:38:198
1002,424438	90,519020	28,920000	1002,411377	2020-10-29T19:46:38:198
1002,421875	90,542801	28,920000	1002,398926	2020-10-29T19:46:38:199
1002,420227	90,556015	28,920000	1002,405029	2020-10-29T19:46:38:199
1002,420715	90,550728	28,910000	1002,425049	2020-10-29T19:46:38:200
1002,423401	90,529587	28,920000	1002,447266	2020-10-29T19:46:38:200
1002,425720	90,508453	28,910000	1002,446777	2020-10-29T19:46:38:201
1002,425659	90,511093	28,920000	1002,425537	2020-10-29T19:46:38:201
1002,423889	90,524307	28,910000	1002,408447	2020-10-29T19:46:38:202
1002,424255	90,521660	28,910000	1002,427979	2020-10-29T19:46:38:202
1002,426880	90,500526	28,900000	1002,450439	2020-10-29T19:46:38:203
1002,426392	90,503166	28,910000	1002,422363	2020-10-29T19:46:38:203
1002,423828	90,524307	28,910000	1002,400635	2020-10-29T19:46:38:206
1002,420471	90,553368	28,910000	1002,390381	2020-10-29T19:46:38:207
1002,418518	90,569221	28,910000	1002,400879	2020-10-29T19:46:38:209
1002,419006	90,566582	28,900000	1002,423584	2020-10-29T19:46:38:214
1002,416077	90,590363	28,900000	1002,389893	2020-10-29T19:46:38:214
1002,415283	90,595642	28,900000	1002,407959	2020-10-29T19:46:38:214
1002,413147	90,614143	28,900000	1002,394287	2020-10-29T19:46:38:215
1002,413391	90,614143	28,900000	1002,415771	2020-10-29T19:46:38:215
1002,415344	90,595642	28,900000	1002,432617	2020-10-29T19:46:38:216
1002,421936	90,540161	28,900000	1002,481445	2020-10-29T19:46:38:216
1002,426025	90,505806	28,900000	1002,462646	2020-10-29T19:46:38:217
1002,430847	90,466171	28,900000	1002,474365	2020-10-29T19:46:38:217
1002,433533	90,445038	28,900000	1002,457764	2020-10-29T19:46:38:217
1002,436829	90,415970	28,889999	1002,466064	2020-10-29T19:46:38:218
1002,437439	90,410683	28,889999	1002,443115	2020-10-29T19:46:38:218
1002,440247	90,386902	28,889999	1002,465820	2020-10-29T19:46:38:218
1002,441772	90,373695	28,889999	1002,455078	2020-10-29T19:46:38:220
1002,443542	90,360481	28,889999	1002,459473	2020-10-29T19:46:38:221
1002,445251	90,344627	28,889999	1002,460938	2020-10-29T19:46:38:222
1002,449890	90,304993	28,879999	1002,491699	2020-10-29T19:46:38:222
1002,452332	90,286499	28,879999	1002,474121	2020-10-29T19:46:38:223
1002,456543	90,249504	28,879999	1002,494141	2020-10-29T19:46:38:223
1002,461487	90,209877	28,889999	1002,505859	2020-10-29T19:46:38:224
1002,465210	90,178169	28,879999	1002,498291	2020-10-29T19:46:38:224
1002,466309	90,167595	28,879999	1002,475830	2020-10-29T19:46:38:224
1002,469727	90,141174	28,869999	1002,500488	2020-10-29T19:46:38:225
1002,472961	90,112106	28,879999	1002,502441	2020-10-29T19:46:38:225
1002,476562	90,083046	28,879999	1002,508789	2020-10-29T19:46:38:226
1002,475708	90,090973	28,869999	1002,468262	2020-10-29T19:46:38:226
1002,476624	90,083046	28,879999	1002,485352	2020-10-29T19:46:38:227
1002,474731	90,098900	28,869999	1002,457764	2020-10-29T19:46:38:228
1002,466736	90,164955	28,869999	1002,394775	2020-10-29T19:46:38:228
1002,458435	90,233650	28,859999	1002,383789	2020-10-29T19:46:38:228
1002,450073	90,304993	28,869999	1002,374756	2020-10-29T19:46:38:229
1002,446228	90,336700	28,859999	1002,411865	2020-10-29T19:46:38:229
1002,446655	90,334061	28,859999	1002,450195	2020-10-29T19:46:38:230
1002,443604	90,357841	28,859999	1002,416016	2020-10-29T19:46:38:230
1002,441772	90,373695	28,859999	1002,425293	2020-10-29T19:46:38:231
1002,439331	90,394829	28,859999	1002,417480	2020-10-29T19:46:38:231
1002,437073	90,413330	28,869999	1002,416504	2020-10-29T19:46:38:233
1002,436401	90,418610	28,859999	1002,430420	2020-10-29T19:46:38:234
1002,432251	90,455605	28,859999	1002,394775	2020-10-29T19:46:38:234
1002,431091	90,463531	28,859999	1002,420410	2020-10-29T19:46:38:235
1002,430664	90,468819	28,849998	1002,426758	2020-10-29T19:46:38:235
1002,428162	90,489952	28,849998	1002,406006	2020-10-29T19:46:38:236
1002,425171	90,513733	28,849998	1002,398438	2020-10-29T19:46:38:237
1002,422729	90,534874	28,849998	1002,400635	2020-10-29T19:46:38:237
1002,420227	90,556015	28,849998	1002,397949	2020-10-29T19:46:38:243
1002,418091	90,574509	28,849998	1002,399170	2020-10-29T19:46:38:245
1002,414612	90,603569	28,840000	1002,383057	2020-10-29T19:46:38:245
1002,412048	90,624710	28,840000	1002,388428	2020-10-29T19:46:38:246
1002,413513	90,611496	28,840000	1002,426514	2020-10-29T19:46:38:246
1002,413818	90,608856	28,840000	1002,416504	2020-10-29T19:46:38:247
1002,412903	90,616783	28,830000	1002,404541	2020-10-29T19:46:38:267
1002,414734	90,600929	28,840000	1002,431641	2020-10-29T19:46:38:270
1002,414734	90,600929	28,840000	1002,415039	2020-10-29T19:46:38:270
1002,412109	90,624710	28,840000	1002,388916	2020-10-29T19:46:38:270
1002,411682	90,627350	28,830000	1002,407715	2020-10-29T19:46:38:270
1002,412415	90,622070	28,830000	1002,419434	2020-10-29T19:46:38:270
1002,410095	90,640564	28,830000	1002,389160	2020-10-29T19:46:38:270
1002,407837	90,659058	28,830000	1002,387207	2020-10-29T19:46:38:270
1002,406494	90,672272	28,830000	1002,394287	2020-10-29T19:46:38:270
1002,406250	90,672272	28,820000	1002,403809	2020-10-29T19:46:38:270
1002,407288	90,664345	28,830000	1002,416748	2020-10-29T19:46:38:271
1002,405701	90,677559	28,830000	1002,390869	2020-10-29T19:46:38:271
1002,405334	90,680199	28,830000	1002,402100	2020-10-29T19:46:38:271
1002,407227	90,664345	28,820000	1002,424316	2020-10-29T19:46:38:271
1002,409668	90,643204	28,820000	1002,431396	2020-10-29T19:46:38:271
1002,413757	90,608856	28,820000	1002,450439	2020-10-29T19:46:38:271
1002,415100	90,598289	28,809999	1002,427246	2020-10-29T19:46:38:271
1002,411743	90,627350	28,820000	1002,381348	2020-10-29T19:46:38:271
1002,411316	90,629997	28,809999	1002,407471	2020-10-29T19:46:38:271
1002,414368	90,606216	28,809999	1002,441895	2020-10-29T19:46:38:272
1002,414001	90,608856	28,809999	1002,410400	2020-10-29T19:46:38:272
1002,409607	90,645851	28,809999	1002,369873	2020-10-29T19:46:38:272
1002,408569	90,653778	28,799999	1002,399170	2020-10-29T19:46:38:272
1002,409912	90,643204	28,799999	1002,422119	2020-10-29T19:46:38:289
1002,411682	90,627350	28,809999	1002,427490	2020-10-29T19:46:38:530
1002,412964	90,616783	28,789999	1002,424805	2020-10-29T19:46:38:771
1002,413879	90,608856	28,799999	1002,422363	2020-10-29T19:46:39:010
1002,413208	90,614143	28,789999	1002,406982	2020-10-29T19:46:39:252
1002,413757	90,608856	28,789999	1002,418457	2020-10-29T19:46:39:491
1002,415894	90,593002	28,799999	1002,435059	2020-10-29T19:46:39:731
1002,419678	90,561295	28,779999	1002,453857	2020-10-29T19:46:39:971
1002,419373	90,563934	28,789999	1002,416504	2020-10-29T19:46:40:212
1002,418823	90,566582	28,789999	1002,413574	2020-10-29T19:46:40:453
1002,418274	90,571861	28,789999	1002,412842	2020-10-29T19:46:40:694
1002,416382	90,587715	28,789999	1002,398926	2020-10-29T19:46:40:933
1002,415894	90,593002	28,779999	1002,411377	2020-10-29T19:46:41:173
1002,413757	90,608856	28,789999	1002,395020	2020-10-29T19:46:41:413
1002,414368	90,606216	28,789999	1002,419678	2020-10-29T19:46:41:653
1002,416626	90,585075	28,789999	1002,437012	2020-10-29T19:46:41:894
1002,417847	90,574509	28,789999	1002,428711	2020-10-29T19:46:42:133
1002,417358	90,579788	28,799999	1002,413330	2020-10-29T19:46:42:374
1002,418640	90,569221	28,789999	1002,430176	2020-10-29T19:46:42:614
1002,420593	90,553368	28,789999	1002,437988	2020-10-29T19:46:42:854
1002,420471	90,553368	28,789999	1002,419189	2020-10-29T19:46:43:094
1002,420044	90,558655	28,789999	1002,416016	2020-10-29T19:46:43:334
1002,423401	90,529587	28,789999	1002,453613	2020-10-29T19:46:43:574
1002,425659	90,511093	28,799999	1002,446045	2020-10-29T19:46:43:816
1002,424561	90,519020	28,789999	1002,414795	2020-10-29T19:46:44:056
1002,426941	90,497879	28,789999	1002,448242	2020-10-29T19:46:44:298
1002,427490	90,495239	28,789999	1002,432617	2020-10-29T19:46:44:536
1002,429199	90,479385	28,799999	1002,444824	2020-10-29T19:46:44:775
1002,423523	90,526947	28,789999	1002,372070	2020-10-29T19:46:45:017
1002,420898	90,550728	28,789999	1002,396973	2020-10-29T19:46:45:258
1002,419678	90,561295	28,799999	1002,408691	2020-10-29T19:46:45:498
1002,419495	90,561295	28,789999	1002,418213	2020-10-29T19:46:45:738
1002,418152	90,571861	28,789999	1002,405518	2020-10-29T19:46:45:977
1002,412903	90,616783	28,789999	1002,365234	2020-10-29T19:46:46:218
1002,410095	90,640564	28,789999	1002,385254	2020-10-29T19:46:46:459
1002,408081	90,659058	28,789999	1002,390137	2020-10-29T19:46:46:698
1002,406494	90,672272	28,799999	1002,392090	2020-10-29T19:46:46:938
1002,406128	90,674911	28,799999	1002,402588	2020-10-29T19:46:47:179
1002,408691	90,651131	28,789999	1002,431885	2020-10-29T19:46:47:421
1002,410034	90,640564	28,799999	1002,422119	2020-10-29T19:46:47:662
1002,409790	90,643204	28,789999	1002,407715	2020-10-29T19:46:47:901
1002,411804	90,627350	28,789999	1002,430420	2020-10-29T19:46:48:139
1002,411194	90,632637	28,789999	1002,406006	2020-10-29T19:46:48:380
1002,412170	90,622070	28,799999	1002,421143	2020-10-29T19:46:48:619
1002,411438	90,629997	28,789999	1002,404541	2020-10-29T19:46:48:860
1002,412292	90,622070	28,799999	1002,419678	2020-10-29T19:46:49:100
1002,414246	90,606216	28,789999	1002,431885	2020-10-29T19:46:49:341
1002,417053	90,582436	28,789999	1002,442139	2020-10-29T19:46:49:581
1002,415283	90,595642	28,789999	1002,399170	2020-10-29T19:46:49:820
1002,413208	90,614143	28,789999	1002,394775	2020-10-29T19:46:50:062
1002,411926	90,624710	28,789999	1002,400146	2020-10-29T19:46:50:302
1002,411194	90,632637	28,789999	1002,404541	2020-10-29T19:46:50:542
1002,411377	90,629997	28,789999	1002,412842	2020-10-29T19:46:50:782
1002,410522	90,637924	28,779999	1002,402588	2020-10-29T19:46:51:022
1002,409973	90,640564	28,789999	1002,405029	2020-10-29T19:46:51:263
1002,411133	90,632637	28,789999	1002,421631	2020-10-29T19:46:51:504
1002,411804	90,627350	28,789999	1002,417725	2020-10-29T19:46:51:743
1002,411926	90,624710	28,789999	1002,413086	2020-10-29T19:46:51:983
1002,409973	90,640564	28,799999	1002,392578	2020-10-29T19:46:52:230
1002,410461	90,637924	28,789999	1002,415039	2020-10-29T19:46:52:462
1002,414001	90,608856	28,779999	1002,446289	2020-10-29T19:46:52:703
1002,416138	90,590363	28,789999	1002,435303	2020-10-29T19:46:52:942
1002,416992	90,582436	28,789999	1002,424805	2020-10-29T19:46:53:182
1002,414062	90,608856	28,779999	1002,387695	2020-10-29T19:46:53:422
1002,409424	90,645851	28,789999	1002,368164	2020-10-29T19:46:53:662
1002,408081	90,659058	28,789999	1002,396240	2020-10-29T19:46:53:906
1002,409973	90,640564	28,789999	1002,427002	2020-10-29T19:46:54:145
1002,412292	90,622070	28,789999	1002,433350	2020-10-29T19:46:54:386
1002,415588	90,595642	28,789999	1002,445557	2020-10-29T19:46:54:626
1002,418884	90,566582	28,779999	1002,448486	2020-10-29T19:46:54:866
1002,425659	90,511093	28,779999	1002,486084	2020-10-29T19:46:55:107
1002,429443	90,479385	28,789999	1002,463623	2020-10-29T19:46:55:347
1002,433350	90,445038	28,789999	1002,468750	2020-10-29T19:46:55:586
1002,437317	90,413330	28,789999	1002,473145	2020-10-29T19:46:55:827
1002,440002	90,389549	28,779999	1002,464600	2020-10-29T19:46:56:068
1002,439758	90,392189	28,789999	1002,437744	2020-10-29T19:46:56:308
1002,438416	90,402756	28,779999	1002,426270	2020-10-29T19:46:56:548
1002,436401	90,418610	28,779999	1002,417725	2020-10-29T19:46:56:788
1002,436279	90,421257	28,789999	1002,434814	2020-10-29T19:46:57:028
1002,433655	90,442390	28,789999	1002,409912	2020-10-29T19:46:57:268
1002,433533	90,445038	28,789999	1002,432373	2020-10-29T19:46:57:510
1002,433289	90,445038	28,789999	1002,430908	2020-10-29T19:46:57:750
1002,431458	90,460892	28,789999	1002,414795	2020-10-29T19:46:57:989
1002,428833	90,482025	28,789999	1002,405029	2020-10-29T19:46:58:230
1002,426758	90,500526	28,779999	1002,408447	2020-10-29T19:46:58:471
1002,425964	90,505806	28,789999	1002,418457	2020-10-29T19:46:58:711
1002,426575	90,503166	28,779999	1002,431885	2020-10-29T19:46:58:950
1002,423645	90,526947	28,789999	1002,397217	2020-10-29T19:46:59:191
1002,424683	90,519020	28,789999	1002,433594	2020-10-29T19:46:59:431
1002,423035	90,532234	28,789999	1002,407959	2020-10-29T19:46:59:671
1002,421936	90,540161	28,789999	1002,411621	2020-10-29T19:46:59:912
1002,421814	90,542801	28,789999	1002,420654	2020-10-29T19:47:00:151
1002,423523	90,526947	28,789999	1002,438965	2020-10-29T19:47:00:393
1002,423950	90,524307	28,789999	1002,427734	2020-10-29T19:47:00:633
1002,426514	90,503166	28,789999	1002,449951	2020-10-29T19:47:00:871
1002,430908	90,466171	28,789999	1002,470459	2020-10-29T19:47:01:113
1002,430298	90,471458	28,789999	1002,424561	2020-10-29T19:47:01:352
1002,431335	90,463531	28,789999	1002,440674	2020-10-29T19:47:01:593
1002,432678	90,450317	28,789999	1002,444824	2020-10-29T19:47:01:833
1002,431763	90,458244	28,789999	1002,423340	2020-10-29T19:47:02:074
1002,432495	90,452965	28,789999	1002,439453	2020-10-29T19:47:02:315
1002,432251	90,455605	28,789999	1002,430176	2020-10-29T19:47:02:553
1002,430481	90,468819	28,789999	1002,414551	2020-10-29T19:47:02:794
1002,426025	90,505806	28,779999	1002,385742	2020-10-29T19:47:03:035
1002,420959	90,548088	28,789999	1002,375244	2020-10-29T19:47:03:274
1002,419434	90,561295	28,789999	1002,405762	2020-10-29T19:47:03:516
1002,413879	90,608856	28,789999	1002,363525	2020-10-29T19:47:03:755
1002,410828	90,635277	28,779999	1002,383301	2020-10-29T19:47:03:996
1002,411438	90,629997	28,789999	1002,416992	2020-10-29T19:47:04:236
1002,411377	90,629997	28,789999	1002,410400	2020-10-29T19:47:04:475
1002,409241	90,648491	28,789999	1002,389893	2020-10-29T19:47:04:717
1002,406189	90,672272	28,789999	1002,378662	2020-10-29T19:47:04:956
1002,406738	90,669632	28,779999	1002,412109	2020-10-29T19:47:05:197
1002,407898	90,659058	28,779999	1002,418701	2020-10-29T19:47:05:437
1002,409546	90,645851	28,779999	1002,423828	2020-10-29T19:47:05:676
1002,411804	90,627350	28,789999	1002,431885	2020-10-29T19:47:05:917
1002,414062	90,608856	28,789999	1002,434570	2020-10-29T19:47:06:157
1002,416565	90,585075	28,789999	1002,439209	2020-10-29T19:47:06:398
1002,417786	90,577148	28,779999	1002,428711	2020-10-29T19:47:06:638
1002,421570	90,545441	28,789999	1002,455566	2020-10-29T19:47:06:878
1002,420532	90,553368	28,789999	1002,411377	2020-10-29T19:47:07:118
1002,421265	90,545441	28,779999	1002,427490	2020-10-29T19:47:07:357
1002,421875	90,542801	28,789999	1002,427002	2020-10-29T19:47:07:598
1002,421997	90,540161	28,779999	1002,422852	2020-10-29T19:47:07:838
1002,418579	90,569221	28,779999	1002,387939	2020-10-29T19:47:08:080
1002,422302	90,537514	28,779999	1002,455811	2020-10-29T19:47:08:320
1002,424683	90,519020	28,779999	1002,445801	2020-10-29T19:47:08:558
1002,424622	90,519020	28,779999	1002,424316	2020-10-29T19:47:08:802
1002,421509	90,545441	28,779999	1002,393311	2020-10-29T19:47:09:040
1002,417603	90,577148	28,779999	1002,382324	2020-10-29T19:47:09:280
1002,416443	90,587715	28,779999	1002,406006	2020-10-29T19:47:09:521
1002,413635	90,611496	28,779999	1002,387939	2020-10-29T19:47:09:762
1002,414307	90,606216	28,779999	1002,420410	2020-10-29T19:47:10:001
1002,412109	90,624710	28,779999	1002,392334	2020-10-29T19:47:10:241
1002,409241	90,648491	28,769999	1002,383057	2020-10-29T19:47:10:480
1002,404419	90,688126	28,779999	1002,361084	2020-10-29T19:47:10:725
1002,401672	90,711906	28,779999	1002,377197	2020-10-29T19:47:10:962
1002,397949	90,743614	28,769999	1002,364258	2020-10-29T19:47:11:203
1002,393372	90,780602	28,769999	1002,352295	2020-10-29T19:47:11:443
1002,390991	90,801743	28,760000	1002,369873	2020-10-29T19:47:11:683
1002,393188	90,783249	28,769999	1002,413086	2020-10-29T19:47:11:923
1002,394836	90,770035	28,769999	1002,409668	2020-10-29T19:47:12:162
1002,392273	90,791176	28,769999	1002,369385	2020-10-29T19:47:12:403
1002,392639	90,785889	28,769999	1002,395996	2020-10-29T19:47:12:643
1002,397217	90,748894	28,769999	1002,438232	2020-10-29T19:47:12:883
1002,404785	90,685486	28,769999	1002,472900	2020-10-29T19:47:13:124
1002,405396	90,680199	28,769999	1002,410889	2020-10-29T19:47:13:364
1002,404236	90,690765	28,769999	1002,393311	2020-10-29T19:47:13:604
1002,402283	90,706619	28,769999	1002,384277	2020-10-29T19:47:13:844
1002,401550	90,711906	28,769999	1002,394531	2020-10-29T19:47:14:084
1002,404297	90,688126	28,760000	1002,428955	2020-10-29T19:47:14:326
1002,406006	90,674911	28,760000	1002,421631	2020-10-29T19:47:14:565
1002,411072	90,632637	28,760000	1002,456543	2020-10-29T19:47:14:805
1002,411743	90,627350	28,760000	1002,417725	2020-10-29T19:47:15:046
1002,413269	90,614143	28,760000	1002,427246	2020-10-29T19:47:15:286
1002,413147	90,614143	28,760000	1002,411621	2020-10-29T19:47:15:527
1002,415222	90,598289	28,760000	1002,434082	2020-10-29T19:47:15:766
1002,411255	90,629997	28,750000	1002,375488	2020-10-29T19:47:16:006
1002,407043	90,666985	28,760000	1002,369141	2020-10-29T19:47:16:247
1002,406006	90,674911	28,750000	1002,396729	2020-10-29T19:47:16:487
1002,406006	90,674911	28,750000	1002,405518	2020-10-29T19:47:16:728
1002,404724	90,685486	28,760000	1002,393066	2020-10-29T19:47:16:968
1002,403625	90,696053	28,760000	1002,393799	2020-10-29T19:47:17:208
1002,403198	90,698692	28,760000	1002,399170	2020-10-29T19:47:17:448
1002,403809	90,693413	28,750000	1002,409668	2020-10-29T19:47:17:688
1002,401306	90,714546	28,750000	1002,379150	2020-10-29T19:47:17:929
1002,403564	90,696053	28,750000	1002,424072	2020-10-29T19:47:18:168
1002,406860	90,666985	28,750000	1002,436523	2020-10-29T19:47:18:409
1002,408325	90,656418	28,750000	1002,421631	2020-10-29T19:47:18:649
1002,411011	90,632637	28,760000	1002,435303	2020-10-29T19:47:18:889
1002,413330	90,614143	28,750000	1002,434570	2020-10-29T19:47:19:131
1002,415283	90,595642	28,750000	1002,432617	2020-10-29T19:47:19:369
1002,419067	90,566582	28,750000	1002,453613	2020-10-29T19:47:19:610
1002,420166	90,556015	28,740000	1002,430176	2020-10-29T19:47:19:851
1002,421875	90,542801	28,740000	1002,437744	2020-10-29T19:47:20:091
1002,422729	90,534874	28,740000	1002,429932	2020-10-29T19:47:20:331
1002,418518	90,569221	28,740000	1002,380615	2020-10-29T19:47:20:571
1002,416077	90,590363	28,740000	1002,394043	2020-10-29T19:47:20:811
1002,413086	90,616783	28,740000	1002,385986	2020-10-29T19:47:21:053
1002,411865	90,624710	28,740000	1002,401123	2020-10-29T19:47:21:293
1002,409973	90,640564	28,730000	1002,392822	2020-10-29T19:47:21:534
1002,407837	90,659058	28,730000	1002,388916	2020-10-29T19:47:21:774
1002,402466	90,703979	28,740000	1002,353760	2020-10-29T19:47:22:012
1002,399719	90,727760	28,730000	1002,375000	2020-10-29T19:47:22:252
1002,400940	90,717194	28,730000	1002,412109	2020-10-29T19:47:22:493
1002,402649	90,703979	28,730000	1002,417969	2020-10-29T19:47:22:733
1002,404541	90,688126	28,730000	1002,421875	2020-10-29T19:47:22:974
1002,406616	90,669632	28,730000	1002,425537	2020-10-29T19:47:23:214
1002,406189	90,672272	28,730000	1002,401855	2020-10-29T19:47:23:454
1002,404053	90,690765	28,730000	1002,384766	2020-10-29T19:47:23:694
1002,402954	90,701340	28,730000	1002,393066	2020-10-29T19:47:23:935
1002,404602	90,685486	28,730000	1002,418945	2020-10-29T19:47:24:175
1002,408020	90,659058	28,730000	1002,438721	2020-10-29T19:47:24:415
1002,411438	90,629997	28,730000	1002,442139	2020-10-29T19:47:24:656
1002,412659	90,619423	28,730000	1002,423584	2020-10-29T19:47:24:895
1002,413452	90,611496	28,730000	1002,420410	2020-10-29T19:47:25:136
1002,414917	90,600929	28,730000	1002,428467	2020-10-29T19:47:25:376
1002,419006	90,566582	28,730000	1002,455566	2020-10-29T19:47:25:616
1002,420654	90,550728	28,730000	1002,435547	2020-10-29T19:47:25:856
1002,420959	90,548088	28,719999	1002,423340	2020-10-29T19:47:26:097
1002,417969	90,574509	28,719999	1002,391113	2020-10-29T19:47:26:337
1002,417358	90,579788	28,719999	1002,411865	2020-10-29T19:47:26:577
1002,416077	90,590363	28,719999	1002,404541	2020-10-29T19:47:26:818
1002,414856	90,600929	28,719999	1002,404053	2020-10-29T19:47:27:058
1002,415161	90,598289	28,719999	1002,417725	2020-10-29T19:47:27:297
1002,413818	90,608856	28,719999	1002,401367	2020-10-29T19:47:27:538
1002,412292	90,622070	28,719999	1002,398193	2020-10-29T19:47:27:779
1002,411377	90,629997	28,709999	1002,403564	2020-10-29T19:47:28:018
1002,409973	90,640564	28,709999	1002,397217	2020-10-29T19:47:28:259
1002,409790	90,643204	28,709999	1002,408203	2020-10-29T19:47:28:499
1002,410217	90,640564	28,709999	1002,414307	2020-10-29T19:47:28:739
1002,411438	90,629997	28,799999	1002,422119	2020-10-29T19:47:29:313
1002,413208	90,614143	28,709999	1002,428711	2020-10-29T19:47:29:371
1002,411255	90,629997	28,709999	1002,393799	2020-10-29T19:47:29:490
1002,408142	90,656418	28,709999	1002,380371	2020-10-29T19:47:29:704
1002,404968	90,682838	28,709999	1002,376465	2020-10-29T19:47:29:943
1002,401978	90,709267	28,709999	1002,375000	2020-10-29T19:47:30:190
1002,402039	90,709267	28,709999	1002,402588	2020-10-29T19:47:30:426
1002,400452	90,722473	28,709999	1002,386230	2020-10-29T19:47:30:663
1002,398254	90,740967	28,699999	1002,378418	2020-10-29T19:47:30:902
1002,398499	90,738327	28,699999	1002,401123	2020-10-29T19:47:31:141
1002,398254	90,740967	28,709999	1002,395752	2020-10-29T19:47:31:379
1002,397217	90,748894	28,699999	1002,388184	2020-10-29T19:47:31:684
1002,395020	90,767395	28,699999	1002,375488	2020-10-29T19:47:31:862
1002,391357	90,799103	28,699999	1002,358398	2020-10-29T19:47:32:101
1002,388123	90,825523	28,699999	1002,358887	2020-10-29T19:47:32:344
1002,388245	90,822884	28,699999	1002,389404	2020-10-29T19:47:32:583
1002,388062	90,825523	28,709999	1002,386230	2020-10-29T19:47:32:822
1002,392883	90,785889	28,699999	1002,436279	2020-10-29T19:47:33:070
1002,396057	90,759468	28,699999	1002,424561	2020-10-29T19:47:33:304
1002,397888	90,743614	28,699999	1002,414551	2020-10-29T19:47:33:547
1002,398865	90,735687	28,709999	1002,407715	2020-10-29T19:47:33:783
