light_intensity	ts
2097152,000000	2020-10-29T19:45:22:169
2097152,000000	2020-10-29T19:45:22:220
2425158,000000	2020-10-29T19:45:22:250
2425408,000000	2020-10-29T19:45:22:289
2425472,000000	2020-10-29T19:45:22:331
2425171,000000	2020-10-29T19:45:22:370
2424954,000000	2020-10-29T19:45:22:410
2425077,000000	2020-10-29T19:45:22:450
2425598,000000	2020-10-29T19:45:22:490
2425994,000000	2020-10-29T19:45:22:530
2425743,000000	2020-10-29T19:45:22:571
2121468,000000	2020-10-29T19:45:22:610
2122029,000000	2020-10-29T19:45:22:650
2122237,000000	2020-10-29T19:45:22:690
2122292,000000	2020-10-29T19:45:22:730
2121470,000000	2020-10-29T19:45:22:771
2077685,000000	2020-10-29T19:45:22:811
2075710,000000	2020-10-29T19:45:22:850
2072817,000000	2020-10-29T19:45:22:890
2068471,000000	2020-10-29T19:45:22:960
2068194,000000	2020-10-29T19:45:22:973
2098245,000000	2020-10-29T19:45:23:021
2088845,000000	2020-10-29T19:45:23:051
2089644,000000	2020-10-29T19:45:23:090
2090573,000000	2020-10-29T19:45:23:130
2092144,000000	2020-10-29T19:45:23:171
2092299,000000	2020-10-29T19:45:23:211
2092448,000000	2020-10-29T19:45:23:250
2094523,000000	2020-10-29T19:45:23:291
2105300,000000	2020-10-29T19:45:23:331
2130232,000000	2020-10-29T19:45:23:371
2175511,000000	2020-10-29T19:45:23:411
2206192,000000	2020-10-29T19:45:23:451
2205969,000000	2020-10-29T19:45:23:492
2199187,000000	2020-10-29T19:45:23:532
2207883,000000	2020-10-29T19:45:23:570
2204443,000000	2020-10-29T19:45:23:611
2194508,000000	2020-10-29T19:45:23:653
2184334,000000	2020-10-29T19:45:23:693
2171828,000000	2020-10-29T19:45:23:733
2158614,000000	2020-10-29T19:45:23:775
2146737,000000	2020-10-29T19:45:23:814
2072704,000000	2020-10-29T19:45:31:132
2077115,000000	2020-10-29T19:45:31:132
2079050,000000	2020-10-29T19:45:31:169
2083788,000000	2020-10-29T19:45:31:206
2086466,000000	2020-10-29T19:45:31:245
2088877,000000	2020-10-29T19:45:31:287
2091110,000000	2020-10-29T19:45:31:327
2088608,000000	2020-10-29T19:45:31:366
2081533,000000	2020-10-29T19:45:31:410
2074489,000000	2020-10-29T19:45:31:446
2070641,000000	2020-10-29T19:45:31:487
2070361,000000	2020-10-29T19:45:31:527
2072812,000000	2020-10-29T19:45:31:566
2077432,000000	2020-10-29T19:45:31:607
2079734,000000	2020-10-29T19:45:31:648
2074850,000000	2020-10-29T19:45:31:688
2082412,000000	2020-10-29T19:45:31:727
2082390,000000	2020-10-29T19:45:31:767
2080743,000000	2020-10-29T19:45:31:807
2079641,000000	2020-10-29T19:45:31:847
2077023,000000	2020-10-29T19:45:31:889
2075203,000000	2020-10-29T19:45:31:927
2080710,000000	2020-10-29T19:45:31:967
2088061,000000	2020-10-29T19:45:32:007
2092406,000000	2020-10-29T19:45:32:047
2091570,000000	2020-10-29T19:45:32:087
2088014,000000	2020-10-29T19:45:32:130
2080294,000000	2020-10-29T19:45:32:167
2070453,000000	2020-10-29T19:45:32:207
2064557,000000	2020-10-29T19:45:32:248
2071280,000000	2020-10-29T19:45:32:288
2079218,000000	2020-10-29T19:45:32:328
2088785,000000	2020-10-29T19:45:32:368
2097210,000000	2020-10-29T19:45:32:408
2101880,000000	2020-10-29T19:45:32:447
2108308,000000	2020-10-29T19:45:32:488
2115908,000000	2020-10-29T19:45:32:528
2121534,000000	2020-10-29T19:45:32:567
2126118,000000	2020-10-29T19:45:32:610
2128866,000000	2020-10-29T19:45:32:648
2133931,000000	2020-10-29T19:45:32:688
2138343,000000	2020-10-29T19:45:32:728
2136316,000000	2020-10-29T19:45:32:768
2128147,000000	2020-10-29T19:45:32:808
2121785,000000	2020-10-29T19:45:32:849
2120789,000000	2020-10-29T19:45:32:888
2117631,000000	2020-10-29T19:45:32:928
2116579,000000	2020-10-29T19:45:32:968
2117057,000000	2020-10-29T19:45:33:008
2116239,000000	2020-10-29T19:45:33:048
2113920,000000	2020-10-29T19:45:33:092
2116012,000000	2020-10-29T19:45:33:128
2117199,000000	2020-10-29T19:45:33:168
2118181,000000	2020-10-29T19:45:33:208
2120080,000000	2020-10-29T19:45:33:248
2122919,000000	2020-10-29T19:45:33:289
2125902,000000	2020-10-29T19:45:33:331
2128631,000000	2020-10-29T19:45:33:369
2130581,000000	2020-10-29T19:45:33:408
2133371,000000	2020-10-29T19:45:33:448
2132934,000000	2020-10-29T19:45:33:489
2129004,000000	2020-10-29T19:45:33:529
2126569,000000	2020-10-29T19:45:33:571
2125077,000000	2020-10-29T19:45:33:609
2123663,000000	2020-10-29T19:45:33:649
2122452,000000	2020-10-29T19:45:33:689
2121038,000000	2020-10-29T19:45:33:729
2117738,000000	2020-10-29T19:45:33:769
2113552,000000	2020-10-29T19:45:33:810
2108617,000000	2020-10-29T19:45:33:849
2106533,000000	2020-10-29T19:45:33:889
2107219,000000	2020-10-29T19:45:33:929
2104971,000000	2020-10-29T19:45:33:969
2105206,000000	2020-10-29T19:45:34:009
2104828,000000	2020-10-29T19:45:34:051
2100973,000000	2020-10-29T19:45:34:090
2092733,000000	2020-10-29T19:45:34:129
2085284,000000	2020-10-29T19:45:34:169
2078318,000000	2020-10-29T19:45:34:209
2074730,000000	2020-10-29T19:45:34:250
2073286,000000	2020-10-29T19:45:34:291
2072249,000000	2020-10-29T19:45:34:378
2072939,000000	2020-10-29T19:45:34:400
2077482,000000	2020-10-29T19:45:34:413
2082776,000000	2020-10-29T19:45:34:449
2087153,000000	2020-10-29T19:45:34:489
2088574,000000	2020-10-29T19:45:34:531
2092387,000000	2020-10-29T19:45:34:570
2109813,000000	2020-10-29T19:45:34:609
2121848,000000	2020-10-29T19:45:34:650
2128698,000000	2020-10-29T19:45:34:690
2138394,000000	2020-10-29T19:45:34:730
2143698,000000	2020-10-29T19:45:34:773
2144130,000000	2020-10-29T19:45:34:810
2140976,000000	2020-10-29T19:45:34:850
2137534,000000	2020-10-29T19:45:34:891
2131077,000000	2020-10-29T19:45:34:930
2126065,000000	2020-10-29T19:45:34:970
2124841,000000	2020-10-29T19:45:35:011
2125952,000000	2020-10-29T19:45:35:050
2127847,000000	2020-10-29T19:45:35:090
2129056,000000	2020-10-29T19:45:35:131
2128742,000000	2020-10-29T19:45:35:170
2127448,000000	2020-10-29T19:45:35:210
2127402,000000	2020-10-29T19:45:35:251
2128742,000000	2020-10-29T19:45:35:290
2131327,000000	2020-10-29T19:45:35:331
2134186,000000	2020-10-29T19:45:35:371
2136302,000000	2020-10-29T19:45:35:410
2130964,000000	2020-10-29T19:45:35:451
2123304,000000	2020-10-29T19:45:35:493
2113839,000000	2020-10-29T19:45:35:531
2104486,000000	2020-10-29T19:45:35:571
2102706,000000	2020-10-29T19:45:35:611
2103271,000000	2020-10-29T19:45:35:651
2105015,000000	2020-10-29T19:45:35:691
2106938,000000	2020-10-29T19:45:35:732
2110363,000000	2020-10-29T19:45:35:771
2112352,000000	2020-10-29T19:45:35:811
2113430,000000	2020-10-29T19:45:35:851
2116108,000000	2020-10-29T19:45:35:891
2119290,000000	2020-10-29T19:45:35:931
2123143,000000	2020-10-29T19:45:35:974
2127691,000000	2020-10-29T19:45:36:011
2132245,000000	2020-10-29T19:45:36:051
2132316,000000	2020-10-29T19:45:36:092
2128851,000000	2020-10-29T19:45:36:134
2123460,000000	2020-10-29T19:45:36:171
2114740,000000	2020-10-29T19:45:36:212
2113193,000000	2020-10-29T19:45:36:252
2120212,000000	2020-10-29T19:45:36:292
2121300,000000	2020-10-29T19:45:36:332
2121957,000000	2020-10-29T19:45:36:372
2121945,000000	2020-10-29T19:45:36:411
2121654,000000	2020-10-29T19:45:36:454
2122254,000000	2020-10-29T19:45:36:492
2123683,000000	2020-10-29T19:45:36:531
2125588,000000	2020-10-29T19:45:36:572
2127615,000000	2020-10-29T19:45:36:612
2130453,000000	2020-10-29T19:45:36:651
2131728,000000	2020-10-29T19:45:36:694
2128446,000000	2020-10-29T19:45:36:732
2122394,000000	2020-10-29T19:45:36:780
2115751,000000	2020-10-29T19:45:36:812
2110467,000000	2020-10-29T19:45:36:852
2107436,000000	2020-10-29T19:45:36:892
2111183,000000	2020-10-29T19:45:36:934
2112201,000000	2020-10-29T19:45:36:972
2112733,000000	2020-10-29T19:45:37:012
2113992,000000	2020-10-29T19:45:37:052
2115603,000000	2020-10-29T19:45:37:092
2116317,000000	2020-10-29T19:45:37:132
2118746,000000	2020-10-29T19:45:37:174
2122141,000000	2020-10-29T19:45:37:212
2123569,000000	2020-10-29T19:45:37:253
2123903,000000	2020-10-29T19:45:37:293
2121366,000000	2020-10-29T19:45:37:333
2113469,000000	2020-10-29T19:45:37:372
2105345,000000	2020-10-29T19:45:37:414
2100805,000000	2020-10-29T19:45:37:453
2098840,000000	2020-10-29T19:45:37:493
2100234,000000	2020-10-29T19:45:37:533
2103225,000000	2020-10-29T19:45:37:573
2105261,000000	2020-10-29T19:45:37:613
2106331,000000	2020-10-29T19:45:37:655
2107132,000000	2020-10-29T19:45:37:693
2106576,000000	2020-10-29T19:45:37:733
2106133,000000	2020-10-29T19:45:37:773
2106824,000000	2020-10-29T19:45:37:813
2107525,000000	2020-10-29T19:45:37:853
2108832,000000	2020-10-29T19:45:37:895
2110834,000000	2020-10-29T19:45:37:934
2111493,000000	2020-10-29T19:45:37:973
2106262,000000	2020-10-29T19:45:38:013
2098942,000000	2020-10-29T19:45:38:053
2092038,000000	2020-10-29T19:45:38:094
2086747,000000	2020-10-29T19:45:38:137
2083890,000000	2020-10-29T19:45:38:174
2081831,000000	2020-10-29T19:45:38:214
2082592,000000	2020-10-29T19:45:38:253
2086147,000000	2020-10-29T19:45:38:294
2092210,000000	2020-10-29T19:45:38:334
2097714,000000	2020-10-29T19:45:38:375
2102597,000000	2020-10-29T19:45:38:416
2107008,000000	2020-10-29T19:45:38:454
2111602,000000	2020-10-29T19:45:38:494
2115967,000000	2020-10-29T19:45:38:534
2119673,000000	2020-10-29T19:45:38:574
2120695,000000	2020-10-29T19:45:38:616
2115155,000000	2020-10-29T19:45:38:654
2107358,000000	2020-10-29T19:45:38:694
2101728,000000	2020-10-29T19:45:38:734
2099667,000000	2020-10-29T19:45:38:774
2100215,000000	2020-10-29T19:45:38:814
2101632,000000	2020-10-29T19:45:38:855
2102353,000000	2020-10-29T19:45:38:895
2103655,000000	2020-10-29T19:45:38:934
2104768,000000	2020-10-29T19:45:38:974
2105426,000000	2020-10-29T19:45:39:014
2105053,000000	2020-10-29T19:45:39:054
2104165,000000	2020-10-29T19:45:39:096
2103346,000000	2020-10-29T19:45:39:135
2103723,000000	2020-10-29T19:45:39:174
2105340,000000	2020-10-29T19:45:39:214
2105515,000000	2020-10-29T19:45:39:254
2091636,000000	2020-10-29T19:45:39:296
2085359,000000	2020-10-29T19:45:39:339
2081787,000000	2020-10-29T19:45:39:376
2080976,000000	2020-10-29T19:45:39:416
2081555,000000	2020-10-29T19:45:39:456
2082992,000000	2020-10-29T19:45:39:496
2083596,000000	2020-10-29T19:45:39:536
2083174,000000	2020-10-29T19:45:39:577
2083147,000000	2020-10-29T19:45:39:616
2083094,000000	2020-10-29T19:45:39:655
2084810,000000	2020-10-29T19:45:39:695
2088519,000000	2020-10-29T19:45:39:735
2092935,000000	2020-10-29T19:45:39:775
2096960,000000	2020-10-29T19:45:39:818
2099757,000000	2020-10-29T19:45:39:855
2098941,000000	2020-10-29T19:45:39:895
2096026,000000	2020-10-29T19:45:39:935
2094043,000000	2020-10-29T19:45:39:975
2093619,000000	2020-10-29T19:45:40:015
2094524,000000	2020-10-29T19:45:40:058
2096328,000000	2020-10-29T19:45:40:096
2098131,000000	2020-10-29T19:45:40:136
2100318,000000	2020-10-29T19:45:40:176
2103208,000000	2020-10-29T19:45:40:215
2105029,000000	2020-10-29T19:45:40:256
2106083,000000	2020-10-29T19:45:40:298
2107125,000000	2020-10-29T19:45:40:336
2109452,000000	2020-10-29T19:45:40:376
2111792,000000	2020-10-29T19:45:40:416
2114203,000000	2020-10-29T19:45:40:456
2114607,000000	2020-10-29T19:45:40:496
2110392,000000	2020-10-29T19:45:40:536
2104750,000000	2020-10-29T19:45:40:576
2101810,000000	2020-10-29T19:45:40:616
2101314,000000	2020-10-29T19:45:40:657
2101697,000000	2020-10-29T19:45:40:696
2103003,000000	2020-10-29T19:45:40:736
2104984,000000	2020-10-29T19:45:40:778
2106693,000000	2020-10-29T19:45:40:821
2107727,000000	2020-10-29T19:45:40:857
2107890,000000	2020-10-29T19:45:40:896
2108245,000000	2020-10-29T19:45:40:936
2107243,000000	2020-10-29T19:45:40:976
2108671,000000	2020-10-29T19:45:41:017
2111554,000000	2020-10-29T19:45:41:056
2114393,000000	2020-10-29T19:45:41:096
2112660,000000	2020-10-29T19:45:41:138
2107795,000000	2020-10-29T19:45:41:176
2102037,000000	2020-10-29T19:45:41:216
2099093,000000	2020-10-29T19:45:41:258
2099315,000000	2020-10-29T19:45:41:297
2101268,000000	2020-10-29T19:45:41:337
2103525,000000	2020-10-29T19:45:41:376
2104565,000000	2020-10-29T19:45:41:416
2105275,000000	2020-10-29T19:45:41:456
2106135,000000	2020-10-29T19:45:41:499
2106087,000000	2020-10-29T19:45:41:537
2103985,000000	2020-10-29T19:45:41:577
2099815,000000	2020-10-29T19:45:41:617
2097982,000000	2020-10-29T19:45:41:657
2100580,000000	2020-10-29T19:45:41:697
2103616,000000	2020-10-29T19:45:41:738
2102195,000000	2020-10-29T19:45:41:777
2100368,000000	2020-10-29T19:45:41:817
2098385,000000	2020-10-29T19:45:41:857
2095157,000000	2020-10-29T19:45:41:897
2098401,000000	2020-10-29T19:45:41:937
2105300,000000	2020-10-29T19:45:41:979
2111989,000000	2020-10-29T19:45:42:017
2117566,000000	2020-10-29T19:45:42:057
2119402,000000	2020-10-29T19:45:42:098
2119360,000000	2020-10-29T19:45:42:411
2120234,000000	2020-10-29T19:45:42:411
2121832,000000	2020-10-29T19:45:42:419
2123766,000000	2020-10-29T19:45:42:420
2126418,000000	2020-10-29T19:45:42:420
2129599,000000	2020-10-29T19:45:42:421
2130227,000000	2020-10-29T19:45:42:421
2128834,000000	2020-10-29T19:45:42:426
2127859,000000	2020-10-29T19:45:42:470
2129675,000000	2020-10-29T19:45:42:496
2131904,000000	2020-10-29T19:45:42:535
2135835,000000	2020-10-29T19:45:42:575
2141295,000000	2020-10-29T19:45:42:617
2145258,000000	2020-10-29T19:45:42:656
2148570,000000	2020-10-29T19:45:42:698
2152014,000000	2020-10-29T19:45:42:738
2154709,000000	2020-10-29T19:45:42:777
2157412,000000	2020-10-29T19:45:42:817
2161039,000000	2020-10-29T19:45:42:858
2166691,000000	2020-10-29T19:45:42:898
2171476,000000	2020-10-29T19:45:42:940
2176067,000000	2020-10-29T19:45:42:978
2177062,000000	2020-10-29T19:45:43:018
2176426,000000	2020-10-29T19:45:43:058
2177961,000000	2020-10-29T19:45:43:099
2178855,000000	2020-10-29T19:45:43:138
2179021,000000	2020-10-29T19:45:43:187
2182637,000000	2020-10-29T19:45:43:414
2187780,000000	2020-10-29T19:45:43:431
2214385,000000	2020-10-29T19:45:43:431
2225071,000000	2020-10-29T19:45:43:432
2225284,000000	2020-10-29T19:45:43:433
2230485,000000	2020-10-29T19:45:43:445
2217211,000000	2020-10-29T19:45:43:456
2190480,000000	2020-10-29T19:45:43:497
2182905,000000	2020-10-29T19:45:43:538
2174985,000000	2020-10-29T19:45:43:579
2157777,000000	2020-10-29T19:45:43:618
2138990,000000	2020-10-29T19:45:43:659
2119496,000000	2020-10-29T19:45:43:699
2101398,000000	2020-10-29T19:45:43:739
2089681,000000	2020-10-29T19:45:43:779
2079678,000000	2020-10-29T19:45:43:831
2068444,000000	2020-10-29T19:45:43:885
2057014,000000	2020-10-29T19:45:43:905
2041575,000000	2020-10-29T19:45:43:947
2003012,000000	2020-10-29T19:45:43:978
2001562,000000	2020-10-29T19:45:44:019
1998739,000000	2020-10-29T19:45:44:059
1993222,000000	2020-10-29T19:45:44:099
1992191,000000	2020-10-29T19:45:44:140
1990544,000000	2020-10-29T19:45:44:179
1983000,000000	2020-10-29T19:45:44:219
1969110,000000	2020-10-29T19:45:44:259
1955897,000000	2020-10-29T19:45:44:300
1947606,000000	2020-10-29T19:45:44:339
1943974,000000	2020-10-29T19:45:44:381
1940952,000000	2020-10-29T19:45:44:419
1940023,000000	2020-10-29T19:45:44:479
1939496,000000	2020-10-29T19:45:44:501
1937879,000000	2020-10-29T19:45:44:542
1935001,000000	2020-10-29T19:45:44:583
1931947,000000	2020-10-29T19:45:44:621
1929773,000000	2020-10-29T19:45:44:660
1928367,000000	2020-10-29T19:45:44:700
1928086,000000	2020-10-29T19:45:44:740
1927836,000000	2020-10-29T19:45:44:780
1927647,000000	2020-10-29T19:45:44:820
1920265,000000	2020-10-29T19:45:44:862
1908420,000000	2020-10-29T19:45:44:900
1897730,000000	2020-10-29T19:45:44:940
1891481,000000	2020-10-29T19:45:44:980
1889370,000000	2020-10-29T19:45:45:020
1889577,000000	2020-10-29T19:45:45:060
1890543,000000	2020-10-29T19:45:45:102
1891511,000000	2020-10-29T19:45:45:140
1890754,000000	2020-10-29T19:45:45:180
1888971,000000	2020-10-29T19:45:45:220
1887348,000000	2020-10-29T19:45:45:260
1886840,000000	2020-10-29T19:45:45:301
1887336,000000	2020-10-29T19:45:45:342
1888246,000000	2020-10-29T19:45:45:380
1889460,000000	2020-10-29T19:45:45:420
1888839,000000	2020-10-29T19:45:45:460
1880498,000000	2020-10-29T19:45:45:528
1869583,000000	2020-10-29T19:45:45:542
1862010,000000	2020-10-29T19:45:45:588
1859344,000000	2020-10-29T19:45:45:620
1860081,000000	2020-10-29T19:45:45:661
1863286,000000	2020-10-29T19:45:45:701
1867171,000000	2020-10-29T19:45:45:741
1870144,000000	2020-10-29T19:45:45:780
1872349,000000	2020-10-29T19:45:45:822
1873861,000000	2020-10-29T19:45:45:861
1874610,000000	2020-10-29T19:45:45:902
1991323,000000	2020-10-29T19:46:04:225
1985757,000000	2020-10-29T19:46:04:226
1981090,000000	2020-10-29T19:46:04:227
1977927,000000	2020-10-29T19:46:04:227
1975527,000000	2020-10-29T19:46:04:251
1973362,000000	2020-10-29T19:46:04:291
1968363,000000	2020-10-29T19:46:04:324
1957470,000000	2020-10-29T19:46:04:404
1945103,000000	2020-10-29T19:46:04:405
1937165,000000	2020-10-29T19:46:04:436
1935194,000000	2020-10-29T19:46:04:482
1936309,000000	2020-10-29T19:46:04:517
1935988,000000	2020-10-29T19:46:04:558
1932828,000000	2020-10-29T19:46:04:597
1926616,000000	2020-10-29T19:46:04:638
1923654,000000	2020-10-29T19:46:04:679
1922310,000000	2020-10-29T19:46:04:720
1919829,000000	2020-10-29T19:46:04:759
1912973,000000	2020-10-29T19:46:04:799
1905783,000000	2020-10-29T19:46:04:840
1898409,000000	2020-10-29T19:46:04:878
1891924,000000	2020-10-29T19:46:04:921
1887405,000000	2020-10-29T19:46:04:959
1883246,000000	2020-10-29T19:46:04:999
1874727,000000	2020-10-29T19:46:05:063
1941462,000000	2020-10-29T19:46:38:159
1943569,000000	2020-10-29T19:46:38:162
1942667,000000	2020-10-29T19:46:38:195
1941870,000000	2020-10-29T19:46:38:221
1941762,000000	2020-10-29T19:46:38:267
1941150,000000	2020-10-29T19:46:38:289
1938361,000000	2020-10-29T19:46:38:327
1935431,000000	2020-10-29T19:46:38:369
1933056,000000	2020-10-29T19:46:38:410
1924853,000000	2020-10-29T19:46:38:449
1913706,000000	2020-10-29T19:46:38:489
1904787,000000	2020-10-29T19:46:38:530
1900091,000000	2020-10-29T19:46:38:569
1898454,000000	2020-10-29T19:46:38:608
1899698,000000	2020-10-29T19:46:38:648
1901237,000000	2020-10-29T19:46:38:690
1902764,000000	2020-10-29T19:46:38:729
1913974,000000	2020-10-29T19:46:38:771
1929523,000000	2020-10-29T19:46:38:810
1943185,000000	2020-10-29T19:46:38:849
1952710,000000	2020-10-29T19:46:38:890
1958080,000000	2020-10-29T19:46:38:929
1964873,000000	2020-10-29T19:46:38:969
1972392,000000	2020-10-29T19:46:39:011
1980132,000000	2020-10-29T19:46:39:049
1986385,000000	2020-10-29T19:46:39:090
1987457,000000	2020-10-29T19:46:39:130
1981786,000000	2020-10-29T19:46:39:169
1974943,000000	2020-10-29T19:46:39:209
1969866,000000	2020-10-29T19:46:39:252
1967695,000000	2020-10-29T19:46:39:290
1967336,000000	2020-10-29T19:46:39:329
1968330,000000	2020-10-29T19:46:39:370
1969662,000000	2020-10-29T19:46:39:409
1970090,000000	2020-10-29T19:46:39:450
1969205,000000	2020-10-29T19:46:39:491
1968826,000000	2020-10-29T19:46:39:530
1970863,000000	2020-10-29T19:46:39:570
1976009,000000	2020-10-29T19:46:39:610
1981623,000000	2020-10-29T19:46:39:650
1984187,000000	2020-10-29T19:46:39:690
1985497,000000	2020-10-29T19:46:39:731
1986207,000000	2020-10-29T19:46:39:770
1987814,000000	2020-10-29T19:46:39:810
1989097,000000	2020-10-29T19:46:39:850
1985472,000000	2020-10-29T19:46:39:891
1978753,000000	2020-10-29T19:46:39:930
1975763,000000	2020-10-29T19:46:39:971
1977981,000000	2020-10-29T19:46:40:010
1980519,000000	2020-10-29T19:46:40:050
1983344,000000	2020-10-29T19:46:40:091
1985541,000000	2020-10-29T19:46:40:130
1986226,000000	2020-10-29T19:46:40:170
1987082,000000	2020-10-29T19:46:40:211
1987163,000000	2020-10-29T19:46:40:250
1988029,000000	2020-10-29T19:46:40:291
1991260,000000	2020-10-29T19:46:40:331
1995469,000000	2020-10-29T19:46:40:371
2000836,000000	2020-10-29T19:46:40:410
2005134,000000	2020-10-29T19:46:40:453
2006822,000000	2020-10-29T19:46:40:491
2006851,000000	2020-10-29T19:46:40:531
2004129,000000	2020-10-29T19:46:40:571
2000913,000000	2020-10-29T19:46:40:612
1999625,000000	2020-10-29T19:46:40:650
2000442,000000	2020-10-29T19:46:40:693
2000714,000000	2020-10-29T19:46:40:731
2001071,000000	2020-10-29T19:46:40:771
2001672,000000	2020-10-29T19:46:40:811
2001970,000000	2020-10-29T19:46:40:851
2003092,000000	2020-10-29T19:46:40:891
2003200,000000	2020-10-29T19:46:40:933
2009507,000000	2020-10-29T19:46:40:971
2016357,000000	2020-10-29T19:46:41:011
2025159,000000	2020-10-29T19:46:41:051
2032757,000000	2020-10-29T19:46:41:092
2039825,000000	2020-10-29T19:46:41:131
2046832,000000	2020-10-29T19:46:41:173
2050868,000000	2020-10-29T19:46:41:212
2048993,000000	2020-10-29T19:46:41:251
2041467,000000	2020-10-29T19:46:41:292
2034078,000000	2020-10-29T19:46:41:331
2029670,000000	2020-10-29T19:46:41:371
2028296,000000	2020-10-29T19:46:41:413
2028730,000000	2020-10-29T19:46:41:452
2029506,000000	2020-10-29T19:46:41:492
2029726,000000	2020-10-29T19:46:41:532
2027960,000000	2020-10-29T19:46:41:572
2025367,000000	2020-10-29T19:46:41:612
2022604,000000	2020-10-29T19:46:41:653
2019441,000000	2020-10-29T19:46:41:692
2017221,000000	2020-10-29T19:46:41:732
2014836,000000	2020-10-29T19:46:41:772
2012785,000000	2020-10-29T19:46:41:812
2010918,000000	2020-10-29T19:46:41:852
2008566,000000	2020-10-29T19:46:41:894
2002393,000000	2020-10-29T19:46:41:932
1994792,000000	2020-10-29T19:46:41:972
1987433,000000	2020-10-29T19:46:42:012
1984358,000000	2020-10-29T19:46:42:052
1982605,000000	2020-10-29T19:46:42:093
1981035,000000	2020-10-29T19:46:42:134
1978843,000000	2020-10-29T19:46:42:172
1978391,000000	2020-10-29T19:46:42:212
1977366,000000	2020-10-29T19:46:42:252
1974666,000000	2020-10-29T19:46:42:293
1969361,000000	2020-10-29T19:46:42:332
1964573,000000	2020-10-29T19:46:42:374
1961079,000000	2020-10-29T19:46:42:412
1958257,000000	2020-10-29T19:46:42:452
1957269,000000	2020-10-29T19:46:42:493
1956411,000000	2020-10-29T19:46:42:532
1951541,000000	2020-10-29T19:46:42:572
1944394,000000	2020-10-29T19:46:42:614
1938966,000000	2020-10-29T19:46:42:653
1936522,000000	2020-10-29T19:46:42:694
1939010,000000	2020-10-29T19:46:42:733
1944967,000000	2020-10-29T19:46:42:772
1952503,000000	2020-10-29T19:46:42:813
1961433,000000	2020-10-29T19:46:42:854
1968416,000000	2020-10-29T19:46:42:894
1969424,000000	2020-10-29T19:46:42:934
1970381,000000	2020-10-29T19:46:42:973
1972502,000000	2020-10-29T19:46:43:013
1980336,000000	2020-10-29T19:46:43:052
1988911,000000	2020-10-29T19:46:43:094
1994975,000000	2020-10-29T19:46:43:133
1999012,000000	2020-10-29T19:46:43:173
1995419,000000	2020-10-29T19:46:43:213
1988959,000000	2020-10-29T19:46:43:253
1984711,000000	2020-10-29T19:46:43:295
1984025,000000	2020-10-29T19:46:43:335
1984665,000000	2020-10-29T19:46:43:373
1986033,000000	2020-10-29T19:46:43:413
1987567,000000	2020-10-29T19:46:43:453
1987769,000000	2020-10-29T19:46:43:494
1985441,000000	2020-10-29T19:46:43:533
1985389,000000	2020-10-29T19:46:43:574
1987614,000000	2020-10-29T19:46:43:614
1994781,000000	2020-10-29T19:46:43:653
2000222,000000	2020-10-29T19:46:43:694
2003533,000000	2020-10-29T19:46:43:734
2003755,000000	2020-10-29T19:46:43:774
2002199,000000	2020-10-29T19:46:43:816
1994627,000000	2020-10-29T19:46:43:854
1984275,000000	2020-10-29T19:46:43:894
1975858,000000	2020-10-29T19:46:43:934
1970946,000000	2020-10-29T19:46:43:974
1967924,000000	2020-10-29T19:46:44:014
1965809,000000	2020-10-29T19:46:44:057
1965016,000000	2020-10-29T19:46:44:095
1964728,000000	2020-10-29T19:46:44:134
1963591,000000	2020-10-29T19:46:44:174
1962238,000000	2020-10-29T19:46:44:215
1961960,000000	2020-10-29T19:46:44:254
1961398,000000	2020-10-29T19:46:44:296
1961860,000000	2020-10-29T19:46:44:335
1961331,000000	2020-10-29T19:46:44:375
1963497,000000	2020-10-29T19:46:44:415
1957968,000000	2020-10-29T19:46:44:455
1945836,000000	2020-10-29T19:46:44:495
1938141,000000	2020-10-29T19:46:44:536
1936140,000000	2020-10-29T19:46:44:575
1937930,000000	2020-10-29T19:46:44:615
1941862,000000	2020-10-29T19:46:44:655
1947496,000000	2020-10-29T19:46:44:695
1951853,000000	2020-10-29T19:46:44:735
1952731,000000	2020-10-29T19:46:44:776
1951007,000000	2020-10-29T19:46:44:815
1949085,000000	2020-10-29T19:46:44:855
1949231,000000	2020-10-29T19:46:44:896
1954830,000000	2020-10-29T19:46:44:935
1957412,000000	2020-10-29T19:46:44:975
1958444,000000	2020-10-29T19:46:45:017
1956904,000000	2020-10-29T19:46:45:057
1948093,000000	2020-10-29T19:46:45:096
1937598,000000	2020-10-29T19:46:45:135
1930642,000000	2020-10-29T19:46:45:175
1931622,000000	2020-10-29T19:46:45:215
1931954,000000	2020-10-29T19:46:45:256
1931474,000000	2020-10-29T19:46:45:296
1933155,000000	2020-10-29T19:46:45:335
1935430,000000	2020-10-29T19:46:45:375
1935117,000000	2020-10-29T19:46:45:415
1933153,000000	2020-10-29T19:46:45:455
1930780,000000	2020-10-29T19:46:45:498
1929829,000000	2020-10-29T19:46:45:536
1930748,000000	2020-10-29T19:46:45:575
1930778,000000	2020-10-29T19:46:45:616
1929407,000000	2020-10-29T19:46:45:655
1927617,000000	2020-10-29T19:46:45:696
1920333,000000	2020-10-29T19:46:45:738
1910904,000000	2020-10-29T19:46:45:777
1903196,000000	2020-10-29T19:46:45:816
1899369,000000	2020-10-29T19:46:45:856
1899115,000000	2020-10-29T19:46:45:897
1900314,000000	2020-10-29T19:46:45:936
1903162,000000	2020-10-29T19:46:45:978
1914285,000000	2020-10-29T19:46:46:016
1919922,000000	2020-10-29T19:46:46:055
1924544,000000	2020-10-29T19:46:46:097
1927898,000000	2020-10-29T19:46:46:136
1927695,000000	2020-10-29T19:46:46:176
1928447,000000	2020-10-29T19:46:46:218
1930525,000000	2020-10-29T19:46:46:256
1932776,000000	2020-10-29T19:46:46:297
1931747,000000	2020-10-29T19:46:46:336
1924276,000000	2020-10-29T19:46:46:377
1914336,000000	2020-10-29T19:46:46:416
1906305,000000	2020-10-29T19:46:46:457
1901303,000000	2020-10-29T19:46:46:498
1899296,000000	2020-10-29T19:46:46:536
1902761,000000	2020-10-29T19:46:46:577
1913951,000000	2020-10-29T19:46:46:617
1928092,000000	2020-10-29T19:46:46:656
1936712,000000	2020-10-29T19:46:46:699
1941264,000000	2020-10-29T19:46:46:738
1948182,000000	2020-10-29T19:46:46:777
1948890,000000	2020-10-29T19:46:46:816
1948837,000000	2020-10-29T19:46:46:857
1948008,000000	2020-10-29T19:46:46:897
1951559,000000	2020-10-29T19:46:46:939
1952073,000000	2020-10-29T19:46:46:977
1943349,000000	2020-10-29T19:46:47:017
1932520,000000	2020-10-29T19:46:47:057
1921726,000000	2020-10-29T19:46:47:099
1922455,000000	2020-10-29T19:46:47:138
1923941,000000	2020-10-29T19:46:47:180
1924839,000000	2020-10-29T19:46:47:217
1924531,000000	2020-10-29T19:46:47:258
1923406,000000	2020-10-29T19:46:47:298
1921780,000000	2020-10-29T19:46:47:338
1920392,000000	2020-10-29T19:46:47:378
1923201,000000	2020-10-29T19:46:47:418
1932175,000000	2020-10-29T19:46:47:458
1946503,000000	2020-10-29T19:46:47:499
1956788,000000	2020-10-29T19:46:47:538
1963367,000000	2020-10-29T19:46:47:578
1967113,000000	2020-10-29T19:46:47:618
1967129,000000	2020-10-29T19:46:47:661
1964764,000000	2020-10-29T19:46:47:698
1963735,000000	2020-10-29T19:46:47:738
1964353,000000	2020-10-29T19:46:47:778
1964846,000000	2020-10-29T19:46:47:818
1964967,000000	2020-10-29T19:46:47:858
1966402,000000	2020-10-29T19:46:47:898
1968094,000000	2020-10-29T19:46:47:938
1968686,000000	2020-10-29T19:46:47:977
1968571,000000	2020-10-29T19:46:48:018
1969548,000000	2020-10-29T19:46:48:058
1971579,000000	2020-10-29T19:46:48:099
1974957,000000	2020-10-29T19:46:48:139
1978310,000000	2020-10-29T19:46:48:178
1979889,000000	2020-10-29T19:46:48:218
1978418,000000	2020-10-29T19:46:48:258
1975872,000000	2020-10-29T19:46:48:299
1972868,000000	2020-10-29T19:46:48:338
1979548,000000	2020-10-29T19:46:48:380
1987009,000000	2020-10-29T19:46:48:418
1990964,000000	2020-10-29T19:46:48:458
1995139,000000	2020-10-29T19:46:48:499
1996219,000000	2020-10-29T19:46:48:538
1994442,000000	2020-10-29T19:46:48:579
1991191,000000	2020-10-29T19:46:48:620
1989326,000000	2020-10-29T19:46:48:660
1984202,000000	2020-10-29T19:46:48:699
1974181,000000	2020-10-29T19:46:48:739
1961614,000000	2020-10-29T19:46:48:779
1949565,000000	2020-10-29T19:46:48:819
1934796,000000	2020-10-29T19:46:48:860
1915252,000000	2020-10-29T19:46:48:900
1899929,000000	2020-10-29T19:46:48:939
1904085,000000	2020-10-29T19:46:48:979
1928416,000000	2020-10-29T19:46:49:019
1952811,000000	2020-10-29T19:46:49:059
1966771,000000	2020-10-29T19:46:49:100
1975620,000000	2020-10-29T19:46:49:139
1986313,000000	2020-10-29T19:46:49:179
1998445,000000	2020-10-29T19:46:49:219
2011140,000000	2020-10-29T19:46:49:259
2021777,000000	2020-10-29T19:46:49:300
2028792,000000	2020-10-29T19:46:49:341
2031258,000000	2020-10-29T19:46:49:379
2032755,000000	2020-10-29T19:46:49:419
2032645,000000	2020-10-29T19:46:49:460
2024561,000000	2020-10-29T19:46:49:500
2013149,000000	2020-10-29T19:46:49:540
2003866,000000	2020-10-29T19:46:49:581
1998027,000000	2020-10-29T19:46:49:620
1994317,000000	2020-10-29T19:46:49:660
1992690,000000	2020-10-29T19:46:49:701
1990514,000000	2020-10-29T19:46:49:740
1987683,000000	2020-10-29T19:46:49:780
1985798,000000	2020-10-29T19:46:49:821
1980137,000000	2020-10-29T19:46:49:860
1970105,000000	2020-10-29T19:46:49:900
1976883,000000	2020-10-29T19:46:49:940
1965885,000000	2020-10-29T19:46:49:980
1966015,000000	2020-10-29T19:46:50:020
1971900,000000	2020-10-29T19:46:50:062
1970597,000000	2020-10-29T19:46:50:101
1960696,000000	2020-10-29T19:46:50:140
1949712,000000	2020-10-29T19:46:50:180
1944410,000000	2020-10-29T19:46:50:220
1942783,000000	2020-10-29T19:46:50:260
1941175,000000	2020-10-29T19:46:50:302
1940702,000000	2020-10-29T19:46:50:340
1940792,000000	2020-10-29T19:46:50:381
1944752,000000	2020-10-29T19:46:50:420
1953764,000000	2020-10-29T19:46:50:460
1963577,000000	2020-10-29T19:46:50:501
1974374,000000	2020-10-29T19:46:50:542
1984607,000000	2020-10-29T19:46:50:580
1993163,000000	2020-10-29T19:46:50:621
1999900,000000	2020-10-29T19:46:50:662
2005555,000000	2020-10-29T19:46:50:701
2004389,000000	2020-10-29T19:46:50:741
2000458,000000	2020-10-29T19:46:50:782
1999377,000000	2020-10-29T19:46:50:821
2003297,000000	2020-10-29T19:46:50:861
2009324,000000	2020-10-29T19:46:50:902
2016711,000000	2020-10-29T19:46:50:941
2023731,000000	2020-10-29T19:46:50:981
2028767,000000	2020-10-29T19:46:51:022
2031230,000000	2020-10-29T19:46:51:062
2030942,000000	2020-10-29T19:46:51:101
2028202,000000	2020-10-29T19:46:51:141
2024617,000000	2020-10-29T19:46:51:182
2021522,000000	2020-10-29T19:46:51:221
2017842,000000	2020-10-29T19:46:51:263
2017407,000000	2020-10-29T19:46:51:302
2019750,000000	2020-10-29T19:46:51:341
2018978,000000	2020-10-29T19:46:51:382
2016689,000000	2020-10-29T19:46:51:421
2016292,000000	2020-10-29T19:46:51:461
2019825,000000	2020-10-29T19:46:51:504
2027230,000000	2020-10-29T19:46:51:542
2033003,000000	2020-10-29T19:46:51:582
2037269,000000	2020-10-29T19:46:51:622
2039861,000000	2020-10-29T19:46:51:662
2040801,000000	2020-10-29T19:46:51:702
2039217,000000	2020-10-29T19:46:51:743
2038704,000000	2020-10-29T19:46:51:782
2038157,000000	2020-10-29T19:46:51:822
2037434,000000	2020-10-29T19:46:51:862
2038200,000000	2020-10-29T19:46:51:903
2039893,000000	2020-10-29T19:46:51:942
2038126,000000	2020-10-29T19:46:51:983
2032737,000000	2020-10-29T19:46:52:022
2028567,000000	2020-10-29T19:46:52:075
2027636,000000	2020-10-29T19:46:52:105
2029143,000000	2020-10-29T19:46:52:141
2032483,000000	2020-10-29T19:46:52:184
2036389,000000	2020-10-29T19:46:52:230
2040372,000000	2020-10-29T19:46:52:318
2042438,000000	2020-10-29T19:46:52:320
2042994,000000	2020-10-29T19:46:52:341
2043636,000000	2020-10-29T19:46:52:381
2054164,000000	2020-10-29T19:46:52:421
2065841,000000	2020-10-29T19:46:52:462
2075313,000000	2020-10-29T19:46:52:502
2081086,000000	2020-10-29T19:46:52:541
2083330,000000	2020-10-29T19:46:52:581
2080106,000000	2020-10-29T19:46:52:622
2073499,000000	2020-10-29T19:46:52:662
2068731,000000	2020-10-29T19:46:52:703
2067876,000000	2020-10-29T19:46:52:742
2069346,000000	2020-10-29T19:46:52:781
2071786,000000	2020-10-29T19:46:52:826
2074552,000000	2020-10-29T19:46:52:861
2077602,000000	2020-10-29T19:46:52:903
2080929,000000	2020-10-29T19:46:52:942
2083793,000000	2020-10-29T19:46:52:981
2085210,000000	2020-10-29T19:46:53:026
2085801,000000	2020-10-29T19:46:53:063
2090421,000000	2020-10-29T19:46:53:114
2093893,000000	2020-10-29T19:46:53:140
2093665,000000	2020-10-29T19:46:53:182
2093892,000000	2020-10-29T19:46:53:221
2089120,000000	2020-10-29T19:46:53:260
2080744,000000	2020-10-29T19:46:53:304
2073563,000000	2020-10-29T19:46:53:343
2068019,000000	2020-10-29T19:46:53:381
2064401,000000	2020-10-29T19:46:53:422
2063366,000000	2020-10-29T19:46:53:461
2064005,000000	2020-10-29T19:46:53:502
2064788,000000	2020-10-29T19:46:53:542
2065474,000000	2020-10-29T19:46:53:582
2065939,000000	2020-10-29T19:46:53:622
2065807,000000	2020-10-29T19:46:53:662
2063990,000000	2020-10-29T19:46:53:703
2064846,000000	2020-10-29T19:46:53:742
2069526,000000	2020-10-29T19:46:53:782
2070344,000000	2020-10-29T19:46:53:824
2072416,000000	2020-10-29T19:46:53:865
2087385,000000	2020-10-29T19:46:53:907
2100150,000000	2020-10-29T19:46:53:944
2096161,000000	2020-10-29T19:46:53:984
2090178,000000	2020-10-29T19:46:54:024
2091155,000000	2020-10-29T19:46:54:064
2080814,000000	2020-10-29T19:46:54:106
2077881,000000	2020-10-29T19:46:54:145
2078787,000000	2020-10-29T19:46:54:184
2083843,000000	2020-10-29T19:46:54:224
2087643,000000	2020-10-29T19:46:54:264
2093824,000000	2020-10-29T19:46:54:305
2101827,000000	2020-10-29T19:46:54:344
2110555,000000	2020-10-29T19:46:54:387
2116648,000000	2020-10-29T19:46:54:425
2121380,000000	2020-10-29T19:46:54:464
2124517,000000	2020-10-29T19:46:54:505
2129523,000000	2020-10-29T19:46:54:545
2131319,000000	2020-10-29T19:46:54:585
2130299,000000	2020-10-29T19:46:54:626
2129396,000000	2020-10-29T19:46:54:665
2131905,000000	2020-10-29T19:46:54:705
2134546,000000	2020-10-29T19:46:54:745
2133224,000000	2020-10-29T19:46:54:785
2135320,000000	2020-10-29T19:46:54:825
2131880,000000	2020-10-29T19:46:54:867
2134417,000000	2020-10-29T19:46:54:906
2137863,000000	2020-10-29T19:46:54:945
2139584,000000	2020-10-29T19:46:54:985
2140301,000000	2020-10-29T19:46:55:025
2141069,000000	2020-10-29T19:46:55:065
2141560,000000	2020-10-29T19:46:55:107
2142759,000000	2020-10-29T19:46:55:145
2144724,000000	2020-10-29T19:46:55:186
2144853,000000	2020-10-29T19:46:55:226
2139918,000000	2020-10-29T19:46:55:265
2134166,000000	2020-10-29T19:46:55:306
2131251,000000	2020-10-29T19:46:55:347
2131779,000000	2020-10-29T19:46:55:386
2133362,000000	2020-10-29T19:46:55:425
2134887,000000	2020-10-29T19:46:55:466
2135968,000000	2020-10-29T19:46:55:506
2137261,000000	2020-10-29T19:46:55:546
2137555,000000	2020-10-29T19:46:55:586
2137510,000000	2020-10-29T19:46:55:626
2138069,000000	2020-10-29T19:46:55:665
2139158,000000	2020-10-29T19:46:55:706
2140494,000000	2020-10-29T19:46:55:746
2142047,000000	2020-10-29T19:46:55:786
2143692,000000	2020-10-29T19:46:55:827
2145749,000000	2020-10-29T19:46:55:866
2147684,000000	2020-10-29T19:46:55:906
2149806,000000	2020-10-29T19:46:55:946
2147366,000000	2020-10-29T19:46:55:986
2140042,000000	2020-10-29T19:46:56:026
2132663,000000	2020-10-29T19:46:56:068
2128785,000000	2020-10-29T19:46:56:107
2127538,000000	2020-10-29T19:46:56:146
2127938,000000	2020-10-29T19:46:56:186
2128994,000000	2020-10-29T19:46:56:226
2129823,000000	2020-10-29T19:46:56:266
2129545,000000	2020-10-29T19:46:56:308
2128609,000000	2020-10-29T19:46:56:346
2127189,000000	2020-10-29T19:46:56:387
2126679,000000	2020-10-29T19:46:56:427
2126851,000000	2020-10-29T19:46:56:467
2127873,000000	2020-10-29T19:46:56:507
2128809,000000	2020-10-29T19:46:56:548
2129678,000000	2020-10-29T19:46:56:587
2131021,000000	2020-10-29T19:46:56:626
2132247,000000	2020-10-29T19:46:56:668
2134154,000000	2020-10-29T19:46:56:707
2135625,000000	2020-10-29T19:46:56:747
2131464,000000	2020-10-29T19:46:56:788
2123757,000000	2020-10-29T19:46:56:827
2118217,000000	2020-10-29T19:46:56:867
2115424,000000	2020-10-29T19:46:56:908
2113647,000000	2020-10-29T19:46:56:947
2112140,000000	2020-10-29T19:46:56:987
2111243,000000	2020-10-29T19:46:57:029
2110193,000000	2020-10-29T19:46:57:067
2106358,000000	2020-10-29T19:46:57:108
2101500,000000	2020-10-29T19:46:57:147
2099035,000000	2020-10-29T19:46:57:187
2096699,000000	2020-10-29T19:46:57:227
2096514,000000	2020-10-29T19:46:57:269
2097469,000000	2020-10-29T19:46:57:308
2098186,000000	2020-10-29T19:46:57:347
2099143,000000	2020-10-29T19:46:57:387
2099743,000000	2020-10-29T19:46:57:427
2100037,000000	2020-10-29T19:46:57:467
2093124,000000	2020-10-29T19:46:57:510
2083429,000000	2020-10-29T19:46:57:548
2076219,000000	2020-10-29T19:46:57:587
2072971,000000	2020-10-29T19:46:57:628
2072124,000000	2020-10-29T19:46:57:668
2072970,000000	2020-10-29T19:46:57:708
2072870,000000	2020-10-29T19:46:57:750
2072514,000000	2020-10-29T19:46:57:788
2071836,000000	2020-10-29T19:46:57:828
2070785,000000	2020-10-29T19:46:57:868
2069339,000000	2020-10-29T19:46:57:909
2068783,000000	2020-10-29T19:46:57:948
2069219,000000	2020-10-29T19:46:57:989
2071564,000000	2020-10-29T19:46:58:028
2072942,000000	2020-10-29T19:46:58:068
2077296,000000	2020-10-29T19:46:58:132
2082345,000000	2020-10-29T19:46:58:160
2087023,000000	2020-10-29T19:46:58:189
2090164,000000	2020-10-29T19:46:58:230
2087234,000000	2020-10-29T19:46:58:269
2081008,000000	2020-10-29T19:46:58:309
2076228,000000	2020-10-29T19:46:58:348
2075224,000000	2020-10-29T19:46:58:395
2075626,000000	2020-10-29T19:46:58:428
2075984,000000	2020-10-29T19:46:58:471
2075076,000000	2020-10-29T19:46:58:510
2072660,000000	2020-10-29T19:46:58:548
2069448,000000	2020-10-29T19:46:58:589
2068193,000000	2020-10-29T19:46:58:630
2064917,000000	2020-10-29T19:46:58:669
2063049,000000	2020-10-29T19:46:58:711
2064478,000000	2020-10-29T19:46:58:750
2065673,000000	2020-10-29T19:46:58:789
2068917,000000	2020-10-29T19:46:58:828
2073514,000000	2020-10-29T19:46:58:870
2078237,000000	2020-10-29T19:46:58:910
2079310,000000	2020-10-29T19:46:58:951
2076115,000000	2020-10-29T19:46:58:989
2072744,000000	2020-10-29T19:46:59:029
2072764,000000	2020-10-29T19:46:59:070
2075601,000000	2020-10-29T19:46:59:110
2080601,000000	2020-10-29T19:46:59:149
2088402,000000	2020-10-29T19:46:59:191
2096623,000000	2020-10-29T19:46:59:229
2103150,000000	2020-10-29T19:46:59:269
2110048,000000	2020-10-29T19:46:59:310
2118987,000000	2020-10-29T19:46:59:350
2125245,000000	2020-10-29T19:46:59:389
2128813,000000	2020-10-29T19:46:59:432
2127735,000000	2020-10-29T19:46:59:470
2120533,000000	2020-10-29T19:46:59:510
2111668,000000	2020-10-29T19:46:59:550
2112110,000000	2020-10-29T19:46:59:590
2110955,000000	2020-10-29T19:46:59:629
2108314,000000	2020-10-29T19:46:59:671
2106145,000000	2020-10-29T19:46:59:710
2103850,000000	2020-10-29T19:46:59:750
2102992,000000	2020-10-29T19:46:59:790
2101951,000000	2020-10-29T19:46:59:830
2099725,000000	2020-10-29T19:46:59:870
2096869,000000	2020-10-29T19:46:59:912
2093368,000000	2020-10-29T19:46:59:950
2090902,000000	2020-10-29T19:46:59:990
2089688,000000	2020-10-29T19:47:00:030
2089678,000000	2020-10-29T19:47:00:070
2089761,000000	2020-10-29T19:47:00:111
2084858,000000	2020-10-29T19:47:00:151
2077744,000000	2020-10-29T19:47:00:190
2069529,000000	2020-10-29T19:47:00:230
2064973,000000	2020-10-29T19:47:00:270
2062704,000000	2020-10-29T19:47:00:311
2062586,000000	2020-10-29T19:47:00:350
2063347,000000	2020-10-29T19:47:00:393
2064697,000000	2020-10-29T19:47:00:430
2066278,000000	2020-10-29T19:47:00:470
2066117,000000	2020-10-29T19:47:00:511
2066090,000000	2020-10-29T19:47:00:551
2066898,000000	2020-10-29T19:47:00:591
2067631,000000	2020-10-29T19:47:00:631
2067557,000000	2020-10-29T19:47:00:670
2066463,000000	2020-10-29T19:47:00:711
2059318,000000	2020-10-29T19:47:00:751
2049727,000000	2020-10-29T19:47:00:791
2041046,000000	2020-10-29T19:47:00:831
2037013,000000	2020-10-29T19:47:00:872
2035225,000000	2020-10-29T19:47:00:912
2038081,000000	2020-10-29T19:47:00:951
2043516,000000	2020-10-29T19:47:00:991
2046766,000000	2020-10-29T19:47:01:031
2048241,000000	2020-10-29T19:47:01:071
2049444,000000	2020-10-29T19:47:01:113
2050223,000000	2020-10-29T19:47:01:151
2051565,000000	2020-10-29T19:47:01:191
2053615,000000	2020-10-29T19:47:01:231
2056371,000000	2020-10-29T19:47:01:271
2055463,000000	2020-10-29T19:47:01:312
2047949,000000	2020-10-29T19:47:01:353
2039251,000000	2020-10-29T19:47:01:391
2033568,000000	2020-10-29T19:47:01:431
2031707,000000	2020-10-29T19:47:01:472
2032647,000000	2020-10-29T19:47:01:512
2035044,000000	2020-10-29T19:47:01:551
2037719,000000	2020-10-29T19:47:01:593
2039010,000000	2020-10-29T19:47:01:632
2039141,000000	2020-10-29T19:47:01:671
2041268,000000	2020-10-29T19:47:01:712
2042109,000000	2020-10-29T19:47:01:752
2043761,000000	2020-10-29T19:47:01:792
2047510,000000	2020-10-29T19:47:01:834
2050032,000000	2020-10-29T19:47:01:872
2045750,000000	2020-10-29T19:47:01:912
2039447,000000	2020-10-29T19:47:01:952
2034871,000000	2020-10-29T19:47:01:992
2032221,000000	2020-10-29T19:47:02:032
2031391,000000	2020-10-29T19:47:02:074
2031939,000000	2020-10-29T19:47:02:112
2033093,000000	2020-10-29T19:47:02:152
2033961,000000	2020-10-29T19:47:02:192
2034139,000000	2020-10-29T19:47:02:232
2035521,000000	2020-10-29T19:47:02:272
2037528,000000	2020-10-29T19:47:02:315
2041165,000000	2020-10-29T19:47:02:352
2045097,000000	2020-10-29T19:47:02:393
2043183,000000	2020-10-29T19:47:02:432
2034791,000000	2020-10-29T19:47:02:472
2024805,000000	2020-10-29T19:47:02:514
2015064,000000	2020-10-29T19:47:02:554
2012984,000000	2020-10-29T19:47:02:593
2014186,000000	2020-10-29T19:47:02:632
2017226,000000	2020-10-29T19:47:02:672
2017929,000000	2020-10-29T19:47:02:714
2017576,000000	2020-10-29T19:47:02:753
2015850,000000	2020-10-29T19:47:02:795
2013378,000000	2020-10-29T19:47:02:833
2011949,000000	2020-10-29T19:47:02:872
2011436,000000	2020-10-29T19:47:02:914
2012586,000000	2020-10-29T19:47:02:953
2012110,000000	2020-10-29T19:47:02:993
2004800,000000	2020-10-29T19:47:03:035
1996980,000000	2020-10-29T19:47:03:073
1994157,000000	2020-10-29T19:47:03:113
1997234,000000	2020-10-29T19:47:03:153
2003223,000000	2020-10-29T19:47:03:193
2009984,000000	2020-10-29T19:47:03:233
2016031,000000	2020-10-29T19:47:03:274
2020839,000000	2020-10-29T19:47:03:314
2023202,000000	2020-10-29T19:47:03:353
2025956,000000	2020-10-29T19:47:03:393
2025598,000000	2020-10-29T19:47:03:433
2024347,000000	2020-10-29T19:47:03:473
2024089,000000	2020-10-29T19:47:03:515
2022744,000000	2020-10-29T19:47:03:553
2015285,000000	2020-10-29T19:47:03:593
2006424,000000	2020-10-29T19:47:03:633
2001313,000000	2020-10-29T19:47:03:673
1991545,000000	2020-10-29T19:47:03:714
2005324,000000	2020-10-29T19:47:03:755
2007911,000000	2020-10-29T19:47:03:793
2008188,000000	2020-10-29T19:47:03:833
2011451,000000	2020-10-29T19:47:03:873
2020567,000000	2020-10-29T19:47:03:915
2020567,000000	2020-10-29T19:47:03:953
2026676,000000	2020-10-29T19:47:03:996
2026932,000000	2020-10-29T19:47:04:035
2024712,000000	2020-10-29T19:47:04:075
2014908,000000	2020-10-29T19:47:04:115
2001357,000000	2020-10-29T19:47:04:155
1991249,000000	2020-10-29T19:47:04:194
1986103,000000	2020-10-29T19:47:04:236
1985734,000000	2020-10-29T19:47:04:275
1988947,000000	2020-10-29T19:47:04:315
1993719,000000	2020-10-29T19:47:04:355
1997540,000000	2020-10-29T19:47:04:395
1999194,000000	2020-10-29T19:47:04:434
1999920,000000	2020-10-29T19:47:04:475
2000982,000000	2020-10-29T19:47:04:515
2002821,000000	2020-10-29T19:47:04:554
2005027,000000	2020-10-29T19:47:04:594
2007839,000000	2020-10-29T19:47:04:635
2009249,000000	2020-10-29T19:47:04:674
2004167,000000	2020-10-29T19:47:04:715
1998106,000000	2020-10-29T19:47:04:755
1995139,000000	2020-10-29T19:47:04:794
1996715,000000	2020-10-29T19:47:04:835
1999642,000000	2020-10-29T19:47:04:875
2002392,000000	2020-10-29T19:47:04:915
2003721,000000	2020-10-29T19:47:04:957
2009121,000000	2020-10-29T19:47:04:994
2012401,000000	2020-10-29T19:47:05:034
2015183,000000	2020-10-29T19:47:05:075
2018689,000000	2020-10-29T19:47:05:115
2020140,000000	2020-10-29T19:47:05:155
2022555,000000	2020-10-29T19:47:05:198
2026408,000000	2020-10-29T19:47:05:235
2030405,000000	2020-10-29T19:47:05:275
2032723,000000	2020-10-29T19:47:05:315
2030145,000000	2020-10-29T19:47:05:355
2026363,000000	2020-10-29T19:47:05:395
2024986,000000	2020-10-29T19:47:05:438
2025683,000000	2020-10-29T19:47:05:475
2027984,000000	2020-10-29T19:47:05:516
2028801,000000	2020-10-29T19:47:05:555
2029464,000000	2020-10-29T19:47:05:595
2030723,000000	2020-10-29T19:47:05:635
2029935,000000	2020-10-29T19:47:05:677
2029138,000000	2020-10-29T19:47:05:716
2029137,000000	2020-10-29T19:47:05:755
2030507,000000	2020-10-29T19:47:05:795
2031737,000000	2020-10-29T19:47:05:836
2032960,000000	2020-10-29T19:47:05:875
2033806,000000	2020-10-29T19:47:05:918
2033785,000000	2020-10-29T19:47:05:956
2027633,000000	2020-10-29T19:47:05:995
2018197,000000	2020-10-29T19:47:06:036
2011687,000000	2020-10-29T19:47:06:076
2009208,000000	2020-10-29T19:47:06:116
2009657,000000	2020-10-29T19:47:06:157
2011876,000000	2020-10-29T19:47:06:196
2016987,000000	2020-10-29T19:47:06:236
2018813,000000	2020-10-29T19:47:06:276
2020296,000000	2020-10-29T19:47:06:316
2022515,000000	2020-10-29T19:47:06:356
2025170,000000	2020-10-29T19:47:06:398
2027211,000000	2020-10-29T19:47:06:436
2029108,000000	2020-10-29T19:47:06:476
2031177,000000	2020-10-29T19:47:06:517
2032759,000000	2020-10-29T19:47:06:556
2033526,000000	2020-10-29T19:47:06:596
2034132,000000	2020-10-29T19:47:06:638
2034978,000000	2020-10-29T19:47:06:685
2031730,000000	2020-10-29T19:47:06:717
2026963,000000	2020-10-29T19:47:06:756
2027371,000000	2020-10-29T19:47:06:796
2032178,000000	2020-10-29T19:47:06:836
2036474,000000	2020-10-29T19:47:06:878
2040420,000000	2020-10-29T19:47:06:917
2045053,000000	2020-10-29T19:47:06:956
2048948,000000	2020-10-29T19:47:06:997
2050725,000000	2020-10-29T19:47:07:036
2049713,000000	2020-10-29T19:47:07:076
2049299,000000	2020-10-29T19:47:07:119
2049766,000000	2020-10-29T19:47:07:157
2050677,000000	2020-10-29T19:47:07:196
2051552,000000	2020-10-29T19:47:07:237
2052633,000000	2020-10-29T19:47:07:277
2053824,000000	2020-10-29T19:47:07:317
2054128,000000	2020-10-29T19:47:07:358
2047789,000000	2020-10-29T19:47:07:397
2037544,000000	2020-10-29T19:47:07:437
2028749,000000	2020-10-29T19:47:07:477
2024118,000000	2020-10-29T19:47:07:518
2022438,000000	2020-10-29T19:47:07:557
2023367,000000	2020-10-29T19:47:07:598
2026072,000000	2020-10-29T19:47:07:637
2029638,000000	2020-10-29T19:47:07:688
2034204,000000	2020-10-29T19:47:07:718
2041147,000000	2020-10-29T19:47:07:757
2045730,000000	2020-10-29T19:47:07:797
2050876,000000	2020-10-29T19:47:07:839
2056135,000000	2020-10-29T19:47:07:877
2062075,000000	2020-10-29T19:47:07:918
2066878,000000	2020-10-29T19:47:07:958
2070639,000000	2020-10-29T19:47:07:998
2073277,000000	2020-10-29T19:47:08:041
2073675,000000	2020-10-29T19:47:08:078
2066818,000000	2020-10-29T19:47:08:118
2057178,000000	2020-10-29T19:47:08:158
2049275,000000	2020-10-29T19:47:08:198
2044788,000000	2020-10-29T19:47:08:238
2046759,000000	2020-10-29T19:47:08:278
2055458,000000	2020-10-29T19:47:08:320
2067029,000000	2020-10-29T19:47:08:367
2077535,000000	2020-10-29T19:47:08:406
2085579,000000	2020-10-29T19:47:08:438
2091638,000000	2020-10-29T19:47:08:478
2096036,000000	2020-10-29T19:47:08:518
2096716,000000	2020-10-29T19:47:08:559
2095329,000000	2020-10-29T19:47:08:599
2093935,000000	2020-10-29T19:47:08:638
2092785,000000	2020-10-29T19:47:08:678
2090620,000000	2020-10-29T19:47:08:718
2088169,000000	2020-10-29T19:47:08:758
2084688,000000	2020-10-29T19:47:08:798
2076601,000000	2020-10-29T19:47:08:839
2066945,000000	2020-10-29T19:47:08:878
2059497,000000	2020-10-29T19:47:08:919
2055357,000000	2020-10-29T19:47:08:958
2053220,000000	2020-10-29T19:47:08:998
2052454,000000	2020-10-29T19:47:09:040
2051312,000000	2020-10-29T19:47:09:079
2049206,000000	2020-10-29T19:47:09:119
2046410,000000	2020-10-29T19:47:09:159
2044003,000000	2020-10-29T19:47:09:199
2042543,000000	2020-10-29T19:47:09:239
2042076,000000	2020-10-29T19:47:09:280
2042658,000000	2020-10-29T19:47:09:320
2044697,000000	2020-10-29T19:47:09:359
2043430,000000	2020-10-29T19:47:09:398
2043674,000000	2020-10-29T19:47:09:439
2040629,000000	2020-10-29T19:47:09:479
2036468,000000	2020-10-29T19:47:09:521
2030564,000000	2020-10-29T19:47:09:559
2026886,000000	2020-10-29T19:47:09:599
2026016,000000	2020-10-29T19:47:09:639
2030007,000000	2020-10-29T19:47:09:679
2036349,000000	2020-10-29T19:47:09:720
2042266,000000	2020-10-29T19:47:09:761
2046771,000000	2020-10-29T19:47:09:799
2051838,000000	2020-10-29T19:47:09:839
2056079,000000	2020-10-29T19:47:09:880
2060984,000000	2020-10-29T19:47:09:920
2066022,000000	2020-10-29T19:47:09:959
2069418,000000	2020-10-29T19:47:10:001
2072189,000000	2020-10-29T19:47:10:040
2076349,000000	2020-10-29T19:47:10:080
2081723,000000	2020-10-29T19:47:10:120
2084488,000000	2020-10-29T19:47:10:160
2082236,000000	2020-10-29T19:47:10:200
2079358,000000	2020-10-29T19:47:10:241
2078193,000000	2020-10-29T19:47:10:280
2079920,000000	2020-10-29T19:47:10:320
2082572,000000	2020-10-29T19:47:10:360
2086964,000000	2020-10-29T19:47:10:400
2090933,000000	2020-10-29T19:47:10:440
2095306,000000	2020-10-29T19:47:10:481
2098699,000000	2020-10-29T19:47:10:521
2100417,000000	2020-10-29T19:47:10:560
2103550,000000	2020-10-29T19:47:10:600
2108023,000000	2020-10-29T19:47:10:641
2111755,000000	2020-10-29T19:47:10:680
2115839,000000	2020-10-29T19:47:10:725
2119331,000000	2020-10-29T19:47:10:761
2122116,000000	2020-10-29T19:47:10:800
2119962,000000	2020-10-29T19:47:10:840
2114825,000000	2020-10-29T19:47:10:880
2110506,000000	2020-10-29T19:47:10:921
2108472,000000	2020-10-29T19:47:10:962
2107553,000000	2020-10-29T19:47:11:001
2109842,000000	2020-10-29T19:47:11:040
2110132,000000	2020-10-29T19:47:11:080
2111153,000000	2020-10-29T19:47:11:122
2110958,000000	2020-10-29T19:47:11:160
2110958,000000	2020-10-29T19:47:11:201
2112180,000000	2020-10-29T19:47:11:241
2116593,000000	2020-10-29T19:47:11:281
2123344,000000	2020-10-29T19:47:11:322
2123932,000000	2020-10-29T19:47:11:361
2124745,000000	2020-10-29T19:47:11:401
2119682,000000	2020-10-29T19:47:11:443
2110028,000000	2020-10-29T19:47:11:481
2103067,000000	2020-10-29T19:47:11:521
2100259,000000	2020-10-29T19:47:11:561
2099096,000000	2020-10-29T19:47:11:601
2098971,000000	2020-10-29T19:47:11:641
2100814,000000	2020-10-29T19:47:11:683
2102729,000000	2020-10-29T19:47:11:722
2101228,000000	2020-10-29T19:47:11:762
2098544,000000	2020-10-29T19:47:11:801
2095043,000000	2020-10-29T19:47:11:841
2091372,000000	2020-10-29T19:47:11:881
2088810,000000	2020-10-29T19:47:11:923
2087357,000000	2020-10-29T19:47:11:961
2086422,000000	2020-10-29T19:47:12:001
2080657,000000	2020-10-29T19:47:12:041
2068370,000000	2020-10-29T19:47:12:081
2057025,000000	2020-10-29T19:47:12:122
2048777,000000	2020-10-29T19:47:12:162
2045019,000000	2020-10-29T19:47:12:202
2044954,000000	2020-10-29T19:47:12:241
2047720,000000	2020-10-29T19:47:12:282
2051102,000000	2020-10-29T19:47:12:322
2054344,000000	2020-10-29T19:47:12:361
2055527,000000	2020-10-29T19:47:12:403
2054692,000000	2020-10-29T19:47:12:443
2053330,000000	2020-10-29T19:47:12:482
2052126,000000	2020-10-29T19:47:12:523
2051672,000000	2020-10-29T19:47:12:562
2052146,000000	2020-10-29T19:47:12:602
2053342,000000	2020-10-29T19:47:12:643
2054132,000000	2020-10-29T19:47:12:682
2047980,000000	2020-10-29T19:47:12:723
2036525,000000	2020-10-29T19:47:12:762
2024561,000000	2020-10-29T19:47:12:802
2015695,000000	2020-10-29T19:47:12:842
2009763,000000	2020-10-29T19:47:12:883
2007189,000000	2020-10-29T19:47:12:923
2006889,000000	2020-10-29T19:47:12:962
2008002,000000	2020-10-29T19:47:13:002
2010032,000000	2020-10-29T19:47:13:043
2012761,000000	2020-10-29T19:47:13:082
2016104,000000	2020-10-29T19:47:13:124
2019130,000000	2020-10-29T19:47:13:163
2022491,000000	2020-10-29T19:47:13:202
2025566,000000	2020-10-29T19:47:13:243
2028732,000000	2020-10-29T19:47:13:282
2031389,000000	2020-10-29T19:47:13:323
2031588,000000	2020-10-29T19:47:13:364
2025218,000000	2020-10-29T19:47:13:403
2015765,000000	2020-10-29T19:47:13:443
2008547,000000	2020-10-29T19:47:13:483
2004959,000000	2020-10-29T19:47:13:524
2003544,000000	2020-10-29T19:47:13:563
2004122,000000	2020-10-29T19:47:13:604
2005331,000000	2020-10-29T19:47:13:643
2006204,000000	2020-10-29T19:47:13:683
2006130,000000	2020-10-29T19:47:13:724
2005571,000000	2020-10-29T19:47:13:764
2005376,000000	2020-10-29T19:47:13:803
2006162,000000	2020-10-29T19:47:13:844
2008500,000000	2020-10-29T19:47:13:883
2013708,000000	2020-10-29T19:47:13:924
2018624,000000	2020-10-29T19:47:13:963
2018194,000000	2020-10-29T19:47:14:003
2007556,000000	2020-10-29T19:47:14:043
1995760,000000	2020-10-29T19:47:14:084
1987409,000000	2020-10-29T19:47:14:124
1983111,000000	2020-10-29T19:47:14:163
1981504,000000	2020-10-29T19:47:14:203
1981591,000000	2020-10-29T19:47:14:243
1982259,000000	2020-10-29T19:47:14:283
1982331,000000	2020-10-29T19:47:14:325
1980134,000000	2020-10-29T19:47:14:363
1976855,000000	2020-10-29T19:47:14:404
1974716,000000	2020-10-29T19:47:14:444
1974675,000000	2020-10-29T19:47:14:484
1975591,000000	2020-10-29T19:47:14:524
1977346,000000	2020-10-29T19:47:14:565
1979937,000000	2020-10-29T19:47:14:604
1983519,000000	2020-10-29T19:47:14:644
1983611,000000	2020-10-29T19:47:14:684
1977594,000000	2020-10-29T19:47:14:724
1971599,000000	2020-10-29T19:47:14:764
1971879,000000	2020-10-29T19:47:14:806
1976163,000000	2020-10-29T19:47:14:844
1980191,000000	2020-10-29T19:47:14:884
1983659,000000	2020-10-29T19:47:14:925
1986948,000000	2020-10-29T19:47:14:964
1988140,000000	2020-10-29T19:47:15:004
1986617,000000	2020-10-29T19:47:15:046
1983708,000000	2020-10-29T19:47:15:085
1982660,000000	2020-10-29T19:47:15:125
1982476,000000	2020-10-29T19:47:15:164
1983316,000000	2020-10-29T19:47:15:205
1984390,000000	2020-10-29T19:47:15:244
1986272,000000	2020-10-29T19:47:15:286
1986637,000000	2020-10-29T19:47:15:325
1981481,000000	2020-10-29T19:47:15:364
1975205,000000	2020-10-29T19:47:15:405
1970998,000000	2020-10-29T19:47:15:445
1970860,000000	2020-10-29T19:47:15:485
1973146,000000	2020-10-29T19:47:15:527
1975528,000000	2020-10-29T19:47:15:565
1977802,000000	2020-10-29T19:47:15:604
1978979,000000	2020-10-29T19:47:15:645
1979389,000000	2020-10-29T19:47:15:685
1977967,000000	2020-10-29T19:47:15:725
1975731,000000	2020-10-29T19:47:15:767
1974227,000000	2020-10-29T19:47:15:805
1973510,000000	2020-10-29T19:47:15:845
1974147,000000	2020-10-29T19:47:15:885
1975948,000000	2020-10-29T19:47:15:925
1971493,000000	2020-10-29T19:47:15:965
1961424,000000	2020-10-29T19:47:16:007
1949661,000000	2020-10-29T19:47:16:045
1941141,000000	2020-10-29T19:47:16:085
1941609,000000	2020-10-29T19:47:16:126
1948064,000000	2020-10-29T19:47:16:165
1953664,000000	2020-10-29T19:47:16:205
1958443,000000	2020-10-29T19:47:16:247
1960442,000000	2020-10-29T19:47:16:286
1957295,000000	2020-10-29T19:47:16:326
1954038,000000	2020-10-29T19:47:16:366
1948576,000000	2020-10-29T19:47:16:406
1941312,000000	2020-10-29T19:47:16:446
1933954,000000	2020-10-29T19:47:16:487
1929439,000000	2020-10-29T19:47:16:527
1925355,000000	2020-10-29T19:47:16:566
1915210,000000	2020-10-29T19:47:16:608
1900060,000000	2020-10-29T19:47:16:646
1885806,000000	2020-10-29T19:47:16:690
1874756,000000	2020-10-29T19:47:16:728
1866966,000000	2020-10-29T19:47:16:766
1860425,000000	2020-10-29T19:47:16:806
1857058,000000	2020-10-29T19:47:16:846
1854729,000000	2020-10-29T19:47:16:886
1852021,000000	2020-10-29T19:47:16:927
1847422,000000	2020-10-29T19:47:16:968
1843247,000000	2020-10-29T19:47:17:006
1839410,000000	2020-10-29T19:47:17:046
1835685,000000	2020-10-29T19:47:17:086
1832764,000000	2020-10-29T19:47:17:127
1830306,000000	2020-10-29T19:47:17:166
1828674,000000	2020-10-29T19:47:17:208
1824742,000000	2020-10-29T19:47:17:247
1815057,000000	2020-10-29T19:47:17:286
1806001,000000	2020-10-29T19:47:17:327
1806935,000000	2020-10-29T19:47:17:367
1816160,000000	2020-10-29T19:47:17:406
1829953,000000	2020-10-29T19:47:17:448
1847132,000000	2020-10-29T19:47:17:487
1864503,000000	2020-10-29T19:47:17:527
1880058,000000	2020-10-29T19:47:17:567
1891418,000000	2020-10-29T19:47:17:607
1899155,000000	2020-10-29T19:47:17:647
1904916,000000	2020-10-29T19:47:17:689
1909374,000000	2020-10-29T19:47:17:728
1913914,000000	2020-10-29T19:47:17:767
1918413,000000	2020-10-29T19:47:17:807
1920914,000000	2020-10-29T19:47:17:847
1920795,000000	2020-10-29T19:47:17:887
1911830,000000	2020-10-29T19:47:17:929
1900970,000000	2020-10-29T19:47:17:967
1893479,000000	2020-10-29T19:47:18:007
1890536,000000	2020-10-29T19:47:18:047
1893523,000000	2020-10-29T19:47:18:087
1894302,000000	2020-10-29T19:47:18:128
1895518,000000	2020-10-29T19:47:18:169
1894084,000000	2020-10-29T19:47:18:207
1893690,000000	2020-10-29T19:47:18:247
1892874,000000	2020-10-29T19:47:18:287
1891138,000000	2020-10-29T19:47:18:328
1890120,000000	2020-10-29T19:47:18:367
1895705,000000	2020-10-29T19:47:18:409
1902472,000000	2020-10-29T19:47:18:448
1908371,000000	2020-10-29T19:47:18:488
1912095,000000	2020-10-29T19:47:18:528
1912330,000000	2020-10-29T19:47:18:568
1903257,000000	2020-10-29T19:47:18:608
1891481,000000	2020-10-29T19:47:18:649
1882993,000000	2020-10-29T19:47:18:688
1880044,000000	2020-10-29T19:47:18:729
1881929,000000	2020-10-29T19:47:18:768
1892091,000000	2020-10-29T19:47:18:808
1902088,000000	2020-10-29T19:47:18:848
1903538,000000	2020-10-29T19:47:18:890
1904370,000000	2020-10-29T19:47:18:929
1907649,000000	2020-10-29T19:47:18:968
1909598,000000	2020-10-29T19:47:19:008
1909427,000000	2020-10-29T19:47:19:048
1908860,000000	2020-10-29T19:47:19:088
1908048,000000	2020-10-29T19:47:19:131
1907497,000000	2020-10-29T19:47:19:168
1907721,000000	2020-10-29T19:47:19:208
1908326,000000	2020-10-29T19:47:19:248
1914860,000000	2020-10-29T19:47:19:288
1911759,000000	2020-10-29T19:47:19:329
1905559,000000	2020-10-29T19:47:19:369
1902185,000000	2020-10-29T19:47:19:408
1900810,000000	2020-10-29T19:47:19:448
1901546,000000	2020-10-29T19:47:19:489
1908103,000000	2020-10-29T19:47:19:529
1911365,000000	2020-10-29T19:47:19:569
1909715,000000	2020-10-29T19:47:19:610
1906529,000000	2020-10-29T19:47:19:649
1906384,000000	2020-10-29T19:47:19:689
1909464,000000	2020-10-29T19:47:19:729
1910977,000000	2020-10-29T19:47:19:769
1911245,000000	2020-10-29T19:47:19:809
1912298,000000	2020-10-29T19:47:19:851
1914013,000000	2020-10-29T19:47:19:889
1914584,000000	2020-10-29T19:47:19:930
1914081,000000	2020-10-29T19:47:19:969
1905225,000000	2020-10-29T19:47:20:009
1892790,000000	2020-10-29T19:47:20:049
1883933,000000	2020-10-29T19:47:20:091
1882602,000000	2020-10-29T19:47:20:130
1886409,000000	2020-10-29T19:47:20:169
1890917,000000	2020-10-29T19:47:20:210
1895271,000000	2020-10-29T19:47:20:250
1903890,000000	2020-10-29T19:47:20:289
1912392,000000	2020-10-29T19:47:20:332
1919957,000000	2020-10-29T19:47:20:370
1927084,000000	2020-10-29T19:47:20:410
1930165,000000	2020-10-29T19:47:20:450
1932480,000000	2020-10-29T19:47:20:490
1935224,000000	2020-10-29T19:47:20:530
1937332,000000	2020-10-29T19:47:20:571
1938608,000000	2020-10-29T19:47:20:610
1937126,000000	2020-10-29T19:47:20:650
1917614,000000	2020-10-29T19:47:20:691
1910897,000000	2020-10-29T19:47:20:732
1910169,000000	2020-10-29T19:47:20:772
1914271,000000	2020-10-29T19:47:20:812
1917892,000000	2020-10-29T19:47:20:851
1920096,000000	2020-10-29T19:47:20:891
1920165,000000	2020-10-29T19:47:20:931
1919743,000000	2020-10-29T19:47:20:971
1923531,000000	2020-10-29T19:47:21:010
1922798,000000	2020-10-29T19:47:21:051
1918420,000000	2020-10-29T19:47:21:091
1918728,000000	2020-10-29T19:47:21:131
1918281,000000	2020-10-29T19:47:21:170
1915738,000000	2020-10-29T19:47:21:210
1912129,000000	2020-10-29T19:47:21:250
1910265,000000	2020-10-29T19:47:21:293
1903937,000000	2020-10-29T19:47:21:331
1889976,000000	2020-10-29T19:47:21:370
1874350,000000	2020-10-29T19:47:21:411
1862749,000000	2020-10-29T19:47:21:451
1855402,000000	2020-10-29T19:47:21:490
1851249,000000	2020-10-29T19:47:21:534
1848559,000000	2020-10-29T19:47:21:571
1846252,000000	2020-10-29T19:47:21:611
1841304,000000	2020-10-29T19:47:21:651
1838501,000000	2020-10-29T19:47:21:691
1840594,000000	2020-10-29T19:47:21:731
1841348,000000	2020-10-29T19:47:21:774
1840430,000000	2020-10-29T19:47:21:811
1839244,000000	2020-10-29T19:47:21:851
1838328,000000	2020-10-29T19:47:21:891
1836968,000000	2020-10-29T19:47:21:932
1836787,000000	2020-10-29T19:47:21:971
1835040,000000	2020-10-29T19:47:22:013
1833773,000000	2020-10-29T19:47:22:051
1827941,000000	2020-10-29T19:47:22:091
1819418,000000	2020-10-29T19:47:22:132
1813720,000000	2020-10-29T19:47:22:171
1812654,000000	2020-10-29T19:47:22:211
1819285,000000	2020-10-29T19:47:22:253
1832282,000000	2020-10-29T19:47:22:292
1845413,000000	2020-10-29T19:47:22:332
1855640,000000	2020-10-29T19:47:22:372
1858516,000000	2020-10-29T19:47:22:412
1858568,000000	2020-10-29T19:47:22:451
1858297,000000	2020-10-29T19:47:22:493
1858170,000000	2020-10-29T19:47:22:532
1858840,000000	2020-10-29T19:47:22:572
1859874,000000	2020-10-29T19:47:22:612
1861511,000000	2020-10-29T19:47:22:653
1863454,000000	2020-10-29T19:47:22:692
1865696,000000	2020-10-29T19:47:22:733
1864196,000000	2020-10-29T19:47:22:773
1862480,000000	2020-10-29T19:47:22:812
1857991,000000	2020-10-29T19:47:22:852
1856298,000000	2020-10-29T19:47:22:892
1857192,000000	2020-10-29T19:47:22:933
1866972,000000	2020-10-29T19:47:22:974
1880332,000000	2020-10-29T19:47:23:012
1886351,000000	2020-10-29T19:47:23:052
1887133,000000	2020-10-29T19:47:23:092
1887289,000000	2020-10-29T19:47:23:133
1886725,000000	2020-10-29T19:47:23:172
1887528,000000	2020-10-29T19:47:23:214
1887853,000000	2020-10-29T19:47:23:253
1887540,000000	2020-10-29T19:47:23:294
1887816,000000	2020-10-29T19:47:23:333
1888434,000000	2020-10-29T19:47:23:372
1889315,000000	2020-10-29T19:47:23:422
1888602,000000	2020-10-29T19:47:23:454
1881599,000000	2020-10-29T19:47:23:493
1879079,000000	2020-10-29T19:47:23:533
1881580,000000	2020-10-29T19:47:23:573
1886348,000000	2020-10-29T19:47:23:613
1894767,000000	2020-10-29T19:47:23:653
1906628,000000	2020-10-29T19:47:23:694
1918011,000000	2020-10-29T19:47:23:734
1924143,000000	2020-10-29T19:47:23:773
1928204,000000	2020-10-29T19:47:23:813
1930754,000000	2020-10-29T19:47:23:853
1933080,000000	2020-10-29T19:47:23:893
1936925,000000	2020-10-29T19:47:23:935
1939656,000000	2020-10-29T19:47:23:973
1940353,000000	2020-10-29T19:47:24:013
1943213,000000	2020-10-29T19:47:24:054
1951200,000000	2020-10-29T19:47:24:093
1966227,000000	2020-10-29T19:47:24:134
1979302,000000	2020-10-29T19:47:24:175
1986967,000000	2020-10-29T19:47:24:214
1993049,000000	2020-10-29T19:47:24:254
1998221,000000	2020-10-29T19:47:24:313
2003037,000000	2020-10-29T19:47:24:367
2006667,000000	2020-10-29T19:47:24:376
2010924,000000	2020-10-29T19:47:24:415
2015525,000000	2020-10-29T19:47:24:454
2018823,000000	2020-10-29T19:47:24:494
2022655,000000	2020-10-29T19:47:24:534
2028789,000000	2020-10-29T19:47:24:574
2033156,000000	2020-10-29T19:47:24:614
2040434,000000	2020-10-29T19:47:24:656
2049353,000000	2020-10-29T19:47:24:694
2057183,000000	2020-10-29T19:47:24:734
2066691,000000	2020-10-29T19:47:24:775
2074047,000000	2020-10-29T19:47:24:814
2074917,000000	2020-10-29T19:47:24:854
2076175,000000	2020-10-29T19:47:24:896
2081404,000000	2020-10-29T19:47:24:935
2088527,000000	2020-10-29T19:47:24:974
2096404,000000	2020-10-29T19:47:25:014
2105684,000000	2020-10-29T19:47:25:054
2115626,000000	2020-10-29T19:47:25:094
2122929,000000	2020-10-29T19:47:25:136
2126157,000000	2020-10-29T19:47:25:174
2129677,000000	2020-10-29T19:47:25:214
2134516,000000	2020-10-29T19:47:25:255
2138568,000000	2020-10-29T19:47:25:295
2142477,000000	2020-10-29T19:47:25:335
2146654,000000	2020-10-29T19:47:25:376
2150568,000000	2020-10-29T19:47:25:415
2154087,000000	2020-10-29T19:47:25:455
2156476,000000	2020-10-29T19:47:25:495
2154797,000000	2020-10-29T19:47:25:535
2148900,000000	2020-10-29T19:47:25:575
2142377,000000	2020-10-29T19:47:25:616
2137138,000000	2020-10-29T19:47:25:655
2134956,000000	2020-10-29T19:47:25:695
2134437,000000	2020-10-29T19:47:25:736
2134366,000000	2020-10-29T19:47:25:776
2134156,000000	2020-10-29T19:47:25:815
2133344,000000	2020-10-29T19:47:25:857
2131580,000000	2020-10-29T19:47:25:895
2128928,000000	2020-10-29T19:47:25:936
2125959,000000	2020-10-29T19:47:25:975
2124155,000000	2020-10-29T19:47:26:015
2122542,000000	2020-10-29T19:47:26:055
2121459,000000	2020-10-29T19:47:26:097
2121286,000000	2020-10-29T19:47:26:136
2122004,000000	2020-10-29T19:47:26:175
2122768,000000	2020-10-29T19:47:26:215
2120965,000000	2020-10-29T19:47:26:256
2116234,000000	2020-10-29T19:47:26:295
2110361,000000	2020-10-29T19:47:26:338
2106119,000000	2020-10-29T19:47:26:375
2104101,000000	2020-10-29T19:47:26:416
2103191,000000	2020-10-29T19:47:26:455
2103804,000000	2020-10-29T19:47:26:496
2104628,000000	2020-10-29T19:47:26:536
2104222,000000	2020-10-29T19:47:26:576
2102466,000000	2020-10-29T19:47:26:615
2101160,000000	2020-10-29T19:47:26:655
2100215,000000	2020-10-29T19:47:26:696
2099647,000000	2020-10-29T19:47:26:736
2099578,000000	2020-10-29T19:47:26:776
2100039,000000	2020-10-29T19:47:26:818
2100882,000000	2020-10-29T19:47:26:856
2101248,000000	2020-10-29T19:47:26:896
2096755,000000	2020-10-29T19:47:26:937
2088132,000000	2020-10-29T19:47:26:976
2079841,000000	2020-10-29T19:47:27:016
2073389,000000	2020-10-29T19:47:27:058
2069359,000000	2020-10-29T19:47:27:096
2067047,000000	2020-10-29T19:47:27:138
2066249,000000	2020-10-29T19:47:27:176
2065498,000000	2020-10-29T19:47:27:216
2063883,000000	2020-10-29T19:47:27:256
2061037,000000	2020-10-29T19:47:27:298
2058657,000000	2020-10-29T19:47:27:337
2056761,000000	2020-10-29T19:47:27:376
2055484,000000	2020-10-29T19:47:27:417
2054909,000000	2020-10-29T19:47:27:456
2054586,000000	2020-10-29T19:47:27:497
2054616,000000	2020-10-29T19:47:27:538
2052616,000000	2020-10-29T19:47:27:577
2043954,000000	2020-10-29T19:47:27:617
2033678,000000	2020-10-29T19:47:27:657
2025385,000000	2020-10-29T19:47:27:697
2020473,000000	2020-10-29T19:47:27:737
2019442,000000	2020-10-29T19:47:27:779
2027183,000000	2020-10-29T19:47:27:817
2037747,000000	2020-10-29T19:47:27:857
2042315,000000	2020-10-29T19:47:27:897
2039881,000000	2020-10-29T19:47:27:938
2033614,000000	2020-10-29T19:47:27:977
2032910,000000	2020-10-29T19:47:28:019
2041882,000000	2020-10-29T19:47:28:057
2054314,000000	2020-10-29T19:47:28:097
2067912,000000	2020-10-29T19:47:28:138
2080097,000000	2020-10-29T19:47:28:177
2089854,000000	2020-10-29T19:47:28:217
2097647,000000	2020-10-29T19:47:28:259
2099882,000000	2020-10-29T19:47:28:297
2097070,000000	2020-10-29T19:47:28:338
2094012,000000	2020-10-29T19:47:28:377
2099496,000000	2020-10-29T19:47:28:418
2107246,000000	2020-10-29T19:47:28:458
2115753,000000	2020-10-29T19:47:28:500
2123539,000000	2020-10-29T19:47:28:539
2130673,000000	2020-10-29T19:47:28:578
2137175,000000	2020-10-29T19:47:28:618
2144324,000000	2020-10-29T19:47:28:658
2148465,000000	2020-10-29T19:47:28:697
2152786,000000	2020-10-29T19:47:28:739
2157855,000000	2020-10-29T19:47:28:778
2166016,000000	2020-10-29T19:47:28:818
2174165,000000	2020-10-29T19:47:28:880
2177618,000000	2020-10-29T19:47:29:202
2178299,000000	2020-10-29T19:47:29:314
2175375,000000	2020-10-29T19:47:29:314
2171380,000000	2020-10-29T19:47:29:315
2170253,000000	2020-10-29T19:47:29:316
2170699,000000	2020-10-29T19:47:29:317
2172717,000000	2020-10-29T19:47:29:369
2174988,000000	2020-10-29T19:47:29:370
2176294,000000	2020-10-29T19:47:29:371
2178762,000000	2020-10-29T19:47:29:372
2179334,000000	2020-10-29T19:47:29:395
2180426,000000	2020-10-29T19:47:29:405
2182278,000000	2020-10-29T19:47:29:407
2184681,000000	2020-10-29T19:47:29:456
2188887,000000	2020-10-29T19:47:29:491
2194415,000000	2020-10-29T19:47:29:503
2197833,000000	2020-10-29T19:47:29:581
2198361,000000	2020-10-29T19:47:29:581
2194647,000000	2020-10-29T19:47:29:619
2193614,000000	2020-10-29T19:47:29:670
2195155,000000	2020-10-29T19:47:29:705
2198202,000000	2020-10-29T19:47:29:739
2205523,000000	2020-10-29T19:47:29:782
2212622,000000	2020-10-29T19:47:29:818
2217529,000000	2020-10-29T19:47:29:859
2223132,000000	2020-10-29T19:47:29:897
2228262,000000	2020-10-29T19:47:29:943
2231614,000000	2020-10-29T19:47:29:979
2234755,000000	2020-10-29T19:47:30:077
2238835,000000	2020-10-29T19:47:30:082
2242636,000000	2020-10-29T19:47:30:107
2246844,000000	2020-10-29T19:47:30:172
2253011,000000	2020-10-29T19:47:30:190
2258382,000000	2020-10-29T19:47:30:219
2258048,000000	2020-10-29T19:47:30:259
2253327,000000	2020-10-29T19:47:30:299
2249229,000000	2020-10-29T19:47:30:343
2248595,000000	2020-10-29T19:47:30:383
2250221,000000	2020-10-29T19:47:30:426
2252926,000000	2020-10-29T19:47:30:463
2256664,000000	2020-10-29T19:47:30:500
2259706,000000	2020-10-29T19:47:30:542
2261554,000000	2020-10-29T19:47:30:587
2262367,000000	2020-10-29T19:47:30:617
2264229,000000	2020-10-29T19:47:30:663
2265650,000000	2020-10-29T19:47:30:699
2267286,000000	2020-10-29T19:47:30:741
2268525,000000	2020-10-29T19:47:30:780
2271031,000000	2020-10-29T19:47:30:817
2273289,000000	2020-10-29T19:47:30:862
2275710,000000	2020-10-29T19:47:30:903
2278667,000000	2020-10-29T19:47:30:944
2278419,000000	2020-10-29T19:47:30:986
2272685,000000	2020-10-29T19:47:31:027
2267004,000000	2020-10-29T19:47:31:065
2263304,000000	2020-10-29T19:47:31:098
2260355,000000	2020-10-29T19:47:31:141
2261530,000000	2020-10-29T19:47:31:180
2263813,000000	2020-10-29T19:47:31:218
2264936,000000	2020-10-29T19:47:31:259
2264536,000000	2020-10-29T19:47:31:298
2264172,000000	2020-10-29T19:47:31:340
2263668,000000	2020-10-29T19:47:31:379
2261828,000000	2020-10-29T19:47:31:423
2263628,000000	2020-10-29T19:47:31:459
2267440,000000	2020-10-29T19:47:31:499
2268070,000000	2020-10-29T19:47:31:684
2269344,000000	2020-10-29T19:47:31:684
2271216,000000	2020-10-29T19:47:31:685
2272045,000000	2020-10-29T19:47:31:686
2269288,000000	2020-10-29T19:47:31:701
2261577,000000	2020-10-29T19:47:31:743
2255608,000000	2020-10-29T19:47:31:781
2253313,000000	2020-10-29T19:47:31:819
2252826,000000	2020-10-29T19:47:31:862
2254478,000000	2020-10-29T19:47:31:899
2256914,000000	2020-10-29T19:47:31:974
2258397,000000	2020-10-29T19:47:32:043
2258501,000000	2020-10-29T19:47:32:044
2258221,000000	2020-10-29T19:47:32:059
2257610,000000	2020-10-29T19:47:32:101
2260182,000000	2020-10-29T19:47:32:142
2268198,000000	2020-10-29T19:47:32:181
2272956,000000	2020-10-29T19:47:32:222
2275235,000000	2020-10-29T19:47:32:261
2278269,000000	2020-10-29T19:47:32:302
2282031,000000	2020-10-29T19:47:32:344
2285050,000000	2020-10-29T19:47:32:382
2284009,000000	2020-10-29T19:47:32:422
2276092,000000	2020-10-29T19:47:32:466
2267612,000000	2020-10-29T19:47:32:502
2262482,000000	2020-10-29T19:47:32:543
2261437,000000	2020-10-29T19:47:32:583
2262183,000000	2020-10-29T19:47:32:622
2264988,000000	2020-10-29T19:47:32:664
2266797,000000	2020-10-29T19:47:32:703
2265855,000000	2020-10-29T19:47:32:742
2266702,000000	2020-10-29T19:47:32:781
2266753,000000	2020-10-29T19:47:32:822
2267745,000000	2020-10-29T19:47:32:860
2268419,000000	2020-10-29T19:47:32:901
2270908,000000	2020-10-29T19:47:32:952
2272984,000000	2020-10-29T19:47:32:995
2273547,000000	2020-10-29T19:47:33:022
2275525,000000	2020-10-29T19:47:33:070
2277284,000000	2020-10-29T19:47:33:101
2272775,000000	2020-10-29T19:47:33:147
2264638,000000	2020-10-29T19:47:33:184
2258489,000000	2020-10-29T19:47:33:228
2256278,000000	2020-10-29T19:47:33:262
2256248,000000	2020-10-29T19:47:33:303
2259148,000000	2020-10-29T19:47:33:343
2262171,000000	2020-10-29T19:47:33:383
2263792,000000	2020-10-29T19:47:33:422
2263289,000000	2020-10-29T19:47:33:463
2263465,000000	2020-10-29T19:47:33:503
2263831,000000	2020-10-29T19:47:33:547
2265086,000000	2020-10-29T19:47:33:583
2267566,000000	2020-10-29T19:47:33:626
2267244,000000	2020-10-29T19:47:33:664
2270166,000000	2020-10-29T19:47:33:702
2276271,000000	2020-10-29T19:47:33:742
2279243,000000	2020-10-29T19:47:33:783
2274477,000000	2020-10-29T19:47:33:825
2268500,000000	2020-10-29T19:47:33:863
