v1	v2	v3	v4	ts
0,000000	0,000000	0,000000	0,000000	2020-10-29T19:45:22:231
0,000000	0,000000	0,000000	0,000000	2020-10-29T19:45:22:270
0,000000	0,000000	0,000000	0,000000	2020-10-29T19:45:22:310
0,000000	0,000000	0,000000	0,000000	2020-10-29T19:45:22:349
0,000000	0,000000	0,000000	0,000000	2020-10-29T19:45:22:389
0,000000	0,000000	0,000000	0,000000	2020-10-29T19:45:22:430
0,000000	0,000000	0,000000	0,000000	2020-10-29T19:45:22:469
0,000000	0,000000	0,000000	0,000000	2020-10-29T19:45:22:510
0,000000	0,000000	0,000000	0,000000	2020-10-29T19:45:22:549
0,000000	0,000000	0,000000	0,000000	2020-10-29T19:45:22:589
0,000000	0,000000	0,000000	0,000000	2020-10-29T19:45:22:630
0,000000	0,000000	0,000000	0,000000	2020-10-29T19:45:22:670
0,000000	0,000000	0,000000	0,000000	2020-10-29T19:45:22:710
0,000000	0,000000	0,000000	0,000000	2020-10-29T19:45:22:750
0,000000	0,000000	0,000000	0,000000	2020-10-29T19:45:22:790
0,000000	0,000000	0,000000	0,000000	2020-10-29T19:45:22:830
0,000000	0,000000	0,000000	0,000000	2020-10-29T19:45:22:870
0,000000	0,000000	0,000000	0,000000	2020-10-29T19:45:22:959
0,000000	0,000000	0,000000	0,000000	2020-10-29T19:45:22:961
0,000000	0,000000	0,000000	0,000000	2020-10-29T19:45:22:997
0,000000	0,000000	0,000000	0,000000	2020-10-29T19:45:23:032
0,000000	0,000000	0,000000	0,000000	2020-10-29T19:45:23:070
0,000000	0,000000	0,000000	0,000000	2020-10-29T19:45:23:110
0,000000	0,000000	0,000000	0,000000	2020-10-29T19:45:23:150
0,000000	0,000000	0,000000	0,000000	2020-10-29T19:45:23:190
0,000000	0,000000	0,000000	0,000000	2020-10-29T19:45:23:232
0,000000	0,000000	0,000000	0,000000	2020-10-29T19:45:23:271
0,000000	0,000000	0,000000	0,000000	2020-10-29T19:45:23:311
0,000000	0,000000	0,000000	0,000000	2020-10-29T19:45:23:351
0,000000	0,000000	0,000000	0,000000	2020-10-29T19:45:23:392
0,000000	0,000000	0,000000	0,000000	2020-10-29T19:45:23:432
0,000000	0,000000	0,000000	0,000000	2020-10-29T19:45:23:471
0,000000	0,000000	0,000000	0,000000	2020-10-29T19:45:23:514
0,000000	0,000000	0,000000	0,000000	2020-10-29T19:45:23:554
0,000000	0,000000	0,000000	0,000000	2020-10-29T19:45:23:592
0,000000	0,000000	0,000000	0,000000	2020-10-29T19:45:23:634
0,000000	0,000000	0,000000	0,000000	2020-10-29T19:45:23:674
0,000000	0,000000	0,000000	0,000000	2020-10-29T19:45:23:714
0,000000	0,000000	0,000000	0,000000	2020-10-29T19:45:23:754
0,000000	0,000000	0,000000	0,000000	2020-10-29T19:45:23:794
0,000000	0,000000	0,000000	0,000000	2020-10-29T19:45:23:841
0,000000	0,000000	0,000000	0,000000	2020-10-29T19:45:31:131
0,000000	0,000000	0,000000	0,000000	2020-10-29T19:45:31:150
0,000000	0,000000	0,000000	0,000000	2020-10-29T19:45:31:189
0,000000	0,000000	0,000000	0,000000	2020-10-29T19:45:31:230
0,000000	0,000000	0,000000	0,000000	2020-10-29T19:45:31:269
0,000000	0,000000	0,000000	0,000000	2020-10-29T19:45:31:311
0,000000	0,000000	0,000000	0,000000	2020-10-29T19:45:31:349
0,000000	0,000000	0,000000	0,000000	2020-10-29T19:45:31:390
0,000000	0,000000	0,000000	0,000000	2020-10-29T19:45:31:429
0,000000	0,000000	0,000000	0,000000	2020-10-29T19:45:31:470
0,000000	0,000000	0,000000	0,000000	2020-10-29T19:45:31:509
0,000000	0,000000	0,000000	0,000000	2020-10-29T19:45:31:550
0,000000	0,000000	0,000000	0,000000	2020-10-29T19:45:31:589
0,000000	0,000000	0,000000	0,000000	2020-10-29T19:45:31:630
0,000000	0,000000	0,000000	0,000000	2020-10-29T19:45:31:669
0,000000	0,000000	0,000000	0,000000	2020-10-29T19:45:31:710
0,000000	0,000000	0,000000	0,000000	2020-10-29T19:45:31:749
0,000000	0,000000	0,000000	0,000000	2020-10-29T19:45:31:790
0,000000	0,000000	0,000000	0,000000	2020-10-29T19:45:31:829
0,000000	0,000000	0,000000	0,000000	2020-10-29T19:45:31:870
0,000000	0,000000	0,000000	0,000000	2020-10-29T19:45:31:909
0,000000	0,000000	0,000000	0,000000	2020-10-29T19:45:31:950
0,000000	0,000000	0,000000	0,000000	2020-10-29T19:45:31:991
0,000000	0,000000	0,000000	0,000000	2020-10-29T19:45:32:031
0,000000	0,000000	0,000000	0,000000	2020-10-29T19:45:32:070
0,000000	0,000000	0,000000	0,000000	2020-10-29T19:45:32:111
0,000000	0,000000	0,000000	0,000000	2020-10-29T19:45:32:151
0,000000	0,000000	0,000000	0,000000	2020-10-29T19:45:32:192
0,000000	0,000000	0,000000	0,000000	2020-10-29T19:45:32:230
0,000000	0,000000	0,000000	0,000000	2020-10-29T19:45:32:270
0,000000	0,000000	0,000000	0,000000	2020-10-29T19:45:32:310
0,000000	0,000000	0,000000	0,000000	2020-10-29T19:45:32:351
0,000000	0,000000	0,000000	0,000000	2020-10-29T19:45:32:390
0,000000	0,000000	0,000000	0,000000	2020-10-29T19:45:32:431
0,000000	0,000000	0,000000	0,000000	2020-10-29T19:45:32:470
0,000000	0,000000	0,000000	0,000000	2020-10-29T19:45:32:511
0,000000	0,000000	0,000000	0,000000	2020-10-29T19:45:32:550
0,000000	0,000000	0,000000	0,000000	2020-10-29T19:45:32:591
0,000000	0,000000	0,000000	0,000000	2020-10-29T19:45:32:630
0,000000	0,000000	0,000000	0,000000	2020-10-29T19:45:32:671
0,000000	0,000000	0,000000	0,000000	2020-10-29T19:45:32:711
0,000000	0,000000	0,000000	0,000000	2020-10-29T19:45:32:751
0,000000	0,000000	0,000000	0,000000	2020-10-29T19:45:32:791
0,000000	0,000000	0,000000	0,000000	2020-10-29T19:45:32:832
0,000000	0,000000	0,000000	0,000000	2020-10-29T19:45:32:870
0,000000	0,000000	0,000000	0,000000	2020-10-29T19:45:32:911
0,000000	0,000000	0,000000	0,000000	2020-10-29T19:45:32:950
0,000000	0,000000	0,000000	0,000000	2020-10-29T19:45:32:991
0,000000	0,000000	0,000000	0,000000	2020-10-29T19:45:33:031
0,000000	0,000000	0,000000	0,000000	2020-10-29T19:45:33:071
0,000000	0,000000	0,000000	0,000000	2020-10-29T19:45:33:110
0,000000	0,000000	0,000000	0,000000	2020-10-29T19:45:33:152
0,000000	0,000000	0,000000	0,000000	2020-10-29T19:45:33:191
0,000000	0,000000	0,000000	0,000000	2020-10-29T19:45:33:232
0,000000	0,000000	0,000000	0,000000	2020-10-29T19:45:33:271
0,000000	0,000000	0,000000	0,000000	2020-10-29T19:45:33:312
0,000000	0,000000	0,000000	0,000000	2020-10-29T19:45:33:351
0,000000	0,000000	0,000000	0,000000	2020-10-29T19:45:33:392
0,000000	0,000000	0,000000	0,000000	2020-10-29T19:45:33:431
0,000000	0,000000	0,000000	0,000000	2020-10-29T19:45:33:471
0,000000	0,000000	0,000000	0,000000	2020-10-29T19:45:33:511
0,000000	0,000000	0,000000	0,000000	2020-10-29T19:45:33:552
0,000000	0,000000	0,000000	0,000000	2020-10-29T19:45:33:591
0,000000	0,000000	0,000000	0,000000	2020-10-29T19:45:33:632
0,000000	0,000000	0,000000	0,000000	2020-10-29T19:45:33:671
0,000000	0,000000	0,000000	0,000000	2020-10-29T19:45:33:712
0,000000	0,000000	0,000000	0,000000	2020-10-29T19:45:33:752
0,000000	0,000000	0,000000	0,000000	2020-10-29T19:45:33:793
0,000000	0,000000	0,000000	0,000000	2020-10-29T19:45:33:831
0,000000	0,000000	0,000000	0,000000	2020-10-29T19:45:33:873
0,000000	0,000000	0,000000	0,000000	2020-10-29T19:45:33:911
0,000000	0,000000	0,000000	0,000000	2020-10-29T19:45:33:952
0,000000	0,000000	0,000000	0,000000	2020-10-29T19:45:33:991
0,000000	0,000000	0,000000	0,000000	2020-10-29T19:45:34:032
0,000000	0,000000	0,000000	0,000000	2020-10-29T19:45:34:071
0,000000	0,000000	0,000000	0,000000	2020-10-29T19:45:34:112
0,000000	0,000000	0,000000	0,000000	2020-10-29T19:45:34:151
0,000000	0,000000	0,000000	0,000000	2020-10-29T19:45:34:192
0,000000	0,000000	0,000000	0,000000	2020-10-29T19:45:34:232
0,000000	0,000000	0,000000	0,000000	2020-10-29T19:45:34:272
0,000000	0,000000	0,000000	0,000000	2020-10-29T19:45:34:311
0,000000	0,000000	0,000000	0,000000	2020-10-29T19:45:34:399
0,000000	0,000000	0,000000	0,000000	2020-10-29T19:45:34:413
0,000000	0,000000	0,000000	0,000000	2020-10-29T19:45:34:433
0,000000	0,000000	0,000000	0,000000	2020-10-29T19:45:34:471
0,000000	0,000000	0,000000	0,000000	2020-10-29T19:45:34:513
0,000000	0,000000	0,000000	0,000000	2020-10-29T19:45:34:551
0,000000	0,000000	0,000000	0,000000	2020-10-29T19:45:34:593
0,000000	0,000000	0,000000	0,000000	2020-10-29T19:45:34:632
0,000000	0,000000	0,000000	0,000000	2020-10-29T19:45:34:672
0,000000	0,000000	0,000000	0,000000	2020-10-29T19:45:34:712
0,000000	0,000000	0,000000	0,000000	2020-10-29T19:45:34:753
0,000000	0,000000	0,000000	0,000000	2020-10-29T19:45:34:792
0,000000	0,000000	0,000000	0,000000	2020-10-29T19:45:34:833
0,000000	0,000000	0,000000	0,000000	2020-10-29T19:45:34:872
0,000000	0,000000	0,000000	0,000000	2020-10-29T19:45:34:913
0,000000	0,000000	0,000000	0,000000	2020-10-29T19:45:34:952
0,000000	0,000000	0,000000	0,000000	2020-10-29T19:45:34:994
0,000000	0,000000	0,000000	0,000000	2020-10-29T19:45:35:032
0,000000	0,000000	0,000000	0,000000	2020-10-29T19:45:35:073
0,000000	0,000000	0,000000	0,000000	2020-10-29T19:45:35:112
0,000000	0,000000	0,000000	0,000000	2020-10-29T19:45:35:153
0,000000	0,000000	0,000000	0,000000	2020-10-29T19:45:35:193
0,000000	0,000000	0,000000	0,000000	2020-10-29T19:45:35:233
0,000000	0,000000	0,000000	0,000000	2020-10-29T19:45:35:272
0,000000	0,000000	0,000000	0,000000	2020-10-29T19:45:35:314
0,000000	0,000000	0,000000	0,000000	2020-10-29T19:45:35:353
0,000000	0,000000	0,000000	0,000000	2020-10-29T19:45:35:393
0,000000	0,000000	0,000000	0,000000	2020-10-29T19:45:35:433
0,000000	0,000000	0,000000	0,000000	2020-10-29T19:45:35:474
0,000000	0,000000	0,000000	0,000000	2020-10-29T19:45:35:513
0,000000	0,000000	0,000000	0,000000	2020-10-29T19:45:35:554
0,000000	0,000000	0,000000	0,000000	2020-10-29T19:45:35:593
0,000000	0,000000	0,000000	0,000000	2020-10-29T19:45:35:634
0,000000	0,000000	0,000000	0,000000	2020-10-29T19:45:35:673
0,000000	0,000000	0,000000	0,000000	2020-10-29T19:45:35:714
0,000000	0,000000	0,000000	0,000000	2020-10-29T19:45:35:753
0,000000	0,000000	0,000000	0,000000	2020-10-29T19:45:35:795
0,000000	0,000000	0,000000	0,000000	2020-10-29T19:45:35:834
0,000000	0,000000	0,000000	0,000000	2020-10-29T19:45:35:874
0,000000	0,000000	0,000000	0,000000	2020-10-29T19:45:35:913
0,000000	0,000000	0,000000	0,000000	2020-10-29T19:45:35:954
0,000000	0,000000	0,000000	0,000000	2020-10-29T19:45:35:994
0,000000	0,000000	0,000000	0,000000	2020-10-29T19:45:36:034
0,000000	0,000000	0,000000	0,000000	2020-10-29T19:45:36:073
0,000000	0,000000	0,000000	0,000000	2020-10-29T19:45:36:114
0,000000	0,000000	0,000000	0,000000	2020-10-29T19:45:36:153
0,000000	0,000000	0,000000	0,000000	2020-10-29T19:45:36:195
0,000000	0,000000	0,000000	0,000000	2020-10-29T19:45:36:233
0,000000	0,000000	0,000000	0,000000	2020-10-29T19:45:36:274
0,000000	0,000000	0,000000	0,000000	2020-10-29T19:45:36:314
0,000000	0,000000	0,000000	0,000000	2020-10-29T19:45:36:354
0,000000	0,000000	0,000000	0,000000	2020-10-29T19:45:36:394
0,000000	0,000000	0,000000	0,000000	2020-10-29T19:45:36:434
0,000000	0,000000	0,000000	0,000000	2020-10-29T19:45:36:473
0,000000	0,000000	0,000000	0,000000	2020-10-29T19:45:36:514
0,000000	0,000000	0,000000	0,000000	2020-10-29T19:45:36:554
0,000000	0,000000	0,000000	0,000000	2020-10-29T19:45:36:595
0,000000	0,000000	0,000000	0,000000	2020-10-29T19:45:36:634
0,000000	0,000000	0,000000	0,000000	2020-10-29T19:45:36:675
0,000000	0,000000	0,000000	0,000000	2020-10-29T19:45:36:714
0,000000	0,000000	0,000000	0,000000	2020-10-29T19:45:36:755
0,000000	0,000000	0,000000	0,000000	2020-10-29T19:45:36:794
0,000000	0,000000	0,000000	0,000000	2020-10-29T19:45:36:835
0,000000	0,000000	0,000000	0,000000	2020-10-29T19:45:36:874
0,000000	0,000000	0,000000	0,000000	2020-10-29T19:45:36:915
0,000000	0,000000	0,000000	0,000000	2020-10-29T19:45:36:954
0,000000	0,000000	0,000000	0,000000	2020-10-29T19:45:36:996
0,000000	0,000000	0,000000	0,000000	2020-10-29T19:45:37:034
0,000000	0,000000	0,000000	0,000000	2020-10-29T19:45:37:075
0,000000	0,000000	0,000000	0,000000	2020-10-29T19:45:37:114
0,000000	0,000000	0,000000	0,000000	2020-10-29T19:45:37:156
0,000000	0,000000	0,000000	0,000000	2020-10-29T19:45:37:194
0,000000	0,000000	0,000000	0,000000	2020-10-29T19:45:37:235
0,000000	0,000000	0,000000	0,000000	2020-10-29T19:45:37:275
0,000000	0,000000	0,000000	0,000000	2020-10-29T19:45:37:316
0,000000	0,000000	0,000000	0,000000	2020-10-29T19:45:37:356
0,000000	0,000000	0,000000	0,000000	2020-10-29T19:45:37:397
0,000000	0,000000	0,000000	0,000000	2020-10-29T19:45:37:435
0,000000	0,000000	0,000000	0,000000	2020-10-29T19:45:37:476
0,000000	0,000000	0,000000	0,000000	2020-10-29T19:45:37:515
0,000000	0,000000	0,000000	0,000000	2020-10-29T19:45:37:556
0,000000	0,000000	0,000000	0,000000	2020-10-29T19:45:37:596
0,000000	0,000000	0,000000	0,000000	2020-10-29T19:45:37:636
0,000000	0,000000	0,000000	0,000000	2020-10-29T19:45:37:675
0,000000	0,000000	0,000000	0,000000	2020-10-29T19:45:37:716
0,000000	0,000000	0,000000	0,000000	2020-10-29T19:45:37:755
0,000000	0,000000	0,000000	0,000000	2020-10-29T19:45:37:796
0,000000	0,000000	0,000000	0,000000	2020-10-29T19:45:37:835
0,000000	0,000000	0,000000	0,000000	2020-10-29T19:45:37:876
0,000000	0,000000	0,000000	0,000000	2020-10-29T19:45:37:915
0,000000	0,000000	0,000000	0,000000	2020-10-29T19:45:37:956
0,000000	0,000000	0,000000	0,000000	2020-10-29T19:45:37:996
0,000000	0,000000	0,000000	0,000000	2020-10-29T19:45:38:036
0,000000	0,000000	0,000000	0,000000	2020-10-29T19:45:38:076
0,000000	0,000000	0,000000	0,000000	2020-10-29T19:45:38:116
0,000000	0,000000	0,000000	0,000000	2020-10-29T19:45:38:155
0,000000	0,000000	0,000000	0,000000	2020-10-29T19:45:38:197
0,000000	0,000000	0,000000	0,000000	2020-10-29T19:45:38:236
0,000000	0,000000	0,000000	0,000000	2020-10-29T19:45:38:276
0,000000	0,000000	0,000000	0,000000	2020-10-29T19:45:38:316
0,000000	0,000000	0,000000	0,000000	2020-10-29T19:45:38:357
0,000000	0,000000	0,000000	0,000000	2020-10-29T19:45:38:396
0,000000	0,000000	0,000000	0,000000	2020-10-29T19:45:38:437
0,000000	0,000000	0,000000	0,000000	2020-10-29T19:45:38:476
0,000000	0,000000	0,000000	0,000000	2020-10-29T19:45:38:517
0,000000	0,000000	0,000000	0,000000	2020-10-29T19:45:38:556
0,000000	0,000000	0,000000	0,000000	2020-10-29T19:45:38:597
0,000000	0,000000	0,000000	0,000000	2020-10-29T19:45:38:636
0,000000	0,000000	0,000000	0,000000	2020-10-29T19:45:38:677
0,000000	0,000000	0,000000	0,000000	2020-10-29T19:45:38:716
0,000000	0,000000	0,000000	0,000000	2020-10-29T19:45:38:759
0,000000	0,000000	0,000000	0,000000	2020-10-29T19:45:38:797
0,000000	0,000000	0,000000	0,000000	2020-10-29T19:45:38:837
0,000000	0,000000	0,000000	0,000000	2020-10-29T19:45:38:876
0,000000	0,000000	0,000000	0,000000	2020-10-29T19:45:38:917
0,000000	0,000000	0,000000	0,000000	2020-10-29T19:45:38:956
0,000000	0,000000	0,000000	0,000000	2020-10-29T19:45:38:997
0,000000	0,000000	0,000000	0,000000	2020-10-29T19:45:39:037
0,000000	0,000000	0,000000	0,000000	2020-10-29T19:45:39:077
0,000000	0,000000	0,000000	0,000000	2020-10-29T19:45:39:116
0,000000	0,000000	0,000000	0,000000	2020-10-29T19:45:39:157
0,000000	0,000000	0,000000	0,000000	2020-10-29T19:45:39:197
0,000000	0,000000	0,000000	0,000000	2020-10-29T19:45:39:238
0,000000	0,000000	0,000000	0,000000	2020-10-29T19:45:39:277
0,000000	0,000000	0,000000	0,000000	2020-10-29T19:45:39:318
0,000000	0,000000	0,000000	0,000000	2020-10-29T19:45:39:356
0,000000	0,000000	0,000000	0,000000	2020-10-29T19:45:39:398
0,000000	0,000000	0,000000	0,000000	2020-10-29T19:45:39:437
0,000000	0,000000	0,000000	0,000000	2020-10-29T19:45:39:477
0,000000	0,000000	0,000000	0,000000	2020-10-29T19:45:39:517
0,000000	0,000000	0,000000	0,000000	2020-10-29T19:45:39:558
0,000000	0,000000	0,000000	0,000000	2020-10-29T19:45:39:597
0,000000	0,000000	0,000000	0,000000	2020-10-29T19:45:39:638
0,000000	0,000000	0,000000	0,000000	2020-10-29T19:45:39:677
0,000000	0,000000	0,000000	0,000000	2020-10-29T19:45:39:717
0,000000	0,000000	0,000000	0,000000	2020-10-29T19:45:39:758
0,000000	0,000000	0,000000	0,000000	2020-10-29T19:45:39:798
0,000000	0,000000	0,000000	0,000000	2020-10-29T19:45:39:837
0,000000	0,000000	0,000000	0,000000	2020-10-29T19:45:39:878
0,000000	0,000000	0,000000	0,000000	2020-10-29T19:45:39:917
0,000000	0,000000	0,000000	0,000000	2020-10-29T19:45:39:958
0,000000	0,000000	0,000000	0,000000	2020-10-29T19:45:39:998
0,000000	0,000000	0,000000	0,000000	2020-10-29T19:45:40:038
0,000000	0,000000	0,000000	0,000000	2020-10-29T19:45:40:077
0,000000	0,000000	0,000000	0,000000	2020-10-29T19:45:40:118
0,000000	0,000000	0,000000	0,000000	2020-10-29T19:45:40:157
0,000000	0,000000	0,000000	0,000000	2020-10-29T19:45:40:199
0,000000	0,000000	0,000000	0,000000	2020-10-29T19:45:40:238
0,000000	0,000000	0,000000	0,000000	2020-10-29T19:45:40:278
0,000000	0,000000	0,000000	0,000000	2020-10-29T19:45:40:318
0,000000	0,000000	0,000000	0,000000	2020-10-29T19:45:40:358
0,000000	0,000000	0,000000	0,000000	2020-10-29T19:45:40:398
0,000000	0,000000	0,000000	0,000000	2020-10-29T19:45:40:438
0,000000	0,000000	0,000000	0,000000	2020-10-29T19:45:40:478
0,000000	0,000000	0,000000	0,000000	2020-10-29T19:45:40:519
0,000000	0,000000	0,000000	0,000000	2020-10-29T19:45:40:558
0,000000	0,000000	0,000000	0,000000	2020-10-29T19:45:40:599
0,000000	0,000000	0,000000	0,000000	2020-10-29T19:45:40:638
0,000000	0,000000	0,000000	0,000000	2020-10-29T19:45:40:679
0,000000	0,000000	0,000000	0,000000	2020-10-29T19:45:40:718
0,000000	0,000000	0,000000	0,000000	2020-10-29T19:45:40:759
0,000000	0,000000	0,000000	0,000000	2020-10-29T19:45:40:798
0,000000	0,000000	0,000000	0,000000	2020-10-29T19:45:40:840
0,000000	0,000000	0,000000	0,000000	2020-10-29T19:45:40:878
0,000000	0,000000	0,000000	0,000000	2020-10-29T19:45:40:920
0,000000	0,000000	0,000000	0,000000	2020-10-29T19:45:40:958
0,000000	0,000000	0,000000	0,000000	2020-10-29T19:45:40:999
0,000000	0,000000	0,000000	0,000000	2020-10-29T19:45:41:038
0,000000	0,000000	0,000000	0,000000	2020-10-29T19:45:41:079
0,000000	0,000000	0,000000	0,000000	2020-10-29T19:45:41:118
0,000000	0,000000	0,000000	0,000000	2020-10-29T19:45:41:158
0,000000	0,000000	0,000000	0,000000	2020-10-29T19:45:41:198
0,000000	0,000000	0,000000	0,000000	2020-10-29T19:45:41:239
0,000000	0,000000	0,000000	0,000000	2020-10-29T19:45:41:278
0,000000	0,000000	0,000000	0,000000	2020-10-29T19:45:41:320
0,000000	0,000000	0,000000	0,000000	2020-10-29T19:45:41:358
0,000000	0,000000	0,000000	0,000000	2020-10-29T19:45:41:399
0,000000	0,000000	0,000000	0,000000	2020-10-29T19:45:41:439
0,000000	0,000000	0,000000	0,000000	2020-10-29T19:45:41:479
0,000000	0,000000	0,000000	0,000000	2020-10-29T19:45:41:518
0,000000	0,000000	0,000000	0,000000	2020-10-29T19:45:41:559
0,000000	0,000000	0,000000	0,000000	2020-10-29T19:45:41:599
0,000000	0,000000	0,000000	0,000000	2020-10-29T19:45:41:639
0,000000	0,000000	0,000000	0,000000	2020-10-29T19:45:41:679
0,000000	0,000000	0,000000	0,000000	2020-10-29T19:45:41:719
0,000000	0,000000	0,000000	0,000000	2020-10-29T19:45:41:758
0,000000	0,000000	0,000000	0,000000	2020-10-29T19:45:41:800
0,000000	0,000000	0,000000	0,000000	2020-10-29T19:45:41:839
0,000000	0,000000	0,000000	0,000000	2020-10-29T19:45:41:879
0,000000	0,000000	0,000000	0,000000	2020-10-29T19:45:41:919
0,000000	0,000000	0,000000	0,000000	2020-10-29T19:45:41:959
0,000000	0,000000	0,000000	0,000000	2020-10-29T19:45:42:000
0,000000	0,000000	0,000000	0,000000	2020-10-29T19:45:42:040
0,000000	0,000000	0,000000	0,000000	2020-10-29T19:45:42:079
0,000000	0,000000	0,000000	0,000000	2020-10-29T19:45:42:411
0,000000	0,000000	0,000000	0,000000	2020-10-29T19:45:42:411
0,000000	0,000000	0,000000	0,000000	2020-10-29T19:45:42:419
0,000000	0,000000	0,000000	0,000000	2020-10-29T19:45:42:419
0,000000	0,000000	0,000000	0,000000	2020-10-29T19:45:42:420
0,000000	0,000000	0,000000	0,000000	2020-10-29T19:45:42:420
0,000000	0,000000	0,000000	0,000000	2020-10-29T19:45:42:421
0,000000	0,000000	0,000000	0,000000	2020-10-29T19:45:42:422
0,000000	0,000000	0,000000	0,000000	2020-10-29T19:45:42:441
0,000000	0,000000	0,000000	0,000000	2020-10-29T19:45:42:477
0,000000	0,000000	0,000000	0,000000	2020-10-29T19:45:42:519
0,000000	0,000000	0,000000	0,000000	2020-10-29T19:45:42:557
0,000000	0,000000	0,000000	0,000000	2020-10-29T19:45:42:598
0,000000	0,000000	0,000000	0,000000	2020-10-29T19:45:42:640
0,000000	0,000000	0,000000	0,000000	2020-10-29T19:45:42:680
0,000000	0,000000	0,000000	0,000000	2020-10-29T19:45:42:719
0,000000	0,000000	0,000000	0,000000	2020-10-29T19:45:42:760
0,000000	0,000000	0,000000	0,000000	2020-10-29T19:45:42:800
0,000000	0,000000	0,000000	0,000000	2020-10-29T19:45:42:841
0,000000	0,000000	0,000000	0,000000	2020-10-29T19:45:42:880
0,000000	0,000000	0,000000	0,000000	2020-10-29T19:45:42:921
0,000000	0,000000	0,000000	0,000000	2020-10-29T19:45:42:960
0,000000	0,000000	0,000000	0,000000	2020-10-29T19:45:43:001
0,000000	0,000000	0,000000	0,000000	2020-10-29T19:45:43:042
0,000000	0,000000	0,000000	0,000000	2020-10-29T19:45:43:080
0,000000	0,000000	0,000000	0,000000	2020-10-29T19:45:43:132
0,000000	0,000000	0,000000	0,000000	2020-10-29T19:45:43:160
0,000000	0,000000	0,000000	0,000000	2020-10-29T19:45:43:414
0,000000	0,000000	0,000000	0,000000	2020-10-29T19:45:43:431
0,000000	0,000000	0,000000	0,000000	2020-10-29T19:45:43:431
0,000000	0,000000	0,000000	0,000000	2020-10-29T19:45:43:432
0,000000	0,000000	0,000000	0,000000	2020-10-29T19:45:43:433
0,000000	0,000000	0,000000	0,000000	2020-10-29T19:45:43:442
0,000000	0,000000	0,000000	0,000000	2020-10-29T19:45:43:445
0,000000	0,000000	0,000000	0,000000	2020-10-29T19:45:43:480
0,000000	0,000000	0,000000	0,000000	2020-10-29T19:45:43:519
0,000000	0,000000	0,000000	0,000000	2020-10-29T19:45:43:560
0,000000	0,000000	0,000000	0,000000	2020-10-29T19:45:43:600
0,000000	0,000000	0,000000	0,000000	2020-10-29T19:45:43:641
0,000000	0,000000	0,000000	0,000000	2020-10-29T19:45:43:680
0,000000	0,000000	0,000000	0,000000	2020-10-29T19:45:43:721
0,000000	0,000000	0,000000	0,000000	2020-10-29T19:45:43:760
0,000000	0,000000	0,000000	0,000000	2020-10-29T19:45:43:808
0,000000	0,000000	0,000000	0,000000	2020-10-29T19:45:43:884
0,000000	0,000000	0,000000	0,000000	2020-10-29T19:45:43:886
0,000000	0,000000	0,000000	0,000000	2020-10-29T19:45:43:920
0,000000	0,000000	0,000000	0,000000	2020-10-29T19:45:43:964
0,000000	0,000000	0,000000	0,000000	2020-10-29T19:45:44:000
0,000000	0,000000	0,000000	0,000000	2020-10-29T19:45:44:042
0,000000	0,000000	0,000000	0,000000	2020-10-29T19:45:44:081
0,000000	0,000000	0,000000	0,000000	2020-10-29T19:45:44:122
0,000000	0,000000	0,000000	0,000000	2020-10-29T19:45:44:161
0,000000	0,000000	0,000000	0,000000	2020-10-29T19:45:44:202
0,000000	0,000000	0,000000	0,000000	2020-10-29T19:45:44:241
0,000000	0,000000	0,000000	0,000000	2020-10-29T19:45:44:281
0,000000	0,000000	0,000000	0,000000	2020-10-29T19:45:44:321
0,000000	0,000000	0,000000	0,000000	2020-10-29T19:45:44:362
0,000000	0,000000	0,000000	0,000000	2020-10-29T19:45:44:402
0,000000	0,000000	0,000000	0,000000	2020-10-29T19:45:44:446
0,000000	0,000000	0,000000	0,000000	2020-10-29T19:45:44:489
0,000000	0,000000	0,000000	0,000000	2020-10-29T19:45:44:524
0,000000	0,000000	0,000000	0,000000	2020-10-29T19:45:44:561
0,000000	0,000000	0,000000	0,000000	2020-10-29T19:45:44:603
0,000000	0,000000	0,000000	0,000000	2020-10-29T19:45:44:642
0,000000	0,000000	0,000000	0,000000	2020-10-29T19:45:44:682
0,000000	0,000000	0,000000	0,000000	2020-10-29T19:45:44:722
0,000000	0,000000	0,000000	0,000000	2020-10-29T19:45:44:762
0,000000	0,000000	0,000000	0,000000	2020-10-29T19:45:44:802
0,000000	0,000000	0,000000	0,000000	2020-10-29T19:45:44:843
0,000000	0,000000	0,000000	0,000000	2020-10-29T19:45:44:881
0,000000	0,000000	0,000000	0,000000	2020-10-29T19:45:44:922
0,000000	0,000000	0,000000	0,000000	2020-10-29T19:45:44:962
0,000000	0,000000	0,000000	0,000000	2020-10-29T19:45:45:003
0,000000	0,000000	0,000000	0,000000	2020-10-29T19:45:45:043
0,000000	0,000000	0,000000	0,000000	2020-10-29T19:45:45:083
0,000000	0,000000	0,000000	0,000000	2020-10-29T19:45:45:122
0,000000	0,000000	0,000000	0,000000	2020-10-29T19:45:45:163
0,000000	0,000000	0,000000	0,000000	2020-10-29T19:45:45:202
0,000000	0,000000	0,000000	0,000000	2020-10-29T19:45:45:243
0,000000	0,000000	0,000000	0,000000	2020-10-29T19:45:45:282
0,000000	0,000000	0,000000	0,000000	2020-10-29T19:45:45:324
0,000000	0,000000	0,000000	0,000000	2020-10-29T19:45:45:362
0,000000	0,000000	0,000000	0,000000	2020-10-29T19:45:45:403
0,000000	0,000000	0,000000	0,000000	2020-10-29T19:45:45:442
0,000000	0,000000	0,000000	0,000000	2020-10-29T19:45:45:528
0,000000	0,000000	0,000000	0,000000	2020-10-29T19:45:45:529
0,000000	0,000000	0,000000	0,000000	2020-10-29T19:45:45:564
0,000000	0,000000	0,000000	0,000000	2020-10-29T19:45:45:606
0,000000	0,000000	0,000000	0,000000	2020-10-29T19:45:45:642
0,000000	0,000000	0,000000	0,000000	2020-10-29T19:45:45:682
0,000000	0,000000	0,000000	0,000000	2020-10-29T19:45:45:723
0,000000	0,000000	0,000000	0,000000	2020-10-29T19:45:45:762
0,000000	0,000000	0,000000	0,000000	2020-10-29T19:45:45:804
0,000000	0,000000	0,000000	0,000000	2020-10-29T19:45:45:842
0,000000	0,000000	0,000000	0,000000	2020-10-29T19:45:45:886
0,000000	0,000000	0,000000	0,000000	2020-10-29T19:45:45:930
-10,000000	0,000000	701,000000	0,000000	2020-10-29T19:46:04:225
-10,000000	0,000000	701,000000	0,000000	2020-10-29T19:46:04:226
-10,000000	0,000000	701,000000	0,000000	2020-10-29T19:46:04:227
-10,000000	0,000000	701,000000	0,000000	2020-10-29T19:46:04:227
-10,000000	0,000000	701,000000	0,000000	2020-10-29T19:46:04:239
-10,000000	0,000000	701,000000	0,000000	2020-10-29T19:46:04:260
-10,000000	0,000000	701,000000	0,000000	2020-10-29T19:46:04:304
-10,000000	0,000000	701,000000	0,000000	2020-10-29T19:46:04:403
-10,000000	0,000000	701,000000	0,000000	2020-10-29T19:46:04:405
-10,000000	0,000000	701,000000	0,000000	2020-10-29T19:46:04:420
-10,000000	0,000000	701,000000	0,000000	2020-10-29T19:46:04:459
-10,000000	0,000000	701,000000	0,000000	2020-10-29T19:46:04:498
-10,000000	0,000000	701,000000	0,000000	2020-10-29T19:46:04:541
-10,000000	0,000000	701,000000	0,000000	2020-10-29T19:46:04:580
-10,000000	0,000000	701,000000	0,000000	2020-10-29T19:46:04:621
-10,000000	0,000000	701,000000	0,000000	2020-10-29T19:46:04:660
-10,000000	0,000000	701,000000	0,000000	2020-10-29T19:46:04:701
-10,000000	0,000000	701,000000	0,000000	2020-10-29T19:46:04:745
94,000000	0,000000	701,000000	0,000000	2020-10-29T19:46:04:781
94,000000	0,000000	701,000000	0,000000	2020-10-29T19:46:04:820
94,000000	0,000000	701,000000	0,000000	2020-10-29T19:46:04:862
94,000000	0,000000	701,000000	0,000000	2020-10-29T19:46:04:901
94,000000	0,000000	701,000000	0,000000	2020-10-29T19:46:04:941
94,000000	0,000000	701,000000	0,000000	2020-10-29T19:46:04:980
94,000000	0,000000	701,000000	0,000000	2020-10-29T19:46:05:023
93,000000	0,000000	619,000000	0,000000	2020-10-29T19:46:38:159
93,000000	0,000000	619,000000	0,000000	2020-10-29T19:46:38:162
93,000000	0,000000	619,000000	0,000000	2020-10-29T19:46:38:178
93,000000	0,000000	619,000000	0,000000	2020-10-29T19:46:38:207
93,000000	0,000000	619,000000	0,000000	2020-10-29T19:46:38:233
93,000000	0,000000	619,000000	0,000000	2020-10-29T19:46:38:272
93,000000	0,000000	619,000000	0,000000	2020-10-29T19:46:38:311
93,000000	0,000000	619,000000	0,000000	2020-10-29T19:46:38:350
93,000000	0,000000	619,000000	0,000000	2020-10-29T19:46:38:392
93,000000	0,000000	619,000000	0,000000	2020-10-29T19:46:38:431
93,000000	0,000000	619,000000	0,000000	2020-10-29T19:46:38:472
93,000000	0,000000	619,000000	0,000000	2020-10-29T19:46:38:511
93,000000	0,000000	619,000000	0,000000	2020-10-29T19:46:38:551
93,000000	0,000000	619,000000	0,000000	2020-10-29T19:46:38:592
93,000000	0,000000	619,000000	0,000000	2020-10-29T19:46:38:633
93,000000	0,000000	619,000000	0,000000	2020-10-29T19:46:38:672
93,000000	0,000000	619,000000	0,000000	2020-10-29T19:46:38:713
93,000000	0,000000	619,000000	0,000000	2020-10-29T19:46:38:752
93,000000	0,000000	619,000000	0,000000	2020-10-29T19:46:38:793
93,000000	0,000000	619,000000	0,000000	2020-10-29T19:46:38:832
93,000000	0,000000	619,000000	0,000000	2020-10-29T19:46:38:873
93,000000	0,000000	619,000000	0,000000	2020-10-29T19:46:38:912
93,000000	0,000000	619,000000	0,000000	2020-10-29T19:46:38:953
93,000000	0,000000	619,000000	0,000000	2020-10-29T19:46:38:992
93,000000	0,000000	619,000000	0,000000	2020-10-29T19:46:39:032
93,000000	0,000000	619,000000	0,000000	2020-10-29T19:46:39:072
93,000000	0,000000	619,000000	0,000000	2020-10-29T19:46:39:112
93,000000	0,000000	619,000000	0,000000	2020-10-29T19:46:39:152
93,000000	0,000000	619,000000	0,000000	2020-10-29T19:46:39:195
93,000000	0,000000	619,000000	0,000000	2020-10-29T19:46:39:232
93,000000	0,000000	619,000000	0,000000	2020-10-29T19:46:39:272
93,000000	0,000000	619,000000	0,000000	2020-10-29T19:46:39:312
93,000000	0,000000	619,000000	0,000000	2020-10-29T19:46:39:353
93,000000	0,000000	619,000000	0,000000	2020-10-29T19:46:39:392
93,000000	0,000000	619,000000	0,000000	2020-10-29T19:46:39:433
93,000000	0,000000	619,000000	0,000000	2020-10-29T19:46:39:472
93,000000	0,000000	619,000000	0,000000	2020-10-29T19:46:39:512
93,000000	0,000000	619,000000	0,000000	2020-10-29T19:46:39:552
93,000000	0,000000	619,000000	0,000000	2020-10-29T19:46:39:593
93,000000	0,000000	619,000000	0,000000	2020-10-29T19:46:39:632
93,000000	0,000000	619,000000	0,000000	2020-10-29T19:46:39:673
93,000000	0,000000	619,000000	0,000000	2020-10-29T19:46:39:712
93,000000	0,000000	619,000000	0,000000	2020-10-29T19:46:39:753
93,000000	0,000000	619,000000	0,000000	2020-10-29T19:46:39:793
93,000000	0,000000	619,000000	0,000000	2020-10-29T19:46:39:833
93,000000	0,000000	619,000000	0,000000	2020-10-29T19:46:39:872
93,000000	0,000000	619,000000	0,000000	2020-10-29T19:46:39:913
93,000000	0,000000	619,000000	0,000000	2020-10-29T19:46:39:952
93,000000	0,000000	619,000000	0,000000	2020-10-29T19:46:39:994
93,000000	0,000000	619,000000	0,000000	2020-10-29T19:46:40:032
93,000000	0,000000	619,000000	0,000000	2020-10-29T19:46:40:073
93,000000	0,000000	619,000000	0,000000	2020-10-29T19:46:40:112
93,000000	0,000000	619,000000	0,000000	2020-10-29T19:46:40:154
93,000000	0,000000	619,000000	0,000000	2020-10-29T19:46:40:193
93,000000	0,000000	619,000000	0,000000	2020-10-29T19:46:40:233
93,000000	0,000000	619,000000	0,000000	2020-10-29T19:46:40:273
93,000000	0,000000	619,000000	0,000000	2020-10-29T19:46:40:314
93,000000	0,000000	619,000000	0,000000	2020-10-29T19:46:40:353
93,000000	0,000000	619,000000	0,000000	2020-10-29T19:46:40:394
93,000000	0,000000	619,000000	0,000000	2020-10-29T19:46:40:433
93,000000	0,000000	619,000000	0,000000	2020-10-29T19:46:40:474
93,000000	0,000000	619,000000	0,000000	2020-10-29T19:46:40:513
93,000000	0,000000	619,000000	0,000000	2020-10-29T19:46:40:554
93,000000	0,000000	619,000000	0,000000	2020-10-29T19:46:40:594
93,000000	0,000000	619,000000	0,000000	2020-10-29T19:46:40:635
93,000000	0,000000	619,000000	0,000000	2020-10-29T19:46:40:673
93,000000	0,000000	619,000000	0,000000	2020-10-29T19:46:40:714
93,000000	0,000000	619,000000	0,000000	2020-10-29T19:46:40:753
93,000000	0,000000	619,000000	0,000000	2020-10-29T19:46:40:795
93,000000	0,000000	619,000000	0,000000	2020-10-29T19:46:40:833
93,000000	0,000000	619,000000	0,000000	2020-10-29T19:46:40:874
93,000000	0,000000	619,000000	0,000000	2020-10-29T19:46:40:913
93,000000	0,000000	619,000000	0,000000	2020-10-29T19:46:40:955
93,000000	0,000000	619,000000	0,000000	2020-10-29T19:46:40:994
93,000000	0,000000	619,000000	0,000000	2020-10-29T19:46:41:034
93,000000	0,000000	619,000000	0,000000	2020-10-29T19:46:41:073
93,000000	0,000000	619,000000	0,000000	2020-10-29T19:46:41:114
93,000000	0,000000	619,000000	0,000000	2020-10-29T19:46:41:154
93,000000	0,000000	619,000000	0,000000	2020-10-29T19:46:41:195
93,000000	0,000000	619,000000	0,000000	2020-10-29T19:46:41:234
93,000000	0,000000	619,000000	0,000000	2020-10-29T19:46:41:275
93,000000	0,000000	619,000000	0,000000	2020-10-29T19:46:41:314
93,000000	0,000000	619,000000	0,000000	2020-10-29T19:46:41:354
93,000000	0,000000	619,000000	0,000000	2020-10-29T19:46:41:395
93,000000	0,000000	619,000000	0,000000	2020-10-29T19:46:41:435
93,000000	0,000000	619,000000	0,000000	2020-10-29T19:46:41:474
93,000000	0,000000	619,000000	0,000000	2020-10-29T19:46:41:515
93,000000	0,000000	619,000000	0,000000	2020-10-29T19:46:41:554
93,000000	0,000000	697,000000	0,000000	2020-10-29T19:46:41:596
93,000000	0,000000	697,000000	0,000000	2020-10-29T19:46:41:634
93,000000	0,000000	697,000000	0,000000	2020-10-29T19:46:41:675
93,000000	0,000000	697,000000	0,000000	2020-10-29T19:46:41:714
93,000000	0,000000	697,000000	0,000000	2020-10-29T19:46:41:756
93,000000	0,000000	697,000000	0,000000	2020-10-29T19:46:41:795
93,000000	0,000000	697,000000	0,000000	2020-10-29T19:46:41:835
93,000000	0,000000	697,000000	0,000000	2020-10-29T19:46:41:874
93,000000	0,000000	697,000000	0,000000	2020-10-29T19:46:41:915
93,000000	0,000000	697,000000	0,000000	2020-10-29T19:46:41:954
93,000000	0,000000	697,000000	0,000000	2020-10-29T19:46:41:996
93,000000	0,000000	697,000000	0,000000	2020-10-29T19:46:42:034
93,000000	0,000000	697,000000	0,000000	2020-10-29T19:46:42:075
93,000000	0,000000	697,000000	0,000000	2020-10-29T19:46:42:114
93,000000	0,000000	697,000000	0,000000	2020-10-29T19:46:42:155
93,000000	0,000000	690,000000	0,000000	2020-10-29T19:46:42:195
93,000000	0,000000	690,000000	0,000000	2020-10-29T19:46:42:235
93,000000	0,000000	690,000000	0,000000	2020-10-29T19:46:42:274
93,000000	0,000000	690,000000	0,000000	2020-10-29T19:46:42:316
92,000000	0,000000	690,000000	0,000000	2020-10-29T19:46:42:355
93,000000	0,000000	690,000000	0,000000	2020-10-29T19:46:42:397
93,000000	0,000000	690,000000	0,000000	2020-10-29T19:46:42:434
93,000000	0,000000	690,000000	0,000000	2020-10-29T19:46:42:476
93,000000	0,000000	690,000000	0,000000	2020-10-29T19:46:42:515
93,000000	0,000000	690,000000	0,000000	2020-10-29T19:46:42:558
93,000000	0,000000	690,000000	0,000000	2020-10-29T19:46:42:595
93,000000	0,000000	690,000000	0,000000	2020-10-29T19:46:42:636
92,000000	0,000000	690,000000	0,000000	2020-10-29T19:46:42:675
92,000000	0,000000	690,000000	0,000000	2020-10-29T19:46:42:716
92,000000	0,000000	690,000000	0,000000	2020-10-29T19:46:42:755
92,000000	0,000000	690,000000	0,000000	2020-10-29T19:46:42:796
92,000000	0,000000	690,000000	0,000000	2020-10-29T19:46:42:835
92,000000	0,000000	690,000000	0,000000	2020-10-29T19:46:42:876
92,000000	0,000000	690,000000	0,000000	2020-10-29T19:46:42:915
92,000000	0,000000	690,000000	0,000000	2020-10-29T19:46:42:956
92,000000	0,000000	690,000000	0,000000	2020-10-29T19:46:42:996
93,000000	0,000000	690,000000	0,000000	2020-10-29T19:46:43:036
93,000000	0,000000	690,000000	0,000000	2020-10-29T19:46:43:076
92,000000	0,000000	690,000000	0,000000	2020-10-29T19:46:43:116
92,000000	0,000000	690,000000	0,000000	2020-10-29T19:46:43:158
93,000000	0,000000	690,000000	0,000000	2020-10-29T19:46:43:197
93,000000	0,000000	690,000000	0,000000	2020-10-29T19:46:43:235
92,000000	0,000000	690,000000	0,000000	2020-10-29T19:46:43:277
93,000000	0,000000	690,000000	0,000000	2020-10-29T19:46:43:316
93,000000	0,000000	690,000000	0,000000	2020-10-29T19:46:43:356
93,000000	0,000000	690,000000	0,000000	2020-10-29T19:46:43:396
93,000000	0,000000	690,000000	0,000000	2020-10-29T19:46:43:437
93,000000	0,000000	690,000000	0,000000	2020-10-29T19:46:43:475
93,000000	0,000000	690,000000	0,000000	2020-10-29T19:46:43:517
93,000000	0,000000	690,000000	0,000000	2020-10-29T19:46:43:556
93,000000	0,000000	690,000000	0,000000	2020-10-29T19:46:43:597
93,000000	0,000000	690,000000	0,000000	2020-10-29T19:46:43:636
93,000000	0,000000	690,000000	0,000000	2020-10-29T19:46:43:679
93,000000	0,000000	690,000000	0,000000	2020-10-29T19:46:43:716
93,000000	0,000000	690,000000	0,000000	2020-10-29T19:46:43:757
93,000000	0,000000	690,000000	0,000000	2020-10-29T19:46:43:797
93,000000	0,000000	690,000000	0,000000	2020-10-29T19:46:43:836
93,000000	0,000000	690,000000	0,000000	2020-10-29T19:46:43:876
93,000000	0,000000	690,000000	0,000000	2020-10-29T19:46:43:917
92,000000	0,000000	690,000000	0,000000	2020-10-29T19:46:43:956
92,000000	0,000000	690,000000	0,000000	2020-10-29T19:46:43:998
92,000000	0,000000	690,000000	0,000000	2020-10-29T19:46:44:036
93,000000	0,000000	690,000000	0,000000	2020-10-29T19:46:44:077
93,000000	0,000000	690,000000	0,000000	2020-10-29T19:46:44:116
92,000000	0,000000	690,000000	0,000000	2020-10-29T19:46:44:157
92,000000	0,000000	656,000000	0,000000	2020-10-29T19:46:44:197
92,000000	0,000000	656,000000	0,000000	2020-10-29T19:46:44:238
92,000000	0,000000	656,000000	0,000000	2020-10-29T19:46:44:277
92,000000	0,000000	656,000000	0,000000	2020-10-29T19:46:44:317
92,000000	0,000000	656,000000	0,000000	2020-10-29T19:46:44:358
92,000000	0,000000	656,000000	0,000000	2020-10-29T19:46:44:398
92,000000	0,000000	656,000000	0,000000	2020-10-29T19:46:44:436
92,000000	0,000000	656,000000	0,000000	2020-10-29T19:46:44:478
92,000000	0,000000	656,000000	0,000000	2020-10-29T19:46:44:517
92,000000	0,000000	656,000000	0,000000	2020-10-29T19:46:44:558
92,000000	0,000000	656,000000	0,000000	2020-10-29T19:46:44:597
92,000000	0,000000	656,000000	0,000000	2020-10-29T19:46:44:638
92,000000	0,000000	656,000000	0,000000	2020-10-29T19:46:44:677
92,000000	0,000000	656,000000	0,000000	2020-10-29T19:46:44:718
92,000000	0,000000	656,000000	0,000000	2020-10-29T19:46:44:757
92,000000	0,000000	656,000000	0,000000	2020-10-29T19:46:44:799
92,000000	0,000000	656,000000	0,000000	2020-10-29T19:46:44:837
92,000000	0,000000	656,000000	0,000000	2020-10-29T19:46:44:879
92,000000	0,000000	656,000000	0,000000	2020-10-29T19:46:44:919
92,000000	0,000000	656,000000	0,000000	2020-10-29T19:46:44:958
92,000000	0,000000	656,000000	0,000000	2020-10-29T19:46:44:998
92,000000	0,000000	656,000000	0,000000	2020-10-29T19:46:45:038
92,000000	0,000000	656,000000	0,000000	2020-10-29T19:46:45:077
92,000000	0,000000	656,000000	0,000000	2020-10-29T19:46:45:118
92,000000	0,000000	656,000000	0,000000	2020-10-29T19:46:45:157
92,000000	0,000000	656,000000	0,000000	2020-10-29T19:46:45:199
92,000000	0,000000	656,000000	0,000000	2020-10-29T19:46:45:238
92,000000	0,000000	656,000000	0,000000	2020-10-29T19:46:45:277
92,000000	0,000000	656,000000	0,000000	2020-10-29T19:46:45:318
92,000000	0,000000	656,000000	0,000000	2020-10-29T19:46:45:358
92,000000	0,000000	656,000000	0,000000	2020-10-29T19:46:45:398
92,000000	0,000000	656,000000	0,000000	2020-10-29T19:46:45:438
92,000000	0,000000	656,000000	0,000000	2020-10-29T19:46:45:478
92,000000	0,000000	656,000000	0,000000	2020-10-29T19:46:45:518
92,000000	0,000000	656,000000	0,000000	2020-10-29T19:46:45:558
92,000000	0,000000	656,000000	0,000000	2020-10-29T19:46:45:599
92,000000	0,000000	656,000000	0,000000	2020-10-29T19:46:45:638
92,000000	0,000000	656,000000	0,000000	2020-10-29T19:46:45:679
92,000000	0,000000	656,000000	0,000000	2020-10-29T19:46:45:718
92,000000	0,000000	656,000000	0,000000	2020-10-29T19:46:45:758
92,000000	0,000000	656,000000	0,000000	2020-10-29T19:46:45:799
92,000000	0,000000	656,000000	0,000000	2020-10-29T19:46:45:839
92,000000	0,000000	656,000000	0,000000	2020-10-29T19:46:45:878
92,000000	0,000000	656,000000	0,000000	2020-10-29T19:46:45:919
92,000000	0,000000	656,000000	0,000000	2020-10-29T19:46:45:958
92,000000	0,000000	590,000000	0,000000	2020-10-29T19:46:46:000
92,000000	0,000000	590,000000	0,000000	2020-10-29T19:46:46:038
92,000000	0,000000	590,000000	0,000000	2020-10-29T19:46:46:079
92,000000	0,000000	590,000000	0,000000	2020-10-29T19:46:46:118
92,000000	0,000000	590,000000	0,000000	2020-10-29T19:46:46:159
92,000000	0,000000	590,000000	0,000000	2020-10-29T19:46:46:199
92,000000	0,000000	590,000000	0,000000	2020-10-29T19:46:46:239
93,000000	0,000000	590,000000	0,000000	2020-10-29T19:46:46:279
93,000000	0,000000	590,000000	0,000000	2020-10-29T19:46:46:320
92,000000	0,000000	590,000000	0,000000	2020-10-29T19:46:46:358
92,000000	0,000000	590,000000	0,000000	2020-10-29T19:46:46:400
92,000000	0,000000	590,000000	0,000000	2020-10-29T19:46:46:439
93,000000	0,000000	590,000000	0,000000	2020-10-29T19:46:46:479
92,000000	0,000000	590,000000	0,000000	2020-10-29T19:46:46:519
93,000000	0,000000	590,000000	0,000000	2020-10-29T19:46:46:560
93,000000	0,000000	590,000000	0,000000	2020-10-29T19:46:46:599
93,000000	0,000000	590,000000	0,000000	2020-10-29T19:46:46:640
93,000000	0,000000	590,000000	0,000000	2020-10-29T19:46:46:683
93,000000	0,000000	590,000000	0,000000	2020-10-29T19:46:46:720
93,000000	0,000000	590,000000	0,000000	2020-10-29T19:46:46:759
93,000000	0,000000	590,000000	0,000000	2020-10-29T19:46:46:801
93,000000	0,000000	590,000000	0,000000	2020-10-29T19:46:46:839
93,000000	0,000000	590,000000	0,000000	2020-10-29T19:46:46:882
93,000000	0,000000	590,000000	0,000000	2020-10-29T19:46:46:919
93,000000	0,000000	590,000000	0,000000	2020-10-29T19:46:46:960
93,000000	0,000000	590,000000	0,000000	2020-10-29T19:46:47:000
93,000000	0,000000	590,000000	0,000000	2020-10-29T19:46:47:040
93,000000	0,000000	590,000000	0,000000	2020-10-29T19:46:47:079
93,000000	0,000000	590,000000	0,000000	2020-10-29T19:46:47:120
93,000000	0,000000	590,000000	0,000000	2020-10-29T19:46:47:159
93,000000	0,000000	590,000000	0,000000	2020-10-29T19:46:47:201
93,000000	0,000000	590,000000	0,000000	2020-10-29T19:46:47:239
93,000000	0,000000	590,000000	0,000000	2020-10-29T19:46:47:280
93,000000	0,000000	590,000000	0,000000	2020-10-29T19:46:47:319
93,000000	0,000000	590,000000	0,000000	2020-10-29T19:46:47:360
93,000000	0,000000	590,000000	0,000000	2020-10-29T19:46:47:400
93,000000	0,000000	590,000000	0,000000	2020-10-29T19:46:47:440
93,000000	0,000000	590,000000	0,000000	2020-10-29T19:46:47:480
93,000000	0,000000	590,000000	0,000000	2020-10-29T19:46:47:521
93,000000	0,000000	590,000000	0,000000	2020-10-29T19:46:47:561
93,000000	0,000000	590,000000	0,000000	2020-10-29T19:46:47:601
93,000000	0,000000	590,000000	0,000000	2020-10-29T19:46:47:640
93,000000	0,000000	590,000000	0,000000	2020-10-29T19:46:47:680
93,000000	0,000000	590,000000	0,000000	2020-10-29T19:46:47:720
93,000000	0,000000	590,000000	0,000000	2020-10-29T19:46:47:761
93,000000	0,000000	590,000000	0,000000	2020-10-29T19:46:47:800
93,000000	0,000000	590,000000	0,000000	2020-10-29T19:46:47:841
93,000000	0,000000	590,000000	0,000000	2020-10-29T19:46:47:886
93,000000	0,000000	590,000000	0,000000	2020-10-29T19:46:47:921
93,000000	0,000000	590,000000	0,000000	2020-10-29T19:46:47:960
93,000000	0,000000	651,000000	0,000000	2020-10-29T19:46:48:002
93,000000	0,000000	651,000000	0,000000	2020-10-29T19:46:48:040
93,000000	0,000000	651,000000	0,000000	2020-10-29T19:46:48:082
93,000000	0,000000	651,000000	0,000000	2020-10-29T19:46:48:120
93,000000	0,000000	651,000000	0,000000	2020-10-29T19:46:48:163
93,000000	0,000000	651,000000	0,000000	2020-10-29T19:46:48:201
93,000000	0,000000	651,000000	0,000000	2020-10-29T19:46:48:242
93,000000	0,000000	651,000000	0,000000	2020-10-29T19:46:48:280
93,000000	0,000000	651,000000	0,000000	2020-10-29T19:46:48:321
93,000000	0,000000	651,000000	0,000000	2020-10-29T19:46:48:361
93,000000	0,000000	651,000000	0,000000	2020-10-29T19:46:48:402
94,000000	0,000000	651,000000	0,000000	2020-10-29T19:46:48:441
93,000000	0,000000	651,000000	0,000000	2020-10-29T19:46:48:481
93,000000	0,000000	651,000000	0,000000	2020-10-29T19:46:48:521
93,000000	0,000000	651,000000	0,000000	2020-10-29T19:46:48:562
93,000000	0,000000	651,000000	0,000000	2020-10-29T19:46:48:601
93,000000	0,000000	651,000000	0,000000	2020-10-29T19:46:48:642
93,000000	0,000000	651,000000	0,000000	2020-10-29T19:46:48:681
93,000000	0,000000	651,000000	0,000000	2020-10-29T19:46:48:722
94,000000	0,000000	651,000000	0,000000	2020-10-29T19:46:48:761
94,000000	0,000000	651,000000	0,000000	2020-10-29T19:46:48:803
93,000000	0,000000	651,000000	0,000000	2020-10-29T19:46:48:841
93,000000	0,000000	651,000000	0,000000	2020-10-29T19:46:48:882
93,000000	0,000000	651,000000	0,000000	2020-10-29T19:46:48:921
93,000000	0,000000	651,000000	0,000000	2020-10-29T19:46:48:962
93,000000	0,000000	651,000000	0,000000	2020-10-29T19:46:49:002
93,000000	0,000000	651,000000	0,000000	2020-10-29T19:46:49:042
93,000000	0,000000	651,000000	0,000000	2020-10-29T19:46:49:081
93,000000	0,000000	651,000000	0,000000	2020-10-29T19:46:49:122
93,000000	0,000000	651,000000	0,000000	2020-10-29T19:46:49:162
93,000000	0,000000	651,000000	0,000000	2020-10-29T19:46:49:203
93,000000	0,000000	651,000000	0,000000	2020-10-29T19:46:49:241
93,000000	0,000000	651,000000	0,000000	2020-10-29T19:46:49:283
93,000000	0,000000	651,000000	0,000000	2020-10-29T19:46:49:322
93,000000	0,000000	651,000000	0,000000	2020-10-29T19:46:49:362
94,000000	0,000000	651,000000	0,000000	2020-10-29T19:46:49:402
94,000000	0,000000	651,000000	0,000000	2020-10-29T19:46:49:443
93,000000	0,000000	651,000000	0,000000	2020-10-29T19:46:49:482
94,000000	0,000000	651,000000	0,000000	2020-10-29T19:46:49:523
94,000000	0,000000	651,000000	0,000000	2020-10-29T19:46:49:562
94,000000	0,000000	651,000000	0,000000	2020-10-29T19:46:49:603
94,000000	0,000000	651,000000	0,000000	2020-10-29T19:46:49:642
94,000000	0,000000	651,000000	0,000000	2020-10-29T19:46:49:683
94,000000	0,000000	651,000000	0,000000	2020-10-29T19:46:49:722
94,000000	0,000000	651,000000	0,000000	2020-10-29T19:46:49:763
94,000000	0,000000	651,000000	0,000000	2020-10-29T19:46:49:803
94,000000	0,000000	651,000000	0,000000	2020-10-29T19:46:49:843
94,000000	0,000000	651,000000	0,000000	2020-10-29T19:46:49:882
94,000000	0,000000	651,000000	0,000000	2020-10-29T19:46:49:923
94,000000	0,000000	651,000000	0,000000	2020-10-29T19:46:49:962
94,000000	0,000000	651,000000	0,000000	2020-10-29T19:46:50:003
94,000000	0,000000	651,000000	0,000000	2020-10-29T19:46:50:042
94,000000	0,000000	651,000000	0,000000	2020-10-29T19:46:50:083
94,000000	0,000000	651,000000	0,000000	2020-10-29T19:46:50:122
94,000000	0,000000	651,000000	0,000000	2020-10-29T19:46:50:164
94,000000	0,000000	651,000000	0,000000	2020-10-29T19:46:50:203
94,000000	0,000000	651,000000	0,000000	2020-10-29T19:46:50:243
94,000000	0,000000	651,000000	0,000000	2020-10-29T19:46:50:283
94,000000	0,000000	651,000000	0,000000	2020-10-29T19:46:50:323
94,000000	0,000000	651,000000	0,000000	2020-10-29T19:46:50:362
94,000000	0,000000	651,000000	0,000000	2020-10-29T19:46:50:404
94,000000	0,000000	651,000000	0,000000	2020-10-29T19:46:50:442
94,000000	0,000000	651,000000	0,000000	2020-10-29T19:46:50:484
94,000000	0,000000	651,000000	0,000000	2020-10-29T19:46:50:523
94,000000	0,000000	651,000000	0,000000	2020-10-29T19:46:50:564
94,000000	0,000000	651,000000	0,000000	2020-10-29T19:46:50:603
94,000000	0,000000	651,000000	0,000000	2020-10-29T19:46:50:644
94,000000	0,000000	651,000000	0,000000	2020-10-29T19:46:50:683
94,000000	0,000000	651,000000	0,000000	2020-10-29T19:46:50:724
94,000000	0,000000	651,000000	0,000000	2020-10-29T19:46:50:763
94,000000	0,000000	651,000000	0,000000	2020-10-29T19:46:50:804
94,000000	0,000000	651,000000	0,000000	2020-10-29T19:46:50:843
94,000000	0,000000	651,000000	0,000000	2020-10-29T19:46:50:884
94,000000	0,000000	651,000000	0,000000	2020-10-29T19:46:50:923
94,000000	0,000000	651,000000	0,000000	2020-10-29T19:46:50:965
94,000000	0,000000	635,000000	0,000000	2020-10-29T19:46:51:004
94,000000	0,000000	635,000000	0,000000	2020-10-29T19:46:51:044
94,000000	0,000000	635,000000	0,000000	2020-10-29T19:46:51:083
94,000000	0,000000	635,000000	0,000000	2020-10-29T19:46:51:124
94,000000	0,000000	635,000000	0,000000	2020-10-29T19:46:51:164
94,000000	0,000000	635,000000	0,000000	2020-10-29T19:46:51:205
94,000000	0,000000	635,000000	0,000000	2020-10-29T19:46:51:244
94,000000	0,000000	635,000000	0,000000	2020-10-29T19:46:51:284
94,000000	0,000000	635,000000	0,000000	2020-10-29T19:46:51:324
94,000000	0,000000	635,000000	0,000000	2020-10-29T19:46:51:365
94,000000	0,000000	635,000000	0,000000	2020-10-29T19:46:51:404
94,000000	0,000000	635,000000	0,000000	2020-10-29T19:46:51:445
94,000000	0,000000	635,000000	0,000000	2020-10-29T19:46:51:484
94,000000	0,000000	635,000000	0,000000	2020-10-29T19:46:51:524
94,000000	0,000000	635,000000	0,000000	2020-10-29T19:46:51:564
94,000000	0,000000	635,000000	0,000000	2020-10-29T19:46:51:605
94,000000	0,000000	635,000000	0,000000	2020-10-29T19:46:51:643
94,000000	0,000000	635,000000	0,000000	2020-10-29T19:46:51:685
94,000000	0,000000	635,000000	0,000000	2020-10-29T19:46:51:724
94,000000	0,000000	635,000000	0,000000	2020-10-29T19:46:51:765
94,000000	0,000000	635,000000	0,000000	2020-10-29T19:46:51:804
94,000000	0,000000	635,000000	0,000000	2020-10-29T19:46:51:845
94,000000	0,000000	635,000000	0,000000	2020-10-29T19:46:51:884
94,000000	0,000000	635,000000	0,000000	2020-10-29T19:46:51:925
94,000000	0,000000	635,000000	0,000000	2020-10-29T19:46:51:964
94,000000	0,000000	635,000000	0,000000	2020-10-29T19:46:52:006
94,000000	0,000000	635,000000	0,000000	2020-10-29T19:46:52:045
94,000000	0,000000	635,000000	0,000000	2020-10-29T19:46:52:087
94,000000	0,000000	635,000000	0,000000	2020-10-29T19:46:52:125
94,000000	0,000000	635,000000	0,000000	2020-10-29T19:46:52:167
94,000000	0,000000	635,000000	0,000000	2020-10-29T19:46:52:206
94,000000	0,000000	635,000000	0,000000	2020-10-29T19:46:52:256
94,000000	0,000000	635,000000	0,000000	2020-10-29T19:46:52:319
94,000000	0,000000	635,000000	0,000000	2020-10-29T19:46:52:326
94,000000	0,000000	635,000000	0,000000	2020-10-29T19:46:52:363
94,000000	0,000000	635,000000	0,000000	2020-10-29T19:46:52:405
94,000000	0,000000	635,000000	0,000000	2020-10-29T19:46:52:443
94,000000	0,000000	635,000000	0,000000	2020-10-29T19:46:52:484
94,000000	0,000000	635,000000	0,000000	2020-10-29T19:46:52:523
94,000000	0,000000	635,000000	0,000000	2020-10-29T19:46:52:564
94,000000	0,000000	635,000000	0,000000	2020-10-29T19:46:52:604
94,000000	0,000000	635,000000	0,000000	2020-10-29T19:46:52:644
94,000000	0,000000	635,000000	0,000000	2020-10-29T19:46:52:683
94,000000	0,000000	635,000000	0,000000	2020-10-29T19:46:52:724
94,000000	0,000000	635,000000	0,000000	2020-10-29T19:46:52:763
94,000000	0,000000	635,000000	0,000000	2020-10-29T19:46:52:806
94,000000	0,000000	635,000000	0,000000	2020-10-29T19:46:52:843
94,000000	0,000000	635,000000	0,000000	2020-10-29T19:46:52:886
94,000000	0,000000	635,000000	0,000000	2020-10-29T19:46:52:932
94,000000	0,000000	635,000000	0,000000	2020-10-29T19:46:52:963
94,000000	0,000000	635,000000	0,000000	2020-10-29T19:46:53:006
94,000000	0,000000	635,000000	0,000000	2020-10-29T19:46:53:063
94,000000	0,000000	635,000000	0,000000	2020-10-29T19:46:53:083
94,000000	0,000000	635,000000	0,000000	2020-10-29T19:46:53:124
94,000000	0,000000	635,000000	0,000000	2020-10-29T19:46:53:163
94,000000	0,000000	635,000000	0,000000	2020-10-29T19:46:53:204
94,000000	0,000000	635,000000	0,000000	2020-10-29T19:46:53:244
94,000000	0,000000	635,000000	0,000000	2020-10-29T19:46:53:286
94,000000	0,000000	635,000000	0,000000	2020-10-29T19:46:53:327
94,000000	0,000000	635,000000	0,000000	2020-10-29T19:46:53:365
94,000000	0,000000	635,000000	0,000000	2020-10-29T19:46:53:405
94,000000	0,000000	635,000000	0,000000	2020-10-29T19:46:53:445
93,000000	0,000000	635,000000	0,000000	2020-10-29T19:46:53:483
93,000000	0,000000	635,000000	0,000000	2020-10-29T19:46:53:525
93,000000	0,000000	635,000000	0,000000	2020-10-29T19:46:53:564
93,000000	0,000000	635,000000	0,000000	2020-10-29T19:46:53:606
93,000000	0,000000	635,000000	0,000000	2020-10-29T19:46:53:644
93,000000	0,000000	635,000000	0,000000	2020-10-29T19:46:53:685
93,000000	0,000000	635,000000	0,000000	2020-10-29T19:46:53:724
93,000000	0,000000	635,000000	0,000000	2020-10-29T19:46:53:765
93,000000	0,000000	635,000000	0,000000	2020-10-29T19:46:53:806
93,000000	0,000000	635,000000	0,000000	2020-10-29T19:46:53:847
93,000000	0,000000	635,000000	0,000000	2020-10-29T19:46:53:886
93,000000	0,000000	635,000000	0,000000	2020-10-29T19:46:53:927
93,000000	0,000000	635,000000	0,000000	2020-10-29T19:46:53:967
93,000000	0,000000	635,000000	0,000000	2020-10-29T19:46:54:008
93,000000	0,000000	635,000000	0,000000	2020-10-29T19:46:54:046
93,000000	0,000000	635,000000	0,000000	2020-10-29T19:46:54:087
93,000000	0,000000	635,000000	0,000000	2020-10-29T19:46:54:126
93,000000	0,000000	635,000000	0,000000	2020-10-29T19:46:54:167
93,000000	0,000000	635,000000	0,000000	2020-10-29T19:46:54:207
93,000000	0,000000	635,000000	0,000000	2020-10-29T19:46:54:247
93,000000	0,000000	635,000000	0,000000	2020-10-29T19:46:54:286
93,000000	0,000000	635,000000	0,000000	2020-10-29T19:46:54:327
93,000000	0,000000	635,000000	0,000000	2020-10-29T19:46:54:366
93,000000	0,000000	656,000000	0,000000	2020-10-29T19:46:54:408
93,000000	0,000000	656,000000	0,000000	2020-10-29T19:46:54:447
93,000000	0,000000	656,000000	0,000000	2020-10-29T19:46:54:488
93,000000	0,000000	656,000000	0,000000	2020-10-29T19:46:54:527
93,000000	0,000000	656,000000	0,000000	2020-10-29T19:46:54:569
93,000000	0,000000	656,000000	0,000000	2020-10-29T19:46:54:608
93,000000	0,000000	656,000000	0,000000	2020-10-29T19:46:54:648
93,000000	0,000000	656,000000	0,000000	2020-10-29T19:46:54:687
93,000000	0,000000	656,000000	0,000000	2020-10-29T19:46:54:728
93,000000	0,000000	656,000000	0,000000	2020-10-29T19:46:54:767
93,000000	0,000000	656,000000	0,000000	2020-10-29T19:46:54:809
93,000000	0,000000	656,000000	0,000000	2020-10-29T19:46:54:847
93,000000	0,000000	656,000000	0,000000	2020-10-29T19:46:54:888
93,000000	0,000000	656,000000	0,000000	2020-10-29T19:46:54:929
93,000000	0,000000	656,000000	0,000000	2020-10-29T19:46:54:968
93,000000	0,000000	656,000000	0,000000	2020-10-29T19:46:55:008
93,000000	0,000000	656,000000	0,000000	2020-10-29T19:46:55:048
93,000000	0,000000	656,000000	0,000000	2020-10-29T19:46:55:087
93,000000	0,000000	656,000000	0,000000	2020-10-29T19:46:55:128
93,000000	0,000000	656,000000	0,000000	2020-10-29T19:46:55:167
93,000000	0,000000	656,000000	0,000000	2020-10-29T19:46:55:209
93,000000	0,000000	656,000000	0,000000	2020-10-29T19:46:55:247
93,000000	0,000000	656,000000	0,000000	2020-10-29T19:46:55:288
93,000000	0,000000	656,000000	0,000000	2020-10-29T19:46:55:328
93,000000	0,000000	656,000000	0,000000	2020-10-29T19:46:55:368
93,000000	0,000000	656,000000	0,000000	2020-10-29T19:46:55:410
93,000000	0,000000	656,000000	0,000000	2020-10-29T19:46:55:449
93,000000	0,000000	656,000000	0,000000	2020-10-29T19:46:55:488
93,000000	0,000000	656,000000	0,000000	2020-10-29T19:46:55:528
93,000000	0,000000	656,000000	0,000000	2020-10-29T19:46:55:569
93,000000	0,000000	656,000000	0,000000	2020-10-29T19:46:55:610
93,000000	0,000000	656,000000	0,000000	2020-10-29T19:46:55:649
93,000000	0,000000	656,000000	0,000000	2020-10-29T19:46:55:690
93,000000	0,000000	656,000000	0,000000	2020-10-29T19:46:55:729
93,000000	0,000000	656,000000	0,000000	2020-10-29T19:46:55:770
93,000000	0,000000	656,000000	0,000000	2020-10-29T19:46:55:809
93,000000	0,000000	656,000000	0,000000	2020-10-29T19:46:55:849
93,000000	0,000000	656,000000	0,000000	2020-10-29T19:46:55:889
93,000000	0,000000	656,000000	0,000000	2020-10-29T19:46:55:929
93,000000	0,000000	656,000000	0,000000	2020-10-29T19:46:55:968
93,000000	0,000000	742,000000	0,000000	2020-10-29T19:46:56:010
93,000000	0,000000	742,000000	0,000000	2020-10-29T19:46:56:048
93,000000	0,000000	742,000000	0,000000	2020-10-29T19:46:56:089
93,000000	0,000000	742,000000	0,000000	2020-10-29T19:46:56:128
93,000000	0,000000	742,000000	0,000000	2020-10-29T19:46:56:169
93,000000	0,000000	742,000000	0,000000	2020-10-29T19:46:56:209
93,000000	0,000000	742,000000	0,000000	2020-10-29T19:46:56:249
93,000000	0,000000	742,000000	0,000000	2020-10-29T19:46:56:288
93,000000	0,000000	742,000000	0,000000	2020-10-29T19:46:56:330
93,000000	0,000000	742,000000	0,000000	2020-10-29T19:46:56:369
93,000000	0,000000	742,000000	0,000000	2020-10-29T19:46:56:410
93,000000	0,000000	742,000000	0,000000	2020-10-29T19:46:56:449
93,000000	0,000000	742,000000	0,000000	2020-10-29T19:46:56:490
93,000000	0,000000	742,000000	0,000000	2020-10-29T19:46:56:529
93,000000	0,000000	742,000000	0,000000	2020-10-29T19:46:56:570
93,000000	0,000000	742,000000	0,000000	2020-10-29T19:46:56:610
93,000000	0,000000	742,000000	0,000000	2020-10-29T19:46:56:650
93,000000	0,000000	742,000000	0,000000	2020-10-29T19:46:56:690
93,000000	0,000000	742,000000	0,000000	2020-10-29T19:46:56:730
93,000000	0,000000	742,000000	0,000000	2020-10-29T19:46:56:769
93,000000	0,000000	742,000000	0,000000	2020-10-29T19:46:56:811
93,000000	0,000000	742,000000	0,000000	2020-10-29T19:46:56:849
93,000000	0,000000	742,000000	0,000000	2020-10-29T19:46:56:890
93,000000	0,000000	742,000000	0,000000	2020-10-29T19:46:56:929
93,000000	0,000000	742,000000	0,000000	2020-10-29T19:46:56:970
93,000000	0,000000	742,000000	0,000000	2020-10-29T19:46:57:010
93,000000	0,000000	742,000000	0,000000	2020-10-29T19:46:57:050
93,000000	0,000000	742,000000	0,000000	2020-10-29T19:46:57:090
93,000000	0,000000	742,000000	0,000000	2020-10-29T19:46:57:130
93,000000	0,000000	742,000000	0,000000	2020-10-29T19:46:57:169
93,000000	0,000000	742,000000	0,000000	2020-10-29T19:46:57:211
93,000000	0,000000	742,000000	0,000000	2020-10-29T19:46:57:249
93,000000	0,000000	742,000000	0,000000	2020-10-29T19:46:57:290
93,000000	0,000000	742,000000	0,000000	2020-10-29T19:46:57:332
93,000000	0,000000	742,000000	0,000000	2020-10-29T19:46:57:370
93,000000	0,000000	742,000000	0,000000	2020-10-29T19:46:57:411
93,000000	0,000000	742,000000	0,000000	2020-10-29T19:46:57:451
92,000000	0,000000	742,000000	0,000000	2020-10-29T19:46:57:490
92,000000	0,000000	742,000000	0,000000	2020-10-29T19:46:57:531
92,000000	0,000000	742,000000	0,000000	2020-10-29T19:46:57:571
92,000000	0,000000	742,000000	0,000000	2020-10-29T19:46:57:611
92,000000	0,000000	742,000000	0,000000	2020-10-29T19:46:57:650
92,000000	0,000000	742,000000	0,000000	2020-10-29T19:46:57:691
92,000000	0,000000	742,000000	0,000000	2020-10-29T19:46:57:730
92,000000	0,000000	742,000000	0,000000	2020-10-29T19:46:57:771
92,000000	0,000000	742,000000	0,000000	2020-10-29T19:46:57:811
92,000000	0,000000	742,000000	0,000000	2020-10-29T19:46:57:851
92,000000	0,000000	742,000000	0,000000	2020-10-29T19:46:57:890
92,000000	0,000000	742,000000	0,000000	2020-10-29T19:46:57:932
92,000000	0,000000	742,000000	0,000000	2020-10-29T19:46:57:970
92,000000	0,000000	742,000000	0,000000	2020-10-29T19:46:58:012
92,000000	0,000000	742,000000	0,000000	2020-10-29T19:46:58:050
92,000000	0,000000	742,000000	0,000000	2020-10-29T19:46:58:091
92,000000	0,000000	742,000000	0,000000	2020-10-29T19:46:58:133
92,000000	0,000000	742,000000	0,000000	2020-10-29T19:46:58:188
92,000000	0,000000	742,000000	0,000000	2020-10-29T19:46:58:211
91,000000	0,000000	742,000000	0,000000	2020-10-29T19:46:58:252
91,000000	0,000000	742,000000	0,000000	2020-10-29T19:46:58:291
92,000000	0,000000	742,000000	0,000000	2020-10-29T19:46:58:332
92,000000	0,000000	742,000000	0,000000	2020-10-29T19:46:58:394
92,000000	0,000000	742,000000	0,000000	2020-10-29T19:46:58:412
92,000000	0,000000	742,000000	0,000000	2020-10-29T19:46:58:452
92,000000	0,000000	742,000000	0,000000	2020-10-29T19:46:58:491
91,000000	0,000000	742,000000	0,000000	2020-10-29T19:46:58:531
91,000000	0,000000	742,000000	0,000000	2020-10-29T19:46:58:572
91,000000	0,000000	706,000000	0,000000	2020-10-29T19:46:58:612
91,000000	0,000000	706,000000	0,000000	2020-10-29T19:46:58:652
91,000000	0,000000	706,000000	0,000000	2020-10-29T19:46:58:691
91,000000	0,000000	706,000000	0,000000	2020-10-29T19:46:58:732
91,000000	0,000000	706,000000	0,000000	2020-10-29T19:46:58:771
91,000000	0,000000	706,000000	0,000000	2020-10-29T19:46:58:813
91,000000	0,000000	706,000000	0,000000	2020-10-29T19:46:58:851
91,000000	0,000000	706,000000	0,000000	2020-10-29T19:46:58:893
91,000000	0,000000	706,000000	0,000000	2020-10-29T19:46:58:931
91,000000	0,000000	706,000000	0,000000	2020-10-29T19:46:58:972
91,000000	0,000000	706,000000	0,000000	2020-10-29T19:46:59:012
91,000000	0,000000	706,000000	0,000000	2020-10-29T19:46:59:052
91,000000	0,000000	706,000000	0,000000	2020-10-29T19:46:59:091
91,000000	0,000000	706,000000	0,000000	2020-10-29T19:46:59:133
91,000000	0,000000	706,000000	0,000000	2020-10-29T19:46:59:171
91,000000	0,000000	706,000000	0,000000	2020-10-29T19:46:59:213
91,000000	0,000000	706,000000	0,000000	2020-10-29T19:46:59:252
91,000000	0,000000	706,000000	0,000000	2020-10-29T19:46:59:293
91,000000	0,000000	706,000000	0,000000	2020-10-29T19:46:59:331
91,000000	0,000000	706,000000	0,000000	2020-10-29T19:46:59:373
91,000000	0,000000	706,000000	0,000000	2020-10-29T19:46:59:412
91,000000	0,000000	706,000000	0,000000	2020-10-29T19:46:59:452
91,000000	0,000000	706,000000	0,000000	2020-10-29T19:46:59:492
91,000000	0,000000	706,000000	0,000000	2020-10-29T19:46:59:533
91,000000	0,000000	706,000000	0,000000	2020-10-29T19:46:59:572
91,000000	0,000000	706,000000	0,000000	2020-10-29T19:46:59:614
91,000000	0,000000	706,000000	0,000000	2020-10-29T19:46:59:652
91,000000	0,000000	706,000000	0,000000	2020-10-29T19:46:59:693
91,000000	0,000000	706,000000	0,000000	2020-10-29T19:46:59:732
90,000000	0,000000	706,000000	0,000000	2020-10-29T19:46:59:773
90,000000	0,000000	706,000000	0,000000	2020-10-29T19:46:59:812
91,000000	0,000000	706,000000	0,000000	2020-10-29T19:46:59:854
91,000000	0,000000	706,000000	0,000000	2020-10-29T19:46:59:892
91,000000	0,000000	706,000000	0,000000	2020-10-29T19:46:59:933
91,000000	0,000000	706,000000	0,000000	2020-10-29T19:46:59:972
90,000000	0,000000	706,000000	0,000000	2020-10-29T19:47:00:014
90,000000	0,000000	706,000000	0,000000	2020-10-29T19:47:00:052
90,000000	0,000000	706,000000	0,000000	2020-10-29T19:47:00:093
91,000000	0,000000	706,000000	0,000000	2020-10-29T19:47:00:132
91,000000	0,000000	706,000000	0,000000	2020-10-29T19:47:00:173
91,000000	0,000000	706,000000	0,000000	2020-10-29T19:47:00:213
91,000000	0,000000	706,000000	0,000000	2020-10-29T19:47:00:254
91,000000	0,000000	706,000000	0,000000	2020-10-29T19:47:00:292
91,000000	0,000000	706,000000	0,000000	2020-10-29T19:47:00:334
91,000000	0,000000	706,000000	0,000000	2020-10-29T19:47:00:373
91,000000	0,000000	706,000000	0,000000	2020-10-29T19:47:00:414
91,000000	0,000000	706,000000	0,000000	2020-10-29T19:47:00:453
91,000000	0,000000	706,000000	0,000000	2020-10-29T19:47:00:494
91,000000	0,000000	706,000000	0,000000	2020-10-29T19:47:00:533
91,000000	0,000000	706,000000	0,000000	2020-10-29T19:47:00:574
91,000000	0,000000	706,000000	0,000000	2020-10-29T19:47:00:614
91,000000	0,000000	706,000000	0,000000	2020-10-29T19:47:00:654
91,000000	0,000000	706,000000	0,000000	2020-10-29T19:47:00:693
91,000000	0,000000	706,000000	0,000000	2020-10-29T19:47:00:734
91,000000	0,000000	706,000000	0,000000	2020-10-29T19:47:00:773
91,000000	0,000000	706,000000	0,000000	2020-10-29T19:47:00:815
91,000000	0,000000	706,000000	0,000000	2020-10-29T19:47:00:853
91,000000	0,000000	706,000000	0,000000	2020-10-29T19:47:00:894
91,000000	0,000000	706,000000	0,000000	2020-10-29T19:47:00:933
91,000000	0,000000	706,000000	0,000000	2020-10-29T19:47:00:974
91,000000	0,000000	706,000000	0,000000	2020-10-29T19:47:01:014
92,000000	0,000000	706,000000	0,000000	2020-10-29T19:47:01:054
92,000000	0,000000	706,000000	0,000000	2020-10-29T19:47:01:093
92,000000	0,000000	706,000000	0,000000	2020-10-29T19:47:01:134
92,000000	0,000000	706,000000	0,000000	2020-10-29T19:47:01:173
92,000000	0,000000	706,000000	0,000000	2020-10-29T19:47:01:215
92,000000	0,000000	706,000000	0,000000	2020-10-29T19:47:01:253
92,000000	0,000000	706,000000	0,000000	2020-10-29T19:47:01:294
92,000000	0,000000	706,000000	0,000000	2020-10-29T19:47:01:334
92,000000	0,000000	706,000000	0,000000	2020-10-29T19:47:01:374
92,000000	0,000000	706,000000	0,000000	2020-10-29T19:47:01:414
92,000000	0,000000	706,000000	0,000000	2020-10-29T19:47:01:455
92,000000	0,000000	706,000000	0,000000	2020-10-29T19:47:01:494
92,000000	0,000000	706,000000	0,000000	2020-10-29T19:47:01:535
92,000000	0,000000	706,000000	0,000000	2020-10-29T19:47:01:574
92,000000	0,000000	706,000000	0,000000	2020-10-29T19:47:01:615
92,000000	0,000000	706,000000	0,000000	2020-10-29T19:47:01:654
92,000000	0,000000	706,000000	0,000000	2020-10-29T19:47:01:695
92,000000	0,000000	706,000000	0,000000	2020-10-29T19:47:01:734
92,000000	0,000000	706,000000	0,000000	2020-10-29T19:47:01:775
92,000000	0,000000	706,000000	0,000000	2020-10-29T19:47:01:815
92,000000	0,000000	706,000000	0,000000	2020-10-29T19:47:01:855
92,000000	0,000000	706,000000	0,000000	2020-10-29T19:47:01:894
93,000000	0,000000	706,000000	0,000000	2020-10-29T19:47:01:935
93,000000	0,000000	706,000000	0,000000	2020-10-29T19:47:01:974
93,000000	0,000000	706,000000	0,000000	2020-10-29T19:47:02:015
93,000000	0,000000	706,000000	0,000000	2020-10-29T19:47:02:054
93,000000	0,000000	706,000000	0,000000	2020-10-29T19:47:02:095
93,000000	0,000000	706,000000	0,000000	2020-10-29T19:47:02:134
93,000000	0,000000	706,000000	0,000000	2020-10-29T19:47:02:175
93,000000	0,000000	580,000000	0,000000	2020-10-29T19:47:02:215
93,000000	0,000000	580,000000	0,000000	2020-10-29T19:47:02:256
93,000000	0,000000	580,000000	0,000000	2020-10-29T19:47:02:295
93,000000	0,000000	580,000000	0,000000	2020-10-29T19:47:02:335
93,000000	0,000000	580,000000	0,000000	2020-10-29T19:47:02:375
93,000000	0,000000	580,000000	0,000000	2020-10-29T19:47:02:417
93,000000	0,000000	580,000000	0,000000	2020-10-29T19:47:02:454
93,000000	0,000000	580,000000	0,000000	2020-10-29T19:47:02:496
93,000000	0,000000	580,000000	0,000000	2020-10-29T19:47:02:535
93,000000	0,000000	580,000000	0,000000	2020-10-29T19:47:02:576
93,000000	0,000000	580,000000	0,000000	2020-10-29T19:47:02:616
93,000000	0,000000	580,000000	0,000000	2020-10-29T19:47:02:656
93,000000	0,000000	580,000000	0,000000	2020-10-29T19:47:02:695
93,000000	0,000000	580,000000	0,000000	2020-10-29T19:47:02:736
93,000000	0,000000	580,000000	0,000000	2020-10-29T19:47:02:775
93,000000	0,000000	580,000000	0,000000	2020-10-29T19:47:02:818
93,000000	0,000000	580,000000	0,000000	2020-10-29T19:47:02:855
93,000000	0,000000	580,000000	0,000000	2020-10-29T19:47:02:896
93,000000	0,000000	580,000000	0,000000	2020-10-29T19:47:02:935
93,000000	0,000000	580,000000	0,000000	2020-10-29T19:47:02:976
93,000000	0,000000	580,000000	0,000000	2020-10-29T19:47:03:016
93,000000	0,000000	580,000000	0,000000	2020-10-29T19:47:03:056
93,000000	0,000000	580,000000	0,000000	2020-10-29T19:47:03:095
93,000000	0,000000	580,000000	0,000000	2020-10-29T19:47:03:136
93,000000	0,000000	580,000000	0,000000	2020-10-29T19:47:03:175
94,000000	0,000000	580,000000	0,000000	2020-10-29T19:47:03:217
94,000000	0,000000	580,000000	0,000000	2020-10-29T19:47:03:255
94,000000	0,000000	580,000000	0,000000	2020-10-29T19:47:03:296
93,000000	0,000000	580,000000	0,000000	2020-10-29T19:47:03:335
94,000000	0,000000	580,000000	0,000000	2020-10-29T19:47:03:379
94,000000	0,000000	580,000000	0,000000	2020-10-29T19:47:03:416
94,000000	0,000000	580,000000	0,000000	2020-10-29T19:47:03:456
94,000000	0,000000	580,000000	0,000000	2020-10-29T19:47:03:496
94,000000	0,000000	580,000000	0,000000	2020-10-29T19:47:03:536
94,000000	0,000000	580,000000	0,000000	2020-10-29T19:47:03:575
94,000000	0,000000	580,000000	0,000000	2020-10-29T19:47:03:617
94,000000	0,000000	580,000000	0,000000	2020-10-29T19:47:03:655
94,000000	0,000000	580,000000	0,000000	2020-10-29T19:47:03:696
94,000000	0,000000	580,000000	0,000000	2020-10-29T19:47:03:736
94,000000	0,000000	580,000000	0,000000	2020-10-29T19:47:03:776
94,000000	0,000000	580,000000	0,000000	2020-10-29T19:47:03:816
94,000000	0,000000	580,000000	0,000000	2020-10-29T19:47:03:856
94,000000	0,000000	580,000000	0,000000	2020-10-29T19:47:03:895
94,000000	0,000000	580,000000	0,000000	2020-10-29T19:47:03:936
94,000000	0,000000	580,000000	0,000000	2020-10-29T19:47:03:976
94,000000	0,000000	580,000000	0,000000	2020-10-29T19:47:04:017
94,000000	0,000000	580,000000	0,000000	2020-10-29T19:47:04:055
94,000000	0,000000	580,000000	0,000000	2020-10-29T19:47:04:096
94,000000	0,000000	580,000000	0,000000	2020-10-29T19:47:04:136
94,000000	0,000000	580,000000	0,000000	2020-10-29T19:47:04:176
94,000000	0,000000	580,000000	0,000000	2020-10-29T19:47:04:216
94,000000	0,000000	580,000000	0,000000	2020-10-29T19:47:04:257
94,000000	0,000000	580,000000	0,000000	2020-10-29T19:47:04:296
94,000000	0,000000	580,000000	0,000000	2020-10-29T19:47:04:337
94,000000	0,000000	580,000000	0,000000	2020-10-29T19:47:04:376
94,000000	0,000000	546,000000	0,000000	2020-10-29T19:47:04:418
94,000000	0,000000	546,000000	0,000000	2020-10-29T19:47:04:456
94,000000	0,000000	546,000000	0,000000	2020-10-29T19:47:04:497
94,000000	0,000000	546,000000	0,000000	2020-10-29T19:47:04:536
94,000000	0,000000	546,000000	0,000000	2020-10-29T19:47:04:577
94,000000	0,000000	546,000000	0,000000	2020-10-29T19:47:04:617
94,000000	0,000000	546,000000	0,000000	2020-10-29T19:47:04:657
94,000000	0,000000	546,000000	0,000000	2020-10-29T19:47:04:696
94,000000	0,000000	546,000000	0,000000	2020-10-29T19:47:04:737
94,000000	0,000000	546,000000	0,000000	2020-10-29T19:47:04:776
94,000000	0,000000	546,000000	0,000000	2020-10-29T19:47:04:818
94,000000	0,000000	546,000000	0,000000	2020-10-29T19:47:04:856
94,000000	0,000000	546,000000	0,000000	2020-10-29T19:47:04:897
94,000000	0,000000	546,000000	0,000000	2020-10-29T19:47:04:938
94,000000	0,000000	546,000000	0,000000	2020-10-29T19:47:04:977
94,000000	0,000000	546,000000	0,000000	2020-10-29T19:47:05:017
94,000000	0,000000	546,000000	0,000000	2020-10-29T19:47:05:057
94,000000	0,000000	546,000000	0,000000	2020-10-29T19:47:05:096
95,000000	0,000000	546,000000	0,000000	2020-10-29T19:47:05:138
95,000000	0,000000	546,000000	0,000000	2020-10-29T19:47:05:177
95,000000	0,000000	546,000000	0,000000	2020-10-29T19:47:05:217
95,000000	0,000000	546,000000	0,000000	2020-10-29T19:47:05:257
95,000000	0,000000	546,000000	0,000000	2020-10-29T19:47:05:298
95,000000	0,000000	546,000000	0,000000	2020-10-29T19:47:05:337
95,000000	0,000000	546,000000	0,000000	2020-10-29T19:47:05:378
95,000000	0,000000	546,000000	0,000000	2020-10-29T19:47:05:418
95,000000	0,000000	546,000000	0,000000	2020-10-29T19:47:05:458
95,000000	0,000000	546,000000	0,000000	2020-10-29T19:47:05:497
95,000000	0,000000	546,000000	0,000000	2020-10-29T19:47:05:538
95,000000	0,000000	546,000000	0,000000	2020-10-29T19:47:05:577
95,000000	0,000000	546,000000	0,000000	2020-10-29T19:47:05:619
95,000000	0,000000	546,000000	0,000000	2020-10-29T19:47:05:657
95,000000	0,000000	546,000000	0,000000	2020-10-29T19:47:05:698
95,000000	0,000000	546,000000	0,000000	2020-10-29T19:47:05:737
95,000000	0,000000	546,000000	0,000000	2020-10-29T19:47:05:778
95,000000	0,000000	546,000000	0,000000	2020-10-29T19:47:05:818
95,000000	0,000000	546,000000	0,000000	2020-10-29T19:47:05:858
95,000000	0,000000	546,000000	0,000000	2020-10-29T19:47:05:897
95,000000	0,000000	546,000000	0,000000	2020-10-29T19:47:05:938
95,000000	0,000000	546,000000	0,000000	2020-10-29T19:47:05:978
95,000000	0,000000	546,000000	0,000000	2020-10-29T19:47:06:019
95,000000	0,000000	546,000000	0,000000	2020-10-29T19:47:06:058
95,000000	0,000000	546,000000	0,000000	2020-10-29T19:47:06:099
95,000000	0,000000	546,000000	0,000000	2020-10-29T19:47:06:138
95,000000	0,000000	546,000000	0,000000	2020-10-29T19:47:06:179
95,000000	0,000000	546,000000	0,000000	2020-10-29T19:47:06:219
95,000000	0,000000	546,000000	0,000000	2020-10-29T19:47:06:259
95,000000	0,000000	546,000000	0,000000	2020-10-29T19:47:06:298
95,000000	0,000000	546,000000	0,000000	2020-10-29T19:47:06:339
95,000000	0,000000	546,000000	0,000000	2020-10-29T19:47:06:378
95,000000	0,000000	546,000000	0,000000	2020-10-29T19:47:06:419
95,000000	0,000000	546,000000	0,000000	2020-10-29T19:47:06:458
95,000000	0,000000	546,000000	0,000000	2020-10-29T19:47:06:499
95,000000	0,000000	546,000000	0,000000	2020-10-29T19:47:06:538
95,000000	0,000000	546,000000	0,000000	2020-10-29T19:47:06:579
95,000000	0,000000	546,000000	0,000000	2020-10-29T19:47:06:619
95,000000	0,000000	546,000000	0,000000	2020-10-29T19:47:06:660
95,000000	0,000000	546,000000	0,000000	2020-10-29T19:47:06:698
95,000000	0,000000	546,000000	0,000000	2020-10-29T19:47:06:739
95,000000	0,000000	546,000000	0,000000	2020-10-29T19:47:06:778
95,000000	0,000000	576,000000	0,000000	2020-10-29T19:47:06:820
95,000000	0,000000	576,000000	0,000000	2020-10-29T19:47:06:858
95,000000	0,000000	576,000000	0,000000	2020-10-29T19:47:06:899
95,000000	0,000000	576,000000	0,000000	2020-10-29T19:47:06:938
95,000000	0,000000	576,000000	0,000000	2020-10-29T19:47:06:979
95,000000	0,000000	576,000000	0,000000	2020-10-29T19:47:07:019
95,000000	0,000000	576,000000	0,000000	2020-10-29T19:47:07:060
95,000000	0,000000	576,000000	0,000000	2020-10-29T19:47:07:099
95,000000	0,000000	576,000000	0,000000	2020-10-29T19:47:07:139
95,000000	0,000000	576,000000	0,000000	2020-10-29T19:47:07:179
95,000000	0,000000	576,000000	0,000000	2020-10-29T19:47:07:220
95,000000	0,000000	576,000000	0,000000	2020-10-29T19:47:07:259
95,000000	0,000000	576,000000	0,000000	2020-10-29T19:47:07:300
95,000000	0,000000	576,000000	0,000000	2020-10-29T19:47:07:339
95,000000	0,000000	576,000000	0,000000	2020-10-29T19:47:07:379
95,000000	0,000000	576,000000	0,000000	2020-10-29T19:47:07:420
95,000000	0,000000	576,000000	0,000000	2020-10-29T19:47:07:460
95,000000	0,000000	576,000000	0,000000	2020-10-29T19:47:07:499
95,000000	0,000000	576,000000	0,000000	2020-10-29T19:47:07:540
95,000000	0,000000	576,000000	0,000000	2020-10-29T19:47:07:580
95,000000	0,000000	576,000000	0,000000	2020-10-29T19:47:07:620
95,000000	0,000000	576,000000	0,000000	2020-10-29T19:47:07:659
95,000000	0,000000	576,000000	0,000000	2020-10-29T19:47:07:700
95,000000	0,000000	576,000000	0,000000	2020-10-29T19:47:07:739
95,000000	0,000000	576,000000	0,000000	2020-10-29T19:47:07:780
95,000000	0,000000	576,000000	0,000000	2020-10-29T19:47:07:820
95,000000	0,000000	576,000000	0,000000	2020-10-29T19:47:07:860
95,000000	0,000000	576,000000	0,000000	2020-10-29T19:47:07:899
95,000000	0,000000	576,000000	0,000000	2020-10-29T19:47:07:940
95,000000	0,000000	576,000000	0,000000	2020-10-29T19:47:07:979
95,000000	0,000000	576,000000	0,000000	2020-10-29T19:47:08:021
95,000000	0,000000	576,000000	0,000000	2020-10-29T19:47:08:061
95,000000	0,000000	576,000000	0,000000	2020-10-29T19:47:08:101
95,000000	0,000000	576,000000	0,000000	2020-10-29T19:47:08:140
95,000000	0,000000	576,000000	0,000000	2020-10-29T19:47:08:181
95,000000	0,000000	664,000000	0,000000	2020-10-29T19:47:08:220
95,000000	0,000000	664,000000	0,000000	2020-10-29T19:47:08:261
95,000000	0,000000	664,000000	0,000000	2020-10-29T19:47:08:300
95,000000	0,000000	664,000000	0,000000	2020-10-29T19:47:08:341
95,000000	0,000000	664,000000	0,000000	2020-10-29T19:47:08:405
95,000000	0,000000	664,000000	0,000000	2020-10-29T19:47:08:421
95,000000	0,000000	664,000000	0,000000	2020-10-29T19:47:08:460
95,000000	0,000000	664,000000	0,000000	2020-10-29T19:47:08:501
95,000000	0,000000	664,000000	0,000000	2020-10-29T19:47:08:541
95,000000	0,000000	664,000000	0,000000	2020-10-29T19:47:08:581
95,000000	0,000000	664,000000	0,000000	2020-10-29T19:47:08:621
95,000000	0,000000	664,000000	0,000000	2020-10-29T19:47:08:662
95,000000	0,000000	664,000000	0,000000	2020-10-29T19:47:08:700
96,000000	0,000000	664,000000	0,000000	2020-10-29T19:47:08:741
96,000000	0,000000	664,000000	0,000000	2020-10-29T19:47:08:780
95,000000	0,000000	664,000000	0,000000	2020-10-29T19:47:08:822
95,000000	0,000000	664,000000	0,000000	2020-10-29T19:47:08:860
95,000000	0,000000	664,000000	0,000000	2020-10-29T19:47:08:901
95,000000	0,000000	664,000000	0,000000	2020-10-29T19:47:08:940
95,000000	0,000000	664,000000	0,000000	2020-10-29T19:47:08:981
95,000000	0,000000	664,000000	0,000000	2020-10-29T19:47:09:021
95,000000	0,000000	664,000000	0,000000	2020-10-29T19:47:09:062
95,000000	0,000000	664,000000	0,000000	2020-10-29T19:47:09:101
95,000000	0,000000	664,000000	0,000000	2020-10-29T19:47:09:142
95,000000	0,000000	664,000000	0,000000	2020-10-29T19:47:09:181
95,000000	0,000000	664,000000	0,000000	2020-10-29T19:47:09:222
95,000000	0,000000	664,000000	0,000000	2020-10-29T19:47:09:261
95,000000	0,000000	664,000000	0,000000	2020-10-29T19:47:09:301
95,000000	0,000000	664,000000	0,000000	2020-10-29T19:47:09:341
95,000000	0,000000	664,000000	0,000000	2020-10-29T19:47:09:382
95,000000	0,000000	664,000000	0,000000	2020-10-29T19:47:09:421
95,000000	0,000000	664,000000	0,000000	2020-10-29T19:47:09:462
95,000000	0,000000	664,000000	0,000000	2020-10-29T19:47:09:501
95,000000	0,000000	664,000000	0,000000	2020-10-29T19:47:09:542
95,000000	0,000000	664,000000	0,000000	2020-10-29T19:47:09:581
95,000000	0,000000	664,000000	0,000000	2020-10-29T19:47:09:623
95,000000	0,000000	664,000000	0,000000	2020-10-29T19:47:09:662
95,000000	0,000000	664,000000	0,000000	2020-10-29T19:47:09:702
95,000000	0,000000	664,000000	0,000000	2020-10-29T19:47:09:742
95,000000	0,000000	664,000000	0,000000	2020-10-29T19:47:09:782
95,000000	0,000000	578,000000	0,000000	2020-10-29T19:47:09:822
95,000000	0,000000	578,000000	0,000000	2020-10-29T19:47:09:863
95,000000	0,000000	578,000000	0,000000	2020-10-29T19:47:09:901
95,000000	0,000000	578,000000	0,000000	2020-10-29T19:47:09:944
95,000000	0,000000	578,000000	0,000000	2020-10-29T19:47:09:982
95,000000	0,000000	578,000000	0,000000	2020-10-29T19:47:10:023
95,000000	0,000000	578,000000	0,000000	2020-10-29T19:47:10:062
95,000000	0,000000	578,000000	0,000000	2020-10-29T19:47:10:103
95,000000	0,000000	578,000000	0,000000	2020-10-29T19:47:10:142
95,000000	0,000000	578,000000	0,000000	2020-10-29T19:47:10:183
95,000000	0,000000	578,000000	0,000000	2020-10-29T19:47:10:222
95,000000	0,000000	578,000000	0,000000	2020-10-29T19:47:10:263
95,000000	0,000000	578,000000	0,000000	2020-10-29T19:47:10:302
95,000000	0,000000	578,000000	0,000000	2020-10-29T19:47:10:343
95,000000	0,000000	578,000000	0,000000	2020-10-29T19:47:10:382
95,000000	0,000000	578,000000	0,000000	2020-10-29T19:47:10:424
95,000000	0,000000	578,000000	0,000000	2020-10-29T19:47:10:462
95,000000	0,000000	578,000000	0,000000	2020-10-29T19:47:10:503
95,000000	0,000000	578,000000	0,000000	2020-10-29T19:47:10:542
94,000000	0,000000	578,000000	0,000000	2020-10-29T19:47:10:583
94,000000	0,000000	578,000000	0,000000	2020-10-29T19:47:10:622
94,000000	0,000000	578,000000	0,000000	2020-10-29T19:47:10:664
94,000000	0,000000	578,000000	0,000000	2020-10-29T19:47:10:703
94,000000	0,000000	578,000000	0,000000	2020-10-29T19:47:10:743
94,000000	0,000000	578,000000	0,000000	2020-10-29T19:47:10:782
94,000000	0,000000	578,000000	0,000000	2020-10-29T19:47:10:824
94,000000	0,000000	578,000000	0,000000	2020-10-29T19:47:10:862
94,000000	0,000000	578,000000	0,000000	2020-10-29T19:47:10:904
94,000000	0,000000	578,000000	0,000000	2020-10-29T19:47:10:943
94,000000	0,000000	578,000000	0,000000	2020-10-29T19:47:10:983
94,000000	0,000000	578,000000	0,000000	2020-10-29T19:47:11:023
94,000000	0,000000	578,000000	0,000000	2020-10-29T19:47:11:064
94,000000	0,000000	578,000000	0,000000	2020-10-29T19:47:11:103
94,000000	0,000000	578,000000	0,000000	2020-10-29T19:47:11:144
94,000000	0,000000	578,000000	0,000000	2020-10-29T19:47:11:183
94,000000	0,000000	578,000000	0,000000	2020-10-29T19:47:11:224
93,000000	0,000000	578,000000	0,000000	2020-10-29T19:47:11:263
93,000000	0,000000	578,000000	0,000000	2020-10-29T19:47:11:304
94,000000	0,000000	578,000000	0,000000	2020-10-29T19:47:11:343
94,000000	0,000000	578,000000	0,000000	2020-10-29T19:47:11:384
94,000000	0,000000	578,000000	0,000000	2020-10-29T19:47:11:424
94,000000	0,000000	578,000000	0,000000	2020-10-29T19:47:11:464
94,000000	0,000000	578,000000	0,000000	2020-10-29T19:47:11:503
93,000000	0,000000	578,000000	0,000000	2020-10-29T19:47:11:544
93,000000	0,000000	578,000000	0,000000	2020-10-29T19:47:11:583
93,000000	0,000000	578,000000	0,000000	2020-10-29T19:47:11:624
93,000000	0,000000	578,000000	0,000000	2020-10-29T19:47:11:663
93,000000	0,000000	578,000000	0,000000	2020-10-29T19:47:11:704
93,000000	0,000000	578,000000	0,000000	2020-10-29T19:47:11:743
93,000000	0,000000	578,000000	0,000000	2020-10-29T19:47:11:784
93,000000	0,000000	578,000000	0,000000	2020-10-29T19:47:11:824
93,000000	0,000000	578,000000	0,000000	2020-10-29T19:47:11:864
93,000000	0,000000	578,000000	0,000000	2020-10-29T19:47:11:903
93,000000	0,000000	578,000000	0,000000	2020-10-29T19:47:11:944
93,000000	0,000000	578,000000	0,000000	2020-10-29T19:47:11:983
93,000000	0,000000	578,000000	0,000000	2020-10-29T19:47:12:025
93,000000	0,000000	578,000000	0,000000	2020-10-29T19:47:12:063
93,000000	0,000000	578,000000	0,000000	2020-10-29T19:47:12:104
93,000000	0,000000	578,000000	0,000000	2020-10-29T19:47:12:144
93,000000	0,000000	578,000000	0,000000	2020-10-29T19:47:12:185
93,000000	0,000000	578,000000	0,000000	2020-10-29T19:47:12:226
93,000000	0,000000	578,000000	0,000000	2020-10-29T19:47:12:265
92,000000	0,000000	578,000000	0,000000	2020-10-29T19:47:12:304
93,000000	0,000000	578,000000	0,000000	2020-10-29T19:47:12:346
93,000000	0,000000	578,000000	0,000000	2020-10-29T19:47:12:385
93,000000	0,000000	578,000000	0,000000	2020-10-29T19:47:12:427
93,000000	0,000000	578,000000	0,000000	2020-10-29T19:47:12:465
93,000000	0,000000	578,000000	0,000000	2020-10-29T19:47:12:506
93,000000	0,000000	578,000000	0,000000	2020-10-29T19:47:12:545
93,000000	0,000000	578,000000	0,000000	2020-10-29T19:47:12:587
93,000000	0,000000	578,000000	0,000000	2020-10-29T19:47:12:625
93,000000	0,000000	578,000000	0,000000	2020-10-29T19:47:12:666
93,000000	0,000000	578,000000	0,000000	2020-10-29T19:47:12:704
93,000000	0,000000	578,000000	0,000000	2020-10-29T19:47:12:746
93,000000	0,000000	578,000000	0,000000	2020-10-29T19:47:12:784
93,000000	0,000000	580,000000	0,000000	2020-10-29T19:47:12:826
93,000000	0,000000	580,000000	0,000000	2020-10-29T19:47:12:864
92,000000	0,000000	580,000000	0,000000	2020-10-29T19:47:12:905
93,000000	0,000000	580,000000	0,000000	2020-10-29T19:47:12:944
93,000000	0,000000	580,000000	0,000000	2020-10-29T19:47:12:986
93,000000	0,000000	580,000000	0,000000	2020-10-29T19:47:13:025
93,000000	0,000000	580,000000	0,000000	2020-10-29T19:47:13:066
93,000000	0,000000	580,000000	0,000000	2020-10-29T19:47:13:105
93,000000	0,000000	580,000000	0,000000	2020-10-29T19:47:13:146
93,000000	0,000000	580,000000	0,000000	2020-10-29T19:47:13:185
93,000000	0,000000	580,000000	0,000000	2020-10-29T19:47:13:226
93,000000	0,000000	580,000000	0,000000	2020-10-29T19:47:13:265
93,000000	0,000000	580,000000	0,000000	2020-10-29T19:47:13:306
93,000000	0,000000	580,000000	0,000000	2020-10-29T19:47:13:345
93,000000	0,000000	580,000000	0,000000	2020-10-29T19:47:13:387
93,000000	0,000000	580,000000	0,000000	2020-10-29T19:47:13:426
93,000000	0,000000	580,000000	0,000000	2020-10-29T19:47:13:466
93,000000	0,000000	580,000000	0,000000	2020-10-29T19:47:13:505
93,000000	0,000000	580,000000	0,000000	2020-10-29T19:47:13:546
93,000000	0,000000	580,000000	0,000000	2020-10-29T19:47:13:586
93,000000	0,000000	580,000000	0,000000	2020-10-29T19:47:13:627
93,000000	0,000000	580,000000	0,000000	2020-10-29T19:47:13:668
93,000000	0,000000	580,000000	0,000000	2020-10-29T19:47:13:706
93,000000	0,000000	580,000000	0,000000	2020-10-29T19:47:13:745
93,000000	0,000000	580,000000	0,000000	2020-10-29T19:47:13:786
93,000000	0,000000	580,000000	0,000000	2020-10-29T19:47:13:826
93,000000	0,000000	580,000000	0,000000	2020-10-29T19:47:13:867
93,000000	0,000000	580,000000	0,000000	2020-10-29T19:47:13:905
93,000000	0,000000	580,000000	0,000000	2020-10-29T19:47:13:946
93,000000	0,000000	580,000000	0,000000	2020-10-29T19:47:13:985
93,000000	0,000000	580,000000	0,000000	2020-10-29T19:47:14:028
93,000000	0,000000	580,000000	0,000000	2020-10-29T19:47:14:066
93,000000	0,000000	580,000000	0,000000	2020-10-29T19:47:14:106
93,000000	0,000000	580,000000	0,000000	2020-10-29T19:47:14:146
93,000000	0,000000	580,000000	0,000000	2020-10-29T19:47:14:187
93,000000	0,000000	580,000000	0,000000	2020-10-29T19:47:14:226
93,000000	0,000000	580,000000	0,000000	2020-10-29T19:47:14:267
93,000000	0,000000	580,000000	0,000000	2020-10-29T19:47:14:306
93,000000	0,000000	580,000000	0,000000	2020-10-29T19:47:14:346
93,000000	0,000000	580,000000	0,000000	2020-10-29T19:47:14:386
93,000000	0,000000	580,000000	0,000000	2020-10-29T19:47:14:428
93,000000	0,000000	580,000000	0,000000	2020-10-29T19:47:14:466
93,000000	0,000000	580,000000	0,000000	2020-10-29T19:47:14:507
93,000000	0,000000	580,000000	0,000000	2020-10-29T19:47:14:546
93,000000	0,000000	580,000000	0,000000	2020-10-29T19:47:14:587
93,000000	0,000000	580,000000	0,000000	2020-10-29T19:47:14:627
93,000000	0,000000	580,000000	0,000000	2020-10-29T19:47:14:668
93,000000	0,000000	580,000000	0,000000	2020-10-29T19:47:14:706
93,000000	0,000000	580,000000	0,000000	2020-10-29T19:47:14:747
93,000000	0,000000	580,000000	0,000000	2020-10-29T19:47:14:786
93,000000	0,000000	580,000000	0,000000	2020-10-29T19:47:14:828
93,000000	0,000000	580,000000	0,000000	2020-10-29T19:47:14:866
93,000000	0,000000	580,000000	0,000000	2020-10-29T19:47:14:907
93,000000	0,000000	580,000000	0,000000	2020-10-29T19:47:14:948
93,000000	0,000000	580,000000	0,000000	2020-10-29T19:47:14:988
93,000000	0,000000	720,000000	0,000000	2020-10-29T19:47:15:027
93,000000	0,000000	720,000000	0,000000	2020-10-29T19:47:15:068
93,000000	0,000000	720,000000	0,000000	2020-10-29T19:47:15:106
93,000000	0,000000	720,000000	0,000000	2020-10-29T19:47:15:148
92,000000	0,000000	720,000000	0,000000	2020-10-29T19:47:15:187
93,000000	0,000000	720,000000	0,000000	2020-10-29T19:47:15:228
93,000000	0,000000	720,000000	0,000000	2020-10-29T19:47:15:267
93,000000	0,000000	720,000000	0,000000	2020-10-29T19:47:15:307
93,000000	0,000000	720,000000	0,000000	2020-10-29T19:47:15:347
93,000000	0,000000	720,000000	0,000000	2020-10-29T19:47:15:388
93,000000	0,000000	720,000000	0,000000	2020-10-29T19:47:15:427
93,000000	0,000000	720,000000	0,000000	2020-10-29T19:47:15:468
92,000000	0,000000	720,000000	0,000000	2020-10-29T19:47:15:507
92,000000	0,000000	720,000000	0,000000	2020-10-29T19:47:15:548
93,000000	0,000000	720,000000	0,000000	2020-10-29T19:47:15:587
93,000000	0,000000	720,000000	0,000000	2020-10-29T19:47:15:629
92,000000	0,000000	720,000000	0,000000	2020-10-29T19:47:15:667
93,000000	0,000000	720,000000	0,000000	2020-10-29T19:47:15:708
93,000000	0,000000	720,000000	0,000000	2020-10-29T19:47:15:747
93,000000	0,000000	720,000000	0,000000	2020-10-29T19:47:15:788
93,000000	0,000000	720,000000	0,000000	2020-10-29T19:47:15:828
93,000000	0,000000	720,000000	0,000000	2020-10-29T19:47:15:870
93,000000	0,000000	720,000000	0,000000	2020-10-29T19:47:15:907
93,000000	0,000000	720,000000	0,000000	2020-10-29T19:47:15:949
93,000000	0,000000	720,000000	0,000000	2020-10-29T19:47:15:988
93,000000	0,000000	665,000000	0,000000	2020-10-29T19:47:16:029
93,000000	0,000000	665,000000	0,000000	2020-10-29T19:47:16:068
93,000000	0,000000	665,000000	0,000000	2020-10-29T19:47:16:109
92,000000	0,000000	665,000000	0,000000	2020-10-29T19:47:16:148
93,000000	0,000000	665,000000	0,000000	2020-10-29T19:47:16:189
93,000000	0,000000	665,000000	0,000000	2020-10-29T19:47:16:228
93,000000	0,000000	665,000000	0,000000	2020-10-29T19:47:16:269
93,000000	0,000000	665,000000	0,000000	2020-10-29T19:47:16:308
93,000000	0,000000	665,000000	0,000000	2020-10-29T19:47:16:349
93,000000	0,000000	665,000000	0,000000	2020-10-29T19:47:16:388
93,000000	0,000000	665,000000	0,000000	2020-10-29T19:47:16:430
92,000000	0,000000	665,000000	0,000000	2020-10-29T19:47:16:468
93,000000	0,000000	665,000000	0,000000	2020-10-29T19:47:16:509
93,000000	0,000000	665,000000	0,000000	2020-10-29T19:47:16:548
93,000000	0,000000	665,000000	0,000000	2020-10-29T19:47:16:588
93,000000	0,000000	665,000000	0,000000	2020-10-29T19:47:16:628
92,000000	0,000000	665,000000	0,000000	2020-10-29T19:47:16:672
93,000000	0,000000	665,000000	0,000000	2020-10-29T19:47:16:709
93,000000	0,000000	665,000000	0,000000	2020-10-29T19:47:16:749
92,000000	0,000000	665,000000	0,000000	2020-10-29T19:47:16:788
93,000000	0,000000	665,000000	0,000000	2020-10-29T19:47:16:830
93,000000	0,000000	665,000000	0,000000	2020-10-29T19:47:16:868
93,000000	0,000000	665,000000	0,000000	2020-10-29T19:47:16:910
93,000000	0,000000	665,000000	0,000000	2020-10-29T19:47:16:949
93,000000	0,000000	665,000000	0,000000	2020-10-29T19:47:16:989
93,000000	0,000000	665,000000	0,000000	2020-10-29T19:47:17:029
93,000000	0,000000	665,000000	0,000000	2020-10-29T19:47:17:070
93,000000	0,000000	665,000000	0,000000	2020-10-29T19:47:17:108
93,000000	0,000000	665,000000	0,000000	2020-10-29T19:47:17:150
93,000000	0,000000	665,000000	0,000000	2020-10-29T19:47:17:189
93,000000	0,000000	665,000000	0,000000	2020-10-29T19:47:17:231
93,000000	0,000000	665,000000	0,000000	2020-10-29T19:47:17:269
93,000000	0,000000	665,000000	0,000000	2020-10-29T19:47:17:310
93,000000	0,000000	665,000000	0,000000	2020-10-29T19:47:17:349
93,000000	0,000000	665,000000	0,000000	2020-10-29T19:47:17:390
93,000000	0,000000	665,000000	0,000000	2020-10-29T19:47:17:430
93,000000	0,000000	665,000000	0,000000	2020-10-29T19:47:17:470
93,000000	0,000000	665,000000	0,000000	2020-10-29T19:47:17:509
93,000000	0,000000	665,000000	0,000000	2020-10-29T19:47:17:550
93,000000	0,000000	665,000000	0,000000	2020-10-29T19:47:17:590
93,000000	0,000000	665,000000	0,000000	2020-10-29T19:47:17:632
93,000000	0,000000	665,000000	0,000000	2020-10-29T19:47:17:669
93,000000	0,000000	665,000000	0,000000	2020-10-29T19:47:17:710
93,000000	0,000000	665,000000	0,000000	2020-10-29T19:47:17:749
93,000000	0,000000	665,000000	0,000000	2020-10-29T19:47:17:790
93,000000	0,000000	665,000000	0,000000	2020-10-29T19:47:17:830
93,000000	0,000000	665,000000	0,000000	2020-10-29T19:47:17:871
93,000000	0,000000	665,000000	0,000000	2020-10-29T19:47:17:910
93,000000	0,000000	665,000000	0,000000	2020-10-29T19:47:17:950
93,000000	0,000000	665,000000	0,000000	2020-10-29T19:47:17:989
93,000000	0,000000	611,000000	0,000000	2020-10-29T19:47:18:031
93,000000	0,000000	611,000000	0,000000	2020-10-29T19:47:18:069
93,000000	0,000000	611,000000	0,000000	2020-10-29T19:47:18:110
93,000000	0,000000	611,000000	0,000000	2020-10-29T19:47:18:150
93,000000	0,000000	611,000000	0,000000	2020-10-29T19:47:18:190
93,000000	0,000000	611,000000	0,000000	2020-10-29T19:47:18:230
93,000000	0,000000	611,000000	0,000000	2020-10-29T19:47:18:271
93,000000	0,000000	611,000000	0,000000	2020-10-29T19:47:18:310
93,000000	0,000000	611,000000	0,000000	2020-10-29T19:47:18:351
93,000000	0,000000	611,000000	0,000000	2020-10-29T19:47:18:390
93,000000	0,000000	611,000000	0,000000	2020-10-29T19:47:18:431
93,000000	0,000000	611,000000	0,000000	2020-10-29T19:47:18:470
93,000000	0,000000	611,000000	0,000000	2020-10-29T19:47:18:511
93,000000	0,000000	611,000000	0,000000	2020-10-29T19:47:18:550
93,000000	0,000000	611,000000	0,000000	2020-10-29T19:47:18:593
93,000000	0,000000	611,000000	0,000000	2020-10-29T19:47:18:635
93,000000	0,000000	611,000000	0,000000	2020-10-29T19:47:18:670
93,000000	0,000000	611,000000	0,000000	2020-10-29T19:47:18:711
93,000000	0,000000	611,000000	0,000000	2020-10-29T19:47:18:751
93,000000	0,000000	611,000000	0,000000	2020-10-29T19:47:18:790
93,000000	0,000000	611,000000	0,000000	2020-10-29T19:47:18:832
93,000000	0,000000	611,000000	0,000000	2020-10-29T19:47:18:870
93,000000	0,000000	611,000000	0,000000	2020-10-29T19:47:18:911
94,000000	0,000000	611,000000	0,000000	2020-10-29T19:47:18:950
94,000000	0,000000	611,000000	0,000000	2020-10-29T19:47:18:991
94,000000	0,000000	611,000000	0,000000	2020-10-29T19:47:19:031
94,000000	0,000000	611,000000	0,000000	2020-10-29T19:47:19:071
94,000000	0,000000	611,000000	0,000000	2020-10-29T19:47:19:111
94,000000	0,000000	611,000000	0,000000	2020-10-29T19:47:19:151
94,000000	0,000000	611,000000	0,000000	2020-10-29T19:47:19:191
94,000000	0,000000	611,000000	0,000000	2020-10-29T19:47:19:233
94,000000	0,000000	611,000000	0,000000	2020-10-29T19:47:19:270
94,000000	0,000000	611,000000	0,000000	2020-10-29T19:47:19:312
94,000000	0,000000	611,000000	0,000000	2020-10-29T19:47:19:351
94,000000	0,000000	611,000000	0,000000	2020-10-29T19:47:19:391
94,000000	0,000000	611,000000	0,000000	2020-10-29T19:47:19:431
94,000000	0,000000	611,000000	0,000000	2020-10-29T19:47:19:471
94,000000	0,000000	611,000000	0,000000	2020-10-29T19:47:19:511
94,000000	0,000000	611,000000	0,000000	2020-10-29T19:47:19:552
94,000000	0,000000	611,000000	0,000000	2020-10-29T19:47:19:591
94,000000	0,000000	611,000000	0,000000	2020-10-29T19:47:19:632
94,000000	0,000000	611,000000	0,000000	2020-10-29T19:47:19:671
94,000000	0,000000	611,000000	0,000000	2020-10-29T19:47:19:712
94,000000	0,000000	611,000000	0,000000	2020-10-29T19:47:19:751
94,000000	0,000000	611,000000	0,000000	2020-10-29T19:47:19:792
94,000000	0,000000	611,000000	0,000000	2020-10-29T19:47:19:832
94,000000	0,000000	611,000000	0,000000	2020-10-29T19:47:19:872
94,000000	0,000000	611,000000	0,000000	2020-10-29T19:47:19:911
94,000000	0,000000	611,000000	0,000000	2020-10-29T19:47:19:952
94,000000	0,000000	611,000000	0,000000	2020-10-29T19:47:19:991
94,000000	0,000000	611,000000	0,000000	2020-10-29T19:47:20:033
94,000000	0,000000	611,000000	0,000000	2020-10-29T19:47:20:071
94,000000	0,000000	611,000000	0,000000	2020-10-29T19:47:20:112
94,000000	0,000000	611,000000	0,000000	2020-10-29T19:47:20:152
94,000000	0,000000	611,000000	0,000000	2020-10-29T19:47:20:192
94,000000	0,000000	611,000000	0,000000	2020-10-29T19:47:20:232
94,000000	0,000000	611,000000	0,000000	2020-10-29T19:47:20:272
94,000000	0,000000	611,000000	0,000000	2020-10-29T19:47:20:312
94,000000	0,000000	611,000000	0,000000	2020-10-29T19:47:20:353
94,000000	0,000000	611,000000	0,000000	2020-10-29T19:47:20:392
94,000000	0,000000	611,000000	0,000000	2020-10-29T19:47:20:433
94,000000	0,000000	611,000000	0,000000	2020-10-29T19:47:20:472
94,000000	0,000000	611,000000	0,000000	2020-10-29T19:47:20:513
94,000000	0,000000	611,000000	0,000000	2020-10-29T19:47:20:552
94,000000	0,000000	611,000000	0,000000	2020-10-29T19:47:20:592
94,000000	0,000000	611,000000	0,000000	2020-10-29T19:47:20:632
94,000000	0,000000	611,000000	0,000000	2020-10-29T19:47:20:672
94,000000	0,000000	611,000000	0,000000	2020-10-29T19:47:20:711
94,000000	0,000000	611,000000	0,000000	2020-10-29T19:47:20:753
94,000000	0,000000	611,000000	0,000000	2020-10-29T19:47:20:793
94,000000	0,000000	611,000000	0,000000	2020-10-29T19:47:20:834
94,000000	0,000000	611,000000	0,000000	2020-10-29T19:47:20:872
94,000000	0,000000	611,000000	0,000000	2020-10-29T19:47:20:913
94,000000	0,000000	611,000000	0,000000	2020-10-29T19:47:20:952
94,000000	0,000000	611,000000	0,000000	2020-10-29T19:47:20:993
94,000000	0,000000	611,000000	0,000000	2020-10-29T19:47:21:034
94,000000	0,000000	611,000000	0,000000	2020-10-29T19:47:21:073
94,000000	0,000000	611,000000	0,000000	2020-10-29T19:47:21:112
94,000000	0,000000	611,000000	0,000000	2020-10-29T19:47:21:153
94,000000	0,000000	611,000000	0,000000	2020-10-29T19:47:21:192
94,000000	0,000000	611,000000	0,000000	2020-10-29T19:47:21:234
94,000000	0,000000	611,000000	0,000000	2020-10-29T19:47:21:273
94,000000	0,000000	611,000000	0,000000	2020-10-29T19:47:21:313
94,000000	0,000000	611,000000	0,000000	2020-10-29T19:47:21:353
94,000000	0,000000	611,000000	0,000000	2020-10-29T19:47:21:393
94,000000	0,000000	611,000000	0,000000	2020-10-29T19:47:21:433
94,000000	0,000000	611,000000	0,000000	2020-10-29T19:47:21:473
94,000000	0,000000	611,000000	0,000000	2020-10-29T19:47:21:514
94,000000	0,000000	611,000000	0,000000	2020-10-29T19:47:21:553
94,000000	0,000000	611,000000	0,000000	2020-10-29T19:47:21:593
94,000000	0,000000	611,000000	0,000000	2020-10-29T19:47:21:634
94,000000	0,000000	611,000000	0,000000	2020-10-29T19:47:21:674
94,000000	0,000000	611,000000	0,000000	2020-10-29T19:47:21:714
94,000000	0,000000	611,000000	0,000000	2020-10-29T19:47:21:753
94,000000	0,000000	611,000000	0,000000	2020-10-29T19:47:21:793
94,000000	0,000000	611,000000	0,000000	2020-10-29T19:47:21:834
94,000000	0,000000	611,000000	0,000000	2020-10-29T19:47:21:874
94,000000	0,000000	611,000000	0,000000	2020-10-29T19:47:21:913
94,000000	0,000000	611,000000	0,000000	2020-10-29T19:47:21:954
94,000000	0,000000	611,000000	0,000000	2020-10-29T19:47:21:993
94,000000	0,000000	611,000000	0,000000	2020-10-29T19:47:22:035
95,000000	0,000000	611,000000	0,000000	2020-10-29T19:47:22:073
94,000000	0,000000	611,000000	0,000000	2020-10-29T19:47:22:114
94,000000	0,000000	611,000000	0,000000	2020-10-29T19:47:22:153
94,000000	0,000000	611,000000	0,000000	2020-10-29T19:47:22:194
94,000000	0,000000	639,000000	0,000000	2020-10-29T19:47:22:234
94,000000	0,000000	639,000000	0,000000	2020-10-29T19:47:22:274
94,000000	0,000000	639,000000	0,000000	2020-10-29T19:47:22:314
94,000000	0,000000	639,000000	0,000000	2020-10-29T19:47:22:355
94,000000	0,000000	639,000000	0,000000	2020-10-29T19:47:22:394
94,000000	0,000000	639,000000	0,000000	2020-10-29T19:47:22:436
94,000000	0,000000	639,000000	0,000000	2020-10-29T19:47:22:474
94,000000	0,000000	639,000000	0,000000	2020-10-29T19:47:22:514
94,000000	0,000000	639,000000	0,000000	2020-10-29T19:47:22:554
94,000000	0,000000	639,000000	0,000000	2020-10-29T19:47:22:596
94,000000	0,000000	639,000000	0,000000	2020-10-29T19:47:22:634
94,000000	0,000000	639,000000	0,000000	2020-10-29T19:47:22:675
94,000000	0,000000	639,000000	0,000000	2020-10-29T19:47:22:715
94,000000	0,000000	639,000000	0,000000	2020-10-29T19:47:22:755
94,000000	0,000000	639,000000	0,000000	2020-10-29T19:47:22:794
94,000000	0,000000	639,000000	0,000000	2020-10-29T19:47:22:836
94,000000	0,000000	639,000000	0,000000	2020-10-29T19:47:22:874
94,000000	0,000000	639,000000	0,000000	2020-10-29T19:47:22:915
94,000000	0,000000	639,000000	0,000000	2020-10-29T19:47:22:954
94,000000	0,000000	639,000000	0,000000	2020-10-29T19:47:22:995
94,000000	0,000000	639,000000	0,000000	2020-10-29T19:47:23:035
94,000000	0,000000	639,000000	0,000000	2020-10-29T19:47:23:075
94,000000	0,000000	639,000000	0,000000	2020-10-29T19:47:23:114
94,000000	0,000000	639,000000	0,000000	2020-10-29T19:47:23:156
94,000000	0,000000	639,000000	0,000000	2020-10-29T19:47:23:194
94,000000	0,000000	639,000000	0,000000	2020-10-29T19:47:23:236
94,000000	0,000000	639,000000	0,000000	2020-10-29T19:47:23:275
94,000000	0,000000	639,000000	0,000000	2020-10-29T19:47:23:316
94,000000	0,000000	639,000000	0,000000	2020-10-29T19:47:23:354
94,000000	0,000000	639,000000	0,000000	2020-10-29T19:47:23:421
94,000000	0,000000	639,000000	0,000000	2020-10-29T19:47:23:435
94,000000	0,000000	639,000000	0,000000	2020-10-29T19:47:23:475
94,000000	0,000000	639,000000	0,000000	2020-10-29T19:47:23:515
94,000000	0,000000	639,000000	0,000000	2020-10-29T19:47:23:556
94,000000	0,000000	639,000000	0,000000	2020-10-29T19:47:23:595
94,000000	0,000000	639,000000	0,000000	2020-10-29T19:47:23:636
94,000000	0,000000	639,000000	0,000000	2020-10-29T19:47:23:675
94,000000	0,000000	639,000000	0,000000	2020-10-29T19:47:23:716
94,000000	0,000000	639,000000	0,000000	2020-10-29T19:47:23:755
94,000000	0,000000	639,000000	0,000000	2020-10-29T19:47:23:796
94,000000	0,000000	639,000000	0,000000	2020-10-29T19:47:23:835
94,000000	0,000000	639,000000	0,000000	2020-10-29T19:47:23:876
94,000000	0,000000	639,000000	0,000000	2020-10-29T19:47:23:915
94,000000	0,000000	639,000000	0,000000	2020-10-29T19:47:23:956
94,000000	0,000000	639,000000	0,000000	2020-10-29T19:47:23:995
94,000000	0,000000	639,000000	0,000000	2020-10-29T19:47:24:036
94,000000	0,000000	639,000000	0,000000	2020-10-29T19:47:24:075
94,000000	0,000000	639,000000	0,000000	2020-10-29T19:47:24:116
94,000000	0,000000	639,000000	0,000000	2020-10-29T19:47:24:156
94,000000	0,000000	639,000000	0,000000	2020-10-29T19:47:24:196
94,000000	0,000000	639,000000	0,000000	2020-10-29T19:47:24:236
94,000000	0,000000	639,000000	0,000000	2020-10-29T19:47:24:277
94,000000	0,000000	639,000000	0,000000	2020-10-29T19:47:24:315
94,000000	0,000000	639,000000	0,000000	2020-10-29T19:47:24:368
94,000000	0,000000	639,000000	0,000000	2020-10-29T19:47:24:395
94,000000	0,000000	639,000000	0,000000	2020-10-29T19:47:24:437
94,000000	0,000000	639,000000	0,000000	2020-10-29T19:47:24:476
94,000000	0,000000	639,000000	0,000000	2020-10-29T19:47:24:516
94,000000	0,000000	639,000000	0,000000	2020-10-29T19:47:24:556
-10,000000	0,000000	639,000000	0,000000	2020-10-29T19:47:24:597
-10,000000	0,000000	639,000000	0,000000	2020-10-29T19:47:24:636
-10,000000	0,000000	639,000000	0,000000	2020-10-29T19:47:24:677
-10,000000	0,000000	639,000000	0,000000	2020-10-29T19:47:24:716
-10,000000	0,000000	639,000000	0,000000	2020-10-29T19:47:24:757
-10,000000	0,000000	639,000000	0,000000	2020-10-29T19:47:24:796
-10,000000	0,000000	639,000000	0,000000	2020-10-29T19:47:24:838
-10,000000	0,000000	639,000000	0,000000	2020-10-29T19:47:24:876
-10,000000	0,000000	639,000000	0,000000	2020-10-29T19:47:24:917
-10,000000	0,000000	639,000000	0,000000	2020-10-29T19:47:24:958
-10,000000	0,000000	639,000000	0,000000	2020-10-29T19:47:24:998
-10,000000	0,000000	639,000000	0,000000	2020-10-29T19:47:25:037
-10,000000	0,000000	639,000000	0,000000	2020-10-29T19:47:25:077
-10,000000	0,000000	639,000000	0,000000	2020-10-29T19:47:25:116
-10,000000	0,000000	639,000000	0,000000	2020-10-29T19:47:25:157
-10,000000	0,000000	639,000000	0,000000	2020-10-29T19:47:25:196
-10,000000	0,000000	639,000000	0,000000	2020-10-29T19:47:25:238
-10,000000	0,000000	639,000000	0,000000	2020-10-29T19:47:25:276
-10,000000	0,000000	639,000000	0,000000	2020-10-29T19:47:25:319
-10,000000	0,000000	639,000000	0,000000	2020-10-29T19:47:25:357
-10,000000	0,000000	639,000000	0,000000	2020-10-29T19:47:25:398
-10,000000	0,000000	639,000000	0,000000	2020-10-29T19:47:25:437
-10,000000	0,000000	639,000000	0,000000	2020-10-29T19:47:25:478
-10,000000	0,000000	639,000000	0,000000	2020-10-29T19:47:25:517
-10,000000	0,000000	639,000000	0,000000	2020-10-29T19:47:25:558
-10,000000	0,000000	639,000000	0,000000	2020-10-29T19:47:25:597
95,000000	0,000000	659,000000	0,000000	2020-10-29T19:47:25:638
-10,000000	0,000000	659,000000	0,000000	2020-10-29T19:47:25:677
-10,000000	0,000000	659,000000	0,000000	2020-10-29T19:47:25:718
-10,000000	0,000000	659,000000	0,000000	2020-10-29T19:47:25:757
-10,000000	0,000000	659,000000	0,000000	2020-10-29T19:47:25:798
-10,000000	0,000000	659,000000	0,000000	2020-10-29T19:47:25:838
-10,000000	0,000000	659,000000	0,000000	2020-10-29T19:47:25:878
-10,000000	0,000000	659,000000	0,000000	2020-10-29T19:47:25:917
-10,000000	0,000000	659,000000	0,000000	2020-10-29T19:47:25:958
-10,000000	0,000000	659,000000	0,000000	2020-10-29T19:47:25:997
-10,000000	0,000000	659,000000	0,000000	2020-10-29T19:47:26:039
-10,000000	0,000000	659,000000	0,000000	2020-10-29T19:47:26:077
-10,000000	0,000000	659,000000	0,000000	2020-10-29T19:47:26:118
-10,000000	0,000000	659,000000	0,000000	2020-10-29T19:47:26:157
-10,000000	0,000000	659,000000	0,000000	2020-10-29T19:47:26:198
-10,000000	0,000000	659,000000	0,000000	2020-10-29T19:47:26:238
-10,000000	0,000000	659,000000	0,000000	2020-10-29T19:47:26:278
-10,000000	0,000000	659,000000	0,000000	2020-10-29T19:47:26:317
-10,000000	0,000000	659,000000	0,000000	2020-10-29T19:47:26:358
-10,000000	0,000000	659,000000	0,000000	2020-10-29T19:47:26:397
-10,000000	0,000000	659,000000	0,000000	2020-10-29T19:47:26:439
-10,000000	0,000000	659,000000	0,000000	2020-10-29T19:47:26:477
-10,000000	0,000000	659,000000	0,000000	2020-10-29T19:47:26:518
-10,000000	0,000000	659,000000	0,000000	2020-10-29T19:47:26:558
-10,000000	0,000000	659,000000	0,000000	2020-10-29T19:47:26:598
-10,000000	0,000000	659,000000	0,000000	2020-10-29T19:47:26:638
-10,000000	0,000000	659,000000	0,000000	2020-10-29T19:47:26:686
-10,000000	0,000000	659,000000	0,000000	2020-10-29T19:47:26:718
-10,000000	0,000000	659,000000	0,000000	2020-10-29T19:47:26:759
-10,000000	0,000000	659,000000	0,000000	2020-10-29T19:47:26:798
-10,000000	0,000000	659,000000	0,000000	2020-10-29T19:47:26:839
-10,000000	0,000000	659,000000	0,000000	2020-10-29T19:47:26:878
-10,000000	0,000000	659,000000	0,000000	2020-10-29T19:47:26:919
-10,000000	0,000000	659,000000	0,000000	2020-10-29T19:47:26:958
-10,000000	0,000000	659,000000	0,000000	2020-10-29T19:47:26:999
-10,000000	0,000000	659,000000	0,000000	2020-10-29T19:47:27:039
-10,000000	0,000000	659,000000	0,000000	2020-10-29T19:47:27:079
-10,000000	0,000000	659,000000	0,000000	2020-10-29T19:47:27:118
-10,000000	0,000000	659,000000	0,000000	2020-10-29T19:47:27:159
-10,000000	0,000000	659,000000	0,000000	2020-10-29T19:47:27:198
-10,000000	0,000000	659,000000	0,000000	2020-10-29T19:47:27:240
-10,000000	0,000000	659,000000	0,000000	2020-10-29T19:47:27:278
-10,000000	0,000000	659,000000	0,000000	2020-10-29T19:47:27:319
-10,000000	0,000000	659,000000	0,000000	2020-10-29T19:47:27:359
-10,000000	0,000000	659,000000	0,000000	2020-10-29T19:47:27:400
-10,000000	0,000000	659,000000	0,000000	2020-10-29T19:47:27:441
-10,000000	0,000000	659,000000	0,000000	2020-10-29T19:47:27:480
-10,000000	0,000000	659,000000	0,000000	2020-10-29T19:47:27:519
-10,000000	0,000000	659,000000	0,000000	2020-10-29T19:47:27:559
-10,000000	0,000000	659,000000	0,000000	2020-10-29T19:47:27:600
-10,000000	0,000000	659,000000	0,000000	2020-10-29T19:47:27:640
-10,000000	0,000000	659,000000	0,000000	2020-10-29T19:47:27:679
-10,000000	0,000000	659,000000	0,000000	2020-10-29T19:47:27:720
-10,000000	0,000000	659,000000	0,000000	2020-10-29T19:47:27:759
-10,000000	0,000000	659,000000	0,000000	2020-10-29T19:47:27:799
-10,000000	0,000000	659,000000	0,000000	2020-10-29T19:47:27:840
-10,000000	0,000000	659,000000	0,000000	2020-10-29T19:47:27:880
-10,000000	0,000000	659,000000	0,000000	2020-10-29T19:47:27:919
-10,000000	0,000000	659,000000	0,000000	2020-10-29T19:47:27:960
-10,000000	0,000000	659,000000	0,000000	2020-10-29T19:47:27:999
-10,000000	0,000000	659,000000	0,000000	2020-10-29T19:47:28:040
-10,000000	0,000000	659,000000	0,000000	2020-10-29T19:47:28:079
-10,000000	0,000000	659,000000	0,000000	2020-10-29T19:47:28:120
-10,000000	0,000000	659,000000	0,000000	2020-10-29T19:47:28:159
-10,000000	0,000000	659,000000	0,000000	2020-10-29T19:47:28:200
-10,000000	0,000000	659,000000	0,000000	2020-10-29T19:47:28:240
-10,000000	0,000000	659,000000	0,000000	2020-10-29T19:47:28:280
-10,000000	0,000000	659,000000	0,000000	2020-10-29T19:47:28:320
-10,000000	0,000000	659,000000	0,000000	2020-10-29T19:47:28:360
-10,000000	0,000000	659,000000	0,000000	2020-10-29T19:47:28:401
94,000000	0,000000	659,000000	0,000000	2020-10-29T19:47:28:442
94,000000	0,000000	659,000000	0,000000	2020-10-29T19:47:28:480
94,000000	0,000000	659,000000	0,000000	2020-10-29T19:47:28:521
94,000000	0,000000	659,000000	0,000000	2020-10-29T19:47:28:560
94,000000	0,000000	659,000000	0,000000	2020-10-29T19:47:28:601
94,000000	0,000000	659,000000	0,000000	2020-10-29T19:47:28:640
94,000000	0,000000	659,000000	0,000000	2020-10-29T19:47:28:681
94,000000	0,000000	659,000000	0,000000	2020-10-29T19:47:28:721
93,000000	0,000000	659,000000	0,000000	2020-10-29T19:47:28:761
93,000000	0,000000	659,000000	0,000000	2020-10-29T19:47:28:800
93,000000	0,000000	659,000000	0,000000	2020-10-29T19:47:28:847
94,000000	0,000000	659,000000	0,000000	2020-10-29T19:47:28:882
93,000000	0,000000	659,000000	0,000000	2020-10-29T19:47:29:201
93,000000	0,000000	659,000000	0,000000	2020-10-29T19:47:29:314
93,000000	0,000000	659,000000	0,000000	2020-10-29T19:47:29:314
93,000000	0,000000	659,000000	0,000000	2020-10-29T19:47:29:316
93,000000	0,000000	659,000000	0,000000	2020-10-29T19:47:29:317
93,000000	0,000000	659,000000	0,000000	2020-10-29T19:47:29:368
93,000000	0,000000	659,000000	0,000000	2020-10-29T19:47:29:369
93,000000	0,000000	659,000000	0,000000	2020-10-29T19:47:29:371
93,000000	0,000000	659,000000	0,000000	2020-10-29T19:47:29:371
93,000000	0,000000	659,000000	0,000000	2020-10-29T19:47:29:372
93,000000	0,000000	659,000000	0,000000	2020-10-29T19:47:29:396
93,000000	0,000000	659,000000	0,000000	2020-10-29T19:47:29:406
93,000000	0,000000	659,000000	0,000000	2020-10-29T19:47:29:407
92,000000	0,000000	659,000000	0,000000	2020-10-29T19:47:29:490
92,000000	0,000000	659,000000	0,000000	2020-10-29T19:47:29:491
92,000000	0,000000	659,000000	0,000000	2020-10-29T19:47:29:580
93,000000	0,000000	659,000000	0,000000	2020-10-29T19:47:29:581
93,000000	0,000000	659,000000	0,000000	2020-10-29T19:47:29:604
92,000000	0,000000	659,000000	0,000000	2020-10-29T19:47:29:665
92,000000	0,000000	659,000000	0,000000	2020-10-29T19:47:29:704
92,000000	0,000000	659,000000	0,000000	2020-10-29T19:47:29:726
92,000000	0,000000	659,000000	0,000000	2020-10-29T19:47:29:760
92,000000	0,000000	659,000000	0,000000	2020-10-29T19:47:29:800
92,000000	0,000000	654,000000	0,000000	2020-10-29T19:47:29:853
92,000000	0,000000	654,000000	0,000000	2020-10-29T19:47:29:880
92,000000	0,000000	654,000000	0,000000	2020-10-29T19:47:29:923
92,000000	0,000000	654,000000	0,000000	2020-10-29T19:47:29:962
92,000000	0,000000	654,000000	0,000000	2020-10-29T19:47:30:076
92,000000	0,000000	654,000000	0,000000	2020-10-29T19:47:30:082
92,000000	0,000000	654,000000	0,000000	2020-10-29T19:47:30:084
92,000000	0,000000	654,000000	0,000000	2020-10-29T19:47:30:172
92,000000	0,000000	654,000000	0,000000	2020-10-29T19:47:30:173
92,000000	0,000000	654,000000	0,000000	2020-10-29T19:47:30:202
92,000000	0,000000	654,000000	0,000000	2020-10-29T19:47:30:241
92,000000	0,000000	654,000000	0,000000	2020-10-29T19:47:30:282
92,000000	0,000000	654,000000	0,000000	2020-10-29T19:47:30:322
92,000000	0,000000	654,000000	0,000000	2020-10-29T19:47:30:363
92,000000	0,000000	654,000000	0,000000	2020-10-29T19:47:30:403
92,000000	0,000000	654,000000	0,000000	2020-10-29T19:47:30:445
92,000000	0,000000	654,000000	0,000000	2020-10-29T19:47:30:482
92,000000	0,000000	654,000000	0,000000	2020-10-29T19:47:30:526
92,000000	0,000000	654,000000	0,000000	2020-10-29T19:47:30:572
92,000000	0,000000	654,000000	0,000000	2020-10-29T19:47:30:614
92,000000	0,000000	654,000000	0,000000	2020-10-29T19:47:30:647
92,000000	0,000000	654,000000	0,000000	2020-10-29T19:47:30:684
92,000000	0,000000	654,000000	0,000000	2020-10-29T19:47:30:722
92,000000	0,000000	654,000000	0,000000	2020-10-29T19:47:30:762
92,000000	0,000000	654,000000	0,000000	2020-10-29T19:47:30:802
92,000000	0,000000	654,000000	0,000000	2020-10-29T19:47:30:842
92,000000	0,000000	654,000000	0,000000	2020-10-29T19:47:30:882
92,000000	0,000000	654,000000	0,000000	2020-10-29T19:47:30:928
92,000000	0,000000	654,000000	0,000000	2020-10-29T19:47:30:961
92,000000	0,000000	654,000000	0,000000	2020-10-29T19:47:31:027
92,000000	0,000000	654,000000	0,000000	2020-10-29T19:47:31:064
92,000000	0,000000	654,000000	0,000000	2020-10-29T19:47:31:082
93,000000	0,000000	654,000000	0,000000	2020-10-29T19:47:31:120
93,000000	0,000000	654,000000	0,000000	2020-10-29T19:47:31:162
92,000000	0,000000	654,000000	0,000000	2020-10-29T19:47:31:201
92,000000	0,000000	623,000000	0,000000	2020-10-29T19:47:31:243
92,000000	0,000000	623,000000	0,000000	2020-10-29T19:47:31:281
92,000000	0,000000	623,000000	0,000000	2020-10-29T19:47:31:322
92,000000	0,000000	623,000000	0,000000	2020-10-29T19:47:31:360
92,000000	0,000000	623,000000	0,000000	2020-10-29T19:47:31:401
93,000000	0,000000	623,000000	0,000000	2020-10-29T19:47:31:443
93,000000	0,000000	623,000000	0,000000	2020-10-29T19:47:31:481
92,000000	0,000000	623,000000	0,000000	2020-10-29T19:47:31:525
92,000000	0,000000	623,000000	0,000000	2020-10-29T19:47:31:684
92,000000	0,000000	623,000000	0,000000	2020-10-29T19:47:31:684
92,000000	0,000000	623,000000	0,000000	2020-10-29T19:47:31:685
93,000000	0,000000	623,000000	0,000000	2020-10-29T19:47:31:686
92,000000	0,000000	623,000000	0,000000	2020-10-29T19:47:31:724
92,000000	0,000000	623,000000	0,000000	2020-10-29T19:47:31:765
92,000000	0,000000	623,000000	0,000000	2020-10-29T19:47:31:802
92,000000	0,000000	623,000000	0,000000	2020-10-29T19:47:31:842
92,000000	0,000000	623,000000	0,000000	2020-10-29T19:47:31:883
92,000000	0,000000	623,000000	0,000000	2020-10-29T19:47:31:926
92,000000	0,000000	623,000000	0,000000	2020-10-29T19:47:31:974
92,000000	0,000000	623,000000	0,000000	2020-10-29T19:47:32:044
92,000000	0,000000	623,000000	0,000000	2020-10-29T19:47:32:048
92,000000	0,000000	623,000000	0,000000	2020-10-29T19:47:32:082
92,000000	0,000000	623,000000	0,000000	2020-10-29T19:47:32:123
92,000000	0,000000	623,000000	0,000000	2020-10-29T19:47:32:164
92,000000	0,000000	623,000000	0,000000	2020-10-29T19:47:32:204
92,000000	0,000000	623,000000	0,000000	2020-10-29T19:47:32:245
92,000000	0,000000	623,000000	0,000000	2020-10-29T19:47:32:285
92,000000	0,000000	623,000000	0,000000	2020-10-29T19:47:32:324
92,000000	0,000000	623,000000	0,000000	2020-10-29T19:47:32:365
92,000000	0,000000	623,000000	0,000000	2020-10-29T19:47:32:404
91,000000	0,000000	623,000000	0,000000	2020-10-29T19:47:32:447
91,000000	0,000000	623,000000	0,000000	2020-10-29T19:47:32:484
91,000000	0,000000	623,000000	0,000000	2020-10-29T19:47:32:526
91,000000	0,000000	623,000000	0,000000	2020-10-29T19:47:32:564
91,000000	0,000000	623,000000	0,000000	2020-10-29T19:47:32:606
91,000000	0,000000	623,000000	0,000000	2020-10-29T19:47:32:645
91,000000	0,000000	623,000000	0,000000	2020-10-29T19:47:32:686
91,000000	0,000000	623,000000	0,000000	2020-10-29T19:47:32:734
91,000000	0,000000	623,000000	0,000000	2020-10-29T19:47:32:764
91,000000	0,000000	623,000000	0,000000	2020-10-29T19:47:32:804
91,000000	0,000000	623,000000	0,000000	2020-10-29T19:47:32:859
91,000000	0,000000	623,000000	0,000000	2020-10-29T19:47:32:883
91,000000	0,000000	623,000000	0,000000	2020-10-29T19:47:32:934
91,000000	0,000000	623,000000	0,000000	2020-10-29T19:47:32:964
91,000000	0,000000	623,000000	0,000000	2020-10-29T19:47:33:006
91,000000	0,000000	623,000000	0,000000	2020-10-29T19:47:33:044
91,000000	0,000000	623,000000	0,000000	2020-10-29T19:47:33:084
91,000000	0,000000	623,000000	0,000000	2020-10-29T19:47:33:127
91,000000	0,000000	623,000000	0,000000	2020-10-29T19:47:33:166
91,000000	0,000000	623,000000	0,000000	2020-10-29T19:47:33:205
90,000000	0,000000	623,000000	0,000000	2020-10-29T19:47:33:247
91,000000	0,000000	623,000000	0,000000	2020-10-29T19:47:33:285
91,000000	0,000000	623,000000	0,000000	2020-10-29T19:47:33:325
91,000000	0,000000	623,000000	0,000000	2020-10-29T19:47:33:365
91,000000	0,000000	623,000000	0,000000	2020-10-29T19:47:33:406
91,000000	0,000000	623,000000	0,000000	2020-10-29T19:47:33:445
91,000000	0,000000	623,000000	0,000000	2020-10-29T19:47:33:486
90,000000	0,000000	623,000000	0,000000	2020-10-29T19:47:33:525
90,000000	0,000000	623,000000	0,000000	2020-10-29T19:47:33:573
90,000000	0,000000	623,000000	0,000000	2020-10-29T19:47:33:605
90,000000	0,000000	623,000000	0,000000	2020-10-29T19:47:33:648
90,000000	0,000000	623,000000	0,000000	2020-10-29T19:47:33:683
90,000000	0,000000	623,000000	0,000000	2020-10-29T19:47:33:725
90,000000	0,000000	623,000000	0,000000	2020-10-29T19:47:33:765
90,000000	0,000000	623,000000	0,000000	2020-10-29T19:47:33:805
90,000000	0,000000	623,000000	0,000000	2020-10-29T19:47:33:846
