x	y	z	ts
0,796810	0,739382	9,576077	2020-10-29T19:45:22:162
0,885344	0,736989	9,564112	2020-10-29T19:45:22:162
0,693919	0,899701	9,554541	2020-10-29T19:45:22:163
0,782453	0,665205	9,657433	2020-10-29T19:45:22:163
0,708275	0,775275	9,614362	2020-10-29T19:45:22:164
0,641276	0,847059	9,523434	2020-10-29T19:45:22:169
0,751346	0,741775	9,480364	2020-10-29T19:45:22:188
0,538385	0,758525	9,528220	2020-10-29T19:45:22:220
0,519243	0,744168	9,540184	2020-10-29T19:45:22:231
0,433101	0,806381	9,556933	2020-10-29T19:45:22:249
0,327817	0,825524	9,645468	2020-10-29T19:45:22:269
0,425922	0,914058	9,528220	2020-10-29T19:45:22:289
0,382852	1,105484	9,403792	2020-10-29T19:45:22:310
0,232104	1,160519	9,265009	2020-10-29T19:45:22:330
0,143569	1,036092	9,274581	2020-10-29T19:45:22:349
-0,009571	0,940379	9,480364	2020-10-29T19:45:22:369
-0,122034	0,887737	9,516255	2020-10-29T19:45:22:389
-0,074178	0,825524	9,480364	2020-10-29T19:45:22:409
-0,023928	0,890130	9,351151	2020-10-29T19:45:22:430
0,124427	0,768096	9,128618	2020-10-29T19:45:22:449
0,256032	0,942772	8,989835	2020-10-29T19:45:22:469
0,217747	0,926022	8,597411	2020-10-29T19:45:22:489
0,279960	0,870987	8,164310	2020-10-29T19:45:22:509
0,270389	1,378266	7,984849	2020-10-29T19:45:22:529
-0,521635	0,533599	7,862815	2020-10-29T19:45:22:549
1,820938	-0,502493	7,075576	2020-10-29T19:45:22:570
3,531806	2,342573	5,730811	2020-10-29T19:45:22:589
-2,045863	1,471586	7,812566	2020-10-29T19:45:22:610
-1,543371	-0,588634	6,965507	2020-10-29T19:45:22:630
0,995414	-1,198804	6,343372	2020-10-29T19:45:22:649
1,050449	-1,567299	6,183054	2020-10-29T19:45:22:669
1,093520	-1,304088	6,005985	2020-10-29T19:45:22:689
2,038685	-0,220140	5,486742	2020-10-29T19:45:22:709
2,593820	0,617348	5,142176	2020-10-29T19:45:22:730
3,239882	0,423530	5,036892	2020-10-29T19:45:22:750
4,247260	-0,296710	5,132604	2020-10-29T19:45:22:770
5,190032	-0,507278	5,106283	2020-10-29T19:45:22:789
6,226124	-0,131605	4,862216	2020-10-29T19:45:22:810
7,420143	-0,246461	4,254438	2020-10-29T19:45:22:830
8,807980	-1,665405	4,031906	2020-10-29T19:45:22:850
10,284351	-2,720639	4,192225	2020-10-29T19:45:22:870
12,208181	-4,362115	4,273581	2020-10-29T19:45:22:889
14,041083	-7,683353	4,936393	2020-10-29T19:45:22:959
13,988441	-6,996613	4,792823	2020-10-29T19:45:22:960
13,653446	-5,166104	5,125426	2020-10-29T19:45:22:960
13,564911	-3,328416	4,984250	2020-10-29T19:45:22:972
14,337792	-1,775474	3,842873	2020-10-29T19:45:22:994
16,460228	-2,593820	2,857030	2020-10-29T19:45:23:014
17,522640	-4,622933	2,354537	2020-10-29T19:45:23:031
16,895721	-5,934200	2,579463	2020-10-29T19:45:23:051
15,445671	-5,819345	2,931208	2020-10-29T19:45:23:069
14,577076	-5,199604	2,701497	2020-10-29T19:45:23:090
13,986048	-4,493721	2,419144	2020-10-29T19:45:23:109
13,095919	-3,704089	2,612962	2020-10-29T19:45:23:130
11,973685	-3,113062	2,689533	2020-10-29T19:45:23:149
10,817951	-2,653640	2,790031	2020-10-29T19:45:23:170
9,767502	-2,270789	2,864209	2020-10-29T19:45:23:189
8,815158	-2,388037	2,589034	2020-10-29T19:45:23:210
8,092526	-2,423929	2,167897	2020-10-29T19:45:23:231
7,348359	-2,550749	2,258825	2020-10-29T19:45:23:250
7,250252	-2,804388	2,519642	2020-10-29T19:45:23:271
7,714460	-3,182454	2,268396	2020-10-29T19:45:23:290
8,398808	-3,113062	2,483750	2020-10-29T19:45:23:311
8,913264	-2,584249	2,565106	2020-10-29T19:45:23:330
9,229117	-2,163112	2,842674	2020-10-29T19:45:23:351
9,320045	-2,134398	2,538785	2020-10-29T19:45:23:370
9,480364	-2,684747	2,447858	2020-10-29T19:45:23:391
9,583255	-3,744767	2,526821	2020-10-29T19:45:23:410
9,707682	-4,804788	3,495914	2020-10-29T19:45:23:431
9,894321	-4,302295	3,988836	2020-10-29T19:45:23:450
10,559525	-1,998007	4,331009	2020-10-29T19:45:23:471
11,093125	1,859223	4,074977	2020-10-29T19:45:23:491
10,691131	2,931208	3,866802	2020-10-29T19:45:23:514
10,600205	0,736989	2,036292	2020-10-29T19:45:23:532
11,521441	-1,931008	1,368695	2020-10-29T19:45:23:551
12,117253	-3,249453	0,334995	2020-10-29T19:45:23:570
10,997414	-3,385844	0,303888	2020-10-29T19:45:23:591
10,030712	-3,249453	0,368495	2020-10-29T19:45:23:611
9,573684	-3,223132	0,275175	2020-10-29T19:45:23:633
9,142976	-3,158526	0,083749	2020-10-29T19:45:23:652
8,575876	-2,880959	-0,031107	2020-10-29T19:45:23:673
8,161918	-2,653640	-0,203390	2020-10-29T19:45:23:692
8,087741	-2,541178	-0,258425	2020-10-29T19:45:23:713
8,185846	-2,158326	-0,287139	2020-10-29T19:45:23:732
8,147561	-2,127219	0,028714	2020-10-29T19:45:23:753
8,154739	-2,266003	0,143569	2020-10-29T19:45:23:773
8,343772	-2,562713	0,040678	2020-10-29T19:45:23:792
8,401200	-2,610569	-0,062213	2020-10-29T19:45:23:812
8,343772	-2,842674	-0,062213	2020-10-29T19:45:23:836
8,630912	-1,706082	2,127219	2020-10-29T19:45:31:131
8,422735	-1,344766	2,376073	2020-10-29T19:45:31:132
8,688338	-3,196811	3,522235	2020-10-29T19:45:31:133
9,135797	-4,201797	4,570292	2020-10-29T19:45:31:150
8,903693	-3,299703	4,613362	2020-10-29T19:45:31:168
8,461020	-2,852244	3,792624	2020-10-29T19:45:31:188
8,212167	-3,735196	3,244668	2020-10-29T19:45:31:206
8,446664	-4,718646	2,703890	2020-10-29T19:45:31:229
9,131011	-5,180461	2,318645	2020-10-29T19:45:31:244
9,518648	-5,474778	2,134398	2020-10-29T19:45:31:268
9,848858	-5,819345	1,854438	2020-10-29T19:45:31:286
10,023535	-5,508278	1,241875	2020-10-29T19:45:31:310
9,894321	-4,917251	0,667598	2020-10-29T19:45:31:326
9,506684	-4,354938	0,509671	2020-10-29T19:45:31:348
9,099905	-3,842873	0,547956	2020-10-29T19:45:31:365
8,822337	-3,309274	0,622134	2020-10-29T19:45:31:389
8,654840	-3,354738	0,815953	2020-10-29T19:45:31:406
8,592626	-3,536592	0,981057	2020-10-29T19:45:31:428
8,470592	-3,342773	1,031307	2020-10-29T19:45:31:445
8,379664	-3,227918	0,911665	2020-10-29T19:45:31:469
7,944171	-2,971886	0,787239	2020-10-29T19:45:31:486
7,417750	-2,110470	1,002593	2020-10-29T19:45:31:508
6,896115	-2,024328	1,282553	2020-10-29T19:45:31:526
6,862615	-3,058028	1,473979	2020-10-29T19:45:31:549
7,188039	-4,615755	1,521835	2020-10-29T19:45:31:565
7,369894	-5,670990	1,316052	2020-10-29T19:45:31:588
7,690532	-6,226124	1,000200	2020-10-29T19:45:31:606
8,396415	-6,175875	0,452243	2020-10-29T19:45:31:629
11,772687	-5,855237	-0,430708	2020-10-29T19:45:31:647
17,264215	-6,872187	0,157926	2020-10-29T19:45:31:668
16,125233	-8,214561	1,012164	2020-10-29T19:45:31:687
8,520842	-6,321837	2,388037	2020-10-29T19:45:31:709
6,051448	-6,027520	1,969293	2020-10-29T19:45:31:726
6,321837	-5,828916	1,605584	2020-10-29T19:45:31:748
7,793423	-5,857630	1,627119	2020-10-29T19:45:31:766
8,865408	-6,137590	2,079363	2020-10-29T19:45:31:789
9,047262	-6,238089	2,598605	2020-10-29T19:45:31:806
8,997013	-6,422336	2,581856	2020-10-29T19:45:31:828
8,913264	-6,434300	2,225325	2020-10-29T19:45:31:846
8,671589	-6,376873	2,009971	2020-10-29T19:45:31:869
8,779266	-6,429514	2,352145	2020-10-29T19:45:31:887
9,116654	-5,618347	3,306881	2020-10-29T19:45:31:908
9,396614	-4,323831	3,627519	2020-10-29T19:45:31:926
9,619147	-4,120440	3,256632	2020-10-29T19:45:31:949
9,042477	-4,474578	3,553342	2020-10-29T19:45:31:966
8,377272	-5,316852	5,036892	2020-10-29T19:45:31:990
8,506484	-6,417551	6,178268	2020-10-29T19:45:32:006
8,441878	-5,761917	6,573084	2020-10-29T19:45:32:029
7,922636	-4,819145	6,266802	2020-10-29T19:45:32:046
7,458428	-4,510471	6,245267	2020-10-29T19:45:32:069
7,113862	-3,940979	6,118448	2020-10-29T19:45:32:086
6,955935	-3,780660	5,627919	2020-10-29T19:45:32:110
6,496514	-3,512664	4,546363	2020-10-29T19:45:32:128
6,173482	-3,806981	4,307081	2020-10-29T19:45:32:150
6,372087	-4,929214	6,003592	2020-10-29T19:45:32:166
6,482157	-4,271189	6,994221	2020-10-29T19:45:32:191
6,376873	-3,436093	6,096912	2020-10-29T19:45:32:206
5,826523	-3,522235	6,094519	2020-10-29T19:45:32:229
6,034698	-3,792624	6,001199	2020-10-29T19:45:32:247
6,195018	-3,187240	6,070591	2020-10-29T19:45:32:269
5,314459	-3,156133	5,776274	2020-10-29T19:45:32:287
3,598805	-3,132205	5,321638	2020-10-29T19:45:32:309
3,036492	-3,034099	5,642276	2020-10-29T19:45:32:327
3,625126	-2,354537	6,072984	2020-10-29T19:45:32:350
3,749553	-1,502693	6,429514	2020-10-29T19:45:32:369
3,340380	-1,588834	6,903293	2020-10-29T19:45:32:389
3,665804	-1,756332	6,800402	2020-10-29T19:45:32:406
4,177868	-1,564906	6,144768	2020-10-29T19:45:32:430
4,541577	-0,954736	6,831509	2020-10-29T19:45:32:446
4,271189	-0,203390	7,176075	2020-10-29T19:45:32:469
4,232903	-0,555135	7,554141	2020-10-29T19:45:32:488
4,213760	-0,586242	7,642675	2020-10-29T19:45:32:510
3,907479	-0,241675	7,235896	2020-10-29T19:45:32:527
3,433701	0,179462	7,168896	2020-10-29T19:45:32:549
3,495914	-0,038285	7,671390	2020-10-29T19:45:32:566
4,242475	-0,445065	7,623533	2020-10-29T19:45:32:590
4,742575	-0,251246	7,097112	2020-10-29T19:45:32:607
4,864608	-0,038285	6,494121	2020-10-29T19:45:32:629
5,041678	-0,205783	6,530013	2020-10-29T19:45:32:647
5,266603	-0,299103	6,003592	2020-10-29T19:45:32:670
4,965107	-0,952343	6,458229	2020-10-29T19:45:32:687
5,053641	0,669990	8,630912	2020-10-29T19:45:32:710
5,749953	0,526421	9,975677	2020-10-29T19:45:32:727
5,288138	-1,117448	9,422935	2020-10-29T19:45:32:750
4,524827	-0,725025	8,681160	2020-10-29T19:45:32:767
3,895515	-1,371087	9,379865	2020-10-29T19:45:32:790
3,172883	-2,234896	9,413363	2020-10-29T19:45:32:807
2,478964	-2,428715	10,159925	2020-10-29T19:45:32:831
1,691726	-1,330409	10,396815	2020-10-29T19:45:32:848
1,146162	-0,933201	10,497313	2020-10-29T19:45:32:869
0,363709	-0,866202	10,442278	2020-10-29T19:45:32:887
-0,385244	-0,641276	10,157533	2020-10-29T19:45:32:910
-0,777667	-0,971486	10,078569	2020-10-29T19:45:32:927
-1,057628	-1,540978	10,281959	2020-10-29T19:45:32:949
-1,232304	-1,643869	10,578669	2020-10-29T19:45:32:967
-1,895115	-1,222732	10,427922	2020-10-29T19:45:32:990
-2,160719	-1,148555	9,853643	2020-10-29T19:45:33:008
-2,333002	-0,559920	8,640482	2020-10-29T19:45:33:030
-3,115455	-1,519442	10,734202	2020-10-29T19:45:33:047
-3,902694	-2,459821	12,567105	2020-10-29T19:45:33:070
-3,531806	-0,887737	9,937392	2020-10-29T19:45:33:088
-3,998406	0,672383	8,997013	2020-10-29T19:45:33:109
-5,101498	-1,828116	9,489935	2020-10-29T19:45:33:127
-5,029713	-2,471786	9,382257	2020-10-29T19:45:33:151
-5,010571	-2,043471	9,037691	2020-10-29T19:45:33:167
-5,096712	-1,842474	9,293723	2020-10-29T19:45:33:190
-5,163712	-1,366302	8,551948	2020-10-29T19:45:33:207
-5,101498	-0,837488	8,329416	2020-10-29T19:45:33:231
-5,297709	-0,600598	7,922636	2020-10-29T19:45:33:247
-6,077770	-0,720240	7,295716	2020-10-29T19:45:33:270
-7,956135	-0,923629	7,539784	2020-10-29T19:45:33:288
-7,884350	-1,512264	7,109076	2020-10-29T19:45:33:311
-6,869793	-1,485943	6,977471	2020-10-29T19:45:33:329
-6,453443	-0,837488	6,809973	2020-10-29T19:45:33:349
-6,946364	-0,823131	6,929615	2020-10-29T19:45:33:368
-7,113862	-1,136591	7,094719	2020-10-29T19:45:33:391
-7,396214	-0,753739	7,049256	2020-10-29T19:45:33:407
-7,477571	-0,253639	6,814759	2020-10-29T19:45:33:430
-7,489535	-0,803988	6,716653	2020-10-29T19:45:33:447
-8,051848	-1,067199	6,326623	2020-10-29T19:45:33:470
-8,240881	-1,581656	6,460621	2020-10-29T19:45:33:488
-8,496914	-1,103091	5,936593	2020-10-29T19:45:33:510
-7,874779	-0,658026	5,869594	2020-10-29T19:45:33:528
-7,546963	-0,258425	6,151947	2020-10-29T19:45:33:551
-7,156933	-0,090927	6,393622	2020-10-29T19:45:33:570
-6,984650	-0,811167	6,632904	2020-10-29T19:45:33:590
-7,027720	-1,653440	6,355337	2020-10-29T19:45:33:608
-7,365108	-1,715654	6,740582	2020-10-29T19:45:33:631
-8,240881	-2,309074	6,589834	2020-10-29T19:45:33:648
-8,506484	-1,770689	6,410372	2020-10-29T19:45:33:670
-7,814958	-1,371087	6,190232	2020-10-29T19:45:33:688
-7,429714	-0,916451	6,128019	2020-10-29T19:45:33:711
-7,211967	-0,763310	6,965507	2020-10-29T19:45:33:728
-7,104291	-1,083949	7,326823	2020-10-29T19:45:33:751
-7,283752	-0,583849	7,338787	2020-10-29T19:45:33:768
-6,656832	-0,098106	7,018148	2020-10-29T19:45:33:792
-6,441479	-1,359123	8,092526	2020-10-29T19:45:33:809
-4,534399	-4,005585	10,516455	2020-10-29T19:45:33:830
-2,663212	-4,338188	11,600404	2020-10-29T19:45:33:848
-1,328017	-4,445865	10,738988	2020-10-29T19:45:33:872
-1,806581	-4,570292	9,717253	2020-10-29T19:45:33:889
-2,924029	-2,603391	8,425128	2020-10-29T19:45:33:910
-2,646462	-1,911865	8,334201	2020-10-29T19:45:33:928
-2,033899	-3,646662	10,155140	2020-10-29T19:45:33:951
-2,208575	-5,620740	11,892329	2020-10-29T19:45:33:968
-2,734996	-4,218546	9,241080	2020-10-29T19:45:33:990
-1,627119	-4,345366	8,221739	2020-10-29T19:45:34:009
-0,744168	-4,273581	8,458629	2020-10-29T19:45:34:031
-0,090927	-1,531406	8,346166	2020-10-29T19:45:34:049
0,488136	-1,780260	8,219346	2020-10-29T19:45:34:070
2,000400	-2,780460	9,657433	2020-10-29T19:45:34:088
1,957329	-2,675175	10,671989	2020-10-29T19:45:34:111
2,938386	-3,730411	10,456635	2020-10-29T19:45:34:128
3,897908	-4,721039	8,786445	2020-10-29T19:45:34:150
5,022535	-3,940979	8,257630	2020-10-29T19:45:34:168
5,053641	-2,490928	9,169296	2020-10-29T19:45:34:191
5,532206	-2,201397	9,631111	2020-10-29T19:45:34:208
5,680561	-2,440679	9,544970	2020-10-29T19:45:34:231
5,556134	-2,502892	8,867801	2020-10-29T19:45:34:249
4,814359	-2,165504	7,625926	2020-10-29T19:45:34:271
5,103891	-1,823331	7,125826	2020-10-29T19:45:34:291
5,788238	-1,677369	7,891530	2020-10-29T19:45:34:310
6,472585	-1,387837	8,772088	2020-10-29T19:45:34:365
5,953342	-1,576870	8,480164	2020-10-29T19:45:34:398
5,776274	-1,258625	7,642675	2020-10-29T19:45:34:399
6,269196	-0,538385	7,223931	2020-10-29T19:45:34:412
6,597012	0,026321	6,893722	2020-10-29T19:45:34:413
6,312266	-0,270389	6,077770	2020-10-29T19:45:34:432
5,709275	-0,550349	5,221139	2020-10-29T19:45:34:448
5,515456	-0,289532	3,857230	2020-10-29T19:45:34:470
5,252246	2,065006	1,433301	2020-10-29T19:45:34:488
5,455636	4,230510	-0,533599	2020-10-29T19:45:34:512
5,893522	0,289532	1,115055	2020-10-29T19:45:34:531
5,819345	-5,359922	0,519243	2020-10-29T19:45:34:551
6,257231	-5,682954	0,650848	2020-10-29T19:45:34:569
7,781459	-4,711468	1,844866	2020-10-29T19:45:34:592
8,267202	-1,112662	2,354537	2020-10-29T19:45:34:608
7,362715	0,133998	2,763710	2020-10-29T19:45:34:631
6,108876	-1,402194	3,378666	2020-10-29T19:45:34:649
6,230910	-2,423929	4,319045	2020-10-29T19:45:34:671
6,965507	-2,146362	4,613362	2020-10-29T19:45:34:689
7,063612	-1,720440	4,345366	2020-10-29T19:45:34:711
7,068398	-1,983650	4,149154	2020-10-29T19:45:34:729
7,812566	-2,481357	3,909872	2020-10-29T19:45:34:752
9,142976	-3,369094	4,747360	2020-10-29T19:45:34:769
10,418350	-3,407379	6,855437	2020-10-29T19:45:34:792
10,844273	-3,062813	7,810174	2020-10-29T19:45:34:809
10,674382	-3,235096	7,707282	2020-10-29T19:45:34:832
10,377672	-2,775674	6,987042	2020-10-29T19:45:34:849
10,523634	-1,186840	5,754738	2020-10-29T19:45:34:871
11,172089	-0,985843	5,168497	2020-10-29T19:45:34:890
11,952149	-1,093520	5,592027	2020-10-29T19:45:34:912
12,083755	-1,117448	6,041877	2020-10-29T19:45:34:929
11,133803	-0,799203	6,008378	2020-10-29T19:45:34:951
10,174281	-1,074377	5,472386	2020-10-29T19:45:34:969
9,741181	-1,730011	5,134997	2020-10-29T19:45:34:992
9,609575	-2,172683	4,914857	2020-10-29T19:45:35:011
9,506684	-2,395216	4,785645	2020-10-29T19:45:35:031
9,710074	-2,600998	4,469792	2020-10-29T19:45:35:049
9,934999	-2,945565	4,110869	2020-10-29T19:45:35:072
10,399208	-3,294917	3,799802	2020-10-29T19:45:35:089
10,518847	-3,558127	3,598805	2020-10-29T19:45:35:111
10,624132	-3,845266	3,364309	2020-10-29T19:45:35:130
11,026128	-3,900301	3,345166	2020-10-29T19:45:35:152
11,497513	-3,708875	3,127419	2020-10-29T19:45:35:169
11,109876	-3,385844	2,981457	2020-10-29T19:45:35:192
10,363315	-3,108276	2,732604	2020-10-29T19:45:35:209
9,793823	-3,041277	2,464607	2020-10-29T19:45:35:232
9,616754	-2,888137	2,062613	2020-10-29T19:45:35:252
9,767502	-2,806781	1,454836	2020-10-29T19:45:35:271
9,966106	-2,667997	0,887737	2020-10-29T19:45:35:289
10,320245	-2,720639	0,579063	2020-10-29T19:45:35:313
10,533205	-3,022135	0,320638	2020-10-29T19:45:35:330
10,746166	-3,005385	0,172283	2020-10-29T19:45:35:352
10,755738	-2,842674	0,105284	2020-10-29T19:45:35:370
10,863414	-2,725425	0,177069	2020-10-29T19:45:35:392
11,351551	-2,928815	0,442672	2020-10-29T19:45:35:409
12,052648	-3,562913	0,878166	2020-10-29T19:45:35:432
11,837293	-3,682554	0,313460	2020-10-29T19:45:35:450
9,760324	-3,292524	0,256032	2020-10-29T19:45:35:473
9,690931	-3,342773	0,667598	2020-10-29T19:45:35:492
10,839487	-3,275774	1,356731	2020-10-29T19:45:35:512
12,045469	-2,591427	1,868794	2020-10-29T19:45:35:530
12,550355	-2,179861	1,749153	2020-10-29T19:45:35:553
11,684153	-2,036292	1,854438	2020-10-29T19:45:35:570
10,425529	-2,084148	1,962115	2020-10-29T19:45:35:592
9,999605	-1,974079	1,983650	2020-10-29T19:45:35:610
10,090532	-1,529014	1,730011	2020-10-29T19:45:35:633
10,152746	-0,844666	1,466800	2020-10-29T19:45:35:650
9,975677	0,007178	1,593620	2020-10-29T19:45:35:672
9,796216	0,588634	2,883351	2020-10-29T19:45:35:690
8,638089	0,933201	3,110669	2020-10-29T19:45:35:713
7,491928	0,859023	2,991028	2020-10-29T19:45:35:731
6,924829	0,241675	2,857030	2020-10-29T19:45:35:752
6,783652	-0,232104	3,113062	2020-10-29T19:45:35:770
6,905686	-0,227318	3,038885	2020-10-29T19:45:35:794
6,623333	-1,328017	3,775874	2020-10-29T19:45:35:810
6,599405	-3,153740	4,503292	2020-10-29T19:45:35:833
6,640083	-3,613162	5,034499	2020-10-29T19:45:35:850
6,836295	-2,756532	5,120641	2020-10-29T19:45:35:872
6,865008	-2,397608	4,974678	2020-10-29T19:45:35:890
6,659225	-2,567499	4,914857	2020-10-29T19:45:35:912
6,463014	-2,976671	4,819145	2020-10-29T19:45:35:930
6,530013	-3,211168	5,209175	2020-10-29T19:45:35:953
6,247660	-3,101098	4,965107	2020-10-29T19:45:35:974
5,876772	-3,189633	4,625326	2020-10-29T19:45:35:992
5,505885	-3,381058	4,433900	2020-10-29T19:45:36:010
5,374279	-3,570091	4,491328	2020-10-29T19:45:36:033
5,778666	-4,185047	4,603791	2020-10-29T19:45:36:050
6,458229	-4,630112	4,414758	2020-10-29T19:45:36:072
6,843473	-4,687540	4,194618	2020-10-29T19:45:36:091
7,515855	-4,577469	3,957729	2020-10-29T19:45:36:113
8,922836	-4,555934	3,493521	2020-10-29T19:45:36:131
11,315658	-4,816752	3,708875	2020-10-29T19:45:36:152
13,909478	-4,972286	3,747160	2020-10-29T19:45:36:170
15,751952	-5,017749	3,500700	2020-10-29T19:45:36:194
16,290337	-5,084748	3,409772	2020-10-29T19:45:36:213
14,818751	-4,972286	3,622734	2020-10-29T19:45:36:232
11,523834	-5,032106	3,670590	2020-10-29T19:45:36:251
9,437292	-4,405186	4,094120	2020-10-29T19:45:36:273
10,222138	-3,479164	3,701697	2020-10-29T19:45:36:291
11,535798	-3,170490	3,309274	2020-10-29T19:45:36:313
11,437693	-3,357130	3,084348	2020-10-29T19:45:36:331
11,093125	-3,139383	2,651247	2020-10-29T19:45:36:353
10,935200	-2,830709	2,378466	2020-10-29T19:45:36:371
10,490135	-2,467000	2,627320	2020-10-29T19:45:36:393
9,920642	-2,294717	3,172883	2020-10-29T19:45:36:410
9,214760	-2,026721	3,713661	2020-10-29T19:45:36:433
8,757731	-1,995614	3,826123	2020-10-29T19:45:36:451
8,472985	-2,402394	3,653840	2020-10-29T19:45:36:472
8,377272	-2,615355	3,412165	2020-10-29T19:45:36:491
8,315059	-2,677568	3,144169	2020-10-29T19:45:36:513
8,226524	-2,723032	3,024528	2020-10-29T19:45:36:532
7,549356	-2,644069	3,069991	2020-10-29T19:45:36:553
7,341179	-2,251646	2,876173	2020-10-29T19:45:36:571
7,223931	-2,098505	2,653640	2020-10-29T19:45:36:594
7,324430	-1,880759	2,297110	2020-10-29T19:45:36:611
7,420143	-1,730011	2,084148	2020-10-29T19:45:36:633
7,223931	-1,359123	2,349752	2020-10-29T19:45:36:650
7,599605	-2,053042	2,419144	2020-10-29T19:45:36:673
7,848458	-1,904687	2,330609	2020-10-29T19:45:36:692
8,480164	-2,175076	2,172683	2020-10-29T19:45:36:713
8,884550	-1,971686	1,974079	2020-10-29T19:45:36:731
9,166903	-1,691726	2,148755	2020-10-29T19:45:36:754
9,415757	-1,797010	2,337788	2020-10-29T19:45:36:776
9,820145	-1,770689	2,170290	2020-10-29T19:45:36:793
11,447264	-1,885544	1,940579	2020-10-29T19:45:36:811
13,789837	-1,971686	1,442872	2020-10-29T19:45:36:834
14,864214	-2,299503	1,347159	2020-10-29T19:45:36:851
12,409179	-2,404787	1,969293	2020-10-29T19:45:36:873
9,348758	-2,189433	2,790031	2020-10-29T19:45:36:891
8,023134	-2,311467	3,024528	2020-10-29T19:45:36:914
8,451449	-2,266003	2,785245	2020-10-29T19:45:36:932
9,317651	-1,725225	2,400001	2020-10-29T19:45:36:953
9,674182	-1,658226	2,041078	2020-10-29T19:45:36:971
9,023334	-2,060220	1,631905	2020-10-29T19:45:36:995
8,439486	-2,170290	1,337588	2020-10-29T19:45:37:011
8,427521	-1,904687	0,990629	2020-10-29T19:45:37:033
9,104690	-1,450050	1,012164	2020-10-29T19:45:37:051
9,712467	-1,361516	0,780060	2020-10-29T19:45:37:074
10,179067	-1,823331	0,698704	2020-10-29T19:45:37:091
10,269995	-2,732604	0,557528	2020-10-29T19:45:37:113
10,243673	-3,572484	0,461815	2020-10-29T19:45:37:131
10,068997	-4,168297	0,744168	2020-10-29T19:45:37:155
9,631111	-4,759324	1,713261	2020-10-29T19:45:37:172
9,341579	-5,271388	3,273381	2020-10-29T19:45:37:193
9,229117	-5,644669	4,319045	2020-10-29T19:45:37:211
9,269794	-5,714060	4,400401	2020-10-29T19:45:37:234
9,384650	-5,608776	4,481757	2020-10-29T19:45:37:252
9,353544	-5,395815	4,768896	2020-10-29T19:45:37:274
9,052048	-4,716253	4,922036	2020-10-29T19:45:37:292
9,114261	-3,859623	4,759324	2020-10-29T19:45:37:315
9,564112	-2,699104	4,369294	2020-10-29T19:45:37:332
9,985250	-1,459622	3,984050	2020-10-29T19:45:37:355
10,418350	-0,899701	3,586841	2020-10-29T19:45:37:372
10,607382	-0,557528	3,151347	2020-10-29T19:45:37:396
10,916058	-0,679562	2,665605	2020-10-29T19:45:37:413
12,914064	-1,442872	2,876173	2020-10-29T19:45:37:434
15,012569	-2,234896	2,974278	2020-10-29T19:45:37:452
13,907085	-2,440679	3,220739	2020-10-29T19:45:37:475
11,846866	-2,409572	3,692125	2020-10-29T19:45:37:492
11,045268	-2,450250	3,457629	2020-10-29T19:45:37:514
10,557133	-2,388037	2,981457	2020-10-29T19:45:37:532
10,698310	-2,431108	2,512464	2020-10-29T19:45:37:555
11,420943	-2,450250	2,175076	2020-10-29T19:45:37:572
12,205789	-2,727818	1,323231	2020-10-29T19:45:37:595
12,363714	-2,842674	1,119841	2020-10-29T19:45:37:612
11,882757	-2,840281	0,799203	2020-10-29T19:45:37:635
10,906486	-2,780460	0,744168	2020-10-29T19:45:37:653
10,346564	-2,349752	0,701097	2020-10-29T19:45:37:673
10,052249	-2,141576	0,516850	2020-10-29T19:45:37:692
10,085747	-2,139183	0,413958	2020-10-29T19:45:37:715
9,949356	-2,175076	0,519243	2020-10-29T19:45:37:732
10,040283	-2,517249	0,600598	2020-10-29T19:45:37:754
9,990034	-2,723032	0,669990	2020-10-29T19:45:37:772
9,712467	-2,749353	0,619741	2020-10-29T19:45:37:795
9,303294	-2,766103	0,736989	2020-10-29T19:45:37:812
8,721838	-2,397608	0,686740	2020-10-29T19:45:37:834
8,114061	-1,887937	0,679562	2020-10-29T19:45:37:852
7,645068	-1,962115	0,725025	2020-10-29T19:45:37:875
7,831708	-2,847459	1,024128	2020-10-29T19:45:37:894
8,049455	-3,079563	1,323231	2020-10-29T19:45:37:914
8,128418	-3,005385	1,576870	2020-10-29T19:45:37:933
8,054241	-2,854637	1,899901	2020-10-29T19:45:37:955
7,745567	-2,904887	2,280360	2020-10-29T19:45:37:972
7,762317	-2,813959	2,376073	2020-10-29T19:45:37:995
8,001599	-2,569891	2,464607	2020-10-29T19:45:38:012
8,329416	-2,120041	2,632105	2020-10-29T19:45:38:035
8,539984	-1,794617	2,876173	2020-10-29T19:45:38:052
10,057034	-1,464408	3,172883	2020-10-29T19:45:38:075
12,253645	-1,344766	3,672983	2020-10-29T19:45:38:093
12,411572	-1,057628	4,725825	2020-10-29T19:45:38:115
10,155140	-0,844666	6,187840	2020-10-29T19:45:38:133
8,336594	-0,480957	6,527620	2020-10-29T19:45:38:154
7,518249	-0,354138	6,398407	2020-10-29T19:45:38:173
7,456036	-0,234497	6,302694	2020-10-29T19:45:38:196
8,353344	-0,562313	5,934200	2020-10-29T19:45:38:212
9,131011	-0,909273	5,168497	2020-10-29T19:45:38:235
9,372685	-1,179662	4,450650	2020-10-29T19:45:38:252
9,482756	-1,703690	4,027121	2020-10-29T19:45:38:275
9,772287	-1,715654	3,761517	2020-10-29T19:45:38:293
9,686146	-1,124627	3,637090	2020-10-29T19:45:38:315
9,327222	-0,361316	3,584448	2020-10-29T19:45:38:333
8,884550	0,081356	3,445665	2020-10-29T19:45:38:356
8,800802	0,019143	3,182454	2020-10-29T19:45:38:374
8,973085	-0,318245	2,940779	2020-10-29T19:45:38:395
8,894121	-0,497707	2,804388	2020-10-29T19:45:38:415
8,678767	-1,067199	2,510071	2020-10-29T19:45:38:436
8,671589	-2,117648	2,529213	2020-10-29T19:45:38:453
9,166903	-3,017349	2,531606	2020-10-29T19:45:38:475
9,485149	-3,651447	2,577070	2020-10-29T19:45:38:493
9,422935	-4,012764	2,818745	2020-10-29T19:45:38:516
9,011370	-4,108476	2,912065	2020-10-29T19:45:38:533
8,729016	-4,015156	2,916851	2020-10-29T19:45:38:555
8,611769	-3,677768	2,545963	2020-10-29T19:45:38:573
8,769694	-3,232704	2,055435	2020-10-29T19:45:38:596
8,946764	-3,065206	1,574477	2020-10-29T19:45:38:615
9,071191	-2,766103	1,385444	2020-10-29T19:45:38:635
8,915657	-2,304288	1,253839	2020-10-29T19:45:38:653
8,982656	-1,976472	1,258625	2020-10-29T19:45:38:676
8,987441	-1,634298	1,196411	2020-10-29T19:45:38:693
8,717053	-1,615155	1,289732	2020-10-29T19:45:38:715
8,470592	-1,823331	1,421337	2020-10-29T19:45:38:733
8,437093	-2,146362	1,512264	2020-10-29T19:45:38:756
8,681160	-2,177469	1,643869	2020-10-29T19:45:38:773
8,961121	-2,258825	1,777867	2020-10-29T19:45:38:796
9,492328	-2,414358	1,615155	2020-10-29T19:45:38:813
11,066804	-2,916851	1,631905	2020-10-29T19:45:38:836
12,335001	-3,340380	1,842474	2020-10-29T19:45:38:855
12,366108	-3,450450	1,962115	2020-10-29T19:45:38:875
11,629118	-3,605984	2,002793	2020-10-29T19:45:38:894
10,858629	-3,952943	1,734797	2020-10-29T19:45:38:916
9,985250	-4,101298	1,265803	2020-10-29T19:45:38:933
9,568897	-4,125226	1,091127	2020-10-29T19:45:38:955
9,846465	-4,223332	1,103091	2020-10-29T19:45:38:973
10,585848	-4,527221	1,462015	2020-10-29T19:45:38:996
10,987842	-4,945964	1,916651	2020-10-29T19:45:39:014
10,913664	-4,895715	1,854438	2020-10-29T19:45:39:036
10,990234	-4,429115	1,344766	2020-10-29T19:45:39:053
10,861022	-3,972085	0,914058	2020-10-29T19:45:39:076
10,332209	-3,670590	0,660419	2020-10-29T19:45:39:095
9,693325	-3,294917	0,839881	2020-10-29T19:45:39:115
9,224331	-3,359523	1,105484	2020-10-29T19:45:39:134
8,752945	-3,696911	1,184447	2020-10-29T19:45:39:156
8,365308	-4,039084	1,186840	2020-10-29T19:45:39:173
8,219346	-4,417150	1,076770	2020-10-29T19:45:39:196
8,477771	-4,634897	0,923629	2020-10-29T19:45:39:213
8,745767	-4,864608	0,902094	2020-10-29T19:45:39:237
8,784052	-4,807181	1,071985	2020-10-29T19:45:39:253
8,843873	-4,673182	1,330409	2020-10-29T19:45:39:276
8,910872	-4,366901	1,459622	2020-10-29T19:45:39:295
8,994620	-4,328616	1,481157	2020-10-29T19:45:39:317
8,961121	-4,110869	1,284946	2020-10-29T19:45:39:337
9,008978	-3,878766	1,182054	2020-10-29T19:45:39:355
8,865408	-3,596412	1,203590	2020-10-29T19:45:39:375
8,963513	-3,438486	1,251446	2020-10-29T19:45:39:397
8,975478	-3,220739	1,316052	2020-10-29T19:45:39:415
9,054441	-3,012564	1,445265	2020-10-29T19:45:39:436
9,162118	-2,794817	1,658226	2020-10-29T19:45:39:455
9,248260	-2,986243	1,828116	2020-10-29T19:45:39:476
9,420543	-3,299703	2,160719	2020-10-29T19:45:39:495
9,585647	-3,893122	2,557927	2020-10-29T19:45:39:516
10,150353	-4,254438	2,565106	2020-10-29T19:45:39:535
11,466407	-4,747360	3,079563	2020-10-29T19:45:39:556
11,471190	-4,725825	3,517449	2020-10-29T19:45:39:577
9,927821	-4,000800	3,737589	2020-10-29T19:45:39:596
9,248260	-3,342773	3,771089	2020-10-29T19:45:39:615
9,054441	-2,924029	3,998406	2020-10-29T19:45:39:637
8,614161	-2,306681	4,065405	2020-10-29T19:45:39:654
7,932207	-1,663012	4,084548	2020-10-29T19:45:39:676
7,350751	-1,196411	3,842873	2020-10-29T19:45:39:694
7,290931	-1,289732	3,704089	2020-10-29T19:45:39:716
7,558927	-1,316052	3,603590	2020-10-29T19:45:39:734
8,114061	-1,414158	3,517449	2020-10-29T19:45:39:757
8,757731	-1,526621	3,620341	2020-10-29T19:45:39:774
9,415757	-1,282553	3,627519	2020-10-29T19:45:39:797
9,595219	-1,366302	3,622734	2020-10-29T19:45:39:815
9,937392	-1,785046	3,646662	2020-10-29T19:45:39:836
10,346564	-2,251646	3,603590	2020-10-29T19:45:39:854
10,313066	-2,112862	3,256632	2020-10-29T19:45:39:877
9,554541	-1,962115	3,148954	2020-10-29T19:45:39:894
8,616554	-2,005185	3,144169	2020-10-29T19:45:39:916
7,843673	-2,187040	3,333202	2020-10-29T19:45:39:934
7,386643	-2,457429	3,474378	2020-10-29T19:45:39:957
7,082755	-2,713461	3,826123	2020-10-29T19:45:39:974
6,728617	-2,703890	4,041477	2020-10-29T19:45:39:996
6,589834	-2,660819	4,192225	2020-10-29T19:45:40:014
6,594619	-2,557927	4,177868	2020-10-29T19:45:40:037
6,731010	-2,416751	4,065405	2020-10-29T19:45:40:055
6,967900	-2,266003	3,996014	2020-10-29T19:45:40:076
7,391429	-2,160719	4,074977	2020-10-29T19:45:40:095
8,149954	-2,074577	4,735396	2020-10-29T19:45:40:117
8,941978	-1,261017	4,747360	2020-10-29T19:45:40:134
9,403792	-0,914058	4,036692	2020-10-29T19:45:40:156
9,535398	-1,196411	3,778267	2020-10-29T19:45:40:175
9,927821	-1,397408	3,979264	2020-10-29T19:45:40:198
10,368099	-1,445265	4,280759	2020-10-29T19:45:40:214
11,408978	-1,428515	4,768896	2020-10-29T19:45:40:237
12,591033	-1,603191	4,957928	2020-10-29T19:45:40:255
11,827723	-1,813759	4,886144	2020-10-29T19:45:40:277
11,066804	-2,364109	4,905287	2020-10-29T19:45:40:296
11,286944	-2,584249	4,723432	2020-10-29T19:45:40:316
10,317852	-2,780460	4,261617	2020-10-29T19:45:40:335
8,963513	-2,957529	3,749553	2020-10-29T19:45:40:357
9,190832	-2,809174	3,373880	2020-10-29T19:45:40:375
10,688738	-2,510071	2,880959	2020-10-29T19:45:40:397
11,248660	-2,323431	2,785245	2020-10-29T19:45:40:415
11,248660	-2,510071	2,754139	2020-10-29T19:45:40:437
11,576476	-2,287539	2,529213	2020-10-29T19:45:40:456
11,318050	-1,962115	2,311467	2020-10-29T19:45:40:477
10,392029	-1,911865	2,242075	2020-10-29T19:45:40:495
9,547362	-1,789831	2,208575	2020-10-29T19:45:40:518
9,140583	-1,663012	2,084148	2020-10-29T19:45:40:537
8,836694	-1,904687	2,072184	2020-10-29T19:45:40:556
8,592626	-2,232504	2,124826	2020-10-29T19:45:40:576
8,327023	-2,634498	2,151148	2020-10-29T19:45:40:598
8,233703	-2,868994	2,163112	2020-10-29T19:45:40:615
7,951349	-3,134598	2,273181	2020-10-29T19:45:40:637
7,764710	-3,000600	2,268396	2020-10-29T19:45:40:656
7,496714	-2,557927	2,297110	2020-10-29T19:45:40:678
7,511070	-1,935793	2,201397	2020-10-29T19:45:40:695
7,460821	-1,593620	2,105684	2020-10-29T19:45:40:717
7,506285	-1,598405	2,012364	2020-10-29T19:45:40:735
7,578069	-1,785046	1,962115	2020-10-29T19:45:40:758
7,881958	-2,098505	1,773082	2020-10-29T19:45:40:776
8,441878	-2,299503	1,768296	2020-10-29T19:45:40:797
8,863015	-2,435893	1,942972	2020-10-29T19:45:40:815
9,085547	-2,665605	2,017149	2020-10-29T19:45:40:839
9,320045	-2,931208	2,093720	2020-10-29T19:45:40:856
9,870394	-3,041277	2,179861	2020-10-29T19:45:40:877
10,540384	-3,062813	2,306681	2020-10-29T19:45:40:895
10,511670	-2,907279	2,478964	2020-10-29T19:45:40:919
11,090734	-3,002992	2,385644	2020-10-29T19:45:40:935
13,136597	-3,043670	2,639283	2020-10-29T19:45:40:956
13,959727	-2,744568	3,108276	2020-10-29T19:45:40:975
12,878171	-2,574677	3,266203	2020-10-29T19:45:40:998
12,478570	-2,773281	3,134598	2020-10-29T19:45:41:018
11,066804	-2,541178	2,727818	2020-10-29T19:45:41:037
8,434700	-2,335395	2,404787	2020-10-29T19:45:41:055
6,975078	-2,005185	2,053042	2020-10-29T19:45:41:078
7,357929	-1,655833	1,651048	2020-10-29T19:45:41:095
8,556733	-1,478764	1,414158	2020-10-29T19:45:41:117
9,008978	-1,847259	1,469193	2020-10-29T19:45:41:135
8,879765	-2,072184	1,701297	2020-10-29T19:45:41:158
9,178867	-2,007578	1,844866	2020-10-29T19:45:41:175
9,265009	-2,026721	1,964507	2020-10-29T19:45:41:197
9,066404	-2,048256	1,919044	2020-10-29T19:45:41:215
8,865408	-2,031506	1,782653	2020-10-29T19:45:41:238
8,762517	-2,306681	1,603191	2020-10-29T19:45:41:256
8,748159	-2,493321	1,775474	2020-10-29T19:45:41:277
8,781659	-2,751746	2,201397	2020-10-29T19:45:41:296
8,827123	-3,041277	2,498107	2020-10-29T19:45:41:319
8,724231	-3,431308	2,892922	2020-10-29T19:45:41:336
8,568698	-3,672983	3,371487	2020-10-29T19:45:41:357
8,307880	-3,555735	3,943372	2020-10-29T19:45:41:375
8,384450	-2,768496	4,766503	2020-10-29T19:45:41:398
8,544770	-0,655633	5,278566	2020-10-29T19:45:41:415
8,719445	1,237089	5,496314	2020-10-29T19:45:41:438
8,865408	0,605384	5,678168	2020-10-29T19:45:41:455
9,040084	-0,777667	5,692525	2020-10-29T19:45:41:478
9,346365	-2,378466	5,702096	2020-10-29T19:45:41:497
9,824929	-3,316452	5,761917	2020-10-29T19:45:41:517
10,408779	-3,641876	5,575277	2020-10-29T19:45:41:536
11,243874	-4,888536	5,115855	2020-10-29T19:45:41:558
11,186446	-4,960321	5,546563	2020-10-29T19:45:41:576
11,356337	-5,190032	6,106483	2020-10-29T19:45:41:598
12,753745	-5,867201	7,235896	2020-10-29T19:45:41:616
14,165509	-6,608976	7,948956	2020-10-29T19:45:41:638
13,897513	-7,085148	8,015956	2020-10-29T19:45:41:656
13,392628	-7,345965	8,372486	2020-10-29T19:45:41:677
13,430914	-8,056634	8,695518	2020-10-29T19:45:41:696
12,859028	-6,766902	9,241080	2020-10-29T19:45:41:718
11,779866	-4,914857	8,827123	2020-10-29T19:45:41:737
9,714860	-3,416951	7,726424	2020-10-29T19:45:41:757
8,068598	-3,017349	6,439085	2020-10-29T19:45:41:776
6,709475	-3,103491	6,106483	2020-10-29T19:45:41:799
6,326623	-5,072784	7,044470	2020-10-29T19:45:41:816
7,360322	-6,874579	7,996813	2020-10-29T19:45:41:838
8,678767	-5,321638	8,906086	2020-10-29T19:45:41:856
9,231510	-3,790231	8,240881	2020-10-29T19:45:41:878
8,458629	-2,366502	7,348359	2020-10-29T19:45:41:896
7,606783	-2,158326	6,594619	2020-10-29T19:45:41:918
6,750153	-1,598405	6,252446	2020-10-29T19:45:41:936
5,922236	-1,067199	6,455836	2020-10-29T19:45:41:958
4,472186	-0,526421	6,281159	2020-10-29T19:45:41:977
3,787838	0,026321	6,053841	2020-10-29T19:45:41:999
3,280560	0,653241	5,883951	2020-10-29T19:45:42:016
3,007778	1,691726	5,584848	2020-10-29T19:45:42:039
2,364109	2,297110	5,900701	2020-10-29T19:45:42:056
2,388037	2,550749	5,950950	2020-10-29T19:45:42:078
2,249253	2,636890	6,056234	2020-10-29T19:45:42:098
1,277767	3,680161	6,049056	2020-10-29T19:45:42:410
0,861416	4,302295	6,348158	2020-10-29T19:45:42:411
0,868595	4,670790	6,434300	2020-10-29T19:45:42:412
0,969093	4,776074	6,642475	2020-10-29T19:45:42:415
0,801596	5,467600	6,436693	2020-10-29T19:45:42:418
0,275175	6,125626	6,479764	2020-10-29T19:45:42:419
-0,023928	5,922236	6,381658	2020-10-29T19:45:42:420
-0,296710	5,764310	6,089733	2020-10-29T19:45:42:420
-0,693919	5,556134	6,228518	2020-10-29T19:45:42:421
-1,043271	5,632704	5,840880	2020-10-29T19:45:42:421
-1,540978	5,845665	5,989235	2020-10-29T19:45:42:422
-1,076770	6,534799	5,455636	2020-10-29T19:45:42:422
-1,256232	6,826723	5,596812	2020-10-29T19:45:42:422
-0,926022	6,211767	6,147161	2020-10-29T19:45:42:423
-0,375673	6,412765	5,821737	2020-10-29T19:45:42:423
-0,155533	6,362515	6,089733	2020-10-29T19:45:42:425
0,299103	5,781059	6,697510	2020-10-29T19:45:42:440
1,368695	6,010770	7,080362	2020-10-29T19:45:42:469
1,990828	7,613962	6,680761	2020-10-29T19:45:42:477
1,794617	8,066205	5,938986	2020-10-29T19:45:42:496
1,062413	7,288538	5,517848	2020-10-29T19:45:42:519
0,485743	5,824130	5,749953	2020-10-29T19:45:42:535
0,729811	4,668397	6,642475	2020-10-29T19:45:42:557
0,851845	5,091926	6,786045	2020-10-29T19:45:42:575
0,634098	6,295516	6,465407	2020-10-29T19:45:42:598
0,643669	6,790830	6,180661	2020-10-29T19:45:42:617
0,681954	6,293124	6,046663	2020-10-29T19:45:42:639
0,356531	5,498707	6,436693	2020-10-29T19:45:42:657
0,150748	5,446064	6,479764	2020-10-29T19:45:42:679
0,117248	6,135197	6,257231	2020-10-29T19:45:42:699
0,200997	6,939186	5,826523	2020-10-29T19:45:42:719
0,320638	7,142576	5,467600	2020-10-29T19:45:42:737
0,421137	6,125626	5,491528	2020-10-29T19:45:42:759
0,512064	5,568098	5,745167	2020-10-29T19:45:42:776
0,433101	5,386244	6,104091	2020-10-29T19:45:42:799
0,110070	5,802595	6,520442	2020-10-29T19:45:42:818
-0,011964	6,233303	6,508478	2020-10-29T19:45:42:840
-0,081356	6,515656	6,271588	2020-10-29T19:45:42:857
-0,114855	6,508478	5,795416	2020-10-29T19:45:42:879
-0,009571	5,527420	5,460421	2020-10-29T19:45:42:897
0,291924	4,041477	5,032106	2020-10-29T19:45:42:920
0,349352	3,333202	4,771288	2020-10-29T19:45:42:938
0,540778	3,625126	4,744967	2020-10-29T19:45:42:959
1,112662	3,701697	4,405186	2020-10-29T19:45:42:977
1,493121	3,390630	4,094120	2020-10-29T19:45:43:000
1,378266	2,665605	4,256832	2020-10-29T19:45:43:017
1,505085	1,804188	3,888337	2020-10-29T19:45:43:041
2,871387	-0,229711	2,909672	2020-10-29T19:45:43:057
3,716053	-1,964507	2,043471	2020-10-29T19:45:43:081
4,414758	-4,000800	1,552942	2020-10-29T19:45:43:098
5,472386	-5,422136	1,402194	2020-10-29T19:45:43:131
6,551548	-6,654440	0,873380	2020-10-29T19:45:43:137
7,824530	-7,149754	-0,191426	2020-10-29T19:45:43:161
9,020942	-8,461020	-1,447658	2020-10-29T19:45:43:185
10,001998	-9,611969	-2,232504	2020-10-29T19:45:43:413
11,325230	-10,516455	-2,409572	2020-10-29T19:45:43:430
12,873385	-10,640882	-1,641476	2020-10-29T19:45:43:431
14,285151	-9,336794	-1,612763	2020-10-29T19:45:43:432
16,223339	-9,707682	-4,027121	2020-10-29T19:45:43:432
18,369699	-11,827723	-6,278766	2020-10-29T19:45:43:433
17,635103	-11,337193	-5,812167	2020-10-29T19:45:43:442
16,505690	-10,774881	-4,098906	2020-10-29T19:45:43:442
15,558132	-11,466407	-1,184447	2020-10-29T19:45:43:443
15,000606	-12,308680	0,287139	2020-10-29T19:45:43:443
13,801801	-11,483156	-0,849452	2020-10-29T19:45:43:443
12,492928	-9,961320	-2,806781	2020-10-29T19:45:43:444
11,351551	-8,305488	-3,318845	2020-10-29T19:45:43:445
10,717452	-6,001199	-2,474179	2020-10-29T19:45:43:457
10,652846	-3,945765	-1,847259	2020-10-29T19:45:43:479
10,801201	-2,816352	-1,787439	2020-10-29T19:45:43:496
10,633704	-3,823731	-2,012364	2020-10-29T19:45:43:518
10,033106	-4,103691	-1,890330	2020-10-29T19:45:43:537
9,126225	-4,165904	-1,868794	2020-10-29T19:45:43:559
8,685946	-3,737589	-1,840081	2020-10-29T19:45:43:578
8,480164	-3,251846	-1,892723	2020-10-29T19:45:43:599
8,425128	-3,419343	-1,806581	2020-10-29T19:45:43:617
8,432307	-3,653840	-1,701297	2020-10-29T19:45:43:640
8,492127	-3,797409	-1,813759	2020-10-29T19:45:43:660
8,575876	-3,921836	-1,775474	2020-10-29T19:45:43:679
8,843873	-3,584448	-1,497907	2020-10-29T19:45:43:698
9,190832	-3,242275	-1,339981	2020-10-29T19:45:43:720
9,611969	-3,091527	-1,177269	2020-10-29T19:45:43:738
9,841680	-3,242275	-1,165305	2020-10-29T19:45:43:759
9,927821	-3,541377	-0,902094	2020-10-29T19:45:43:778
10,325029	-3,323631	-0,811167	2020-10-29T19:45:43:804
11,066804	-2,677568	-0,803988	2020-10-29T19:45:43:828
11,282159	-2,541178	-0,294317	2020-10-29T19:45:43:853
11,344372	-2,562713	0,337388	2020-10-29T19:45:43:885
10,731809	-2,988636	0,344566	2020-10-29T19:45:43:886
9,779467	-2,050649	0,897308	2020-10-29T19:45:43:904
9,341579	-1,962115	1,751546	2020-10-29T19:45:43:919
9,702895	-2,579463	1,909473	2020-10-29T19:45:43:940
11,638690	-4,936393	4,192225	2020-10-29T19:45:43:961
12,483356	-3,826123	3,110669	2020-10-29T19:45:43:977
10,853845	4,821537	2,122434	2020-10-29T19:45:43:999
8,585447	7,881958	2,289931	2020-10-29T19:45:44:018
7,915457	3,778267	2,139183	2020-10-29T19:45:44:040
8,997013	-0,600598	0,825524	2020-10-29T19:45:44:058
9,272188	-2,349752	0,162712	2020-10-29T19:45:44:080
8,642875	-2,354537	0,378066	2020-10-29T19:45:44:098
8,298308	-2,335395	0,411566	2020-10-29T19:45:44:120
9,276974	-2,797210	0,248854	2020-10-29T19:45:44:139
9,784252	-2,749353	0,358923	2020-10-29T19:45:44:160
9,523434	-2,471786	0,753739	2020-10-29T19:45:44:178
9,535398	-1,938186	1,215554	2020-10-29T19:45:44:201
9,824929	-1,887937	1,395016	2020-10-29T19:45:44:218
9,942179	-2,560320	1,603191	2020-10-29T19:45:44:240
9,875179	-3,524628	1,902294	2020-10-29T19:45:44:258
9,743573	-4,400401	2,143969	2020-10-29T19:45:44:280
9,779467	-4,962714	2,256432	2020-10-29T19:45:44:299
9,722038	-5,197211	2,254039	2020-10-29T19:45:44:320
9,372685	-4,505685	1,885544	2020-10-29T19:45:44:338
9,300901	-3,211168	1,543371	2020-10-29T19:45:44:361
9,470792	-2,845066	1,275374	2020-10-29T19:45:44:379
9,774680	-3,273381	1,131805	2020-10-29T19:45:44:401
9,779467	-3,646662	1,251446	2020-10-29T19:45:44:419
9,607183	-3,347559	1,385444	2020-10-29T19:45:44:442
9,489935	-2,730211	1,373480	2020-10-29T19:45:44:478
9,394222	-2,388037	1,296910	2020-10-29T19:45:44:488
9,286544	-2,146362	1,373480	2020-10-29T19:45:44:500
9,341579	-2,026721	1,531406	2020-10-29T19:45:44:521
9,324830	-2,093720	1,756332	2020-10-29T19:45:44:541
9,633504	-2,344966	1,782653	2020-10-29T19:45:44:560
9,769895	-2,833102	1,682154	2020-10-29T19:45:44:581
9,777073	-3,359523	1,588834	2020-10-29T19:45:44:602
9,537791	-3,634698	1,531406	2020-10-29T19:45:44:620
9,501899	-3,531806	1,569692	2020-10-29T19:45:44:641
9,446864	-3,129812	1,586441	2020-10-29T19:45:44:659
9,511470	-2,679961	1,538585	2020-10-29T19:45:44:681
9,468399	-2,392823	1,529014	2020-10-29T19:45:44:699
9,458827	-2,225325	1,478764	2020-10-29T19:45:44:721
9,523434	-2,062613	1,335195	2020-10-29T19:45:44:739
9,652647	-2,249253	1,328017	2020-10-29T19:45:44:761
9,710074	-2,364109	1,385444	2020-10-29T19:45:44:779
9,724431	-2,557927	1,344766	2020-10-29T19:45:44:801
9,619147	-2,739782	1,380659	2020-10-29T19:45:44:819
9,422935	-2,823531	1,347159	2020-10-29T19:45:44:841
9,372685	-2,761317	1,337588	2020-10-29T19:45:44:859
9,511470	-2,711068	1,294517	2020-10-29T19:45:44:880
9,576077	-2,536392	1,316052	2020-10-29T19:45:44:900
9,638289	-2,536392	1,320838	2020-10-29T19:45:44:921
9,860823	-2,610569	1,375873	2020-10-29T19:45:44:939
9,970891	-2,653640	1,311267	2020-10-29T19:45:44:961
9,750752	-2,646462	1,272982	2020-10-29T19:45:44:979
9,477970	-2,488536	1,244268	2020-10-29T19:45:45:002
9,432507	-2,318645	1,232304	2020-10-29T19:45:45:019
9,566505	-2,208575	1,127020	2020-10-29T19:45:45:042
9,590433	-1,998007	1,095913	2020-10-29T19:45:45:059
9,693325	-1,907080	1,100698	2020-10-29T19:45:45:082
9,700503	-1,938186	1,048056	2020-10-29T19:45:45:102
9,738789	-1,976472	0,885344	2020-10-29T19:45:45:121
9,635897	-2,033899	0,882952	2020-10-29T19:45:45:139
9,645468	-2,093720	0,916451	2020-10-29T19:45:45:162
9,839286	-1,935793	1,057628	2020-10-29T19:45:45:179
9,868000	-1,792224	1,258625	2020-10-29T19:45:45:201
9,937392	-1,730011	1,311267	2020-10-29T19:45:45:219
10,009177	-1,667797	1,454836	2020-10-29T19:45:45:242
9,901501	-1,658226	1,452443	2020-10-29T19:45:45:260
9,803394	-1,732404	1,533799	2020-10-29T19:45:45:281
9,688539	-1,801795	1,375873	2020-10-29T19:45:45:300
9,712467	-2,031506	1,112662	2020-10-29T19:45:45:323
9,619147	-2,167897	0,873380	2020-10-29T19:45:45:340
9,655040	-2,261217	0,799203	2020-10-29T19:45:45:361
9,803394	-2,206182	0,753739	2020-10-29T19:45:45:379
9,966106	-2,041078	0,598206	2020-10-29T19:45:45:402
10,066606	-1,849652	0,641276	2020-10-29T19:45:45:419
10,018748	-1,667797	0,653241	2020-10-29T19:45:45:441
9,918249	-1,540978	0,646062	2020-10-29T19:45:45:459
9,736395	-1,605584	0,751346	2020-10-29T19:45:45:514
9,810574	-1,622334	0,763310	2020-10-29T19:45:45:528
9,968499	-1,629512	0,859023	2020-10-29T19:45:45:529
10,162319	-1,572084	0,914058	2020-10-29T19:45:45:541
10,162319	-1,433301	0,959522	2020-10-29T19:45:45:563
10,102496	-1,414158	1,043271	2020-10-29T19:45:45:587
10,059426	-1,356731	1,045663	2020-10-29T19:45:45:603
10,021141	-1,469193	1,026521	2020-10-29T19:45:45:619
10,004392	-1,531406	0,988236	2020-10-29T19:45:45:641
9,707682	-1,579263	1,110270	2020-10-29T19:45:45:660
9,389436	-1,447658	1,205983	2020-10-29T19:45:45:681
9,291330	-1,375873	1,289732	2020-10-29T19:45:45:700
9,188439	-1,337588	1,457229	2020-10-29T19:45:45:722
9,162118	-1,344766	1,548156	2020-10-29T19:45:45:740
9,231510	-1,385444	1,665405	2020-10-29T19:45:45:761
9,255438	-1,686940	1,813759	2020-10-29T19:45:45:780
9,272188	-1,823331	2,000400	2020-10-29T19:45:45:803
9,035298	-1,804188	1,713261	2020-10-29T19:45:45:821
8,800802	-2,139183	1,907080	2020-10-29T19:45:45:841
9,288938	-2,514857	2,495714	2020-10-29T19:45:45:860
10,377672	-2,787638	2,433501	2020-10-29T19:45:45:883
11,296515	-3,237489	1,990828	2020-10-29T19:45:45:901
10,956735	-4,725825	1,560120	2020-10-29T19:45:45:927
8,695518	-1,868794	1,902294	2020-10-29T19:46:04:224
8,764909	-2,244468	2,120041	2020-10-29T19:46:04:225
9,238688	-2,299503	2,014757	2020-10-29T19:46:04:226
9,650253	-2,452643	1,938186	2020-10-29T19:46:04:227
9,901501	-2,299503	2,110470	2020-10-29T19:46:04:228
9,908678	-1,773082	2,318645	2020-10-29T19:46:04:228
9,923036	-1,409373	2,201397	2020-10-29T19:46:04:229
9,832108	-1,914258	2,057827	2020-10-29T19:46:04:229
9,753145	-2,467000	2,076970	2020-10-29T19:46:04:238
9,640682	-2,620141	2,112862	2020-10-29T19:46:04:251
9,556933	-2,584249	2,060220	2020-10-29T19:46:04:259
9,353544	-2,835495	2,103291	2020-10-29T19:46:04:291
9,425328	-2,962314	2,091327	2020-10-29T19:46:04:304
9,466006	-2,914458	2,000400	2020-10-29T19:46:04:323
9,198010	-3,000600	1,808974	2020-10-29T19:46:04:402
9,107083	-3,139383	1,789831	2020-10-29T19:46:04:404
9,454042	-2,830709	1,727618	2020-10-29T19:46:04:405
11,009377	-2,380858	1,667797	2020-10-29T19:46:04:406
12,526425	-2,234896	1,758725	2020-10-29T19:46:04:418
12,842279	-2,438286	1,974079	2020-10-29T19:46:04:435
12,579069	-2,763710	2,134398	2020-10-29T19:46:04:458
11,851650	-3,371487	2,146362	2020-10-29T19:46:04:478
10,320245	-3,716053	2,280360	2020-10-29T19:46:04:499
8,635696	-3,823731	2,464607	2020-10-29T19:46:04:518
8,449057	-3,644269	2,452643	2020-10-29T19:46:04:540
9,104690	-3,462414	1,847259	2020-10-29T19:46:04:557
9,894321	-3,895515	1,935793	2020-10-29T19:46:04:579
11,720046	-3,383451	1,208375	2020-10-29T19:46:04:598
12,686745	-1,122234	0,593420	2020-10-29T19:46:04:620
11,035697	-3,462414	0,234497	2020-10-29T19:46:04:637
11,466407	-1,234696	-1,873580	2020-10-29T19:46:04:659
9,908678	1,004985	-0,555135	2020-10-29T19:46:04:678
8,884550	-3,247060	0,165105	2020-10-29T19:46:04:700
8,389235	-4,859823	-0,253639	2020-10-29T19:46:04:719
7,735995	-6,020342	-1,088734	2020-10-29T19:46:04:744
7,472785	-7,692925	-0,930808	2020-10-29T19:46:04:758
7,458428	-7,970492	-0,547956	2020-10-29T19:46:04:780
7,451250	-7,317252	-0,636491	2020-10-29T19:46:04:798
7,716853	-6,314659	-0,847059	2020-10-29T19:46:04:819
7,771888	-5,893522	-0,882952	2020-10-29T19:46:04:839
7,877172	-5,211568	-0,926022	2020-10-29T19:46:04:860
7,862815	-4,512863	-0,535992	2020-10-29T19:46:04:879
7,958528	-4,560720	-0,186640	2020-10-29T19:46:04:900
8,207381	-4,685147	0,086142	2020-10-29T19:46:04:919
8,630912	-5,230711	0,246461	2020-10-29T19:46:04:940
8,925228	-5,474778	0,263210	2020-10-29T19:46:04:958
8,965906	-5,161318	0,315853	2020-10-29T19:46:04:979
9,064013	-4,828716	0,454636	2020-10-29T19:46:04:998
9,138189	-4,412365	0,739382	2020-10-29T19:46:05:022
9,013763	-3,976871	1,009771	2020-10-29T19:46:05:060
13,107882	-3,964907	3,098706	2020-10-29T19:46:38:156
11,947363	-3,486342	2,581856	2020-10-29T19:46:38:160
10,399208	-3,708875	1,660619	2020-10-29T19:46:38:163
8,901299	-3,287738	0,880559	2020-10-29T19:46:38:166
8,126025	-2,730211	0,232104	2020-10-29T19:46:38:175
8,898908	-2,574677	-0,107677	2020-10-29T19:46:38:192
10,590633	-3,010171	-0,196211	2020-10-29T19:46:38:206
11,813366	-3,869194	0,057428	2020-10-29T19:46:38:219
11,976077	-4,888536	-0,122034	2020-10-29T19:46:38:231
11,669796	-5,331209	-0,471386	2020-10-29T19:46:38:248
11,011770	-4,610970	-1,002593	2020-10-29T19:46:38:272
10,523634	-3,649055	-1,289732	2020-10-29T19:46:38:288
9,664611	-2,801995	-1,095913	2020-10-29T19:46:38:310
9,104690	-2,251646	-1,091127	2020-10-29T19:46:38:327
9,008978	-2,213361	-1,225125	2020-10-29T19:46:38:349
9,040084	-2,811567	-1,366302	2020-10-29T19:46:38:368
9,087940	-3,103491	-1,684547	2020-10-29T19:46:38:391
9,188439	-3,347559	-1,892723	2020-10-29T19:46:38:409
9,540184	-3,701697	-1,811367	2020-10-29T19:46:38:430
9,741181	-3,754339	-1,811367	2020-10-29T19:46:38:448
9,456435	-3,656233	-1,404587	2020-10-29T19:46:38:471
9,305687	-3,627519	-0,935594	2020-10-29T19:46:38:488
9,238688	-3,359523	-0,504886	2020-10-29T19:46:38:510
9,071191	-3,323631	-0,380459	2020-10-29T19:46:38:529
8,796017	-3,199204	0,043071	2020-10-29T19:46:38:550
8,757731	-3,203990	0,638884	2020-10-29T19:46:38:568
8,918050	-3,524628	1,294517	2020-10-29T19:46:38:591
9,358330	-3,708875	1,923829	2020-10-29T19:46:38:607
9,707682	-3,653840	2,476572	2020-10-29T19:46:38:632
9,564112	-3,218346	2,924029	2020-10-29T19:46:38:647
9,384650	-2,529213	3,311667	2020-10-29T19:46:38:671
9,336794	-1,907080	3,512664	2020-10-29T19:46:38:688
9,291330	-1,182054	3,603590	2020-10-29T19:46:38:712
9,291330	-0,803988	3,706482	2020-10-29T19:46:38:728
10,633704	-0,770489	3,091527	2020-10-29T19:46:38:751
12,203396	-0,926022	3,742374	2020-10-29T19:46:38:769
12,636496	-0,997807	4,079762	2020-10-29T19:46:38:792
12,722638	-1,347159	4,354938	2020-10-29T19:46:38:809
11,947363	-1,672583	4,634897	2020-10-29T19:46:38:831
9,690931	-2,232504	4,275974	2020-10-29T19:46:38:848
7,092326	-2,323431	3,842873	2020-10-29T19:46:38:872
5,773881	-2,481357	3,804588	2020-10-29T19:46:38:888
6,675975	-2,902494	3,828516	2020-10-29T19:46:38:911
8,209774	-3,498307	4,043870	2020-10-29T19:46:38:928
9,128618	-4,141976	4,230510	2020-10-29T19:46:38:952
9,868000	-4,658825	4,137190	2020-10-29T19:46:38:968
10,332209	-4,646862	3,347559	2020-10-29T19:46:38:991
10,387242	-4,101298	2,624927	2020-10-29T19:46:39:009
10,176675	-3,780660	2,342573	2020-10-29T19:46:39:031
10,037891	-3,199204	2,151148	2020-10-29T19:46:39:048
9,901501	-2,816352	2,005185	2020-10-29T19:46:39:071
9,760324	-2,962314	1,978864	2020-10-29T19:46:39:089
9,360723	-3,012564	1,794617	2020-10-29T19:46:39:111
9,001799	-3,273381	1,722832	2020-10-29T19:46:39:128
8,657232	-3,467200	1,722832	2020-10-29T19:46:39:151
8,212167	-3,792624	1,878366	2020-10-29T19:46:39:168
7,963314	-4,242475	2,179861	2020-10-29T19:46:39:194
8,042276	-4,687540	2,404787	2020-10-29T19:46:39:208
8,494520	-4,984250	2,548356	2020-10-29T19:46:39:231
8,774480	-4,807181	2,366502	2020-10-29T19:46:39:249
8,738588	-4,390830	2,067399	2020-10-29T19:46:39:272
8,879765	-4,182654	1,677369	2020-10-29T19:46:39:289
9,324830	-3,859623	1,237089	2020-10-29T19:46:39:311
9,399008	-3,615555	1,201197	2020-10-29T19:46:39:328
9,284152	-3,220739	1,107877	2020-10-29T19:46:39:352
8,982656	-3,105884	1,131805	2020-10-29T19:46:39:369
8,583055	-2,947958	1,091127	2020-10-29T19:46:39:391
8,193025	-2,866602	1,067199	2020-10-29T19:46:39:408
7,939385	-2,840281	0,964308	2020-10-29T19:46:39:432
7,692925	-2,916851	1,026521	2020-10-29T19:46:39:448
7,618747	-3,203990	0,885344	2020-10-29T19:46:39:471
7,877172	-3,598805	1,036092	2020-10-29T19:46:39:490
8,800802	-4,687540	1,294517	2020-10-29T19:46:39:511
9,781858	-5,288138	1,222732	2020-10-29T19:46:39:528
10,425529	-5,733203	1,067199	2020-10-29T19:46:39:551
11,129018	-6,281159	0,887737	2020-10-29T19:46:39:568
11,705689	-6,788438	0,878166	2020-10-29T19:46:39:592
11,030912	-6,647261	0,832702	2020-10-29T19:46:39:609
9,544970	-6,218946	0,629312	2020-10-29T19:46:39:631
8,762517	-5,967700	0,189033	2020-10-29T19:46:39:649
8,642875	-5,414958	-0,023928	2020-10-29T19:46:39:672
8,647661	-5,185246	0,071785	2020-10-29T19:46:39:689
8,688338	-5,015356	0,495314	2020-10-29T19:46:39:711
8,712267	-4,945964	1,021735	2020-10-29T19:46:39:730
8,879765	-5,048856	1,153341	2020-10-29T19:46:39:752
9,142976	-4,792823	1,117448	2020-10-29T19:46:39:769
9,652647	-4,419543	1,048056	2020-10-29T19:46:39:792
9,820145	-4,484150	1,306481	2020-10-29T19:46:39:809
9,693325	-4,673182	1,660619	2020-10-29T19:46:39:832
9,217153	-4,898108	1,916651	2020-10-29T19:46:39:849
9,214760	-5,781059	2,012364	2020-10-29T19:46:39:871
9,202796	-5,668597	2,115255	2020-10-29T19:46:39:890
9,253045	-4,771288	2,344966	2020-10-29T19:46:39:913
9,434900	-4,230510	2,830709	2020-10-29T19:46:39:929
9,597611	-3,299703	3,270989	2020-10-29T19:46:39:951
9,332008	-2,577070	3,091527	2020-10-29T19:46:39:970
8,884550	-2,598605	2,928815	2020-10-29T19:46:39:993
8,468199	-2,857030	2,895315	2020-10-29T19:46:40:009
8,073383	-2,251646	3,091527	2020-10-29T19:46:40:031
7,841280	-2,608176	4,070191	2020-10-29T19:46:40:049
8,047063	-3,893122	5,587241	2020-10-29T19:46:40:072
8,932407	-5,525027	5,228317	2020-10-29T19:46:40:090
8,824730	-6,149554	4,046263	2020-10-29T19:46:40:111
7,903493	-5,781059	3,103491	2020-10-29T19:46:40:129
7,422535	-5,096712	2,545963	2020-10-29T19:46:40:152
7,331609	-4,620540	2,294717	2020-10-29T19:46:40:169
7,267002	-4,314260	2,297110	2020-10-29T19:46:40:193
7,027720	-4,223332	2,404787	2020-10-29T19:46:40:211
7,008578	-3,952943	2,550749	2020-10-29T19:46:40:232
7,511070	-3,852444	2,603391	2020-10-29T19:46:40:250
7,999206	-3,608376	2,639283	2020-10-29T19:46:40:272
8,559127	-3,936193	2,711068	2020-10-29T19:46:40:290
9,064013	-4,816752	3,072384	2020-10-29T19:46:40:312
9,159724	-5,044070	3,069991	2020-10-29T19:46:40:330
9,107083	-4,692325	2,797210	2020-10-29T19:46:40:352
9,150154	-4,347759	2,696711	2020-10-29T19:46:40:370
9,166903	-3,945765	2,610569	2020-10-29T19:46:40:393
9,059227	-3,414558	2,758924	2020-10-29T19:46:40:409
9,171689	-3,400201	3,058028	2020-10-29T19:46:40:432
9,229117	-3,634698	3,407379	2020-10-29T19:46:40:452
9,293723	-4,108476	3,675375	2020-10-29T19:46:40:472
9,099905	-4,902894	3,833302	2020-10-29T19:46:40:490
8,800802	-4,445865	4,158726	2020-10-29T19:46:40:512
8,817552	-4,106083	3,608376	2020-10-29T19:46:40:530
9,099905	-3,323631	2,818745	2020-10-29T19:46:40:553
9,463614	-2,943172	2,481357	2020-10-29T19:46:40:570
9,621540	-2,682354	2,199004	2020-10-29T19:46:40:592
9,542577	-2,651247	1,942972	2020-10-29T19:46:40:611
9,633504	-2,455036	1,761117	2020-10-29T19:46:40:634
9,396614	-2,385644	1,682154	2020-10-29T19:46:40:650
9,174082	-2,344966	1,428515	2020-10-29T19:46:40:672
8,937192	-2,404787	1,399801	2020-10-29T19:46:40:693
8,595018	-2,299503	1,540978	2020-10-29T19:46:40:713
8,310273	-2,347359	1,672583	2020-10-29T19:46:40:730
8,219346	-2,483750	1,804188	2020-10-29T19:46:40:752
8,039884	-3,024528	1,844866	2020-10-29T19:46:40:770
7,396214	-3,048456	1,739582	2020-10-29T19:46:40:794
6,771688	-2,902494	1,435694	2020-10-29T19:46:40:810
8,137990	-3,419343	1,552942	2020-10-29T19:46:40:832
11,047661	-4,943572	0,739382	2020-10-29T19:46:40:850
9,958927	-2,416751	1,119841	2020-10-29T19:46:40:873
10,155140	-2,553142	1,409373	2020-10-29T19:46:40:890
11,753544	-2,093720	1,792224	2020-10-29T19:46:40:912
13,301701	-0,516850	2,084148	2020-10-29T19:46:40:931
13,909478	0,189033	2,462214	2020-10-29T19:46:40:954
13,146168	-0,526421	3,361916	2020-10-29T19:46:40:970
12,155540	0,265603	3,955336	2020-10-29T19:46:40:993
11,708081	2,914458	4,213760	2020-10-29T19:46:41:010
11,614761	3,744767	3,756732	2020-10-29T19:46:41:033
10,533205	3,553342	3,314059	2020-10-29T19:46:41:050
9,844072	2,081756	2,603391	2020-10-29T19:46:41:072
9,556933	1,170090	2,163112	2020-10-29T19:46:41:091
9,367901	1,220340	1,804188	2020-10-29T19:46:41:113
9,590433	0,811167	1,643869	2020-10-29T19:46:41:130
9,633504	0,330210	1,438086	2020-10-29T19:46:41:152
9,394222	-0,583849	1,249053	2020-10-29T19:46:41:172
9,367901	-1,220340	1,091127	2020-10-29T19:46:41:194
9,743573	-1,584049	0,866202	2020-10-29T19:46:41:211
9,757930	-1,684547	0,976272	2020-10-29T19:46:41:233
9,195618	-1,505085	1,107877	2020-10-29T19:46:41:250
8,843873	-1,323231	1,555335	2020-10-29T19:46:41:274
8,506484	-1,428515	1,746760	2020-10-29T19:46:41:292
8,106883	-1,600798	1,775474	2020-10-29T19:46:41:312
8,434700	-1,624727	1,923829	2020-10-29T19:46:41:331
9,300901	-1,727618	1,904687	2020-10-29T19:46:41:353
9,293723	-2,019542	1,830509	2020-10-29T19:46:41:370
9,427721	-1,588834	2,196611	2020-10-29T19:46:41:394
9,884750	-1,031307	2,012364	2020-10-29T19:46:41:412
10,107283	-0,894916	2,342573	2020-10-29T19:46:41:434
9,946963	-0,064606	2,809174	2020-10-29T19:46:41:451
9,662218	0,875773	2,955136	2020-10-29T19:46:41:473
9,279366	0,650848	3,125026	2020-10-29T19:46:41:491
9,164511	-0,289532	3,302095	2020-10-29T19:46:41:514
8,877372	-1,021735	2,998207	2020-10-29T19:46:41:531
9,214760	-1,505085	2,878566	2020-10-29T19:46:41:553
9,221939	-1,775474	2,565106	2020-10-29T19:46:41:571
8,930015	-1,935793	2,567499	2020-10-29T19:46:41:595
8,662018	-1,921437	2,517249	2020-10-29T19:46:41:611
8,451449	-2,100898	2,457429	2020-10-29T19:46:41:633
8,212167	-2,187040	2,376073	2020-10-29T19:46:41:653
8,516055	-2,467000	2,431108	2020-10-29T19:46:41:674
8,279166	-2,782853	2,428715	2020-10-29T19:46:41:691
7,893922	-3,041277	2,215754	2020-10-29T19:46:41:713
7,704889	-3,393023	2,067399	2020-10-29T19:46:41:731
7,697710	-2,828316	2,038685	2020-10-29T19:46:41:755
8,015956	-2,179861	2,084148	2020-10-29T19:46:41:771
8,965906	-1,792224	2,275574	2020-10-29T19:46:41:794
11,339586	-2,572284	1,804188	2020-10-29T19:46:41:811
14,081761	-2,397608	1,141376	2020-10-29T19:46:41:834
16,096518	-2,328217	0,256032	2020-10-29T19:46:41:851
16,122839	-3,273381	0,138784	2020-10-29T19:46:41:873
14,991035	-4,486543	0,562313	2020-10-29T19:46:41:892
13,009777	-4,938786	1,483550	2020-10-29T19:46:41:914
10,657632	-4,520042	2,141576	2020-10-29T19:46:41:931
8,520842	-4,405186	2,266003	2020-10-29T19:46:41:953
8,013563	-4,764110	2,115255	2020-10-29T19:46:41:971
9,525827	-5,534599	1,198804	2020-10-29T19:46:41:995
9,848858	-4,847858	0,535992	2020-10-29T19:46:42:011
9,554541	-4,053442	0,129212	2020-10-29T19:46:42:033
9,353544	-3,199204	-0,016750	2020-10-29T19:46:42:051
9,056834	-2,562713	0,062213	2020-10-29T19:46:42:074
8,685946	-1,935793	0,509671	2020-10-29T19:46:42:092
8,240881	-1,232304	0,882952	2020-10-29T19:46:42:113
8,049455	-1,770689	1,004985	2020-10-29T19:46:42:132
7,532606	-3,419343	0,957129	2020-10-29T19:46:42:154
6,963113	-4,036692	0,751346	2020-10-29T19:46:42:171
6,869793	-4,331009	0,732204	2020-10-29T19:46:42:194
7,898707	-4,709075	0,399601	2020-10-29T19:46:42:211
9,068797	-5,216353	0,339781	2020-10-29T19:46:42:234
9,659825	-5,252246	0,404387	2020-10-29T19:46:42:251
9,544970	-4,558327	0,543171	2020-10-29T19:46:42:273
9,396614	-3,859623	0,736989	2020-10-29T19:46:42:292
9,645468	-3,838088	0,715454	2020-10-29T19:46:42:315
10,801201	-4,232903	0,997807	2020-10-29T19:46:42:331
10,650455	-4,589434	1,074377	2020-10-29T19:46:42:354
9,016156	-4,216154	1,167697	2020-10-29T19:46:42:375
9,138189	-4,398008	1,189233	2020-10-29T19:46:42:396
10,114462	-5,199604	1,689333	2020-10-29T19:46:42:411
10,387242	-5,326423	2,471786	2020-10-29T19:46:42:435
10,557133	-5,017749	2,596212	2020-10-29T19:46:42:451
10,461421	-5,161318	2,230111	2020-10-29T19:46:42:475
10,138390	-5,333601	1,935793	2020-10-29T19:46:42:492
9,934999	-5,051248	2,065006	2020-10-29T19:46:42:514
9,540184	-4,606184	2,285146	2020-10-29T19:46:42:531
9,061620	-4,125226	2,593820	2020-10-29T19:46:42:556
8,621340	-3,902694	2,667997	2020-10-29T19:46:42:571
8,023134	-3,809374	2,924029	2020-10-29T19:46:42:594
7,460821	-3,582055	2,993421	2020-10-29T19:46:42:612
6,932007	-3,129812	3,237489	2020-10-29T19:46:42:635
6,541977	-2,830709	3,400201	2020-10-29T19:46:42:652
6,455836	-2,782853	3,608376	2020-10-29T19:46:42:674
6,857830	-2,801995	3,089134	2020-10-29T19:46:42:693
8,039884	-2,950350	2,897708	2020-10-29T19:46:42:715
9,566505	-3,330809	3,125026	2020-10-29T19:46:42:732
11,176874	-4,783253	2,691926	2020-10-29T19:46:42:754
11,346765	-5,764310	2,170290	2020-10-29T19:46:42:771
10,265208	-5,469993	2,014757	2020-10-29T19:46:42:795
9,999605	-5,730811	1,928615	2020-10-29T19:46:42:812
9,714860	-5,347959	1,969293	2020-10-29T19:46:42:834
9,099905	-4,855037	1,976472	2020-10-29T19:46:42:853
8,415558	-3,924229	1,935793	2020-10-29T19:46:42:875
7,948956	-3,725625	1,753939	2020-10-29T19:46:42:892
8,233703	-4,515256	1,514657	2020-10-29T19:46:42:914
8,528020	-4,610970	1,368695	2020-10-29T19:46:42:932
8,611769	-3,596412	1,457229	2020-10-29T19:46:42:955
8,760124	-2,845066	1,280160	2020-10-29T19:46:42:972
8,836694	-2,644069	1,182054	2020-10-29T19:46:42:995
8,791230	-2,687140	1,442872	2020-10-29T19:46:43:012
8,788837	-2,376073	2,483750	2020-10-29T19:46:43:035
8,719445	-1,682154	2,861816	2020-10-29T19:46:43:053
8,683553	-2,124826	3,180061	2020-10-29T19:46:43:075
8,597411	-3,330809	3,878766	2020-10-29T19:46:43:095
8,492127	-3,948158	4,484150	2020-10-29T19:46:43:115
8,317451	-4,232903	4,599005	2020-10-29T19:46:43:132
8,049455	-4,426722	4,182654	2020-10-29T19:46:43:154
7,688138	-4,570292	3,622734	2020-10-29T19:46:43:172
7,802995	-3,897908	3,436093	2020-10-29T19:46:43:196
8,240881	-3,541377	3,031706	2020-10-29T19:46:43:212
8,147561	-3,646662	2,672783	2020-10-29T19:46:43:234
7,927422	-3,579663	2,344966	2020-10-29T19:46:43:252
8,087741	-3,814159	2,409572	2020-10-29T19:46:43:276
8,006385	-4,340580	2,979064	2020-10-29T19:46:43:294
7,606783	-3,601198	3,661019	2020-10-29T19:46:43:315
7,401000	-3,778267	3,141776	2020-10-29T19:46:43:333
6,888937	-5,120641	3,065206	2020-10-29T19:46:43:355
6,192625	-5,558527	3,227918	2020-10-29T19:46:43:372
5,692525	-5,781059	3,402594	2020-10-29T19:46:43:395
5,436492	-5,673382	3,397808	2020-10-29T19:46:43:412
5,525027	-5,828916	3,058028	2020-10-29T19:46:43:436
5,338387	-5,809773	2,634498	2020-10-29T19:46:43:452
5,455636	-5,800202	1,890330	2020-10-29T19:46:43:474
7,702496	-5,680561	2,646462	2020-10-29T19:46:43:493
11,191232	-6,087341	2,677568	2020-10-29T19:46:43:516
12,887742	-7,027720	2,577070	2020-10-29T19:46:43:532
12,832708	-6,948757	2,031506	2020-10-29T19:46:43:555
14,065011	-7,051648	2,096112	2020-10-29T19:46:43:576
14,818751	-6,498906	1,832902	2020-10-29T19:46:43:596
13,818550	-5,111069	1,677369	2020-10-29T19:46:43:612
12,416357	-3,881158	1,435694	2020-10-29T19:46:43:635
11,607583	-3,175276	1,124627	2020-10-29T19:46:43:653
11,064411	-2,603391	0,732204	2020-10-29T19:46:43:677
10,179067	-1,730011	0,433101	2020-10-29T19:46:43:694
9,683753	-1,052842	0,500100	2020-10-29T19:46:43:715
9,243474	-0,933201	0,882952	2020-10-29T19:46:43:733
8,779266	-1,495514	1,366302	2020-10-29T19:46:43:756
8,585447	-1,995614	1,763510	2020-10-29T19:46:43:772
8,563912	-2,782853	1,854438	2020-10-29T19:46:43:796
8,489735	-3,378666	1,940579	2020-10-29T19:46:43:815
8,391629	-3,792624	1,909473	2020-10-29T19:46:43:836
8,465806	-3,821337	1,895115	2020-10-29T19:46:43:854
8,477771	-3,687340	1,899901	2020-10-29T19:46:43:875
8,348558	-3,058028	1,909473	2020-10-29T19:46:43:893
8,238488	-2,895315	1,808974	2020-10-29T19:46:43:916
8,633304	-2,658426	1,806581	2020-10-29T19:46:43:933
8,786445	-2,488536	2,103291	2020-10-29T19:46:43:955
7,855636	-2,289931	2,419144	2020-10-29T19:46:43:973
7,288538	-2,419144	2,404787	2020-10-29T19:46:43:997
7,702496	-2,823531	2,433501	2020-10-29T19:46:44:013
8,039884	-2,873780	2,380858	2020-10-29T19:46:44:035
8,322237	-2,904887	2,426322	2020-10-29T19:46:44:054
8,650054	-2,902494	2,550749	2020-10-29T19:46:44:076
9,121440	-2,940779	2,622534	2020-10-29T19:46:44:094
9,147761	-2,825923	2,828316	2020-10-29T19:46:44:115
9,018548	-2,569891	2,868994	2020-10-29T19:46:44:133
9,073583	-2,266003	2,811567	2020-10-29T19:46:44:156
9,609575	-1,914258	2,677568	2020-10-29T19:46:44:173
9,769895	-1,634298	2,608176	2020-10-29T19:46:44:196
9,889536	-1,418944	2,550749	2020-10-29T19:46:44:214
9,827322	-0,727418	2,342573	2020-10-29T19:46:44:237
9,480364	0,227318	1,947758	2020-10-29T19:46:44:253
9,241080	-0,270389	1,981257	2020-10-29T19:46:44:276
9,434900	-1,914258	2,021935	2020-10-29T19:46:44:296
9,753145	-2,914458	2,270789	2020-10-29T19:46:44:316
9,944571	-3,146562	2,179861	2020-10-29T19:46:44:333
12,622139	-3,548556	2,572284	2020-10-29T19:46:44:356
16,302301	-4,120440	2,782853	2020-10-29T19:46:44:374
14,869000	-3,668197	2,835495	2020-10-29T19:46:44:397
10,664811	-2,730211	3,218346	2020-10-29T19:46:44:414
8,807980	-2,572284	2,892922	2020-10-29T19:46:44:436
8,707481	-2,849852	2,763710	2020-10-29T19:46:44:454
8,394022	-3,022135	2,763710	2020-10-29T19:46:44:476
7,661818	-3,062813	2,919244	2020-10-29T19:46:44:494
7,338787	-3,146562	2,868994	2020-10-29T19:46:44:516
7,647461	-3,400201	2,684747	2020-10-29T19:46:44:535
8,169096	-3,237489	2,304288	2020-10-29T19:46:44:557
8,571091	-2,751746	1,887937	2020-10-29T19:46:44:574
9,047262	-2,048256	1,598405	2020-10-29T19:46:44:596
9,308081	-1,430908	1,294517	2020-10-29T19:46:44:614
9,296116	-1,251446	1,095913	2020-10-29T19:46:44:637
9,226725	-1,227518	1,050449	2020-10-29T19:46:44:654
8,941978	-1,591227	1,004985	2020-10-29T19:46:44:676
8,583055	-1,698904	1,105484	2020-10-29T19:46:44:695
8,355737	-2,160719	1,304088	2020-10-29T19:46:44:717
8,233703	-2,706282	1,653440	2020-10-29T19:46:44:734
8,142776	-3,125026	2,029114	2020-10-29T19:46:44:756
8,279166	-3,402594	2,304288	2020-10-29T19:46:44:777
8,846266	-3,548556	2,703890	2020-10-29T19:46:44:798
9,628718	-3,534199	3,349952	2020-10-29T19:46:44:814
10,832308	-3,311667	4,096512	2020-10-29T19:46:44:836
11,097912	-1,847259	4,701896	2020-10-29T19:46:44:854
10,631311	0,356531	5,314459	2020-10-29T19:46:44:878
10,561919	2,076970	5,393422	2020-10-29T19:46:44:895
10,298709	1,880759	4,311867	2020-10-29T19:46:44:918
9,279366	-1,837688	3,888337	2020-10-29T19:46:44:934
8,671589	-4,778467	3,644269	2020-10-29T19:46:44:957
8,530413	-4,450650	3,184847	2020-10-29T19:46:44:974
8,408379	-3,708875	2,529213	2020-10-29T19:46:44:997
8,353344	-3,895515	2,301895	2020-10-29T19:46:45:015
8,236095	-3,610770	2,079363	2020-10-29T19:46:45:037
8,133204	-2,589034	1,725225	2020-10-29T19:46:45:056
8,001599	-1,768296	1,320838	2020-10-29T19:46:45:076
7,671390	-1,414158	1,294517	2020-10-29T19:46:45:095
7,685746	-1,136591	1,325624	2020-10-29T19:46:45:117
8,444271	-1,280160	1,110270	2020-10-29T19:46:45:134
12,016755	-2,455036	1,789831	2020-10-29T19:46:45:156
15,081962	-3,775874	2,407180	2020-10-29T19:46:45:174
14,407186	-4,304688	2,282753	2020-10-29T19:46:45:198
11,545370	-4,168297	2,007578	2020-10-29T19:46:45:214
10,054641	-4,094120	1,586441	2020-10-29T19:46:45:237
9,683753	-3,543770	2,440679	2020-10-29T19:46:45:257
9,607183	-2,864209	2,622534	2020-10-29T19:46:45:278
10,526026	-2,529213	2,225325	2020-10-29T19:46:45:295
11,830115	-2,919244	1,801795	2020-10-29T19:46:45:316
11,834900	-3,361916	1,481157	2020-10-29T19:46:45:334
11,294124	-2,636890	1,284946	2020-10-29T19:46:45:357
10,695917	-1,828116	1,289732	2020-10-29T19:46:45:374
9,863215	-1,196411	1,103091	2020-10-29T19:46:45:397
9,111869	-1,050449	1,189233	2020-10-29T19:46:45:415
8,757731	-1,028914	1,464408	2020-10-29T19:46:45:437
8,853443	-1,550549	1,670190	2020-10-29T19:46:45:454
9,071191	-2,222932	1,856830	2020-10-29T19:46:45:476
9,332008	-3,168097	1,813759	2020-10-29T19:46:45:496
9,420543	-3,926622	1,483550	2020-10-29T19:46:45:517
9,544970	-4,333402	1,318445	2020-10-29T19:46:45:535
9,568897	-4,579862	1,225125	2020-10-29T19:46:45:557
9,494720	-4,498507	1,270589	2020-10-29T19:46:45:574
9,633504	-4,163511	1,342373	2020-10-29T19:46:45:598
9,604790	-3,842873	1,373480	2020-10-29T19:46:45:615
9,456435	-3,438486	1,488336	2020-10-29T19:46:45:637
9,190832	-3,084348	1,421337	2020-10-29T19:46:45:654
8,762517	-3,034099	1,387837	2020-10-29T19:46:45:678
8,451449	-2,818745	1,493121	2020-10-29T19:46:45:695
8,183454	-2,833102	1,490728	2020-10-29T19:46:45:717
8,106883	-2,766103	1,651048	2020-10-29T19:46:45:736
8,224132	-2,715853	1,509871	2020-10-29T19:46:45:757
8,207381	-2,639283	1,610370	2020-10-29T19:46:45:776
8,123632	-2,723032	1,871187	2020-10-29T19:46:45:798
8,216952	-2,775674	2,141576	2020-10-29T19:46:45:815
8,384450	-2,959922	2,251646	2020-10-29T19:46:45:838
8,487342	-2,878566	2,490928	2020-10-29T19:46:45:855
8,329416	-2,801995	2,739782	2020-10-29T19:46:45:877
8,367701	-2,553142	3,251846	2020-10-29T19:46:45:896
8,353344	-2,309074	3,314059	2020-10-29T19:46:45:918
9,116654	-1,737189	2,531606	2020-10-29T19:46:45:935
11,583653	-2,041078	2,608176	2020-10-29T19:46:45:957
12,624532	-2,036292	2,912065	2020-10-29T19:46:45:976
11,368300	-1,507478	3,141776	2020-10-29T19:46:45:999
9,628718	-1,263410	3,187240	2020-10-29T19:46:46:015
9,454042	-1,744368	2,639283	2020-10-29T19:46:46:037
9,872787	-1,856830	2,191825	2020-10-29T19:46:46:056
10,320245	-0,701097	1,182054	2020-10-29T19:46:46:078
10,774881	0,337388	0,820738	2020-10-29T19:46:46:096
10,655239	-1,373480	1,758725	2020-10-29T19:46:46:117
10,442278	-2,739782	1,885544	2020-10-29T19:46:46:135
9,951750	-2,880959	1,244268	2020-10-29T19:46:46:158
9,844072	-2,455036	0,509671	2020-10-29T19:46:46:175
9,760324	-2,385644	0,217747	2020-10-29T19:46:46:198
9,643075	-2,297110	0,325424	2020-10-29T19:46:46:216
9,736395	-2,213361	0,258425	2020-10-29T19:46:46:238
9,621540	-2,309074	0,200997	2020-10-29T19:46:46:255
9,233903	-2,469393	0,222532	2020-10-29T19:46:46:278
9,095119	-2,778067	0,229711	2020-10-29T19:46:46:296
8,997013	-3,160919	0,256032	2020-10-29T19:46:46:319
9,300901	-3,527020	0,461815	2020-10-29T19:46:46:335
9,623933	-3,897908	0,734596	2020-10-29T19:46:46:357
9,793823	-4,134798	1,062413	2020-10-29T19:46:46:376
9,982857	-4,264010	1,371087	2020-10-29T19:46:46:399
9,827322	-3,888337	1,670190	2020-10-29T19:46:46:415
9,652647	-3,711268	2,151148	2020-10-29T19:46:46:438
9,748360	-3,570091	2,533999	2020-10-29T19:46:46:458
9,798609	-3,029313	2,938386	2020-10-29T19:46:46:478
9,485149	-2,569891	3,275774	2020-10-29T19:46:46:497
9,241080	-2,273181	3,553342	2020-10-29T19:46:46:518
9,138189	-2,074577	3,711268	2020-10-29T19:46:46:535
9,001799	-1,730011	3,785445	2020-10-29T19:46:46:559
8,975478	-1,691726	3,964907	2020-10-29T19:46:46:576
9,501899	-2,108077	3,778267	2020-10-29T19:46:46:598
10,298709	-2,569891	3,574877	2020-10-29T19:46:46:616
10,600205	-2,447858	3,694518	2020-10-29T19:46:46:639
10,542776	-2,053042	3,938586	2020-10-29T19:46:46:655
10,961520	-1,787439	3,381058	2020-10-29T19:46:46:682
13,079168	-1,859223	3,077170	2020-10-29T19:46:46:697
14,478970	-1,753939	2,952743	2020-10-29T19:46:46:719
13,205987	-1,268196	2,584249	2020-10-29T19:46:46:736
11,609976	-1,708475	2,431108	2020-10-29T19:46:46:758
11,468799	-2,426322	1,517050	2020-10-29T19:46:46:776
10,887343	-2,857030	1,351945	2020-10-29T19:46:46:800
9,836893	-2,794817	1,698904	2020-10-29T19:46:46:816
8,994620	-3,203990	0,882952	2020-10-29T19:46:46:838
9,066404	-3,266203	0,433101	2020-10-29T19:46:46:856
9,839286	-2,713461	-0,047856	2020-10-29T19:46:46:881
10,588240	-2,636890	0,244068	2020-10-29T19:46:46:896
11,363515	-2,531606	0,401994	2020-10-29T19:46:46:918
11,423335	-3,397808	0,212961	2020-10-29T19:46:46:937
10,949556	-5,029713	0,559920	2020-10-29T19:46:46:959
10,820344	-5,525027	0,787239	2020-10-29T19:46:46:976
10,707881	-4,996214	0,811167	2020-10-29T19:46:46:999
10,181459	-3,993621	0,856631	2020-10-29T19:46:47:016
9,769895	-3,653840	0,861416	2020-10-29T19:46:47:039
9,588040	-3,440879	0,784846	2020-10-29T19:46:47:056
9,537791	-3,005385	0,535992	2020-10-29T19:46:47:078
9,588040	-2,801995	0,557528	2020-10-29T19:46:47:098
9,877571	-2,914458	1,045663	2020-10-29T19:46:47:119
10,073784	-3,326023	1,574477	2020-10-29T19:46:47:137
9,915856	-3,565305	1,581656	2020-10-29T19:46:47:158
9,626326	-3,558127	1,538585	2020-10-29T19:46:47:178
9,420543	-3,438486	1,698904	2020-10-29T19:46:47:200
9,169296	-3,213561	1,849652	2020-10-29T19:46:47:218
8,774480	-3,019742	1,816152	2020-10-29T19:46:47:238
8,453842	-2,746960	1,837688	2020-10-29T19:46:47:257
8,116454	-2,533999	1,976472	2020-10-29T19:46:47:279
7,858029	-2,421536	2,036292	2020-10-29T19:46:47:297
7,767102	-2,287539	2,081756	2020-10-29T19:46:47:318
7,508677	-2,160719	2,139183	2020-10-29T19:46:47:338
7,338787	-1,986043	2,220540	2020-10-29T19:46:47:359
7,350751	-1,818545	2,445465	2020-10-29T19:46:47:377
7,637890	-1,383051	2,572284	2020-10-29T19:46:47:399
7,843673	-1,347159	2,117648	2020-10-29T19:46:47:418
9,499505	-1,002593	1,598405	2020-10-29T19:46:47:439
11,928220	-1,287339	1,155733	2020-10-29T19:46:47:457
13,320844	-1,057628	1,323231	2020-10-29T19:46:47:479
11,868401	-0,574277	1,971686	2020-10-29T19:46:47:498
9,688539	-0,275175	2,378466	2020-10-29T19:46:47:520
8,532805	-0,612563	2,474179	2020-10-29T19:46:47:537
8,573483	-1,246661	2,380858	2020-10-29T19:46:47:560
9,451650	-1,593620	2,246860	2020-10-29T19:46:47:577
10,346564	-1,689333	1,818545	2020-10-29T19:46:47:600
10,949556	-1,899901	1,655833	2020-10-29T19:46:47:616
11,119448	-2,088934	1,488336	2020-10-29T19:46:47:639
10,887343	-1,871187	1,366302	2020-10-29T19:46:47:661
10,717452	-1,440479	1,304088	2020-10-29T19:46:47:680
10,588240	-1,050449	1,198804	2020-10-29T19:46:47:697
10,291530	-1,440479	1,007378	2020-10-29T19:46:47:719
10,171888	-1,928615	0,842274	2020-10-29T19:46:47:737
10,025927	-2,581856	0,756132	2020-10-29T19:46:47:760
9,482756	-2,969493	1,033699	2020-10-29T19:46:47:777
8,846266	-3,304488	1,280160	2020-10-29T19:46:47:799
8,554340	-3,594020	1,406980	2020-10-29T19:46:47:817
8,676375	-3,488736	1,457229	2020-10-29T19:46:47:840
9,327222	-3,393023	1,263410	2020-10-29T19:46:47:857
10,124033	-3,223132	1,091127	2020-10-29T19:46:47:885
10,633704	-3,146562	1,014557	2020-10-29T19:46:47:900
10,877771	-3,208775	1,083949	2020-10-29T19:46:47:920
11,140982	-3,402594	1,045663	2020-10-29T19:46:47:937
11,401800	-3,512664	1,268196	2020-10-29T19:46:47:959
11,370694	-3,960121	1,636691	2020-10-29T19:46:47:978
11,248660	-4,007978	2,890530	2020-10-29T19:46:48:001
11,554940	-3,512664	3,723232	2020-10-29T19:46:48:017
11,105090	-3,244668	3,400201	2020-10-29T19:46:48:039
9,954143	-3,237489	3,093920	2020-10-29T19:46:48:057
9,516255	-3,235096	3,184847	2020-10-29T19:46:48:080
9,547362	-3,156133	3,548556	2020-10-29T19:46:48:098
9,145369	-2,620141	3,751946	2020-10-29T19:46:48:119
9,224331	-2,299503	3,859623	2020-10-29T19:46:48:140
9,690931	-2,060220	3,529413	2020-10-29T19:46:48:160
9,446864	-1,835295	3,354738	2020-10-29T19:46:48:177
9,109475	-1,885544	3,270989	2020-10-29T19:46:48:200
10,226924	-1,761117	3,259024	2020-10-29T19:46:48:217
11,440084	-1,521835	3,261417	2020-10-29T19:46:48:240
12,344571	-1,383051	3,022135	2020-10-29T19:46:48:257
12,440285	-1,593620	2,854637	2020-10-29T19:46:48:279
11,401800	-1,969293	2,804388	2020-10-29T19:46:48:298
10,645668	-2,323431	2,694318	2020-10-29T19:46:48:320
10,729417	-2,567499	2,227718	2020-10-29T19:46:48:336
10,662418	-2,074577	2,112862	2020-10-29T19:46:48:360
10,392029	-2,306681	1,399801	2020-10-29T19:46:48:379
10,346564	-1,469193	0,792024	2020-10-29T19:46:48:401
10,389636	-0,311067	0,607777	2020-10-29T19:46:48:417
10,590633	0,114855	1,277767	2020-10-29T19:46:48:440
10,999805	-0,782453	1,907080	2020-10-29T19:46:48:457
10,722239	-1,978864	1,940579	2020-10-29T19:46:48:480
10,389636	-3,835695	1,612763	2020-10-29T19:46:48:498
9,750752	-5,182854	1,804188	2020-10-29T19:46:48:520
9,150154	-6,171089	2,679961	2020-10-29T19:46:48:538
10,124033	-6,501299	3,043670	2020-10-29T19:46:48:560
11,234302	-5,826523	2,526821	2020-10-29T19:46:48:578
11,442478	-5,218746	2,115255	2020-10-29T19:46:48:600
11,705689	-5,601598	2,356930	2020-10-29T19:46:48:620
12,143576	-5,194818	2,306681	2020-10-29T19:46:48:641
11,554940	-4,412365	1,969293	2020-10-29T19:46:48:658
10,664811	-3,730411	1,646262	2020-10-29T19:46:48:680
10,456635	-3,385844	1,895115	2020-10-29T19:46:48:698
10,289137	-2,608176	2,055435	2020-10-29T19:46:48:721
9,939785	-1,818545	2,043471	2020-10-29T19:46:48:738
9,497113	-1,725225	2,179861	2020-10-29T19:46:48:760
8,982656	-1,725225	2,519642	2020-10-29T19:46:48:778
8,554340	-1,837688	2,727818	2020-10-29T19:46:48:802
8,348558	-1,804188	3,007778	2020-10-29T19:46:48:818
8,051848	-1,696511	2,830709	2020-10-29T19:46:48:840
8,133204	-1,313660	2,689533	2020-10-29T19:46:48:859
7,898707	-0,784846	2,713461	2020-10-29T19:46:48:880
7,527820	-0,380459	2,754139	2020-10-29T19:46:48:899
7,369894	0,126820	2,548356	2020-10-29T19:46:48:920
7,290931	0,818345	1,969293	2020-10-29T19:46:48:938
6,929615	1,505085	1,907080	2020-10-29T19:46:48:961
6,848258	0,854238	2,163112	2020-10-29T19:46:48:978
7,164111	0,311067	2,086541	2020-10-29T19:46:49:001
8,779266	0,294317	2,282753	2020-10-29T19:46:49:018
10,078569	0,351745	2,423929	2020-10-29T19:46:49:041
10,224532	0,610170	2,313859	2020-10-29T19:46:49:059
9,755538	0,720240	2,548356	2020-10-29T19:46:49:080
8,910872	0,105284	2,883351	2020-10-29T19:46:49:101
8,061419	0,062213	3,220739	2020-10-29T19:46:49:121
8,147561	0,423530	3,306881	2020-10-29T19:46:49:138
9,243474	0,847059	2,797210	2020-10-29T19:46:49:160
10,258030	0,803988	2,455036	2020-10-29T19:46:49:178
11,346765	0,351745	2,194218	2020-10-29T19:46:49:202
12,167502	-0,076570	2,000400	2020-10-29T19:46:49:218
12,571891	0,095713	1,825724	2020-10-29T19:46:49:240
12,497713	0,172283	1,284946	2020-10-29T19:46:49:258
12,344571	0,090927	0,995414	2020-10-29T19:46:49:282
11,858829	-0,083749	0,741775	2020-10-29T19:46:49:299
11,251052	-0,576670	0,775275	2020-10-29T19:46:49:320
10,652846	-0,981057	0,923629	2020-10-29T19:46:49:339
10,315458	-1,835295	0,648455	2020-10-29T19:46:49:360
10,370493	-2,854637	0,311067	2020-10-29T19:46:49:378
10,593026	-3,933800	0,191426	2020-10-29T19:46:49:401
10,983055	-4,424329	0,244068	2020-10-29T19:46:49:418
11,126624	-4,584648	0,344566	2020-10-29T19:46:49:442
10,971091	-4,486543	0,301496	2020-10-29T19:46:49:459
10,602598	-4,362115	0,497707	2020-10-29T19:46:49:480
10,291530	-4,517649	0,909273	2020-10-29T19:46:49:499
10,286745	-4,321437	1,177269	2020-10-29T19:46:49:522
10,526026	-3,802195	1,244268	2020-10-29T19:46:49:539
10,832308	-3,699304	1,356731	2020-10-29T19:46:49:561
10,741381	-3,582055	1,428515	2020-10-29T19:46:49:580
10,439885	-3,732803	1,753939	2020-10-29T19:46:49:602
10,226924	-4,041477	2,510071	2020-10-29T19:46:49:619
9,789038	-4,285545	3,438486	2020-10-29T19:46:49:641
9,968499	-4,515256	3,890730	2020-10-29T19:46:49:659
10,289137	-4,000800	4,158726	2020-10-29T19:46:49:682
10,023535	-3,436093	4,874180	2020-10-29T19:46:49:700
9,753145	-4,019942	4,955536	2020-10-29T19:46:49:721
9,710074	-5,405386	4,345366	2020-10-29T19:46:49:739
9,346365	-7,037291	3,943372	2020-10-29T19:46:49:762
8,894121	-8,059027	3,278167	2020-10-29T19:46:49:779
10,760524	-9,427721	2,129612	2020-10-29T19:46:49:801
11,901899	-8,525627	0,701097	2020-10-29T19:46:49:822
11,234302	-6,245267	0,416351	2020-10-29T19:46:49:842
12,404392	-5,649454	0,279960	2020-10-29T19:46:49:859
13,840086	-4,969893	0,186640	2020-10-29T19:46:49:881
13,710874	-3,809374	0,200997	2020-10-29T19:46:49:899
16,675581	-5,668597	0,428315	2020-10-29T19:46:49:922
13,509877	-8,934800	0,227318	2020-10-29T19:46:49:939
11,617154	1,639083	2,289931	2020-10-29T19:46:49:961
23,174488	-2,935993	-1,093520	2020-10-29T19:46:49:979
11,040483	-8,740981	-5,477170	2020-10-29T19:46:50:002
8,726624	-8,604590	-5,517848	2020-10-29T19:46:50:019
11,490334	-6,331409	-3,388237	2020-10-29T19:46:50:041
14,268401	-6,013163	-1,380659	2020-10-29T19:46:50:060
12,157932	-4,486543	-1,797010	2020-10-29T19:46:50:082
12,279965	-4,165904	-2,419144	2020-10-29T19:46:50:100
14,072189	-5,276174	-2,120041	2020-10-29T19:46:50:121
16,070196	-6,137590	-1,280160	2020-10-29T19:46:50:139
18,532412	-5,151747	-1,789831	2020-10-29T19:46:50:163
17,984455	-3,651447	-1,806581	2020-10-29T19:46:50:179
14,620146	-3,802195	-1,004985	2020-10-29T19:46:50:202
11,638690	-4,527221	-0,942772	2020-10-29T19:46:50:219
9,686146	-4,534399	-1,639083	2020-10-29T19:46:50:242
8,075776	-3,981657	-1,349552	2020-10-29T19:46:50:260
7,137790	-3,670590	0,124427	2020-10-29T19:46:50:282
7,082755	-3,371487	0,715454	2020-10-29T19:46:50:301
6,472585	-3,058028	1,100698	2020-10-29T19:46:50:322
5,379066	-3,050849	1,098306	2020-10-29T19:46:50:339
4,457829	-2,644069	1,256232	2020-10-29T19:46:50:361
4,082155	-2,057827	1,655833	2020-10-29T19:46:50:380
4,067799	-1,129412	2,299503	2020-10-29T19:46:50:403
3,809374	-0,088534	2,775674	2020-10-29T19:46:50:419
3,416951	1,095913	2,969493	2020-10-29T19:46:50:442
3,510271	2,134398	2,837888	2020-10-29T19:46:50:459
3,890730	2,572284	2,481357	2020-10-29T19:46:50:483
4,213760	2,734996	2,129612	2020-10-29T19:46:50:500
4,637290	2,909672	2,060220	2020-10-29T19:46:50:522
5,386244	2,636890	2,105684	2020-10-29T19:46:50:540
6,044270	2,132005	1,998007	2020-10-29T19:46:50:563
6,503692	1,174876	2,266003	2020-10-29T19:46:50:580
7,240681	0,133998	2,543570	2020-10-29T19:46:50:602
8,516055	-1,002593	2,239682	2020-10-29T19:46:50:620
10,954341	-2,079363	2,213361	2020-10-29T19:46:50:643
13,083955	-2,957529	3,079563	2020-10-29T19:46:50:660
15,031711	-2,280360	4,249653	2020-10-29T19:46:50:682
14,598611	-1,737189	4,515256	2020-10-29T19:46:50:700
13,265808	-2,122434	4,065405	2020-10-29T19:46:50:723
12,643675	-2,074577	3,493521	2020-10-29T19:46:50:740
12,734602	-1,390230	2,947958	2020-10-29T19:46:50:762
12,610175	-1,349552	2,529213	2020-10-29T19:46:50:781
12,421142	-1,763510	2,376073	2020-10-29T19:46:50:803
12,043077	-2,160719	2,079363	2020-10-29T19:46:50:820
12,088539	-2,179861	1,485943	2020-10-29T19:46:50:842
12,330215	-2,024328	0,899701	2020-10-29T19:46:50:860
12,607781	-2,519642	1,249053	2020-10-29T19:46:50:883
13,021741	-3,823731	2,000400	2020-10-29T19:46:50:902
13,409377	-3,560520	1,847259	2020-10-29T19:46:50:922
13,402200	-2,352145	1,055235	2020-10-29T19:46:50:940
13,373486	-2,739782	-0,284746	2020-10-29T19:46:50:964
12,897314	-4,752146	-1,593620	2020-10-29T19:46:50:981
12,019149	-6,321837	-1,710868	2020-10-29T19:46:51:003
11,291731	-7,030113	-1,926222	2020-10-29T19:46:51:021
10,624132	-7,738388	-2,711068	2020-10-29T19:46:51:043
10,131211	-9,822537	-2,916851	2020-10-29T19:46:51:060
8,994620	-11,569297	-1,718047	2020-10-29T19:46:51:082
8,446664	-10,334601	1,150948	2020-10-29T19:46:51:102
8,688338	-7,121039	2,646462	2020-10-29T19:46:51:123
8,709875	-5,359922	2,880959	2020-10-29T19:46:51:140
8,231310	-5,283352	2,237289	2020-10-29T19:46:51:163
8,331808	-5,280960	2,313859	2020-10-29T19:46:51:180
8,891729	-4,737789	2,445465	2020-10-29T19:46:51:204
9,262616	-3,730411	2,208575	2020-10-29T19:46:51:220
9,576077	-3,613162	2,469393	2020-10-29T19:46:51:243
10,107283	-4,388437	3,433701	2020-10-29T19:46:51:261
10,147961	-4,134798	4,488935	2020-10-29T19:46:51:283
9,611969	-2,031506	4,493721	2020-10-29T19:46:51:301
9,387043	-0,468993	4,735396	2020-10-29T19:46:51:323
9,772287	-0,457029	5,103891	2020-10-29T19:46:51:340
10,124033	-0,746561	5,666204	2020-10-29T19:46:51:364
10,435099	-1,237089	6,448657	2020-10-29T19:46:51:380
10,664811	-2,189433	6,910471	2020-10-29T19:46:51:403
12,380465	-3,201597	7,645068	2020-10-29T19:46:51:420
14,959927	-3,345166	7,867601	2020-10-29T19:46:51:444
16,826328	-3,383451	7,133004	2020-10-29T19:46:51:460
17,802599	-3,136991	5,905487	2020-10-29T19:46:51:483
16,481762	-2,356930	4,280759	2020-10-29T19:46:51:502
13,584054	-2,196611	3,103491	2020-10-29T19:46:51:523
12,263215	-2,457429	2,543570	2020-10-29T19:46:51:541
12,502499	-2,062613	1,823331	2020-10-29T19:46:51:563
13,825729	-2,206182	0,964308	2020-10-29T19:46:51:580
15,127424	-2,725425	0,251246	2020-10-29T19:46:51:604
16,010376	-2,833102	-0,141177	2020-10-29T19:46:51:621
16,716259	-2,397608	-0,040678	2020-10-29T19:46:51:642
16,158731	-2,244468	-0,368495	2020-10-29T19:46:51:661
15,187245	-2,368894	-0,519243	2020-10-29T19:46:51:684
14,069797	-3,002992	-0,394816	2020-10-29T19:46:51:701
13,067204	-4,287938	0,452243	2020-10-29T19:46:51:723
12,665211	-5,367101	0,559920	2020-10-29T19:46:51:742
11,722438	-6,199803	0,112463	2020-10-29T19:46:51:764
10,478169	-6,443871	0,784846	2020-10-29T19:46:51:781
9,678967	-6,072984	1,555335	2020-10-29T19:46:51:803
9,609575	-5,812167	1,634298	2020-10-29T19:46:51:821
9,765109	-5,434100	1,134198	2020-10-29T19:46:51:844
9,214760	-4,601398	0,870987	2020-10-29T19:46:51:861
8,355737	-3,816552	0,282353	2020-10-29T19:46:51:883
7,776673	-3,448057	0,490529	2020-10-29T19:46:51:902
7,606783	-3,378666	0,854238	2020-10-29T19:46:51:924
7,496714	-3,026921	0,878166	2020-10-29T19:46:51:941
7,183254	-2,553142	0,775275	2020-10-29T19:46:51:963
6,932007	-2,148755	0,677169	2020-10-29T19:46:51:982
6,501299	-2,000400	1,016950	2020-10-29T19:46:52:005
5,967700	-1,942972	1,371087	2020-10-29T19:46:52:021
5,886343	-2,072184	1,598405	2020-10-29T19:46:52:044
5,979663	-2,129612	1,749153	2020-10-29T19:46:52:074
6,013163	-2,146362	1,919044	2020-10-29T19:46:52:086
5,979663	-1,952543	1,969293	2020-10-29T19:46:52:103
6,137590	-1,727618	2,021935	2020-10-29T19:46:52:124
6,278766	-1,584049	2,263610	2020-10-29T19:46:52:142
5,931807	-1,320838	2,569891	2020-10-29T19:46:52:165
6,082555	-1,138984	2,524428	2020-10-29T19:46:52:182
8,128418	-1,325624	2,313859	2020-10-29T19:46:52:204
10,609775	-1,308874	2,447858	2020-10-29T19:46:52:228
11,430513	-1,012164	3,785445	2020-10-29T19:46:52:249
11,487941	-1,026521	5,900701	2020-10-29T19:46:52:318
11,775080	-1,390230	7,865208	2020-10-29T19:46:52:318
12,765708	-1,311267	8,839087	2020-10-29T19:46:52:319
13,296914	-0,076570	8,446664	2020-10-29T19:46:52:323
13,138988	2,378466	6,989435	2020-10-29T19:46:52:340
12,787244	3,065206	4,809574	2020-10-29T19:46:52:362
12,868600	4,704289	3,448057	2020-10-29T19:46:52:380
12,854243	5,072784	2,641676	2020-10-29T19:46:52:405
11,909079	4,359723	2,634498	2020-10-29T19:46:52:420
10,973484	3,134598	3,038885	2020-10-29T19:46:52:442
10,894521	2,055435	3,402594	2020-10-29T19:46:52:461
10,861022	1,572084	4,216154	2020-10-29T19:46:52:483
10,219746	1,785046	5,840880	2020-10-29T19:46:52:501
8,968300	1,842474	7,372287	2020-10-29T19:46:52:522
8,202596	1,036092	7,274181	2020-10-29T19:46:52:540
7,798209	-0,433101	5,742774	2020-10-29T19:46:52:564
7,233503	-1,428515	4,321437	2020-10-29T19:46:52:580
6,513263	-1,933401	3,479164	2020-10-29T19:46:52:603
6,352944	-2,364109	3,517449	2020-10-29T19:46:52:622
6,745367	-2,237289	3,546163	2020-10-29T19:46:52:644
7,223931	-1,923829	3,282953	2020-10-29T19:46:52:661
7,534998	-1,756332	3,103491	2020-10-29T19:46:52:683
7,750352	-1,634298	2,993421	2020-10-29T19:46:52:702
8,367701	-1,629512	2,991028	2020-10-29T19:46:52:724
9,092726	-1,820938	3,041277	2020-10-29T19:46:52:741
9,111869	-1,859223	3,366701	2020-10-29T19:46:52:763
8,279166	-2,129612	3,725625	2020-10-29T19:46:52:780
7,381857	-2,361716	4,084548	2020-10-29T19:46:52:804
6,951149	-2,445465	4,388437	2020-10-29T19:46:52:823
7,032506	-2,426322	4,378866	2020-10-29T19:46:52:843
7,274181	-1,842474	4,046263	2020-10-29T19:46:52:861
7,561320	-1,426122	3,696911	2020-10-29T19:46:52:885
8,461020	-1,026521	3,096312	2020-10-29T19:46:52:906
9,657433	-0,409173	2,768496	2020-10-29T19:46:52:930
10,234102	-0,169890	2,878566	2020-10-29T19:46:52:941
9,836893	-0,277567	3,448057	2020-10-29T19:46:52:963
8,910872	-0,710668	4,149154	2020-10-29T19:46:52:981
8,214561	-0,926022	4,455436	2020-10-29T19:46:53:005
9,403792	-1,313660	3,974478	2020-10-29T19:46:53:025
13,751552	-2,129612	3,282953	2020-10-29T19:46:53:062
18,025133	-2,667997	2,524428	2020-10-29T19:46:53:063
16,673187	-2,596212	3,897908	2020-10-29T19:46:53:083
10,853845	-1,823331	3,713661	2020-10-29T19:46:53:114
7,219146	-1,110270	3,122634	2020-10-29T19:46:53:123
7,903493	-3,570091	1,914258	2020-10-29T19:46:53:141
10,001998	-2,053042	0,890130	2020-10-29T19:46:53:163
10,727024	0,181855	0,794417	2020-10-29T19:46:53:182
10,317852	-0,658026	1,418944	2020-10-29T19:46:53:205
9,987641	-3,019742	1,864009	2020-10-29T19:46:53:221
10,267602	-4,182654	1,600798	2020-10-29T19:46:53:243
11,095518	-4,553542	0,940379	2020-10-29T19:46:53:261
11,306087	-4,644469	0,392423	2020-10-29T19:46:53:285
10,887343	-4,350152	0,129212	2020-10-29T19:46:53:303
10,432706	-4,170690	0,052642	2020-10-29T19:46:53:326
10,286745	-4,115655	-0,078963	2020-10-29T19:46:53:342
10,382458	-4,010371	-0,198604	2020-10-29T19:46:53:364
10,308280	-3,742374	-0,157926	2020-10-29T19:46:53:381
10,289137	-3,663411	-0,260818	2020-10-29T19:46:53:405
10,303494	-3,711268	-0,421137	2020-10-29T19:46:53:422
10,088140	-3,462414	-0,732204	2020-10-29T19:46:53:444
9,994821	-2,988636	-1,160519	2020-10-29T19:46:53:462
9,987641	-2,495714	-1,421337	2020-10-29T19:46:53:483
9,741181	-1,902294	-1,500300	2020-10-29T19:46:53:502
9,365508	-1,581656	-1,442872	2020-10-29T19:46:53:524
8,839087	-1,560120	-1,337588	2020-10-29T19:46:53:541
8,331808	-2,132005	-1,265803	2020-10-29T19:46:53:563
8,006385	-2,541178	-1,268196	2020-10-29T19:46:53:581
7,690532	-2,510071	-0,806381	2020-10-29T19:46:53:605
7,034898	-2,007578	-0,394816	2020-10-29T19:46:53:621
6,348158	-0,708275	-0,457029	2020-10-29T19:46:53:643
5,402994	0,349352	-0,095713	2020-10-29T19:46:53:661
4,974678	-0,540778	0,011964	2020-10-29T19:46:53:684
5,115855	-2,378466	0,110070	2020-10-29T19:46:53:702
6,357729	-4,541577	0,047856	2020-10-29T19:46:53:723
8,796017	-3,577270	-1,878366	2020-10-29T19:46:53:742
12,141183	-1,739582	-3,244668	2020-10-29T19:46:53:764
14,376079	-1,777867	-4,369294	2020-10-29T19:46:53:781
12,892529	-2,191825	-2,739782	2020-10-29T19:46:53:805
10,016356	-4,197011	-0,411566	2020-10-29T19:46:53:824
9,497113	-4,003192	-0,071785	2020-10-29T19:46:53:846
9,410972	-4,235296	-3,708875	2020-10-29T19:46:53:863
8,494520	-6,396015	-4,579862	2020-10-29T19:46:53:885
10,585848	-10,966305	1,490728	2020-10-29T19:46:53:905
11,133803	-10,124033	-0,524028	2020-10-29T19:46:53:926
11,100305	0,488136	-0,933201	2020-10-29T19:46:53:943
10,293922	5,422136	3,048456	2020-10-29T19:46:53:965
5,501099	3,498307	-2,608176	2020-10-29T19:46:53:983
8,264810	-1,600798	-0,038285	2020-10-29T19:46:54:007
11,346765	-6,463014	4,484150	2020-10-29T19:46:54:023
11,698510	-1,060020	3,814159	2020-10-29T19:46:54:045
11,758330	0,835095	2,000400	2020-10-29T19:46:54:063
10,152746	-2,270789	4,048656	2020-10-29T19:46:54:086
9,858429	-3,854837	3,282953	2020-10-29T19:46:54:104
10,612168	-5,056034	3,168097	2020-10-29T19:46:54:125
10,966305	-5,766702	4,857430	2020-10-29T19:46:54:146
9,592826	-4,539185	4,216154	2020-10-29T19:46:54:166
7,649854	-3,323631	3,359523	2020-10-29T19:46:54:183
6,965507	-3,751946	3,065206	2020-10-29T19:46:54:206
7,393822	-4,953143	3,888337	2020-10-29T19:46:54:223
8,006385	-5,352744	4,771288	2020-10-29T19:46:54:246
8,164310	-4,721039	4,785645	2020-10-29T19:46:54:263
8,709875	-4,517649	4,271189	2020-10-29T19:46:54:285
8,690732	-5,381458	3,948158	2020-10-29T19:46:54:304
8,750552	-5,637490	3,984050	2020-10-29T19:46:54:326
8,666803	-6,094519	3,955336	2020-10-29T19:46:54:343
8,334201	-4,986642	3,919443	2020-10-29T19:46:54:365
7,712067	-3,680161	4,027121	2020-10-29T19:46:54:385
6,888937	-3,555735	4,706682	2020-10-29T19:46:54:407
6,307480	-3,610770	5,824130	2020-10-29T19:46:54:424
6,757331	-3,818945	6,546762	2020-10-29T19:46:54:446
5,560920	-4,041477	5,474778	2020-10-29T19:46:54:463
5,340781	-5,235496	4,144369	2020-10-29T19:46:54:487
5,103891	-5,761917	3,893122	2020-10-29T19:46:54:504
4,821537	-6,101698	3,136991	2020-10-29T19:46:54:526
5,438886	-6,955935	2,952743	2020-10-29T19:46:54:544
6,781260	-8,166703	2,639283	2020-10-29T19:46:54:568
7,185646	-7,822137	1,718047	2020-10-29T19:46:54:584
6,833901	-6,541977	1,107877	2020-10-29T19:46:54:607
6,886543	-6,396015	0,748954	2020-10-29T19:46:54:625
7,719246	-6,597012	0,949951	2020-10-29T19:46:54:647
8,312666	-7,573284	1,079163	2020-10-29T19:46:54:664
9,389436	-7,798209	1,770689	2020-10-29T19:46:54:686
9,628718	-7,432107	1,555335	2020-10-29T19:46:54:704
8,422735	-6,530013	0,689133	2020-10-29T19:46:54:727
8,595018	-7,101898	0,667598	2020-10-29T19:46:54:744
10,037891	-5,606383	1,330409	2020-10-29T19:46:54:766
9,611969	-7,824530	5,434100	2020-10-29T19:46:54:784
7,817351	-9,923036	5,556134	2020-10-29T19:46:54:808
7,750352	-6,764510	2,392823	2020-10-29T19:46:54:824
7,379465	-7,542177	0,926022	2020-10-29T19:46:54:846
7,123433	-6,728617	-0,019143	2020-10-29T19:46:54:865
7,027720	-6,594619	-0,624527	2020-10-29T19:46:54:887
7,099504	-7,154540	-1,134198	2020-10-29T19:46:54:905
7,520642	-7,422535	-1,304088	2020-10-29T19:46:54:928
7,568498	-7,355537	-1,040878	2020-10-29T19:46:54:944
7,678568	-6,865008	-0,830309	2020-10-29T19:46:54:967
7,704889	-6,608976	-1,045663	2020-10-29T19:46:54:984
7,707282	-6,443871	-0,593420	2020-10-29T19:46:55:007
7,688138	-6,240481	-0,153141	2020-10-29T19:46:55:024
7,855636	-6,522834	0,177069	2020-10-29T19:46:55:047
5,874380	-5,608776	-0,729811	2020-10-29T19:46:55:064
7,994420	-6,317052	0,421137	2020-10-29T19:46:55:086
7,927422	-6,120840	0,232104	2020-10-29T19:46:55:106
7,793423	-6,278766	0,643669	2020-10-29T19:46:55:127
8,068598	-5,819345	0,698704	2020-10-29T19:46:55:144
7,740781	-6,206983	0,832702	2020-10-29T19:46:55:166
7,831708	-6,305088	0,894916	2020-10-29T19:46:55:185
7,858029	-6,362515	0,930808	2020-10-29T19:46:55:208
7,829315	-6,336195	0,832702	2020-10-29T19:46:55:224
7,786245	-6,202196	0,612563	2020-10-29T19:46:55:246
7,776673	-6,431907	0,521635	2020-10-29T19:46:55:264
7,831708	-6,632904	0,390030	2020-10-29T19:46:55:287
7,862815	-6,575477	0,260818	2020-10-29T19:46:55:305
7,810174	-6,541977	0,356531	2020-10-29T19:46:55:327
7,740781	-6,640083	0,471386	2020-10-29T19:46:55:345
7,812566	-6,333801	0,605384	2020-10-29T19:46:55:367
7,743174	-6,116055	0,832702	2020-10-29T19:46:55:385
7,657032	-6,061020	0,995414	2020-10-29T19:46:55:409
7,525427	-6,025128	1,067199	2020-10-29T19:46:55:424
7,609176	-6,063413	1,215554	2020-10-29T19:46:55:448
7,597212	-6,125626	1,088734	2020-10-29T19:46:55:465
7,666604	-6,242875	0,930808	2020-10-29T19:46:55:487
7,719246	-6,329016	0,808774	2020-10-29T19:46:55:505
7,719246	-6,463014	0,813560	2020-10-29T19:46:55:527
7,762317	-6,331409	0,753739	2020-10-29T19:46:55:544
7,755138	-6,460621	0,815953	2020-10-29T19:46:55:568
7,798209	-6,173482	0,823131	2020-10-29T19:46:55:587
7,908278	-6,297909	0,801596	2020-10-29T19:46:55:609
7,939385	-6,372087	0,849452	2020-10-29T19:46:55:625
7,793423	-6,175875	0,772882	2020-10-29T19:46:55:648
7,702496	-6,331409	0,815953	2020-10-29T19:46:55:664
7,764710	-6,218946	0,856631	2020-10-29T19:46:55:689
7,786245	-6,230910	0,878166	2020-10-29T19:46:55:705
7,867601	-6,295516	0,899701	2020-10-29T19:46:55:728
7,783852	-6,202196	0,911665	2020-10-29T19:46:55:745
7,802995	-6,123233	0,940379	2020-10-29T19:46:55:769
7,743174	-6,082555	1,033699	2020-10-29T19:46:55:785
7,865208	-6,228518	1,026521	2020-10-29T19:46:55:808
7,724032	-6,290731	1,004985	2020-10-29T19:46:55:826
7,704889	-6,178268	1,026521	2020-10-29T19:46:55:848
7,606783	-6,132804	1,091127	2020-10-29T19:46:55:865
7,683353	-6,183054	1,172483	2020-10-29T19:46:55:888
7,585248	-6,300302	1,127020	2020-10-29T19:46:55:905
7,539784	-6,314659	1,064806	2020-10-29T19:46:55:928
7,511070	-6,367301	1,141376	2020-10-29T19:46:55:945
7,527820	-6,391229	1,110270	2020-10-29T19:46:55:967
7,441679	-6,419943	1,071985	2020-10-29T19:46:55:985
7,652246	-6,486942	1,038485	2020-10-29T19:46:56:009
7,738388	-6,417551	1,071985	2020-10-29T19:46:56:025
7,755138	-6,527620	1,004985	2020-10-29T19:46:56:047
7,716853	-6,405586	1,112662	2020-10-29T19:46:56:066
7,539784	-6,266802	1,033699	2020-10-29T19:46:56:088
7,664211	-6,340980	1,007378	2020-10-29T19:46:56:106
7,700103	-6,319445	1,012164	2020-10-29T19:46:56:127
7,661818	-6,288338	0,973879	2020-10-29T19:46:56:145
7,585248	-6,309873	1,014557	2020-10-29T19:46:56:168
7,563712	-6,226124	1,052842	2020-10-29T19:46:56:185
7,578069	-6,331409	1,064806	2020-10-29T19:46:56:208
7,563712	-6,262017	1,158126	2020-10-29T19:46:56:225
7,704889	-6,166305	1,138984	2020-10-29T19:46:56:248
7,755138	-6,154340	1,062413	2020-10-29T19:46:56:265
7,774280	-6,309873	0,971486	2020-10-29T19:46:56:287
7,791030	-6,271588	0,875773	2020-10-29T19:46:56:307
7,661818	-6,288338	0,887737	2020-10-29T19:46:56:328
7,666604	-6,240481	0,935594	2020-10-29T19:46:56:345
7,688138	-6,403193	0,887737	2020-10-29T19:46:56:368
7,858029	-6,465407	0,811167	2020-10-29T19:46:56:386
7,858029	-6,558727	0,887737	2020-10-29T19:46:56:409
7,743174	-6,374479	0,875773	2020-10-29T19:46:56:426
7,836494	-6,142376	0,830309	2020-10-29T19:46:56:448
7,836494	-6,266802	0,880559	2020-10-29T19:46:56:466
7,905886	-6,230910	0,851845	2020-10-29T19:46:56:488
7,932207	-6,168696	0,732204	2020-10-29T19:46:56:506
8,006385	-6,185446	0,636491	2020-10-29T19:46:56:528
8,099705	-6,338587	0,509671	2020-10-29T19:46:56:547
8,039884	-6,247660	0,423530	2020-10-29T19:46:56:569
8,116454	-6,264410	0,320638	2020-10-29T19:46:56:586
8,343772	-6,259624	0,325424	2020-10-29T19:46:56:609
8,398808	-7,003791	0,215354	2020-10-29T19:46:56:625
8,499306	-6,431907	0,344566	2020-10-29T19:46:56:649
8,489735	-6,269196	0,110070	2020-10-29T19:46:56:667
8,516055	-6,125626	0,107677	2020-10-29T19:46:56:688
8,731410	-7,798209	0,732204	2020-10-29T19:46:56:706
8,286345	-6,324231	0,334995	2020-10-29T19:46:56:729
8,190632	-6,242875	0,248854	2020-10-29T19:46:56:746
8,106883	-6,056234	0,102891	2020-10-29T19:46:56:768
8,200203	-5,953342	0,117248	2020-10-29T19:46:56:787
8,157133	-6,010770	0,241675	2020-10-29T19:46:56:810
8,288737	-6,242875	0,260818	2020-10-29T19:46:56:826
8,358130	-5,946165	0,234497	2020-10-29T19:46:56:848
8,408379	-5,934200	0,112463	2020-10-29T19:46:56:866
8,417950	-5,776274	-0,023928	2020-10-29T19:46:56:889
8,611769	-6,084948	-0,071785	2020-10-29T19:46:56:907
8,831908	-6,233303	-0,224925	2020-10-29T19:46:56:928
9,384650	-6,403193	0,055035	2020-10-29T19:46:56:946
9,420543	-7,066005	0,380459	2020-10-29T19:46:56:969
10,126426	-7,472785	0,471386	2020-10-29T19:46:56:986
10,875379	-6,692725	-0,387637	2020-10-29T19:46:57:009
12,571891	-6,860222	0,071785	2020-10-29T19:46:57:027
12,540783	-5,532206	-0,363709	2020-10-29T19:46:57:049
11,181661	-5,781059	0,464208	2020-10-29T19:46:57:066
10,566705	-5,627919	0,813560	2020-10-29T19:46:57:088
11,258230	-5,044070	0,693919	2020-10-29T19:46:57:107
11,480762	-4,199404	0,672383	2020-10-29T19:46:57:129
10,872985	-3,156133	1,012164	2020-10-29T19:46:57:146
9,985250	-3,259024	0,746561	2020-10-29T19:46:57:168
9,559326	-2,309074	0,935594	2020-10-29T19:46:57:186
9,343972	-2,041078	1,158126	2020-10-29T19:46:57:210
9,293723	-1,529014	1,423729	2020-10-29T19:46:57:226
9,183653	-0,854238	1,655833	2020-10-29T19:46:57:248
9,276974	-1,019342	1,758725	2020-10-29T19:46:57:267
9,387043	-1,304088	1,804188	2020-10-29T19:46:57:289
9,410972	-1,773082	1,808974	2020-10-29T19:46:57:307
9,463614	-2,249253	1,842474	2020-10-29T19:46:57:330
9,370294	-2,368894	1,878366	2020-10-29T19:46:57:346
9,243474	-2,464607	1,969293	2020-10-29T19:46:57:369
9,075976	-2,577070	1,935793	2020-10-29T19:46:57:386
8,784052	-2,596212	1,988436	2020-10-29T19:46:57:410
8,140383	-2,591427	1,964507	2020-10-29T19:46:57:426
7,161718	-2,364109	1,995614	2020-10-29T19:46:57:450
6,345766	-2,366502	1,916651	2020-10-29T19:46:57:467
5,637490	-2,254039	1,902294	2020-10-29T19:46:57:489
5,491528	-2,282753	1,785046	2020-10-29T19:46:57:508
5,793024	-2,220540	1,785046	2020-10-29T19:46:57:529
6,664011	-2,342573	1,550549	2020-10-29T19:46:57:547
7,637890	-2,380858	1,399801	2020-10-29T19:46:57:570
8,571091	-2,344966	1,253839	2020-10-29T19:46:57:586
9,810574	-2,234896	1,043271	2020-10-29T19:46:57:610
10,916058	-2,313859	0,768096	2020-10-29T19:46:57:627
11,152946	-2,380858	0,562313	2020-10-29T19:46:57:648
10,272388	-2,457429	0,629312	2020-10-29T19:46:57:667
8,848659	-2,605784	0,815953	2020-10-29T19:46:57:690
8,240881	-2,672783	1,014557	2020-10-29T19:46:57:707
8,001599	-2,897708	1,280160	2020-10-29T19:46:57:729
8,264810	-3,268596	1,634298	2020-10-29T19:46:57:749
8,757731	-3,838088	2,067399	2020-10-29T19:46:57:770
9,229117	-4,393222	2,653640	2020-10-29T19:46:57:787
9,652647	-4,252046	3,014957	2020-10-29T19:46:57:810
10,281959	-3,821337	3,486342	2020-10-29T19:46:57:827
10,537991	-3,263810	3,347559	2020-10-29T19:46:57:850
10,415956	-2,170290	4,039084	2020-10-29T19:46:57:867
10,535598	-1,098306	4,436293	2020-10-29T19:46:57:889
10,621738	0,555135	5,158926	2020-10-29T19:46:57:908
10,935200	2,632105	6,017949	2020-10-29T19:46:57:931
10,908878	4,646862	5,730811	2020-10-29T19:46:57:947
10,403993	5,436492	4,292724	2020-10-29T19:46:57:969
9,872787	3,749553	4,134798	2020-10-29T19:46:57:989
9,475577	1,196411	5,776274	2020-10-29T19:46:58:011
10,152746	-1,146162	8,166703	2020-10-29T19:46:58:027
11,047661	-2,799603	9,279366	2020-10-29T19:46:58:049
11,892329	-3,613162	9,310472	2020-10-29T19:46:58:067
12,071791	-3,158526	8,985049	2020-10-29T19:46:58:090
11,990433	-1,256232	8,599805	2020-10-29T19:46:58:114
11,655439	0,942772	8,173882	2020-10-29T19:46:58:132
11,172089	2,871387	7,252645	2020-10-29T19:46:58:159
10,581062	3,390630	6,419943	2020-10-29T19:46:58:175
10,174281	2,708675	5,924629	2020-10-29T19:46:58:188
9,209974	2,658426	5,532206	2020-10-29T19:46:58:210
8,267202	1,907080	5,704489	2020-10-29T19:46:58:228
7,690532	0,500100	6,259624	2020-10-29T19:46:58:250
7,255038	-0,471386	6,664011	2020-10-29T19:46:58:267
6,587440	-1,488336	7,039684	2020-10-29T19:46:58:290
5,903094	-0,947558	7,286145	2020-10-29T19:46:58:307
5,462814	0,129212	7,018148	2020-10-29T19:46:58:331
5,091926	1,507478	5,967700	2020-10-29T19:46:58:349
4,735396	4,015156	3,665804	2020-10-29T19:46:58:369
4,548756	4,335794	2,155933	2020-10-29T19:46:58:394
6,668797	0,478565	5,099105	2020-10-29T19:46:58:411
9,276974	-1,816152	8,169096	2020-10-29T19:46:58:427
7,343572	0,602991	8,032705	2020-10-29T19:46:58:451
4,331009	0,701097	6,549156	2020-10-29T19:46:58:469
2,924029	1,194018	5,807381	2020-10-29T19:46:58:492
3,326023	1,756332	5,261817	2020-10-29T19:46:58:508
3,041277	-1,576870	6,192625	2020-10-29T19:46:58:530
2,036292	-3,546163	7,647461	2020-10-29T19:46:58:549
2,232504	-2,337788	7,850852	2020-10-29T19:46:58:571
2,895315	-1,165305	7,353144	2020-10-29T19:46:58:588
3,034099	-1,562513	7,049256	2020-10-29T19:46:58:611
2,201397	-2,232504	6,836295	2020-10-29T19:46:58:628
2,033899	-2,313859	6,910471	2020-10-29T19:46:58:653
1,818545	-2,139183	7,022934	2020-10-29T19:46:58:668
1,758725	-1,933401	7,094719	2020-10-29T19:46:58:690
1,686940	-2,012364	7,101898	2020-10-29T19:46:58:710
1,660619	-2,287539	7,283752	2020-10-29T19:46:58:731
1,545763	-2,467000	7,278966	2020-10-29T19:46:58:748
1,531406	-2,589034	7,635497	2020-10-29T19:46:58:770
2,086541	-2,189433	7,869993	2020-10-29T19:46:58:788
2,380858	-1,670190	7,810174	2020-10-29T19:46:58:812
2,045863	-1,385444	7,798209	2020-10-29T19:46:58:829
1,880759	-0,961915	7,501499	2020-10-29T19:46:58:850
1,916651	-0,535992	6,951149	2020-10-29T19:46:58:868
2,323431	-0,899701	6,522834	2020-10-29T19:46:58:891
2,897708	-1,110270	6,530013	2020-10-29T19:46:58:908
3,244668	-0,550349	6,771688	2020-10-29T19:46:58:930
2,916851	-0,418744	6,999006	2020-10-29T19:46:58:949
2,684747	-0,710668	6,896115	2020-10-29T19:46:58:971
3,098706	-1,024128	6,683154	2020-10-29T19:46:58:988
3,500700	-1,136591	6,137590	2020-10-29T19:46:59:011
3,986443	-1,380659	5,785845	2020-10-29T19:46:59:028
4,448257	-1,351945	5,285746	2020-10-29T19:46:59:051
4,847858	-1,421337	5,536992	2020-10-29T19:46:59:068
5,123034	-1,636691	5,883951	2020-10-29T19:46:59:090
5,513064	-1,942972	5,690133	2020-10-29T19:46:59:109
5,883951	-2,129612	5,584848	2020-10-29T19:46:59:131
6,460621	-1,837688	5,862415	2020-10-29T19:46:59:148
6,742974	-1,560120	5,426922	2020-10-29T19:46:59:170
6,927221	-2,452643	5,166104	2020-10-29T19:46:59:191
7,180861	-2,505285	4,649254	2020-10-29T19:46:59:212
8,011170	-1,627119	4,113262	2020-10-29T19:46:59:228
9,219545	-0,971486	3,505485	2020-10-29T19:46:59:251
10,365707	-0,813560	3,428915	2020-10-29T19:46:59:268
10,607382	-1,359123	4,120440	2020-10-29T19:46:59:292
11,830115	-2,694318	5,041678	2020-10-29T19:46:59:309
15,235102	-3,491128	5,328816	2020-10-29T19:46:59:330
18,276379	-3,302095	5,158926	2020-10-29T19:46:59:348
13,318451	-2,050649	6,056234	2020-10-29T19:46:59:372
11,873186	-3,230310	5,871986	2020-10-29T19:46:59:388
13,512270	-3,412165	4,704289	2020-10-29T19:46:59:411
14,055440	-3,256632	6,017949	2020-10-29T19:46:59:430
16,084553	-4,240082	10,923235	2020-10-29T19:46:59:451
17,036898	-2,428715	10,947165	2020-10-29T19:46:59:468
17,553747	-0,442672	5,067998	2020-10-29T19:46:59:491
18,072989	-1,998007	0,241675	2020-10-29T19:46:59:509
14,888142	-0,681954	-1,581656	2020-10-29T19:46:59:532
11,870793	1,395016	-1,579263	2020-10-29T19:46:59:548
9,980463	1,916651	-1,447658	2020-10-29T19:46:59:571
8,451449	2,153540	-1,048056	2020-10-29T19:46:59:588
6,611369	2,615355	0,210568	2020-10-29T19:46:59:613
5,383851	2,206182	1,438086	2020-10-29T19:46:59:628
5,173282	1,332802	2,139183	2020-10-29T19:46:59:651
5,836094	0,313460	2,746960	2020-10-29T19:46:59:670
6,936793	-1,861616	3,103491	2020-10-29T19:46:59:691
7,767102	-4,036692	3,237489	2020-10-29T19:46:59:709
8,173882	-5,075177	2,924029	2020-10-29T19:46:59:731
8,178668	-5,000999	2,292324	2020-10-29T19:46:59:749
8,240881	-4,843073	1,928615	2020-10-29T19:46:59:772
8,432307	-4,881358	1,706082	2020-10-29T19:46:59:788
8,516055	-4,692325	1,830509	2020-10-29T19:46:59:812
8,417950	-3,629912	2,062613	2020-10-29T19:46:59:829
8,530413	-3,151347	2,337788	2020-10-29T19:46:59:852
8,860621	-3,168097	2,471786	2020-10-29T19:46:59:869
9,303294	-3,115455	2,431108	2020-10-29T19:46:59:891
9,848858	-3,290131	2,452643	2020-10-29T19:46:59:911
10,298709	-3,077170	2,428715	2020-10-29T19:46:59:932
10,518847	-2,732604	2,344966	2020-10-29T19:46:59:949
10,715059	-2,474179	2,239682	2020-10-29T19:46:59:971
10,851451	-2,194218	2,084148	2020-10-29T19:46:59:989
10,614561	-1,864009	1,892723	2020-10-29T19:47:00:012
10,401600	-1,694118	1,770689	2020-10-29T19:47:00:029
10,573883	-1,478764	1,670190	2020-10-29T19:47:00:051
11,346765	-1,658226	1,272982	2020-10-29T19:47:00:069
13,177275	-2,045863	1,107877	2020-10-29T19:47:00:092
14,311473	-2,512464	1,146162	2020-10-29T19:47:00:110
12,892529	-2,577070	1,268196	2020-10-29T19:47:00:131
10,205389	-2,792424	1,610370	2020-10-29T19:47:00:152
8,547162	-3,086741	1,873580	2020-10-29T19:47:00:172
8,264810	-3,524628	2,342573	2020-10-29T19:47:00:189
8,535198	-3,840480	2,459821	2020-10-29T19:47:00:212
8,595018	-4,197011	2,318645	2020-10-29T19:47:00:229
8,666803	-4,455436	2,285146	2020-10-29T19:47:00:252
9,994821	-4,084548	1,670190	2020-10-29T19:47:00:269
12,090932	-2,385644	0,208176	2020-10-29T19:47:00:291
12,993028	0,423530	-1,165305	2020-10-29T19:47:00:310
12,413965	2,890530	-1,344766	2020-10-29T19:47:00:333
11,456835	3,203990	-0,916451	2020-10-29T19:47:00:349
11,121840	1,990828	-0,267996	2020-10-29T19:47:00:371
10,954341	0,495314	0,244068	2020-10-29T19:47:00:392
9,611969	-1,088734	1,256232	2020-10-29T19:47:00:413
9,166903	-1,308874	1,586441	2020-10-29T19:47:00:429
8,583055	-0,401994	2,366502	2020-10-29T19:47:00:452
8,791230	0,028714	2,452643	2020-10-29T19:47:00:469
8,989835	-0,466600	2,656033	2020-10-29T19:47:00:493
8,712267	-1,160519	2,845066	2020-10-29T19:47:00:510
8,307880	-1,237089	2,758924	2020-10-29T19:47:00:531
7,762317	-1,045663	2,433501	2020-10-29T19:47:00:549
7,448857	-1,277767	2,014757	2020-10-29T19:47:00:573
7,302894	-1,950150	1,758725	2020-10-29T19:47:00:590
7,405786	-2,483750	1,555335	2020-10-29T19:47:00:612
7,513463	-2,718246	1,294517	2020-10-29T19:47:00:632
8,044669	-2,782853	1,083949	2020-10-29T19:47:00:652
8,559127	-2,682354	0,904487	2020-10-29T19:47:00:669
9,164511	-2,390430	0,835095	2020-10-29T19:47:00:692
9,432507	-2,005185	0,961915	2020-10-29T19:47:00:710
8,997013	-1,847259	1,311267	2020-10-29T19:47:00:733
8,554340	-1,777867	1,730011	2020-10-29T19:47:00:750
8,848659	-1,954936	2,093720	2020-10-29T19:47:00:772
9,272188	-2,191825	2,428715	2020-10-29T19:47:00:790
9,396614	-2,646462	2,773281	2020-10-29T19:47:00:814
9,473185	-2,392823	2,684747	2020-10-29T19:47:00:830
11,042876	-2,306681	2,548356	2020-10-29T19:47:00:852
13,940585	-2,555535	2,459821	2020-10-29T19:47:00:872
15,507884	-2,148755	2,060220	2020-10-29T19:47:00:892
15,366707	-1,859223	2,136791	2020-10-29T19:47:00:911
14,086546	-1,895115	2,639283	2020-10-29T19:47:00:932
12,064612	-2,084148	2,768496	2020-10-29T19:47:00:950
9,645468	-1,765903	2,667997	2020-10-29T19:47:00:973
8,487342	-1,576870	2,837888	2020-10-29T19:47:00:990
9,616754	-2,069792	2,959922	2020-10-29T19:47:01:012
11,255837	-2,699104	3,220739	2020-10-29T19:47:01:030
11,808580	-2,928815	3,426522	2020-10-29T19:47:01:053
11,964113	-3,024528	2,888137	2020-10-29T19:47:01:070
12,378072	-2,818745	2,306681	2020-10-29T19:47:01:092
12,354142	-1,983650	1,873580	2020-10-29T19:47:01:112
11,717653	-1,356731	1,770689	2020-10-29T19:47:01:132
11,205588	-0,634098	1,952543	2020-10-29T19:47:01:150
10,908878	-0,607777	2,201397	2020-10-29T19:47:01:172
10,516455	-1,390230	2,443072	2020-10-29T19:47:01:190
9,975677	-1,543371	2,328217	2020-10-29T19:47:01:214
9,609575	-1,844866	2,134398	2020-10-29T19:47:01:230
9,102298	-2,266003	1,935793	2020-10-29T19:47:01:252
8,664411	-2,732604	1,935793	2020-10-29T19:47:01:270
8,056634	-2,835495	1,978864	2020-10-29T19:47:01:293
7,570890	-2,682354	2,208575	2020-10-29T19:47:01:311
7,410572	-2,478964	2,120041	2020-10-29T19:47:01:332
7,214360	-2,165504	2,098505	2020-10-29T19:47:01:351
7,039684	-2,031506	2,019542	2020-10-29T19:47:01:373
6,821937	-1,935793	1,828116	2020-10-29T19:47:01:390
6,680761	-1,727618	1,682154	2020-10-29T19:47:01:413
6,620940	-1,624727	1,631905	2020-10-29T19:47:01:430
6,553941	-1,679761	1,746760	2020-10-29T19:47:01:454
6,640083	-1,770689	1,806581	2020-10-29T19:47:01:470
6,876972	-1,763510	1,825724	2020-10-29T19:47:01:492
7,286145	-1,679761	2,038685	2020-10-29T19:47:01:511
7,590034	-1,622334	2,158326	2020-10-29T19:47:01:534
8,035098	-1,471586	2,533999	2020-10-29T19:47:01:550
8,843873	-1,375873	2,581856	2020-10-29T19:47:01:573
10,755738	-1,268196	2,632105	2020-10-29T19:47:01:592
13,048061	-1,050449	2,447858	2020-10-29T19:47:01:614
14,601004	-0,835095	2,076970	2020-10-29T19:47:01:631
14,404793	-0,899701	2,510071	2020-10-29T19:47:01:653
11,854043	-0,782453	3,388237	2020-10-29T19:47:01:670
9,793823	-0,792024	3,809374	2020-10-29T19:47:01:693
8,963513	-0,906880	4,208975	2020-10-29T19:47:01:711
9,442079	-0,995414	4,469792	2020-10-29T19:47:01:733
10,865808	-1,225125	4,421937	2020-10-29T19:47:01:751
11,459228	-1,564906	3,933800	2020-10-29T19:47:01:774
10,734202	-1,579263	2,967100	2020-10-29T19:47:01:790
10,112068	-1,473979	1,887937	2020-10-29T19:47:01:814
9,868000	-1,069592	1,122234	2020-10-29T19:47:01:832
9,836893	-0,289532	0,815953	2020-10-29T19:47:01:854
9,755538	-0,026321	1,000200	2020-10-29T19:47:01:871
9,750752	-0,514457	1,160519	2020-10-29T19:47:01:893
9,710074	-1,466800	1,184447	2020-10-29T19:47:01:911
9,705289	-2,299503	1,155733	2020-10-29T19:47:01:934
9,597611	-3,046063	1,378266	2020-10-29T19:47:01:951
9,176475	-3,783052	1,588834	2020-10-29T19:47:01:973
8,764909	-4,264010	1,892723	2020-10-29T19:47:01:991
8,592626	-4,462614	2,191825	2020-10-29T19:47:02:014
8,848659	-4,625326	2,500499	2020-10-29T19:47:02:031
9,178867	-4,584648	2,720639	2020-10-29T19:47:02:053
9,355937	-4,551149	2,823531	2020-10-29T19:47:02:072
9,286544	-4,393222	3,292524	2020-10-29T19:47:02:094
9,078369	-4,139583	3,723232	2020-10-29T19:47:02:111
8,932407	-3,850052	3,969693	2020-10-29T19:47:02:133
8,836694	-3,364309	4,043870	2020-10-29T19:47:02:151
8,977871	-2,998207	4,106083	2020-10-29T19:47:02:174
9,267403	-2,505285	4,058227	2020-10-29T19:47:02:191
9,195618	-1,971686	3,881158	2020-10-29T19:47:02:214
9,238688	-1,490728	3,668197	2020-10-29T19:47:02:231
9,544970	-1,402194	2,998207	2020-10-29T19:47:02:255
11,717653	-2,041078	3,268596	2020-10-29T19:47:02:271
14,761322	-2,646462	3,270989	2020-10-29T19:47:02:294
14,873785	-2,591427	3,364309	2020-10-29T19:47:02:314
13,325629	-2,943172	3,500700	2020-10-29T19:47:02:334
11,617154	-2,962314	2,943172	2020-10-29T19:47:02:351
10,370493	-2,744568	1,698904	2020-10-29T19:47:02:373
11,059627	-3,158526	0,279960	2020-10-29T19:47:02:392
12,433105	-3,692125	0,559920	2020-10-29T19:47:02:416
13,045669	-4,857430	1,737189	2020-10-29T19:47:02:431
13,055241	-5,053641	0,918844	2020-10-29T19:47:02:453
12,308680	-3,895515	-0,634098	2020-10-29T19:47:02:471
12,078968	-3,237489	-1,555335	2020-10-29T19:47:02:495
12,201002	-3,017349	-1,428515	2020-10-29T19:47:02:512
11,851650	-3,333202	-1,962115	2020-10-29T19:47:02:534
11,272588	-1,191626	-1,462015	2020-10-29T19:47:02:554
11,559726	1,323231	-1,296910	2020-10-29T19:47:02:575
11,803794	-0,801596	-1,777867	2020-10-29T19:47:02:592
10,516455	-3,637090	-1,490728	2020-10-29T19:47:02:615
9,810574	-4,005585	-0,780060	2020-10-29T19:47:02:631
9,425328	-4,177868	0,114855	2020-10-29T19:47:02:655
9,348758	-4,407579	0,454636	2020-10-29T19:47:02:671
9,293723	-4,240082	0,471386	2020-10-29T19:47:02:694
9,370294	-3,833302	0,351745	2020-10-29T19:47:02:713
9,226725	-3,515057	0,200997	2020-10-29T19:47:02:735
8,750552	-3,247060	-0,148355	2020-10-29T19:47:02:752
8,037491	-2,864209	-0,311067	2020-10-29T19:47:02:774
7,353144	-2,746960	-0,143569	2020-10-29T19:47:02:793
6,757331	-3,069991	0,574277	2020-10-29T19:47:02:817
6,451050	-3,670590	1,505085	2020-10-29T19:47:02:832
6,520442	-4,536791	2,325824	2020-10-29T19:47:02:854
6,671190	-5,845665	2,871387	2020-10-29T19:47:02:872
7,044470	-6,685547	2,866602	2020-10-29T19:47:02:895
7,109076	-6,979864	2,672783	2020-10-29T19:47:02:912
6,987042	-6,405586	2,696711	2020-10-29T19:47:02:934
6,807580	-6,128019	2,861816	2020-10-29T19:47:02:952
7,283752	-5,871986	3,134598	2020-10-29T19:47:02:975
8,506484	-5,826523	3,467200	2020-10-29T19:47:02:992
9,501899	-5,721239	3,795017	2020-10-29T19:47:03:015
9,226725	-5,393422	4,158726	2020-10-29T19:47:03:033
7,331609	-5,000999	4,800002	2020-10-29T19:47:03:055
6,685547	-4,541577	4,850252	2020-10-29T19:47:03:072
7,917850	-4,067799	4,486543	2020-10-29T19:47:03:094
8,611769	-3,280560	4,163511	2020-10-29T19:47:03:112
8,126025	-2,766103	3,986443	2020-10-29T19:47:03:135
7,853244	-2,629712	3,962514	2020-10-29T19:47:03:152
7,855636	-2,490928	3,914658	2020-10-29T19:47:03:174
8,054241	-1,773082	3,878766	2020-10-29T19:47:03:192
8,310273	-1,667797	4,280759	2020-10-29T19:47:03:216
8,633304	-1,268196	4,989035	2020-10-29T19:47:03:232
9,066404	-0,102891	4,744967	2020-10-29T19:47:03:254
9,597611	1,213161	3,974478	2020-10-29T19:47:03:273
9,884750	3,175276	2,325824	2020-10-29T19:47:03:295
11,554940	0,473779	1,954936	2020-10-29T19:47:03:312
12,703495	-4,283153	3,404987	2020-10-29T19:47:03:334
12,430713	-8,731410	4,067799	2020-10-29T19:47:03:352
10,710274	-9,391829	4,948357	2020-10-29T19:47:03:375
9,616754	-7,676175	5,197211	2020-10-29T19:47:03:392
8,949157	-5,728417	4,211368	2020-10-29T19:47:03:415
8,075776	-4,211368	2,931208	2020-10-29T19:47:03:432
7,546963	-4,192225	1,653440	2020-10-29T19:47:03:455
6,939186	-4,314260	0,825524	2020-10-29T19:47:03:472
6,599405	-3,976871	0,425922	2020-10-29T19:47:03:495
6,683154	-3,548556	-0,028714	2020-10-29T19:47:03:515
6,508478	-2,981457	-0,244068	2020-10-29T19:47:03:535
6,013163	-2,541178	-0,179462	2020-10-29T19:47:03:552
5,099105	-1,813759	-0,071785	2020-10-29T19:47:03:574
4,187439	-1,170090	-0,229711	2020-10-29T19:47:03:592
4,108476	-0,624527	-0,698704	2020-10-29T19:47:03:616
5,292924	-0,612563	-2,292324	2020-10-29T19:47:03:632
9,719646	-0,971486	-3,132205	2020-10-29T19:47:03:654
19,178473	-1,835295	-0,605384	2020-10-29T19:47:03:672
30,704700	-7,381857	2,871387	2020-10-29T19:47:03:695
15,259030	-9,552148	3,991228	2020-10-29T19:47:03:712
8,149954	-7,499106	3,952943	2020-10-29T19:47:03:735
5,113462	-5,065606	5,201996	2020-10-29T19:47:03:754
7,025328	-1,665405	4,338188	2020-10-29T19:47:03:775
9,444471	0,306281	2,057827	2020-10-29T19:47:03:792
9,379865	-0,696311	1,418944	2020-10-29T19:47:03:815
9,329616	-2,232504	0,447458	2020-10-29T19:47:03:832
10,150353	-2,993421	-1,332802	2020-10-29T19:47:03:855
12,375679	-1,995614	-2,292324	2020-10-29T19:47:03:872
12,698709	-0,684347	-3,476771	2020-10-29T19:47:03:894
12,457035	3,113062	-2,249253	2020-10-29T19:47:03:914
11,322837	4,225725	0,110070	2020-10-29T19:47:03:935
10,030712	2,273181	1,148555	2020-10-29T19:47:03:952
8,676375	-0,368495	1,438086	2020-10-29T19:47:03:975
8,123632	-2,727818	1,311267	2020-10-29T19:47:03:995
8,111670	-3,689733	0,646062	2020-10-29T19:47:04:016
8,260024	-3,900301	-0,038285	2020-10-29T19:47:04:034
8,563912	-4,225725	-0,038285	2020-10-29T19:47:04:056
8,925228	-4,656433	0,287139	2020-10-29T19:47:04:074
8,977871	-4,833502	0,598206	2020-10-29T19:47:04:095
8,776874	-4,783253	0,607777	2020-10-29T19:47:04:115
8,542377	-4,067799	0,497707	2020-10-29T19:47:04:135
8,401200	-4,043870	0,449851	2020-10-29T19:47:04:154
8,295916	-3,665804	0,406780	2020-10-29T19:47:04:176
8,353344	-3,074777	0,363709	2020-10-29T19:47:04:193
8,896514	-2,632105	0,480957	2020-10-29T19:47:04:215
9,408579	-2,294717	0,701097	2020-10-29T19:47:04:235
10,049855	-1,938186	0,789631	2020-10-29T19:47:04:255
10,518847	-1,596013	0,880559	2020-10-29T19:47:04:274
10,820344	-1,308874	1,019342	2020-10-29T19:47:04:295
11,076375	-1,210768	1,158126	2020-10-29T19:47:04:314
11,198411	-1,313660	1,280160	2020-10-29T19:47:04:336
11,076375	-1,387837	1,605584	2020-10-29T19:47:04:354
10,566705	-1,581656	1,935793	2020-10-29T19:47:04:375
9,999605	-1,811367	2,347359	2020-10-29T19:47:04:394
9,561719	-2,002793	2,713461	2020-10-29T19:47:04:416
9,458827	-2,342573	3,055635	2020-10-29T19:47:04:433
9,573684	-2,608176	3,077170	2020-10-29T19:47:04:455
9,494720	-2,323431	2,873780	2020-10-29T19:47:04:474
9,260223	-1,981257	2,407180	2020-10-29T19:47:04:496
9,121440	-1,698904	2,187040	2020-10-29T19:47:04:514
9,363115	-1,672583	2,445465	2020-10-29T19:47:04:535
9,738789	-1,677369	2,452643	2020-10-29T19:47:04:553
9,903893	-1,799403	2,256432	2020-10-29T19:47:04:576
9,671788	-1,663012	1,966900	2020-10-29T19:47:04:593
9,171689	-1,646262	1,859223	2020-10-29T19:47:04:616
9,054441	-1,777867	1,758725	2020-10-29T19:47:04:634
9,542577	-1,763510	1,363909	2020-10-29T19:47:04:656
11,528620	-2,208575	1,270589	2020-10-29T19:47:04:673
13,741980	-2,421536	1,859223	2020-10-29T19:47:04:695
15,038890	-1,952543	2,294717	2020-10-29T19:47:04:716
13,636696	-2,048256	1,957329	2020-10-29T19:47:04:736
11,593226	-2,366502	2,196611	2020-10-29T19:47:04:754
10,901700	-2,400001	2,411965	2020-10-29T19:47:04:775
9,430114	-2,203789	3,012564	2020-10-29T19:47:04:793
8,130811	-2,041078	2,823531	2020-10-29T19:47:04:817
7,886744	-2,529213	2,316252	2020-10-29T19:47:04:833
8,707481	-3,058028	1,655833	2020-10-29T19:47:04:855
9,487542	-3,012564	0,971486	2020-10-29T19:47:04:874
10,222138	-2,251646	0,660419	2020-10-29T19:47:04:896
11,315658	-1,849652	0,669990	2020-10-29T19:47:04:914
12,167502	-2,342573	1,883151	2020-10-29T19:47:04:937
11,521441	-1,641476	2,813959	2020-10-29T19:47:04:954
10,248460	-0,610170	2,199004	2020-10-29T19:47:04:976
9,561719	-1,253839	0,610170	2020-10-29T19:47:04:993
8,882158	-1,493121	-0,090927	2020-10-29T19:47:05:016
8,518449	-1,447658	-0,136391	2020-10-29T19:47:05:033
8,362915	-1,603191	0,373280	2020-10-29T19:47:05:056
7,740781	-1,418944	0,748954	2020-10-29T19:47:05:074
7,652246	-1,371087	1,162912	2020-10-29T19:47:05:095
8,044669	-1,670190	1,576870	2020-10-29T19:47:05:114
8,487342	-2,536392	2,246860	2020-10-29T19:47:05:136
9,470792	-3,665804	3,503092	2020-10-29T19:47:05:154
8,379664	-2,660819	3,878766	2020-10-29T19:47:05:176
7,360322	-1,646262	3,428915	2020-10-29T19:47:05:195
7,601997	-2,316252	3,134598	2020-10-29T19:47:05:218
7,250252	-2,230111	3,005385	2020-10-29T19:47:05:234
6,884151	-1,923829	3,321238	2020-10-29T19:47:05:256
7,015756	-2,048256	3,412165	2020-10-29T19:47:05:274
7,398607	-2,012364	3,280560	2020-10-29T19:47:05:297
7,771888	-1,921437	3,062813	2020-10-29T19:47:05:314
8,214561	-1,861616	2,938386	2020-10-29T19:47:05:336
8,499306	-1,715654	3,031706	2020-10-29T19:47:05:354
8,977871	-1,627119	3,108276	2020-10-29T19:47:05:376
9,439686	-1,361516	3,091527	2020-10-29T19:47:05:394
10,719845	-1,088734	3,036492	2020-10-29T19:47:05:417
13,196418	-1,026521	2,995814	2020-10-29T19:47:05:435
14,074582	-0,873380	3,498307	2020-10-29T19:47:05:457
13,823336	-1,038485	4,319045	2020-10-29T19:47:05:474
13,538590	-1,679761	4,656433	2020-10-29T19:47:05:497
11,588440	-1,696511	4,575077	2020-10-29T19:47:05:515
9,075976	-1,655833	3,981657	2020-10-29T19:47:05:537
8,343772	-1,983650	3,239882	2020-10-29T19:47:05:554
9,743573	-2,419144	3,146562	2020-10-29T19:47:05:576
11,724831	-2,675175	3,527020	2020-10-29T19:47:05:594
12,461821	-2,768496	3,493521	2020-10-29T19:47:05:618
11,813366	-2,713461	2,825923	2020-10-29T19:47:05:634
11,162518	-2,739782	2,134398	2020-10-29T19:47:05:656
11,040483	-2,280360	1,624727	2020-10-29T19:47:05:675
10,786844	-1,158126	1,567299	2020-10-29T19:47:05:697
9,939785	-0,098106	1,835295	2020-10-29T19:47:05:715
9,255438	0,397209	1,950150	2020-10-29T19:47:05:736
8,920443	0,320638	2,036292	2020-10-29T19:47:05:755
8,673983	-0,399601	2,014757	2020-10-29T19:47:05:777
8,465806	-1,117448	1,816152	2020-10-29T19:47:05:794
8,346166	-1,782653	1,660619	2020-10-29T19:47:05:817
8,461020	-2,433501	1,725225	2020-10-29T19:47:05:835
8,520842	-2,883351	1,866402	2020-10-29T19:47:05:857
8,702696	-2,699104	1,842474	2020-10-29T19:47:05:874
8,867801	-2,115255	1,825724	2020-10-29T19:47:05:896
8,989835	-2,000400	1,780260	2020-10-29T19:47:05:916
8,999406	-1,782653	1,665405	2020-10-29T19:47:05:937
8,700303	-1,387837	1,646262	2020-10-29T19:47:05:955
8,166703	-1,105484	1,526621	2020-10-29T19:47:05:976
7,719246	-1,136591	1,572084	2020-10-29T19:47:05:994
7,896315	-1,409373	1,768296	2020-10-29T19:47:06:018
8,398808	-1,691726	1,820938	2020-10-29T19:47:06:035
8,853443	-1,911865	1,916651	2020-10-29T19:47:06:056
9,353544	-2,031506	2,036292	2020-10-29T19:47:06:075
9,896714	-2,201397	2,060220	2020-10-29T19:47:06:098
10,305886	-2,057827	2,017149	2020-10-29T19:47:06:115
10,705488	-1,739582	2,009971	2020-10-29T19:47:06:137
11,408978	-1,555335	1,672583	2020-10-29T19:47:06:156
13,598411	-1,969293	1,706082	2020-10-29T19:47:06:178
15,333207	-1,942972	1,777867	2020-10-29T19:47:06:195
13,569696	-1,837688	2,194218	2020-10-29T19:47:06:218
11,487941	-2,146362	2,591427	2020-10-29T19:47:06:235
10,980663	-2,636890	2,687140	2020-10-29T19:47:06:258
9,427721	-2,455036	2,560320	2020-10-29T19:47:06:275
7,475177	-2,304288	2,586641	2020-10-29T19:47:06:297
7,329216	-2,368894	2,474179	2020-10-29T19:47:06:315
