x	y	z	ts
0,301496	-0,698704	9,700503	2020-10-13T23:02:42:122
0,337388	-0,720240	9,652647	2020-10-13T23:02:42:122
0,263210	-0,648455	9,695717	2020-10-13T23:02:42:123
0,256032	-0,693919	9,693325	2020-10-13T23:02:42:123
0,275175	-0,792024	9,762716	2020-10-13T23:02:42:123
0,246461	-0,677169	9,741181	2020-10-13T23:02:42:123
0,251246	-0,612563	9,686146	2020-10-13T23:02:42:124
0,260818	-0,681954	9,743573	2020-10-13T23:02:42:124
0,284746	-0,691526	9,700503	2020-10-13T23:02:42:125
0,265603	-0,646062	9,702895	2020-10-13T23:02:42:125
0,342174	-0,705883	9,729217	2020-10-13T23:02:42:125
0,306281	-0,648455	9,738789	2020-10-13T23:02:42:126
0,246461	-0,684347	9,760324	2020-10-13T23:02:42:133
0,246461	-0,684347	9,760324	2020-10-13T23:02:42:133
0,279960	-0,708275	9,686146	2020-10-13T23:02:42:134
0,270389	-0,650848	9,714860	2020-10-13T23:02:42:151
0,217747	-0,607777	9,738789	2020-10-13T23:02:42:170
0,284746	-0,643669	9,734003	2020-10-13T23:02:42:191
0,320638	-0,662812	9,760324	2020-10-13T23:02:42:211
0,248854	-0,696311	9,738789	2020-10-13T23:02:42:230
0,248854	-0,588634	9,726824	2020-10-13T23:02:42:250
0,282353	-0,691526	9,717253	2020-10-13T23:02:42:271
0,272782	-0,674776	9,714860	2020-10-13T23:02:42:290
0,306281	-0,672383	9,714860	2020-10-13T23:02:42:311
0,272782	-0,646062	9,724431	2020-10-13T23:02:42:331
0,220140	-0,636491	9,719646	2020-10-13T23:02:42:350
0,287139	-0,698704	9,724431	2020-10-13T23:02:42:370
0,315853	-0,674776	9,710074	2020-10-13T23:02:42:391
0,260818	-0,677169	9,705289	2020-10-13T23:02:42:410
0,258425	-0,720240	9,695717	2020-10-13T23:02:42:430
0,251246	-0,727418	9,757930	2020-10-13T23:02:42:452
0,311067	-0,717847	9,717253	2020-10-13T23:02:42:471
0,275175	-0,646062	9,700503	2020-10-13T23:02:42:490
0,258425	-0,696311	9,714860	2020-10-13T23:02:42:511
0,263210	-0,770489	9,745967	2020-10-13T23:02:42:530
0,308674	-0,667598	9,760324	2020-10-13T23:02:42:550
0,239282	-0,720240	9,755538	2020-10-13T23:02:42:571
0,270389	-0,717847	9,705289	2020-10-13T23:02:42:590
0,275175	-0,725025	9,736395	2020-10-13T23:02:42:610
0,275175	-0,686740	9,726824	2020-10-13T23:02:42:631
0,332602	-0,693919	9,712467	2020-10-13T23:02:42:650
0,179462	-0,636491	9,755538	2020-10-13T23:02:42:672
0,279960	-0,653241	9,738789	2020-10-13T23:02:42:691
0,327817	-0,734596	9,700503	2020-10-13T23:02:42:710
0,299103	-0,655633	9,769895	2020-10-13T23:02:42:730
0,279960	-0,708275	9,681360	2020-10-13T23:02:42:751
0,241675	-0,720240	9,726824	2020-10-13T23:02:42:771
0,239282	-0,665205	9,729217	2020-10-13T23:02:42:791
0,265603	-0,739382	9,702895	2020-10-13T23:02:42:811
0,296710	-0,777667	9,738789	2020-10-13T23:02:42:831
0,339781	-0,768096	9,748360	2020-10-13T23:02:42:850
0,279960	-0,739382	9,745967	2020-10-13T23:02:42:872
0,196211	-0,677169	9,745967	2020-10-13T23:02:42:891
0,222532	-0,684347	9,755538	2020-10-13T23:02:42:911
0,291924	-0,701097	9,772287	2020-10-13T23:02:42:931
0,334995	-0,622134	9,738789	2020-10-13T23:02:42:951
0,291924	-0,720240	9,714860	2020-10-13T23:02:42:971
0,234497	-0,715454	9,738789	2020-10-13T23:02:42:991
0,253639	-0,756132	9,726824	2020-10-13T23:02:43:011
0,323031	-0,629312	9,712467	2020-10-13T23:02:43:031
0,241675	-0,579063	9,784252	2020-10-13T23:02:43:051
0,234497	-0,672383	9,765109	2020-10-13T23:02:43:072
0,291924	-0,703490	9,745967	2020-10-13T23:02:43:090
0,287139	-0,689133	9,695717	2020-10-13T23:02:43:111
0,265603	-0,641276	9,820145	2020-10-13T23:02:43:134
0,282353	-0,698704	9,753145	2020-10-13T23:02:43:153
0,208176	-0,641276	9,683753	2020-10-13T23:02:43:179
0,239282	-0,658026	9,731609	2020-10-13T23:02:43:192
0,275175	-0,576670	9,760324	2020-10-13T23:02:43:213
0,277567	-0,643669	9,683753	2020-10-13T23:02:43:233
0,267996	-0,696311	9,738789	2020-10-13T23:02:43:253
0,253639	-0,751346	9,714860	2020-10-13T23:02:43:272
0,289532	-0,674776	9,755538	2020-10-13T23:02:43:294
0,215354	-0,713061	9,700503	2020-10-13T23:02:43:313
0,294317	-0,696311	9,705289	2020-10-13T23:02:43:334
0,279960	-0,753739	9,736395	2020-10-13T23:02:43:353
0,303888	-0,605384	9,762716	2020-10-13T23:02:43:374
0,282353	-0,708275	9,702895	2020-10-13T23:02:43:393
0,272782	-0,734596	9,741181	2020-10-13T23:02:43:415
0,342174	-0,720240	9,762716	2020-10-13T23:02:43:433
0,234497	-0,617348	9,705289	2020-10-13T23:02:43:454
0,208176	-0,658026	9,769895	2020-10-13T23:02:43:473
0,291924	-0,753739	9,765109	2020-10-13T23:02:43:494
0,258425	-0,696311	9,710074	2020-10-13T23:02:43:512
0,323031	-0,679562	9,731609	2020-10-13T23:02:43:535
0,296710	-0,591027	9,753145	2020-10-13T23:02:43:553
0,299103	-0,667598	9,772287	2020-10-13T23:02:43:574
0,270389	-0,748954	9,726824	2020-10-13T23:02:43:593
0,323031	-0,768096	9,729217	2020-10-13T23:02:43:614
0,258425	-0,753739	9,755538	2020-10-13T23:02:43:633
0,234497	-0,681954	9,688539	2020-10-13T23:02:43:655
0,296710	-0,646062	9,702895	2020-10-13T23:02:43:673
0,277567	-0,705883	9,712467	2020-10-13T23:02:43:694
0,323031	-0,715454	9,748360	2020-10-13T23:02:43:713
0,358923	-0,679562	9,726824	2020-10-13T23:02:43:734
0,265603	-0,703490	9,750752	2020-10-13T23:02:43:753
0,294317	-0,677169	9,698111	2020-10-13T23:02:43:774
0,267996	-0,626920	9,712467	2020-10-13T23:02:43:793
0,272782	-0,736989	9,671788	2020-10-13T23:02:43:813
0,272782	-0,713061	9,757930	2020-10-13T23:02:43:833
0,248854	-0,614955	9,724431	2020-10-13T23:02:43:854
0,241675	-0,725025	9,722038	2020-10-13T23:02:43:873
0,323031	-0,770489	9,791430	2020-10-13T23:02:43:895
0,279960	-0,672383	9,757930	2020-10-13T23:02:43:913
0,291924	-0,696311	9,726824	2020-10-13T23:02:43:934
0,294317	-0,717847	9,698111	2020-10-13T23:02:43:953
0,349352	-0,746561	9,741181	2020-10-13T23:02:43:974
0,346959	-0,744168	9,712467	2020-10-13T23:02:43:994
0,306281	-0,691526	9,738789	2020-10-13T23:02:44:014
0,291924	-0,614955	9,734003	2020-10-13T23:02:44:035
0,229711	-0,717847	9,729217	2020-10-13T23:02:44:054
0,306281	-0,705883	9,707682	2020-10-13T23:02:44:074
0,332602	-0,703490	9,712467	2020-10-13T23:02:44:094
0,296710	-0,729811	9,724431	2020-10-13T23:02:44:114
0,256032	-0,770489	9,729217	2020-10-13T23:02:44:136
0,282353	-0,638884	9,729217	2020-10-13T23:02:44:153
0,291924	-0,646062	9,719646	2020-10-13T23:02:44:175
0,251246	-0,662812	9,729217	2020-10-13T23:02:44:194
0,311067	-0,753739	9,734003	2020-10-13T23:02:44:214
0,301496	-0,739382	9,750752	2020-10-13T23:02:44:234
0,263210	-0,732204	9,753145	2020-10-13T23:02:44:255
0,289532	-0,756132	9,731609	2020-10-13T23:02:44:275
0,275175	-0,638884	9,722038	2020-10-13T23:02:44:294
0,284746	-0,655633	9,755538	2020-10-13T23:02:44:314
0,291924	-0,713061	9,710074	2020-10-13T23:02:44:335
0,236889	-0,648455	9,700503	2020-10-13T23:02:44:353
0,208176	-0,681954	9,719646	2020-10-13T23:02:44:377
0,289532	-0,744168	9,736395	2020-10-13T23:02:44:394
0,337388	-0,650848	9,765109	2020-10-13T23:02:44:414
0,244068	-0,667598	9,731609	2020-10-13T23:02:44:434
0,368495	-0,746561	9,688539	2020-10-13T23:02:44:455
0,270389	-0,739382	9,748360	2020-10-13T23:02:44:474
0,275175	-0,686740	9,736395	2020-10-13T23:02:44:495
0,275175	-0,610170	9,757930	2020-10-13T23:02:44:514
0,320638	-0,744168	9,781858	2020-10-13T23:02:44:535
0,287139	-0,792024	9,657433	2020-10-13T23:02:44:555
0,287139	-0,760918	9,690931	2020-10-13T23:02:44:575
0,277567	-0,708275	9,786645	2020-10-13T23:02:44:594
0,232104	-0,669990	9,726824	2020-10-13T23:02:44:616
0,232104	-0,739382	9,731609	2020-10-13T23:02:44:634
0,272782	-0,705883	9,734003	2020-10-13T23:02:44:655
0,320638	-0,734596	9,729217	2020-10-13T23:02:44:674
0,318245	-0,698704	9,741181	2020-10-13T23:02:44:695
0,299103	-0,614955	9,748360	2020-10-13T23:02:44:714
0,289532	-0,693919	9,698111	2020-10-13T23:02:44:736
0,258425	-0,691526	9,745967	2020-10-13T23:02:44:754
0,327817	-0,803988	9,745967	2020-10-13T23:02:44:775
0,289532	-0,669990	9,676575	2020-10-13T23:02:44:794
0,251246	-0,660419	9,757930	2020-10-13T23:02:44:815
0,327817	-0,677169	9,724431	2020-10-13T23:02:44:834
0,294317	-0,674776	9,757930	2020-10-13T23:02:44:857
0,303888	-0,768096	9,745967	2020-10-13T23:02:44:875
0,279960	-0,725025	9,743573	2020-10-13T23:02:44:896
0,272782	-0,722632	9,750752	2020-10-13T23:02:44:914
0,279960	-0,703490	9,731609	2020-10-13T23:02:44:937
0,270389	-0,806381	9,714860	2020-10-13T23:02:44:954
0,256032	-0,758525	9,750752	2020-10-13T23:02:44:976
0,246461	-0,715454	9,693325	2020-10-13T23:02:44:994
0,241675	-0,744168	9,755538	2020-10-13T23:02:45:015
0,289532	-0,696311	9,786645	2020-10-13T23:02:45:035
0,325424	-0,837488	9,741181	2020-10-13T23:02:45:056
0,239282	-0,713061	9,738789	2020-10-13T23:02:45:074
0,260818	-0,569492	9,719646	2020-10-13T23:02:45:097
0,258425	-0,672383	9,743573	2020-10-13T23:02:45:115
0,342174	-0,772882	9,722038	2020-10-13T23:02:45:136
0,337388	-0,813560	9,731609	2020-10-13T23:02:45:154
0,344566	-0,765703	9,702895	2020-10-13T23:02:45:176
0,246461	-0,732204	9,734003	2020-10-13T23:02:45:194
0,323031	-0,739382	9,724431	2020-10-13T23:02:45:216
0,287139	-0,741775	9,736395	2020-10-13T23:02:45:235
0,277567	-0,698704	9,729217	2020-10-13T23:02:45:256
0,320638	-0,703490	9,779467	2020-10-13T23:02:45:275
0,253639	-0,701097	9,741181	2020-10-13T23:02:45:296
0,294317	-0,751346	9,762716	2020-10-13T23:02:45:314
0,325424	-0,739382	9,743573	2020-10-13T23:02:45:338
0,289532	-0,763310	9,705289	2020-10-13T23:02:45:355
0,320638	-0,753739	9,760324	2020-10-13T23:02:45:376
0,392423	-0,801596	9,705289	2020-10-13T23:02:45:395
0,256032	-0,768096	9,729217	2020-10-13T23:02:45:416
0,253639	-0,748954	9,757930	2020-10-13T23:02:45:435
0,306281	-0,777667	9,729217	2020-10-13T23:02:45:457
0,267996	-0,732204	9,750752	2020-10-13T23:02:45:475
0,256032	-0,777667	9,693325	2020-10-13T23:02:45:496
0,251246	-0,722632	9,683753	2020-10-13T23:02:45:515
0,263210	-0,746561	9,743573	2020-10-13T23:02:45:537
0,315853	-0,681954	9,729217	2020-10-13T23:02:45:555
0,354138	-0,760918	9,717253	2020-10-13T23:02:45:579
0,282353	-0,758525	9,774680	2020-10-13T23:02:45:596
0,251246	-0,868595	9,784252	2020-10-13T23:02:45:616
0,251246	-0,768096	9,774680	2020-10-13T23:02:45:636
0,224925	-0,827917	9,707682	2020-10-13T23:02:45:656
0,303888	-0,727418	9,712467	2020-10-13T23:02:45:676
0,299103	-0,753739	9,674182	2020-10-13T23:02:45:697
0,289532	-0,727418	9,760324	2020-10-13T23:02:45:716
0,289532	-0,772882	9,736395	2020-10-13T23:02:45:737
0,256032	-0,792024	9,767502	2020-10-13T23:02:45:756
0,232104	-0,770489	9,726824	2020-10-13T23:02:45:778
0,272782	-0,746561	9,714860	2020-10-13T23:02:45:796
0,308674	-0,705883	9,753145	2020-10-13T23:02:45:820
0,239282	-0,758525	9,734003	2020-10-13T23:02:45:837
0,294317	-0,763310	9,767502	2020-10-13T23:02:45:858
0,287139	-0,701097	9,757930	2020-10-13T23:02:45:876
0,291924	-0,643669	9,765109	2020-10-13T23:02:45:897
0,282353	-0,658026	9,729217	2020-10-13T23:02:45:915
0,272782	-0,741775	9,750752	2020-10-13T23:02:45:937
0,224925	-0,715454	9,712467	2020-10-13T23:02:45:955
0,282353	-0,729811	9,741181	2020-10-13T23:02:45:977
0,239282	-0,751346	9,777073	2020-10-13T23:02:45:996
0,265603	-0,703490	9,791430	2020-10-13T23:02:46:017
0,351745	-0,681954	9,700503	2020-10-13T23:02:46:036
0,332602	-0,732204	9,722038	2020-10-13T23:02:46:059
0,294317	-0,760918	9,695717	2020-10-13T23:02:46:076
0,256032	-0,782453	9,705289	2020-10-13T23:02:46:097
0,303888	-0,727418	9,757930	2020-10-13T23:02:46:115
0,325424	-0,799203	9,705289	2020-10-13T23:02:46:137
0,289532	-0,677169	9,729217	2020-10-13T23:02:46:155
0,205783	-0,677169	9,690931	2020-10-13T23:02:46:177
0,232104	-0,729811	9,712467	2020-10-13T23:02:46:196
0,215354	-0,727418	9,719646	2020-10-13T23:02:46:217
0,267996	-0,681954	9,743573	2020-10-13T23:02:46:237
0,301496	-0,782453	9,700503	2020-10-13T23:02:46:257
0,284746	-0,741775	9,676575	2020-10-13T23:02:46:276
0,260818	-0,703490	9,736395	2020-10-13T23:02:46:300
0,289532	-0,665205	9,724431	2020-10-13T23:02:46:316
0,272782	-0,725025	9,745967	2020-10-13T23:02:46:338
0,244068	-0,725025	9,729217	2020-10-13T23:02:46:356
0,256032	-0,732204	9,784252	2020-10-13T23:02:46:378
0,239282	-0,722632	9,779467	2020-10-13T23:02:46:396
0,256032	-0,784846	9,712467	2020-10-13T23:02:46:418
0,277567	-0,753739	9,664611	2020-10-13T23:02:46:437
0,306281	-0,756132	9,717253	2020-10-13T23:02:46:457
0,320638	-0,792024	9,736395	2020-10-13T23:02:46:476
0,227318	-0,717847	9,755538	2020-10-13T23:02:46:498
0,267996	-0,701097	9,729217	2020-10-13T23:02:46:515
0,287139	-0,725025	9,717253	2020-10-13T23:02:46:541
0,246461	-0,715454	9,714860	2020-10-13T23:02:46:556
0,303888	-0,696311	9,762716	2020-10-13T23:02:46:578
0,241675	-0,715454	9,736395	2020-10-13T23:02:46:596
0,337388	-0,741775	9,736395	2020-10-13T23:02:46:618
0,279960	-0,658026	9,712467	2020-10-13T23:02:46:636
0,232104	-0,684347	9,690931	2020-10-13T23:02:46:658
0,311067	-0,744168	9,748360	2020-10-13T23:02:46:676
0,256032	-0,753739	9,702895	2020-10-13T23:02:46:699
0,284746	-0,732204	9,748360	2020-10-13T23:02:46:716
0,318245	-0,777667	9,717253	2020-10-13T23:02:46:738
0,301496	-0,734596	9,707682	2020-10-13T23:02:46:756
0,275175	-0,710668	9,726824	2020-10-13T23:02:46:779
0,299103	-0,648455	9,736395	2020-10-13T23:02:46:796
0,277567	-0,698704	9,712467	2020-10-13T23:02:46:819
0,267996	-0,693919	9,767502	2020-10-13T23:02:46:838
0,289532	-0,662812	9,698111	2020-10-13T23:02:46:858
0,239282	-0,713061	9,741181	2020-10-13T23:02:46:876
0,327817	-0,763310	9,652647	2020-10-13T23:02:46:898
0,315853	-0,768096	9,784252	2020-10-13T23:02:46:916
0,272782	-0,722632	9,729217	2020-10-13T23:02:46:939
0,330210	-0,746561	9,734003	2020-10-13T23:02:46:956
0,253639	-0,660419	9,769895	2020-10-13T23:02:46:978
0,224925	-0,713061	9,741181	2020-10-13T23:02:46:996
0,313460	-0,681954	9,765109	2020-10-13T23:02:47:021
0,339781	-0,746561	9,722038	2020-10-13T23:02:47:037
0,272782	-0,739382	9,734003	2020-10-13T23:02:47:059
0,308674	-0,744168	9,736395	2020-10-13T23:02:47:077
0,299103	-0,696311	9,698111	2020-10-13T23:02:47:098
0,318245	-0,674776	9,779467	2020-10-13T23:02:47:116
0,244068	-0,789631	9,753145	2020-10-13T23:02:47:139
0,272782	-0,684347	9,777073	2020-10-13T23:02:47:156
0,303888	-0,636491	9,714860	2020-10-13T23:02:47:178
0,294317	-0,715454	9,748360	2020-10-13T23:02:47:197
0,325424	-0,746561	9,678967	2020-10-13T23:02:47:219
0,308674	-0,674776	9,777073	2020-10-13T23:02:47:237
0,334995	-0,715454	9,760324	2020-10-13T23:02:47:260
0,294317	-0,691526	9,707682	2020-10-13T23:02:47:277
0,325424	-0,751346	9,762716	2020-10-13T23:02:47:299
0,282353	-0,689133	9,702895	2020-10-13T23:02:47:317
0,342174	-0,684347	9,724431	2020-10-13T23:02:47:339
0,346959	-0,768096	9,726824	2020-10-13T23:02:47:357
0,258425	-0,801596	9,736395	2020-10-13T23:02:47:380
0,291924	-0,732204	9,755538	2020-10-13T23:02:47:397
0,299103	-0,655633	9,793823	2020-10-13T23:02:47:418
0,282353	-0,614955	9,738789	2020-10-13T23:02:47:437
0,311067	-0,736989	9,729217	2020-10-13T23:02:47:458
0,284746	-0,729811	9,698111	2020-10-13T23:02:47:477
0,349352	-0,763310	9,765109	2020-10-13T23:02:47:500
0,337388	-0,732204	9,738789	2020-10-13T23:02:47:516
0,311067	-0,722632	9,772287	2020-10-13T23:02:47:539
0,267996	-0,698704	9,753145	2020-10-13T23:02:47:557
0,277567	-0,674776	9,717253	2020-10-13T23:02:47:579
0,301496	-0,725025	9,748360	2020-10-13T23:02:47:597
0,299103	-0,727418	9,705289	2020-10-13T23:02:47:619
0,253639	-0,710668	9,820145	2020-10-13T23:02:47:637
0,260818	-0,713061	9,729217	2020-10-13T23:02:47:659
0,260818	-0,741775	9,769895	2020-10-13T23:02:47:677
0,323031	-0,792024	9,726824	2020-10-13T23:02:47:699
0,189033	-0,715454	9,707682	2020-10-13T23:02:47:717
0,217747	-0,686740	9,729217	2020-10-13T23:02:47:742
0,253639	-0,741775	9,695717	2020-10-13T23:02:47:757
0,272782	-0,753739	9,722038	2020-10-13T23:02:47:779
0,306281	-0,765703	9,734003	2020-10-13T23:02:47:797
0,344566	-0,751346	9,736395	2020-10-13T23:02:47:819
0,287139	-0,792024	9,712467	2020-10-13T23:02:47:837
0,303888	-0,734596	9,748360	2020-10-13T23:02:47:860
0,256032	-0,715454	9,717253	2020-10-13T23:02:47:877
0,260818	-0,669990	9,731609	2020-10-13T23:02:47:899
0,267996	-0,698704	9,796216	2020-10-13T23:02:47:917
0,232104	-0,648455	9,731609	2020-10-13T23:02:47:940
0,301496	-0,691526	9,769895	2020-10-13T23:02:47:957
0,301496	-0,753739	9,736395	2020-10-13T23:02:47:982
0,212961	-0,751346	9,719646	2020-10-13T23:02:47:997
0,189033	-0,782453	9,700503	2020-10-13T23:02:48:019
0,224925	-0,720240	9,700503	2020-10-13T23:02:48:038
0,318245	-0,796810	9,760324	2020-10-13T23:02:48:059
0,299103	-0,691526	9,702895	2020-10-13T23:02:48:078
0,330210	-0,748954	9,738789	2020-10-13T23:02:48:101
0,287139	-0,741775	9,724431	2020-10-13T23:02:48:117
0,241675	-0,784846	9,748360	2020-10-13T23:02:48:140
0,270389	-0,741775	9,755538	2020-10-13T23:02:48:157
0,284746	-0,696311	9,712467	2020-10-13T23:02:48:180
0,282353	-0,729811	9,786645	2020-10-13T23:02:48:197
0,270389	-0,732204	9,748360	2020-10-13T23:02:48:222
0,263210	-0,815953	9,738789	2020-10-13T23:02:48:238
0,236889	-0,691526	9,772287	2020-10-13T23:02:48:260
0,256032	-0,739382	9,738789	2020-10-13T23:02:48:278
0,248854	-0,760918	9,664611	2020-10-13T23:02:48:301
0,248854	-0,777667	9,724431	2020-10-13T23:02:48:317
0,315853	-0,813560	9,702895	2020-10-13T23:02:48:340
0,265603	-0,780060	9,738789	2020-10-13T23:02:48:357
0,282353	-0,782453	9,707682	2020-10-13T23:02:48:381
0,287139	-0,725025	9,693325	2020-10-13T23:02:48:398
0,263210	-0,725025	9,755538	2020-10-13T23:02:48:420
0,246461	-0,763310	9,736395	2020-10-13T23:02:48:438
0,279960	-0,760918	9,678967	2020-10-13T23:02:48:463
0,181855	-0,770489	9,760324	2020-10-13T23:02:48:478
0,244068	-0,693919	9,772287	2020-10-13T23:02:48:500
0,296710	-0,741775	9,738789	2020-10-13T23:02:48:518
0,246461	-0,739382	9,741181	2020-10-13T23:02:48:541
0,344566	-0,722632	9,722038	2020-10-13T23:02:48:558
0,217747	-0,729811	9,801002	2020-10-13T23:02:48:580
0,291924	-0,803988	9,690931	2020-10-13T23:02:48:598
0,256032	-0,751346	9,765109	2020-10-13T23:02:48:621
0,337388	-0,662812	9,714860	2020-10-13T23:02:48:638
0,260818	-0,784846	9,774680	2020-10-13T23:02:48:660
0,323031	-0,760918	9,726824	2020-10-13T23:02:48:679
0,334995	-0,715454	9,688539	2020-10-13T23:02:48:704
0,358923	-0,725025	9,729217	2020-10-13T23:02:48:718
0,234497	-0,739382	9,669396	2020-10-13T23:02:48:740
0,248854	-0,713061	9,748360	2020-10-13T23:02:48:758
0,253639	-0,727418	9,724431	2020-10-13T23:02:48:781
0,320638	-0,674776	9,812965	2020-10-13T23:02:48:798
0,294317	-0,765703	9,734003	2020-10-13T23:02:48:820
0,320638	-0,662812	9,714860	2020-10-13T23:02:48:839
0,270389	-0,665205	9,726824	2020-10-13T23:02:48:861
0,311067	-0,772882	9,753145	2020-10-13T23:02:48:878
0,313460	-0,729811	9,717253	2020-10-13T23:02:48:901
0,318245	-0,734596	9,769895	2020-10-13T23:02:48:918
0,296710	-0,705883	9,724431	2020-10-13T23:02:48:943
0,263210	-0,681954	9,748360	2020-10-13T23:02:48:958
0,296710	-0,720240	9,774680	2020-10-13T23:02:48:981
0,339781	-0,760918	9,695717	2020-10-13T23:02:48:999
0,186640	-0,736989	9,755538	2020-10-13T23:02:49:021
0,275175	-0,717847	9,726824	2020-10-13T23:02:49:038
0,212961	-0,765703	9,748360	2020-10-13T23:02:49:061
0,287139	-0,626920	9,722038	2020-10-13T23:02:49:078
0,270389	-0,701097	9,741181	2020-10-13T23:02:49:101
0,358923	-0,708275	9,722038	2020-10-13T23:02:49:118
0,277567	-0,672383	9,762716	2020-10-13T23:02:49:141
0,320638	-0,698704	9,745967	2020-10-13T23:02:49:159
0,227318	-0,717847	9,729217	2020-10-13T23:02:49:182
0,296710	-0,760918	9,757930	2020-10-13T23:02:49:199
0,301496	-0,684347	9,736395	2020-10-13T23:02:49:220
0,277567	-0,763310	9,738789	2020-10-13T23:02:49:239
0,277567	-0,650848	9,707682	2020-10-13T23:02:49:261
0,234497	-0,725025	9,755538	2020-10-13T23:02:49:279
0,291924	-0,736989	9,796216	2020-10-13T23:02:49:301
0,275175	-0,658026	9,745967	2020-10-13T23:02:49:318
0,277567	-0,727418	9,772287	2020-10-13T23:02:49:342
0,291924	-0,703490	9,724431	2020-10-13T23:02:49:360
0,308674	-0,713061	9,748360	2020-10-13T23:02:49:381
0,296710	-0,701097	9,748360	2020-10-13T23:02:49:399
0,306281	-0,693919	9,714860	2020-10-13T23:02:49:423
0,270389	-0,708275	9,765109	2020-10-13T23:02:49:439
0,248854	-0,660419	9,748360	2020-10-13T23:02:49:461
0,311067	-0,634098	9,657433	2020-10-13T23:02:49:479
0,289532	-0,660419	9,748360	2020-10-13T23:02:49:501
0,270389	-0,732204	9,710074	2020-10-13T23:02:49:518
0,263210	-0,691526	9,769895	2020-10-13T23:02:49:541
0,320638	-0,679562	9,755538	2020-10-13T23:02:49:559
0,222532	-0,679562	9,736395	2020-10-13T23:02:49:582
0,282353	-0,715454	9,714860	2020-10-13T23:02:49:599
0,301496	-0,669990	9,767502	2020-10-13T23:02:49:621
0,303888	-0,698704	9,702895	2020-10-13T23:02:49:639
0,256032	-0,686740	9,736395	2020-10-13T23:02:49:663
0,351745	-0,672383	9,724431	2020-10-13T23:02:49:679
0,260818	-0,643669	9,784252	2020-10-13T23:02:49:701
0,222532	-0,631705	9,757930	2020-10-13T23:02:49:719
0,277567	-0,753739	9,724431	2020-10-13T23:02:49:742
0,296710	-0,801596	9,702895	2020-10-13T23:02:49:759
0,299103	-0,732204	9,698111	2020-10-13T23:02:49:781
0,318245	-0,736989	9,717253	2020-10-13T23:02:49:799
0,267996	-0,705883	9,705289	2020-10-13T23:02:49:822
0,279960	-0,667598	9,786645	2020-10-13T23:02:49:840
0,277567	-0,729811	9,765109	2020-10-13T23:02:49:861
0,315853	-0,770489	9,722038	2020-10-13T23:02:49:879
0,311067	-0,717847	9,724431	2020-10-13T23:02:49:903
0,263210	-0,672383	9,753145	2020-10-13T23:02:49:919
0,334995	-0,629312	9,765109	2020-10-13T23:02:49:941
0,244068	-0,638884	9,789038	2020-10-13T23:02:49:959
0,351745	-0,686740	9,729217	2020-10-13T23:02:49:982
0,308674	-0,760918	9,755538	2020-10-13T23:02:49:999
0,318245	-0,727418	9,745967	2020-10-13T23:02:50:021
0,234497	-0,705883	9,779467	2020-10-13T23:02:50:040
0,308674	-0,736989	9,736395	2020-10-13T23:02:50:062
0,267996	-0,698704	9,741181	2020-10-13T23:02:50:079
0,244068	-0,734596	9,719646	2020-10-13T23:02:50:102
0,258425	-0,732204	9,774680	2020-10-13T23:02:50:118
0,301496	-0,660419	9,736395	2020-10-13T23:02:50:145
0,296710	-0,689133	9,695717	2020-10-13T23:02:50:161
0,313460	-0,624527	9,760324	2020-10-13T23:02:50:182
0,344566	-0,725025	9,710074	2020-10-13T23:02:50:200
0,251246	-0,725025	9,745967	2020-10-13T23:02:50:222
0,263210	-0,684347	9,724431	2020-10-13T23:02:50:240
0,303888	-0,686740	9,705289	2020-10-13T23:02:50:261
0,232104	-0,727418	9,714860	2020-10-13T23:02:50:280
0,289532	-0,672383	9,743573	2020-10-13T23:02:50:302
0,244068	-0,693919	9,755538	2020-10-13T23:02:50:320
0,251246	-0,725025	9,693325	2020-10-13T23:02:50:343
0,303888	-0,636491	9,748360	2020-10-13T23:02:50:360
0,239282	-0,782453	9,714860	2020-10-13T23:02:50:385
0,318245	-0,691526	9,750752	2020-10-13T23:02:50:399
0,267996	-0,710668	9,734003	2020-10-13T23:02:50:421
0,272782	-0,758525	9,748360	2020-10-13T23:02:50:441
0,306281	-0,669990	9,698111	2020-10-13T23:02:50:463
0,284746	-0,748954	9,722038	2020-10-13T23:02:50:480
0,279960	-0,717847	9,736395	2020-10-13T23:02:50:502
0,239282	-0,660419	9,745967	2020-10-13T23:02:50:520
0,284746	-0,693919	9,748360	2020-10-13T23:02:50:543
0,279960	-0,725025	9,698111	2020-10-13T23:02:50:560
0,279960	-0,727418	9,777073	2020-10-13T23:02:50:582
0,253639	-0,760918	9,724431	2020-10-13T23:02:50:599
0,196211	-0,748954	9,729217	2020-10-13T23:02:50:624
0,294317	-0,705883	9,753145	2020-10-13T23:02:50:641
0,332602	-0,746561	9,736395	2020-10-13T23:02:50:662
0,306281	-0,689133	9,736395	2020-10-13T23:02:50:681
0,275175	-0,756132	9,719646	2020-10-13T23:02:50:703
0,251246	-0,746561	9,664611	2020-10-13T23:02:50:720
0,272782	-0,729811	9,755538	2020-10-13T23:02:50:742
0,270389	-0,832702	9,729217	2020-10-13T23:02:50:761
0,320638	-0,748954	9,834501	2020-10-13T23:02:50:783
0,260818	-0,815953	9,700503	2020-10-13T23:02:50:800
0,294317	-0,739382	9,743573	2020-10-13T23:02:50:823
0,267996	-0,768096	9,801002	2020-10-13T23:02:50:841
0,282353	-0,727418	9,717253	2020-10-13T23:02:50:866
0,275175	-0,818345	9,714860	2020-10-13T23:02:50:881
0,241675	-0,758525	9,659825	2020-10-13T23:02:50:902
0,265603	-0,796810	9,714860	2020-10-13T23:02:50:920
0,296710	-0,729811	9,705289	2020-10-13T23:02:50:943
0,325424	-0,796810	9,702895	2020-10-13T23:02:50:960
0,275175	-0,744168	9,726824	2020-10-13T23:02:50:982
0,229711	-0,739382	9,714860	2020-10-13T23:02:51:000
0,253639	-0,732204	9,750752	2020-10-13T23:02:51:023
0,263210	-0,732204	9,738789	2020-10-13T23:02:51:041
0,248854	-0,803988	9,755538	2020-10-13T23:02:51:062
0,287139	-0,729811	9,755538	2020-10-13T23:02:51:080
0,275175	-0,768096	9,762716	2020-10-13T23:02:51:105
0,303888	-0,854238	9,683753	2020-10-13T23:02:51:120
0,236889	-0,815953	9,722038	2020-10-13T23:02:51:143
0,239282	-0,760918	9,705289	2020-10-13T23:02:51:161
0,315853	-0,744168	9,714860	2020-10-13T23:02:51:183
0,212961	-0,811167	9,688539	2020-10-13T23:02:51:200
0,306281	-0,818345	9,734003	2020-10-13T23:02:51:223
0,303888	-0,775275	9,719646	2020-10-13T23:02:51:241
0,253639	-0,830309	9,765109	2020-10-13T23:02:51:263
0,311067	-0,777667	9,702895	2020-10-13T23:02:51:281
0,311067	-0,739382	9,717253	2020-10-13T23:02:51:302
0,277567	-0,784846	9,743573	2020-10-13T23:02:51:320
0,294317	-0,780060	9,767502	2020-10-13T23:02:51:346
0,220140	-0,753739	9,734003	2020-10-13T23:02:51:361
0,236889	-0,756132	9,712467	2020-10-13T23:02:51:383
0,256032	-0,799203	9,774680	2020-10-13T23:02:51:401
0,251246	-0,835095	9,722038	2020-10-13T23:02:51:423
0,212961	-0,856631	9,762716	2020-10-13T23:02:51:441
0,251246	-0,815953	9,700503	2020-10-13T23:02:51:463
0,270389	-0,665205	9,683753	2020-10-13T23:02:51:481
0,289532	-0,638884	9,748360	2020-10-13T23:02:51:503
0,282353	-0,813560	9,705289	2020-10-13T23:02:51:521
0,267996	-0,758525	9,700503	2020-10-13T23:02:51:543
0,212961	-0,827917	9,743573	2020-10-13T23:02:51:561
0,239282	-0,768096	9,705289	2020-10-13T23:02:51:585
0,303888	-0,717847	9,748360	2020-10-13T23:02:51:602
0,246461	-0,775275	9,726824	2020-10-13T23:02:51:623
0,256032	-0,725025	9,736395	2020-10-13T23:02:51:641
0,325424	-0,760918	9,769895	2020-10-13T23:02:51:664
0,311067	-0,727418	9,717253	2020-10-13T23:02:51:681
0,253639	-0,701097	9,745967	2020-10-13T23:02:51:703
0,258425	-0,832702	9,734003	2020-10-13T23:02:51:721
0,241675	-0,756132	9,748360	2020-10-13T23:02:51:744
0,306281	-0,811167	9,745967	2020-10-13T23:02:51:761
0,301496	-0,732204	9,755538	2020-10-13T23:02:51:783
0,224925	-0,725025	9,731609	2020-10-13T23:02:51:801
0,344566	-0,741775	9,719646	2020-10-13T23:02:51:827
0,306281	-0,725025	9,736395	2020-10-13T23:02:51:841
0,272782	-0,770489	9,748360	2020-10-13T23:02:51:863
0,258425	-0,708275	9,769895	2020-10-13T23:02:51:882
0,351745	-0,787239	9,784252	2020-10-13T23:02:51:904
0,275175	-0,784846	9,722038	2020-10-13T23:02:51:922
0,265603	-0,796810	9,722038	2020-10-13T23:02:51:944
0,289532	-0,808774	9,772287	2020-10-13T23:02:51:962
0,277567	-0,818345	9,722038	2020-10-13T23:02:51:984
0,267996	-0,729811	9,698111	2020-10-13T23:02:52:001
0,251246	-0,715454	9,738789	2020-10-13T23:02:52:023
0,267996	-0,768096	9,705289	2020-10-13T23:02:52:041
0,301496	-0,763310	9,707682	2020-10-13T23:02:52:065
0,291924	-0,813560	9,760324	2020-10-13T23:02:52:082
0,308674	-0,789631	9,757930	2020-10-13T23:02:52:105
0,330210	-0,727418	9,693325	2020-10-13T23:02:52:124
0,270389	-0,691526	9,693325	2020-10-13T23:02:52:148
0,320638	-0,744168	9,707682	2020-10-13T23:02:52:167
0,315853	-0,799203	9,779467	2020-10-13T23:02:52:185
0,224925	-0,720240	9,736395	2020-10-13T23:02:52:201
0,272782	-0,803988	9,719646	2020-10-13T23:02:52:224
0,351745	-0,782453	9,810574	2020-10-13T23:02:52:242
0,239282	-0,844666	9,702895	2020-10-13T23:02:52:264
0,256032	-0,775275	9,731609	2020-10-13T23:02:52:281
0,279960	-0,823131	9,657433	2020-10-13T23:02:52:306
0,313460	-0,839881	9,676575	2020-10-13T23:02:52:322
0,224925	-0,794417	9,786645	2020-10-13T23:02:52:344
0,311067	-0,806381	9,690931	2020-10-13T23:02:52:362
0,236889	-0,727418	9,729217	2020-10-13T23:02:52:385
0,267996	-0,863809	9,726824	2020-10-13T23:02:52:401
0,279960	-0,808774	9,681360	2020-10-13T23:02:52:424
0,253639	-0,892523	9,748360	2020-10-13T23:02:52:442
0,272782	-0,780060	9,717253	2020-10-13T23:02:52:464
0,323031	-0,741775	9,717253	2020-10-13T23:02:52:482
0,334995	-0,696311	9,719646	2020-10-13T23:02:52:504
0,272782	-0,686740	9,695717	2020-10-13T23:02:52:521
0,279960	-0,851845	9,714860	2020-10-13T23:02:52:546
0,342174	-0,770489	9,745967	2020-10-13T23:02:52:561
0,277567	-0,825524	9,767502	2020-10-13T23:02:52:584
0,334995	-0,732204	9,762716	2020-10-13T23:02:52:603
0,200997	-0,880559	9,743573	2020-10-13T23:02:52:625
0,318245	-0,741775	9,700503	2020-10-13T23:02:52:642
0,318245	-0,815953	9,681360	2020-10-13T23:02:52:664
0,275175	-0,780060	9,690931	2020-10-13T23:02:52:683
0,306281	-0,815953	9,695717	2020-10-13T23:02:52:704
0,287139	-0,758525	9,734003	2020-10-13T23:02:52:722
0,267996	-0,753739	9,748360	2020-10-13T23:02:52:744
0,272782	-0,758525	9,712467	2020-10-13T23:02:52:761
0,284746	-0,835095	9,748360	2020-10-13T23:02:52:786
0,234497	-0,799203	9,760324	2020-10-13T23:02:52:802
0,236889	-0,815953	9,719646	2020-10-13T23:02:52:824
0,265603	-0,825524	9,734003	2020-10-13T23:02:52:842
0,308674	-0,792024	9,748360	2020-10-13T23:02:52:865
0,277567	-0,818345	9,710074	2020-10-13T23:02:52:882
0,289532	-0,782453	9,731609	2020-10-13T23:02:52:904
0,296710	-0,701097	9,729217	2020-10-13T23:02:52:922
0,313460	-0,751346	9,748360	2020-10-13T23:02:52:945
0,272782	-0,772882	9,765109	2020-10-13T23:02:52:962
0,289532	-0,782453	9,712467	2020-10-13T23:02:52:984
0,311067	-0,799203	9,745967	2020-10-13T23:02:53:002
0,339781	-0,789631	9,736395	2020-10-13T23:02:53:027
0,200997	-0,792024	9,731609	2020-10-13T23:02:53:042
0,306281	-0,787239	9,686146	2020-10-13T23:02:53:064
0,291924	-0,765703	9,707682	2020-10-13T23:02:53:083
0,263210	-0,698704	9,683753	2020-10-13T23:02:53:105
0,282353	-0,775275	9,748360	2020-10-13T23:02:53:124
0,351745	-0,794417	9,710074	2020-10-13T23:02:53:145
0,229711	-0,820738	9,726824	2020-10-13T23:02:53:162
0,279960	-0,794417	9,714860	2020-10-13T23:02:53:185
0,277567	-0,739382	9,743573	2020-10-13T23:02:53:202
0,222532	-0,813560	9,729217	2020-10-13T23:02:53:224
0,260818	-0,780060	9,705289	2020-10-13T23:02:53:244
0,246461	-0,782453	9,705289	2020-10-13T23:02:53:268
0,294317	-0,777667	9,688539	2020-10-13T23:02:53:283
0,306281	-0,763310	9,722038	2020-10-13T23:02:53:304
0,311067	-0,739382	9,731609	2020-10-13T23:02:53:322
0,330210	-0,796810	9,777073	2020-10-13T23:02:53:345
0,253639	-0,756132	9,726824	2020-10-13T23:02:53:362
0,265603	-0,772882	9,700503	2020-10-13T23:02:53:385
0,301496	-0,806381	9,719646	2020-10-13T23:02:53:403
0,263210	-0,792024	9,745967	2020-10-13T23:02:53:436
0,303888	-0,760918	9,762716	2020-10-13T23:02:53:443
0,308674	-0,811167	9,729217	2020-10-13T23:02:53:464
0,267996	-0,777667	9,710074	2020-10-13T23:02:53:483
0,279960	-0,784846	9,726824	2020-10-13T23:02:53:508
0,256032	-0,847059	9,765109	2020-10-13T23:02:53:523
0,306281	-0,880559	9,765109	2020-10-13T23:02:53:545
0,267996	-0,748954	9,753145	2020-10-13T23:02:53:563
0,291924	-0,787239	9,707682	2020-10-13T23:02:53:586
0,296710	-0,801596	9,786645	2020-10-13T23:02:53:603
0,267996	-0,789631	9,702895	2020-10-13T23:02:53:626
0,272782	-0,775275	9,707682	2020-10-13T23:02:53:644
0,291924	-0,794417	9,693325	2020-10-13T23:02:53:665
0,279960	-0,753739	9,767502	2020-10-13T23:02:53:684
0,284746	-0,820738	9,748360	2020-10-13T23:02:53:705
0,308674	-0,789631	9,705289	2020-10-13T23:02:53:723
0,265603	-0,748954	9,712467	2020-10-13T23:02:53:748
0,287139	-0,734596	9,722038	2020-10-13T23:02:53:764
0,205783	-0,787239	9,710074	2020-10-13T23:02:53:785
0,303888	-0,811167	9,664611	2020-10-13T23:02:53:803
0,296710	-0,859023	9,726824	2020-10-13T23:02:53:825
0,332602	-0,736989	9,753145	2020-10-13T23:02:53:843
0,358923	-0,789631	9,729217	2020-10-13T23:02:53:866
0,279960	-0,827917	9,736395	2020-10-13T23:02:53:883
0,315853	-0,803988	9,722038	2020-10-13T23:02:53:906
0,282353	-0,784846	9,717253	2020-10-13T23:02:53:924
0,270389	-0,902094	9,688539	2020-10-13T23:02:53:945
0,306281	-0,823131	9,741181	2020-10-13T23:02:53:963
0,265603	-0,859023	9,757930	2020-10-13T23:02:53:987
0,303888	-0,823131	9,722038	2020-10-13T23:02:54:004
0,277567	-0,847059	9,719646	2020-10-13T23:02:54:025
0,222532	-0,823131	9,736395	2020-10-13T23:02:54:044
0,248854	-0,760918	9,710074	2020-10-13T23:02:54:065
0,275175	-0,830309	9,659825	2020-10-13T23:02:54:084
0,325424	-0,854238	9,769895	2020-10-13T23:02:54:105
0,246461	-0,897308	9,710074	2020-10-13T23:02:54:123
0,315853	-0,851845	9,705289	2020-10-13T23:02:54:145
0,325424	-0,803988	9,695717	2020-10-13T23:02:54:163
0,287139	-0,854238	9,736395	2020-10-13T23:02:54:185
0,263210	-0,734596	9,731609	2020-10-13T23:02:54:203
0,220140	-0,815953	9,745967	2020-10-13T23:02:54:226
0,275175	-0,780060	9,748360	2020-10-13T23:02:54:244
0,265603	-0,866202	9,688539	2020-10-13T23:02:54:264
0,284746	-0,801596	9,702895	2020-10-13T23:02:54:284
0,315853	-0,861416	9,726824	2020-10-13T23:02:54:305
0,279960	-0,830309	9,712467	2020-10-13T23:02:54:323
0,246461	-0,854238	9,698111	2020-10-13T23:02:54:345
0,267996	-0,825524	9,767502	2020-10-13T23:02:54:363
0,275175	-0,801596	9,750752	2020-10-13T23:02:54:385
0,263210	-0,787239	9,710074	2020-10-13T23:02:54:404
0,311067	-0,849452	9,705289	2020-10-13T23:02:54:425
0,267996	-0,825524	9,714860	2020-10-13T23:02:54:444
0,217747	-0,882952	9,695717	2020-10-13T23:02:54:466
0,246461	-0,825524	9,741181	2020-10-13T23:02:54:485
0,260818	-0,842274	9,729217	2020-10-13T23:02:54:504
0,301496	-0,803988	9,722038	2020-10-13T23:02:54:524
0,282353	-0,820738	9,750752	2020-10-13T23:02:54:546
0,282353	-0,801596	9,707682	2020-10-13T23:02:54:563
0,284746	-0,780060	9,719646	2020-10-13T23:02:54:586
0,318245	-0,830309	9,726824	2020-10-13T23:02:54:604
0,363709	-0,770489	9,762716	2020-10-13T23:02:54:625
0,368495	-0,729811	9,731609	2020-10-13T23:02:54:644
0,284746	-0,794417	9,719646	2020-10-13T23:02:54:665
0,284746	-0,878166	9,705289	2020-10-13T23:02:54:684
0,303888	-0,868595	9,671788	2020-10-13T23:02:54:708
0,308674	-0,760918	9,690931	2020-10-13T23:02:54:724
0,265603	-0,748954	9,714860	2020-10-13T23:02:54:745
0,229711	-0,679562	9,717253	2020-10-13T23:02:54:764
0,301496	-0,854238	9,738789	2020-10-13T23:02:54:785
0,303888	-0,861416	9,724431	2020-10-13T23:02:54:803
0,313460	-0,897308	9,731609	2020-10-13T23:02:54:825
0,346959	-0,789631	9,741181	2020-10-13T23:02:54:844
0,236889	-0,684347	9,690931	2020-10-13T23:02:54:865
0,229711	-0,748954	9,738789	2020-10-13T23:02:54:884
0,301496	-0,770489	9,698111	2020-10-13T23:02:54:905
0,272782	-0,854238	9,757930	2020-10-13T23:02:54:924
0,220140	-0,813560	9,748360	2020-10-13T23:02:54:947
0,284746	-0,756132	9,729217	2020-10-13T23:02:54:965
0,358923	-0,799203	9,731609	2020-10-13T23:02:54:985
0,342174	-0,763310	9,717253	2020-10-13T23:02:55:004
0,296710	-0,842274	9,738789	2020-10-13T23:02:55:025
0,296710	-0,775275	9,700503	2020-10-13T23:02:55:044
0,220140	-0,739382	9,734003	2020-10-13T23:02:55:066
0,244068	-0,806381	9,736395	2020-10-13T23:02:55:085
0,277567	-0,801596	9,686146	2020-10-13T23:02:55:105
0,291924	-0,772882	9,762716	2020-10-13T23:02:55:124
0,294317	-0,746561	9,731609	2020-10-13T23:02:55:146
0,339781	-0,813560	9,762716	2020-10-13T23:02:55:165
0,241675	-0,760918	9,667004	2020-10-13T23:02:55:189
0,267996	-0,717847	9,748360	2020-10-13T23:02:55:205
0,277567	-0,811167	9,755538	2020-10-13T23:02:55:226
0,239282	-0,720240	9,690931	2020-10-13T23:02:55:245
0,313460	-0,756132	9,750752	2020-10-13T23:02:55:266
0,339781	-0,741775	9,717253	2020-10-13T23:02:55:285
0,306281	-0,827917	9,745967	2020-10-13T23:02:55:306
0,325424	-0,813560	9,731609	2020-10-13T23:02:55:324
0,208176	-0,866202	9,667004	2020-10-13T23:02:55:346
0,279960	-0,835095	9,710074	2020-10-13T23:02:55:365
0,205783	-0,813560	9,729217	2020-10-13T23:02:55:386
0,299103	-0,794417	9,686146	2020-10-13T23:02:55:405
0,311067	-0,782453	9,769895	2020-10-13T23:02:55:428
0,303888	-0,806381	9,741181	2020-10-13T23:02:55:446
0,260818	-0,870987	9,755538	2020-10-13T23:02:55:466
0,299103	-0,792024	9,745967	2020-10-13T23:02:55:486
0,313460	-0,799203	9,707682	2020-10-13T23:02:55:506
0,296710	-0,705883	9,705289	2020-10-13T23:02:55:525
0,303888	-0,722632	9,714860	2020-10-13T23:02:55:547
0,289532	-0,763310	9,729217	2020-10-13T23:02:55:565
0,301496	-0,835095	9,700503	2020-10-13T23:02:55:587
0,251246	-0,892523	9,719646	2020-10-13T23:02:55:605
0,265603	-0,914058	9,738789	2020-10-13T23:02:55:627
0,272782	-0,789631	9,724431	2020-10-13T23:02:55:645
0,289532	-0,803988	9,738789	2020-10-13T23:02:55:667
0,277567	-0,736989	9,690931	2020-10-13T23:02:55:685
0,267996	-0,701097	9,743573	2020-10-13T23:02:55:706
0,265603	-0,806381	9,743573	2020-10-13T23:02:55:725
0,294317	-0,815953	9,731609	2020-10-13T23:02:55:747
0,287139	-0,808774	9,736395	2020-10-13T23:02:55:764
0,227318	-0,830309	9,729217	2020-10-13T23:02:55:787
0,323031	-0,772882	9,702895	2020-10-13T23:02:55:805
0,270389	-0,768096	9,738789	2020-10-13T23:02:55:826
0,241675	-0,705883	9,724431	2020-10-13T23:02:55:845
0,291924	-0,727418	9,710074	2020-10-13T23:02:55:866
0,308674	-0,748954	9,693325	2020-10-13T23:02:55:885
0,258425	-0,875773	9,760324	2020-10-13T23:02:55:910
0,267996	-0,875773	9,757930	2020-10-13T23:02:56:127
0,323031	-0,792024	9,772287	2020-10-13T23:02:56:128
0,287139	-0,799203	9,750752	2020-10-13T23:02:56:129
0,272782	-0,768096	9,719646	2020-10-13T23:02:56:129
0,303888	-0,811167	9,698111	2020-10-13T23:02:56:130
0,311067	-0,976272	9,681360	2020-10-13T23:02:56:131
0,272782	-0,832702	9,767502	2020-10-13T23:02:56:131
0,315853	-0,806381	9,726824	2020-10-13T23:02:56:132
0,279960	-0,763310	9,707682	2020-10-13T23:02:56:132
0,232104	-0,765703	9,695717	2020-10-13T23:02:56:133
0,332602	-0,849452	9,769895	2020-10-13T23:02:56:133
0,260818	-0,780060	9,717253	2020-10-13T23:02:56:149
0,263210	-0,866202	9,741181	2020-10-13T23:02:56:165
0,253639	-0,851845	9,659825	2020-10-13T23:02:56:186
0,275175	-0,861416	9,757930	2020-10-13T23:02:56:207
0,337388	-0,801596	9,683753	2020-10-13T23:02:56:228
0,301496	-0,768096	9,791430	2020-10-13T23:02:56:246
0,220140	-0,775275	9,753145	2020-10-13T23:02:56:272
0,275175	-0,863809	9,745967	2020-10-13T23:02:56:285
0,272782	-0,775275	9,667004	2020-10-13T23:02:56:309
0,308674	-0,803988	9,717253	2020-10-13T23:02:56:327
0,232104	-0,806381	9,714860	2020-10-13T23:02:56:347
0,325424	-0,770489	9,738789	2020-10-13T23:02:56:365
0,277567	-0,827917	9,750752	2020-10-13T23:02:56:394
0,303888	-0,746561	9,702895	2020-10-13T23:02:56:408
0,303888	-0,799203	9,750752	2020-10-13T23:02:56:427
0,279960	-0,748954	9,745967	2020-10-13T23:02:56:447
0,279960	-0,780060	9,681360	2020-10-13T23:02:56:467
0,289532	-0,792024	9,757930	2020-10-13T23:02:56:486
0,287139	-0,832702	9,774680	2020-10-13T23:02:56:507
0,284746	-0,765703	9,745967	2020-10-13T23:02:56:526
0,296710	-0,756132	9,702895	2020-10-13T23:02:56:557
0,222532	-0,892523	9,671788	2020-10-13T23:02:56:582
0,277567	-0,820738	9,745967	2020-10-13T23:02:56:588
0,311067	-0,708275	9,741181	2020-10-13T23:02:56:613
0,334995	-0,756132	9,702895	2020-10-13T23:02:56:632
0,320638	-0,842274	9,745967	2020-10-13T23:02:56:647
0,308674	-0,835095	9,681360	2020-10-13T23:02:56:675
0,337388	-0,777667	9,707682	2020-10-13T23:02:56:685
0,323031	-0,794417	9,769895	2020-10-13T23:02:56:707
0,241675	-0,770489	9,736395	2020-10-13T23:02:56:725
0,256032	-0,717847	9,683753	2020-10-13T23:02:56:748
0,256032	-0,787239	9,729217	2020-10-13T23:02:56:765
0,299103	-0,751346	9,702895	2020-10-13T23:02:56:788
0,287139	-0,882952	9,753145	2020-10-13T23:02:56:807
0,342174	-0,811167	9,714860	2020-10-13T23:02:56:828
0,313460	-0,760918	9,745967	2020-10-13T23:02:56:847
0,251246	-0,760918	9,734003	2020-10-13T23:02:56:869
0,325424	-0,775275	9,722038	2020-10-13T23:02:56:888
0,313460	-0,693919	9,695717	2020-10-13T23:02:56:908
0,325424	-0,756132	9,731609	2020-10-13T23:02:56:926
0,313460	-0,638884	9,693325	2020-10-13T23:02:56:948
0,270389	-0,847059	9,731609	2020-10-13T23:02:56:966
0,258425	-0,736989	9,681360	2020-10-13T23:02:56:988
0,308674	-0,799203	9,734003	2020-10-13T23:02:57:006
0,291924	-0,847059	9,726824	2020-10-13T23:02:57:028
0,284746	-0,803988	9,690931	2020-10-13T23:02:57:046
0,244068	-0,770489	9,698111	2020-10-13T23:02:57:069
0,234497	-0,758525	9,755538	2020-10-13T23:02:57:087
0,284746	-0,746561	9,717253	2020-10-13T23:02:57:110
0,291924	-0,770489	9,719646	2020-10-13T23:02:57:126
0,275175	-0,806381	9,695717	2020-10-13T23:02:57:148
0,337388	-0,885344	9,674182	2020-10-13T23:02:57:167
0,313460	-0,813560	9,724431	2020-10-13T23:02:57:188
0,320638	-0,818345	9,719646	2020-10-13T23:02:57:206
0,289532	-0,748954	9,707682	2020-10-13T23:02:57:228
0,258425	-0,765703	9,678967	2020-10-13T23:02:57:246
0,275175	-0,772882	9,731609	2020-10-13T23:02:57:268
0,315853	-0,729811	9,736395	2020-10-13T23:02:57:287
0,296710	-0,772882	9,719646	2020-10-13T23:02:57:308
0,256032	-0,775275	9,676575	2020-10-13T23:02:57:327
0,308674	-0,892523	9,702895	2020-10-13T23:02:57:352
0,358923	-0,863809	9,707682	2020-10-13T23:02:57:367
0,248854	-0,765703	9,710074	2020-10-13T23:02:57:388
0,236889	-0,780060	9,745967	2020-10-13T23:02:57:407
0,260818	-0,679562	9,693325	2020-10-13T23:02:57:428
0,315853	-0,792024	9,734003	2020-10-13T23:02:57:446
0,265603	-0,787239	9,738789	2020-10-13T23:02:57:468
0,378066	-0,803988	9,714860	2020-10-13T23:02:57:486
0,246461	-0,787239	9,731609	2020-10-13T23:02:57:508
0,299103	-0,701097	9,698111	2020-10-13T23:02:57:527
0,270389	-0,765703	9,741181	2020-10-13T23:02:57:549
0,303888	-0,818345	9,796216	2020-10-13T23:02:57:566
0,351745	-0,770489	9,731609	2020-10-13T23:02:57:590
0,294317	-0,720240	9,767502	2020-10-13T23:02:57:607
0,282353	-0,820738	9,681360	2020-10-13T23:02:57:628
0,244068	-0,768096	9,712467	2020-10-13T23:02:57:648
0,342174	-0,887737	9,757930	2020-10-13T23:02:57:668
0,256032	-0,758525	9,683753	2020-10-13T23:02:57:686
0,284746	-0,713061	9,717253	2020-10-13T23:02:57:709
0,244068	-0,748954	9,717253	2020-10-13T23:02:57:726
0,313460	-0,756132	9,726824	2020-10-13T23:02:57:749
0,296710	-0,789631	9,710074	2020-10-13T23:02:57:767
0,253639	-0,801596	9,753145	2020-10-13T23:02:57:788
0,287139	-0,859023	9,700503	2020-10-13T23:02:57:806
0,318245	-0,760918	9,662218	2020-10-13T23:02:57:832
0,303888	-0,868595	9,693325	2020-10-13T23:02:57:847
0,299103	-0,803988	9,714860	2020-10-13T23:02:57:868
0,270389	-0,787239	9,729217	2020-10-13T23:02:57:887
0,267996	-0,768096	9,714860	2020-10-13T23:02:57:909
0,275175	-0,823131	9,762716	2020-10-13T23:02:57:927
0,287139	-0,777667	9,695717	2020-10-13T23:02:57:949
0,272782	-0,777667	9,698111	2020-10-13T23:02:57:967
0,284746	-0,859023	9,705289	2020-10-13T23:02:57:989
0,267996	-0,839881	9,722038	2020-10-13T23:02:58:008
0,265603	-0,780060	9,714860	2020-10-13T23:02:58:029
0,239282	-0,770489	9,734003	2020-10-13T23:02:58:048
0,244068	-0,763310	9,741181	2020-10-13T23:02:58:073
0,320638	-0,775275	9,755538	2020-10-13T23:02:58:087
0,313460	-0,847059	9,734003	2020-10-13T23:02:58:111
0,299103	-0,837488	9,712467	2020-10-13T23:02:58:127
0,301496	-0,811167	9,748360	2020-10-13T23:02:58:149
0,342174	-0,770489	9,698111	2020-10-13T23:02:58:167
0,272782	-0,703490	9,781858	2020-10-13T23:02:58:189
0,217747	-0,789631	9,762716	2020-10-13T23:02:58:207
0,303888	-0,885344	9,676575	2020-10-13T23:02:58:229
0,296710	-0,897308	9,808180	2020-10-13T23:02:58:248
0,296710	-0,825524	9,700503	2020-10-13T23:02:58:269
0,222532	-0,741775	9,753145	2020-10-13T23:02:58:288
0,275175	-0,777667	9,724431	2020-10-13T23:02:58:312
0,279960	-0,796810	9,705289	2020-10-13T23:02:58:327
0,282353	-0,859023	9,681360	2020-10-13T23:02:58:349
0,313460	-0,835095	9,738789	2020-10-13T23:02:58:368
0,282353	-0,830309	9,664611	2020-10-13T23:02:58:390
0,251246	-0,835095	9,676575	2020-10-13T23:02:58:409
0,208176	-0,897308	9,683753	2020-10-13T23:02:58:429
0,253639	-0,832702	9,700503	2020-10-13T23:02:58:448
0,265603	-0,801596	9,717253	2020-10-13T23:02:58:469
0,232104	-0,744168	9,769895	2020-10-13T23:02:58:487
0,308674	-0,811167	9,705289	2020-10-13T23:02:58:512
0,323031	-0,820738	9,690931	2020-10-13T23:02:58:548
0,303888	-0,787239	9,705289	2020-10-13T23:02:58:553
0,270389	-0,799203	9,688539	2020-10-13T23:02:58:569
0,224925	-0,794417	9,707682	2020-10-13T23:02:58:597
0,327817	-0,792024	9,743573	2020-10-13T23:02:58:608
0,308674	-0,748954	9,700503	2020-10-13T23:02:58:628
0,320638	-0,861416	9,702895	2020-10-13T23:02:58:647
0,244068	-0,873380	9,743573	2020-10-13T23:02:58:669
0,354138	-0,806381	9,686146	2020-10-13T23:02:58:688
0,320638	-0,796810	9,693325	2020-10-13T23:02:58:709
0,248854	-0,796810	9,712467	2020-10-13T23:02:58:728
0,265603	-0,830309	9,726824	2020-10-13T23:02:58:750
0,311067	-0,827917	9,726824	2020-10-13T23:02:58:768
0,299103	-0,818345	9,722038	2020-10-13T23:02:58:791
0,217747	-0,835095	9,724431	2020-10-13T23:02:58:808
0,296710	-0,849452	9,688539	2020-10-13T23:02:58:829
0,277567	-0,787239	9,765109	2020-10-13T23:02:58:848
0,330210	-0,873380	9,750752	2020-10-13T23:02:58:869
0,318245	-0,794417	9,688539	2020-10-13T23:02:58:887
0,320638	-0,796810	9,726824	2020-10-13T23:02:58:909
0,270389	-0,801596	9,686146	2020-10-13T23:02:58:928
0,224925	-0,784846	9,726824	2020-10-13T23:02:58:950
0,284746	-0,780060	9,700503	2020-10-13T23:02:58:969
0,318245	-0,878166	9,719646	2020-10-13T23:02:58:989
0,318245	-0,775275	9,750752	2020-10-13T23:02:59:009
0,339781	-0,741775	9,722038	2020-10-13T23:02:59:032
0,279960	-0,794417	9,734003	2020-10-13T23:02:59:049
0,272782	-0,878166	9,690931	2020-10-13T23:02:59:070
0,272782	-0,758525	9,765109	2020-10-13T23:02:59:088
0,277567	-0,794417	9,702895	2020-10-13T23:02:59:110
0,244068	-0,811167	9,698111	2020-10-13T23:02:59:128
0,308674	-0,796810	9,698111	2020-10-13T23:02:59:150
0,275175	-0,732204	9,678967	2020-10-13T23:02:59:168
0,320638	-0,736989	9,755538	2020-10-13T23:02:59:190
0,263210	-0,760918	9,717253	2020-10-13T23:02:59:208
0,330210	-0,789631	9,719646	2020-10-13T23:02:59:230
0,284746	-0,837488	9,722038	2020-10-13T23:02:59:248
0,265603	-0,763310	9,695717	2020-10-13T23:02:59:271
0,327817	-0,732204	9,712467	2020-10-13T23:02:59:289
0,313460	-0,782453	9,760324	2020-10-13T23:02:59:310
0,263210	-0,765703	9,693325	2020-10-13T23:02:59:328
0,301496	-0,780060	9,722038	2020-10-13T23:02:59:350
0,308674	-0,760918	9,681360	2020-10-13T23:02:59:368
0,306281	-0,727418	9,707682	2020-10-13T23:02:59:390
0,320638	-0,863809	9,750752	2020-10-13T23:02:59:408
0,325424	-0,734596	9,717253	2020-10-13T23:02:59:430
0,296710	-0,832702	9,674182	2020-10-13T23:02:59:449
0,303888	-0,784846	9,734003	2020-10-13T23:02:59:470
0,277567	-0,832702	9,712467	2020-10-13T23:02:59:488
0,306281	-0,736989	9,690931	2020-10-13T23:02:59:512
0,306281	-0,753739	9,741181	2020-10-13T23:02:59:529
0,313460	-0,741775	9,765109	2020-10-13T23:02:59:550
0,303888	-0,863809	9,710074	2020-10-13T23:02:59:569
0,287139	-0,717847	9,750752	2020-10-13T23:02:59:590
0,267996	-0,727418	9,741181	2020-10-13T23:02:59:609
0,325424	-0,713061	9,762716	2020-10-13T23:02:59:630
0,246461	-0,875773	9,736395	2020-10-13T23:02:59:649
0,301496	-0,760918	9,664611	2020-10-13T23:02:59:670
0,291924	-0,720240	9,741181	2020-10-13T23:02:59:689
0,323031	-0,746561	9,734003	2020-10-13T23:02:59:710
0,291924	-0,744168	9,724431	2020-10-13T23:02:59:729
0,275175	-0,739382	9,731609	2020-10-13T23:02:59:754
0,217747	-0,736989	9,779467	2020-10-13T23:02:59:769
0,244068	-0,859023	9,650253	2020-10-13T23:02:59:792
0,291924	-0,825524	9,714860	2020-10-13T23:02:59:809
0,267996	-0,760918	9,762716	2020-10-13T23:02:59:830
0,236889	-0,796810	9,753145	2020-10-13T23:02:59:849
0,287139	-0,780060	9,781858	2020-10-13T23:02:59:870
0,208176	-0,782453	9,726824	2020-10-13T23:02:59:889
0,308674	-0,705883	9,762716	2020-10-13T23:02:59:910
0,244068	-0,741775	9,731609	2020-10-13T23:02:59:929
0,272782	-0,870987	9,662218	2020-10-13T23:02:59:951
0,366102	-0,847059	9,722038	2020-10-13T23:02:59:969
0,346959	-0,811167	9,719646	2020-10-13T23:02:59:994
0,289532	-0,792024	9,707682	2020-10-13T23:03:00:009
0,323031	-0,701097	9,793823	2020-10-13T23:03:00:030
0,313460	-0,717847	9,681360	2020-10-13T23:03:00:050
0,291924	-0,827917	9,702895	2020-10-13T23:03:00:071
0,253639	-0,818345	9,719646	2020-10-13T23:03:00:089
0,291924	-0,691526	9,731609	2020-10-13T23:03:00:111
0,260818	-0,760918	9,734003	2020-10-13T23:03:00:129
0,291924	-0,789631	9,750752	2020-10-13T23:03:00:151
0,311067	-0,734596	9,700503	2020-10-13T23:03:00:169
0,313460	-0,758525	9,688539	2020-10-13T23:03:00:190
0,306281	-0,710668	9,729217	2020-10-13T23:03:00:209
0,334995	-0,748954	9,781858	2020-10-13T23:03:00:234
0,337388	-0,806381	9,743573	2020-10-13T23:03:00:249
0,315853	-0,820738	9,712467	2020-10-13T23:03:00:270
0,323031	-0,866202	9,765109	2020-10-13T23:03:00:289
0,311067	-0,823131	9,729217	2020-10-13T23:03:00:311
0,265603	-0,832702	9,741181	2020-10-13T23:03:00:329
0,306281	-0,760918	9,702895	2020-10-13T23:03:00:351
0,289532	-0,808774	9,734003	2020-10-13T23:03:00:369
0,315853	-0,794417	9,748360	2020-10-13T23:03:00:391
0,263210	-0,741775	9,731609	2020-10-13T23:03:00:410
0,306281	-0,799203	9,755538	2020-10-13T23:03:00:431
0,320638	-0,748954	9,710074	2020-10-13T23:03:00:450
0,323031	-0,801596	9,741181	2020-10-13T23:03:00:473
0,251246	-0,815953	9,714860	2020-10-13T23:03:00:490
0,246461	-0,844666	9,726824	2020-10-13T23:03:00:511
0,294317	-0,677169	9,738789	2020-10-13T23:03:00:530
0,337388	-0,693919	9,702895	2020-10-13T23:03:00:551
0,306281	-0,715454	9,722038	2020-10-13T23:03:00:569
0,327817	-0,849452	9,798609	2020-10-13T23:03:00:592
0,253639	-0,758525	9,734003	2020-10-13T23:03:00:609
0,318245	-0,741775	9,729217	2020-10-13T23:03:00:631
0,265603	-0,765703	9,767502	2020-10-13T23:03:00:650
0,277567	-0,780060	9,712467	2020-10-13T23:03:00:671
0,315853	-0,756132	9,717253	2020-10-13T23:03:00:689
0,303888	-0,780060	9,722038	2020-10-13T23:03:00:713
0,272782	-0,732204	9,729217	2020-10-13T23:03:00:729
0,370888	-0,732204	9,719646	2020-10-13T23:03:00:751
0,301496	-0,787239	9,741181	2020-10-13T23:03:00:770
0,244068	-0,765703	9,705289	2020-10-13T23:03:00:791
0,311067	-0,751346	9,700503	2020-10-13T23:03:00:809
0,284746	-0,813560	9,738789	2020-10-13T23:03:00:831
0,330210	-0,780060	9,743573	2020-10-13T23:03:00:850
0,263210	-0,703490	9,700503	2020-10-13T23:03:00:871
0,267996	-0,727418	9,705289	2020-10-13T23:03:00:890
0,337388	-0,820738	9,695717	2020-10-13T23:03:00:912
0,306281	-0,811167	9,683753	2020-10-13T23:03:00:930
0,332602	-0,732204	9,750752	2020-10-13T23:03:00:955
0,277567	-0,756132	9,769895	2020-10-13T23:03:00:970
0,270389	-0,736989	9,717253	2020-10-13T23:03:00:991
0,229711	-0,705883	9,748360	2020-10-13T23:03:01:010
0,289532	-0,794417	9,690931	2020-10-13T23:03:01:032
0,330210	-0,780060	9,712467	2020-10-13T23:03:01:050
0,296710	-0,751346	9,698111	2020-10-13T23:03:01:072
0,332602	-0,787239	9,741181	2020-10-13T23:03:01:089
0,263210	-0,725025	9,695717	2020-10-13T23:03:01:112
0,265603	-0,729811	9,757930	2020-10-13T23:03:01:130
0,334995	-0,763310	9,726824	2020-10-13T23:03:01:152
0,253639	-0,748954	9,722038	2020-10-13T23:03:01:170
0,210568	-0,734596	9,762716	2020-10-13T23:03:01:195
0,212961	-0,748954	9,719646	2020-10-13T23:03:01:210
0,308674	-0,753739	9,729217	2020-10-13T23:03:01:232
0,318245	-0,720240	9,745967	2020-10-13T23:03:01:251
0,299103	-0,674776	9,724431	2020-10-13T23:03:01:272
0,229711	-0,693919	9,765109	2020-10-13T23:03:01:291
0,272782	-0,801596	9,738789	2020-10-13T23:03:01:312
0,308674	-0,744168	9,738789	2020-10-13T23:03:01:330
0,332602	-0,729811	9,722038	2020-10-13T23:03:01:352
0,339781	-0,739382	9,712467	2020-10-13T23:03:01:371
0,332602	-0,775275	9,734003	2020-10-13T23:03:01:392
0,299103	-0,748954	9,719646	2020-10-13T23:03:01:411
0,306281	-0,751346	9,686146	2020-10-13T23:03:01:433
0,277567	-0,763310	9,726824	2020-10-13T23:03:01:451
0,313460	-0,725025	9,726824	2020-10-13T23:03:01:472
0,306281	-0,768096	9,702895	2020-10-13T23:03:01:491
0,303888	-0,729811	9,753145	2020-10-13T23:03:01:512
0,296710	-0,765703	9,753145	2020-10-13T23:03:01:530
0,267996	-0,751346	9,757930	2020-10-13T23:03:01:552
0,294317	-0,808774	9,724431	2020-10-13T23:03:01:570
0,212961	-0,725025	9,729217	2020-10-13T23:03:01:592
0,272782	-0,744168	9,686146	2020-10-13T23:03:01:611
0,303888	-0,768096	9,726824	2020-10-13T23:03:01:632
0,272782	-0,796810	9,748360	2020-10-13T23:03:01:650
0,299103	-0,808774	9,748360	2020-10-13T23:03:01:674
0,306281	-0,835095	9,707682	2020-10-13T23:03:01:690
0,299103	-0,765703	9,722038	2020-10-13T23:03:01:712
0,270389	-0,727418	9,719646	2020-10-13T23:03:01:731
0,356531	-0,693919	9,762716	2020-10-13T23:03:01:753
0,267996	-0,792024	9,717253	2020-10-13T23:03:01:771
0,344566	-0,815953	9,779467	2020-10-13T23:03:01:793
0,332602	-0,866202	9,729217	2020-10-13T23:03:01:811
0,342174	-0,780060	9,702895	2020-10-13T23:03:01:832
0,282353	-0,803988	9,714860	2020-10-13T23:03:01:851
0,291924	-0,744168	9,743573	2020-10-13T23:03:01:872
0,287139	-0,782453	9,731609	2020-10-13T23:03:01:891
0,303888	-0,835095	9,738789	2020-10-13T23:03:01:916
0,299103	-0,705883	9,710074	2020-10-13T23:03:01:931
0,330210	-0,734596	9,741181	2020-10-13T23:03:01:952
0,272782	-0,866202	9,755538	2020-10-13T23:03:01:971
0,227318	-0,780060	9,731609	2020-10-13T23:03:01:993
0,277567	-0,844666	9,738789	2020-10-13T23:03:02:012
0,272782	-0,782453	9,743573	2020-10-13T23:03:02:033
0,301496	-0,799203	9,755538	2020-10-13T23:03:02:052
0,313460	-0,794417	9,748360	2020-10-13T23:03:02:075
0,277567	-0,825524	9,743573	2020-10-13T23:03:02:092
0,342174	-0,801596	9,741181	2020-10-13T23:03:02:113
0,299103	-0,827917	9,726824	2020-10-13T23:03:02:131
0,258425	-0,772882	9,726824	2020-10-13T23:03:02:155
0,239282	-0,768096	9,726824	2020-10-13T23:03:02:171
0,282353	-0,811167	9,698111	2020-10-13T23:03:02:192
0,303888	-0,758525	9,741181	2020-10-13T23:03:02:212
0,275175	-0,753739	9,750752	2020-10-13T23:03:02:233
0,337388	-0,796810	9,710074	2020-10-13T23:03:02:251
0,272782	-0,839881	9,769895	2020-10-13T23:03:02:273
0,323031	-0,892523	9,738789	2020-10-13T23:03:02:291
0,277567	-0,847059	9,688539	2020-10-13T23:03:02:313
0,270389	-0,830309	9,741181	2020-10-13T23:03:02:332
0,279960	-0,775275	9,702895	2020-10-13T23:03:02:353
0,301496	-0,808774	9,695717	2020-10-13T23:03:02:371
0,325424	-0,803988	9,671788	2020-10-13T23:03:02:397
0,263210	-0,820738	9,724431	2020-10-13T23:03:02:412
0,284746	-0,878166	9,705289	2020-10-13T23:03:02:433
0,256032	-0,792024	9,731609	2020-10-13T23:03:02:452
0,267996	-0,777667	9,760324	2020-10-13T23:03:02:473
0,301496	-0,859023	9,734003	2020-10-13T23:03:02:491
0,277567	-0,878166	9,707682	2020-10-13T23:03:02:513
0,246461	-0,823131	9,738789	2020-10-13T23:03:02:531
0,323031	-0,725025	9,702895	2020-10-13T23:03:02:553
0,263210	-0,784846	9,700503	2020-10-13T23:03:02:572
0,308674	-0,717847	9,748360	2020-10-13T23:03:02:593
0,363709	-0,863809	9,705289	2020-10-13T23:03:02:611
0,356531	-0,803988	9,748360	2020-10-13T23:03:02:634
0,296710	-0,859023	9,676575	2020-10-13T23:03:02:652
0,301496	-0,820738	9,724431	2020-10-13T23:03:02:673
0,296710	-0,801596	9,700503	2020-10-13T23:03:02:692
0,239282	-0,782453	9,686146	2020-10-13T23:03:02:713
0,220140	-0,708275	9,712467	2020-10-13T23:03:02:731
0,244068	-0,751346	9,726824	2020-10-13T23:03:02:754
0,306281	-0,792024	9,736395	2020-10-13T23:03:02:772
0,284746	-0,835095	9,726824	2020-10-13T23:03:02:793
0,308674	-0,849452	9,789038	2020-10-13T23:03:02:812
0,315853	-0,849452	9,748360	2020-10-13T23:03:02:833
0,311067	-0,811167	9,729217	2020-10-13T23:03:02:852
0,301496	-0,873380	9,652647	2020-10-13T23:03:02:875
0,275175	-0,839881	9,719646	2020-10-13T23:03:02:892
0,291924	-0,847059	9,779467	2020-10-13T23:03:02:913
0,246461	-0,806381	9,736395	2020-10-13T23:03:02:932
0,387637	-0,897308	9,738789	2020-10-13T23:03:02:954
0,291924	-0,818345	9,724431	2020-10-13T23:03:02:972
0,294317	-0,813560	9,741181	2020-10-13T23:03:02:993
0,356531	-0,813560	9,734003	2020-10-13T23:03:03:012
0,258425	-0,803988	9,681360	2020-10-13T23:03:03:033
0,327817	-0,844666	9,700503	2020-10-13T23:03:03:052
0,306281	-0,911665	9,791430	2020-10-13T23:03:03:074
0,306281	-0,827917	9,710074	2020-10-13T23:03:03:093
0,229711	-0,892523	9,722038	2020-10-13T23:03:03:115
0,294317	-0,882952	9,769895	2020-10-13T23:03:03:133
0,301496	-0,803988	9,698111	2020-10-13T23:03:03:154
0,299103	-0,813560	9,702895	2020-10-13T23:03:03:172
0,344566	-0,875773	9,702895	2020-10-13T23:03:03:193
0,275175	-0,918844	9,719646	2020-10-13T23:03:03:213
0,267996	-0,806381	9,690931	2020-10-13T23:03:03:235
0,344566	-0,784846	9,705289	2020-10-13T23:03:03:253
0,277567	-0,787239	9,743573	2020-10-13T23:03:03:277
0,334995	-0,897308	9,719646	2020-10-13T23:03:03:292
0,315853	-0,813560	9,760324	2020-10-13T23:03:03:313
0,260818	-0,844666	9,714860	2020-10-13T23:03:03:332
0,296710	-0,746561	9,748360	2020-10-13T23:03:03:356
0,315853	-0,861416	9,743573	2020-10-13T23:03:03:373
0,258425	-0,885344	9,695717	2020-10-13T23:03:03:394
0,260818	-0,887737	9,724431	2020-10-13T23:03:03:413
0,279960	-0,909273	9,745967	2020-10-13T23:03:03:434
0,275175	-0,808774	9,667004	2020-10-13T23:03:03:452
0,318245	-0,851845	9,734003	2020-10-13T23:03:03:474
0,334995	-0,784846	9,712467	2020-10-13T23:03:03:493
0,397209	-0,818345	9,712467	2020-10-13T23:03:03:515
0,323031	-0,885344	9,705289	2020-10-13T23:03:03:533
0,289532	-0,818345	9,741181	2020-10-13T23:03:03:554
0,320638	-0,870987	9,705289	2020-10-13T23:03:03:572
0,287139	-0,894916	9,719646	2020-10-13T23:03:03:595
0,315853	-0,808774	9,734003	2020-10-13T23:03:03:612
0,303888	-0,856631	9,719646	2020-10-13T23:03:03:633
0,301496	-0,892523	9,748360	2020-10-13T23:03:03:654
0,323031	-0,911665	9,734003	2020-10-13T23:03:03:674
0,318245	-0,868595	9,755538	2020-10-13T23:03:03:692
0,325424	-0,835095	9,714860	2020-10-13T23:03:03:714
0,282353	-0,926022	9,686146	2020-10-13T23:03:03:733
0,330210	-0,899701	9,722038	2020-10-13T23:03:03:755
0,279960	-0,856631	9,736395	2020-10-13T23:03:03:773
0,239282	-0,890130	9,745967	2020-10-13T23:03:03:794
0,267996	-0,806381	9,695717	2020-10-13T23:03:03:812
0,311067	-0,835095	9,765109	2020-10-13T23:03:03:837
0,284746	-0,856631	9,710074	2020-10-13T23:03:03:853
0,313460	-0,832702	9,719646	2020-10-13T23:03:03:873
0,318245	-0,808774	9,789038	2020-10-13T23:03:03:894
0,318245	-0,832702	9,774680	2020-10-13T23:03:03:914
0,265603	-0,916451	9,695717	2020-10-13T23:03:03:932
0,294317	-0,868595	9,712467	2020-10-13T23:03:03:955
0,320638	-0,839881	9,734003	2020-10-13T23:03:03:973
0,349352	-0,906880	9,743573	2020-10-13T23:03:03:994
0,277567	-0,789631	9,686146	2020-10-13T23:03:04:013
0,287139	-0,832702	9,719646	2020-10-13T23:03:04:034
0,260818	-0,887737	9,667004	2020-10-13T23:03:04:053
0,342174	-0,882952	9,690931	2020-10-13T23:03:04:088
0,308674	-0,892523	9,762716	2020-10-13T23:03:04:097
0,332602	-0,897308	9,745967	2020-10-13T23:03:04:114
0,342174	-0,923629	9,765109	2020-10-13T23:03:04:133
0,334995	-0,808774	9,777073	2020-10-13T23:03:04:155
0,246461	-0,780060	9,760324	2020-10-13T23:03:04:173
0,279960	-0,890130	9,731609	2020-10-13T23:03:04:194
0,256032	-0,875773	9,726824	2020-10-13T23:03:04:213
0,284746	-0,916451	9,748360	2020-10-13T23:03:04:235
0,282353	-0,911665	9,678967	2020-10-13T23:03:04:254
0,346959	-0,890130	9,702895	2020-10-13T23:03:04:275
0,222532	-0,859023	9,647861	2020-10-13T23:03:04:293
0,260818	-0,894916	9,734003	2020-10-13T23:03:04:316
0,311067	-0,830309	9,657433	2020-10-13T23:03:04:334
0,332602	-0,863809	9,745967	2020-10-13T23:03:04:355
0,284746	-0,885344	9,705289	2020-10-13T23:03:04:373
0,299103	-0,899701	9,726824	2020-10-13T23:03:04:395
0,330210	-0,837488	9,681360	2020-10-13T23:03:04:413
0,277567	-0,933201	9,722038	2020-10-13T23:03:04:435
0,334995	-0,844666	9,686146	2020-10-13T23:03:04:454
0,284746	-0,768096	9,710074	2020-10-13T23:03:04:476
0,296710	-0,890130	9,724431	2020-10-13T23:03:04:494
0,306281	-0,823131	9,705289	2020-10-13T23:03:04:515
0,368495	-0,892523	9,753145	2020-10-13T23:03:04:540
0,337388	-0,878166	9,669396	2020-10-13T23:03:04:558
0,291924	-0,863809	9,690931	2020-10-13T23:03:04:573
0,349352	-0,820738	9,755538	2020-10-13T23:03:04:595
0,277567	-0,830309	9,748360	2020-10-13T23:03:04:614
0,296710	-0,890130	9,760324	2020-10-13T23:03:04:635
0,234497	-0,813560	9,693325	2020-10-13T23:03:04:654
0,265603	-0,842274	9,729217	2020-10-13T23:03:04:676
0,239282	-0,823131	9,717253	2020-10-13T23:03:04:693
0,279960	-0,887737	9,717253	2020-10-13T23:03:04:715
0,279960	-0,916451	9,669396	2020-10-13T23:03:04:734
0,279960	-0,882952	9,690931	2020-10-13T23:03:04:756
0,325424	-0,897308	9,726824	2020-10-13T23:03:04:773
0,287139	-0,873380	9,693325	2020-10-13T23:03:04:797
0,311067	-0,930808	9,757930	2020-10-13T23:03:04:813
0,296710	-0,813560	9,736395	2020-10-13T23:03:04:835
0,284746	-0,780060	9,705289	2020-10-13T23:03:04:854
0,277567	-0,775275	9,738789	2020-10-13T23:03:04:876
0,253639	-0,909273	9,750752	2020-10-13T23:03:04:893
0,308674	-0,933201	9,712467	2020-10-13T23:03:04:916
0,267996	-0,914058	9,765109	2020-10-13T23:03:04:934
0,306281	-0,823131	9,743573	2020-10-13T23:03:04:957
0,227318	-0,880559	9,686146	2020-10-13T23:03:04:974
0,253639	-0,887737	9,719646	2020-10-13T23:03:04:996
0,358923	-0,863809	9,693325	2020-10-13T23:03:05:014
0,330210	-0,830309	9,693325	2020-10-13T23:03:05:037
0,342174	-0,777667	9,657433	2020-10-13T23:03:05:055
0,241675	-0,839881	9,729217	2020-10-13T23:03:05:075
0,318245	-0,873380	9,789038	2020-10-13T23:03:05:094
0,363709	-0,813560	9,745967	2020-10-13T23:03:05:116
0,279960	-0,736989	9,791430	2020-10-13T23:03:05:134
0,236889	-0,847059	9,717253	2020-10-13T23:03:05:156
0,191426	-0,856631	9,710074	2020-10-13T23:03:05:174
0,277567	-1,036092	9,676575	2020-10-13T23:03:05:196
0,145962	-1,031307	9,712467	2020-10-13T23:03:05:214
0,210568	-0,966700	9,741181	2020-10-13T23:03:05:236
0,239282	-0,928415	9,729217	2020-10-13T23:03:05:254
0,279960	-0,808774	9,760324	2020-10-13T23:03:05:279
0,251246	-0,952343	9,717253	2020-10-13T23:03:05:294
0,253639	-0,902094	9,736395	2020-10-13T23:03:05:316
0,212961	-0,856631	9,714860	2020-10-13T23:03:05:334
0,284746	-0,887737	9,738789	2020-10-13T23:03:05:356
0,279960	-1,009771	9,712467	2020-10-13T23:03:05:374
0,258425	-0,964308	9,690931	2020-10-13T23:03:05:396
0,284746	-0,957129	9,765109	2020-10-13T23:03:05:414
0,227318	-0,868595	9,743573	2020-10-13T23:03:05:436
0,253639	-0,868595	9,710074	2020-10-13T23:03:05:455
0,205783	-0,906880	9,772287	2020-10-13T23:03:05:476
0,279960	-0,885344	9,710074	2020-10-13T23:03:05:494
0,296710	-0,930808	9,726824	2020-10-13T23:03:05:517
0,354138	-0,935594	9,750752	2020-10-13T23:03:05:534
0,315853	-0,928415	9,702895	2020-10-13T23:03:05:556
0,287139	-0,792024	9,731609	2020-10-13T23:03:05:574
0,301496	-0,897308	9,710074	2020-10-13T23:03:05:596
0,248854	-0,909273	9,757930	2020-10-13T23:03:05:614
0,244068	-0,832702	9,657433	2020-10-13T23:03:05:636
0,313460	-0,909273	9,724431	2020-10-13T23:03:05:655
0,234497	-0,961915	9,777073	2020-10-13T23:03:05:676
0,239282	-1,014557	9,714860	2020-10-13T23:03:05:695
0,301496	-0,969093	9,743573	2020-10-13T23:03:05:716
0,236889	-0,921237	9,688539	2020-10-13T23:03:05:734
0,248854	-0,880559	9,729217	2020-10-13T23:03:05:759
0,246461	-0,868595	9,693325	2020-10-13T23:03:05:774
0,246461	-0,921237	9,695717	2020-10-13T23:03:05:796
0,251246	-0,959522	9,712467	2020-10-13T23:03:05:815
0,260818	-0,969093	9,722038	2020-10-13T23:03:05:837
0,220140	-0,973879	9,729217	2020-10-13T23:03:05:855
0,301496	-0,880559	9,676575	2020-10-13T23:03:05:876
0,289532	-0,935594	9,729217	2020-10-13T23:03:05:895
0,275175	-0,976272	9,686146	2020-10-13T23:03:05:916
0,287139	-0,954736	9,714860	2020-10-13T23:03:05:936
0,208176	-0,935594	9,724431	2020-10-13T23:03:05:957
0,200997	-0,863809	9,784252	2020-10-13T23:03:05:975
0,339781	-0,904487	9,664611	2020-10-13T23:03:05:998
0,296710	-0,969093	9,729217	2020-10-13T23:03:06:016
0,303888	-0,902094	9,712467	2020-10-13T23:03:06:036
0,205783	-0,966700	9,710074	2020-10-13T23:03:06:056
0,272782	-1,007378	9,731609	2020-10-13T23:03:06:077
0,289532	-1,002593	9,650253	2020-10-13T23:03:06:094
0,277567	-0,940379	9,714860	2020-10-13T23:03:06:117
0,318245	-0,808774	9,741181	2020-10-13T23:03:06:135
0,303888	-0,882952	9,731609	2020-10-13T23:03:06:157
0,308674	-0,842274	9,686146	2020-10-13T23:03:06:175
0,306281	-0,918844	9,726824	2020-10-13T23:03:06:198
0,256032	-0,890130	9,738789	2020-10-13T23:03:06:215
0,198604	-0,897308	9,688539	2020-10-13T23:03:06:240
0,234497	-0,880559	9,695717	2020-10-13T23:03:06:255
0,263210	-0,916451	9,719646	2020-10-13T23:03:06:276
0,327817	-0,880559	9,702895	2020-10-13T23:03:06:295
0,294317	-0,870987	9,674182	2020-10-13T23:03:06:317
0,265603	-0,933201	9,750752	2020-10-13T23:03:06:335
0,327817	-0,899701	9,705289	2020-10-13T23:03:06:357
0,241675	-0,873380	9,748360	2020-10-13T23:03:06:375
0,222532	-0,918844	9,710074	2020-10-13T23:03:06:397
0,236889	-0,916451	9,731609	2020-10-13T23:03:06:416
0,248854	-0,906880	9,755538	2020-10-13T23:03:06:437
0,299103	-0,909273	9,750752	2020-10-13T23:03:06:456
0,301496	-0,887737	9,693325	2020-10-13T23:03:06:478
0,275175	-0,942772	9,755538	2020-10-13T23:03:06:495
0,296710	-0,935594	9,678967	2020-10-13T23:03:06:517
0,284746	-0,959522	9,772287	2020-10-13T23:03:06:535
0,294317	-0,856631	9,717253	2020-10-13T23:03:06:557
0,260818	-0,911665	9,726824	2020-10-13T23:03:06:575
0,287139	-0,892523	9,736395	2020-10-13T23:03:06:597
0,265603	-0,844666	9,772287	2020-10-13T23:03:06:615
0,320638	-0,827917	9,736395	2020-10-13T23:03:06:637
0,299103	-0,937986	9,714860	2020-10-13T23:03:06:656
0,265603	-0,878166	9,674182	2020-10-13T23:03:06:677
0,308674	-0,803988	9,693325	2020-10-13T23:03:06:696
0,217747	-0,937986	9,714860	2020-10-13T23:03:06:719
0,246461	-0,978664	9,714860	2020-10-13T23:03:06:735
0,294317	-0,827917	9,734003	2020-10-13T23:03:06:757
0,258425	-0,926022	9,736395	2020-10-13T23:03:06:776
0,256032	-0,842274	9,781858	2020-10-13T23:03:06:797
0,303888	-0,815953	9,734003	2020-10-13T23:03:06:815
0,342174	-0,763310	9,695717	2020-10-13T23:03:06:838
0,277567	-0,875773	9,683753	2020-10-13T23:03:06:856
0,337388	-0,916451	9,659825	2020-10-13T23:03:06:877
0,277567	-0,870987	9,748360	2020-10-13T23:03:06:896
0,323031	-0,856631	9,767502	2020-10-13T23:03:06:917
0,311067	-0,866202	9,710074	2020-10-13T23:03:06:936
0,279960	-0,892523	9,726824	2020-10-13T23:03:06:961
0,265603	-0,868595	9,690931	2020-10-13T23:03:06:976
0,220140	-0,940379	9,722038	2020-10-13T23:03:06:997
0,277567	-0,918844	9,729217	2020-10-13T23:03:07:016
0,299103	-0,837488	9,698111	2020-10-13T23:03:07:037
0,291924	-0,768096	9,702895	2020-10-13T23:03:07:056
0,294317	-0,906880	9,669396	2020-10-13T23:03:07:079
0,251246	-0,885344	9,698111	2020-10-13T23:03:07:096
0,253639	-0,837488	9,690931	2020-10-13T23:03:07:117
0,277567	-0,837488	9,726824	2020-10-13T23:03:07:136
0,308674	-0,916451	9,714860	2020-10-13T23:03:07:159
0,270389	-0,808774	9,702895	2020-10-13T23:03:07:176
0,270389	-0,847059	9,712467	2020-10-13T23:03:07:200
0,313460	-0,892523	9,731609	2020-10-13T23:03:07:216
0,334995	-0,849452	9,710074	2020-10-13T23:03:07:238
0,291924	-0,839881	9,717253	2020-10-13T23:03:07:257
0,332602	-0,842274	9,719646	2020-10-13T23:03:07:277
0,251246	-0,959522	9,690931	2020-10-13T23:03:07:296
0,296710	-0,933201	9,719646	2020-10-13T23:03:07:320
0,315853	-0,997807	9,705289	2020-10-13T23:03:07:337
0,346959	-0,928415	9,719646	2020-10-13T23:03:07:358
0,239282	-0,935594	9,755538	2020-10-13T23:03:07:376
0,313460	-0,844666	9,722038	2020-10-13T23:03:07:399
0,284746	-0,897308	9,693325	2020-10-13T23:03:07:416
0,303888	-0,885344	9,777073	2020-10-13T23:03:07:439
0,315853	-0,983450	9,714860	2020-10-13T23:03:07:457
0,313460	-0,926022	9,712467	2020-10-13T23:03:07:479
0,203390	-0,966700	9,690931	2020-10-13T23:03:07:496
0,272782	-0,969093	9,671788	2020-10-13T23:03:07:517
0,308674	-0,928415	9,705289	2020-10-13T23:03:07:536
0,334995	-0,902094	9,731609	2020-10-13T23:03:07:560
0,291924	-0,863809	9,683753	2020-10-13T23:03:07:576
0,258425	-0,978664	9,765109	2020-10-13T23:03:07:599
0,265603	-0,961915	9,683753	2020-10-13T23:03:07:616
0,244068	-0,964308	9,702895	2020-10-13T23:03:07:639
0,318245	-0,964308	9,693325	2020-10-13T23:03:07:656
0,368495	-0,868595	9,678967	2020-10-13T23:03:07:681
0,303888	-0,894916	9,726824	2020-10-13T23:03:07:696
0,337388	-0,926022	9,695717	2020-10-13T23:03:07:719
0,267996	-0,921237	9,762716	2020-10-13T23:03:07:736
0,275175	-0,930808	9,738789	2020-10-13T23:03:07:758
0,382852	-0,971486	9,734003	2020-10-13T23:03:07:776
0,272782	-0,993021	9,700503	2020-10-13T23:03:07:799
0,284746	-1,000200	9,700503	2020-10-13T23:03:07:816
0,334995	-0,863809	9,702895	2020-10-13T23:03:07:838
0,296710	-0,897308	9,693325	2020-10-13T23:03:07:857
0,287139	-0,909273	9,769895	2020-10-13T23:03:07:879
0,323031	-0,923629	9,645468	2020-10-13T23:03:07:897
0,308674	-0,990629	9,686146	2020-10-13T23:03:07:922
0,251246	-0,945165	9,674182	2020-10-13T23:03:07:937
0,291924	-1,007378	9,741181	2020-10-13T23:03:07:960
0,303888	-0,990629	9,726824	2020-10-13T23:03:07:977
0,265603	-0,918844	9,760324	2020-10-13T23:03:07:998
0,342174	-0,818345	9,738789	2020-10-13T23:03:08:017
0,327817	-0,899701	9,695717	2020-10-13T23:03:08:040
0,265603	-0,969093	9,698111	2020-10-13T23:03:08:057
0,279960	-0,945165	9,765109	2020-10-13T23:03:08:078
0,315853	-0,969093	9,784252	2020-10-13T23:03:08:099
0,332602	-0,949951	9,695717	2020-10-13T23:03:08:119
0,323031	-0,971486	9,688539	2020-10-13T23:03:08:137
0,327817	-0,933201	9,741181	2020-10-13T23:03:08:162
0,282353	-0,899701	9,717253	2020-10-13T23:03:08:177
0,205783	-0,916451	9,734003	2020-10-13T23:03:08:200
0,241675	-0,923629	9,714860	2020-10-13T23:03:08:217
0,275175	-0,990629	9,693325	2020-10-13T23:03:08:239
0,320638	-0,959522	9,719646	2020-10-13T23:03:08:257
0,296710	-0,945165	9,796216	2020-10-13T23:03:08:280
0,267996	-0,988236	9,796216	2020-10-13T23:03:08:297
0,294317	-0,959522	9,719646	2020-10-13T23:03:08:319
0,323031	-0,880559	9,736395	2020-10-13T23:03:08:337
0,272782	-0,952343	9,724431	2020-10-13T23:03:08:361
0,287139	-0,942772	9,757930	2020-10-13T23:03:08:377
0,315853	-0,985843	9,724431	2020-10-13T23:03:08:401
0,277567	-0,930808	9,736395	2020-10-13T23:03:08:417
0,318245	-1,002593	9,683753	2020-10-13T23:03:08:440
0,248854	-0,983450	9,681360	2020-10-13T23:03:08:458
0,320638	-0,890130	9,717253	2020-10-13T23:03:08:479
0,301496	-0,942772	9,767502	2020-10-13T23:03:08:497
0,318245	-0,940379	9,719646	2020-10-13T23:03:08:520
0,315853	-0,976272	9,676575	2020-10-13T23:03:08:538
0,217747	-0,966700	9,745967	2020-10-13T23:03:08:559
0,198604	-1,000200	9,757930	2020-10-13T23:03:08:577
0,265603	-1,031307	9,681360	2020-10-13T23:03:08:600
0,267996	-0,942772	9,655040	2020-10-13T23:03:08:617
0,265603	-0,957129	9,700503	2020-10-13T23:03:08:642
0,270389	-0,988236	9,695717	2020-10-13T23:03:08:658
0,239282	-0,983450	9,712467	2020-10-13T23:03:08:680
0,210568	-0,988236	9,743573	2020-10-13T23:03:08:697
0,308674	-1,014557	9,700503	2020-10-13T23:03:08:719
0,282353	-0,959522	9,693325	2020-10-13T23:03:08:737
0,272782	-0,930808	9,729217	2020-10-13T23:03:08:761
0,229711	-0,935594	9,762716	2020-10-13T23:03:08:777
0,265603	-1,014557	9,678967	2020-10-13T23:03:08:799
0,224925	-0,942772	9,707682	2020-10-13T23:03:08:818
0,291924	-0,966700	9,750752	2020-10-13T23:03:08:840
0,239282	-0,921237	9,722038	2020-10-13T23:03:08:858
0,296710	-0,964308	9,738789	2020-10-13T23:03:08:882
0,236889	-1,012164	9,698111	2020-10-13T23:03:08:898
0,246461	-0,981057	9,707682	2020-10-13T23:03:08:920
0,246461	-0,947558	9,674182	2020-10-13T23:03:08:939
0,277567	-0,971486	9,693325	2020-10-13T23:03:08:960
0,354138	-1,019342	9,726824	2020-10-13T23:03:08:978
0,244068	-1,024128	9,659825	2020-10-13T23:03:09:001
0,251246	-0,997807	9,710074	2020-10-13T23:03:09:018
0,308674	-1,048056	9,719646	2020-10-13T23:03:09:039
0,212961	-0,993021	9,688539	2020-10-13T23:03:09:058
0,220140	-1,036092	9,683753	2020-10-13T23:03:09:082
0,279960	-0,993021	9,690931	2020-10-13T23:03:09:100
0,220140	-1,026521	9,683753	2020-10-13T23:03:09:121
0,299103	-1,028914	9,745967	2020-10-13T23:03:09:138
0,311067	-0,971486	9,717253	2020-10-13T23:03:09:161
0,229711	-0,988236	9,690931	2020-10-13T23:03:09:179
0,301496	-1,004985	9,753145	2020-10-13T23:03:09:200
0,344566	-1,016950	9,669396	2020-10-13T23:03:09:218
0,279960	-0,981057	9,724431	2020-10-13T23:03:09:241
0,311067	-0,954736	9,700503	2020-10-13T23:03:09:258
0,282353	-0,952343	9,743573	2020-10-13T23:03:09:280
0,234497	-0,957129	9,700503	2020-10-13T23:03:09:298
0,251246	-0,916451	9,710074	2020-10-13T23:03:09:321
0,277567	-0,935594	9,717253	2020-10-13T23:03:09:338
0,229711	-0,949951	9,717253	2020-10-13T23:03:09:363
0,267996	-0,933201	9,702895	2020-10-13T23:03:09:379
0,344566	-0,978664	9,678967	2020-10-13T23:03:09:401
0,246461	-0,961915	9,712467	2020-10-13T23:03:09:419
0,232104	-1,009771	9,712467	2020-10-13T23:03:09:439
0,346959	-0,945165	9,690931	2020-10-13T23:03:09:458
0,200997	-1,002593	9,705289	2020-10-13T23:03:09:481
0,270389	-0,947558	9,748360	2020-10-13T23:03:09:498
0,284746	-0,957129	9,705289	2020-10-13T23:03:09:520
0,258425	-0,916451	9,681360	2020-10-13T23:03:09:539
0,303888	-0,964308	9,700503	2020-10-13T23:03:09:561
0,299103	-0,909273	9,724431	2020-10-13T23:03:09:578
0,291924	-0,959522	9,743573	2020-10-13T23:03:09:601
0,251246	-0,873380	9,700503	2020-10-13T23:03:09:620
0,323031	-0,993021	9,664611	2020-10-13T23:03:09:641
0,275175	-0,926022	9,686146	2020-10-13T23:03:09:660
0,277567	-0,923629	9,719646	2020-10-13T23:03:09:680
0,306281	-0,926022	9,710074	2020-10-13T23:03:09:698
0,291924	-0,921237	9,693325	2020-10-13T23:03:09:721
0,291924	-0,966700	9,669396	2020-10-13T23:03:09:738
0,308674	-0,957129	9,719646	2020-10-13T23:03:09:760
0,318245	-0,954736	9,686146	2020-10-13T23:03:09:779
0,299103	-0,921237	9,707682	2020-10-13T23:03:09:802
0,267996	-0,923629	9,698111	2020-10-13T23:03:09:818
0,296710	-1,026521	9,734003	2020-10-13T23:03:09:842
0,299103	-0,916451	9,659825	2020-10-13T23:03:09:860
0,265603	-0,976272	9,678967	2020-10-13T23:03:09:881
0,303888	-1,007378	9,722038	2020-10-13T23:03:09:899
0,296710	-0,921237	9,748360	2020-10-13T23:03:09:920
0,313460	-0,973879	9,757930	2020-10-13T23:03:09:939
0,291924	-0,997807	9,693325	2020-10-13T23:03:09:962
0,299103	-0,887737	9,681360	2020-10-13T23:03:09:979
0,366102	-0,988236	9,719646	2020-10-13T23:03:10:000
0,313460	-0,854238	9,760324	2020-10-13T23:03:10:019
0,241675	-0,906880	9,690931	2020-10-13T23:03:10:042
0,301496	-0,851845	9,700503	2020-10-13T23:03:10:059
0,284746	-0,988236	9,714860	2020-10-13T23:03:10:084
0,282353	-0,887737	9,717253	2020-10-13T23:03:10:098
0,315853	-0,882952	9,722038	2020-10-13T23:03:10:121
0,287139	-0,894916	9,714860	2020-10-13T23:03:10:139
0,263210	-0,964308	9,714860	2020-10-13T23:03:10:161
0,291924	-0,928415	9,702895	2020-10-13T23:03:10:179
0,270389	-0,873380	9,726824	2020-10-13T23:03:10:202
0,277567	-0,906880	9,707682	2020-10-13T23:03:10:219
0,318245	-0,937986	9,779467	2020-10-13T23:03:10:241
0,306281	-0,971486	9,669396	2020-10-13T23:03:10:260
0,363709	-0,940379	9,693325	2020-10-13T23:03:10:282
0,263210	-0,926022	9,702895	2020-10-13T23:03:10:299
0,234497	-0,916451	9,678967	2020-10-13T23:03:10:323
0,270389	-0,868595	9,741181	2020-10-13T23:03:10:339
0,234497	-1,007378	9,705289	2020-10-13T23:03:10:362
0,296710	-0,909273	9,686146	2020-10-13T23:03:10:379
0,277567	-0,890130	9,683753	2020-10-13T23:03:10:401
0,289532	-0,897308	9,714860	2020-10-13T23:03:10:420
0,270389	-0,887737	9,707682	2020-10-13T23:03:10:442
0,325424	-0,849452	9,714860	2020-10-13T23:03:10:461
0,291924	-0,854238	9,707682	2020-10-13T23:03:10:481
0,315853	-0,902094	9,719646	2020-10-13T23:03:10:500
0,277567	-0,921237	9,693325	2020-10-13T23:03:10:522
0,313460	-0,899701	9,714860	2020-10-13T23:03:10:540
0,325424	-0,935594	9,719646	2020-10-13T23:03:10:564
0,289532	-0,911665	9,786645	2020-10-13T23:03:10:579
0,263210	-0,904487	9,736395	2020-10-13T23:03:10:602
0,265603	-0,899701	9,700503	2020-10-13T23:03:10:620
0,275175	-0,870987	9,745967	2020-10-13T23:03:10:641
0,318245	-0,902094	9,705289	2020-10-13T23:03:10:660
0,344566	-0,863809	9,678967	2020-10-13T23:03:10:682
0,299103	-0,937986	9,702895	2020-10-13T23:03:10:700
0,303888	-0,978664	9,710074	2020-10-13T23:03:10:721
0,337388	-0,870987	9,736395	2020-10-13T23:03:10:740
0,296710	-0,878166	9,659825	2020-10-13T23:03:10:763
0,248854	-0,923629	9,719646	2020-10-13T23:03:10:779
0,337388	-0,870987	9,707682	2020-10-13T23:03:10:802
0,284746	-0,954736	9,722038	2020-10-13T23:03:10:820
0,363709	-0,808774	9,719646	2020-10-13T23:03:10:842
0,287139	-0,906880	9,741181	2020-10-13T23:03:10:860
0,279960	-0,818345	9,729217	2020-10-13T23:03:10:882
0,363709	-0,990629	9,676575	2020-10-13T23:03:10:899
0,244068	-0,859023	9,729217	2020-10-13T23:03:10:924
0,272782	-0,902094	9,693325	2020-10-13T23:03:10:940
0,301496	-0,971486	9,743573	2020-10-13T23:03:10:962
0,351745	-0,870987	9,700503	2020-10-13T23:03:10:980
0,342174	-0,839881	9,712467	2020-10-13T23:03:11:003
0,270389	-0,969093	9,717253	2020-10-13T23:03:11:020
0,267996	-0,914058	9,748360	2020-10-13T23:03:11:044
0,284746	-0,904487	9,748360	2020-10-13T23:03:11:061
0,323031	-0,988236	9,669396	2020-10-13T23:03:11:082
0,287139	-0,928415	9,710074	2020-10-13T23:03:11:100
0,279960	-0,983450	9,655040	2020-10-13T23:03:11:121
0,270389	-0,844666	9,755538	2020-10-13T23:03:11:140
0,200997	-0,947558	9,702895	2020-10-13T23:03:11:163
0,229711	-0,847059	9,705289	2020-10-13T23:03:11:180
0,265603	-0,949951	9,674182	2020-10-13T23:03:11:201
0,375673	-0,954736	9,695717	2020-10-13T23:03:11:220
0,315853	-0,918844	9,700503	2020-10-13T23:03:11:243
0,330210	-0,940379	9,683753	2020-10-13T23:03:11:260
0,279960	-0,918844	9,745967	2020-10-13T23:03:11:284
0,291924	-0,815953	9,767502	2020-10-13T23:03:11:300
0,287139	-0,849452	9,738789	2020-10-13T23:03:11:323
0,196211	-0,921237	9,726824	2020-10-13T23:03:11:340
0,334995	-0,973879	9,707682	2020-10-13T23:03:11:362
0,342174	-0,990629	9,714860	2020-10-13T23:03:11:380
0,303888	-0,914058	9,688539	2020-10-13T23:03:11:403
0,279960	-0,780060	9,757930	2020-10-13T23:03:11:420
0,327817	-0,880559	9,714860	2020-10-13T23:03:11:441
0,275175	-0,961915	9,745967	2020-10-13T23:03:11:460
0,301496	-0,978664	9,702895	2020-10-13T23:03:11:483
0,294317	-0,930808	9,695717	2020-10-13T23:03:11:500
0,265603	-0,894916	9,717253	2020-10-13T23:03:11:523
0,248854	-1,009771	9,726824	2020-10-13T23:03:11:541
0,339781	-0,990629	9,731609	2020-10-13T23:03:11:563
0,265603	-0,961915	9,657433	2020-10-13T23:03:11:581
0,210568	-0,959522	9,690931	2020-10-13T23:03:11:602
0,313460	-0,926022	9,726824	2020-10-13T23:03:11:620
0,279960	-0,878166	9,714860	2020-10-13T23:03:11:643
0,275175	-0,973879	9,719646	2020-10-13T23:03:11:661
0,260818	-0,887737	9,695717	2020-10-13T23:03:11:682
0,265603	-1,000200	9,731609	2020-10-13T23:03:11:700
0,251246	-0,952343	9,712467	2020-10-13T23:03:11:723
0,320638	-0,916451	9,635897	2020-10-13T23:03:11:740
0,258425	-0,866202	9,748360	2020-10-13T23:03:11:765
0,260818	-0,873380	9,722038	2020-10-13T23:03:11:781
0,332602	-0,918844	9,717253	2020-10-13T23:03:11:803
0,265603	-0,928415	9,734003	2020-10-13T23:03:11:822
0,289532	-0,973879	9,655040	2020-10-13T23:03:11:842
0,289532	-0,983450	9,705289	2020-10-13T23:03:11:861
0,258425	-1,000200	9,705289	2020-10-13T23:03:11:883
0,277567	-1,026521	9,686146	2020-10-13T23:03:11:901
0,356531	-1,000200	9,700503	2020-10-13T23:03:11:922
0,277567	-0,973879	9,760324	2020-10-13T23:03:11:941
0,222532	-0,887737	9,734003	2020-10-13T23:03:11:964
0,265603	-1,036092	9,686146	2020-10-13T23:03:11:980
0,265603	-1,007378	9,726824	2020-10-13T23:03:12:003
0,260818	-0,978664	9,662218	2020-10-13T23:03:12:021
0,282353	-0,985843	9,748360	2020-10-13T23:03:12:043
0,256032	-1,014557	9,717253	2020-10-13T23:03:12:061
0,294317	-1,019342	9,722038	2020-10-13T23:03:12:083
0,294317	-1,004985	9,750752	2020-10-13T23:03:12:101
0,311067	-0,971486	9,717253	2020-10-13T23:03:12:124
0,294317	-0,942772	9,681360	2020-10-13T23:03:12:141
0,267996	-0,937986	9,712467	2020-10-13T23:03:12:162
0,277567	-0,930808	9,717253	2020-10-13T23:03:12:181
0,258425	-0,978664	9,714860	2020-10-13T23:03:12:204
0,380459	-1,069592	9,681360	2020-10-13T23:03:12:221
0,275175	-0,983450	9,722038	2020-10-13T23:03:12:243
0,337388	-0,945165	9,717253	2020-10-13T23:03:12:261
0,308674	-0,976272	9,710074	2020-10-13T23:03:12:283
0,217747	-0,990629	9,669396	2020-10-13T23:03:12:301
0,253639	-0,966700	9,686146	2020-10-13T23:03:12:323
0,291924	-1,021735	9,736395	2020-10-13T23:03:12:341
0,313460	-0,961915	9,686146	2020-10-13T23:03:12:365
0,296710	-1,007378	9,726824	2020-10-13T23:03:12:381
0,244068	-0,904487	9,707682	2020-10-13T23:03:12:403
0,368495	-0,988236	9,681360	2020-10-13T23:03:12:422
0,289532	-0,937986	9,717253	2020-10-13T23:03:12:444
0,248854	-0,959522	9,710074	2020-10-13T23:03:12:461
0,227318	-0,892523	9,702895	2020-10-13T23:03:12:485
0,299103	-0,952343	9,683753	2020-10-13T23:03:12:501
0,354138	-0,973879	9,736395	2020-10-13T23:03:12:524
0,284746	-0,918844	9,710074	2020-10-13T23:03:12:541
0,294317	-0,947558	9,686146	2020-10-13T23:03:12:562
0,287139	-0,942772	9,707682	2020-10-13T23:03:12:581
0,296710	-0,914058	9,690931	2020-10-13T23:03:12:604
0,318245	-0,947558	9,707682	2020-10-13T23:03:12:622
0,308674	-1,024128	9,667004	2020-10-13T23:03:12:642
0,248854	-1,086342	9,731609	2020-10-13T23:03:12:662
0,239282	-0,971486	9,712467	2020-10-13T23:03:12:683
0,279960	-0,971486	9,710074	2020-10-13T23:03:12:701
0,277567	-0,969093	9,702895	2020-10-13T23:03:12:724
0,265603	-0,878166	9,714860	2020-10-13T23:03:12:741
0,308674	-0,930808	9,729217	2020-10-13T23:03:12:764
0,299103	-1,021735	9,762716	2020-10-13T23:03:12:781
0,318245	-0,911665	9,710074	2020-10-13T23:03:12:803
0,277567	-0,954736	9,722038	2020-10-13T23:03:12:821
0,215354	-0,926022	9,726824	2020-10-13T23:03:12:844
0,239282	-0,981057	9,722038	2020-10-13T23:03:12:862
0,277567	-0,981057	9,731609	2020-10-13T23:03:12:883
0,260818	-0,906880	9,705289	2020-10-13T23:03:12:901
0,253639	-0,916451	9,738789	2020-10-13T23:03:12:924
0,270389	-0,961915	9,717253	2020-10-13T23:03:12:942
0,291924	-0,949951	9,698111	2020-10-13T23:03:12:965
0,291924	-0,976272	9,757930	2020-10-13T23:03:12:981
0,277567	-1,014557	9,686146	2020-10-13T23:03:13:004
0,294317	-0,894916	9,702895	2020-10-13T23:03:13:022
0,279960	-0,935594	9,734003	2020-10-13T23:03:13:044
0,263210	-1,110270	9,710074	2020-10-13T23:03:13:062
0,277567	-0,976272	9,700503	2020-10-13T23:03:13:085
0,294317	-0,961915	9,726824	2020-10-13T23:03:13:102
0,282353	-0,914058	9,774680	2020-10-13T23:03:13:123
0,358923	-1,009771	9,726824	2020-10-13T23:03:13:142
0,251246	-0,947558	9,667004	2020-10-13T23:03:13:165
0,236889	-0,981057	9,700503	2020-10-13T23:03:13:182
0,256032	-0,964308	9,698111	2020-10-13T23:03:13:205
0,241675	-0,890130	9,765109	2020-10-13T23:03:13:221
0,313460	-0,949951	9,702895	2020-10-13T23:03:13:244
0,267996	-0,949951	9,765109	2020-10-13T23:03:13:262
0,265603	-0,933201	9,753145	2020-10-13T23:03:13:283
0,232104	-0,945165	9,760324	2020-10-13T23:03:13:302
0,337388	-0,947558	9,702895	2020-10-13T23:03:13:325
0,294317	-0,930808	9,693325	2020-10-13T23:03:13:342
0,248854	-0,957129	9,743573	2020-10-13T23:03:13:364
0,311067	-0,892523	9,714860	2020-10-13T23:03:13:382
0,330210	-0,933201	9,676575	2020-10-13T23:03:13:405
0,251246	-0,952343	9,664611	2020-10-13T23:03:13:422
0,294317	-1,071985	9,710074	2020-10-13T23:03:13:445
0,294317	-0,947558	9,755538	2020-10-13T23:03:13:462
0,294317	-0,937986	9,695717	2020-10-13T23:03:13:485
0,244068	-1,004985	9,700503	2020-10-13T23:03:13:505
0,291924	-0,906880	9,738789	2020-10-13T23:03:13:524
0,270389	-0,985843	9,726824	2020-10-13T23:03:13:541
0,289532	-0,964308	9,774680	2020-10-13T23:03:13:565
0,296710	-0,945165	9,690931	2020-10-13T23:03:13:582
0,299103	-0,947558	9,724431	2020-10-13T23:03:13:604
0,198604	-0,971486	9,705289	2020-10-13T23:03:13:622
0,236889	-0,981057	9,741181	2020-10-13T23:03:13:645
0,263210	-1,031307	9,779467	2020-10-13T23:03:13:662
0,339781	-0,973879	9,724431	2020-10-13T23:03:13:685
0,318245	-0,964308	9,731609	2020-10-13T23:03:13:704
0,294317	-0,820738	9,676575	2020-10-13T23:03:13:725
0,351745	-0,916451	9,724431	2020-10-13T23:03:13:743
0,287139	-0,981057	9,683753	2020-10-13T23:03:13:764
0,306281	-0,926022	9,745967	2020-10-13T23:03:13:782
0,313460	-0,947558	9,741181	2020-10-13T23:03:13:805
0,272782	-0,959522	9,722038	2020-10-13T23:03:13:823
0,265603	-0,933201	9,707682	2020-10-13T23:03:13:844
0,253639	-1,002593	9,719646	2020-10-13T23:03:13:864
0,279960	-0,849452	9,671788	2020-10-13T23:03:13:888
0,279960	-0,906880	9,745967	2020-10-13T23:03:13:903
0,196211	-1,021735	9,741181	2020-10-13T23:03:13:926
0,282353	-0,949951	9,710074	2020-10-13T23:03:13:942
0,301496	-0,985843	9,743573	2020-10-13T23:03:13:966
0,244068	-0,976272	9,724431	2020-10-13T23:03:13:982
0,301496	-0,918844	9,717253	2020-10-13T23:03:14:004
0,320638	-0,935594	9,688539	2020-10-13T23:03:14:022
0,284746	-0,887737	9,712467	2020-10-13T23:03:14:046
0,244068	-0,918844	9,731609	2020-10-13T23:03:14:064
0,224925	-0,985843	9,698111	2020-10-13T23:03:14:084
0,248854	-0,952343	9,724431	2020-10-13T23:03:14:103
0,308674	-0,928415	9,741181	2020-10-13T23:03:14:125
0,325424	-0,866202	9,748360	2020-10-13T23:03:14:143
0,306281	-0,921237	9,731609	2020-10-13T23:03:14:168
0,282353	-0,985843	9,767502	2020-10-13T23:03:14:182
0,275175	-0,928415	9,781858	2020-10-13T23:03:14:205
0,265603	-0,930808	9,712467	2020-10-13T23:03:14:223
0,277567	-0,825524	9,686146	2020-10-13T23:03:14:244
0,291924	-0,988236	9,779467	2020-10-13T23:03:14:263
0,325424	-0,990629	9,698111	2020-10-13T23:03:14:286
0,375673	-0,937986	9,671788	2020-10-13T23:03:14:302
0,320638	-0,959522	9,757930	2020-10-13T23:03:14:324
0,215354	-0,937986	9,695717	2020-10-13T23:03:14:343
0,184247	-0,914058	9,731609	2020-10-13T23:03:14:366
0,287139	-0,926022	9,698111	2020-10-13T23:03:14:383
0,308674	-0,981057	9,681360	2020-10-13T23:03:14:408
0,315853	-0,976272	9,726824	2020-10-13T23:03:14:423
0,366102	-0,961915	9,681360	2020-10-13T23:03:14:446
0,253639	-0,918844	9,688539	2020-10-13T23:03:14:464
0,232104	-0,885344	9,702895	2020-10-13T23:03:14:485
0,279960	-1,002593	9,705289	2020-10-13T23:03:14:503
0,303888	-0,937986	9,712467	2020-10-13T23:03:14:526
0,306281	-0,899701	9,722038	2020-10-13T23:03:14:543
0,294317	-0,947558	9,724431	2020-10-13T23:03:14:565
0,299103	-1,007378	9,693325	2020-10-13T23:03:14:584
0,327817	-0,854238	9,724431	2020-10-13T23:03:14:606
0,306281	-0,911665	9,664611	2020-10-13T23:03:14:623
0,294317	-0,928415	9,765109	2020-10-13T23:03:14:646
0,258425	-0,952343	9,722038	2020-10-13T23:03:14:663
0,248854	-0,997807	9,702895	2020-10-13T23:03:14:686
0,272782	-0,969093	9,741181	2020-10-13T23:03:14:703
0,284746	-1,024128	9,712467	2020-10-13T23:03:14:725
0,251246	-1,016950	9,681360	2020-10-13T23:03:14:743
0,320638	-0,928415	9,724431	2020-10-13T23:03:14:767
0,308674	-0,909273	9,690931	2020-10-13T23:03:14:783
0,294317	-0,947558	9,681360	2020-10-13T23:03:14:805
0,320638	-0,985843	9,791430	2020-10-13T23:03:14:824
0,246461	-0,957129	9,726824	2020-10-13T23:03:14:846
0,327817	-0,983450	9,741181	2020-10-13T23:03:14:864
0,327817	-0,976272	9,702895	2020-10-13T23:03:14:887
0,301496	-0,949951	9,714860	2020-10-13T23:03:14:903
0,308674	-0,906880	9,736395	2020-10-13T23:03:14:926
0,229711	-0,952343	9,693325	2020-10-13T23:03:14:944
0,287139	-0,981057	9,765109	2020-10-13T23:03:14:966
0,186640	-0,997807	9,774680	2020-10-13T23:03:14:983
0,265603	-1,067199	9,712467	2020-10-13T23:03:15:006
0,260818	-0,949951	9,741181	2020-10-13T23:03:15:025
0,306281	-0,914058	9,719646	2020-10-13T23:03:15:045
0,222532	-0,985843	9,750752	2020-10-13T23:03:15:065
0,296710	-1,024128	9,726824	2020-10-13T23:03:15:097
0,275175	-0,978664	9,707682	2020-10-13T23:03:15:103
0,265603	-0,985843	9,729217	2020-10-13T23:03:15:127
0,263210	-0,911665	9,712467	2020-10-13T23:03:15:144
0,267996	-0,981057	9,726824	2020-10-13T23:03:15:167
0,282353	-0,940379	9,681360	2020-10-13T23:03:15:184
0,308674	-1,009771	9,705289	2020-10-13T23:03:15:206
0,306281	-1,036092	9,700503	2020-10-13T23:03:15:224
0,315853	-0,959522	9,743573	2020-10-13T23:03:15:247
0,256032	-0,961915	9,774680	2020-10-13T23:03:15:264
0,256032	-0,935594	9,693325	2020-10-13T23:03:15:285
0,308674	-1,016950	9,700503	2020-10-13T23:03:15:304
0,275175	-0,954736	9,700503	2020-10-13T23:03:15:327
0,279960	-0,995414	9,647861	2020-10-13T23:03:15:344
0,323031	-0,954736	9,741181	2020-10-13T23:03:15:369
0,284746	-0,983450	9,719646	2020-10-13T23:03:15:384
0,241675	-0,928415	9,719646	2020-10-13T23:03:15:417
0,282353	-0,952343	9,729217	2020-10-13T23:03:15:425
0,323031	-0,978664	9,719646	2020-10-13T23:03:15:445
0,239282	-1,069592	9,760324	2020-10-13T23:03:15:465
0,205783	-1,036092	9,738789	2020-10-13T23:03:15:486
0,222532	-1,055235	9,705289	2020-10-13T23:03:15:504
0,258425	-1,031307	9,702895	2020-10-13T23:03:15:526
0,339781	-1,004985	9,738789	2020-10-13T23:03:15:544
0,239282	-0,969093	9,669396	2020-10-13T23:03:15:567
0,334995	-0,981057	9,693325	2020-10-13T23:03:15:584
0,299103	-0,966700	9,700503	2020-10-13T23:03:15:608
0,284746	-1,122234	9,686146	2020-10-13T23:03:15:624
0,220140	-1,021735	9,688539	2020-10-13T23:03:15:647
0,275175	-0,990629	9,767502	2020-10-13T23:03:15:665
0,244068	-0,918844	9,741181	2020-10-13T23:03:15:686
0,248854	-1,067199	9,738789	2020-10-13T23:03:15:704
0,306281	-1,040878	9,738789	2020-10-13T23:03:15:727
0,222532	-0,976272	9,714860	2020-10-13T23:03:15:744
0,248854	-1,007378	9,717253	2020-10-13T23:03:15:766
0,277567	-1,067199	9,678967	2020-10-13T23:03:15:784
0,267996	-1,007378	9,714860	2020-10-13T23:03:15:807
0,308674	-0,978664	9,710074	2020-10-13T23:03:15:824
0,279960	-1,014557	9,695717	2020-10-13T23:03:15:849
0,253639	-0,983450	9,683753	2020-10-13T23:03:15:865
0,294317	-0,969093	9,738789	2020-10-13T23:03:15:887
0,291924	-1,031307	9,686146	2020-10-13T23:03:15:905
0,244068	-0,981057	9,712467	2020-10-13T23:03:15:926
0,284746	-0,990629	9,738789	2020-10-13T23:03:15:944
0,327817	-0,961915	9,777073	2020-10-13T23:03:15:968
0,272782	-1,050449	9,702895	2020-10-13T23:03:15:984
0,291924	-0,990629	9,736395	2020-10-13T23:03:16:006
0,282353	-0,937986	9,662218	2020-10-13T23:03:16:025
0,363709	-0,981057	9,652647	2020-10-13T23:03:16:048
0,313460	-0,985843	9,724431	2020-10-13T23:03:16:065
0,272782	-1,016950	9,695717	2020-10-13T23:03:16:088
0,323031	-0,976272	9,667004	2020-10-13T23:03:16:104
0,260818	-0,969093	9,729217	2020-10-13T23:03:16:128
0,270389	-0,949951	9,657433	2020-10-13T23:03:16:145
0,275175	-0,978664	9,772287	2020-10-13T23:03:16:167
0,260818	-1,016950	9,736395	2020-10-13T23:03:16:185
0,270389	-0,969093	9,652647	2020-10-13T23:03:16:208
0,313460	-0,988236	9,760324	2020-10-13T23:03:16:225
0,227318	-1,069592	9,717253	2020-10-13T23:03:16:246
0,232104	-1,012164	9,700503	2020-10-13T23:03:16:265
0,229711	-0,897308	9,712467	2020-10-13T23:03:16:287
0,306281	-1,014557	9,669396	2020-10-13T23:03:16:305
0,275175	-0,954736	9,717253	2020-10-13T23:03:16:330
0,244068	-0,993021	9,674182	2020-10-13T23:03:16:345
0,296710	-0,890130	9,726824	2020-10-13T23:03:16:368
0,267996	-0,887737	9,738789	2020-10-13T23:03:16:385
0,311067	-0,959522	9,702895	2020-10-13T23:03:16:407
0,287139	-0,897308	9,714860	2020-10-13T23:03:16:425
0,344566	-0,995414	9,731609	2020-10-13T23:03:16:448
0,301496	-0,995414	9,722038	2020-10-13T23:03:16:465
0,299103	-0,997807	9,765109	2020-10-13T23:03:16:487
0,296710	-0,942772	9,750752	2020-10-13T23:03:16:505
0,239282	-0,954736	9,683753	2020-10-13T23:03:16:528
0,299103	-0,959522	9,674182	2020-10-13T23:03:16:545
0,308674	-0,957129	9,712467	2020-10-13T23:03:16:569
0,342174	-0,990629	9,745967	2020-10-13T23:03:16:585
0,234497	-0,937986	9,705289	2020-10-13T23:03:16:608
0,227318	-0,959522	9,729217	2020-10-13T23:03:16:625
0,265603	-0,935594	9,702895	2020-10-13T23:03:16:647
0,282353	-0,969093	9,702895	2020-10-13T23:03:16:665
0,301496	-0,957129	9,702895	2020-10-13T23:03:16:688
0,291924	-0,961915	9,664611	2020-10-13T23:03:16:705
0,301496	-1,016950	9,724431	2020-10-13T23:03:16:727
0,256032	-0,866202	9,643075	2020-10-13T23:03:16:745
0,303888	-0,902094	9,729217	2020-10-13T23:03:16:768
0,320638	-0,880559	9,774680	2020-10-13T23:03:16:786
0,279960	-1,004985	9,743573	2020-10-13T23:03:16:809
0,323031	-0,933201	9,700503	2020-10-13T23:03:16:825
0,320638	-0,911665	9,714860	2020-10-13T23:03:16:848
0,279960	-0,988236	9,712467	2020-10-13T23:03:16:866
0,236889	-0,916451	9,726824	2020-10-13T23:03:16:887
0,256032	-0,952343	9,688539	2020-10-13T23:03:16:905
0,241675	-0,890130	9,738789	2020-10-13T23:03:16:928
0,279960	-0,933201	9,729217	2020-10-13T23:03:16:946
0,334995	-0,942772	9,774680	2020-10-13T23:03:16:968
0,241675	-0,988236	9,683753	2020-10-13T23:03:16:985
0,246461	-0,914058	9,667004	2020-10-13T23:03:17:013
0,208176	-0,909273	9,681360	2020-10-13T23:03:17:025
0,303888	-0,981057	9,690931	2020-10-13T23:03:17:050
0,303888	-0,945165	9,729217	2020-10-13T23:03:17:067
0,210568	-0,851845	9,726824	2020-10-13T23:03:17:098
0,275175	-0,937986	9,681360	2020-10-13T23:03:17:155
0,299103	-0,916451	9,719646	2020-10-13T23:03:17:156
0,296710	-0,930808	9,717253	2020-10-13T23:03:17:156
0,306281	-0,959522	9,729217	2020-10-13T23:03:17:173
0,246461	-0,952343	9,705289	2020-10-13T23:03:17:202
0,258425	-0,961915	9,738789	2020-10-13T23:03:17:293
0,332602	-0,926022	9,729217	2020-10-13T23:03:17:294
0,265603	-0,949951	9,731609	2020-10-13T23:03:17:295
0,318245	-0,892523	9,757930	2020-10-13T23:03:17:295
0,272782	-0,988236	9,734003	2020-10-13T23:03:17:296
0,287139	-1,009771	9,659825	2020-10-13T23:03:17:305
0,275175	-0,947558	9,729217	2020-10-13T23:03:17:329
0,330210	-0,923629	9,700503	2020-10-13T23:03:17:345
0,318245	-0,918844	9,762716	2020-10-13T23:03:17:368
0,339781	-0,945165	9,726824	2020-10-13T23:03:17:386
0,258425	-0,868595	9,695717	2020-10-13T23:03:17:410
0,358923	-0,978664	9,674182	2020-10-13T23:03:17:427
0,294317	-0,988236	9,695717	2020-10-13T23:03:17:448
0,313460	-1,019342	9,635897	2020-10-13T23:03:17:467
0,265603	-0,952343	9,755538	2020-10-13T23:03:17:489
0,299103	-0,868595	9,678967	2020-10-13T23:03:17:506
0,337388	-0,875773	9,702895	2020-10-13T23:03:17:531
0,313460	-1,002593	9,659825	2020-10-13T23:03:17:546
0,303888	-0,930808	9,741181	2020-10-13T23:03:17:569
0,325424	-1,019342	9,726824	2020-10-13T23:03:17:587
0,323031	-0,859023	9,741181	2020-10-13T23:03:17:608
0,296710	-0,906880	9,686146	2020-10-13T23:03:17:628
0,330210	-0,969093	9,729217	2020-10-13T23:03:17:649
0,311067	-0,954736	9,750752	2020-10-13T23:03:17:666
0,248854	-0,890130	9,714860	2020-10-13T23:03:17:688
0,267996	-0,947558	9,676575	2020-10-13T23:03:17:706
0,294317	-0,981057	9,710074	2020-10-13T23:03:17:729
0,334995	-0,981057	9,688539	2020-10-13T23:03:17:747
0,308674	-0,942772	9,712467	2020-10-13T23:03:17:770
0,308674	-0,933201	9,722038	2020-10-13T23:03:17:786
0,222532	-0,959522	9,753145	2020-10-13T23:03:17:809
0,294317	-0,904487	9,745967	2020-10-13T23:03:17:827
0,272782	-0,887737	9,719646	2020-10-13T23:03:17:848
0,239282	-0,990629	9,760324	2020-10-13T23:03:17:867
0,275175	-0,940379	9,702895	2020-10-13T23:03:17:889
0,334995	-0,935594	9,693325	2020-10-13T23:03:17:906
0,267996	-0,954736	9,698111	2020-10-13T23:03:17:928
0,323031	-0,988236	9,667004	2020-10-13T23:03:17:948
0,299103	-0,928415	9,693325	2020-10-13T23:03:17:970
0,313460	-0,971486	9,705289	2020-10-13T23:03:17:986
0,289532	-1,004985	9,722038	2020-10-13T23:03:18:010
0,325424	-0,959522	9,741181	2020-10-13T23:03:18:027
0,315853	-1,004985	9,743573	2020-10-13T23:03:18:050
0,258425	-0,997807	9,678967	2020-10-13T23:03:18:068
0,279960	-0,959522	9,710074	2020-10-13T23:03:18:092
0,234497	-0,966700	9,714860	2020-10-13T23:03:18:107
0,315853	-0,937986	9,702895	2020-10-13T23:03:18:130
0,267996	-0,928415	9,683753	2020-10-13T23:03:18:147
0,210568	-0,993021	9,688539	2020-10-13T23:03:18:169
0,208176	-1,000200	9,726824	2020-10-13T23:03:18:188
0,282353	-0,990629	9,659825	2020-10-13T23:03:18:209
0,222532	-0,971486	9,695717	2020-10-13T23:03:18:227
0,284746	-1,002593	9,664611	2020-10-13T23:03:18:251
0,299103	-1,028914	9,731609	2020-10-13T23:03:18:267
0,215354	-1,016950	9,707682	2020-10-13T23:03:18:289
0,265603	-0,964308	9,683753	2020-10-13T23:03:18:307
0,272782	-0,918844	9,700503	2020-10-13T23:03:18:329
0,301496	-0,978664	9,678967	2020-10-13T23:03:18:348
0,323031	-1,000200	9,731609	2020-10-13T23:03:18:371
0,303888	-0,935594	9,681360	2020-10-13T23:03:18:387
0,313460	-0,993021	9,690931	2020-10-13T23:03:18:408
0,236889	-1,055235	9,717253	2020-10-13T23:03:18:428
0,323031	-0,981057	9,695717	2020-10-13T23:03:18:450
0,311067	-0,969093	9,683753	2020-10-13T23:03:18:467
0,267996	-0,926022	9,707682	2020-10-13T23:03:18:491
0,296710	-1,088734	9,712467	2020-10-13T23:03:18:507
0,236889	-1,028914	9,722038	2020-10-13T23:03:18:529
0,275175	-0,976272	9,659825	2020-10-13T23:03:18:548
0,234497	-0,981057	9,700503	2020-10-13T23:03:18:569
0,291924	-0,976272	9,676575	2020-10-13T23:03:18:587
0,291924	-1,024128	9,722038	2020-10-13T23:03:18:610
0,275175	-1,004985	9,700503	2020-10-13T23:03:18:627
0,270389	-1,002593	9,702895	2020-10-13T23:03:18:649
0,263210	-1,071985	9,738789	2020-10-13T23:03:18:668
0,265603	-1,009771	9,700503	2020-10-13T23:03:18:700
0,272782	-1,055235	9,652647	2020-10-13T23:03:18:707
0,215354	-0,993021	9,698111	2020-10-13T23:03:18:732
0,308674	-0,973879	9,674182	2020-10-13T23:03:18:747
0,303888	-0,993021	9,690931	2020-10-13T23:03:18:770
0,265603	-0,961915	9,717253	2020-10-13T23:03:18:787
0,229711	-1,033699	9,683753	2020-10-13T23:03:18:809
0,260818	-1,060020	9,767502	2020-10-13T23:03:18:827
0,260818	-1,019342	9,710074	2020-10-13T23:03:18:850
0,289532	-0,961915	9,724431	2020-10-13T23:03:18:868
0,296710	-0,966700	9,702895	2020-10-13T23:03:18:889
0,301496	-0,959522	9,698111	2020-10-13T23:03:18:907
0,265603	-0,988236	9,676575	2020-10-13T23:03:18:930
0,241675	-0,954736	9,714860	2020-10-13T23:03:18:948
0,265603	-1,045663	9,669396	2020-10-13T23:03:18:971
0,251246	-1,021735	9,712467	2020-10-13T23:03:18:988
0,270389	-1,024128	9,738789	2020-10-13T23:03:19:010
0,299103	-1,026521	9,688539	2020-10-13T23:03:19:028
0,289532	-0,995414	9,707682	2020-10-13T23:03:19:049
0,294317	-1,014557	9,738789	2020-10-13T23:03:19:069
0,272782	-1,031307	9,731609	2020-10-13T23:03:19:090
0,263210	-1,016950	9,700503	2020-10-13T23:03:19:108
0,382852	-0,997807	9,698111	2020-10-13T23:03:19:129
0,215354	-0,959522	9,698111	2020-10-13T23:03:19:149
0,287139	-0,961915	9,722038	2020-10-13T23:03:19:170
0,284746	-0,945165	9,734003	2020-10-13T23:03:19:188
0,248854	-0,981057	9,707682	2020-10-13T23:03:19:212
0,275175	-1,016950	9,695717	2020-10-13T23:03:19:228
0,263210	-0,978664	9,664611	2020-10-13T23:03:19:250
0,220140	-0,990629	9,714860	2020-10-13T23:03:19:269
0,325424	-1,000200	9,710074	2020-10-13T23:03:19:289
0,320638	-1,007378	9,743573	2020-10-13T23:03:19:308
0,260818	-1,036092	9,690931	2020-10-13T23:03:19:331
0,239282	-0,966700	9,686146	2020-10-13T23:03:19:348
0,279960	-1,012164	9,753145	2020-10-13T23:03:19:370
0,244068	-0,966700	9,678967	2020-10-13T23:03:19:388
0,306281	-1,014557	9,681360	2020-10-13T23:03:19:410
0,260818	-1,043271	9,714860	2020-10-13T23:03:19:428
0,289532	-1,124627	9,705289	2020-10-13T23:03:19:451
0,308674	-0,947558	9,688539	2020-10-13T23:03:19:469
0,234497	-1,000200	9,700503	2020-10-13T23:03:19:490
0,320638	-1,071985	9,688539	2020-10-13T23:03:19:508
0,325424	-0,959522	9,750752	2020-10-13T23:03:19:530
0,287139	-1,026521	9,690931	2020-10-13T23:03:19:548
0,248854	-0,969093	9,765109	2020-10-13T23:03:19:571
0,260818	-1,083949	9,676575	2020-10-13T23:03:19:588
0,313460	-1,007378	9,676575	2020-10-13T23:03:19:610
0,236889	-1,004985	9,690931	2020-10-13T23:03:19:629
0,299103	-1,060020	9,669396	2020-10-13T23:03:19:651
0,346959	-1,086342	9,683753	2020-10-13T23:03:19:669
0,320638	-1,007378	9,748360	2020-10-13T23:03:19:691
0,229711	-0,930808	9,726824	2020-10-13T23:03:19:709
0,318245	-1,057628	9,671788	2020-10-13T23:03:19:732
0,258425	-1,021735	9,707682	2020-10-13T23:03:19:748
0,260818	-1,095913	9,729217	2020-10-13T23:03:19:770
0,239282	-1,043271	9,695717	2020-10-13T23:03:19:788
0,267996	-0,969093	9,745967	2020-10-13T23:03:19:811
0,287139	-1,050449	9,726824	2020-10-13T23:03:19:828
0,320638	-1,038485	9,714860	2020-10-13T23:03:19:850
0,313460	-1,028914	9,729217	2020-10-13T23:03:19:869
0,220140	-0,937986	9,676575	2020-10-13T23:03:19:891
0,248854	-1,055235	9,676575	2020-10-13T23:03:19:909
0,291924	-1,083949	9,657433	2020-10-13T23:03:19:933
0,241675	-1,110270	9,722038	2020-10-13T23:03:19:949
0,282353	-1,021735	9,693325	2020-10-13T23:03:19:972
0,282353	-0,976272	9,690931	2020-10-13T23:03:19:989
0,275175	-1,036092	9,734003	2020-10-13T23:03:20:010
0,217747	-0,976272	9,705289	2020-10-13T23:03:20:029
0,277567	-1,033699	9,676575	2020-10-13T23:03:20:052
0,289532	-1,036092	9,762716	2020-10-13T23:03:20:070
0,234497	-0,995414	9,693325	2020-10-13T23:03:20:090
0,212961	-1,009771	9,698111	2020-10-13T23:03:20:109
0,334995	-1,093520	9,695717	2020-10-13T23:03:20:131
0,272782	-1,016950	9,722038	2020-10-13T23:03:20:149
0,275175	-1,009771	9,743573	2020-10-13T23:03:20:172
0,303888	-1,002593	9,707682	2020-10-13T23:03:20:189
0,351745	-1,048056	9,736395	2020-10-13T23:03:20:211
0,256032	-1,060020	9,722038	2020-10-13T23:03:20:229
0,258425	-1,057628	9,738789	2020-10-13T23:03:20:250
0,325424	-0,959522	9,774680	2020-10-13T23:03:20:269
0,258425	-0,993021	9,700503	2020-10-13T23:03:20:292
0,323031	-1,064806	9,693325	2020-10-13T23:03:20:309
0,378066	-1,024128	9,669396	2020-10-13T23:03:20:330
0,311067	-0,993021	9,698111	2020-10-13T23:03:20:349
0,275175	-0,906880	9,681360	2020-10-13T23:03:20:372
0,251246	-0,983450	9,745967	2020-10-13T23:03:20:389
0,248854	-0,988236	9,772287	2020-10-13T23:03:20:414
0,263210	-1,062413	9,705289	2020-10-13T23:03:20:429
0,289532	-1,071985	9,702895	2020-10-13T23:03:20:452
0,320638	-0,997807	9,750752	2020-10-13T23:03:20:469
0,279960	-1,012164	9,769895	2020-10-13T23:03:20:491
0,208176	-0,997807	9,669396	2020-10-13T23:03:20:509
0,339781	-1,004985	9,676575	2020-10-13T23:03:20:532
0,260818	-1,040878	9,731609	2020-10-13T23:03:20:549
0,272782	-1,048056	9,700503	2020-10-13T23:03:20:571
0,275175	-1,028914	9,669396	2020-10-13T23:03:20:589
0,332602	-0,959522	9,702895	2020-10-13T23:03:20:612
0,327817	-0,990629	9,738789	2020-10-13T23:03:20:629
0,311067	-1,019342	9,702895	2020-10-13T23:03:20:652
0,253639	-0,926022	9,695717	2020-10-13T23:03:20:670
0,320638	-1,062413	9,690931	2020-10-13T23:03:20:693
0,366102	-0,995414	9,657433	2020-10-13T23:03:20:710
0,373280	-1,091127	9,705289	2020-10-13T23:03:20:731
0,241675	-0,964308	9,693325	2020-10-13T23:03:20:750
0,272782	-1,069592	9,710074	2020-10-13T23:03:20:772
0,267996	-1,028914	9,693325	2020-10-13T23:03:20:790
0,344566	-1,002593	9,712467	2020-10-13T23:03:20:811
0,301496	-1,050449	9,652647	2020-10-13T23:03:20:829
0,311067	-0,990629	9,769895	2020-10-13T23:03:20:852
0,258425	-1,031307	9,667004	2020-10-13T23:03:20:870
0,284746	-1,040878	9,707682	2020-10-13T23:03:20:893
0,320638	-0,985843	9,741181	2020-10-13T23:03:20:910
0,241675	-1,074377	9,645468	2020-10-13T23:03:20:932
0,318245	-1,024128	9,705289	2020-10-13T23:03:20:950
0,277567	-1,083949	9,729217	2020-10-13T23:03:20:972
0,248854	-1,009771	9,738789	2020-10-13T23:03:20:990
0,275175	-0,971486	9,722038	2020-10-13T23:03:21:012
0,289532	-1,028914	9,736395	2020-10-13T23:03:21:030
0,270389	-1,014557	9,717253	2020-10-13T23:03:21:051
0,320638	-1,014557	9,690931	2020-10-13T23:03:21:070
0,275175	-1,122234	9,686146	2020-10-13T23:03:21:092
0,289532	-1,004985	9,695717	2020-10-13T23:03:21:110
0,256032	-1,040878	9,729217	2020-10-13T23:03:21:132
0,265603	-0,942772	9,686146	2020-10-13T23:03:21:149
0,282353	-1,043271	9,757930	2020-10-13T23:03:21:173
0,256032	-1,093520	9,695717	2020-10-13T23:03:21:190
0,289532	-1,004985	9,743573	2020-10-13T23:03:21:212
0,267996	-1,028914	9,674182	2020-10-13T23:03:21:230
0,251246	-1,045663	9,674182	2020-10-13T23:03:21:253
0,332602	-1,067199	9,681360	2020-10-13T23:03:21:271
0,284746	-1,024128	9,755538	2020-10-13T23:03:21:292
0,222532	-1,016950	9,683753	2020-10-13T23:03:21:310
0,313460	-1,055235	9,667004	2020-10-13T23:03:21:333
0,265603	-1,036092	9,729217	2020-10-13T23:03:21:350
0,181855	-1,000200	9,700503	2020-10-13T23:03:21:374
0,272782	-1,136591	9,676575	2020-10-13T23:03:21:389
0,318245	-1,098306	9,657433	2020-10-13T23:03:21:412
0,311067	-1,076770	9,674182	2020-10-13T23:03:21:431
0,325424	-1,069592	9,717253	2020-10-13T23:03:21:451
0,303888	-1,079163	9,719646	2020-10-13T23:03:21:470
0,232104	-1,060020	9,683753	2020-10-13T23:03:21:493
0,234497	-1,076770	9,741181	2020-10-13T23:03:21:510
0,323031	-1,040878	9,757930	2020-10-13T23:03:21:531
0,248854	-1,043271	9,693325	2020-10-13T23:03:21:550
0,287139	-1,060020	9,681360	2020-10-13T23:03:21:574
0,282353	-1,016950	9,731609	2020-10-13T23:03:21:590
0,246461	-1,045663	9,678967	2020-10-13T23:03:21:614
0,244068	-1,136591	9,683753	2020-10-13T23:03:21:630
0,220140	-1,069592	9,669396	2020-10-13T23:03:21:652
0,320638	-1,057628	9,671788	2020-10-13T23:03:21:671
0,246461	-1,074377	9,702895	2020-10-13T23:03:21:691
0,215354	-1,095913	9,690931	2020-10-13T23:03:21:710
0,342174	-1,134198	9,731609	2020-10-13T23:03:21:733
0,330210	-1,028914	9,707682	2020-10-13T23:03:21:751
0,279960	-1,110270	9,690931	2020-10-13T23:03:21:772
0,244068	-1,081556	9,626326	2020-10-13T23:03:21:790
0,224925	-1,083949	9,662218	2020-10-13T23:03:21:813
0,291924	-1,098306	9,667004	2020-10-13T23:03:21:830
0,246461	-1,081556	9,738789	2020-10-13T23:03:21:854
0,224925	-1,107877	9,667004	2020-10-13T23:03:21:871
0,263210	-1,081556	9,712467	2020-10-13T23:03:21:893
0,318245	-1,050449	9,686146	2020-10-13T23:03:21:911
0,287139	-1,021735	9,722038	2020-10-13T23:03:21:932
0,325424	-1,002593	9,748360	2020-10-13T23:03:21:950
0,224925	-1,076770	9,690931	2020-10-13T23:03:21:974
0,232104	-1,062413	9,683753	2020-10-13T23:03:21:990
0,299103	-1,055235	9,741181	2020-10-13T23:03:22:012
0,189033	-1,050449	9,724431	2020-10-13T23:03:22:030
0,256032	-1,088734	9,664611	2020-10-13T23:03:22:053
0,337388	-1,031307	9,726824	2020-10-13T23:03:22:072
0,315853	-1,076770	9,714860	2020-10-13T23:03:22:095
0,289532	-1,060020	9,710074	2020-10-13T23:03:22:110
0,311067	-1,103091	9,690931	2020-10-13T23:03:22:133
0,284746	-1,079163	9,676575	2020-10-13T23:03:22:151
0,284746	-1,060020	9,717253	2020-10-13T23:03:22:173
0,277567	-1,071985	9,652647	2020-10-13T23:03:22:201
0,265603	-1,004985	9,681360	2020-10-13T23:03:22:214
0,248854	-0,995414	9,688539	2020-10-13T23:03:22:231
0,330210	-1,012164	9,705289	2020-10-13T23:03:22:252
0,270389	-1,004985	9,702895	2020-10-13T23:03:22:271
0,318245	-1,086342	9,669396	2020-10-13T23:03:22:293
0,282353	-1,036092	9,695717	2020-10-13T23:03:22:312
0,239282	-1,081556	9,726824	2020-10-13T23:03:22:335
0,248854	-1,057628	9,686146	2020-10-13T23:03:22:351
0,339781	-1,004985	9,698111	2020-10-13T23:03:22:374
0,267996	-1,060020	9,724431	2020-10-13T23:03:22:391
0,184247	-1,014557	9,693325	2020-10-13T23:03:22:413
0,323031	-1,036092	9,707682	2020-10-13T23:03:22:431
0,277567	-1,100698	9,688539	2020-10-13T23:03:22:454
0,320638	-1,079163	9,674182	2020-10-13T23:03:22:472
0,234497	-1,031307	9,722038	2020-10-13T23:03:22:493
0,234497	-1,019342	9,705289	2020-10-13T23:03:22:512
0,294317	-1,076770	9,729217	2020-10-13T23:03:22:534
0,279960	-1,074377	9,693325	2020-10-13T23:03:22:551
0,256032	-1,045663	9,714860	2020-10-13T23:03:22:575
0,294317	-1,014557	9,712467	2020-10-13T23:03:22:592
0,220140	-1,079163	9,655040	2020-10-13T23:03:22:614
0,296710	-1,112662	9,681360	2020-10-13T23:03:22:631
0,325424	-1,064806	9,693325	2020-10-13T23:03:22:653
0,282353	-1,019342	9,664611	2020-10-13T23:03:22:671
0,241675	-1,060020	9,700503	2020-10-13T23:03:22:694
0,239282	-0,969093	9,690931	2020-10-13T23:03:22:711
0,301496	-1,016950	9,693325	2020-10-13T23:03:22:733
0,208176	-1,004985	9,745967	2020-10-13T23:03:22:751
0,277567	-1,024128	9,743573	2020-10-13T23:03:22:774
0,337388	-1,040878	9,717253	2020-10-13T23:03:22:791
0,308674	-1,031307	9,734003	2020-10-13T23:03:22:816
0,339781	-1,007378	9,678967	2020-10-13T23:03:22:832
0,248854	-1,036092	9,695717	2020-10-13T23:03:22:854
0,320638	-1,074377	9,743573	2020-10-13T23:03:22:872
0,320638	-1,086342	9,710074	2020-10-13T23:03:22:893
0,320638	-1,004985	9,734003	2020-10-13T23:03:22:911
0,241675	-1,055235	9,714860	2020-10-13T23:03:22:935
0,210568	-1,093520	9,714860	2020-10-13T23:03:22:952
0,306281	-1,062413	9,655040	2020-10-13T23:03:22:973
0,265603	-1,055235	9,690931	2020-10-13T23:03:22:992
0,323031	-0,997807	9,698111	2020-10-13T23:03:23:014
0,303888	-1,083949	9,736395	2020-10-13T23:03:23:033
0,251246	-0,978664	9,736395	2020-10-13T23:03:23:056
0,217747	-0,976272	9,671788	2020-10-13T23:03:23:072
0,198604	-1,000200	9,657433	2020-10-13T23:03:23:094
0,327817	-1,062413	9,681360	2020-10-13T23:03:23:113
0,253639	-1,052842	9,690931	2020-10-13T23:03:23:133
0,277567	-1,019342	9,717253	2020-10-13T23:03:23:152
0,306281	-1,026521	9,722038	2020-10-13T23:03:23:175
0,270389	-1,071985	9,655040	2020-10-13T23:03:23:192
0,265603	-1,052842	9,710074	2020-10-13T23:03:23:213
0,263210	-1,012164	9,695717	2020-10-13T23:03:23:232
0,284746	-1,064806	9,695717	2020-10-13T23:03:23:255
0,267996	-1,119841	9,662218	2020-10-13T23:03:23:272
0,258425	-0,971486	9,710074	2020-10-13T23:03:23:295
0,284746	-1,071985	9,738789	2020-10-13T23:03:23:312
0,267996	-0,985843	9,667004	2020-10-13T23:03:23:334
0,248854	-1,004985	9,714860	2020-10-13T23:03:23:352
0,287139	-1,043271	9,690931	2020-10-13T23:03:23:374
0,263210	-1,074377	9,690931	2020-10-13T23:03:23:392
0,315853	-1,007378	9,743573	2020-10-13T23:03:23:415
0,272782	-1,055235	9,705289	2020-10-13T23:03:23:432
0,210568	-1,088734	9,734003	2020-10-13T23:03:23:453
0,279960	-1,060020	9,731609	2020-10-13T23:03:23:472
0,258425	-1,031307	9,760324	2020-10-13T23:03:23:495
0,287139	-0,978664	9,717253	2020-10-13T23:03:23:512
0,325424	-1,055235	9,702895	2020-10-13T23:03:23:535
0,272782	-1,071985	9,753145	2020-10-13T23:03:23:553
0,203390	-1,012164	9,669396	2020-10-13T23:03:23:575
0,284746	-0,990629	9,729217	2020-10-13T23:03:23:593
0,289532	-0,993021	9,722038	2020-10-13T23:03:23:614
0,289532	-1,069592	9,734003	2020-10-13T23:03:23:632
0,306281	-1,043271	9,669396	2020-10-13T23:03:23:655
0,299103	-1,071985	9,686146	2020-10-13T23:03:23:672
0,332602	-1,036092	9,681360	2020-10-13T23:03:23:694
0,330210	-1,060020	9,681360	2020-10-13T23:03:23:712
0,275175	-1,038485	9,714860	2020-10-13T23:03:23:735
0,284746	-1,062413	9,724431	2020-10-13T23:03:23:758
0,227318	-1,040878	9,702895	2020-10-13T23:03:23:778
0,282353	-1,098306	9,669396	2020-10-13T23:03:23:793
0,299103	-1,110270	9,693325	2020-10-13T23:03:23:815
0,275175	-1,107877	9,729217	2020-10-13T23:03:23:832
0,325424	-1,002593	9,717253	2020-10-13T23:03:23:854
0,303888	-0,947558	9,741181	2020-10-13T23:03:23:873
0,287139	-0,966700	9,707682	2020-10-13T23:03:23:895
0,246461	-1,127020	9,717253	2020-10-13T23:03:23:912
0,318245	-1,038485	9,669396	2020-10-13T23:03:23:934
0,282353	-1,060020	9,659825	2020-10-13T23:03:23:952
0,251246	-1,048056	9,719646	2020-10-13T23:03:23:976
0,234497	-1,004985	9,695717	2020-10-13T23:03:23:993
0,267996	-0,961915	9,669396	2020-10-13T23:03:24:017
0,334995	-1,038485	9,645468	2020-10-13T23:03:24:033
0,308674	-1,028914	9,678967	2020-10-13T23:03:24:055
0,277567	-1,036092	9,738789	2020-10-13T23:03:24:073
0,270389	-1,067199	9,686146	2020-10-13T23:03:24:095
0,370888	-1,086342	9,755538	2020-10-13T23:03:24:113
0,236889	-1,036092	9,738789	2020-10-13T23:03:24:136
0,200997	-1,071985	9,676575	2020-10-13T23:03:24:155
0,270389	-1,105484	9,669396	2020-10-13T23:03:24:175
0,263210	-1,021735	9,698111	2020-10-13T23:03:24:193
0,253639	-0,985843	9,652647	2020-10-13T23:03:24:216
0,272782	-0,985843	9,638289	2020-10-13T23:03:24:231
0,244068	-1,012164	9,757930	2020-10-13T23:03:24:255
0,332602	-1,062413	9,669396	2020-10-13T23:03:24:272
0,220140	-1,012164	9,681360	2020-10-13T23:03:24:294
0,263210	-1,002593	9,722038	2020-10-13T23:03:24:312
0,354138	-1,040878	9,717253	2020-10-13T23:03:24:335
0,337388	-1,083949	9,707682	2020-10-13T23:03:24:352
0,260818	-1,057628	9,714860	2020-10-13T23:03:24:376
0,301496	-0,957129	9,724431	2020-10-13T23:03:24:393
0,260818	-1,055235	9,712467	2020-10-13T23:03:24:414
0,289532	-0,990629	9,707682	2020-10-13T23:03:24:433
0,253639	-1,031307	9,710074	2020-10-13T23:03:24:456
0,251246	-0,988236	9,693325	2020-10-13T23:03:24:474
0,236889	-1,045663	9,734003	2020-10-13T23:03:24:496
0,279960	-1,071985	9,690931	2020-10-13T23:03:24:513
0,315853	-1,016950	9,748360	2020-10-13T23:03:24:535
0,203390	-1,007378	9,722038	2020-10-13T23:03:24:553
0,234497	-1,043271	9,710074	2020-10-13T23:03:24:575
0,277567	-1,031307	9,669396	2020-10-13T23:03:24:594
0,275175	-1,098306	9,734003	2020-10-13T23:03:24:616
0,313460	-1,100698	9,698111	2020-10-13T23:03:24:633
0,294317	-1,083949	9,683753	2020-10-13T23:03:24:654
0,256032	-1,021735	9,702895	2020-10-13T23:03:24:674
0,224925	-1,048056	9,669396	2020-10-13T23:03:24:697
0,342174	-1,031307	9,693325	2020-10-13T23:03:24:713
0,256032	-0,985843	9,769895	2020-10-13T23:03:24:736
0,311067	-1,079163	9,700503	2020-10-13T23:03:24:753
0,215354	-1,050449	9,757930	2020-10-13T23:03:24:776
0,301496	-1,002593	9,667004	2020-10-13T23:03:24:793
0,299103	-1,081556	9,717253	2020-10-13T23:03:24:815
0,308674	-1,060020	9,688539	2020-10-13T23:03:24:833
0,232104	-0,971486	9,710074	2020-10-13T23:03:24:856
0,303888	-0,988236	9,702895	2020-10-13T23:03:24:873
0,222532	-1,060020	9,743573	2020-10-13T23:03:24:895
0,272782	-1,064806	9,659825	2020-10-13T23:03:24:913
0,277567	-1,024128	9,657433	2020-10-13T23:03:24:936
0,282353	-1,052842	9,741181	2020-10-13T23:03:24:953
0,291924	-1,117448	9,705289	2020-10-13T23:03:24:978
0,232104	-1,107877	9,762716	2020-10-13T23:03:24:993
0,251246	-1,002593	9,712467	2020-10-13T23:03:25:016
0,208176	-1,076770	9,686146	2020-10-13T23:03:25:034
0,260818	-1,067199	9,781858	2020-10-13T23:03:25:055
0,296710	-1,009771	9,674182	2020-10-13T23:03:25:074
0,229711	-1,081556	9,698111	2020-10-13T23:03:25:096
0,244068	-1,055235	9,678967	2020-10-13T23:03:25:113
0,251246	-1,071985	9,645468	2020-10-13T23:03:25:135
0,361316	-1,057628	9,750752	2020-10-13T23:03:25:154
0,303888	-1,040878	9,657433	2020-10-13T23:03:25:178
0,299103	-1,083949	9,667004	2020-10-13T23:03:25:193
0,263210	-1,143769	9,667004	2020-10-13T23:03:25:218
0,315853	-1,095913	9,712467	2020-10-13T23:03:25:234
0,277567	-1,007378	9,698111	2020-10-13T23:03:25:256
0,258425	-1,067199	9,678967	2020-10-13T23:03:25:275
0,279960	-1,062413	9,702895	2020-10-13T23:03:25:295
0,239282	-1,141376	9,693325	2020-10-13T23:03:25:313
0,260818	-1,138984	9,688539	2020-10-13T23:03:25:336
0,239282	-1,103091	9,707682	2020-10-13T23:03:25:354
0,306281	-1,107877	9,693325	2020-10-13T23:03:25:376
0,346959	-1,136591	9,738789	2020-10-13T23:03:25:394
0,308674	-1,112662	9,698111	2020-10-13T23:03:25:416
0,253639	-1,091127	9,726824	2020-10-13T23:03:25:434
0,222532	-1,115055	9,698111	2020-10-13T23:03:25:456
0,234497	-1,091127	9,688539	2020-10-13T23:03:25:473
0,244068	-1,079163	9,667004	2020-10-13T23:03:25:496
0,299103	-1,069592	9,702895	2020-10-13T23:03:25:514
0,291924	-1,122234	9,688539	2020-10-13T23:03:25:535
0,332602	-1,050449	9,765109	2020-10-13T23:03:25:553
0,272782	-1,115055	9,779467	2020-10-13T23:03:25:577
0,296710	-1,122234	9,643075	2020-10-13T23:03:25:593
0,306281	-1,119841	9,690931	2020-10-13T23:03:25:616
0,272782	-1,052842	9,657433	2020-10-13T23:03:25:633
0,299103	-1,048056	9,719646	2020-10-13T23:03:25:657
0,246461	-1,093520	9,724431	2020-10-13T23:03:25:676
0,308674	-1,110270	9,698111	2020-10-13T23:03:25:698
0,232104	-1,127020	9,664611	2020-10-13T23:03:25:714
0,248854	-1,060020	9,722038	2020-10-13T23:03:25:737
0,346959	-1,069592	9,726824	2020-10-13T23:03:25:755
0,282353	-1,024128	9,702895	2020-10-13T23:03:25:776
0,330210	-1,088734	9,731609	2020-10-13T23:03:25:794
0,287139	-1,143769	9,688539	2020-10-13T23:03:25:818
0,263210	-1,014557	9,647861	2020-10-13T23:03:25:835
0,232104	-1,141376	9,662218	2020-10-13T23:03:25:856
0,284746	-1,050449	9,693325	2020-10-13T23:03:25:874
0,241675	-1,031307	9,667004	2020-10-13T23:03:25:897
0,284746	-1,081556	9,738789	2020-10-13T23:03:25:915
0,315853	-1,033699	9,693325	2020-10-13T23:03:25:937
0,311067	-1,122234	9,683753	2020-10-13T23:03:25:954
0,327817	-1,146162	9,674182	2020-10-13T23:03:25:977
0,277567	-0,990629	9,621540	2020-10-13T23:03:25:994
0,253639	-1,167697	9,674182	2020-10-13T23:03:26:016
0,318245	-1,098306	9,734003	2020-10-13T23:03:26:034
0,248854	-1,074377	9,738789	2020-10-13T23:03:26:057
0,327817	-1,081556	9,729217	2020-10-13T23:03:26:074
0,275175	-1,036092	9,714860	2020-10-13T23:03:26:096
0,301496	-1,052842	9,757930	2020-10-13T23:03:26:114
0,339781	-1,095913	9,743573	2020-10-13T23:03:26:137
0,320638	-1,014557	9,693325	2020-10-13T23:03:26:154
0,279960	-1,110270	9,710074	2020-10-13T23:03:26:178
0,251246	-1,105484	9,664611	2020-10-13T23:03:26:194
0,323031	-1,105484	9,719646	2020-10-13T23:03:26:217
0,260818	-1,055235	9,753145	2020-10-13T23:03:26:234
0,215354	-1,057628	9,741181	2020-10-13T23:03:26:256
0,277567	-1,062413	9,734003	2020-10-13T23:03:26:275
0,313460	-1,031307	9,729217	2020-10-13T23:03:26:297
0,239282	-1,004985	9,722038	2020-10-13T23:03:26:315
0,253639	-1,055235	9,741181	2020-10-13T23:03:26:336
0,229711	-1,095913	9,705289	2020-10-13T23:03:26:355
0,282353	-1,105484	9,647861	2020-10-13T23:03:26:378
0,366102	-0,983450	9,683753	2020-10-13T23:03:26:394
0,203390	-0,976272	9,801002	2020-10-13T23:03:26:417
0,265603	-1,162912	9,753145	2020-10-13T23:03:26:435
0,325424	-1,033699	9,669396	2020-10-13T23:03:26:457
0,279960	-1,014557	9,669396	2020-10-13T23:03:26:475
0,291924	-1,105484	9,686146	2020-10-13T23:03:26:496
0,311067	-1,083949	9,705289	2020-10-13T23:03:26:515
0,315853	-1,110270	9,738789	2020-10-13T23:03:26:537
0,248854	-1,086342	9,690931	2020-10-13T23:03:26:555
0,253639	-1,009771	9,693325	2020-10-13T23:03:26:577
0,270389	-0,990629	9,690931	2020-10-13T23:03:26:595
0,287139	-1,050449	9,702895	2020-10-13T23:03:26:618
0,227318	-0,997807	9,726824	2020-10-13T23:03:26:635
0,246461	-1,083949	9,702895	2020-10-13T23:03:26:658
0,267996	-1,048056	9,724431	2020-10-13T23:03:26:675
0,299103	-1,076770	9,724431	2020-10-13T23:03:26:697
0,260818	-1,098306	9,686146	2020-10-13T23:03:26:715
0,267996	-1,105484	9,678967	2020-10-13T23:03:26:737
0,303888	-1,048056	9,683753	2020-10-13T23:03:26:755
0,267996	-1,076770	9,671788	2020-10-13T23:03:26:778
0,260818	-1,057628	9,753145	2020-10-13T23:03:26:795
0,265603	-1,129412	9,712467	2020-10-13T23:03:26:817
0,320638	-1,076770	9,690931	2020-10-13T23:03:26:835
0,263210	-0,995414	9,731609	2020-10-13T23:03:26:858
0,246461	-1,028914	9,750752	2020-10-13T23:03:26:876
0,301496	-1,098306	9,681360	2020-10-13T23:03:26:898
0,256032	-1,002593	9,669396	2020-10-13T23:03:26:915
0,270389	-1,016950	9,676575	2020-10-13T23:03:26:938
0,239282	-0,973879	9,745967	2020-10-13T23:03:26:956
0,291924	-1,081556	9,717253	2020-10-13T23:03:26:978
0,272782	-1,105484	9,745967	2020-10-13T23:03:26:996
0,323031	-1,026521	9,686146	2020-10-13T23:03:27:018
0,323031	-1,122234	9,667004	2020-10-13T23:03:27:035
0,291924	-1,050449	9,729217	2020-10-13T23:03:27:057
0,241675	-1,081556	9,753145	2020-10-13T23:03:27:076
0,299103	-1,038485	9,688539	2020-10-13T23:03:27:098
0,275175	-0,952343	9,693325	2020-10-13T23:03:27:115
0,258425	-1,093520	9,729217	2020-10-13T23:03:27:139
0,330210	-1,107877	9,702895	2020-10-13T23:03:27:155
0,296710	-1,110270	9,676575	2020-10-13T23:03:27:178
0,279960	-1,014557	9,743573	2020-10-13T23:03:27:196
0,267996	-1,016950	9,731609	2020-10-13T23:03:27:217
0,334995	-0,993021	9,714860	2020-10-13T23:03:27:236
0,311067	-0,997807	9,674182	2020-10-13T23:03:27:258
0,330210	-1,069592	9,722038	2020-10-13T23:03:27:276
0,272782	-1,076770	9,674182	2020-10-13T23:03:27:297
0,327817	-1,031307	9,714860	2020-10-13T23:03:27:316
0,263210	-1,076770	9,671788	2020-10-13T23:03:27:338
0,279960	-1,031307	9,714860	2020-10-13T23:03:27:356
0,234497	-1,004985	9,729217	2020-10-13T23:03:27:379
0,270389	-1,012164	9,683753	2020-10-13T23:03:27:396
0,279960	-1,045663	9,678967	2020-10-13T23:03:27:418
0,301496	-1,060020	9,712467	2020-10-13T23:03:27:436
0,344566	-1,028914	9,645468	2020-10-13T23:03:27:457
0,303888	-1,021735	9,705289	2020-10-13T23:03:27:476
0,351745	-1,043271	9,722038	2020-10-13T23:03:27:498
0,289532	-1,074377	9,710074	2020-10-13T23:03:27:516
0,277567	-1,004985	9,678967	2020-10-13T23:03:27:537
0,320638	-1,083949	9,669396	2020-10-13T23:03:27:556
0,217747	-1,028914	9,688539	2020-10-13T23:03:27:579
0,306281	-1,014557	9,667004	2020-10-13T23:03:27:596
0,277567	-1,026521	9,674182	2020-10-13T23:03:27:619
0,330210	-1,076770	9,722038	2020-10-13T23:03:27:636
0,258425	-1,014557	9,724431	2020-10-13T23:03:27:658
0,272782	-1,036092	9,707682	2020-10-13T23:03:27:677
0,267996	-1,021735	9,698111	2020-10-13T23:03:27:697
0,270389	-1,095913	9,671788	2020-10-13T23:03:27:716
0,272782	-1,074377	9,705289	2020-10-13T23:03:27:739
0,291924	-1,043271	9,683753	2020-10-13T23:03:27:756
0,236889	-0,971486	9,750752	2020-10-13T23:03:27:778
0,253639	-1,088734	9,753145	2020-10-13T23:03:27:796
0,244068	-1,093520	9,698111	2020-10-13T23:03:27:818
0,351745	-1,021735	9,705289	2020-10-13T23:03:27:836
0,244068	-1,112662	9,688539	2020-10-13T23:03:27:859
0,287139	-1,091127	9,638289	2020-10-13T23:03:27:877
0,217747	-1,071985	9,662218	2020-10-13T23:03:27:899
0,251246	-1,081556	9,722038	2020-10-13T23:03:27:917
0,256032	-1,062413	9,683753	2020-10-13T23:03:27:938
0,303888	-1,076770	9,698111	2020-10-13T23:03:27:956
0,229711	-1,127020	9,743573	2020-10-13T23:03:27:981
0,313460	-1,086342	9,714860	2020-10-13T23:03:27:996
0,272782	-1,107877	9,676575	2020-10-13T23:03:28:018
