x	y	z	ts
0,265531	-0,654172	9,781203	2020-10-13T23:02:42:123
0,263977	-0,652672	9,781345	2020-10-13T23:02:42:123
0,278122	-0,670877	9,779721	2020-10-13T23:02:42:123
0,275437	-0,668396	9,779967	2020-10-13T23:02:42:124
0,273197	-0,663167	9,780386	2020-10-13T23:02:42:124
0,271729	-0,661369	9,780549	2020-10-13T23:02:42:125
0,272243	-0,662908	9,780431	2020-10-13T23:02:42:125
0,271817	-0,662172	9,780492	2020-10-13T23:02:42:125
0,275108	-0,665360	9,780184	2020-10-13T23:02:42:126
0,280921	-0,666141	9,779965	2020-10-13T23:02:42:126
0,280799	-0,666244	9,779962	2020-10-13T23:02:42:133
0,280544	-0,666458	9,779955	2020-10-13T23:02:42:133
0,280770	-0,668097	9,779837	2020-10-13T23:02:42:134
0,277729	-0,668674	9,779883	2020-10-13T23:02:42:151
0,218784	-0,610672	9,785172	2020-10-13T23:02:42:170
0,222122	-0,612790	9,784965	2020-10-13T23:02:42:191
0,322883	-0,661067	9,779015	2020-10-13T23:02:42:212
0,249868	-0,699151	9,778503	2020-10-13T23:02:42:230
0,249578	-0,692461	9,778987	2020-10-13T23:02:42:250
0,251027	-0,692217	9,778968	2020-10-13T23:02:42:271
0,252834	-0,692571	9,778896	2020-10-13T23:02:42:290
0,255776	-0,691609	9,778888	2020-10-13T23:02:42:311
0,256998	-0,689492	9,779005	2020-10-13T23:02:42:331
0,255824	-0,688404	9,779112	2020-10-13T23:02:42:350
0,257353	-0,689056	9,779026	2020-10-13T23:02:42:370
0,260511	-0,688978	9,778948	2020-10-13T23:02:42:391
0,261113	-0,689662	9,778884	2020-10-13T23:02:42:410
0,261842	-0,693693	9,778580	2020-10-13T23:02:42:431
0,247540	-0,730451	9,776275	2020-10-13T23:02:42:452
0,312916	-0,722114	9,775021	2020-10-13T23:02:42:471
0,311683	-0,719257	9,775270	2020-10-13T23:02:42:490
0,309494	-0,718930	9,775364	2020-10-13T23:02:42:511
0,307476	-0,720956	9,775278	2020-10-13T23:02:42:531
0,307339	-0,717361	9,775547	2020-10-13T23:02:42:551
0,304450	-0,718429	9,775559	2020-10-13T23:02:42:571
0,303451	-0,719615	9,775503	2020-10-13T23:02:42:591
0,302323	-0,719719	9,775530	2020-10-13T23:02:42:610
0,301252	-0,718185	9,775676	2020-10-13T23:02:42:631
0,303415	-0,718090	9,775616	2020-10-13T23:02:42:650
0,297336	-0,714739	9,776049	2020-10-13T23:02:42:672
0,296816	-0,711639	9,776291	2020-10-13T23:02:42:691
0,298615	-0,712484	9,776175	2020-10-13T23:02:42:711
0,299185	-0,710518	9,776299	2020-10-13T23:02:42:731
0,298739	-0,711389	9,776250	2020-10-13T23:02:42:751
0,296399	-0,712661	9,776229	2020-10-13T23:02:42:771
0,244169	-0,676677	9,780229	2020-10-13T23:02:42:791
0,267568	-0,744851	9,774660	2020-10-13T23:02:42:811
0,269748	-0,747401	9,774405	2020-10-13T23:02:42:831
0,273587	-0,748741	9,774197	2020-10-13T23:02:42:850
0,273981	-0,747258	9,774300	2020-10-13T23:02:42:872
0,270611	-0,744156	9,774630	2020-10-13T23:02:42:891
0,268985	-0,742331	9,774814	2020-10-13T23:02:42:911
0,270279	-0,739492	9,774993	2020-10-13T23:02:42:932
0,345034	-0,638181	9,779778	2020-10-13T23:02:42:951
0,293744	-0,724730	9,775421	2020-10-13T23:02:42:971
0,291415	-0,724810	9,775485	2020-10-13T23:02:42:992
0,290307	-0,725593	9,775460	2020-10-13T23:02:43:011
0,292352	-0,718705	9,775908	2020-10-13T23:02:43:031
0,289724	-0,709281	9,776674	2020-10-13T23:02:43:051
0,286848	-0,706034	9,776995	2020-10-13T23:02:43:072
0,286965	-0,704307	9,777116	2020-10-13T23:02:43:091
0,287236	-0,702434	9,777243	2020-10-13T23:02:43:111
0,286166	-0,697353	9,777637	2020-10-13T23:02:43:134
0,285963	-0,695821	9,777753	2020-10-13T23:02:43:153
0,282345	-0,692851	9,778069	2020-10-13T23:02:43:179
0,280220	-0,689881	9,778339	2020-10-13T23:02:43:193
0,280304	-0,683750	9,778768	2020-10-13T23:02:43:214
0,281068	-0,683178	9,778786	2020-10-13T23:02:43:233
0,281049	-0,684699	9,778680	2020-10-13T23:02:43:254
0,280023	-0,688014	9,778477	2020-10-13T23:02:43:273
0,280814	-0,688100	9,778448	2020-10-13T23:02:43:294
0,278419	-0,690663	9,778336	2020-10-13T23:02:43:313
0,279550	-0,690958	9,778283	2020-10-13T23:02:43:334
0,279718	-0,692713	9,778153	2020-10-13T23:02:43:353
0,280172	-0,685375	9,778658	2020-10-13T23:02:43:375
0,280242	-0,686843	9,778553	2020-10-13T23:02:43:394
0,280661	-0,690675	9,778271	2020-10-13T23:02:43:415
0,284146	-0,691675	9,778100	2020-10-13T23:02:43:433
0,281851	-0,686815	9,778508	2020-10-13T23:02:43:454
0,277977	-0,684613	9,778774	2020-10-13T23:02:43:474
0,278947	-0,688571	9,778468	2020-10-13T23:02:43:494
0,278678	-0,690259	9,778357	2020-10-13T23:02:43:513
0,332260	-0,684390	9,777096	2020-10-13T23:02:43:535
0,297654	-0,592908	9,784184	2020-10-13T23:02:43:553
0,298324	-0,597409	9,783890	2020-10-13T23:02:43:574
0,298481	-0,606415	9,783331	2020-10-13T23:02:43:593
0,300115	-0,613680	9,782827	2020-10-13T23:02:43:614
0,298580	-0,619165	9,782529	2020-10-13T23:02:43:634
0,295808	-0,620645	9,782519	2020-10-13T23:02:43:655
0,295898	-0,620471	9,782528	2020-10-13T23:02:43:673
0,295788	-0,624750	9,782258	2020-10-13T23:02:43:695
0,297292	-0,628886	9,781948	2020-10-13T23:02:43:714
0,300725	-0,631670	9,781664	2020-10-13T23:02:43:735
0,300048	-0,636010	9,781404	2020-10-13T23:02:43:753
0,300777	-0,640143	9,781111	2020-10-13T23:02:43:775
0,300169	-0,641204	9,781060	2020-10-13T23:02:43:793
0,299891	-0,646867	9,780696	2020-10-13T23:02:43:814
0,298732	-0,649462	9,780560	2020-10-13T23:02:43:834
0,296808	-0,647869	9,780724	2020-10-13T23:02:43:855
0,294162	-0,651191	9,780583	2020-10-13T23:02:43:873
0,295988	-0,656844	9,780149	2020-10-13T23:02:43:896
0,296005	-0,658074	9,780066	2020-10-13T23:02:43:914
0,296096	-0,659498	9,779968	2020-10-13T23:02:43:935
0,295854	-0,661285	9,779855	2020-10-13T23:02:43:954
0,298030	-0,663920	9,779610	2020-10-13T23:02:43:975
0,344885	-0,738369	9,772730	2020-10-13T23:02:43:994
0,307490	-0,694254	9,777210	2020-10-13T23:02:44:015
0,307103	-0,690224	9,777508	2020-10-13T23:02:44:035
0,303687	-0,691418	9,777531	2020-10-13T23:02:44:055
0,304072	-0,692076	9,777472	2020-10-13T23:02:44:075
0,305880	-0,693206	9,777335	2020-10-13T23:02:44:095
0,305524	-0,746438	9,773427	2020-10-13T23:02:44:114
0,257176	-0,773931	9,772680	2020-10-13T23:02:44:137
0,258931	-0,766455	9,773223	2020-10-13T23:02:44:154
0,260903	-0,759494	9,773714	2020-10-13T23:02:44:175
0,261028	-0,754620	9,774088	2020-10-13T23:02:44:194
0,263745	-0,754723	9,774007	2020-10-13T23:02:44:215
0,266218	-0,754273	9,773974	2020-10-13T23:02:44:234
0,265855	-0,752066	9,774155	2020-10-13T23:02:44:255
0,287946	-0,753997	9,773380	2020-10-13T23:02:44:275
0,276862	-0,642801	9,781643	2020-10-13T23:02:44:295
0,277114	-0,641883	9,781696	2020-10-13T23:02:44:315
0,278064	-0,644671	9,781486	2020-10-13T23:02:44:335
0,276622	-0,645667	9,781461	2020-10-13T23:02:44:354
0,212275	-0,687951	9,780187	2020-10-13T23:02:44:378
0,290645	-0,747029	9,773835	2020-10-13T23:02:44:394
0,293001	-0,741433	9,774191	2020-10-13T23:02:44:415
0,290827	-0,737421	9,774560	2020-10-13T23:02:44:435
0,294577	-0,737441	9,774446	2020-10-13T23:02:44:455
0,293049	-0,735737	9,774620	2020-10-13T23:02:44:474
0,292433	-0,732729	9,774864	2020-10-13T23:02:44:496
0,291995	-0,725931	9,775385	2020-10-13T23:02:44:514
0,293821	-0,727098	9,775244	2020-10-13T23:02:44:536
0,300407	-0,819835	9,767702	2020-10-13T23:02:44:555
0,289550	-0,767306	9,772297	2020-10-13T23:02:44:576
0,289081	-0,763889	9,772578	2020-10-13T23:02:44:594
0,286486	-0,759195	9,773021	2020-10-13T23:02:44:616
0,283951	-0,757939	9,773192	2020-10-13T23:02:44:635
0,283550	-0,754964	9,773434	2020-10-13T23:02:44:655
0,285347	-0,752622	9,773562	2020-10-13T23:02:44:675
0,287405	-0,750058	9,773699	2020-10-13T23:02:44:696
0,288465	-0,742440	9,774250	2020-10-13T23:02:44:714
0,288621	-0,739150	9,774494	2020-10-13T23:02:44:736
0,287520	-0,736993	9,774690	2020-10-13T23:02:44:754
0,289872	-0,740725	9,774338	2020-10-13T23:02:44:776
0,290219	-0,737491	9,774572	2020-10-13T23:02:44:795
0,288692	-0,734427	9,774848	2020-10-13T23:02:44:816
0,290904	-0,732723	9,774911	2020-10-13T23:02:44:835
0,291330	-0,731149	9,775016	2020-10-13T23:02:44:857
0,300260	-0,771369	9,771654	2020-10-13T23:02:44:875
0,280880	-0,727408	9,775600	2020-10-13T23:02:44:896
0,280720	-0,727130	9,775626	2020-10-13T23:02:44:915
0,280634	-0,725626	9,775741	2020-10-13T23:02:44:938
0,280557	-0,729276	9,775471	2020-10-13T23:02:44:954
0,279582	-0,730453	9,775411	2020-10-13T23:02:44:976
0,278419	-0,729969	9,775480	2020-10-13T23:02:44:995
0,277128	-0,731236	9,775422	2020-10-13T23:02:45:016
0,278154	-0,730041	9,775482	2020-10-13T23:02:45:035
0,280672	-0,735697	9,774986	2020-10-13T23:02:45:056
0,278113	-0,732525	9,775298	2020-10-13T23:02:45:075
0,277404	-0,722757	9,776045	2020-10-13T23:02:45:097
0,261534	-0,672691	9,780055	2020-10-13T23:02:45:115
0,343855	-0,776678	9,769796	2020-10-13T23:02:45:137
0,344025	-0,778858	9,769617	2020-10-13T23:02:45:155
0,344332	-0,778166	9,769661	2020-10-13T23:02:45:177
0,339541	-0,775904	9,770009	2020-10-13T23:02:45:195
0,338789	-0,774167	9,770172	2020-10-13T23:02:45:217
0,295949	-0,762417	9,772488	2020-10-13T23:02:45:236
0,278945	-0,702172	9,777501	2020-10-13T23:02:45:256
0,281209	-0,702430	9,777418	2020-10-13T23:02:45:276
0,280261	-0,702980	9,777406	2020-10-13T23:02:45:297
0,281542	-0,706598	9,777108	2020-10-13T23:02:45:315
0,284185	-0,709164	9,776846	2020-10-13T23:02:45:340
0,296105	-0,783431	9,770821	2020-10-13T23:02:45:356
0,321032	-0,754664	9,772298	2020-10-13T23:02:45:377
0,325053	-0,758401	9,771875	2020-10-13T23:02:45:396
0,322408	-0,760128	9,771829	2020-10-13T23:02:45:417
0,319458	-0,759491	9,771976	2020-10-13T23:02:45:436
0,319318	-0,760790	9,771879	2020-10-13T23:02:45:457
0,317360	-0,760564	9,771960	2020-10-13T23:02:45:475
0,315008	-0,762167	9,771912	2020-10-13T23:02:45:497
0,312311	-0,760455	9,772132	2020-10-13T23:02:45:516
0,310221	-0,759534	9,772269	2020-10-13T23:02:45:537
0,310803	-0,755763	9,772544	2020-10-13T23:02:45:555
0,366161	-0,781914	9,768568	2020-10-13T23:02:45:580
0,362944	-0,782090	9,768674	2020-10-13T23:02:45:596
0,250753	-0,866889	9,765040	2020-10-13T23:02:45:617
0,251196	-0,861999	9,765462	2020-10-13T23:02:45:636
0,250436	-0,861276	9,765545	2020-10-13T23:02:45:657
0,310722	-0,732017	9,774354	2020-10-13T23:02:45:676
0,310621	-0,732718	9,774304	2020-10-13T23:02:45:697
0,309063	-0,730045	9,774553	2020-10-13T23:02:45:716
0,290579	-0,775677	9,771605	2020-10-13T23:02:45:738
0,258362	-0,787449	9,771569	2020-10-13T23:02:45:756
0,233212	-0,774167	9,773263	2020-10-13T23:02:45:778
0,279076	-0,760693	9,773119	2020-10-13T23:02:45:796
0,280111	-0,754326	9,773582	2020-10-13T23:02:45:820
0,278343	-0,752589	9,773767	2020-10-13T23:02:45:837
0,279212	-0,750982	9,773866	2020-10-13T23:02:45:858
0,287707	-0,702483	9,777225	2020-10-13T23:02:45:876
0,287610	-0,697201	9,777606	2020-10-13T23:02:45:897
0,287521	-0,694018	9,777835	2020-10-13T23:02:45:916
0,287060	-0,695269	9,777760	2020-10-13T23:02:45:937
0,284311	-0,695118	9,777850	2020-10-13T23:02:45:956
0,284292	-0,695457	9,777827	2020-10-13T23:02:45:977
0,282017	-0,696133	9,777844	2020-10-13T23:02:45:996
0,281121	-0,695041	9,777948	2020-10-13T23:02:46:017
0,284496	-0,692898	9,778003	2020-10-13T23:02:46:036
0,339888	-0,738287	9,772911	2020-10-13T23:02:46:060
0,296636	-0,766913	9,772115	2020-10-13T23:02:46:076
0,295138	-0,767284	9,772131	2020-10-13T23:02:46:097
0,295724	-0,764402	9,772340	2020-10-13T23:02:46:116
0,297288	-0,765686	9,772192	2020-10-13T23:02:46:138
0,296847	-0,760795	9,772587	2020-10-13T23:02:46:156
0,292468	-0,756313	9,773067	2020-10-13T23:02:46:178
0,289555	-0,754093	9,773325	2020-10-13T23:02:46:196
0,286240	-0,752441	9,773550	2020-10-13T23:02:46:217
0,277333	-0,687350	9,778600	2020-10-13T23:02:46:237
0,303662	-0,788076	9,770215	2020-10-13T23:02:46:257
0,302850	-0,784375	9,770538	2020-10-13T23:02:46:276
0,271758	-0,725145	9,776027	2020-10-13T23:02:46:300
0,291170	-0,668970	9,779472	2020-10-13T23:02:46:316
0,291095	-0,672225	9,779252	2020-10-13T23:02:46:338
0,289331	-0,674433	9,779152	2020-10-13T23:02:46:356
0,288130	-0,676924	9,779016	2020-10-13T23:02:46:378
0,286159	-0,678336	9,778975	2020-10-13T23:02:46:396
0,285531	-0,683624	9,778625	2020-10-13T23:02:46:418
0,290903	-0,782190	9,771076	2020-10-13T23:02:46:437
0,308015	-0,760413	9,772271	2020-10-13T23:02:46:458
0,308489	-0,760107	9,772280	2020-10-13T23:02:46:477
0,304524	-0,757116	9,772636	2020-10-13T23:02:46:498
0,303099	-0,753907	9,772929	2020-10-13T23:02:46:516
0,295858	-0,730367	9,774939	2020-10-13T23:02:46:541
0,293583	-0,728849	9,775120	2020-10-13T23:02:46:556
0,304336	-0,697337	9,777090	2020-10-13T23:02:46:579
0,301709	-0,697717	9,777144	2020-10-13T23:02:46:596
0,303634	-0,698897	9,777000	2020-10-13T23:02:46:618
0,302540	-0,695571	9,777271	2020-10-13T23:02:46:636
0,299489	-0,694515	9,777440	2020-10-13T23:02:46:658
0,300101	-0,696116	9,777308	2020-10-13T23:02:46:676
0,298260	-0,698041	9,777226	2020-10-13T23:02:46:699
0,297740	-0,698609	9,777202	2020-10-13T23:02:46:717
0,298941	-0,701626	9,776949	2020-10-13T23:02:46:739
0,299230	-0,702283	9,776894	2020-10-13T23:02:46:756
0,297987	-0,701236	9,777006	2020-10-13T23:02:46:780
0,298070	-0,697691	9,777258	2020-10-13T23:02:46:796
0,283811	-0,700274	9,777497	2020-10-13T23:02:46:819
0,283624	-0,699653	9,777547	2020-10-13T23:02:46:838
0,291961	-0,668374	9,779490	2020-10-13T23:02:46:858
0,290038	-0,670542	9,779399	2020-10-13T23:02:46:877
0,292497	-0,676194	9,778936	2020-10-13T23:02:46:899
0,293944	-0,681109	9,778552	2020-10-13T23:02:46:916
0,279287	-0,739195	9,774762	2020-10-13T23:02:46:939
0,331510	-0,749501	9,772346	2020-10-13T23:02:46:957
0,327695	-0,744704	9,772840	2020-10-13T23:02:46:979
0,322894	-0,743064	9,773126	2020-10-13T23:02:46:997
0,321479	-0,683309	9,777532	2020-10-13T23:02:47:021
0,341525	-0,750392	9,771932	2020-10-13T23:02:47:037
0,338514	-0,749715	9,772089	2020-10-13T23:02:47:059
0,336690	-0,748189	9,772268	2020-10-13T23:02:47:077
0,335336	-0,746102	9,772475	2020-10-13T23:02:47:099
0,334343	-0,741940	9,772826	2020-10-13T23:02:47:117
0,330542	-0,745266	9,772702	2020-10-13T23:02:47:140
0,327486	-0,741196	9,773114	2020-10-13T23:02:47:157
0,326929	-0,736092	9,773519	2020-10-13T23:02:47:179
0,325878	-0,735307	9,773613	2020-10-13T23:02:47:197
0,326585	-0,736260	9,773518	2020-10-13T23:02:47:219
0,325683	-0,732078	9,773862	2020-10-13T23:02:47:237
0,326202	-0,730194	9,773986	2020-10-13T23:02:47:260
0,324925	-0,727889	9,774200	2020-10-13T23:02:47:277
0,325353	-0,728780	9,774119	2020-10-13T23:02:47:299
0,323493	-0,726615	9,774343	2020-10-13T23:02:47:318
0,324733	-0,724276	9,774475	2020-10-13T23:02:47:339
0,325974	-0,726239	9,774288	2020-10-13T23:02:47:357
0,266150	-0,806083	9,769840	2020-10-13T23:02:47:380
0,292501	-0,733649	9,774794	2020-10-13T23:02:47:397
0,292922	-0,727884	9,775212	2020-10-13T23:02:47:419
0,293260	-0,722552	9,775598	2020-10-13T23:02:47:438
0,294733	-0,724683	9,775395	2020-10-13T23:02:47:459
0,295071	-0,725944	9,775291	2020-10-13T23:02:47:477
0,297735	-0,727378	9,775105	2020-10-13T23:02:47:501
0,299939	-0,727482	9,775029	2020-10-13T23:02:47:517
0,300306	-0,727024	9,775052	2020-10-13T23:02:47:539
0,299531	-0,726119	9,775143	2020-10-13T23:02:47:557
0,298810	-0,723997	9,775322	2020-10-13T23:02:47:579
0,299373	-0,724473	9,775270	2020-10-13T23:02:47:597
0,299865	-0,725223	9,775199	2020-10-13T23:02:47:620
0,298153	-0,725153	9,775257	2020-10-13T23:02:47:637
0,296986	-0,725327	9,775279	2020-10-13T23:02:47:659
0,295051	-0,725757	9,775306	2020-10-13T23:02:47:678
0,297038	-0,729920	9,774936	2020-10-13T23:02:47:700
0,292503	-0,730595	9,775023	2020-10-13T23:02:47:717
0,214390	-0,675398	9,781015	2020-10-13T23:02:47:742
0,255707	-0,747822	9,774752	2020-10-13T23:02:47:757
0,256435	-0,747436	9,774761	2020-10-13T23:02:47:780
0,258682	-0,747970	9,774662	2020-10-13T23:02:47:797
0,262533	-0,747665	9,774582	2020-10-13T23:02:47:819
0,263990	-0,749912	9,774371	2020-10-13T23:02:47:838
0,309857	-0,740795	9,773720	2020-10-13T23:02:47:860
0,257601	-0,719838	9,776802	2020-10-13T23:02:47:878
0,258284	-0,718265	9,776899	2020-10-13T23:02:47:900
0,258301	-0,716845	9,777003	2020-10-13T23:02:47:918
0,256670	-0,713441	9,777295	2020-10-13T23:02:47:940
0,258487	-0,712827	9,777292	2020-10-13T23:02:47:957
0,291081	-0,733897	9,774817	2020-10-13T23:02:47:982
0,214177	-0,755637	9,775148	2020-10-13T23:02:47:997
0,212568	-0,756105	9,775147	2020-10-13T23:02:48:020
0,212797	-0,753713	9,775327	2020-10-13T23:02:48:038
0,218313	-0,757513	9,774912	2020-10-13T23:02:48:060
0,222550	-0,754128	9,775078	2020-10-13T23:02:48:079
0,227982	-0,755188	9,774871	2020-10-13T23:02:48:102
0,231286	-0,756360	9,774703	2020-10-13T23:02:48:117
0,232259	-0,759251	9,774455	2020-10-13T23:02:48:141
0,233901	-0,757458	9,774555	2020-10-13T23:02:48:158
0,236243	-0,752879	9,774853	2020-10-13T23:02:48:180
0,237913	-0,749650	9,775061	2020-10-13T23:02:48:198
0,239693	-0,748839	9,775079	2020-10-13T23:02:48:222
0,273634	-0,826918	9,767892	2020-10-13T23:02:48:238
0,237060	-0,692024	9,779329	2020-10-13T23:02:48:260
0,238629	-0,694866	9,779090	2020-10-13T23:02:48:279
0,240036	-0,699146	9,778750	2020-10-13T23:02:48:301
0,241108	-0,703282	9,778427	2020-10-13T23:02:48:318
0,244749	-0,708006	9,777996	2020-10-13T23:02:48:341
0,245635	-0,709625	9,777857	2020-10-13T23:02:48:358
0,247862	-0,712509	9,777591	2020-10-13T23:02:48:381
0,250270	-0,713095	9,777487	2020-10-13T23:02:48:399
0,251467	-0,714037	9,777387	2020-10-13T23:02:48:420
0,252738	-0,768249	9,773244	2020-10-13T23:02:48:439
0,254867	-0,768756	9,773149	2020-10-13T23:02:48:463
0,251123	-0,767741	9,773326	2020-10-13T23:02:48:478
0,244235	-0,694394	9,778985	2020-10-13T23:02:48:500
0,246704	-0,695795	9,778824	2020-10-13T23:02:48:518
0,246968	-0,696294	9,778781	2020-10-13T23:02:48:542
0,251425	-0,695882	9,778697	2020-10-13T23:02:48:558
0,250274	-0,696515	9,778682	2020-10-13T23:02:48:581
0,252571	-0,701039	9,778299	2020-10-13T23:02:48:598
0,252884	-0,701841	9,778234	2020-10-13T23:02:48:621
0,257730	-0,699138	9,778301	2020-10-13T23:02:48:639
0,258109	-0,701943	9,778090	2020-10-13T23:02:48:661
0,328495	-0,770192	9,770838	2020-10-13T23:02:48:679
0,328938	-0,766261	9,771132	2020-10-13T23:02:48:704
0,360536	-0,728282	9,772922	2020-10-13T23:02:48:718
0,354227	-0,727570	9,773206	2020-10-13T23:02:48:741
0,348914	-0,725019	9,773586	2020-10-13T23:02:48:759
0,344274	-0,723955	9,773829	2020-10-13T23:02:48:782
0,343584	-0,721322	9,774049	2020-10-13T23:02:48:798
0,341831	-0,723480	9,773951	2020-10-13T23:02:48:821
0,340845	-0,719561	9,774275	2020-10-13T23:02:48:839
0,337385	-0,715870	9,774666	2020-10-13T23:02:48:861
0,336236	-0,717449	9,774590	2020-10-13T23:02:48:879
0,335649	-0,717112	9,774634	2020-10-13T23:02:48:901
0,334940	-0,716488	9,774704	2020-10-13T23:02:48:918
0,333474	-0,715627	9,774817	2020-10-13T23:02:48:944
0,330338	-0,713623	9,775070	2020-10-13T23:02:48:959
0,328947	-0,713132	9,775153	2020-10-13T23:02:48:981
0,349911	-0,778527	9,769434	2020-10-13T23:02:48:999
0,187051	-0,738611	9,777006	2020-10-13T23:02:49:021
0,192143	-0,738234	9,776936	2020-10-13T23:02:49:039
0,193303	-0,738738	9,776875	2020-10-13T23:02:49:061
0,198164	-0,731197	9,777345	2020-10-13T23:02:49:079
0,201687	-0,728293	9,777490	2020-10-13T23:02:49:101
0,209085	-0,726636	9,777457	2020-10-13T23:02:49:119
0,212517	-0,722840	9,777664	2020-10-13T23:02:49:141
0,329299	-0,705556	9,775691	2020-10-13T23:02:49:159
0,228444	-0,721403	9,777411	2020-10-13T23:02:49:183
0,299434	-0,758943	9,772652	2020-10-13T23:02:49:199
0,302779	-0,687261	9,777851	2020-10-13T23:02:49:221
0,301961	-0,690223	9,777668	2020-10-13T23:02:49:240
0,301259	-0,687827	9,777859	2020-10-13T23:02:49:262
0,298678	-0,689366	9,777829	2020-10-13T23:02:49:279
0,298502	-0,690844	9,777731	2020-10-13T23:02:49:301
0,297809	-0,689215	9,777866	2020-10-13T23:02:49:319
0,297043	-0,690531	9,777797	2020-10-13T23:02:49:342
0,297016	-0,691069	9,777760	2020-10-13T23:02:49:360
0,298005	-0,692037	9,777661	2020-10-13T23:02:49:381
0,298144	-0,691890	9,777668	2020-10-13T23:02:49:400
0,298643	-0,690932	9,777720	2020-10-13T23:02:49:423
0,297454	-0,690563	9,777782	2020-10-13T23:02:49:439
0,295331	-0,688688	9,777979	2020-10-13T23:02:49:461
0,296497	-0,685812	9,778146	2020-10-13T23:02:49:479
0,296282	-0,683564	9,778310	2020-10-13T23:02:49:502
0,295160	-0,685056	9,778239	2020-10-13T23:02:49:519
0,293696	-0,684874	9,778296	2020-10-13T23:02:49:542
0,295327	-0,684313	9,778286	2020-10-13T23:02:49:559
0,291825	-0,682927	9,778488	2020-10-13T23:02:49:582
0,291622	-0,684393	9,778392	2020-10-13T23:02:49:599
0,292223	-0,683299	9,778450	2020-10-13T23:02:49:621
0,293124	-0,684510	9,778338	2020-10-13T23:02:49:640
0,291839	-0,684747	9,778360	2020-10-13T23:02:49:664
0,295491	-0,684643	9,778258	2020-10-13T23:02:49:680
0,293793	-0,681591	9,778522	2020-10-13T23:02:49:701
0,290953	-0,680228	9,778703	2020-10-13T23:02:49:720
0,290862	-0,684435	9,778412	2020-10-13T23:02:49:743
0,291876	-0,690142	9,777980	2020-10-13T23:02:49:759
0,292182	-0,690626	9,777937	2020-10-13T23:02:49:782
0,292960	-0,691167	9,777875	2020-10-13T23:02:49:799
0,292285	-0,691502	9,777872	2020-10-13T23:02:49:822
0,292166	-0,690579	9,777941	2020-10-13T23:02:49:840
0,291827	-0,692553	9,777811	2020-10-13T23:02:49:861
0,293203	-0,695649	9,777550	2020-10-13T23:02:49:880
0,294000	-0,695433	9,777542	2020-10-13T23:02:49:903
0,292444	-0,692456	9,777800	2020-10-13T23:02:49:919
0,294356	-0,687258	9,778109	2020-10-13T23:02:49:942
0,292129	-0,683845	9,778415	2020-10-13T23:02:49:960
0,295328	-0,684109	9,778300	2020-10-13T23:02:49:982
0,296420	-0,687832	9,778007	2020-10-13T23:02:50:000
0,297666	-0,689167	9,777874	2020-10-13T23:02:50:022
0,238851	-0,705178	9,778346	2020-10-13T23:02:50:040
0,309860	-0,739820	9,773793	2020-10-13T23:02:50:063
0,308370	-0,738737	9,773923	2020-10-13T23:02:50:080
0,252914	-0,757972	9,774042	2020-10-13T23:02:50:102
0,258456	-0,732292	9,775855	2020-10-13T23:02:50:119
0,306326	-0,670581	9,778899	2020-10-13T23:02:50:145
0,306325	-0,672204	9,778788	2020-10-13T23:02:50:161
0,314144	-0,625889	9,781613	2020-10-13T23:02:50:182
0,316244	-0,631464	9,781187	2020-10-13T23:02:50:200
0,313533	-0,635371	9,781022	2020-10-13T23:02:50:222
0,311350	-0,637566	9,780949	2020-10-13T23:02:50:240
0,310976	-0,639914	9,780807	2020-10-13T23:02:50:262
0,307233	-0,644073	9,780652	2020-10-13T23:02:50:280
0,306717	-0,645644	9,780565	2020-10-13T23:02:50:303
0,303918	-0,647482	9,780531	2020-10-13T23:02:50:320
0,301662	-0,650901	9,780374	2020-10-13T23:02:50:343
0,307429	-0,638470	9,781013	2020-10-13T23:02:50:360
0,240691	-0,787059	9,772052	2020-10-13T23:02:50:386
0,244880	-0,782210	9,772337	2020-10-13T23:02:50:400
0,246653	-0,779413	9,772515	2020-10-13T23:02:50:422
0,269165	-0,750464	9,774187	2020-10-13T23:02:50:441
0,308819	-0,675543	9,778480	2020-10-13T23:02:50:463
0,307705	-0,678589	9,778303	2020-10-13T23:02:50:480
0,306603	-0,680274	9,778221	2020-10-13T23:02:50:503
0,245041	-0,674832	9,780334	2020-10-13T23:02:50:520
0,285604	-0,696011	9,777749	2020-10-13T23:02:50:543
0,285456	-0,697716	9,777632	2020-10-13T23:02:50:560
0,285077	-0,698627	9,777578	2020-10-13T23:02:50:583
0,283104	-0,700629	9,777493	2020-10-13T23:02:50:600
0,279371	-0,703963	9,777360	2020-10-13T23:02:50:624
0,306684	-0,729633	9,774659	2020-10-13T23:02:50:641
0,333828	-0,749312	9,772281	2020-10-13T23:02:50:662
0,332895	-0,748078	9,772408	2020-10-13T23:02:50:681
0,331057	-0,750959	9,772249	2020-10-13T23:02:50:703
0,328568	-0,754160	9,772086	2020-10-13T23:02:50:720
0,326620	-0,755177	9,772073	2020-10-13T23:02:50:743
0,265875	-0,826546	9,768138	2020-10-13T23:02:50:761
0,318639	-0,744283	9,773172	2020-10-13T23:02:50:784
0,315516	-0,746341	9,773117	2020-10-13T23:02:50:801
0,314366	-0,744174	9,773319	2020-10-13T23:02:50:824
0,311370	-0,743552	9,773462	2020-10-13T23:02:50:841
0,272543	-0,708805	9,777204	2020-10-13T23:02:50:866
0,273111	-0,714648	9,776762	2020-10-13T23:02:50:881
0,244519	-0,767452	9,773516	2020-10-13T23:02:50:903
0,245916	-0,769065	9,773354	2020-10-13T23:02:50:921
0,248769	-0,767197	9,773429	2020-10-13T23:02:50:944
0,252704	-0,769582	9,773140	2020-10-13T23:02:50:961
0,254009	-0,768274	9,773210	2020-10-13T23:02:50:983
0,252933	-0,766000	9,773416	2020-10-13T23:02:51:001
0,252715	-0,762850	9,773667	2020-10-13T23:02:51:023
0,252777	-0,759966	9,773890	2020-10-13T23:02:51:041
0,252275	-0,761532	9,773782	2020-10-13T23:02:51:063
0,253988	-0,760094	9,773849	2020-10-13T23:02:51:081
0,255367	-0,760939	9,773747	2020-10-13T23:02:51:105
0,257570	-0,765354	9,773345	2020-10-13T23:02:51:121
0,256824	-0,767625	9,773187	2020-10-13T23:02:51:143
0,242643	-0,760572	9,774100	2020-10-13T23:02:51:161
0,317739	-0,748612	9,772871	2020-10-13T23:02:51:184
0,312689	-0,750664	9,772877	2020-10-13T23:02:51:201
0,312880	-0,753890	9,772622	2020-10-13T23:02:51:223
0,313099	-0,755275	9,772508	2020-10-13T23:02:51:241
0,310815	-0,758573	9,772326	2020-10-13T23:02:51:264
0,310433	-0,758007	9,772382	2020-10-13T23:02:51:281
0,310627	-0,756221	9,772513	2020-10-13T23:02:51:303
0,309233	-0,756860	9,772509	2020-10-13T23:02:51:321
0,301179	-0,780447	9,770905	2020-10-13T23:02:51:346
0,297483	-0,779193	9,771118	2020-10-13T23:02:51:361
0,238395	-0,760936	9,774177	2020-10-13T23:02:51:383
0,239798	-0,763792	9,773919	2020-10-13T23:02:51:402
0,240837	-0,768237	9,773545	2020-10-13T23:02:51:424
0,239645	-0,771633	9,773308	2020-10-13T23:02:51:441
0,240504	-0,772077	9,773252	2020-10-13T23:02:51:463
0,242097	-0,763320	9,773900	2020-10-13T23:02:51:481
0,244388	-0,754788	9,774506	2020-10-13T23:02:51:503
0,246879	-0,759061	9,774112	2020-10-13T23:02:51:521
0,248847	-0,761312	9,773887	2020-10-13T23:02:51:544
0,247782	-0,764623	9,773655	2020-10-13T23:02:51:561
0,247563	-0,763848	9,773722	2020-10-13T23:02:51:586
0,314178	-0,731497	9,774282	2020-10-13T23:02:51:602
0,247619	-0,778918	9,772531	2020-10-13T23:02:51:623
0,248540	-0,776478	9,772701	2020-10-13T23:02:51:642
0,252470	-0,774790	9,772735	2020-10-13T23:02:51:664
0,255039	-0,771212	9,772951	2020-10-13T23:02:51:681
0,255357	-0,768783	9,773134	2020-10-13T23:02:51:703
0,256126	-0,773444	9,772746	2020-10-13T23:02:51:721
0,255993	-0,772497	9,772824	2020-10-13T23:02:51:744
0,257886	-0,772342	9,772787	2020-10-13T23:02:51:762
0,260312	-0,769538	9,772943	2020-10-13T23:02:51:784
0,258993	-0,767816	9,773114	2020-10-13T23:02:51:801
0,354173	-0,750666	9,771461	2020-10-13T23:02:51:827
0,307488	-0,727882	9,774765	2020-10-13T23:02:51:842
0,306554	-0,730296	9,774614	2020-10-13T23:02:51:863
0,304066	-0,728859	9,774798	2020-10-13T23:02:51:882
0,306801	-0,732303	9,774456	2020-10-13T23:02:51:904
0,287273	-0,805013	9,769330	2020-10-13T23:02:51:922
0,287148	-0,806605	9,769202	2020-10-13T23:02:51:944
0,287804	-0,806774	9,769169	2020-10-13T23:02:51:962
0,278884	-0,822226	9,768140	2020-10-13T23:02:51:985
0,279664	-0,819008	9,768388	2020-10-13T23:02:52:001
0,278848	-0,814572	9,768782	2020-10-13T23:02:52:023
0,279124	-0,812935	9,768910	2020-10-13T23:02:52:042
0,280620	-0,810394	9,769078	2020-10-13T23:02:52:068
0,281429	-0,810260	9,769067	2020-10-13T23:02:52:083
0,283205	-0,808916	9,769127	2020-10-13T23:02:52:106
0,285969	-0,804983	9,769371	2020-10-13T23:02:52:125
0,285763	-0,800101	9,769778	2020-10-13T23:02:52:149
0,287784	-0,797959	9,769894	2020-10-13T23:02:52:168
0,289491	-0,798415	9,769806	2020-10-13T23:02:52:185
0,286970	-0,796376	9,770047	2020-10-13T23:02:52:201
0,287028	-0,799552	9,769786	2020-10-13T23:02:52:225
0,290109	-0,798804	9,769756	2020-10-13T23:02:52:242
0,248534	-0,869977	9,764822	2020-10-13T23:02:52:264
0,257103	-0,778518	9,772318	2020-10-13T23:02:52:282
0,258940	-0,782302	9,771967	2020-10-13T23:02:52:306
0,262069	-0,785657	9,771614	2020-10-13T23:02:52:322
0,260587	-0,785528	9,771665	2020-10-13T23:02:52:344
0,320226	-0,812426	9,767692	2020-10-13T23:02:52:362
0,316475	-0,808029	9,768179	2020-10-13T23:02:52:386
0,269035	-0,867157	9,764530	2020-10-13T23:02:52:402
0,269681	-0,863418	9,764843	2020-10-13T23:02:52:424
0,268874	-0,863243	9,764881	2020-10-13T23:02:52:443
0,268989	-0,857156	9,765414	2020-10-13T23:02:52:465
0,271809	-0,849803	9,765979	2020-10-13T23:02:52:483
0,275367	-0,841226	9,766622	2020-10-13T23:02:52:504
0,276021	-0,833689	9,767249	2020-10-13T23:02:52:522
0,276519	-0,834294	9,767183	2020-10-13T23:02:52:546
0,279940	-0,830680	9,767394	2020-10-13T23:02:52:562
0,279993	-0,830159	9,767437	2020-10-13T23:02:52:584
0,337411	-0,729771	9,773637	2020-10-13T23:02:52:603
0,201435	-0,882476	9,764786	2020-10-13T23:02:52:625
0,207970	-0,875028	9,765319	2020-10-13T23:02:52:643
0,213723	-0,872497	9,765422	2020-10-13T23:02:52:664
0,282049	-0,785799	9,771047	2020-10-13T23:02:52:683
0,308542	-0,821974	9,767269	2020-10-13T23:02:52:705
0,308004	-0,819064	9,767530	2020-10-13T23:02:52:722
0,306428	-0,816172	9,767822	2020-10-13T23:02:52:745
0,304463	-0,812130	9,768221	2020-10-13T23:02:52:761
0,303717	-0,813225	9,768152	2020-10-13T23:02:52:787
0,300783	-0,812438	9,768309	2020-10-13T23:02:52:802
0,298136	-0,812427	9,768391	2020-10-13T23:02:52:824
0,296931	-0,812595	9,768414	2020-10-13T23:02:52:843
0,297846	-0,811274	9,768496	2020-10-13T23:02:52:865
0,296948	-0,810868	9,768557	2020-10-13T23:02:52:882
0,296700	-0,808834	9,768733	2020-10-13T23:02:52:905
0,297164	-0,802995	9,769200	2020-10-13T23:02:52:923
0,298146	-0,799534	9,769454	2020-10-13T23:02:52:945
0,296605	-0,797157	9,769695	2020-10-13T23:02:52:963
0,296396	-0,795789	9,769814	2020-10-13T23:02:52:984
0,297111	-0,794865	9,769867	2020-10-13T23:02:53:002
0,299145	-0,793606	9,769907	2020-10-13T23:02:53:038
0,294501	-0,793497	9,770057	2020-10-13T23:02:53:043
0,295467	-0,793468	9,770030	2020-10-13T23:02:53:064
0,295622	-0,791813	9,770160	2020-10-13T23:02:53:083
0,294836	-0,788090	9,770485	2020-10-13T23:02:53:105
0,288053	-0,778889	9,771424	2020-10-13T23:02:53:124
0,353830	-0,799126	9,767630	2020-10-13T23:02:53:145
0,348504	-0,800349	9,767721	2020-10-13T23:02:53:163
0,345532	-0,799492	9,767897	2020-10-13T23:02:53:186
0,342420	-0,795515	9,768331	2020-10-13T23:02:53:203
0,336633	-0,795220	9,768557	2020-10-13T23:02:53:225
0,264519	-0,779295	9,772058	2020-10-13T23:02:53:244
0,263736	-0,778428	9,772148	2020-10-13T23:02:53:268
0,265198	-0,776763	9,772241	2020-10-13T23:02:53:284
0,307847	-0,767213	9,771745	2020-10-13T23:02:53:305
0,307769	-0,764608	9,771952	2020-10-13T23:02:53:323
0,308830	-0,765102	9,771879	2020-10-13T23:02:53:346
0,305777	-0,763202	9,772124	2020-10-13T23:02:53:363
0,304426	-0,764224	9,772086	2020-10-13T23:02:53:385
0,305011	-0,766847	9,771863	2020-10-13T23:02:53:403
0,303280	-0,767974	9,771828	2020-10-13T23:02:53:436
0,303676	-0,767143	9,771881	2020-10-13T23:02:53:444
0,304547	-0,770017	9,771627	2020-10-13T23:02:53:465
0,277455	-0,800496	9,769985	2020-10-13T23:02:53:484
0,278093	-0,800767	9,769945	2020-10-13T23:02:53:508
0,277398	-0,803058	9,769776	2020-10-13T23:02:53:523
0,306192	-0,880302	9,762259	2020-10-13T23:02:53:545
0,304732	-0,874592	9,762818	2020-10-13T23:02:53:563
0,304249	-0,870792	9,763172	2020-10-13T23:02:53:586
0,294767	-0,803818	9,769205	2020-10-13T23:02:53:603
0,293462	-0,802885	9,769321	2020-10-13T23:02:53:626
0,292473	-0,801573	9,769459	2020-10-13T23:02:53:644
0,294218	-0,800659	9,769482	2020-10-13T23:02:53:666
0,287886	-0,769674	9,772160	2020-10-13T23:02:53:684
0,285318	-0,822387	9,767941	2020-10-13T23:02:53:705
0,306396	-0,784542	9,770414	2020-10-13T23:02:53:724
0,304633	-0,782102	9,770665	2020-10-13T23:02:53:748
0,304041	-0,779218	9,770914	2020-10-13T23:02:53:764
0,207104	-0,792291	9,772398	2020-10-13T23:02:53:785
0,212044	-0,794768	9,772091	2020-10-13T23:02:53:804
0,216571	-0,799234	9,771627	2020-10-13T23:02:53:826
0,222626	-0,795294	9,771813	2020-10-13T23:02:53:844
0,355482	-0,780492	9,769076	2020-10-13T23:02:53:866
0,280851	-0,830551	9,767379	2020-10-13T23:02:53:884
0,283176	-0,831203	9,767257	2020-10-13T23:02:53:906
0,292679	-0,803598	9,769286	2020-10-13T23:02:53:924
0,272401	-0,908808	9,760648	2020-10-13T23:02:53:945
0,310814	-0,832519	9,766304	2020-10-13T23:02:53:964
0,309065	-0,834188	9,766217	2020-10-13T23:02:53:988
0,309177	-0,833601	9,766264	2020-10-13T23:02:54:004
0,278882	-0,851070	9,765669	2020-10-13T23:02:54:025
0,276603	-0,850661	9,765769	2020-10-13T23:02:54:044
0,275737	-0,846762	9,766132	2020-10-13T23:02:54:065
0,283800	-0,844770	9,766074	2020-10-13T23:02:54:084
0,325228	-0,853723	9,764004	2020-10-13T23:02:54:105
0,321392	-0,855090	9,764011	2020-10-13T23:02:54:124
0,321276	-0,854263	9,764088	2020-10-13T23:02:54:145
0,321573	-0,850784	9,764381	2020-10-13T23:02:54:164
0,320066	-0,850470	9,764458	2020-10-13T23:02:54:185
0,317686	-0,845575	9,764961	2020-10-13T23:02:54:204
0,313441	-0,845204	9,765130	2020-10-13T23:02:54:228
0,311945	-0,842259	9,765432	2020-10-13T23:02:54:244
0,310159	-0,843254	9,765404	2020-10-13T23:02:54:265
0,309152	-0,841083	9,765623	2020-10-13T23:02:54:284
0,309944	-0,842185	9,765503	2020-10-13T23:02:54:305
0,308922	-0,841943	9,765556	2020-10-13T23:02:54:324
0,306445	-0,842666	9,765572	2020-10-13T23:02:54:345
0,304605	-0,840692	9,765800	2020-10-13T23:02:54:364
0,303529	-0,838354	9,766034	2020-10-13T23:02:54:385
0,302193	-0,836851	9,766204	2020-10-13T23:02:54:405
0,303295	-0,838225	9,766052	2020-10-13T23:02:54:425
0,275827	-0,837431	9,766934	2020-10-13T23:02:54:445
0,219276	-0,889151	9,763796	2020-10-13T23:02:54:466
0,258467	-0,851080	9,766230	2020-10-13T23:02:54:485
0,261820	-0,845512	9,766623	2020-10-13T23:02:54:505
0,264325	-0,842356	9,766829	2020-10-13T23:02:54:525
0,264968	-0,838511	9,767142	2020-10-13T23:02:54:546
0,265398	-0,834476	9,767476	2020-10-13T23:02:54:564
0,266760	-0,831253	9,767715	2020-10-13T23:02:54:587
0,269348	-0,830187	9,767734	2020-10-13T23:02:54:604
0,274038	-0,824827	9,768058	2020-10-13T23:02:54:626
0,278901	-0,818689	9,768436	2020-10-13T23:02:54:644
0,279307	-0,817072	9,768560	2020-10-13T23:02:54:666
0,279750	-0,819734	9,768324	2020-10-13T23:02:54:684
0,313673	-0,886564	9,761455	2020-10-13T23:02:54:708
0,313889	-0,879547	9,762082	2020-10-13T23:02:54:725
0,267220	-0,753513	9,774006	2020-10-13T23:02:54:745
0,266167	-0,750349	9,774279	2020-10-13T23:02:54:764
0,268066	-0,755275	9,773847	2020-10-13T23:02:54:785
0,270079	-0,760740	9,773368	2020-10-13T23:02:54:804
0,272831	-0,768083	9,772717	2020-10-13T23:02:54:825
0,276330	-0,767395	9,772673	2020-10-13T23:02:54:845
0,274559	-0,761948	9,773149	2020-10-13T23:02:54:866
0,272900	-0,761274	9,773248	2020-10-13T23:02:54:885
0,274925	-0,762491	9,773096	2020-10-13T23:02:54:906
0,282364	-0,864241	9,764412	2020-10-13T23:02:54:925
0,220633	-0,815383	9,770203	2020-10-13T23:02:54:948
0,284765	-0,763104	9,772766	2020-10-13T23:02:54:965
0,360234	-0,802121	9,767150	2020-10-13T23:02:54:986
0,359355	-0,799136	9,767426	2020-10-13T23:02:55:004
0,356670	-0,800507	9,767413	2020-10-13T23:02:55:025
0,354014	-0,799190	9,767617	2020-10-13T23:02:55:045
0,347863	-0,796225	9,768081	2020-10-13T23:02:55:066
0,246940	-0,803096	9,770591	2020-10-13T23:02:55:085
0,279949	-0,808474	9,769257	2020-10-13T23:02:55:106
0,280778	-0,806276	9,769415	2020-10-13T23:02:55:125
0,281554	-0,802406	9,769711	2020-10-13T23:02:55:146
0,341475	-0,808870	9,767267	2020-10-13T23:02:55:165
0,336811	-0,806983	9,767585	2020-10-13T23:02:55:190
0,268770	-0,719919	9,776496	2020-10-13T23:02:55:205
0,269517	-0,724073	9,776168	2020-10-13T23:02:55:226
0,268768	-0,724584	9,776151	2020-10-13T23:02:55:245
0,270927	-0,725355	9,776034	2020-10-13T23:02:55:266
0,274471	-0,725795	9,775903	2020-10-13T23:02:55:285
0,276582	-0,731422	9,775424	2020-10-13T23:02:55:307
0,279148	-0,735769	9,775024	2020-10-13T23:02:55:325
0,276218	-0,741854	9,774648	2020-10-13T23:02:55:346
0,276878	-0,746029	9,774311	2020-10-13T23:02:55:365
0,273663	-0,748161	9,774239	2020-10-13T23:02:55:387
0,275148	-0,749358	9,774106	2020-10-13T23:02:55:405
0,277014	-0,750351	9,773976	2020-10-13T23:02:55:428
0,311525	-0,818709	9,767448	2020-10-13T23:02:55:447
0,261053	-0,871773	9,764336	2020-10-13T23:02:55:467
0,308486	-0,799878	9,769105	2020-10-13T23:02:55:486
0,315424	-0,804212	9,768528	2020-10-13T23:02:55:507
0,315078	-0,798945	9,768971	2020-10-13T23:02:55:525
0,315419	-0,796477	9,769161	2020-10-13T23:02:55:547
0,315253	-0,797515	9,769082	2020-10-13T23:02:55:565
0,315348	-0,801185	9,768779	2020-10-13T23:02:55:587
0,313062	-0,806430	9,768421	2020-10-13T23:02:55:605
0,311357	-0,811694	9,768040	2020-10-13T23:02:55:627
0,309887	-0,810929	9,768149	2020-10-13T23:02:55:645
0,308982	-0,809169	9,768324	2020-10-13T23:02:55:668
0,307425	-0,804062	9,768795	2020-10-13T23:02:55:685
0,306073	-0,798876	9,769263	2020-10-13T23:02:55:707
0,304675	-0,799628	9,769245	2020-10-13T23:02:55:726
0,304612	-0,800227	9,769198	2020-10-13T23:02:55:747
0,303944	-0,800190	9,769222	2020-10-13T23:02:55:765
0,300361	-0,800548	9,769303	2020-10-13T23:02:55:788
0,301432	-0,797351	9,769532	2020-10-13T23:02:55:805
0,299708	-0,793579	9,769892	2020-10-13T23:02:55:827
0,296745	-0,787383	9,770484	2020-10-13T23:02:55:846
0,296848	-0,784190	9,770738	2020-10-13T23:02:55:867
0,298577	-0,784855	9,770632	2020-10-13T23:02:55:885
0,297524	-0,790831	9,770182	2020-10-13T23:02:56:127
0,296714	-0,794453	9,769913	2020-10-13T23:02:56:128
0,298037	-0,792614	9,770021	2020-10-13T23:02:56:129
0,297540	-0,791636	9,770116	2020-10-13T23:02:56:129
0,296882	-0,790840	9,770201	2020-10-13T23:02:56:130
0,297696	-0,792442	9,770046	2020-10-13T23:02:56:131
0,299140	-0,801869	9,769233	2020-10-13T23:02:56:132
0,298017	-0,802936	9,769179	2020-10-13T23:02:56:132
0,298934	-0,802234	9,769209	2020-10-13T23:02:56:132
0,298115	-0,799456	9,769462	2020-10-13T23:02:56:133
0,295085	-0,797571	9,769708	2020-10-13T23:02:56:133
0,297132	-0,800002	9,769447	2020-10-13T23:02:56:133
0,265284	-0,784904	9,771588	2020-10-13T23:02:56:149
0,263842	-0,868282	9,764571	2020-10-13T23:02:56:165
0,263719	-0,867309	9,764662	2020-10-13T23:02:56:187
0,284162	-0,877034	9,763219	2020-10-13T23:02:56:207
0,286974	-0,871890	9,763597	2020-10-13T23:02:56:229
0,287975	-0,865281	9,764156	2020-10-13T23:02:56:246
0,220596	-0,776880	9,773340	2020-10-13T23:02:56:272
0,223343	-0,780395	9,772998	2020-10-13T23:02:56:285
0,226152	-0,779815	9,772980	2020-10-13T23:02:56:310
0,230342	-0,780267	9,772845	2020-10-13T23:02:56:327
0,231060	-0,781820	9,772704	2020-10-13T23:02:56:348
0,235546	-0,780649	9,772691	2020-10-13T23:02:56:365
0,279450	-0,823602	9,768007	2020-10-13T23:02:56:395
0,280940	-0,819878	9,768278	2020-10-13T23:02:56:408
0,304462	-0,800712	9,769163	2020-10-13T23:02:56:427
0,303434	-0,797172	9,769485	2020-10-13T23:02:56:447
0,302906	-0,796284	9,769573	2020-10-13T23:02:56:468
0,302776	-0,795875	9,769610	2020-10-13T23:02:56:486
0,302445	-0,797384	9,769498	2020-10-13T23:02:56:508
0,301749	-0,795400	9,769681	2020-10-13T23:02:56:526
0,305302	-0,761858	9,772243	2020-10-13T23:02:56:557
0,224622	-0,900903	9,762597	2020-10-13T23:02:56:583
0,282864	-0,822234	9,768024	2020-10-13T23:02:56:589
0,312175	-0,710798	9,775873	2020-10-13T23:02:56:614
0,313601	-0,712293	9,775719	2020-10-13T23:02:56:632
0,314203	-0,717077	9,775350	2020-10-13T23:02:56:648
0,314333	-0,722090	9,774977	2020-10-13T23:02:56:676
0,315171	-0,723457	9,774848	2020-10-13T23:02:56:686
0,316291	-0,727092	9,774543	2020-10-13T23:02:56:707
0,313115	-0,728589	9,774533	2020-10-13T23:02:56:725
0,311012	-0,728002	9,774644	2020-10-13T23:02:56:748
0,308755	-0,730314	9,774543	2020-10-13T23:02:56:766
0,308508	-0,731184	9,774486	2020-10-13T23:02:56:788
0,297454	-0,894815	9,761209	2020-10-13T23:02:56:807
0,343997	-0,815489	9,766628	2020-10-13T23:02:56:828
0,324425	-0,774887	9,770603	2020-10-13T23:02:56:847
0,252268	-0,764012	9,773588	2020-10-13T23:02:56:870
0,335313	-0,788009	9,769186	2020-10-13T23:02:56:888
0,316073	-0,699704	9,776548	2020-10-13T23:02:56:908
0,316872	-0,701803	9,776372	2020-10-13T23:02:56:927
0,317076	-0,699852	9,776505	2020-10-13T23:02:56:949
0,315365	-0,707211	9,776031	2020-10-13T23:02:56:966
0,313181	-0,709269	9,775952	2020-10-13T23:02:56:989
0,320090	-0,818028	9,767229	2020-10-13T23:02:57:007
0,293079	-0,850411	9,765310	2020-10-13T23:02:57:028
0,292168	-0,846243	9,765700	2020-10-13T23:02:57:047
0,250758	-0,790522	9,771519	2020-10-13T23:02:57:069
0,249995	-0,787796	9,771758	2020-10-13T23:02:57:087
0,286399	-0,750895	9,773664	2020-10-13T23:02:57:110
0,287181	-0,751598	9,773587	2020-10-13T23:02:57:126
0,287140	-0,753752	9,773423	2020-10-13T23:02:57:149
0,348173	-0,895972	9,759426	2020-10-13T23:02:57:167
0,314847	-0,817161	9,767471	2020-10-13T23:02:57:189
0,314548	-0,814533	9,767701	2020-10-13T23:02:57:206
0,312782	-0,808204	9,768283	2020-10-13T23:02:57:229
0,310208	-0,805265	9,768608	2020-10-13T23:02:57:247
0,308338	-0,802673	9,768881	2020-10-13T23:02:57:268
0,309072	-0,799004	9,769158	2020-10-13T23:02:57:287
0,308952	-0,798328	9,769217	2020-10-13T23:02:57:309
0,307164	-0,798716	9,769242	2020-10-13T23:02:57:327
0,319948	-0,905497	9,759513	2020-10-13T23:02:57:352
0,321112	-0,900086	9,759975	2020-10-13T23:02:57:367
0,250469	-0,770674	9,773111	2020-10-13T23:02:57:388
0,249283	-0,768609	9,773305	2020-10-13T23:02:57:407
0,250493	-0,764158	9,773623	2020-10-13T23:02:57:429
0,254264	-0,766223	9,773363	2020-10-13T23:02:57:447
0,255856	-0,769006	9,773104	2020-10-13T23:02:57:469
0,262617	-0,772923	9,772615	2020-10-13T23:02:57:487
0,262122	-0,773308	9,772598	2020-10-13T23:02:57:509
0,264266	-0,769482	9,772842	2020-10-13T23:02:57:527
0,265197	-0,769689	9,772800	2020-10-13T23:02:57:549
0,266873	-0,771665	9,772599	2020-10-13T23:02:57:566
0,271263	-0,771505	9,772491	2020-10-13T23:02:57:591
0,298860	-0,719790	9,775631	2020-10-13T23:02:57:608
0,284865	-0,828039	9,767476	2020-10-13T23:02:57:629
0,252511	-0,788241	9,771658	2020-10-13T23:02:57:648
0,342259	-0,887959	9,760367	2020-10-13T23:02:57:669
0,337867	-0,880610	9,761187	2020-10-13T23:02:57:687
0,334715	-0,870448	9,762206	2020-10-13T23:02:57:709
0,330135	-0,863893	9,762944	2020-10-13T23:02:57:727
0,329192	-0,857373	9,763551	2020-10-13T23:02:57:749
0,327897	-0,855278	9,763779	2020-10-13T23:02:57:767
0,324527	-0,854261	9,763980	2020-10-13T23:02:57:789
0,322915	-0,855092	9,763961	2020-10-13T23:02:57:807
0,320718	-0,776276	9,770616	2020-10-13T23:02:57:832
0,306065	-0,874816	9,762756	2020-10-13T23:02:57:848
0,306295	-0,872276	9,762976	2020-10-13T23:02:57:869
0,304617	-0,868309	9,763382	2020-10-13T23:02:57:888
0,303826	-0,864905	9,763709	2020-10-13T23:02:57:909
0,302350	-0,862211	9,763993	2020-10-13T23:02:57:928
0,302234	-0,858445	9,764328	2020-10-13T23:02:57:950
0,301420	-0,855076	9,764649	2020-10-13T23:02:57:968
0,301256	-0,856120	9,764563	2020-10-13T23:02:57:989
0,271430	-0,842696	9,766605	2020-10-13T23:02:58:008
0,267154	-0,784613	9,771561	2020-10-13T23:02:58:029
0,241763	-0,769394	9,773432	2020-10-13T23:02:58:048
0,242181	-0,769525	9,773411	2020-10-13T23:02:58:073
0,321133	-0,776470	9,770586	2020-10-13T23:02:58:088
0,321296	-0,780960	9,770223	2020-10-13T23:02:58:111
0,320464	-0,784314	9,769981	2020-10-13T23:02:58:128
0,319445	-0,784977	9,769961	2020-10-13T23:02:58:149
0,320405	-0,783462	9,770052	2020-10-13T23:02:58:168
0,318344	-0,779281	9,770453	2020-10-13T23:02:58:189
0,314477	-0,781852	9,770373	2020-10-13T23:02:58:208
0,314983	-0,789297	9,769758	2020-10-13T23:02:58:229
0,314782	-0,795615	9,769253	2020-10-13T23:02:58:248
0,314318	-0,797561	9,769109	2020-10-13T23:02:58:269
0,309914	-0,794391	9,769507	2020-10-13T23:02:58:288
0,279602	-0,785565	9,771135	2020-10-13T23:02:58:312
0,281819	-0,802100	9,769729	2020-10-13T23:02:58:328
0,282181	-0,804536	9,769518	2020-10-13T23:02:58:349
0,283664	-0,804977	9,769439	2020-10-13T23:02:58:368
0,287428	-0,834068	9,766888	2020-10-13T23:02:58:390
0,253596	-0,842905	9,767066	2020-10-13T23:02:58:409
0,252290	-0,846135	9,766821	2020-10-13T23:02:58:429
0,252615	-0,844036	9,766994	2020-10-13T23:02:58:448
0,253697	-0,841182	9,767212	2020-10-13T23:02:58:469
0,253122	-0,835866	9,767684	2020-10-13T23:02:58:488
0,256261	-0,834709	9,767700	2020-10-13T23:02:58:512
0,334514	-0,830461	9,765697	2020-10-13T23:02:58:549
0,333571	-0,828145	9,765925	2020-10-13T23:02:58:553
0,272653	-0,805896	9,769676	2020-10-13T23:02:58:570
0,228636	-0,795877	9,771626	2020-10-13T23:02:58:597
0,233677	-0,795583	9,771531	2020-10-13T23:02:58:609
0,310969	-0,754523	9,772635	2020-10-13T23:02:58:629
0,311926	-0,759870	9,772189	2020-10-13T23:02:58:647
0,309183	-0,764685	9,771901	2020-10-13T23:02:58:670
0,366283	-0,824201	9,765086	2020-10-13T23:02:58:689
0,323121	-0,802979	9,768377	2020-10-13T23:02:58:710
0,319871	-0,802626	9,768514	2020-10-13T23:02:58:728
0,317254	-0,802169	9,768637	2020-10-13T23:02:58:750
0,316817	-0,800737	9,768768	2020-10-13T23:02:58:769
0,315947	-0,799693	9,768882	2020-10-13T23:02:58:792
0,311386	-0,799561	9,769039	2020-10-13T23:02:58:808
0,310818	-0,800679	9,768966	2020-10-13T23:02:58:830
0,309569	-0,798977	9,769145	2020-10-13T23:02:58:848
0,310982	-0,801738	9,768873	2020-10-13T23:02:58:870
0,311880	-0,801278	9,768883	2020-10-13T23:02:58:888
0,312511	-0,799634	9,768997	2020-10-13T23:02:58:910
0,275968	-0,812467	9,769039	2020-10-13T23:02:58:928
0,225977	-0,788514	9,772285	2020-10-13T23:02:58:951
0,229406	-0,789268	9,772144	2020-10-13T23:02:58:969
0,233901	-0,794241	9,771635	2020-10-13T23:02:58:990
0,323446	-0,786464	9,769711	2020-10-13T23:02:59:009
0,324074	-0,782239	9,770029	2020-10-13T23:02:59:032
0,281000	-0,797366	9,770140	2020-10-13T23:02:59:049
0,281455	-0,801645	9,769776	2020-10-13T23:02:59:070
0,281045	-0,798457	9,770049	2020-10-13T23:02:59:089
0,280907	-0,797088	9,770165	2020-10-13T23:02:59:110
0,279573	-0,796771	9,770229	2020-10-13T23:02:59:128
0,281464	-0,796809	9,770172	2020-10-13T23:02:59:151
0,281572	-0,793256	9,770458	2020-10-13T23:02:59:168
0,283755	-0,789430	9,770704	2020-10-13T23:02:59:190
0,283487	-0,788349	9,770800	2020-10-13T23:02:59:208
0,285820	-0,787616	9,770791	2020-10-13T23:02:59:230
0,286450	-0,789855	9,770592	2020-10-13T23:02:59:249
0,285773	-0,787679	9,770787	2020-10-13T23:02:59:272
0,334143	-0,734750	9,773376	2020-10-13T23:02:59:289
0,313780	-0,783251	9,770284	2020-10-13T23:02:59:310
0,311636	-0,782528	9,770411	2020-10-13T23:02:59:328
0,311676	-0,782727	9,770393	2020-10-13T23:02:59:351
0,312056	-0,781853	9,770451	2020-10-13T23:02:59:368
0,312660	-0,779343	9,770632	2020-10-13T23:02:59:391
0,313505	-0,783266	9,770291	2020-10-13T23:02:59:409
0,314700	-0,780925	9,770440	2020-10-13T23:02:59:430
0,314329	-0,784405	9,770173	2020-10-13T23:02:59:450
0,314209	-0,784668	9,770156	2020-10-13T23:02:59:471
0,312324	-0,785839	9,770123	2020-10-13T23:02:59:489
0,312168	-0,782117	9,770426	2020-10-13T23:02:59:512
0,315232	-0,757497	9,772267	2020-10-13T23:02:59:529
0,313728	-0,742410	9,773474	2020-10-13T23:02:59:551
0,313405	-0,746963	9,773137	2020-10-13T23:02:59:569
0,311954	-0,743637	9,773438	2020-10-13T23:02:59:591
0,310009	-0,742202	9,773608	2020-10-13T23:02:59:609
0,311179	-0,740790	9,773678	2020-10-13T23:02:59:631
0,308783	-0,746639	9,773309	2020-10-13T23:02:59:649
0,308835	-0,746747	9,773299	2020-10-13T23:02:59:671
0,308492	-0,744973	9,773445	2020-10-13T23:02:59:689
0,309711	-0,745452	9,773370	2020-10-13T23:02:59:711
0,309068	-0,745343	9,773398	2020-10-13T23:02:59:729
0,288049	-0,761251	9,772815	2020-10-13T23:02:59:754
0,217681	-0,736767	9,776511	2020-10-13T23:02:59:769
0,219495	-0,743595	9,775954	2020-10-13T23:02:59:792
0,223052	-0,747335	9,775588	2020-10-13T23:02:59:809
0,225191	-0,746746	9,775584	2020-10-13T23:02:59:831
0,225798	-0,747896	9,775482	2020-10-13T23:02:59:849
0,228942	-0,748977	9,775327	2020-10-13T23:02:59:871
0,228252	-0,749444	9,775307	2020-10-13T23:02:59:889
0,231655	-0,745462	9,775531	2020-10-13T23:02:59:911
0,232643	-0,744940	9,775547	2020-10-13T23:02:59:929
0,235117	-0,751445	9,774990	2020-10-13T23:02:59:951
0,241610	-0,756561	9,774437	2020-10-13T23:02:59:969
0,357875	-0,822078	9,765577	2020-10-13T23:02:59:994
0,291386	-0,797097	9,769857	2020-10-13T23:03:00:009
0,292391	-0,789830	9,770417	2020-10-13T23:03:00:031
0,324025	-0,736294	9,773601	2020-10-13T23:03:00:051
0,293846	-0,833366	9,766757	2020-10-13T23:03:00:071
0,292534	-0,832951	9,766831	2020-10-13T23:03:00:089
0,292597	-0,824262	9,767567	2020-10-13T23:03:00:111
0,291832	-0,821684	9,767807	2020-10-13T23:03:00:129
0,292271	-0,820084	9,767928	2020-10-13T23:03:00:151
0,293579	-0,815774	9,768250	2020-10-13T23:03:00:170
0,294817	-0,812827	9,768458	2020-10-13T23:03:00:191
0,295230	-0,806931	9,768935	2020-10-13T23:03:00:209
0,341329	-0,757873	9,771361	2020-10-13T23:03:00:234
0,338214	-0,808355	9,767424	2020-10-13T23:03:00:250
0,337641	-0,809503	9,767348	2020-10-13T23:03:00:271
0,337611	-0,812556	9,767096	2020-10-13T23:03:00:290
0,336748	-0,813257	9,767067	2020-10-13T23:03:00:311
0,333990	-0,814569	9,767053	2020-10-13T23:03:00:330
0,333186	-0,811617	9,767325	2020-10-13T23:03:00:352
0,331428	-0,810860	9,767448	2020-10-13T23:03:00:370
0,330654	-0,808286	9,767688	2020-10-13T23:03:00:391
0,327366	-0,803617	9,768184	2020-10-13T23:03:00:411
0,326510	-0,801944	9,768350	2020-10-13T23:03:00:431
0,326610	-0,798124	9,768660	2020-10-13T23:03:00:451
0,331911	-0,810000	9,767503	2020-10-13T23:03:00:474
0,328279	-0,809656	9,767654	2020-10-13T23:03:00:490
0,247473	-0,848135	9,766770	2020-10-13T23:03:00:511
0,249588	-0,836082	9,767756	2020-10-13T23:03:00:532
0,254227	-0,827063	9,768404	2020-10-13T23:03:00:552
0,257282	-0,822204	9,768734	2020-10-13T23:03:00:570
0,331362	-0,855067	9,763680	2020-10-13T23:03:00:592
0,254674	-0,761619	9,773713	2020-10-13T23:03:00:610
0,257720	-0,759576	9,773792	2020-10-13T23:03:00:631
0,257970	-0,759398	9,773799	2020-10-13T23:03:00:651
0,258879	-0,760404	9,773697	2020-10-13T23:03:00:672
0,261869	-0,759841	9,773661	2020-10-13T23:03:00:690
0,264065	-0,760674	9,773538	2020-10-13T23:03:00:714
0,264825	-0,759279	9,773625	2020-10-13T23:03:00:730
0,269996	-0,757264	9,773640	2020-10-13T23:03:00:752
0,271851	-0,758408	9,773499	2020-10-13T23:03:00:770
0,270656	-0,758188	9,773550	2020-10-13T23:03:00:792
0,272697	-0,757156	9,773573	2020-10-13T23:03:00:810
0,273292	-0,758822	9,773428	2020-10-13T23:03:00:832
0,275972	-0,758402	9,773385	2020-10-13T23:03:00:851
0,275416	-0,754655	9,773690	2020-10-13T23:03:00:872
0,275520	-0,753328	9,773790	2020-10-13T23:03:00:891
0,278591	-0,756427	9,773463	2020-10-13T23:03:00:912
0,280410	-0,759106	9,773204	2020-10-13T23:03:00:930
0,341776	-0,741843	9,772576	2020-10-13T23:03:00:955
0,338499	-0,741424	9,772722	2020-10-13T23:03:00:970
0,271990	-0,741354	9,774804	2020-10-13T23:03:00:992
0,270169	-0,739173	9,775020	2020-10-13T23:03:01:010
0,271484	-0,741364	9,774817	2020-10-13T23:03:01:032
0,274756	-0,743308	9,774578	2020-10-13T23:03:01:051
0,276361	-0,744247	9,774462	2020-10-13T23:03:01:072
0,279644	-0,746707	9,774180	2020-10-13T23:03:01:090
0,279378	-0,745779	9,774260	2020-10-13T23:03:01:112
0,279324	-0,745283	9,774299	2020-10-13T23:03:01:131
0,282287	-0,746777	9,774099	2020-10-13T23:03:01:152
0,281552	-0,747865	9,774037	2020-10-13T23:03:01:171
0,215474	-0,736478	9,776582	2020-10-13T23:03:01:195
0,214181	-0,753245	9,775332	2020-10-13T23:03:01:210
0,219259	-0,754024	9,775160	2020-10-13T23:03:01:232
0,224186	-0,751612	9,775234	2020-10-13T23:03:01:251
0,227912	-0,747069	9,775496	2020-10-13T23:03:01:272
0,228618	-0,744891	9,775646	2020-10-13T23:03:01:291
0,231081	-0,748294	9,775329	2020-10-13T23:03:01:312
0,234788	-0,746827	9,775352	2020-10-13T23:03:01:331
0,239480	-0,744623	9,775407	2020-10-13T23:03:01:352
0,344106	-0,744253	9,772311	2020-10-13T23:03:01:371
0,333833	-0,778144	9,770027	2020-10-13T23:03:01:392
0,331792	-0,776127	9,770257	2020-10-13T23:03:01:411
0,330374	-0,774907	9,770402	2020-10-13T23:03:01:434
0,328238	-0,775180	9,770452	2020-10-13T23:03:01:451
0,327708	-0,772213	9,770705	2020-10-13T23:03:01:472
0,326593	-0,771272	9,770817	2020-10-13T23:03:01:491
0,326200	-0,770349	9,770903	2020-10-13T23:03:01:512
0,325454	-0,771211	9,770860	2020-10-13T23:03:01:531
0,322863	-0,770275	9,771019	2020-10-13T23:03:01:553
0,321939	-0,772249	9,770894	2020-10-13T23:03:01:571
0,317186	-0,771296	9,771125	2020-10-13T23:03:01:592
0,315416	-0,770522	9,771243	2020-10-13T23:03:01:611
0,315118	-0,770456	9,771258	2020-10-13T23:03:01:632
0,313127	-0,772087	9,771194	2020-10-13T23:03:01:651
0,312604	-0,774647	9,771008	2020-10-13T23:03:01:677
0,313161	-0,778730	9,770665	2020-10-13T23:03:01:691
0,312507	-0,776977	9,770825	2020-10-13T23:03:01:712
0,310724	-0,774744	9,771060	2020-10-13T23:03:01:731
0,313437	-0,771292	9,771246	2020-10-13T23:03:01:753
0,311874	-0,773095	9,771153	2020-10-13T23:03:01:771
0,313934	-0,775878	9,770867	2020-10-13T23:03:01:793
0,315191	-0,780840	9,770432	2020-10-13T23:03:01:811
0,316665	-0,780500	9,770411	2020-10-13T23:03:01:833
0,314911	-0,780986	9,770429	2020-10-13T23:03:01:851
0,314036	-0,779112	9,770606	2020-10-13T23:03:01:873
0,313412	-0,779721	9,770577	2020-10-13T23:03:01:891
0,306223	-0,833892	9,766332	2020-10-13T23:03:01:916
0,301141	-0,710692	9,776227	2020-10-13T23:03:01:931
0,302824	-0,712183	9,776067	2020-10-13T23:03:01:953
0,301890	-0,719359	9,775570	2020-10-13T23:03:01:972
0,298754	-0,722752	9,775416	2020-10-13T23:03:01:993
0,270937	-0,836885	9,767118	2020-10-13T23:03:02:012
0,273560	-0,784686	9,771378	2020-10-13T23:03:02:033
0,274321	-0,784110	9,771402	2020-10-13T23:03:02:052
0,275647	-0,783897	9,771382	2020-10-13T23:03:02:075
0,288549	-0,848858	9,765580	2020-10-13T23:03:02:092
0,343103	-0,803772	9,767631	2020-10-13T23:03:02:113
0,341171	-0,804669	9,767625	2020-10-13T23:03:02:131
0,336681	-0,802032	9,767998	2020-10-13T23:03:02:155
0,332685	-0,801709	9,768161	2020-10-13T23:03:02:172
0,331076	-0,803789	9,768044	2020-10-13T23:03:02:193
0,329548	-0,801655	9,768271	2020-10-13T23:03:02:212
0,327238	-0,799894	9,768494	2020-10-13T23:03:02:233
0,327914	-0,800593	9,768414	2020-10-13T23:03:02:252
0,325905	-0,804218	9,768183	2020-10-13T23:03:02:273
0,326180	-0,809082	9,767773	2020-10-13T23:03:02:292
0,324252	-0,811294	9,767653	2020-10-13T23:03:02:313
0,321455	-0,810990	9,767771	2020-10-13T23:03:02:333
0,319707	-0,808696	9,768019	2020-10-13T23:03:02:353
0,319229	-0,808747	9,768030	2020-10-13T23:03:02:371
0,336820	-0,828134	9,765815	2020-10-13T23:03:02:397
0,264399	-0,824445	9,768355	2020-10-13T23:03:02:412
0,265084	-0,825155	9,768277	2020-10-13T23:03:02:433
0,264025	-0,819746	9,768761	2020-10-13T23:03:02:452
0,264490	-0,816194	9,769046	2020-10-13T23:03:02:473
0,266948	-0,818093	9,768820	2020-10-13T23:03:02:492
0,268152	-0,821150	9,768531	2020-10-13T23:03:02:514
0,267556	-0,820663	9,768588	2020-10-13T23:03:02:532
0,270511	-0,813849	9,769076	2020-10-13T23:03:02:554
0,270869	-0,811822	9,769236	2020-10-13T23:03:02:572
0,273335	-0,807214	9,769548	2020-10-13T23:03:02:594
0,278908	-0,812774	9,768930	2020-10-13T23:03:02:612
0,283269	-0,813870	9,768713	2020-10-13T23:03:02:635
0,284224	-0,816311	9,768482	2020-10-13T23:03:02:652
0,285173	-0,815945	9,768485	2020-10-13T23:03:02:673
0,286213	-0,815204	9,768517	2020-10-13T23:03:02:692
0,284686	-0,815172	9,768563	2020-10-13T23:03:02:713
0,282277	-0,811911	9,768905	2020-10-13T23:03:02:732
0,281171	-0,810832	9,769027	2020-10-13T23:03:02:754
0,283290	-0,812077	9,768862	2020-10-13T23:03:02:772
0,284356	-0,815686	9,768530	2020-10-13T23:03:02:794
0,286254	-0,819212	9,768180	2020-10-13T23:03:02:813
0,288386	-0,822403	9,767849	2020-10-13T23:03:02:833
0,290367	-0,824189	9,767640	2020-10-13T23:03:02:853
0,291850	-0,829098	9,767179	2020-10-13T23:03:02:875
0,286641	-0,865655	9,764162	2020-10-13T23:03:02:893
0,291515	-0,845871	9,765752	2020-10-13T23:03:02:914
0,289528	-0,843938	9,765978	2020-10-13T23:03:02:933
0,294232	-0,846059	9,765654	2020-10-13T23:03:02:954
0,294285	-0,844384	9,765798	2020-10-13T23:03:02:972
0,294401	-0,842321	9,765972	2020-10-13T23:03:02:994
0,297672	-0,840733	9,766009	2020-10-13T23:03:03:013
0,296204	-0,839372	9,766171	2020-10-13T23:03:03:034
0,298117	-0,840455	9,766020	2020-10-13T23:03:03:053
0,316711	-0,929788	9,757335	2020-10-13T23:03:03:075
0,316604	-0,925337	9,757761	2020-10-13T23:03:03:093
0,230676	-0,896272	9,762882	2020-10-13T23:03:03:115
0,298948	-0,881811	9,762347	2020-10-13T23:03:03:133
0,303682	-0,809819	9,768436	2020-10-13T23:03:03:154
0,303178	-0,808949	9,768524	2020-10-13T23:03:03:173
0,305274	-0,811761	9,768226	2020-10-13T23:03:03:194
0,281090	-0,921768	9,759187	2020-10-13T23:03:03:213
0,280984	-0,915256	9,759802	2020-10-13T23:03:03:235
0,284362	-0,906982	9,760477	2020-10-13T23:03:03:253
0,278345	-0,789443	9,770859	2020-10-13T23:03:03:277
0,281301	-0,794161	9,770392	2020-10-13T23:03:03:293
0,282899	-0,793983	9,770360	2020-10-13T23:03:03:314
0,282184	-0,796234	9,770198	2020-10-13T23:03:03:333
0,283025	-0,792858	9,770448	2020-10-13T23:03:03:356
0,325075	-0,866732	9,762862	2020-10-13T23:03:03:373
0,260207	-0,891450	9,762581	2020-10-13T23:03:03:395
0,260715	-0,892135	9,762506	2020-10-13T23:03:03:413
0,262127	-0,893753	9,762320	2020-10-13T23:03:03:435
0,263427	-0,890337	9,762596	2020-10-13T23:03:03:453
0,267533	-0,892070	9,762326	2020-10-13T23:03:03:475
0,271418	-0,888799	9,762518	2020-10-13T23:03:03:493
0,405185	-0,821126	9,763809	2020-10-13T23:03:03:515
0,401869	-0,824267	9,763681	2020-10-13T23:03:03:533
0,290327	-0,820594	9,767943	2020-10-13T23:03:03:554
0,292086	-0,823480	9,767648	2020-10-13T23:03:03:572
0,292187	-0,827169	9,767333	2020-10-13T23:03:03:596
0,293299	-0,826200	9,767382	2020-10-13T23:03:03:613
0,294712	-0,828985	9,767103	2020-10-13T23:03:03:634
0,313002	-0,910425	9,759280	2020-10-13T23:03:03:654
0,323847	-0,913969	9,758595	2020-10-13T23:03:03:674
0,323597	-0,910577	9,758920	2020-10-13T23:03:03:693
0,323452	-0,905271	9,759418	2020-10-13T23:03:03:714
0,321934	-0,906126	9,759389	2020-10-13T23:03:03:733
0,339350	-0,909877	9,758451	2020-10-13T23:03:03:755
0,280780	-0,859139	9,764908	2020-10-13T23:03:03:773
0,279158	-0,859136	9,764955	2020-10-13T23:03:03:794
0,277791	-0,852749	9,765553	2020-10-13T23:03:03:813
0,319279	-0,851285	9,764413	2020-10-13T23:03:03:837
0,286343	-0,861436	9,764544	2020-10-13T23:03:03:854
0,288046	-0,860196	9,764604	2020-10-13T23:03:03:874
0,289947	-0,857364	9,764796	2020-10-13T23:03:03:895
0,291663	-0,855646	9,764895	2020-10-13T23:03:03:915
0,290989	-0,859442	9,764583	2020-10-13T23:03:03:933
0,291726	-0,861159	9,764409	2020-10-13T23:03:03:955
0,293975	-0,862152	9,764254	2020-10-13T23:03:03:973
0,297347	-0,865497	9,763856	2020-10-13T23:03:03:995
0,297198	-0,862202	9,764152	2020-10-13T23:03:04:013
0,297355	-0,861051	9,764249	2020-10-13T23:03:04:035
0,296459	-0,864456	9,763975	2020-10-13T23:03:04:054
0,299302	-0,867209	9,763644	2020-10-13T23:03:04:088
0,300319	-0,869979	9,763367	2020-10-13T23:03:04:097
0,301939	-0,871904	9,763145	2020-10-13T23:03:04:115
0,303442	-0,873022	9,762999	2020-10-13T23:03:04:133
0,304364	-0,868225	9,763397	2020-10-13T23:03:04:155
0,301136	-0,863601	9,763907	2020-10-13T23:03:04:173
0,300439	-0,865322	9,763777	2020-10-13T23:03:04:195
0,298205	-0,865627	9,763819	2020-10-13T23:03:04:213
0,297890	-0,867611	9,763652	2020-10-13T23:03:04:235
0,291935	-0,938894	9,757236	2020-10-13T23:03:04:254
0,348982	-0,895319	9,759457	2020-10-13T23:03:04:275
0,343288	-0,893601	9,759816	2020-10-13T23:03:04:293
0,339623	-0,893763	9,759930	2020-10-13T23:03:04:317
0,338494	-0,890259	9,760289	2020-10-13T23:03:04:334
0,337959	-0,886318	9,760667	2020-10-13T23:03:04:356
0,335638	-0,885258	9,760842	2020-10-13T23:03:04:373
0,334472	-0,885979	9,760818	2020-10-13T23:03:04:395
0,334665	-0,883593	9,761027	2020-10-13T23:03:04:414
0,331973	-0,884589	9,761028	2020-10-13T23:03:04:436
0,331408	-0,879732	9,761487	2020-10-13T23:03:04:454
0,329019	-0,872222	9,762241	2020-10-13T23:03:04:476
0,328274	-0,873112	9,762187	2020-10-13T23:03:04:495
0,327971	-0,871119	9,762375	2020-10-13T23:03:04:516
0,330476	-0,872537	9,762164	2020-10-13T23:03:04:540
0,345494	-0,887448	9,760300	2020-10-13T23:03:04:558
0,294111	-0,870280	9,763529	2020-10-13T23:03:04:574
0,296968	-0,867597	9,763681	2020-10-13T23:03:04:595
0,283234	-0,845932	9,765990	2020-10-13T23:03:04:614
0,296750	-0,890251	9,761648	2020-10-13T23:03:04:635
0,294414	-0,888129	9,761912	2020-10-13T23:03:04:654
0,276184	-0,868592	9,764203	2020-10-13T23:03:04:676
0,240549	-0,827490	9,768714	2020-10-13T23:03:04:693
0,242865	-0,831702	9,768299	2020-10-13T23:03:04:716
0,244873	-0,835590	9,767918	2020-10-13T23:03:04:734
0,246033	-0,835737	9,767876	2020-10-13T23:03:04:756
0,249237	-0,836915	9,767694	2020-10-13T23:03:04:774
0,250537	-0,838670	9,767509	2020-10-13T23:03:04:797
0,252077	-0,840487	9,767314	2020-10-13T23:03:04:814
0,252871	-0,835664	9,767707	2020-10-13T23:03:04:836
0,253086	-0,829791	9,768203	2020-10-13T23:03:04:854
0,254001	-0,826815	9,768431	2020-10-13T23:03:04:876
0,253775	-0,830635	9,768113	2020-10-13T23:03:04:894
0,256784	-0,836901	9,767499	2020-10-13T23:03:04:916
0,258031	-0,840081	9,767194	2020-10-13T23:03:04:934
0,317753	-0,840518	9,765395	2020-10-13T23:03:04:957
0,229138	-0,887610	9,763710	2020-10-13T23:03:04:974
0,230706	-0,886586	9,763766	2020-10-13T23:03:04:996
0,237473	-0,886232	9,763636	2020-10-13T23:03:05:014
0,242261	-0,882729	9,763836	2020-10-13T23:03:05:037
0,337695	-0,773222	9,770286	2020-10-13T23:03:05:055
0,242622	-0,843170	9,767323	2020-10-13T23:03:05:075
0,244478	-0,842957	9,767294	2020-10-13T23:03:05:095
0,248940	-0,841461	9,767311	2020-10-13T23:03:05:116
0,250230	-0,837606	9,767609	2020-10-13T23:03:05:134
0,249983	-0,841541	9,767277	2020-10-13T23:03:05:157
0,248468	-0,847468	9,766804	2020-10-13T23:03:05:174
0,251773	-0,863010	9,765358	2020-10-13T23:03:05:196
0,135715	-0,995870	9,755010	2020-10-13T23:03:05:215
0,210899	-0,968216	9,756457	2020-10-13T23:03:05:237
0,212177	-0,964600	9,756788	2020-10-13T23:03:05:255
0,288181	-0,818421	9,768189	2020-10-13T23:03:05:279
0,252265	-0,956206	9,756660	2020-10-13T23:03:05:295
0,252128	-0,951485	9,757125	2020-10-13T23:03:05:317
0,250078	-0,945274	9,757782	2020-10-13T23:03:05:335
0,252209	-0,943518	9,757896	2020-10-13T23:03:05:357
0,253974	-0,948518	9,757366	2020-10-13T23:03:05:375
0,254465	-0,949475	9,757260	2020-10-13T23:03:05:397
0,256307	-0,949457	9,757214	2020-10-13T23:03:05:415
0,254621	-0,943195	9,757865	2020-10-13T23:03:05:436
0,254419	-0,937995	9,758372	2020-10-13T23:03:05:455
0,252741	-0,936749	9,758535	2020-10-13T23:03:05:476
0,255203	-0,936037	9,758539	2020-10-13T23:03:05:495
0,258066	-0,936939	9,758377	2020-10-13T23:03:05:520
0,262660	-0,936391	9,758307	2020-10-13T23:03:05:535
0,265097	-0,934601	9,758413	2020-10-13T23:03:05:557
0,266106	-0,925975	9,759208	2020-10-13T23:03:05:575
0,268472	-0,925771	9,759163	2020-10-13T23:03:05:597
0,267543	-0,924924	9,759269	2020-10-13T23:03:05:615
0,266573	-0,920784	9,759686	2020-10-13T23:03:05:637
0,268820	-0,920623	9,759640	2020-10-13T23:03:05:655
0,267419	-0,924017	9,759357	2020-10-13T23:03:05:677
0,266464	-0,930139	9,758802	2020-10-13T23:03:05:695
0,268092	-0,931742	9,758605	2020-10-13T23:03:05:717
0,266290	-0,929376	9,758880	2020-10-13T23:03:05:735
0,264921	-0,924740	9,759357	2020-10-13T23:03:05:759
0,263734	-0,921205	9,759724	2020-10-13T23:03:05:775
0,263290	-0,922351	9,759627	2020-10-13T23:03:05:796
0,263074	-0,924937	9,759389	2020-10-13T23:03:05:816
0,263069	-0,925967	9,759291	2020-10-13T23:03:05:837
0,261416	-0,926792	9,759257	2020-10-13T23:03:05:855
0,264034	-0,924537	9,759400	2020-10-13T23:03:05:877
0,265514	-0,925051	9,759312	2020-10-13T23:03:05:895
0,266668	-0,927654	9,759033	2020-10-13T23:03:05:917
0,294190	-0,964735	9,754646	2020-10-13T23:03:05:936
0,208923	-0,938954	9,759359	2020-10-13T23:03:05:957
0,208906	-0,933920	9,759843	2020-10-13T23:03:05:975
0,216214	-0,933569	9,759717	2020-10-13T23:03:05:999
0,302239	-0,969252	9,753952	2020-10-13T23:03:06:016
0,305372	-0,906498	9,759887	2020-10-13T23:03:06:037
0,300993	-0,909201	9,759771	2020-10-13T23:03:06:056
0,300071	-0,912791	9,759465	2020-10-13T23:03:06:077
0,300142	-0,915401	9,759218	2020-10-13T23:03:06:095
0,298642	-0,913711	9,759422	2020-10-13T23:03:06:117
0,299841	-0,906780	9,760033	2020-10-13T23:03:06:135
0,300349	-0,905415	9,760143	2020-10-13T23:03:06:157
0,301425	-0,902824	9,760350	2020-10-13T23:03:06:175
0,302147	-0,903770	9,760241	2020-10-13T23:03:06:198
0,299957	-0,901779	9,760492	2020-10-13T23:03:06:215
0,198120	-0,904953	9,762796	2020-10-13T23:03:06:240
0,236139	-0,886726	9,763623	2020-10-13T23:03:06:256
0,237930	-0,888876	9,763384	2020-10-13T23:03:06:277
0,242983	-0,889414	9,763211	2020-10-13T23:03:06:296
0,245535	-0,887096	9,763358	2020-10-13T23:03:06:317
0,246647	-0,887929	9,763254	2020-10-13T23:03:06:335
0,250809	-0,886972	9,763235	2020-10-13T23:03:06:358
0,250606	-0,884931	9,763426	2020-10-13T23:03:06:375
0,249545	-0,885268	9,763422	2020-10-13T23:03:06:397
0,248633	-0,884591	9,763507	2020-10-13T23:03:06:416
0,248859	-0,884967	9,763467	2020-10-13T23:03:06:437
0,251691	-0,885413	9,763354	2020-10-13T23:03:06:456
0,254791	-0,885727	9,763245	2020-10-13T23:03:06:479
0,256447	-0,888937	9,762910	2020-10-13T23:03:06:495
0,259177	-0,892921	9,762474	2020-10-13T23:03:06:517
0,260523	-0,895777	9,762177	2020-10-13T23:03:06:536
0,262422	-0,891181	9,762547	2020-10-13T23:03:06:558
0,262679	-0,890341	9,762616	2020-10-13T23:03:06:576
0,264137	-0,889210	9,762680	2020-10-13T23:03:06:597
0,264637	-0,886916	9,762876	2020-10-13T23:03:06:616
0,267658	-0,883606	9,763093	2020-10-13T23:03:06:637
0,269704	-0,886856	9,762742	2020-10-13T23:03:06:656
0,269684	-0,885789	9,762839	2020-10-13T23:03:06:677
0,316622	-0,813516	9,767718	2020-10-13T23:03:06:696
0,218732	-0,942232	9,758829	2020-10-13T23:03:06:719
0,220378	-0,944285	9,758594	2020-10-13T23:03:06:736
0,224702	-0,937918	9,759109	2020-10-13T23:03:06:758
0,226563	-0,936039	9,759246	2020-10-13T23:03:06:776
0,228276	-0,929519	9,759830	2020-10-13T23:03:06:798
0,232216	-0,922269	9,760425	2020-10-13T23:03:06:816
0,349237	-0,766104	9,770440	2020-10-13T23:03:06:838
0,279834	-0,882923	9,762814	2020-10-13T23:03:06:856
0,282920	-0,884108	9,762617	2020-10-13T23:03:06:877
0,282919	-0,882233	9,762787	2020-10-13T23:03:06:896
0,285013	-0,880009	9,762927	2020-10-13T23:03:06:918
0,319723	-0,880813	9,761779	2020-10-13T23:03:06:936
0,318440	-0,882727	9,761648	2020-10-13T23:03:06:961
0,267602	-0,875131	9,763858	2020-10-13T23:03:06:976
0,265697	-0,877706	9,763679	2020-10-13T23:03:06:998
0,266602	-0,879616	9,763482	2020-10-13T23:03:07:016
0,268909	-0,878481	9,763521	2020-10-13T23:03:07:038
0,270395	-0,873027	9,763969	2020-10-13T23:03:07:056
0,272057	-0,874984	9,763748	2020-10-13T23:03:07:080
0,271337	-0,874810	9,763783	2020-10-13T23:03:07:096
0,270712	-0,872122	9,764041	2020-10-13T23:03:07:118
0,271192	-0,869903	9,764226	2020-10-13T23:03:07:136
0,273346	-0,872288	9,763953	2020-10-13T23:03:07:160
0,273742	-0,870439	9,764107	2020-10-13T23:03:07:176
0,279820	-0,869133	9,764051	2020-10-13T23:03:07:200
0,314395	-0,895186	9,760645	2020-10-13T23:03:07:216
0,316269	-0,895175	9,760585	2020-10-13T23:03:07:239
0,316617	-0,896109	9,760488	2020-10-13T23:03:07:257
0,319092	-0,899446	9,760100	2020-10-13T23:03:07:278
0,316661	-0,906465	9,759530	2020-10-13T23:03:07:296
0,299942	-0,930241	9,757821	2020-10-13T23:03:07:320
0,317312	-1,002416	9,750121	2020-10-13T23:03:07:337
0,319401	-0,998657	9,750439	2020-10-13T23:03:07:358
0,315416	-0,994940	9,750948	2020-10-13T23:03:07:377
0,315797	-0,987375	9,751705	2020-10-13T23:03:07:399
0,314444	-0,983696	9,752120	2020-10-13T23:03:07:417
0,314716	-0,980822	9,752401	2020-10-13T23:03:07:440
0,327999	-1,007130	9,749282	2020-10-13T23:03:07:457
0,314908	-0,930301	9,757343	2020-10-13T23:03:07:479
0,309388	-0,931199	9,757435	2020-10-13T23:03:07:497
0,308518	-0,934500	9,757147	2020-10-13T23:03:07:518
0,309303	-0,935286	9,757047	2020-10-13T23:03:07:537
0,311355	-0,934742	9,757033	2020-10-13T23:03:07:560
0,311039	-0,932764	9,757233	2020-10-13T23:03:07:577
0,262805	-0,990073	9,753003	2020-10-13T23:03:07:599
0,267557	-0,968991	9,754992	2020-10-13T23:03:07:617
0,266802	-0,967877	9,755122	2020-10-13T23:03:07:640
0,269640	-0,967678	9,755064	2020-10-13T23:03:07:657
0,375884	-0,871961	9,760572	2020-10-13T23:03:07:682
0,304946	-0,898031	9,760683	2020-10-13T23:03:07:697
0,306930	-0,899805	9,760457	2020-10-13T23:03:07:719
0,305347	-0,900270	9,760465	2020-10-13T23:03:07:737
0,304281	-0,901157	9,760416	2020-10-13T23:03:07:759
0,308901	-0,905602	9,759859	2020-10-13T23:03:07:776
0,307903	-0,910853	9,759402	2020-10-13T23:03:07:800
0,307248	-0,915519	9,758986	2020-10-13T23:03:07:817
0,309371	-0,913562	9,759103	2020-10-13T23:03:07:839
0,309328	-0,913256	9,759132	2020-10-13T23:03:07:858
0,308977	-0,913827	9,759090	2020-10-13T23:03:07:880
0,310408	-0,914759	9,758957	2020-10-13T23:03:07:897
0,317400	-1,000548	9,750310	2020-10-13T23:03:07:922
0,253395	-0,953249	9,756920	2020-10-13T23:03:07:937
0,255903	-0,956984	9,756489	2020-10-13T23:03:07:960
0,257775	-0,957404	9,756398	2020-10-13T23:03:07:977
0,258313	-0,955119	9,756608	2020-10-13T23:03:07:999
0,262653	-0,946883	9,757296	2020-10-13T23:03:08:017
0,265772	-0,944196	9,757471	2020-10-13T23:03:08:040
0,265812	-0,945389	9,757355	2020-10-13T23:03:08:057
0,266794	-0,944935	9,757372	2020-10-13T23:03:08:079
0,269332	-0,945628	9,757235	2020-10-13T23:03:08:100
0,272761	-0,945847	9,757118	2020-10-13T23:03:08:120
0,332745	-0,996733	9,750189	2020-10-13T23:03:08:137
0,332929	-0,994312	9,750430	2020-10-13T23:03:08:163
0,283618	-0,903733	9,760799	2020-10-13T23:03:08:177
0,279752	-0,903872	9,760899	2020-10-13T23:03:08:200
0,278443	-0,905521	9,760783	2020-10-13T23:03:08:217
0,278652	-0,909994	9,760361	2020-10-13T23:03:08:239
0,280918	-0,912475	9,760064	2020-10-13T23:03:08:258
0,281425	-0,912585	9,760039	2020-10-13T23:03:08:281
0,280423	-0,914190	9,759918	2020-10-13T23:03:08:297
0,281243	-0,915626	9,759760	2020-10-13T23:03:08:319
0,283476	-0,914242	9,759825	2020-10-13T23:03:08:337
0,283667	-0,917542	9,759510	2020-10-13T23:03:08:361
0,284228	-0,919224	9,759336	2020-10-13T23:03:08:377
0,323124	-1,000698	9,750107	2020-10-13T23:03:08:402
0,278189	-0,932894	9,758212	2020-10-13T23:03:08:418
0,280619	-0,936501	9,757797	2020-10-13T23:03:08:440
0,279677	-0,939287	9,757556	2020-10-13T23:03:08:458
0,281426	-0,936027	9,757819	2020-10-13T23:03:08:479
0,282326	-0,935924	9,757803	2020-10-13T23:03:08:498
0,284550	-0,937142	9,757622	2020-10-13T23:03:08:521
0,287233	-0,941913	9,757084	2020-10-13T23:03:08:538
0,283827	-0,943277	9,757051	2020-10-13T23:03:08:560
0,280156	-0,946146	9,756880	2020-10-13T23:03:08:578
0,279932	-0,950080	9,756504	2020-10-13T23:03:08:601
0,279873	-0,950238	9,756491	2020-10-13T23:03:08:618
0,273305	-0,976887	9,754045	2020-10-13T23:03:08:643
0,273568	-0,978261	9,753900	2020-10-13T23:03:08:658
0,240301	-0,987638	9,753831	2020-10-13T23:03:08:681
0,239502	-0,988684	9,753744	2020-10-13T23:03:08:698
0,243105	-0,990720	9,753448	2020-10-13T23:03:08:720
0,245185	-0,988388	9,753633	2020-10-13T23:03:08:738
0,246733	-0,985026	9,753934	2020-10-13T23:03:08:761
0,246259	-0,982913	9,754159	2020-10-13T23:03:08:778
0,247420	-0,984382	9,753982	2020-10-13T23:03:08:799
0,246436	-0,981111	9,754336	2020-10-13T23:03:08:818
0,248839	-0,979678	9,754419	2020-10-13T23:03:08:841
0,249242	-0,978077	9,754570	2020-10-13T23:03:08:859
0,303061	-0,970686	9,753784	2020-10-13T23:03:08:882
0,300102	-0,971822	9,753762	2020-10-13T23:03:08:899
0,247633	-0,985722	9,753841	2020-10-13T23:03:08:921
0,237642	-0,926958	9,759850	2020-10-13T23:03:08:939
0,279299	-0,977548	9,753808	2020-10-13T23:03:08:960
0,283504	-0,980743	9,753366	2020-10-13T23:03:08:978
0,282027	-0,983271	9,753155	2020-10-13T23:03:09:001
0,281109	-0,984567	9,753050	2020-10-13T23:03:09:018
0,282649	-0,987593	9,752700	2020-10-13T23:03:09:040
0,279437	-0,987469	9,752805	2020-10-13T23:03:09:059
0,226700	-1,046458	9,748021	2020-10-13T23:03:09:082
0,229673	-1,043791	9,748238	2020-10-13T23:03:09:101
0,221635	-1,033493	9,749521	2020-10-13T23:03:09:122
0,225746	-1,032655	9,749516	2020-10-13T23:03:09:138
0,230351	-1,028509	9,749846	2020-10-13T23:03:09:161
0,231322	-1,027482	9,749931	2020-10-13T23:03:09:179
0,235397	-1,026217	9,749967	2020-10-13T23:03:09:200
0,241276	-1,025437	9,749905	2020-10-13T23:03:09:218
0,243593	-1,022360	9,750171	2020-10-13T23:03:09:241
0,247035	-1,017682	9,750573	2020-10-13T23:03:09:259
0,249046	-1,013435	9,750964	2020-10-13T23:03:09:280
0,248876	-1,010085	9,751316	2020-10-13T23:03:09:299
0,249451	-1,005108	9,751816	2020-10-13T23:03:09:321
0,251086	-1,001580	9,752137	2020-10-13T23:03:09:338
0,234183	-0,963422	9,756401	2020-10-13T23:03:09:364
0,235855	-0,960583	9,756640	2020-10-13T23:03:09:379
0,347123	-0,985926	9,750787	2020-10-13T23:03:09:401
0,343045	-0,985208	9,751003	2020-10-13T23:03:09:419
0,338335	-0,986060	9,751082	2020-10-13T23:03:09:440
0,338994	-0,982304	9,751438	2020-10-13T23:03:09:459
0,333301	-0,983187	9,751546	2020-10-13T23:03:09:481
0,331294	-0,981740	9,751760	2020-10-13T23:03:09:499
0,329306	-0,979952	9,752007	2020-10-13T23:03:09:520
0,325850	-0,975542	9,752565	2020-10-13T23:03:09:540
0,325361	-0,974050	9,752730	2020-10-13T23:03:09:562
0,323939	-0,968502	9,753330	2020-10-13T23:03:09:579
0,322660	-0,966314	9,753590	2020-10-13T23:03:09:602
0,257779	-0,891535	9,762638	2020-10-13T23:03:09:620
0,325882	-1,001785	9,749903	2020-10-13T23:03:09:642
0,287433	-0,955072	9,755798	2020-10-13T23:03:09:660
0,278684	-0,927343	9,758727	2020-10-13T23:03:09:681
0,280698	-0,927158	9,758687	2020-10-13T23:03:09:699
0,281481	-0,926102	9,758764	2020-10-13T23:03:09:722
0,282561	-0,927891	9,758563	2020-10-13T23:03:09:739
0,284043	-0,928558	9,758457	2020-10-13T23:03:09:761
0,285886	-0,928911	9,758369	2020-10-13T23:03:09:779
0,286637	-0,927750	9,758458	2020-10-13T23:03:09:802
0,286091	-0,927543	9,758493	2020-10-13T23:03:09:819
0,287117	-0,932558	9,757986	2020-10-13T23:03:09:842
0,309058	-0,927391	9,757808	2020-10-13T23:03:09:860
0,267649	-0,983790	9,753508	2020-10-13T23:03:09:881
0,269670	-0,984695	9,753361	2020-10-13T23:03:09:900
0,271516	-0,981419	9,753639	2020-10-13T23:03:09:921
0,273754	-0,979663	9,753754	2020-10-13T23:03:09:939
0,274954	-0,979425	9,753743	2020-10-13T23:03:09:963
0,276540	-0,974145	9,754228	2020-10-13T23:03:09:979
0,281520	-0,974956	9,754004	2020-10-13T23:03:10:001
0,283829	-0,967943	9,754636	2020-10-13T23:03:10:020
0,282037	-0,964272	9,755051	2020-10-13T23:03:10:042
0,283333	-0,957613	9,755670	2020-10-13T23:03:10:060
0,294249	-0,998192	9,751278	2020-10-13T23:03:10:094
0,283650	-0,891816	9,761895	2020-10-13T23:03:10:099
0,285586	-0,890360	9,761971	2020-10-13T23:03:10:122
0,285900	-0,890722	9,761930	2020-10-13T23:03:10:140
0,285590	-0,895277	9,761521	2020-10-13T23:03:10:161
0,286635	-0,897161	9,761318	2020-10-13T23:03:10:179
0,286058	-0,894901	9,761542	2020-10-13T23:03:10:202
0,286659	-0,896612	9,761368	2020-10-13T23:03:10:220
0,326809	-0,940865	9,755939	2020-10-13T23:03:10:242
0,308919	-0,979854	9,752684	2020-10-13T23:03:10:260
0,311266	-0,976156	9,752980	2020-10-13T23:03:10:282
0,309140	-0,972844	9,753379	2020-10-13T23:03:10:300
0,305946	-0,970147	9,753748	2020-10-13T23:03:10:323
0,304486	-0,964706	9,754333	2020-10-13T23:03:10:340
0,301327	-0,966353	9,754269	2020-10-13T23:03:10:363
0,301560	-0,963452	9,754548	2020-10-13T23:03:10:380
0,300265	-0,958865	9,755040	2020-10-13T23:03:10:401
0,299167	-0,953665	9,755584	2020-10-13T23:03:10:420
0,298064	-0,950105	9,755964	2020-10-13T23:03:10:443
0,329045	-0,848002	9,764375	2020-10-13T23:03:10:461
0,293634	-0,859239	9,764521	2020-10-13T23:03:10:481
0,295085	-0,861626	9,764267	2020-10-13T23:03:10:500
0,294711	-0,864078	9,764062	2020-10-13T23:03:10:523
0,308713	-0,891117	9,761198	2020-10-13T23:03:10:540
0,326645	-0,939104	9,756115	2020-10-13T23:03:10:564
0,325149	-0,937592	9,756310	2020-10-13T23:03:10:580
0,322320	-0,935675	9,756588	2020-10-13T23:03:10:602
0,319307	-0,932388	9,757002	2020-10-13T23:03:10:620
0,317182	-0,928138	9,757476	2020-10-13T23:03:10:641
0,322135	-0,902058	9,759760	2020-10-13T23:03:10:661
0,347511	-0,871192	9,761693	2020-10-13T23:03:10:683
0,346555	-0,876106	9,761287	2020-10-13T23:03:10:700
0,345641	-0,881179	9,760862	2020-10-13T23:03:10:721
0,344977	-0,879422	9,761045	2020-10-13T23:03:10:740
0,342855	-0,879270	9,761133	2020-10-13T23:03:10:764
0,338835	-0,881253	9,761095	2020-10-13T23:03:10:780
0,338781	-0,879498	9,761254	2020-10-13T23:03:10:803
0,336464	-0,881903	9,761118	2020-10-13T23:03:10:820
0,337840	-0,877144	9,761499	2020-10-13T23:03:10:843
0,336190	-0,879202	9,761371	2020-10-13T23:03:10:861
0,283527	-0,819507	9,768234	2020-10-13T23:03:10:882
0,366426	-0,998028	9,748849	2020-10-13T23:03:10:900
0,360550	-0,991252	9,749760	2020-10-13T23:03:10:924
0,356813	-0,986952	9,750333	2020-10-13T23:03:10:940
0,354517	-0,985828	9,750530	2020-10-13T23:03:10:962
0,354717	-0,979690	9,751142	2020-10-13T23:03:10:980
0,355218	-0,974482	9,751645	2020-10-13T23:03:11:003
0,352404	-0,976431	9,751553	2020-10-13T23:03:11:020
0,274761	-0,928569	9,758721	2020-10-13T23:03:11:045
0,275713	-0,927292	9,758817	2020-10-13T23:03:11:061
0,325739	-0,996519	9,750447	2020-10-13T23:03:11:083
0,324573	-0,993916	9,750752	2020-10-13T23:03:11:101
0,322692	-0,993159	9,750892	2020-10-13T23:03:11:122
0,320207	-0,984714	9,751830	2020-10-13T23:03:11:140
0,314569	-0,982921	9,752194	2020-10-13T23:03:11:164
0,311159	-0,977508	9,752848	2020-10-13T23:03:11:180
0,309649	-0,976604	9,752987	2020-10-13T23:03:11:202
0,312736	-0,974734	9,753075	2020-10-13T23:03:11:221
0,312832	-0,971399	9,753405	2020-10-13T23:03:11:243
0,313632	-0,969311	9,753587	2020-10-13T23:03:11:261
0,275958	-0,904766	9,760923	2020-10-13T23:03:11:284
0,291948	-0,816017	9,768278	2020-10-13T23:03:11:301
0,292061	-0,818167	9,768095	2020-10-13T23:03:11:323
0,287960	-0,823283	9,767787	2020-10-13T23:03:11:341
0,290560	-0,830891	9,767066	2020-10-13T23:03:11:362
0,293272	-0,838451	9,766339	2020-10-13T23:03:11:380
0,294027	-0,841671	9,766039	2020-10-13T23:03:11:404
0,293504	-0,838097	9,766362	2020-10-13T23:03:11:421
0,295673	-0,841304	9,766021	2020-10-13T23:03:11:442
0,294879	-0,847402	9,765518	2020-10-13T23:03:11:461
0,295357	-0,853745	9,764951	2020-10-13T23:03:11:484
0,294981	-0,856267	9,764742	2020-10-13T23:03:11:501
0,293858	-0,858072	9,764617	2020-10-13T23:03:11:524
0,260327	-1,041778	9,747683	2020-10-13T23:03:11:541
0,340435	-0,992536	9,750352	2020-10-13T23:03:11:564
0,278940	-0,994442	9,752110	2020-10-13T23:03:11:582
0,211996	-0,966029	9,756651	2020-10-13T23:03:11:602
0,217125	-0,964059	9,756733	2020-10-13T23:03:11:620
0,220054	-0,958148	9,757249	2020-10-13T23:03:11:644
0,221835	-0,956294	9,757391	2020-10-13T23:03:11:661
0,223977	-0,953117	9,757652	2020-10-13T23:03:11:682
0,226867	-0,957526	9,757154	2020-10-13T23:03:11:701
0,227626	-0,955666	9,757319	2020-10-13T23:03:11:724
0,231882	-0,952998	9,757480	2020-10-13T23:03:11:741
0,233930	-0,949416	9,757780	2020-10-13T23:03:11:765
0,234890	-0,944583	9,758226	2020-10-13T23:03:11:781
0,239848	-0,943925	9,758169	2020-10-13T23:03:11:803
0,273589	-0,950678	9,756626	2020-10-13T23:03:11:822
0,292463	-0,983740	9,752800	2020-10-13T23:03:11:843
0,292971	-0,986256	9,752530	2020-10-13T23:03:11:861
0,291550	-0,987714	9,752425	2020-10-13T23:03:11:884
0,291352	-0,990483	9,752151	2020-10-13T23:03:11:901
0,294888	-0,992121	9,751878	2020-10-13T23:03:11:923
0,294447	-0,992241	9,751879	2020-10-13T23:03:11:941
0,291280	-0,988339	9,752370	2020-10-13T23:03:11:965
0,290305	-0,991613	9,752067	2020-10-13T23:03:11:981
0,289439	-0,992716	9,751981	2020-10-13T23:03:12:004
0,264740	-0,984736	9,753491	2020-10-13T23:03:12:021
0,282483	-0,986296	9,752836	2020-10-13T23:03:12:044
0,281519	-0,987322	9,752760	2020-10-13T23:03:12:062
0,281980	-0,987909	9,752687	2020-10-13T23:03:12:083
0,282204	-0,987064	9,752767	2020-10-13T23:03:12:101
0,283618	-0,984835	9,752951	2020-10-13T23:03:12:124
0,283567	-0,980770	9,753362	2020-10-13T23:03:12:141
0,283166	-0,978643	9,753587	2020-10-13T23:03:12:163
0,283090	-0,975944	9,753860	2020-10-13T23:03:12:181
0,282237	-0,976591	9,753819	2020-10-13T23:03:12:204
0,286706	-0,981548	9,753192	2020-10-13T23:03:12:221
0,286500	-0,982211	9,753131	2020-10-13T23:03:12:244
0,289211	-0,979889	9,753284	2020-10-13T23:03:12:261
0,290471	-0,979882	9,753248	2020-10-13T23:03:12:283
0,286956	-0,980619	9,753278	2020-10-13T23:03:12:301
0,285761	-0,980407	9,753334	2020-10-13T23:03:12:324
0,286754	-0,982610	9,753083	2020-10-13T23:03:12:342
0,288428	-0,981239	9,753172	2020-10-13T23:03:12:365
0,289823	-0,983338	9,752919	2020-10-13T23:03:12:381
0,287806	-0,978798	9,753435	2020-10-13T23:03:12:403
0,292023	-0,979024	9,753287	2020-10-13T23:03:12:422
0,292224	-0,976131	9,753572	2020-10-13T23:03:12:445
0,290786	-0,975210	9,753707	2020-10-13T23:03:12:462
0,288029	-0,970468	9,754261	2020-10-13T23:03:12:485
0,288920	-0,968812	9,754399	2020-10-13T23:03:12:501
0,292200	-0,968395	9,754343	2020-10-13T23:03:12:524
0,292089	-0,965324	9,754651	2020-10-13T23:03:12:542
0,292388	-0,964097	9,754764	2020-10-13T23:03:12:563
0,292964	-0,963259	9,754829	2020-10-13T23:03:12:581
0,293472	-0,960563	9,755079	2020-10-13T23:03:12:604
0,327114	-0,955103	9,754545	2020-10-13T23:03:12:622
0,311234	-1,032620	9,747165	2020-10-13T23:03:12:643
0,307974	-1,033598	9,747165	2020-10-13T23:03:12:662
0,304889	-1,030257	9,747615	2020-10-13T23:03:12:684
0,303482	-1,025887	9,748119	2020-10-13T23:03:12:701
0,302539	-1,022057	9,748551	2020-10-13T23:03:12:724
0,300748	-1,013051	9,749547	2020-10-13T23:03:12:742
0,301665	-1,008327	9,750009	2020-10-13T23:03:12:765
0,302454	-1,010030	9,749807	2020-10-13T23:03:12:782
0,303677	-1,004903	9,750299	2020-10-13T23:03:12:803
0,302665	-1,000993	9,750732	2020-10-13T23:03:12:821
0,298649	-0,996529	9,751314	2020-10-13T23:03:12:844
0,295721	-0,994741	9,751586	2020-10-13T23:03:12:862
0,295383	-0,994046	9,751667	2020-10-13T23:03:12:884
0,293876	-0,988653	9,752260	2020-10-13T23:03:12:902
0,292314	-0,984777	9,752700	2020-10-13T23:03:12:925
0,291973	-0,983907	9,752798	2020-10-13T23:03:12:942
0,292394	-0,982448	9,752933	2020-10-13T23:03:12:966
0,292490	-0,981578	9,753016	2020-10-13T23:03:12:982
0,291948	-0,982398	9,752951	2020-10-13T23:03:13:005
0,291916	-0,976657	9,753528	2020-10-13T23:03:13:022
0,282657	-0,932306	9,758140	2020-10-13T23:03:13:045
0,264012	-1,113650	9,739634	2020-10-13T23:03:13:062
0,265064	-1,106532	9,740417	2020-10-13T23:03:13:085
0,266861	-1,098567	9,741269	2020-10-13T23:03:13:102
0,268037	-1,088544	9,742362	2020-10-13T23:03:13:124
0,272573	-1,083911	9,742752	2020-10-13T23:03:13:142
0,272068	-1,077184	9,743512	2020-10-13T23:03:13:166
0,270985	-1,072715	9,744036	2020-10-13T23:03:13:182
0,270368	-1,065965	9,744794	2020-10-13T23:03:13:206
0,268886	-1,056317	9,745885	2020-10-13T23:03:13:222
0,271503	-1,050232	9,746470	2020-10-13T23:03:13:245
0,272383	-1,045331	9,746973	2020-10-13T23:03:13:263
0,272145	-1,038599	9,747699	2020-10-13T23:03:13:284
0,270342	-1,032609	9,748385	2020-10-13T23:03:13:302
0,274001	-1,027347	9,748839	2020-10-13T23:03:13:326
0,275759	-1,022756	9,749272	2020-10-13T23:03:13:342
0,274676	-1,018741	9,749723	2020-10-13T23:03:13:364
0,276716	-1,011321	9,750438	2020-10-13T23:03:13:383
0,279755	-1,007508	9,750746	2020-10-13T23:03:13:405
0,279044	-1,006283	9,750893	2020-10-13T23:03:13:423
0,280376	-1,010566	9,750412	2020-10-13T23:03:13:446
0,281457	-1,007094	9,750740	2020-10-13T23:03:13:463
0,282598	-1,003952	9,751031	2020-10-13T23:03:13:485
0,281300	-1,004591	9,751002	2020-10-13T23:03:13:508
0,282460	-1,000044	9,751436	2020-10-13T23:03:13:524
0,282638	-1,000057	9,751430	2020-10-13T23:03:13:542
0,283416	-0,998267	9,751591	2020-10-13T23:03:13:566
0,284804	-0,995995	9,751782	2020-10-13T23:03:13:582
0,285636	-0,992824	9,752082	2020-10-13T23:03:13:604
0,281176	-0,990642	9,752433	2020-10-13T23:03:13:623
0,279496	-0,990328	9,752513	2020-10-13T23:03:13:645
0,277860	-0,989646	9,752629	2020-10-13T23:03:13:663
0,280839	-0,987533	9,752758	2020-10-13T23:03:13:685
0,311214	-0,952500	9,755321	2020-10-13T23:03:13:704
0,297070	-0,828415	9,767080	2020-10-13T23:03:13:725
0,300466	-0,833092	9,766579	2020-10-13T23:03:13:743
0,300142	-0,839504	9,766040	2020-10-13T23:03:13:765
0,300832	-0,843065	9,765712	2020-10-13T23:03:13:783
0,301846	-0,847617	9,765286	2020-10-13T23:03:13:806
0,265024	-0,941520	9,757751	2020-10-13T23:03:13:823
0,266981	-0,938041	9,758032	2020-10-13T23:03:13:845
0,256873	-1,002375	9,751904	2020-10-13T23:03:13:864
0,257971	-0,993037	9,752831	2020-10-13T23:03:13:888
0,259616	-0,988590	9,753239	2020-10-13T23:03:13:903
0,196413	-1,022785	9,751190	2020-10-13T23:03:13:926
0,200812	-1,018666	9,751533	2020-10-13T23:03:13:943
0,205998	-1,016396	9,751660	2020-10-13T23:03:13:966
0,207920	-1,013422	9,751929	2020-10-13T23:03:13:983
0,212704	-1,007835	9,752405	2020-10-13T23:03:14:005
0,218288	-1,004179	9,752659	2020-10-13T23:03:14:023
0,293110	-0,893920	9,761423	2020-10-13T23:03:14:047
0,290981	-0,894353	9,761447	2020-10-13T23:03:14:064
0,226216	-0,991501	9,753776	2020-10-13T23:03:14:085
0,227738	-0,989374	9,753956	2020-10-13T23:03:14:103
0,231838	-0,984645	9,754338	2020-10-13T23:03:14:126
0,236276	-0,976852	9,755015	2020-10-13T23:03:14:143
0,309651	-0,920998	9,758394	2020-10-13T23:03:14:168
0,281935	-0,984384	9,753045	2020-10-13T23:03:14:183
0,281643	-0,980356	9,753459	2020-10-13T23:03:14:206
0,281623	-0,978180	9,753678	2020-10-13T23:03:14:223
0,282263	-0,971157	9,754361	2020-10-13T23:03:14:245
0,283265	-0,973494	9,754099	2020-10-13T23:03:14:263
0,285817	-0,974974	9,753877	2020-10-13T23:03:14:286
0,289936	-0,972358	9,754017	2020-10-13T23:03:14:303
0,291008	-0,969926	9,754227	2020-10-13T23:03:14:325
0,287893	-0,968949	9,754416	2020-10-13T23:03:14:343
0,283008	-0,966005	9,754851	2020-10-13T23:03:14:366
0,283497	-0,964202	9,755015	2020-10-13T23:03:14:383
0,313710	-0,989269	9,751580	2020-10-13T23:03:14:408
0,316687	-0,978852	9,752535	2020-10-13T23:03:14:424
0,319310	-0,977271	9,752608	2020-10-13T23:03:14:446
0,257511	-0,922910	9,759729	2020-10-13T23:03:14:464
0,233549	-0,890857	9,763309	2020-10-13T23:03:14:485
0,236711	-0,898554	9,762528	2020-10-13T23:03:14:504
0,240135	-0,900515	9,762263	2020-10-13T23:03:14:526
0,243757	-0,900647	9,762162	2020-10-13T23:03:14:543
0,247119	-0,904611	9,761711	2020-10-13T23:03:14:565
0,250024	-0,910559	9,761084	2020-10-13T23:03:14:584
0,254204	-0,907966	9,761217	2020-10-13T23:03:14:606
0,257000	-0,908444	9,761100	2020-10-13T23:03:14:623
0,258666	-0,908573	9,761044	2020-10-13T23:03:14:647
0,259148	-0,911499	9,760758	2020-10-13T23:03:14:664
0,258735	-0,915438	9,760400	2020-10-13T23:03:14:686
0,259089	-0,917284	9,760218	2020-10-13T23:03:14:704
0,260390	-0,922631	9,759679	2020-10-13T23:03:14:725
0,260052	-0,927059	9,759269	2020-10-13T23:03:14:743
0,263454	-0,927961	9,759091	2020-10-13T23:03:14:767
0,265427	-0,926474	9,759179	2020-10-13T23:03:14:784
0,266662	-0,926936	9,759102	2020-10-13T23:03:14:805
0,269626	-0,930058	9,758723	2020-10-13T23:03:14:824
0,269075	-0,931812	9,758571	2020-10-13T23:03:14:847
0,271720	-0,933160	9,758369	2020-10-13T23:03:14:864
0,274299	-0,934618	9,758158	2020-10-13T23:03:14:887
0,275774	-0,935123	9,758067	2020-10-13T23:03:14:904
0,277360	-0,933658	9,758162	2020-10-13T23:03:14:927
0,274854	-0,934079	9,758193	2020-10-13T23:03:14:944
0,276284	-0,938178	9,757760	2020-10-13T23:03:14:966
0,272859	-0,941851	9,757503	2020-10-13T23:03:14:984
0,272956	-0,948322	9,756873	2020-10-13T23:03:15:007
0,269838	-0,969360	9,754891	2020-10-13T23:03:15:025
0,307514	-0,917737	9,758769	2020-10-13T23:03:15:046
0,226277	-0,995715	9,753345	2020-10-13T23:03:15:065
0,297364	-1,026385	9,748256	2020-10-13T23:03:15:097
0,296818	-1,025033	9,748415	2020-10-13T23:03:15:104
0,295660	-1,023028	9,748661	2020-10-13T23:03:15:127
0,294373	-1,017556	9,749272	2020-10-13T23:03:15:144
0,292999	-1,015103	9,749569	2020-10-13T23:03:15:167
0,292797	-1,011619	9,749937	2020-10-13T23:03:15:185
0,294025	-1,012162	9,749845	2020-10-13T23:03:15:206
0,312955	-1,044243	9,745871	2020-10-13T23:03:15:224
0,316202	-0,960585	9,754367	2020-10-13T23:03:15:247
0,313783	-0,960902	9,754414	2020-10-13T23:03:15:265
0,310865	-0,959253	9,754669	2020-10-13T23:03:15:286
0,311133	-0,962455	9,754346	2020-10-13T23:03:15:305
0,309738	-0,962495	9,754386	2020-10-13T23:03:15:327
0,308303	-0,963902	9,754292	2020-10-13T23:03:15:344
0,328552	-0,962528	9,753767	2020-10-13T23:03:15:370
0,285714	-0,986794	9,752691	2020-10-13T23:03:15:384
0,284101	-0,985123	9,752908	2020-10-13T23:03:15:418
0,290294	-0,973178	9,753924	2020-10-13T23:03:15:425
0,324106	-0,981920	9,751983	2020-10-13T23:03:15:446
0,319707	-0,984658	9,751852	2020-10-13T23:03:15:465
0,314635	-0,987121	9,751768	2020-10-13T23:03:15:487
0,311115	-0,991299	9,751457	2020-10-13T23:03:15:505
0,309300	-0,994443	9,751195	2020-10-13T23:03:15:526
0,311384	-0,996071	9,750962	2020-10-13T23:03:15:545
0,308281	-0,994363	9,751235	2020-10-13T23:03:15:568
0,310190	-0,993925	9,751220	2020-10-13T23:03:15:585
0,310165	-0,992761	9,751339	2020-10-13T23:03:15:608
0,309605	-0,998802	9,750740	2020-10-13T23:03:15:624
0,305467	-0,999139	9,750835	2020-10-13T23:03:15:647
0,304523	-0,998544	9,750926	2020-10-13T23:03:15:665
0,302021	-0,994464	9,751421	2020-10-13T23:03:15:686
0,299969	-0,998185	9,751104	2020-10-13T23:03:15:705
0,301375	-1,002304	9,750638	2020-10-13T23:03:15:728
0,297998	-1,001543	9,750820	2020-10-13T23:03:15:745
0,295331	-0,999813	9,751079	2020-10-13T23:03:15:767
0,295348	-1,002821	9,750770	2020-10-13T23:03:15:785
0,294379	-1,002074	9,750875	2020-10-13T23:03:15:808
0,295650	-1,000005	9,751049	2020-10-13T23:03:15:825
0,284780	-1,024861	9,748792	2020-10-13T23:03:15:850
0,255457	-0,990498	9,753156	2020-10-13T23:03:15:865
0,257716	-0,989672	9,753180	2020-10-13T23:03:15:888
0,260310	-0,992327	9,752841	2020-10-13T23:03:15:905
0,259409	-0,989209	9,753181	2020-10-13T23:03:15:927
0,260502	-0,987058	9,753370	2020-10-13T23:03:15:945
0,263804	-0,984877	9,753502	2020-10-13T23:03:15:969
0,265216	-0,988909	9,753057	2020-10-13T23:03:15:985
0,266720	-0,987401	9,753168	2020-10-13T23:03:16:007
0,267570	-0,983654	9,753523	2020-10-13T23:03:16:025
0,272992	-0,984492	9,753288	2020-10-13T23:03:16:048
0,275465	-0,984332	9,753235	2020-10-13T23:03:16:065
0,275453	-0,984789	9,753189	2020-10-13T23:03:16:089
0,277792	-0,983308	9,753272	2020-10-13T23:03:16:105
0,277192	-0,981701	9,753451	2020-10-13T23:03:16:128
0,277333	-0,980057	9,753613	2020-10-13T23:03:16:145
0,277872	-0,980001	9,753603	2020-10-13T23:03:16:167
0,277444	-0,981186	9,753496	2020-10-13T23:03:16:185
0,277325	-0,980238	9,753594	2020-10-13T23:03:16:208
0,279088	-0,979706	9,753598	2020-10-13T23:03:16:225
0,277331	-0,983637	9,753252	2020-10-13T23:03:16:247
0,275837	-0,984733	9,753184	2020-10-13T23:03:16:266
0,273869	-0,979937	9,753722	2020-10-13T23:03:16:288
0,275635	-0,981633	9,753502	2020-10-13T23:03:16:305
0,285384	-0,973503	9,754037	2020-10-13T23:03:16:331
0,246039	-1,001042	9,752321	2020-10-13T23:03:16:345
0,248910	-0,993685	9,753000	2020-10-13T23:03:16:368
0,250772	-0,988582	9,753471	2020-10-13T23:03:16:385
0,254097	-0,987037	9,753542	2020-10-13T23:03:16:407
0,256214	-0,982571	9,753937	2020-10-13T23:03:16:426
0,260616	-0,982852	9,753793	2020-10-13T23:03:16:449
0,262748	-0,983056	9,753715	2020-10-13T23:03:16:466
0,264766	-0,983897	9,753575	2020-10-13T23:03:16:487
0,266972	-0,981983	9,753708	2020-10-13T23:03:16:506
0,266269	-0,981056	9,753820	2020-10-13T23:03:16:529
0,268096	-0,979196	9,753958	2020-10-13T23:03:16:545
0,270590	-0,977253	9,754084	2020-10-13T23:03:16:570
0,274085	-0,976618	9,754049	2020-10-13T23:03:16:585
0,272502	-0,973894	9,754366	2020-10-13T23:03:16:608
0,270543	-0,972274	9,754582	2020-10-13T23:03:16:626
0,270533	-0,969545	9,754854	2020-10-13T23:03:16:647
0,271271	-0,968467	9,754941	2020-10-13T23:03:16:665
0,272861	-0,966327	9,755109	2020-10-13T23:03:16:689
0,273959	-0,965089	9,755200	2020-10-13T23:03:16:705
0,275525	-0,966272	9,755039	2020-10-13T23:03:16:727
0,274958	-0,960309	9,755644	2020-10-13T23:03:16:745
0,276774	-0,956370	9,755980	2020-10-13T23:03:16:769
0,279797	-0,953069	9,756216	2020-10-13T23:03:16:786
0,280478	-0,955535	9,755956	2020-10-13T23:03:16:809
0,282286	-0,952387	9,756211	2020-10-13T23:03:16:826
0,283939	-0,949320	9,756462	2020-10-13T23:03:16:848
0,284094	-0,951081	9,756286	2020-10-13T23:03:16:867
0,282054	-0,949359	9,756513	2020-10-13T23:03:16:888
0,281188	-0,949722	9,756503	2020-10-13T23:03:16:906
0,279892	-0,947165	9,756788	2020-10-13T23:03:16:929
0,289709	-0,945315	9,756681	2020-10-13T23:03:16:946
0,334344	-0,940939	9,755677	2020-10-13T23:03:16:968
0,330347	-0,943208	9,755594	2020-10-13T23:03:16:986
0,326718	-0,942473	9,755787	2020-10-13T23:03:17:014
0,321739	-0,942470	9,755953	2020-10-13T23:03:17:025
0,321569	-0,945392	9,755676	2020-10-13T23:03:17:051
0,321174	-0,945176	9,755710	2020-10-13T23:03:17:067
0,316068	-0,940109	9,756366	2020-10-13T23:03:17:098
0,314329	-0,939493	9,756482	2020-10-13T23:03:17:155
0,313868	-0,937899	9,756650	2020-10-13T23:03:17:156
0,313655	-0,937708	9,756675	2020-10-13T23:03:17:156
0,313492	-0,937731	9,756679	2020-10-13T23:03:17:174
0,310386	-0,936971	9,756850	2020-10-13T23:03:17:220
0,308043	-0,937174	9,756906	2020-10-13T23:03:17:294
0,309420	-0,936637	9,756913	2020-10-13T23:03:17:294
0,307503	-0,937151	9,756925	2020-10-13T23:03:17:295
0,308365	-0,934882	9,757114	2020-10-13T23:03:17:296
0,307496	-0,938122	9,756831	2020-10-13T23:03:17:296
0,307010	-0,941607	9,756511	2020-10-13T23:03:17:305
0,305590	-0,940308	9,756680	2020-10-13T23:03:17:330
0,307040	-0,938948	9,756766	2020-10-13T23:03:17:345
0,307642	-0,937047	9,756930	2020-10-13T23:03:17:368
0,342577	-0,943362	9,755157	2020-10-13T23:03:17:386
0,338805	-0,939552	9,755656	2020-10-13T23:03:17:410
0,340088	-0,940990	9,755473	2020-10-13T23:03:17:427
0,338429	-0,943148	9,755322	2020-10-13T23:03:17:449
0,317078	-1,031110	9,747136	2020-10-13T23:03:17:467
0,314605	-1,025981	9,747757	2020-10-13T23:03:17:489
0,314521	-1,017747	9,748623	2020-10-13T23:03:17:507
0,336055	-0,872283	9,761996	2020-10-13T23:03:17:531
0,316359	-1,011866	9,749176	2020-10-13T23:03:17:546
0,315960	-1,007529	9,749638	2020-10-13T23:03:17:570
0,316596	-1,007740	9,749596	2020-10-13T23:03:17:587
0,316804	-0,998706	9,750518	2020-10-13T23:03:17:608
0,316144	-0,994292	9,750991	2020-10-13T23:03:17:631
0,317192	-0,993094	9,751079	2020-10-13T23:03:17:649
0,317566	-0,991589	9,751220	2020-10-13T23:03:17:667
0,314452	-0,986324	9,751855	2020-10-13T23:03:17:688
0,312955	-0,985946	9,751941	2020-10-13T23:03:17:707
0,312774	-0,987146	9,751825	2020-10-13T23:03:17:729
0,347150	-1,008361	9,748491	2020-10-13T23:03:17:747
0,310054	-0,946988	9,755894	2020-10-13T23:03:17:770
0,310221	-0,946188	9,755966	2020-10-13T23:03:17:787
0,306228	-0,946567	9,756056	2020-10-13T23:03:17:809
0,306495	-0,945376	9,756163	2020-10-13T23:03:17:828
0,305146	-0,942709	9,756463	2020-10-13T23:03:17:849
0,230595	-0,970165	9,755818	2020-10-13T23:03:17:868
0,276710	-0,945626	9,757029	2020-10-13T23:03:17:889
0,280446	-0,946664	9,756822	2020-10-13T23:03:17:907
0,280194	-0,947419	9,756755	2020-10-13T23:03:17:929
0,332328	-0,998806	9,749991	2020-10-13T23:03:17:948
0,301079	-0,934550	9,757374	2020-10-13T23:03:17:970
0,302366	-0,936897	9,757110	2020-10-13T23:03:17:987
0,302251	-0,941419	9,756678	2020-10-13T23:03:18:011
0,304068	-0,943832	9,756388	2020-10-13T23:03:18:028
0,325708	-1,028094	9,747169	2020-10-13T23:03:18:050
0,322543	-1,027191	9,747371	2020-10-13T23:03:18:068
0,281259	-0,963971	9,755103	2020-10-13T23:03:18:092
0,279430	-0,964372	9,755116	2020-10-13T23:03:18:108
0,281600	-0,963430	9,755147	2020-10-13T23:03:18:130
0,280891	-0,961764	9,755332	2020-10-13T23:03:18:148
0,277962	-0,964401	9,755156	2020-10-13T23:03:18:169
0,275078	-0,966982	9,754981	2020-10-13T23:03:18:188
0,275404	-0,967376	9,754933	2020-10-13T23:03:18:209
0,272769	-0,966725	9,755072	2020-10-13T23:03:18:227
0,292269	-1,024582	9,748600	2020-10-13T23:03:18:252
0,299599	-1,030619	9,747741	2020-10-13T23:03:18:267
0,295760	-1,029471	9,747979	2020-10-13T23:03:18:289
0,294853	-1,025801	9,748394	2020-10-13T23:03:18:308
0,294236	-1,020896	9,748927	2020-10-13T23:03:18:329
0,314655	-1,006359	9,749801	2020-10-13T23:03:18:348
0,315490	-1,006524	9,749757	2020-10-13T23:03:18:371
0,306244	-0,942847	9,756415	2020-10-13T23:03:18:387
0,306657	-0,945343	9,756161	2020-10-13T23:03:18:409
0,304110	-0,951631	9,755630	2020-10-13T23:03:18:428
0,305053	-0,953142	9,755452	2020-10-13T23:03:18:451
0,305642	-0,953927	9,755357	2020-10-13T23:03:18:468
0,274262	-0,944976	9,757161	2020-10-13T23:03:18:491
0,297585	-1,091947	9,741123	2020-10-13T23:03:18:507
0,295278	-1,090275	9,741381	2020-10-13T23:03:18:530
0,294453	-1,085086	9,741985	2020-10-13T23:03:18:548
0,291500	-1,079779	9,742663	2020-10-13T23:03:18:569
0,291560	-1,074257	9,743272	2020-10-13T23:03:18:587
0,291793	-1,071514	9,743567	2020-10-13T23:03:18:610
0,291450	-1,068073	9,743956	2020-10-13T23:03:18:628
0,290702	-1,064901	9,744325	2020-10-13T23:03:18:649
0,268476	-1,075612	9,743786	2020-10-13T23:03:18:668
0,266968	-1,014958	9,750332	2020-10-13T23:03:18:700
0,267272	-1,016665	9,750146	2020-10-13T23:03:18:707
0,212956	-0,982083	9,755027	2020-10-13T23:03:18:732
0,311170	-0,981755	9,752421	2020-10-13T23:03:18:748
0,311398	-0,982757	9,752313	2020-10-13T23:03:18:771
0,309541	-0,982308	9,752418	2020-10-13T23:03:18:788
0,306430	-0,986391	9,752103	2020-10-13T23:03:18:809
0,304514	-0,989812	9,751817	2020-10-13T23:03:18:828
0,302643	-0,990754	9,751780	2020-10-13T23:03:18:851
0,302105	-0,988442	9,752030	2020-10-13T23:03:18:868
0,302572	-0,987614	9,752100	2020-10-13T23:03:18:889
0,302930	-0,985646	9,752288	2020-10-13T23:03:18:908
0,301664	-0,985909	9,752300	2020-10-13T23:03:18:931
0,251447	-0,966864	9,755630	2020-10-13T23:03:18:948
0,267712	-1,053966	9,746172	2020-10-13T23:03:18:971
0,262140	-1,037615	9,748077	2020-10-13T23:03:18:988
0,270677	-1,025218	9,749156	2020-10-13T23:03:19:010
0,295537	-1,020437	9,748936	2020-10-13T23:03:19:029
0,290830	-0,999877	9,751207	2020-10-13T23:03:19:049
0,288829	-1,000584	9,751195	2020-10-13T23:03:19:069
0,273248	-1,033071	9,748256	2020-10-13T23:03:19:091
0,273186	-1,031960	9,748375	2020-10-13T23:03:19:108
0,278821	-1,029980	9,748425	2020-10-13T23:03:19:129
0,225661	-0,976819	9,755270	2020-10-13T23:03:19:149
0,288106	-0,965155	9,754786	2020-10-13T23:03:19:171
0,281376	-0,932775	9,758132	2020-10-13T23:03:19:189
0,280168	-0,934919	9,757961	2020-10-13T23:03:19:212
0,276694	-1,022566	9,749266	2020-10-13T23:03:19:228
0,276635	-1,020262	9,749509	2020-10-13T23:03:19:251
0,230061	-1,006466	9,752152	2020-10-13T23:03:19:269
0,326749	-1,004273	9,749619	2020-10-13T23:03:19:290
0,329830	-1,022697	9,747599	2020-10-13T23:03:19:308
0,262343	-1,042150	9,747589	2020-10-13T23:03:19:331
0,262028	-1,039193	9,747912	2020-10-13T23:03:19:348
0,263335	-1,037888	9,748016	2020-10-13T23:03:19:370
0,262649	-1,034345	9,748411	2020-10-13T23:03:19:389
0,265697	-1,035548	9,748201	2020-10-13T23:03:19:411
0,266264	-1,037839	9,747942	2020-10-13T23:03:19:429
0,267865	-1,043301	9,747315	2020-10-13T23:03:19:452
0,315504	-0,951374	9,755292	2020-10-13T23:03:19:469
0,235744	-1,005521	9,752114	2020-10-13T23:03:19:491
0,240255	-1,010547	9,751485	2020-10-13T23:03:19:509
0,244151	-1,006694	9,751786	2020-10-13T23:03:19:530
0,246200	-1,007842	9,751616	2020-10-13T23:03:19:549
0,246454	-1,007415	9,751655	2020-10-13T23:03:19:572
0,247053	-1,012231	9,751141	2020-10-13T23:03:19:589
0,249990	-1,011003	9,751193	2020-10-13T23:03:19:610
0,250023	-1,011385	9,751152	2020-10-13T23:03:19:629
0,253011	-1,015708	9,750626	2020-10-13T23:03:19:651
0,258534	-1,022482	9,749773	2020-10-13T23:03:19:669
0,261454	-1,021905	9,749756	2020-10-13T23:03:19:692
0,223712	-0,911194	9,761662	2020-10-13T23:03:19:709
0,227921	-0,918155	9,760913	2020-10-13T23:03:19:732
0,259534	-1,026122	9,749364	2020-10-13T23:03:19:749
0,260212	-1,030794	9,748853	2020-10-13T23:03:19:771
0,259340	-1,030526	9,748905	2020-10-13T23:03:19:789
0,259808	-1,026563	9,749310	2020-10-13T23:03:19:812
0,261330	-1,028188	9,749099	2020-10-13T23:03:19:829
0,264704	-1,029191	9,748901	2020-10-13T23:03:19:850
0,266720	-1,026628	9,749117	2020-10-13T23:03:19:869
0,264848	-1,021566	9,749700	2020-10-13T23:03:19:892
0,255888	-1,063439	9,745461	2020-10-13T23:03:19:909
0,258177	-1,064023	9,745337	2020-10-13T23:03:19:933
0,242130	-1,112361	9,740350	2020-10-13T23:03:19:949
0,244498	-1,105100	9,741117	2020-10-13T23:03:19:972
0,246739	-1,097058	9,741969	2020-10-13T23:03:19:989
0,248703	-1,094179	9,742243	2020-10-13T23:03:20:011
0,227803	-0,990443	9,753846	2020-10-13T23:03:20:030
0,279593	-1,041245	9,747206	2020-10-13T23:03:20:052
0,298035	-1,054582	9,745225	2020-10-13T23:03:20:070
0,235929	-1,001493	9,752524	2020-10-13T23:03:20:090
0,235311	-1,002961	9,752389	2020-10-13T23:03:20:109
0,240513	-1,008856	9,751654	2020-10-13T23:03:20:132
0,242136	-1,008115	9,751690	2020-10-13T23:03:20:149
0,243869	-1,006430	9,751821	2020-10-13T23:03:20:173
0,301916	-0,997174	9,751147	2020-10-13T23:03:20:189
0,352021	-1,048879	9,744040	2020-10-13T23:03:20:212
0,347466	-1,048592	9,744234	2020-10-13T23:03:20:229
0,343239	-1,047778	9,744472	2020-10-13T23:03:20:251
0,342603	-1,042839	9,745024	2020-10-13T23:03:20:269
0,339268	-1,042080	9,745222	2020-10-13T23:03:20:292
0,338816	-1,043603	9,745074	2020-10-13T23:03:20:309
0,340944	-1,041788	9,745194	2020-10-13T23:03:20:331
0,340044	-1,039081	9,745515	2020-10-13T23:03:20:350
0,337523	-1,033022	9,746247	2020-10-13T23:03:20:372
0,333857	-1,031178	9,746569	2020-10-13T23:03:20:389
0,253938	-0,991036	9,753140	2020-10-13T23:03:20:414
0,264284	-1,066747	9,744875	2020-10-13T23:03:20:430
0,266408	-1,068125	9,744666	2020-10-13T23:03:20:452
0,270025	-1,065569	9,744846	2020-10-13T23:03:20:470
0,270801	-1,062936	9,745112	2020-10-13T23:03:20:491
0,267428	-1,058093	9,745732	2020-10-13T23:03:20:510
0,270624	-1,053725	9,746118	2020-10-13T23:03:20:533
0,271104	-1,054415	9,746030	2020-10-13T23:03:20:549
0,271412	-1,054127	9,746053	2020-10-13T23:03:20:571
0,272149	-1,053712	9,746077	2020-10-13T23:03:20:590
0,275866	-1,050592	9,746309	2020-10-13T23:03:20:613
0,278482	-1,046793	9,746643	2020-10-13T23:03:20:629
0,280134	-1,044176	9,746877	2020-10-13T23:03:20:653
0,279255	-1,038599	9,747498	2020-10-13T23:03:20:671
0,331875	-1,085634	9,740721	2020-10-13T23:03:20:693
0,334420	-1,082437	9,740990	2020-10-13T23:03:20:710
0,374544	-1,094821	9,738145	2020-10-13T23:03:20:731
0,245405	-0,966739	9,755797	2020-10-13T23:03:20:750
0,273732	-1,073317	9,743893	2020-10-13T23:03:20:773
0,278790	-1,054850	9,745766	2020-10-13T23:03:20:790
0,345854	-1,006338	9,748746	2020-10-13T23:03:20:811
0,344078	-1,008521	9,748584	2020-10-13T23:03:20:830
0,342807	-1,007500	9,748734	2020-10-13T23:03:20:853
0,339259	-1,009577	9,748643	2020-10-13T23:03:20:870
0,337039	-1,011472	9,748524	2020-10-13T23:03:20:893
0,323162	-0,985706	9,751633	2020-10-13T23:03:20:910
0,244128	-1,085281	9,743354	2020-10-13T23:03:20:932
0,248527	-1,082911	9,743506	2020-10-13T23:03:20:950
0,250721	-1,083913	9,743339	2020-10-13T23:03:20:972
0,251446	-1,008104	9,751455	2020-10-13T23:03:20:990
0,276084	-0,974698	9,754185	2020-10-13T23:03:21:013
0,276873	-0,976561	9,753976	2020-10-13T23:03:21:030
0,276728	-0,977775	9,753859	2020-10-13T23:03:21:052
0,279355	-0,979715	9,753590	2020-10-13T23:03:21:071
0,279574	-0,986620	9,752887	2020-10-13T23:03:21:092
0,279715	-0,986382	9,752907	2020-10-13T23:03:21:110
0,278182	-0,987101	9,752878	2020-10-13T23:03:21:133
0,278165	-0,986310	9,752958	2020-10-13T23:03:21:150
0,279059	-0,991567	9,752400	2020-10-13T23:03:21:174
0,278167	-0,997131	9,751858	2020-10-13T23:03:21:190
0,278620	-0,997274	9,751831	2020-10-13T23:03:21:213
0,279324	-1,063179	9,744845	2020-10-13T23:03:21:231
0,253127	-1,053492	9,746613	2020-10-13T23:03:21:254
0,344330	-1,096313	9,739093	2020-10-13T23:03:21:271
0,284554	-1,023436	9,748948	2020-10-13T23:03:21:292
0,281657	-1,022763	9,749103	2020-10-13T23:03:21:310
0,283838	-1,025128	9,748792	2020-10-13T23:03:21:334
0,283379	-1,025778	9,748736	2020-10-13T23:03:21:350
0,278807	-1,024899	9,748960	2020-10-13T23:03:21:374
0,278921	-1,030552	9,748362	2020-10-13T23:03:21:390
0,281151	-1,034620	9,747867	2020-10-13T23:03:21:413
0,282890	-1,036941	9,747569	2020-10-13T23:03:21:431
0,285122	-1,037888	9,747404	2020-10-13T23:03:21:452
0,286252	-1,039542	9,747194	2020-10-13T23:03:21:471
0,284019	-1,040256	9,747184	2020-10-13T23:03:21:493
0,232794	-1,079623	9,744260	2020-10-13T23:03:21:511
0,322638	-1,039611	9,746051	2020-10-13T23:03:21:532
0,318882	-1,039996	9,746133	2020-10-13T23:03:21:550
0,317160	-1,040657	9,746119	2020-10-13T23:03:21:575
0,315391	-1,039344	9,746316	2020-10-13T23:03:21:590
0,243451	-1,048197	9,747431	2020-10-13T23:03:21:615
0,244023	-1,053489	9,746845	2020-10-13T23:03:21:631
0,221854	-1,077922	9,744703	2020-10-13T23:03:21:653
0,227554	-1,078793	9,744475	2020-10-13T23:03:21:671
0,228735	-1,079224	9,744400	2020-10-13T23:03:21:692
0,228597	-1,081264	9,744178	2020-10-13T23:03:21:711
0,348611	-1,146909	9,733111	2020-10-13T23:03:21:733
0,348159	-1,141126	9,733808	2020-10-13T23:03:21:751
0,281346	-1,115766	9,738906	2020-10-13T23:03:21:773
0,280078	-1,115010	9,739029	2020-10-13T23:03:21:790
0,277685	-1,113464	9,739275	2020-10-13T23:03:21:813
0,278719	-1,112371	9,739370	2020-10-13T23:03:21:831
0,277355	-1,109876	9,739694	2020-10-13T23:03:21:854
0,234942	-1,130370	9,738452	2020-10-13T23:03:21:871
0,264034	-1,084942	9,742873	2020-10-13T23:03:21:893
0,326199	-1,065249	9,743163	2020-10-13T23:03:21:911
0,287927	-1,024541	9,748734	2020-10-13T23:03:21:932
0,290094	-1,023163	9,748814	2020-10-13T23:03:21:950
0,287438	-1,025538	9,748643	2020-10-13T23:03:21:974
0,285385	-1,027426	9,748505	2020-10-13T23:03:21:991
0,286270	-1,028016	9,748416	2020-10-13T23:03:22:013
0,282066	-1,028736	9,748463	2020-10-13T23:03:22:031
0,281345	-1,031614	9,748179	2020-10-13T23:03:22:054
0,284367	-1,030799	9,748178	2020-10-13T23:03:22:072
0,286064	-1,031962	9,748005	2020-10-13T23:03:22:095
0,286298	-1,031952	9,747999	2020-10-13T23:03:22:111
0,287920	-1,035177	9,747610	2020-10-13T23:03:22:134
0,288367	-1,037244	9,747376	2020-10-13T23:03:22:151
0,288546	-1,037556	9,747338	2020-10-13T23:03:22:173
0,288338	-1,037855	9,747313	2020-10-13T23:03:22:201
0,277427	-1,035555	9,747874	2020-10-13T23:03:22:215
0,250487	-1,001946	9,752115	2020-10-13T23:03:22:231
0,254687	-1,002287	9,751971	2020-10-13T23:03:22:253
0,255877	-1,002288	9,751940	2020-10-13T23:03:22:272
0,259179	-1,005815	9,751490	2020-10-13T23:03:22:294
0,293308	-1,055126	9,745310	2020-10-13T23:03:22:313
0,239697	-1,083429	9,743670	2020-10-13T23:03:22:337
0,240485	-1,082118	9,743796	2020-10-13T23:03:22:352
0,245883	-1,077875	9,744132	2020-10-13T23:03:22:374
0,247462	-1,076735	9,744218	2020-10-13T23:03:22:391
0,193104	-1,032835	9,750197	2020-10-13T23:03:22:413
0,324304	-1,040175	9,745934	2020-10-13T23:03:22:432
0,322629	-1,043075	9,745681	2020-10-13T23:03:22:454
0,331216	-1,092198	9,740009	2020-10-13T23:03:22:472
0,235150	-1,034181	9,749131	2020-10-13T23:03:22:493
0,238097	-1,021073	9,750442	2020-10-13T23:03:22:512
0,294726	-1,078266	9,742734	2020-10-13T23:03:22:534
0,294501	-1,077217	9,742857	2020-10-13T23:03:22:551
0,293036	-1,074574	9,743193	2020-10-13T23:03:22:575
0,291400	-1,001690	9,751004	2020-10-13T23:03:22:592
0,222156	-1,089046	9,743460	2020-10-13T23:03:22:614
0,225355	-1,088317	9,743468	2020-10-13T23:03:22:632
0,229877	-1,084193	9,743822	2020-10-13T23:03:22:653
0,232842	-1,079745	9,744246	2020-10-13T23:03:22:672
0,233569	-1,078579	9,744357	2020-10-13T23:03:22:695
0,234428	-1,073963	9,744846	2020-10-13T23:03:22:712
0,238138	-1,070830	9,745101	2020-10-13T23:03:22:733
0,236924	-1,066863	9,745566	2020-10-13T23:03:22:752
0,239243	-1,064616	9,745755	2020-10-13T23:03:22:775
0,243736	-1,062736	9,745849	2020-10-13T23:03:22:791
0,316196	-1,034236	9,746834	2020-10-13T23:03:22:816
0,317925	-1,033117	9,746896	2020-10-13T23:03:22:832
0,250194	-1,041675	9,747959	2020-10-13T23:03:22:855
0,253843	-1,043186	9,747703	2020-10-13T23:03:22:873
0,257172	-1,044397	9,747486	2020-10-13T23:03:22:893
0,260388	-1,041174	9,747746	2020-10-13T23:03:22:912
0,259757	-1,041115	9,747768	2020-10-13T23:03:22:935
0,220194	-1,109875	9,741154	2020-10-13T23:03:22:952
0,309071	-1,072089	9,742971	2020-10-13T23:03:22:974
0,307171	-1,070593	9,743196	2020-10-13T23:03:22:992
0,308173	-1,066686	9,743592	2020-10-13T23:03:23:015
0,312927	-1,089626	9,740902	2020-10-13T23:03:23:033
0,310335	-1,084352	9,741573	2020-10-13T23:03:23:057
0,219612	-0,984633	9,754622	2020-10-13T23:03:23:073
0,219158	-0,985951	9,754499	2020-10-13T23:03:23:094
0,336978	-1,071606	9,742099	2020-10-13T23:03:23:113
0,255080	-1,058823	9,745984	2020-10-13T23:03:23:134
0,272116	-1,004688	9,751253	2020-10-13T23:03:23:152
0,307088	-1,029226	9,747655	2020-10-13T23:03:23:176
0,280964	-1,093231	9,741472	2020-10-13T23:03:23:192
0,266583	-1,056727	9,745904	2020-10-13T23:03:23:214
0,266697	-1,053610	9,746239	2020-10-13T23:03:23:232
0,267722	-1,053340	9,746240	2020-10-13T23:03:23:255
0,268399	-1,057678	9,745751	2020-10-13T23:03:23:272
0,268396	-1,054358	9,746111	2020-10-13T23:03:23:296
0,269516	-1,055345	9,745974	2020-10-13T23:03:23:312
0,270066	-1,052643	9,746250	2020-10-13T23:03:23:335
0,269562	-1,050741	9,746469	2020-10-13T23:03:23:352
0,270958	-1,050849	9,746419	2020-10-13T23:03:23:374
0,270707	-1,050927	9,746417	2020-10-13T23:03:23:392
0,273078	-1,047537	9,746716	2020-10-13T23:03:23:415
0,273172	-1,046734	9,746799	2020-10-13T23:03:23:433
0,270422	-1,047521	9,746792	2020-10-13T23:03:23:454
0,270866	-1,046007	9,746943	2020-10-13T23:03:23:473
0,270205	-1,043010	9,747282	2020-10-13T23:03:23:495
0,270629	-1,037308	9,747878	2020-10-13T23:03:23:512
0,273654	-1,038274	9,747691	2020-10-13T23:03:23:536
0,280612	-1,082068	9,742729	2020-10-13T23:03:23:553
0,205111	-1,020730	9,751226	2020-10-13T23:03:23:576
0,209412	-1,020442	9,751165	2020-10-13T23:03:23:593
0,213539	-1,019400	9,751185	2020-10-13T23:03:23:614
0,217866	-1,022878	9,750725	2020-10-13T23:03:23:632
0,222754	-1,024779	9,750415	2020-10-13T23:03:23:656
0,226935	-1,028036	9,749976	2020-10-13T23:03:23:673
0,232738	-1,030006	9,749631	2020-10-13T23:03:23:694
0,238133	-1,032935	9,749191	2020-10-13T23:03:23:713
0,240631	-1,033451	9,749075	2020-10-13T23:03:23:736
0,243036	-1,033618	9,748998	2020-10-13T23:03:23:758
0,237188	-1,065519	9,745707	2020-10-13T23:03:23:778
0,239952	-1,068334	9,745331	2020-10-13T23:03:23:793
0,300493	-1,115430	9,738373	2020-10-13T23:03:23:816
0,298938	-1,113482	9,738644	2020-10-13T23:03:23:833
0,300205	-1,105298	9,739537	2020-10-13T23:03:23:854
0,300493	-1,095541	9,740630	2020-10-13T23:03:23:873
0,300143	-1,089297	9,741342	2020-10-13T23:03:23:896
0,297939	-1,091774	9,741132	2020-10-13T23:03:23:913
0,299687	-1,090069	9,741269	2020-10-13T23:03:23:934
0,299120	-1,088501	9,741462	2020-10-13T23:03:23:953
0,297153	-1,086725	9,741720	2020-10-13T23:03:23:976
0,240866	-1,015347	9,750971	2020-10-13T23:03:23:993
0,242524	-1,011933	9,751285	2020-10-13T23:03:24:017
0,338434	-1,049147	9,744493	2020-10-13T23:03:24:033
0,337512	-1,048262	9,744620	2020-10-13T23:03:24:055
0,335219	-1,048738	9,744648	2020-10-13T23:03:24:074
0,275718	-1,082200	9,742854	2020-10-13T23:03:24:095
0,280914	-1,082942	9,742623	2020-10-13T23:03:24:113
0,279074	-1,080407	9,742958	2020-10-13T23:03:24:137
0,275601	-1,080012	9,743100	2020-10-13T23:03:24:156
0,275905	-1,081627	9,742912	2020-10-13T23:03:24:175
0,275495	-1,078157	9,743309	2020-10-13T23:03:24:193
0,256265	-0,996048	9,752569	2020-10-13T23:03:24:216
0,257449	-0,995758	9,752567	2020-10-13T23:03:24:232
0,257381	-0,996884	9,752454	2020-10-13T23:03:24:255
0,261379	-1,000201	9,752008	2020-10-13T23:03:24:272
0,259649	-0,999411	9,752135	2020-10-13T23:03:24:295
0,259972	-0,998771	9,752192	2020-10-13T23:03:24:312
0,264782	-1,001185	9,751816	2020-10-13T23:03:24:335
0,268973	-1,006412	9,751163	2020-10-13T23:03:24:353
0,269326	-1,008908	9,750895	2020-10-13T23:03:24:376
0,270208	-1,003751	9,751403	2020-10-13T23:03:24:393
0,269317	-1,005058	9,751293	2020-10-13T23:03:24:415
0,270726	-1,005809	9,751176	2020-10-13T23:03:24:434
0,270225	-1,007314	9,751035	2020-10-13T23:03:24:456
0,254722	-0,992861	9,752934	2020-10-13T23:03:24:474
0,237223	-1,047135	9,747698	2020-10-13T23:03:24:496
0,239703	-1,049380	9,747396	2020-10-13T23:03:24:513
0,243664	-1,048144	9,747431	2020-10-13T23:03:24:536
0,241490	-1,044801	9,747844	2020-10-13T23:03:24:553
0,241023	-1,043295	9,748016	2020-10-13T23:03:24:576
0,275238	-1,024685	9,749084	2020-10-13T23:03:24:594
0,275372	-1,099092	9,740973	2020-10-13T23:03:24:616
0,277212	-1,099074	9,740923	2020-10-13T23:03:24:633
0,278435	-1,098284	9,740977	2020-10-13T23:03:24:655
0,277097	-1,093174	9,741590	2020-10-13T23:03:24:675
0,220242	-1,030642	9,749854	2020-10-13T23:03:24:697
0,344019	-1,036869	9,745611	2020-10-13T23:03:24:713
0,339661	-1,034520	9,746014	2020-10-13T23:03:24:737
0,338167	-1,035917	9,745917	2020-10-13T23:03:24:753
0,332517	-1,036735	9,746025	2020-10-13T23:03:24:776
0,330970	-1,035706	9,746187	2020-10-13T23:03:24:793
0,330077	-1,039390	9,745825	2020-10-13T23:03:24:815
0,317051	-1,082980	9,741510	2020-10-13T23:03:24:834
0,233182	-0,975998	9,755175	2020-10-13T23:03:24:857
0,236592	-0,976636	9,755029	2020-10-13T23:03:24:874
0,235984	-0,980567	9,754649	2020-10-13T23:03:24:896
0,238389	-0,985996	9,754044	2020-10-13T23:03:24:913
0,240808	-0,989130	9,753667	2020-10-13T23:03:24:937
0,243364	-0,993473	9,753162	2020-10-13T23:03:24:953
0,302315	-1,144170	9,734982	2020-10-13T23:03:24:978
0,231597	-1,105457	9,741392	2020-10-13T23:03:24:993
0,233167	-1,100755	9,741887	2020-10-13T23:03:25:016
0,212443	-1,087194	9,743883	2020-10-13T23:03:25:034
0,259845	-1,063219	9,745380	2020-10-13T23:03:25:056
0,308837	-1,040760	9,746375	2020-10-13T23:03:25:075
0,230787	-1,086621	9,743530	2020-10-13T23:03:25:097
0,231715	-1,085286	9,743657	2020-10-13T23:03:25:114
0,233180	-1,085617	9,743585	2020-10-13T23:03:25:135
0,239152	-1,083418	9,743685	2020-10-13T23:03:25:154
0,313605	-1,065448	9,743554	2020-10-13T23:03:25:178
0,301391	-1,092243	9,740973	2020-10-13T23:03:25:194
0,263121	-1,152598	9,735126	2020-10-13T23:03:25:218
0,266171	-1,150297	9,735314	2020-10-13T23:03:25:234
0,279059	-1,012791	9,750218	2020-10-13T23:03:25:257
0,279271	-1,017807	9,749690	2020-10-13T23:03:25:275
0,280073	-1,021978	9,749231	2020-10-13T23:03:25:296
0,278872	-1,029287	9,748496	2020-10-13T23:03:25:314
0,278547	-1,034948	9,747907	2020-10-13T23:03:25:337
0,277395	-1,038534	9,747558	2020-10-13T23:03:25:354
0,279646	-1,043082	9,747007	2020-10-13T23:03:25:376
0,283083	-1,047019	9,746487	2020-10-13T23:03:25:394
0,284438	-1,049150	9,746218	2020-10-13T23:03:25:417
0,283345	-1,051149	9,746035	2020-10-13T23:03:25:434
0,280699	-1,053803	9,745824	2020-10-13T23:03:25:457
0,278818	-1,054696	9,745782	2020-10-13T23:03:25:474
0,277561	-1,054976	9,745788	2020-10-13T23:03:25:497
0,278799	-1,054905	9,745760	2020-10-13T23:03:25:514
0,279857	-1,057851	9,745410	2020-10-13T23:03:25:536
0,282396	-1,055951	9,745543	2020-10-13T23:03:25:554
0,282016	-1,057067	9,745433	2020-10-13T23:03:25:577
0,283083	-1,059387	9,745150	2020-10-13T23:03:25:594
0,284790	-1,062342	9,744779	2020-10-13T23:03:25:616
0,284840	-1,062045	9,744809	2020-10-13T23:03:25:634
0,286571	-1,061994	9,744764	2020-10-13T23:03:25:657
0,255048	-1,108541	9,740456	2020-10-13T23:03:25:676
0,258181	-1,109152	9,740303	2020-10-13T23:03:25:699
0,233863	-1,135563	9,737874	2020-10-13T23:03:25:715
0,234735	-1,131214	9,738359	2020-10-13T23:03:25:737
0,240695	-1,128063	9,738579	2020-10-13T23:03:25:755
0,243082	-1,122474	9,739165	2020-10-13T23:03:25:776
0,247404	-1,120602	9,739272	2020-10-13T23:03:25:794
0,293739	-1,150832	9,734459	2020-10-13T23:03:25:818
0,292462	-1,143100	9,735408	2020-10-13T23:03:25:835
0,233880	-1,150112	9,736166	2020-10-13T23:03:25:856
0,236816	-1,144902	9,736709	2020-10-13T23:03:25:875
0,237576	-1,139255	9,737353	2020-10-13T23:03:25:897
0,293109	-1,091524	9,741306	2020-10-13T23:03:25:915
0,317577	-1,039343	9,746245	2020-10-13T23:03:25:938
0,324363	-1,153137	9,733213	2020-10-13T23:03:25:954
0,329811	-1,153134	9,733031	2020-10-13T23:03:25:978
0,327684	-1,144802	9,734086	2020-10-13T23:03:25:995
0,324515	-1,145403	9,734121	2020-10-13T23:03:26:016
0,324431	-1,142310	9,734488	2020-10-13T23:03:26:034
0,320415	-1,137249	9,735213	2020-10-13T23:03:26:057
0,321182	-1,134053	9,735561	2020-10-13T23:03:26:075
0,319288	-1,129072	9,736202	2020-10-13T23:03:26:096
0,318689	-1,124788	9,736718	2020-10-13T23:03:26:115
0,320337	-1,123655	9,736794	2020-10-13T23:03:26:137
0,320721	-1,118045	9,737428	2020-10-13T23:03:26:154
0,319495	-1,118339	9,737434	2020-10-13T23:03:26:178
0,317141	-1,118716	9,737468	2020-10-13T23:03:26:195
0,317629	-1,116882	9,737662	2020-10-13T23:03:26:217
0,314613	-1,111852	9,738336	2020-10-13T23:03:26:235
0,309532	-1,107730	9,738969	2020-10-13T23:03:26:257
0,307700	-1,103508	9,739506	2020-10-13T23:03:26:275
0,307801	-1,098563	9,740062	2020-10-13T23:03:26:298
0,304300	-1,093260	9,740768	2020-10-13T23:03:26:315
0,302234	-1,090986	9,741088	2020-10-13T23:03:26:337
0,299213	-1,090592	9,741225	2020-10-13T23:03:26:355
0,298590	-1,089872	9,741324	2020-10-13T23:03:26:378
0,302383	-1,083532	9,741915	2020-10-13T23:03:26:395
0,297679	-1,078033	9,742670	2020-10-13T23:03:26:418
0,296624	-1,082040	9,742258	2020-10-13T23:03:26:435
0,298279	-1,078782	9,742569	2020-10-13T23:03:26:458
0,297652	-1,074418	9,743070	2020-10-13T23:03:26:476
0,297739	-1,075648	9,742931	2020-10-13T23:03:26:497
0,298932	-1,076631	9,742786	2020-10-13T23:03:26:515
0,300047	-1,078238	9,742575	2020-10-13T23:03:26:538
0,297966	-1,077852	9,742682	2020-10-13T23:03:26:555
0,296133	-1,074170	9,743144	2020-10-13T23:03:26:577
0,295168	-1,070044	9,743627	2020-10-13T23:03:26:595
0,295505	-1,069974	9,743625	2020-10-13T23:03:26:618
0,292855	-1,067457	9,743980	2020-10-13T23:03:26:635
0,290422	-1,067378	9,744062	2020-10-13T23:03:26:658
0,289103	-1,065466	9,744310	2020-10-13T23:03:26:676
0,289455	-1,065105	9,744339	2020-10-13T23:03:26:698
0,287971	-1,065516	9,744338	2020-10-13T23:03:26:716
0,287246	-1,066970	9,744201	2020-10-13T23:03:26:737
0,288318	-1,065303	9,744351	2020-10-13T23:03:26:755
0,287647	-1,065349	9,744367	2020-10-13T23:03:26:779
0,286602	-1,064447	9,744495	2020-10-13T23:03:26:796
0,285956	-1,067321	9,744201	2020-10-13T23:03:26:817
0,287429	-1,066090	9,744291	2020-10-13T23:03:26:836
0,286427	-1,062115	9,744756	2020-10-13T23:03:26:858
0,284015	-1,058989	9,745166	2020-10-13T23:03:26:876
0,284432	-1,059142	9,745137	2020-10-13T23:03:26:899
0,282650	-1,054615	9,745680	2020-10-13T23:03:26:916
0,281728	-1,051641	9,746028	2020-10-13T23:03:26:938
0,249387	-0,987586	9,753608	2020-10-13T23:03:26:956
0,251756	-0,992350	9,753063	2020-10-13T23:03:26:978
0,253192	-0,997649	9,752485	2020-10-13T23:03:26:996
0,325050	-1,032936	9,746680	2020-10-13T23:03:27:018
0,325603	-1,037826	9,746142	2020-10-13T23:03:27:036
0,324390	-1,037941	9,746170	2020-10-13T23:03:27:057
0,319818	-1,037701	9,746346	2020-10-13T23:03:27:076
0,318310	-1,035255	9,746656	2020-10-13T23:03:27:099
0,316534	-1,030789	9,747188	2020-10-13T23:03:27:116
0,313866	-1,032698	9,747071	2020-10-13T23:03:27:139
0,314822	-1,035867	9,746705	2020-10-13T23:03:27:156
0,314124	-1,038461	9,746451	2020-10-13T23:03:27:179
0,312704	-1,036682	9,746686	2020-10-13T23:03:27:196
0,310905	-1,035090	9,746913	2020-10-13T23:03:27:217
0,343679	-1,001267	9,749345	2020-10-13T23:03:27:237
0,313502	-1,005618	9,749914	2020-10-13T23:03:27:259
0,315298	-1,009769	9,749428	2020-10-13T23:03:27:276
0,313714	-1,012585	9,749187	2020-10-13T23:03:27:298
0,314869	-1,013548	9,749049	2020-10-13T23:03:27:316
0,312807	-1,016096	9,748851	2020-10-13T23:03:27:339
0,311015	-1,015936	9,748924	2020-10-13T23:03:27:357
0,306959	-1,014246	9,749228	2020-10-13T23:03:27:379
0,305227	-1,013697	9,749340	2020-10-13T23:03:27:396
0,304331	-1,015385	9,749193	2020-10-13T23:03:27:418
0,305314	-1,019394	9,748744	2020-10-13T23:03:27:437
0,307667	-1,020448	9,748559	2020-10-13T23:03:27:458
0,307968	-1,021100	9,748482	2020-10-13T23:03:27:477
0,310276	-1,022440	9,748268	2020-10-13T23:03:27:499
0,309607	-1,025177	9,748002	2020-10-13T23:03:27:516
0,308003	-1,023316	9,748248	2020-10-13T23:03:27:538
0,308346	-1,024764	9,748085	2020-10-13T23:03:27:556
0,304113	-1,024264	9,748271	2020-10-13T23:03:27:579
0,304541	-1,024049	9,748280	2020-10-13T23:03:27:596
0,303767	-1,025126	9,748191	2020-10-13T23:03:27:619
0,305595	-1,028310	9,747798	2020-10-13T23:03:27:636
0,303683	-1,027425	9,747952	2020-10-13T23:03:27:659
0,278397	-1,042563	9,747099	2020-10-13T23:03:27:678
0,269402	-1,027096	9,748994	2020-10-13T23:03:27:698
0,269988	-1,031257	9,748538	2020-10-13T23:03:27:716
0,270044	-1,032240	9,748433	2020-10-13T23:03:27:739
0,271647	-1,033007	9,748307	2020-10-13T23:03:27:756
0,270320	-1,031024	9,748554	2020-10-13T23:03:27:778
0,269923	-1,034806	9,748164	2020-10-13T23:03:27:797
0,269055	-1,037965	9,747852	2020-10-13T23:03:27:819
0,273512	-1,037980	9,747726	2020-10-13T23:03:27:836
0,272648	-1,042407	9,747278	2020-10-13T23:03:27:860
0,299829	-1,127350	9,737020	2020-10-13T23:03:27:877
0,219599	-1,081102	9,744402	2020-10-13T23:03:27:899
0,221461	-1,080764	9,744398	2020-10-13T23:03:27:917
0,223110	-1,079232	9,744530	2020-10-13T23:03:27:938
0,227326	-1,080016	9,744346	2020-10-13T23:03:27:956
0,233723	-1,141190	9,737220	2020-10-13T23:03:27:981
0,314300	-1,089253	9,740900	2020-10-13T23:03:27:997
0,312550	-1,089669	9,740910	2020-10-13T23:03:28:018
0,309552	-1,086650	9,741343	2020-10-13T23:03:28:037
0,309215	-1,084877	9,741550	2020-10-13T23:03:28:060
