light_level	ts
0,000000	2020-10-13T23:02:42:124
0,000000	2020-10-13T23:02:42:124
0,000000	2020-10-13T23:02:42:211
0,000000	2020-10-13T23:02:42:451
0,000000	2020-10-13T23:02:42:692
0,000000	2020-10-13T23:02:42:932
0,000000	2020-10-13T23:02:43:180
0,000000	2020-10-13T23:02:43:416
0,000000	2020-10-13T23:02:43:656
0,000000	2020-10-13T23:02:43:896
0,000000	2020-10-13T23:02:44:138
0,000000	2020-10-13T23:02:44:378
0,000000	2020-10-13T23:02:44:617
0,000000	2020-10-13T23:02:44:858
0,000000	2020-10-13T23:02:45:100
0,000000	2020-10-13T23:02:45:341
0,000000	2020-10-13T23:02:45:579
0,000000	2020-10-13T23:02:45:819
0,000000	2020-10-13T23:02:46:059
0,000000	2020-10-13T23:02:46:300
0,000000	2020-10-13T23:02:46:540
0,000000	2020-10-13T23:02:46:780
0,000000	2020-10-13T23:02:47:020
0,000000	2020-10-13T23:02:47:261
0,000000	2020-10-13T23:02:47:501
0,000000	2020-10-13T23:02:47:741
0,000000	2020-10-13T23:02:47:983
0,000000	2020-10-13T23:02:48:223
0,000000	2020-10-13T23:02:48:463
0,000000	2020-10-13T23:02:48:703
0,000000	2020-10-13T23:02:48:944
0,000000	2020-10-13T23:02:49:183
0,000000	2020-10-13T23:02:49:424
0,000000	2020-10-13T23:02:49:664
0,000000	2020-10-13T23:02:49:904
0,000000	2020-10-13T23:02:50:144
0,000000	2020-10-13T23:02:50:387
0,000000	2020-10-13T23:02:50:625
0,000000	2020-10-13T23:02:50:865
0,000000	2020-10-13T23:02:51:106
0,000000	2020-10-13T23:02:51:347
0,000000	2020-10-13T23:02:51:587
0,000000	2020-10-13T23:02:51:826
0,000000	2020-10-13T23:02:52:069
0,000000	2020-10-13T23:02:52:307
0,000000	2020-10-13T23:02:52:547
0,000000	2020-10-13T23:02:52:787
0,000000	2020-10-13T23:02:53:039
0,000000	2020-10-13T23:02:53:267
0,000000	2020-10-13T23:02:53:508
0,000000	2020-10-13T23:02:53:749
0,000000	2020-10-13T23:02:53:987
0,000000	2020-10-13T23:02:54:229
0,000000	2020-10-13T23:02:54:467
0,000000	2020-10-13T23:02:54:707
0,000000	2020-10-13T23:02:54:948
0,000000	2020-10-13T23:02:55:188
0,000000	2020-10-13T23:02:55:429
0,000000	2020-10-13T23:02:55:668
0,000000	2020-10-13T23:02:56:128
0,000000	2020-10-13T23:02:56:148
0,000000	2020-10-13T23:02:56:395
0,000000	2020-10-13T23:02:56:632
0,000000	2020-10-13T23:02:56:871
0,000000	2020-10-13T23:02:57:111
0,000000	2020-10-13T23:02:57:351
0,000000	2020-10-13T23:02:57:591
0,000000	2020-10-13T23:02:57:831
0,000000	2020-10-13T23:02:58:071
0,000000	2020-10-13T23:02:58:311
0,000000	2020-10-13T23:02:58:554
0,000000	2020-10-13T23:02:58:793
0,000000	2020-10-13T23:02:59:032
0,000000	2020-10-13T23:02:59:273
0,000000	2020-10-13T23:02:59:513
0,000000	2020-10-13T23:02:59:753
0,000000	2020-10-13T23:02:59:993
0,000000	2020-10-13T23:03:00:233
0,000000	2020-10-13T23:03:00:474
0,000000	2020-10-13T23:03:00:715
0,000000	2020-10-13T23:03:00:954
0,000000	2020-10-13T23:03:01:194
0,000000	2020-10-13T23:03:01:435
0,000000	2020-10-13T23:03:01:678
0,000000	2020-10-13T23:03:01:915
0,000000	2020-10-13T23:03:02:156
0,000000	2020-10-13T23:03:02:395
0,000000	2020-10-13T23:03:02:636
0,000000	2020-10-13T23:03:02:876
0,000000	2020-10-13T23:03:03:116
0,000000	2020-10-13T23:03:03:357
0,000000	2020-10-13T23:03:03:596
0,000000	2020-10-13T23:03:03:837
0,000000	2020-10-13T23:03:04:093
0,000000	2020-10-13T23:03:04:317
0,000000	2020-10-13T23:03:04:557
0,000000	2020-10-13T23:03:04:798
0,000000	2020-10-13T23:03:05:038
0,000000	2020-10-13T23:03:05:278
0,000000	2020-10-13T23:03:05:521
0,000000	2020-10-13T23:03:05:760
0,000000	2020-10-13T23:03:05:999
0,000000	2020-10-13T23:03:06:239
0,000000	2020-10-13T23:03:06:479
0,000000	2020-10-13T23:03:06:720
0,000000	2020-10-13T23:03:06:961
0,000000	2020-10-13T23:03:07:201
0,000000	2020-10-13T23:03:07:440
0,000000	2020-10-13T23:03:07:680
0,000000	2020-10-13T23:03:07:921
0,000000	2020-10-13T23:03:08:161
0,000000	2020-10-13T23:03:08:402
0,000000	2020-10-13T23:03:08:641
0,000000	2020-10-13T23:03:08:881
0,000000	2020-10-13T23:03:09:123
0,000000	2020-10-13T23:03:09:363
0,000000	2020-10-13T23:03:09:603
0,000000	2020-10-13T23:03:09:843
0,000000	2020-10-13T23:03:10:083
0,000000	2020-10-13T23:03:10:324
0,000000	2020-10-13T23:03:10:565
0,000000	2020-10-13T23:03:10:803
0,000000	2020-10-13T23:03:11:045
0,000000	2020-10-13T23:03:11:285
0,000000	2020-10-13T23:03:11:524
0,000000	2020-10-13T23:03:11:766
0,000000	2020-10-13T23:03:12:004
0,000000	2020-10-13T23:03:12:245
0,000000	2020-10-13T23:03:12:486
0,000000	2020-10-13T23:03:12:725
0,000000	2020-10-13T23:03:12:967
0,000000	2020-10-13T23:03:13:206
0,000000	2020-10-13T23:03:13:446
0,000000	2020-10-13T23:03:13:687
0,000000	2020-10-13T23:03:13:927
0,000000	2020-10-13T23:03:14:168
0,000000	2020-10-13T23:03:14:407
0,000000	2020-10-13T23:03:14:647
0,000000	2020-10-13T23:03:14:888
0,000000	2020-10-13T23:03:15:128
0,000000	2020-10-13T23:03:15:368
0,000000	2020-10-13T23:03:15:609
0,000000	2020-10-13T23:03:15:849
0,000000	2020-10-13T23:03:16:089
0,000000	2020-10-13T23:03:16:329
0,000000	2020-10-13T23:03:16:570
0,000000	2020-10-13T23:03:16:810
0,000000	2020-10-13T23:03:17:051
0,000000	2020-10-13T23:03:17:296
0,000000	2020-10-13T23:03:17:530
0,000000	2020-10-13T23:03:17:772
0,000000	2020-10-13T23:03:18:011
0,000000	2020-10-13T23:03:18:251
0,000000	2020-10-13T23:03:18:491
0,000000	2020-10-13T23:03:18:731
0,000000	2020-10-13T23:03:18:972
0,000000	2020-10-13T23:03:19:212
0,000000	2020-10-13T23:03:19:452
0,000000	2020-10-13T23:03:19:692
0,000000	2020-10-13T23:03:19:933
0,000000	2020-10-13T23:03:20:173
0,000000	2020-10-13T23:03:20:413
0,000000	2020-10-13T23:03:20:653
0,000000	2020-10-13T23:03:20:894
0,000000	2020-10-13T23:03:21:133
0,000000	2020-10-13T23:03:21:375
0,000000	2020-10-13T23:03:21:613
0,000000	2020-10-13T23:03:21:855
0,000000	2020-10-13T23:03:22:096
0,000000	2020-10-13T23:03:22:338
0,000000	2020-10-13T23:03:22:576
0,000000	2020-10-13T23:03:22:815
0,000000	2020-10-13T23:03:23:056
0,000000	2020-10-13T23:03:23:296
0,000000	2020-10-13T23:03:23:536
0,000000	2020-10-13T23:03:23:777
0,000000	2020-10-13T23:03:24:016
0,000000	2020-10-13T23:03:24:255
0,000000	2020-10-13T23:03:24:497
0,000000	2020-10-13T23:03:24:737
0,000000	2020-10-13T23:03:24:979
0,000000	2020-10-13T23:03:25:217
0,000000	2020-10-13T23:03:25:458
0,000000	2020-10-13T23:03:25:699
0,000000	2020-10-13T23:03:25:939
0,000000	2020-10-13T23:03:26:179
0,000000	2020-10-13T23:03:26:419
0,000000	2020-10-13T23:03:26:659
0,000000	2020-10-13T23:03:26:899
0,000000	2020-10-13T23:03:27:140
0,000000	2020-10-13T23:03:27:380
0,000000	2020-10-13T23:03:27:620
0,000000	2020-10-13T23:03:27:860
0,000000	2020-10-13T23:03:28:103
0,000000	2020-10-13T23:03:28:341
0,000000	2020-10-13T23:03:28:581
0,000000	2020-10-13T23:03:28:821
0,000000	2020-10-13T23:03:29:062
0,000000	2020-10-13T23:03:29:302
0,000000	2020-10-13T23:03:29:544
0,000000	2020-10-13T23:03:29:783
0,000000	2020-10-13T23:03:30:022
0,000000	2020-10-13T23:03:30:263
0,000000	2020-10-13T23:03:30:503
0,000000	2020-10-13T23:03:30:743
0,000000	2020-10-13T23:03:30:984
0,000000	2020-10-13T23:03:31:224
0,000000	2020-10-13T23:03:31:465
0,000000	2020-10-13T23:03:31:704
0,000000	2020-10-13T23:03:31:944
0,000000	2020-10-13T23:03:32:185
0,000000	2020-10-13T23:03:32:425
0,000000	2020-10-13T23:03:32:665
0,000000	2020-10-13T23:03:32:905
0,000000	2020-10-13T23:03:33:146
0,000000	2020-10-13T23:03:33:386
0,000000	2020-10-13T23:03:33:628
0,000000	2020-10-13T23:03:33:867
0,000000	2020-10-13T23:03:34:106
0,000000	2020-10-13T23:03:34:347
0,000000	2020-10-13T23:03:34:587
0,000000	2020-10-13T23:03:34:827
0,000000	2020-10-13T23:03:35:068
0,000000	2020-10-13T23:03:35:307
0,000000	2020-10-13T23:03:35:549
0,000000	2020-10-13T23:03:35:788
0,000000	2020-10-13T23:03:36:029
0,000000	2020-10-13T23:03:36:269
0,000000	2020-10-13T23:03:36:509
0,000000	2020-10-13T23:03:36:749
0,000000	2020-10-13T23:03:36:989
0,000000	2020-10-13T23:03:37:229
0,000000	2020-10-13T23:03:37:469
0,000000	2020-10-13T23:03:37:711
0,000000	2020-10-13T23:03:37:950
0,000000	2020-10-13T23:03:38:191
0,000000	2020-10-13T23:03:38:431
0,000000	2020-10-13T23:03:38:673
0,000000	2020-10-13T23:03:38:911
0,000000	2020-10-13T23:03:39:152
0,000000	2020-10-13T23:03:39:391
0,000000	2020-10-13T23:03:39:632
0,000000	2020-10-13T23:03:39:873
0,000000	2020-10-13T23:03:40:113
0,000000	2020-10-13T23:03:40:353
0,000000	2020-10-13T23:03:40:593
0,000000	2020-10-13T23:03:40:833
0,000000	2020-10-13T23:03:41:073
0,000000	2020-10-13T23:03:41:313
0,000000	2020-10-13T23:03:41:554
0,000000	2020-10-13T23:03:41:795
0,000000	2020-10-13T23:03:42:035
0,000000	2020-10-13T23:03:42:274
0,000000	2020-10-13T23:03:42:514
0,000000	2020-10-13T23:03:42:755
0,000000	2020-10-13T23:03:42:995
0,000000	2020-10-13T23:03:43:235
0,000000	2020-10-13T23:03:43:475
0,000000	2020-10-13T23:03:43:716
0,000000	2020-10-13T23:03:43:956
0,000000	2020-10-13T23:03:44:197
0,000000	2020-10-13T23:03:44:436
0,000000	2020-10-13T23:03:44:677
0,000000	2020-10-13T23:03:44:917
0,000000	2020-10-13T23:03:45:157
0,000000	2020-10-13T23:03:45:398
0,000000	2020-10-13T23:03:45:637
0,000000	2020-10-13T23:03:45:879
0,000000	2020-10-13T23:03:46:120
0,000000	2020-10-13T23:03:46:359
0,000000	2020-10-13T23:03:46:599
0,000000	2020-10-13T23:03:46:839
0,000000	2020-10-13T23:03:47:080
0,000000	2020-10-13T23:03:47:319
0,000000	2020-10-13T23:03:47:559
0,000000	2020-10-13T23:03:47:800
0,000000	2020-10-13T23:03:48:040
0,000000	2020-10-13T23:03:48:280
0,000000	2020-10-13T23:03:48:521
0,000000	2020-10-13T23:03:48:760
0,000000	2020-10-13T23:03:49:002
0,000000	2020-10-13T23:03:49:241
0,000000	2020-10-13T23:03:49:482
0,000000	2020-10-13T23:03:49:721
0,000000	2020-10-13T23:03:49:964
0,000000	2020-10-13T23:03:50:204
0,000000	2020-10-13T23:03:50:442
0,000000	2020-10-13T23:03:50:683
0,000000	2020-10-13T23:03:50:923
0,000000	2020-10-13T23:03:51:163
0,000000	2020-10-13T23:03:51:404
0,000000	2020-10-13T23:03:51:644
0,000000	2020-10-13T23:03:51:884
0,000000	2020-10-13T23:03:52:125
0,000000	2020-10-13T23:03:52:364
0,000000	2020-10-13T23:03:52:605
0,000000	2020-10-13T23:03:52:845
0,000000	2020-10-13T23:03:53:085
0,000000	2020-10-13T23:03:53:325
0,000000	2020-10-13T23:03:53:566
0,000000	2020-10-13T23:03:53:806
0,000000	2020-10-13T23:03:54:045
0,000000	2020-10-13T23:03:54:286
0,000000	2020-10-13T23:03:54:527
0,000000	2020-10-13T23:03:54:767
0,000000	2020-10-13T23:03:55:007
0,000000	2020-10-13T23:03:55:247
0,000000	2020-10-13T23:03:55:487
0,000000	2020-10-13T23:03:55:728
0,000000	2020-10-13T23:03:55:968
0,000000	2020-10-13T23:03:56:208
0,000000	2020-10-13T23:03:56:448
0,000000	2020-10-13T23:03:56:688
0,000000	2020-10-13T23:03:56:929
0,000000	2020-10-13T23:03:57:169
0,000000	2020-10-13T23:03:57:410
0,000000	2020-10-13T23:03:57:649
0,000000	2020-10-13T23:03:57:889
0,000000	2020-10-13T23:03:58:130
0,000000	2020-10-13T23:03:58:370
0,000000	2020-10-13T23:03:58:612
0,000000	2020-10-13T23:03:58:851
0,000000	2020-10-13T23:03:59:091
0,000000	2020-10-13T23:03:59:331
0,000000	2020-10-13T23:03:59:572
0,000000	2020-10-13T23:03:59:812
0,000000	2020-10-13T23:04:00:052
0,000000	2020-10-13T23:04:00:292
0,000000	2020-10-13T23:04:00:532
0,000000	2020-10-13T23:04:00:773
0,000000	2020-10-13T23:04:01:013
0,000000	2020-10-13T23:04:01:253
0,000000	2020-10-13T23:04:01:494
0,000000	2020-10-13T23:04:01:734
0,000000	2020-10-13T23:04:01:974
0,000000	2020-10-13T23:04:02:214
0,000000	2020-10-13T23:04:02:454
0,000000	2020-10-13T23:04:02:694
0,000000	2020-10-13T23:04:02:935
0,000000	2020-10-13T23:04:03:174
0,000000	2020-10-13T23:04:03:416
0,000000	2020-10-13T23:04:03:655
0,000000	2020-10-13T23:04:03:895
0,000000	2020-10-13T23:04:04:136
0,000000	2020-10-13T23:04:04:376
0,000000	2020-10-13T23:04:04:618
0,000000	2020-10-13T23:04:04:857
0,000000	2020-10-13T23:04:05:097
0,000000	2020-10-13T23:04:05:337
0,000000	2020-10-13T23:04:05:578
0,000000	2020-10-13T23:04:05:817
0,000000	2020-10-13T23:04:06:059
0,000000	2020-10-13T23:04:06:297
0,000000	2020-10-13T23:04:06:537
0,000000	2020-10-13T23:04:06:779
0,000000	2020-10-13T23:04:07:019
0,000000	2020-10-13T23:04:07:259
0,000000	2020-10-13T23:04:07:499
0,000000	2020-10-13T23:04:07:739
0,000000	2020-10-13T23:04:07:980
0,000000	2020-10-13T23:04:08:220
0,000000	2020-10-13T23:04:08:461
0,000000	2020-10-13T23:04:08:701
0,000000	2020-10-13T23:04:08:940
0,000000	2020-10-13T23:04:09:181
0,000000	2020-10-13T23:04:09:422
0,000000	2020-10-13T23:04:09:661
0,000000	2020-10-13T23:04:09:901
0,000000	2020-10-13T23:04:10:141
0,000000	2020-10-13T23:04:10:384
0,000000	2020-10-13T23:04:10:624
0,000000	2020-10-13T23:04:10:863
0,000000	2020-10-13T23:04:11:104
0,000000	2020-10-13T23:04:11:343
0,000000	2020-10-13T23:04:11:583
0,000000	2020-10-13T23:04:11:823
0,000000	2020-10-13T23:04:12:063
0,000000	2020-10-13T23:04:12:303
0,000000	2020-10-13T23:04:12:543
0,000000	2020-10-13T23:04:12:784
0,000000	2020-10-13T23:04:13:025
0,000000	2020-10-13T23:04:13:265
0,000000	2020-10-13T23:04:13:505
0,000000	2020-10-13T23:04:13:744
0,000000	2020-10-13T23:04:13:985
0,000000	2020-10-13T23:04:14:226
0,000000	2020-10-13T23:04:14:465
0,000000	2020-10-13T23:04:14:706
0,000000	2020-10-13T23:04:14:951
0,000000	2020-10-13T23:04:15:187
0,000000	2020-10-13T23:04:15:426
0,000000	2020-10-13T23:04:15:667
0,000000	2020-10-13T23:04:15:907
0,000000	2020-10-13T23:04:16:147
0,000000	2020-10-13T23:04:16:388
0,000000	2020-10-13T23:04:16:629
0,000000	2020-10-13T23:04:16:868
0,000000	2020-10-13T23:04:17:108
0,000000	2020-10-13T23:04:17:348
0,000000	2020-10-13T23:04:17:589
0,000000	2020-10-13T23:04:17:829
0,000000	2020-10-13T23:04:18:069
0,000000	2020-10-13T23:04:18:309
0,000000	2020-10-13T23:04:18:549
0,000000	2020-10-13T23:04:18:790
0,000000	2020-10-13T23:04:19:030
0,000000	2020-10-13T23:04:19:271
0,000000	2020-10-13T23:04:19:511
0,000000	2020-10-13T23:04:19:751
0,000000	2020-10-13T23:04:19:991
0,000000	2020-10-13T23:04:20:232
0,000000	2020-10-13T23:04:20:472
0,000000	2020-10-13T23:04:20:713
0,000000	2020-10-13T23:04:20:952
0,000000	2020-10-13T23:04:21:192
0,000000	2020-10-13T23:04:21:433
0,000000	2020-10-13T23:04:21:673
0,000000	2020-10-13T23:04:21:913
0,000000	2020-10-13T23:04:22:155
0,000000	2020-10-13T23:04:22:393
0,000000	2020-10-13T23:04:22:635
0,000000	2020-10-13T23:04:22:875
0,000000	2020-10-13T23:04:23:114
0,000000	2020-10-13T23:04:23:355
0,000000	2020-10-13T23:04:23:594
0,000000	2020-10-13T23:04:23:836
0,000000	2020-10-13T23:04:24:075
0,000000	2020-10-13T23:04:24:315
0,000000	2020-10-13T23:04:24:556
0,000000	2020-10-13T23:04:24:797
0,000000	2020-10-13T23:04:25:036
0,000000	2020-10-13T23:04:25:276
0,000000	2020-10-13T23:04:25:517
0,000000	2020-10-13T23:04:25:757
0,000000	2020-10-13T23:04:25:997
0,000000	2020-10-13T23:04:26:237
0,000000	2020-10-13T23:04:26:477
0,000000	2020-10-13T23:04:26:719
0,000000	2020-10-13T23:04:26:959
0,000000	2020-10-13T23:04:27:199
0,000000	2020-10-13T23:04:27:439
0,000000	2020-10-13T23:04:27:680
0,000000	2020-10-13T23:04:27:919
0,000000	2020-10-13T23:04:28:159
0,000000	2020-10-13T23:04:28:399
0,000000	2020-10-13T23:04:28:640
0,000000	2020-10-13T23:04:28:880
0,000000	2020-10-13T23:04:29:119
0,000000	2020-10-13T23:04:29:361
0,000000	2020-10-13T23:04:29:601
0,000000	2020-10-13T23:04:29:842
0,000000	2020-10-13T23:04:30:084
0,000000	2020-10-13T23:04:30:322
0,000000	2020-10-13T23:04:30:563
0,000000	2020-10-13T23:04:30:802
0,000000	2020-10-13T23:04:31:043
0,000000	2020-10-13T23:04:31:282
0,000000	2020-10-13T23:04:31:523
0,000000	2020-10-13T23:04:31:763
0,000000	2020-10-13T23:04:32:003
0,000000	2020-10-13T23:04:32:244
0,000000	2020-10-13T23:04:32:484
0,000000	2020-10-13T23:04:32:723
0,000000	2020-10-13T23:04:32:964
0,000000	2020-10-13T23:04:33:204
0,000000	2020-10-13T23:04:33:446
0,000000	2020-10-13T23:04:33:684
0,000000	2020-10-13T23:04:33:925
0,000000	2020-10-13T23:04:34:166
0,000000	2020-10-13T23:04:34:405
0,000000	2020-10-13T23:04:34:646
0,000000	2020-10-13T23:04:34:886
0,000000	2020-10-13T23:04:35:127
0,000000	2020-10-13T23:04:35:366
0,000000	2020-10-13T23:04:35:607
0,000000	2020-10-13T23:04:35:847
0,000000	2020-10-13T23:04:36:087
0,000000	2020-10-13T23:04:36:328
0,000000	2020-10-13T23:04:36:568
0,000000	2020-10-13T23:04:36:808
0,000000	2020-10-13T23:04:37:049
0,000000	2020-10-13T23:04:37:289
0,000000	2020-10-13T23:04:37:530
0,000000	2020-10-13T23:04:37:769
0,000000	2020-10-13T23:04:38:009
0,000000	2020-10-13T23:04:38:250
0,000000	2020-10-13T23:04:38:489
0,000000	2020-10-13T23:04:38:730
0,000000	2020-10-13T23:04:38:970
0,000000	2020-10-13T23:04:39:210
0,000000	2020-10-13T23:04:39:451
0,000000	2020-10-13T23:04:39:691
0,000000	2020-10-13T23:04:39:931
0,000000	2020-10-13T23:04:40:171
0,000000	2020-10-13T23:04:40:411
0,000000	2020-10-13T23:04:40:652
0,000000	2020-10-13T23:04:40:891
0,000000	2020-10-13T23:04:41:132
0,000000	2020-10-13T23:04:41:372
0,000000	2020-10-13T23:04:41:612
0,000000	2020-10-13T23:04:41:853
0,000000	2020-10-13T23:04:42:104
0,000000	2020-10-13T23:04:42:333
0,000000	2020-10-13T23:04:42:573
0,000000	2020-10-13T23:04:42:813
0,000000	2020-10-13T23:04:43:054
0,000000	2020-10-13T23:04:43:295
0,000000	2020-10-13T23:04:43:534
0,000000	2020-10-13T23:04:43:774
0,000000	2020-10-13T23:04:44:017
0,000000	2020-10-13T23:04:44:256
0,000000	2020-10-13T23:04:44:496
0,000000	2020-10-13T23:04:44:735
0,000000	2020-10-13T23:04:44:976
0,000000	2020-10-13T23:04:45:215
0,000000	2020-10-13T23:04:45:456
0,000000	2020-10-13T23:04:45:697
0,000000	2020-10-13T23:04:45:937
0,000000	2020-10-13T23:04:46:178
0,000000	2020-10-13T23:04:46:418
0,000000	2020-10-13T23:04:46:657
0,000000	2020-10-13T23:04:46:899
0,000000	2020-10-13T23:04:47:138
0,000000	2020-10-13T23:04:47:377
0,000000	2020-10-13T23:04:47:618
0,000000	2020-10-13T23:04:47:859
0,000000	2020-10-13T23:04:48:100
0,000000	2020-10-13T23:04:48:340
0,000000	2020-10-13T23:04:48:580
0,000000	2020-10-13T23:04:48:819
0,000000	2020-10-13T23:04:49:060
0,000000	2020-10-13T23:04:49:300
0,000000	2020-10-13T23:04:49:541
0,000000	2020-10-13T23:04:49:780
0,000000	2020-10-13T23:04:50:020
0,000000	2020-10-13T23:04:50:261
0,000000	2020-10-13T23:04:50:501
0,000000	2020-10-13T23:04:50:741
0,000000	2020-10-13T23:04:50:982
0,000000	2020-10-13T23:04:51:221
0,000000	2020-10-13T23:04:51:462
0,000000	2020-10-13T23:04:51:705
0,000000	2020-10-13T23:04:51:942
0,000000	2020-10-13T23:04:52:183
0,000000	2020-10-13T23:04:52:423
0,000000	2020-10-13T23:04:52:663
0,000000	2020-10-13T23:04:52:903
0,000000	2020-10-13T23:04:53:144
0,000000	2020-10-13T23:04:53:384
0,000000	2020-10-13T23:04:53:624
0,000000	2020-10-13T23:04:53:865
0,000000	2020-10-13T23:04:54:104
0,000000	2020-10-13T23:04:54:344
0,000000	2020-10-13T23:04:54:586
0,000000	2020-10-13T23:04:54:825
0,000000	2020-10-13T23:04:55:066
0,000000	2020-10-13T23:04:55:307
0,000000	2020-10-13T23:04:55:546
0,000000	2020-10-13T23:04:55:787
0,000000	2020-10-13T23:04:56:027
0,000000	2020-10-13T23:04:56:269
0,000000	2020-10-13T23:04:56:508
0,000000	2020-10-13T23:04:56:747
0,000000	2020-10-13T23:04:56:987
0,000000	2020-10-13T23:04:57:227
0,000000	2020-10-13T23:04:57:470
0,000000	2020-10-13T23:04:57:708
0,000000	2020-10-13T23:04:57:950
0,000000	2020-10-13T23:04:58:188
0,000000	2020-10-13T23:04:58:429
0,000000	2020-10-13T23:04:58:672
0,000000	2020-10-13T23:04:58:909
0,000000	2020-10-13T23:04:59:150
0,000000	2020-10-13T23:04:59:389
0,000000	2020-10-13T23:04:59:630
0,000000	2020-10-13T23:04:59:871
0,000000	2020-10-13T23:05:00:111
0,000000	2020-10-13T23:05:00:351
0,000000	2020-10-13T23:05:00:591
0,000000	2020-10-13T23:05:00:831
0,000000	2020-10-13T23:05:01:071
0,000000	2020-10-13T23:05:01:311
0,000000	2020-10-13T23:05:01:552
0,000000	2020-10-13T23:05:01:791
0,000000	2020-10-13T23:05:02:033
0,000000	2020-10-13T23:05:02:272
0,000000	2020-10-13T23:05:02:513
0,000000	2020-10-13T23:05:02:753
0,000000	2020-10-13T23:05:02:993
0,000000	2020-10-13T23:05:03:234
0,000000	2020-10-13T23:05:03:474
0,000000	2020-10-13T23:05:03:714
0,000000	2020-10-13T23:05:03:954
0,000000	2020-10-13T23:05:04:195
0,000000	2020-10-13T23:05:04:437
0,000000	2020-10-13T23:05:04:675
0,000000	2020-10-13T23:05:04:915
0,000000	2020-10-13T23:05:05:156
0,000000	2020-10-13T23:05:05:395
0,000000	2020-10-13T23:05:05:636
0,000000	2020-10-13T23:05:05:876
0,000000	2020-10-13T23:05:06:117
0,000000	2020-10-13T23:05:06:356
0,000000	2020-10-13T23:05:06:596
0,000000	2020-10-13T23:05:06:838
0,000000	2020-10-13T23:05:07:078
0,000000	2020-10-13T23:05:07:318
0,000000	2020-10-13T23:05:07:557
0,000000	2020-10-13T23:05:07:798
0,000000	2020-10-13T23:05:08:038
0,000000	2020-10-13T23:05:08:280
0,000000	2020-10-13T23:05:08:519
0,000000	2020-10-13T23:05:08:759
0,000000	2020-10-13T23:05:08:999
0,000000	2020-10-13T23:05:09:239
0,000000	2020-10-13T23:05:09:480
0,000000	2020-10-13T23:05:09:719
0,000000	2020-10-13T23:05:09:960
0,000000	2020-10-13T23:05:10:200
0,000000	2020-10-13T23:05:10:441
0,000000	2020-10-13T23:05:10:681
0,000000	2020-10-13T23:05:10:921
0,000000	2020-10-13T23:05:11:162
0,000000	2020-10-13T23:05:11:402
0,000000	2020-10-13T23:05:11:642
0,000000	2020-10-13T23:05:11:884
0,000000	2020-10-13T23:05:12:122
0,000000	2020-10-13T23:05:12:362
0,000000	2020-10-13T23:05:12:602
0,000000	2020-10-13T23:05:12:843
0,000000	2020-10-13T23:05:13:083
0,000000	2020-10-13T23:05:13:323
0,000000	2020-10-13T23:05:13:564
0,000000	2020-10-13T23:05:13:804
0,000000	2020-10-13T23:05:14:044
0,000000	2020-10-13T23:05:14:285
0,000000	2020-10-13T23:05:14:525
0,000000	2020-10-13T23:05:14:765
0,000000	2020-10-13T23:05:15:006
0,000000	2020-10-13T23:05:15:246
0,000000	2020-10-13T23:05:15:485
0,000000	2020-10-13T23:05:15:725
0,000000	2020-10-13T23:05:15:967
0,000000	2020-10-13T23:05:16:206
0,000000	2020-10-13T23:05:16:447
0,000000	2020-10-13T23:05:16:688
0,000000	2020-10-13T23:05:16:927
0,000000	2020-10-13T23:05:17:167
0,000000	2020-10-13T23:05:17:407
0,000000	2020-10-13T23:05:17:648
0,000000	2020-10-13T23:05:17:888
0,000000	2020-10-13T23:05:18:136
0,000000	2020-10-13T23:05:18:368
0,000000	2020-10-13T23:05:18:608
0,000000	2020-10-13T23:05:18:849
0,000000	2020-10-13T23:05:19:090
0,000000	2020-10-13T23:05:19:330
0,000000	2020-10-13T23:05:19:569
0,000000	2020-10-13T23:05:19:810
0,000000	2020-10-13T23:05:20:051
0,000000	2020-10-13T23:05:20:291
0,000000	2020-10-13T23:05:20:530
0,000000	2020-10-13T23:05:20:771
0,000000	2020-10-13T23:05:21:011
0,000000	2020-10-13T23:05:21:252
0,000000	2020-10-13T23:05:21:492
0,000000	2020-10-13T23:05:21:732
0,000000	2020-10-13T23:05:21:972
0,000000	2020-10-13T23:05:22:213
0,000000	2020-10-13T23:05:22:452
0,000000	2020-10-13T23:05:22:693
0,000000	2020-10-13T23:05:22:933
0,000000	2020-10-13T23:05:23:173
0,000000	2020-10-13T23:05:23:413
0,000000	2020-10-13T23:05:23:653
0,000000	2020-10-13T23:05:23:894
0,000000	2020-10-13T23:05:24:134
0,000000	2020-10-13T23:05:24:375
0,000000	2020-10-13T23:05:24:614
0,000000	2020-10-13T23:05:24:854
0,000000	2020-10-13T23:05:25:096
0,000000	2020-10-13T23:05:25:335
0,000000	2020-10-13T23:05:25:575
0,000000	2020-10-13T23:05:25:815
0,000000	2020-10-13T23:05:26:056
0,000000	2020-10-13T23:05:26:297
0,000000	2020-10-13T23:05:26:537
0,000000	2020-10-13T23:05:26:777
0,000000	2020-10-13T23:05:27:016
0,000000	2020-10-13T23:05:27:257
0,000000	2020-10-13T23:05:27:497
0,000000	2020-10-13T23:05:27:737
0,000000	2020-10-13T23:05:27:978
0,000000	2020-10-13T23:05:28:218
0,000000	2020-10-13T23:05:28:459
0,000000	2020-10-13T23:05:28:699
0,000000	2020-10-13T23:05:28:938
0,000000	2020-10-13T23:05:29:179
0,000000	2020-10-13T23:05:29:419
0,000000	2020-10-13T23:05:29:659
0,000000	2020-10-13T23:05:29:900
0,000000	2020-10-13T23:05:30:139
0,000000	2020-10-13T23:05:30:380
0,000000	2020-10-13T23:05:30:621
0,000000	2020-10-13T23:05:30:861
0,000000	2020-10-13T23:05:31:101
0,000000	2020-10-13T23:05:31:340
0,000000	2020-10-13T23:05:31:581
0,000000	2020-10-13T23:05:31:821
0,000000	2020-10-13T23:05:32:061
0,000000	2020-10-13T23:05:32:304
0,000000	2020-10-13T23:05:32:542
0,000000	2020-10-13T23:05:32:782
0,000000	2020-10-13T23:05:33:022
0,000000	2020-10-13T23:05:33:262
0,000000	2020-10-13T23:05:33:504
0,000000	2020-10-13T23:05:33:743
0,000000	2020-10-13T23:05:33:984
0,000000	2020-10-13T23:05:34:225
0,000000	2020-10-13T23:05:34:465
0,000000	2020-10-13T23:05:34:705
0,000000	2020-10-13T23:05:34:944
0,000000	2020-10-13T23:05:35:184
0,000000	2020-10-13T23:05:35:425
0,000000	2020-10-13T23:05:35:665
0,000000	2020-10-13T23:05:35:906
0,000000	2020-10-13T23:05:36:146
0,000000	2020-10-13T23:05:36:386
0,000000	2020-10-13T23:05:36:626
0,000000	2020-10-13T23:05:36:876
0,000000	2020-10-13T23:05:37:107
0,000000	2020-10-13T23:05:37:346
0,000000	2020-10-13T23:05:37:587
0,000000	2020-10-13T23:05:37:827
0,000000	2020-10-13T23:05:38:068
0,000000	2020-10-13T23:05:38:308
0,000000	2020-10-13T23:05:38:548
0,000000	2020-10-13T23:05:38:788
0,000000	2020-10-13T23:05:39:029
0,000000	2020-10-13T23:05:39:270
0,000000	2020-10-13T23:05:39:509
0,000000	2020-10-13T23:05:39:749
0,000000	2020-10-13T23:05:39:991
0,000000	2020-10-13T23:05:40:229
0,000000	2020-10-13T23:05:40:470
0,000000	2020-10-13T23:05:40:711
0,000000	2020-10-13T23:05:40:951
0,000000	2020-10-13T23:05:41:190
0,000000	2020-10-13T23:05:41:431
0,000000	2020-10-13T23:05:41:673
0,000000	2020-10-13T23:05:41:911
0,000000	2020-10-13T23:05:42:150
0,000000	2020-10-13T23:05:42:392
0,000000	2020-10-13T23:05:42:632
0,000000	2020-10-13T23:05:42:872
0,000000	2020-10-13T23:05:43:112
0,000000	2020-10-13T23:05:43:353
0,000000	2020-10-13T23:05:43:592
0,000000	2020-10-13T23:05:43:832
0,000000	2020-10-13T23:05:44:074
0,000000	2020-10-13T23:05:44:314
0,000000	2020-10-13T23:05:44:553
0,000000	2020-10-13T23:05:44:795
0,000000	2020-10-13T23:05:45:035
0,000000	2020-10-13T23:05:45:275
0,000000	2020-10-13T23:05:45:515
0,000000	2020-10-13T23:05:45:755
0,000000	2020-10-13T23:05:45:995
0,000000	2020-10-13T23:05:46:235
0,000000	2020-10-13T23:05:46:475
0,000000	2020-10-13T23:05:46:716
0,000000	2020-10-13T23:05:46:956
0,000000	2020-10-13T23:05:47:197
0,000000	2020-10-13T23:05:47:438
0,000000	2020-10-13T23:05:47:676
0,000000	2020-10-13T23:05:47:920
0,000000	2020-10-13T23:05:48:157
0,000000	2020-10-13T23:05:48:397
0,000000	2020-10-13T23:05:48:637
0,000000	2020-10-13T23:05:48:878
0,000000	2020-10-13T23:05:49:119
0,000000	2020-10-13T23:05:49:359
0,000000	2020-10-13T23:05:49:601
0,000000	2020-10-13T23:05:49:839
0,000000	2020-10-13T23:05:50:081
0,000000	2020-10-13T23:05:50:320
0,000000	2020-10-13T23:05:50:560
0,000000	2020-10-13T23:05:50:800
0,000000	2020-10-13T23:05:51:039
0,000000	2020-10-13T23:05:51:280
0,000000	2020-10-13T23:05:51:521
0,000000	2020-10-13T23:05:51:761
0,000000	2020-10-13T23:05:52:001
0,000000	2020-10-13T23:05:52:244
0,000000	2020-10-13T23:05:52:483
0,000000	2020-10-13T23:05:52:722
0,000000	2020-10-13T23:05:52:962
0,000000	2020-10-13T23:05:53:202
0,000000	2020-10-13T23:05:53:444
0,000000	2020-10-13T23:05:53:683
0,000000	2020-10-13T23:05:53:923
0,000000	2020-10-13T23:05:54:163
0,000000	2020-10-13T23:05:54:404
0,000000	2020-10-13T23:05:54:644
0,000000	2020-10-13T23:05:54:884
0,000000	2020-10-13T23:05:55:125
0,000000	2020-10-13T23:05:55:365
0,000000	2020-10-13T23:05:55:605
0,000000	2020-10-13T23:05:55:845
0,000000	2020-10-13T23:05:56:093
0,000000	2020-10-13T23:05:56:327
0,000000	2020-10-13T23:05:56:566
0,000000	2020-10-13T23:05:56:806
0,000000	2020-10-13T23:05:57:046
0,000000	2020-10-13T23:05:57:287
0,000000	2020-10-13T23:05:57:528
0,000000	2020-10-13T23:05:57:767
0,000000	2020-10-13T23:05:58:008
0,000000	2020-10-13T23:05:58:248
0,000000	2020-10-13T23:05:58:488
0,000000	2020-10-13T23:05:58:731
0,000000	2020-10-13T23:05:58:968
0,000000	2020-10-13T23:05:59:208
0,000000	2020-10-13T23:05:59:448
0,000000	2020-10-13T23:05:59:689
0,000000	2020-10-13T23:05:59:929
0,000000	2020-10-13T23:06:00:169
0,000000	2020-10-13T23:06:00:411
0,000000	2020-10-13T23:06:00:650
0,000000	2020-10-13T23:06:00:890
0,000000	2020-10-13T23:06:01:130
0,000000	2020-10-13T23:06:01:370
0,000000	2020-10-13T23:06:01:610
0,000000	2020-10-13T23:06:01:851
0,000000	2020-10-13T23:06:02:090
0,000000	2020-10-13T23:06:02:333
0,000000	2020-10-13T23:06:02:572
0,000000	2020-10-13T23:06:02:811
0,000000	2020-10-13T23:06:03:052
0,000000	2020-10-13T23:06:03:292
0,000000	2020-10-13T23:06:03:533
0,000000	2020-10-13T23:06:03:772
0,000000	2020-10-13T23:06:04:013
0,000000	2020-10-13T23:06:04:252
0,000000	2020-10-13T23:06:04:494
0,000000	2020-10-13T23:06:04:734
0,000000	2020-10-13T23:06:04:973
0,000000	2020-10-13T23:06:05:214
0,000000	2020-10-13T23:06:05:454
0,000000	2020-10-13T23:06:05:695
0,000000	2020-10-13T23:06:05:936
0,000000	2020-10-13T23:06:06:175
0,000000	2020-10-13T23:06:06:415
0,000000	2020-10-13T23:06:06:655
0,000000	2020-10-13T23:06:06:896
0,000000	2020-10-13T23:06:07:137
0,000000	2020-10-13T23:06:07:376
0,000000	2020-10-13T23:06:07:616
0,000000	2020-10-13T23:06:07:856
0,000000	2020-10-13T23:06:08:115
0,000000	2020-10-13T23:06:08:339
0,000000	2020-10-13T23:06:08:577
0,000000	2020-10-13T23:06:08:817
0,000000	2020-10-13T23:06:09:057
0,000000	2020-10-13T23:06:09:298
0,000000	2020-10-13T23:06:09:539
0,000000	2020-10-13T23:06:09:779
0,000000	2020-10-13T23:06:10:019
0,000000	2020-10-13T23:06:10:259
0,000000	2020-10-13T23:06:10:499
0,000000	2020-10-13T23:06:10:739
0,000000	2020-10-13T23:06:10:980
0,000000	2020-10-13T23:06:11:220
0,000000	2020-10-13T23:06:11:460
0,000000	2020-10-13T23:06:11:700
0,000000	2020-10-13T23:06:11:941
0,000000	2020-10-13T23:06:12:181
0,000000	2020-10-13T23:06:12:421
0,000000	2020-10-13T23:06:12:661
0,000000	2020-10-13T23:06:12:903
0,000000	2020-10-13T23:06:13:143
0,000000	2020-10-13T23:06:13:381
0,000000	2020-10-13T23:06:13:623
0,000000	2020-10-13T23:06:13:862
0,000000	2020-10-13T23:06:14:102
0,000000	2020-10-13T23:06:14:343
0,000000	2020-10-13T23:06:14:583
0,000000	2020-10-13T23:06:14:823
0,000000	2020-10-13T23:06:15:063
0,000000	2020-10-13T23:06:15:304
0,000000	2020-10-13T23:06:15:545
0,000000	2020-10-13T23:06:15:784
0,000000	2020-10-13T23:06:16:025
0,000000	2020-10-13T23:06:16:265
0,000000	2020-10-13T23:06:16:506
0,000000	2020-10-13T23:06:16:747
0,000000	2020-10-13T23:06:16:985
0,000000	2020-10-13T23:06:17:226
0,000000	2020-10-13T23:06:17:467
0,000000	2020-10-13T23:06:17:707
0,000000	2020-10-13T23:06:17:947
0,000000	2020-10-13T23:06:18:187
0,000000	2020-10-13T23:06:18:427
0,000000	2020-10-13T23:06:18:667
0,000000	2020-10-13T23:06:18:908
0,000000	2020-10-13T23:06:19:148
0,000000	2020-10-13T23:06:19:388
0,000000	2020-10-13T23:06:19:628
0,000000	2020-10-13T23:06:19:868
0,000000	2020-10-13T23:06:20:108
0,000000	2020-10-13T23:06:20:349
0,000000	2020-10-13T23:06:20:588
0,000000	2020-10-13T23:06:20:829
0,000000	2020-10-13T23:06:21:069
0,000000	2020-10-13T23:06:21:309
0,000000	2020-10-13T23:06:21:551
0,000000	2020-10-13T23:06:21:791
0,000000	2020-10-13T23:06:22:030
0,000000	2020-10-13T23:06:22:271
0,000000	2020-10-13T23:06:22:511
0,000000	2020-10-13T23:06:22:751
0,000000	2020-10-13T23:06:22:991
0,000000	2020-10-13T23:06:23:231
0,000000	2020-10-13T23:06:23:472
0,000000	2020-10-13T23:06:23:712
0,000000	2020-10-13T23:06:23:953
0,000000	2020-10-13T23:06:24:193
0,000000	2020-10-13T23:06:24:434
0,000000	2020-10-13T23:06:24:673
0,000000	2020-10-13T23:06:24:913
0,000000	2020-10-13T23:06:25:154
0,000000	2020-10-13T23:06:25:395
0,000000	2020-10-13T23:06:25:635
0,000000	2020-10-13T23:06:25:874
0,000000	2020-10-13T23:06:26:115
0,000000	2020-10-13T23:06:26:355
0,000000	2020-10-13T23:06:26:594
0,000000	2020-10-13T23:06:26:835
0,000000	2020-10-13T23:06:27:075
0,000000	2020-10-13T23:06:27:315
0,000000	2020-10-13T23:06:27:556
0,000000	2020-10-13T23:06:27:795
0,000000	2020-10-13T23:06:28:035
0,000000	2020-10-13T23:06:28:277
0,000000	2020-10-13T23:06:28:517
0,000000	2020-10-13T23:06:28:757
0,000000	2020-10-13T23:06:28:997
0,000000	2020-10-13T23:06:29:238
0,000000	2020-10-13T23:06:29:477
0,000000	2020-10-13T23:06:29:718
0,000000	2020-10-13T23:06:29:959
0,000000	2020-10-13T23:06:30:199
0,000000	2020-10-13T23:06:30:439
0,000000	2020-10-13T23:06:30:678
0,000000	2020-10-13T23:06:30:919
0,000000	2020-10-13T23:06:31:159
0,000000	2020-10-13T23:06:31:399
0,000000	2020-10-13T23:06:31:641
0,000000	2020-10-13T23:06:31:880
0,000000	2020-10-13T23:06:32:120
0,000000	2020-10-13T23:06:32:361
0,000000	2020-10-13T23:06:32:601
0,000000	2020-10-13T23:06:32:841
0,000000	2020-10-13T23:06:33:081
0,000000	2020-10-13T23:06:33:321
0,000000	2020-10-13T23:06:33:562
0,000000	2020-10-13T23:06:33:801
0,000000	2020-10-13T23:06:34:043
0,000000	2020-10-13T23:06:34:283
0,000000	2020-10-13T23:06:34:523
0,000000	2020-10-13T23:06:34:763
0,000000	2020-10-13T23:06:35:003
0,000000	2020-10-13T23:06:35:244
0,000000	2020-10-13T23:06:35:484
0,000000	2020-10-13T23:06:35:724
0,000000	2020-10-13T23:06:35:965
0,000000	2020-10-13T23:06:36:204
0,000000	2020-10-13T23:06:36:444
0,000000	2020-10-13T23:06:36:685
0,000000	2020-10-13T23:06:36:925
0,000000	2020-10-13T23:06:37:165
0,000000	2020-10-13T23:06:37:406
0,000000	2020-10-13T23:06:37:646
0,000000	2020-10-13T23:06:37:886
0,000000	2020-10-13T23:06:38:127
0,000000	2020-10-13T23:06:38:368
0,000000	2020-10-13T23:06:38:606
0,000000	2020-10-13T23:06:38:847
0,000000	2020-10-13T23:06:39:087
0,000000	2020-10-13T23:06:39:327
0,000000	2020-10-13T23:06:39:568
0,000000	2020-10-13T23:06:39:807
0,000000	2020-10-13T23:06:40:049
0,000000	2020-10-13T23:06:40:288
0,000000	2020-10-13T23:06:40:529
0,000000	2020-10-13T23:06:40:771
0,000000	2020-10-13T23:06:41:008
0,000000	2020-10-13T23:06:41:249
0,000000	2020-10-13T23:06:41:490
0,000000	2020-10-13T23:06:41:730
0,000000	2020-10-13T23:06:41:971
0,000000	2020-10-13T23:06:42:212
0,000000	2020-10-13T23:06:42:450
0,000000	2020-10-13T23:06:42:691
0,000000	2020-10-13T23:06:42:931
0,000000	2020-10-13T23:06:43:171
0,000000	2020-10-13T23:06:43:411
0,000000	2020-10-13T23:06:43:651
0,000000	2020-10-13T23:06:43:892
0,000000	2020-10-13T23:06:44:132
0,000000	2020-10-13T23:06:44:372
0,000000	2020-10-13T23:06:44:613
0,000000	2020-10-13T23:06:44:852
0,000000	2020-10-13T23:06:45:093
0,000000	2020-10-13T23:06:45:334
0,000000	2020-10-13T23:06:45:574
0,000000	2020-10-13T23:06:45:814
0,000000	2020-10-13T23:06:46:055
0,000000	2020-10-13T23:06:46:294
0,000000	2020-10-13T23:06:46:535
0,000000	2020-10-13T23:06:46:774
0,000000	2020-10-13T23:06:47:017
0,000000	2020-10-13T23:06:47:254
0,000000	2020-10-13T23:06:47:495
0,000000	2020-10-13T23:06:47:736
0,000000	2020-10-13T23:06:47:976
0,000000	2020-10-13T23:06:48:216
0,000000	2020-10-13T23:06:48:456
0,000000	2020-10-13T23:06:48:696
0,000000	2020-10-13T23:06:48:936
0,000000	2020-10-13T23:06:49:177
0,000000	2020-10-13T23:06:49:417
0,000000	2020-10-13T23:06:49:660
0,000000	2020-10-13T23:06:49:897
0,000000	2020-10-13T23:06:50:139
0,000000	2020-10-13T23:06:50:379
0,000000	2020-10-13T23:06:50:618
0,000000	2020-10-13T23:06:50:859
0,000000	2020-10-13T23:06:51:099
0,000000	2020-10-13T23:06:51:339
0,000000	2020-10-13T23:06:51:579
0,000000	2020-10-13T23:06:51:820
0,000000	2020-10-13T23:06:52:060
0,000000	2020-10-13T23:06:52:301
0,000000	2020-10-13T23:06:52:540
0,000000	2020-10-13T23:06:52:781
0,000000	2020-10-13T23:06:53:021
0,000000	2020-10-13T23:06:53:261
0,000000	2020-10-13T23:06:53:501
0,000000	2020-10-13T23:06:53:742
0,000000	2020-10-13T23:06:53:982
0,000000	2020-10-13T23:06:54:222
0,000000	2020-10-13T23:06:54:462
0,000000	2020-10-13T23:06:54:701
0,000000	2020-10-13T23:06:54:943
0,000000	2020-10-13T23:06:55:183
0,000000	2020-10-13T23:06:55:422
0,000000	2020-10-13T23:06:55:663
0,000000	2020-10-13T23:06:55:903
0,000000	2020-10-13T23:06:56:144
0,000000	2020-10-13T23:06:56:385
0,000000	2020-10-13T23:06:56:624
0,000000	2020-10-13T23:06:56:866
0,000000	2020-10-13T23:06:57:104
0,000000	2020-10-13T23:06:57:345
0,000000	2020-10-13T23:06:57:586
0,000000	2020-10-13T23:06:57:825
0,000000	2020-10-13T23:06:58:066
0,000000	2020-10-13T23:06:58:306
0,000000	2020-10-13T23:06:58:546
0,000000	2020-10-13T23:06:58:795
0,000000	2020-10-13T23:06:59:027
0,000000	2020-10-13T23:06:59:267
0,000000	2020-10-13T23:06:59:506
0,000000	2020-10-13T23:06:59:747
0,000000	2020-10-13T23:06:59:987
0,000000	2020-10-13T23:07:00:229
0,000000	2020-10-13T23:07:00:468
0,000000	2020-10-13T23:07:00:708
0,000000	2020-10-13T23:07:00:948
0,000000	2020-10-13T23:07:01:190
0,000000	2020-10-13T23:07:01:429
0,000000	2020-10-13T23:07:01:669
0,000000	2020-10-13T23:07:01:909
0,000000	2020-10-13T23:07:02:150
0,000000	2020-10-13T23:07:02:390
0,000000	2020-10-13T23:07:02:630
0,000000	2020-10-13T23:07:02:871
0,000000	2020-10-13T23:07:03:114
0,000000	2020-10-13T23:07:03:352
0,000000	2020-10-13T23:07:03:591
0,000000	2020-10-13T23:07:03:831
0,000000	2020-10-13T23:07:04:071
0,000000	2020-10-13T23:07:04:311
0,000000	2020-10-13T23:07:04:552
0,000000	2020-10-13T23:07:04:793
0,000000	2020-10-13T23:07:05:032
0,000000	2020-10-13T23:07:05:272
0,000000	2020-10-13T23:07:05:512
0,000000	2020-10-13T23:07:05:753
0,000000	2020-10-13T23:07:05:994
0,000000	2020-10-13T23:07:06:233
0,000000	2020-10-13T23:07:06:473
0,000000	2020-10-13T23:07:06:715
0,000000	2020-10-13T23:07:06:955
0,000000	2020-10-13T23:07:07:194
0,000000	2020-10-13T23:07:07:435
0,000000	2020-10-13T23:07:07:675
0,000000	2020-10-13T23:07:07:915
0,000000	2020-10-13T23:07:08:156
0,000000	2020-10-13T23:07:08:397
0,000000	2020-10-13T23:07:08:636
0,000000	2020-10-13T23:07:08:876
0,000000	2020-10-13T23:07:09:118
0,000000	2020-10-13T23:07:09:357
0,000000	2020-10-13T23:07:09:598
0,000000	2020-10-13T23:07:09:837
0,000000	2020-10-13T23:07:10:334
4,000000	2020-10-13T23:07:10:341
4,000000	2020-10-13T23:07:10:575
0,000000	2020-10-13T23:07:10:804
0,000000	2020-10-13T23:07:11:037
0,000000	2020-10-13T23:07:11:278
0,000000	2020-10-13T23:07:11:517
0,000000	2020-10-13T23:07:11:757
0,000000	2020-10-13T23:07:12:001
0,000000	2020-10-13T23:07:12:237
0,000000	2020-10-13T23:07:12:478
0,000000	2020-10-13T23:07:12:720
0,000000	2020-10-13T23:07:12:958
0,000000	2020-10-13T23:07:13:201
0,000000	2020-10-13T23:07:13:439
0,000000	2020-10-13T23:07:13:682
0,000000	2020-10-13T23:07:13:921
0,000000	2020-10-13T23:07:14:161
0,000000	2020-10-13T23:07:14:402
0,000000	2020-10-13T23:07:14:642
0,000000	2020-10-13T23:07:14:882
0,000000	2020-10-13T23:07:15:123
0,000000	2020-10-13T23:07:15:364
0,000000	2020-10-13T23:07:15:604
0,000000	2020-10-13T23:07:15:844
0,000000	2020-10-13T23:07:16:093
