x	y	z	ts
0,027197	-2,231318	0,010638	2020-10-13T23:02:42:123
0,011198	-0,139352	-0,018629	2020-10-13T23:02:42:123
-0,031661	-0,006292	-0,038540	2020-10-13T23:02:42:124
-0,024191	0,055833	-0,093822	2020-10-13T23:02:42:124
-0,012380	-0,018787	-0,036813	2020-10-13T23:02:42:125
0,013017	-0,030157	-0,080046	2020-10-13T23:02:42:125
-0,006640	0,016846	-0,077536	2020-10-13T23:02:42:125
0,070357	-0,043711	-0,051275	2020-10-13T23:02:42:126
0,031173	0,016905	-0,041395	2020-10-13T23:02:42:132
-0,034461	-0,018206	-0,019642	2020-10-13T23:02:42:133
-0,034338	-0,018103	-0,019638	2020-10-13T23:02:42:133
-0,000584	-0,041817	-0,093809	2020-10-13T23:02:42:134
-0,007340	0,017826	-0,065023	2020-10-13T23:02:42:151
-0,059982	0,060897	-0,041095	2020-10-13T23:02:42:170
0,065962	-0,032998	-0,051169	2020-10-13T23:02:42:191
-0,002245	-0,001745	-0,018691	2020-10-13T23:02:42:212
-0,074030	-0,035244	-0,040226	2020-10-13T23:02:42:231
-0,001015	0,110517	-0,051680	2020-10-13T23:02:42:250
0,032775	0,000936	-0,061734	2020-10-13T23:02:42:271
0,021755	0,017441	-0,064108	2020-10-13T23:02:42:290
0,053447	0,020187	-0,064036	2020-10-13T23:02:42:311
0,017006	0,045546	-0,054457	2020-10-13T23:02:42:331
-0,036858	0,053001	-0,059360	2020-10-13T23:02:42:350
0,031315	-0,010300	-0,054681	2020-10-13T23:02:42:370
0,058500	0,014280	-0,068952	2020-10-13T23:02:42:391
0,000306	0,011809	-0,073659	2020-10-13T23:02:42:410
-0,002688	-0,030577	-0,083167	2020-10-13T23:02:42:431
0,003706	0,003033	-0,018345	2020-10-13T23:02:42:452
0,063527	0,012604	-0,059022	2020-10-13T23:02:42:471
-0,037742	0,076052	-0,074517	2020-10-13T23:02:42:490
-0,053258	0,022946	-0,060410	2020-10-13T23:02:42:511
-0,046283	-0,051559	-0,029397	2020-10-13T23:02:42:531
0,001198	0,053358	-0,014955	2020-10-13T23:02:42:551
-0,068057	-0,002879	-0,020009	2020-10-13T23:02:42:571
-0,034061	0,000582	-0,070271	2020-10-13T23:02:42:591
-0,028276	-0,005410	-0,039108	2020-10-13T23:02:42:610
-0,027148	0,032979	-0,048706	2020-10-13T23:02:42:631
0,031351	0,024267	-0,063209	2020-10-13T23:02:42:650
-0,123953	0,081600	-0,020078	2020-10-13T23:02:42:672
-0,017376	0,061499	-0,037260	2020-10-13T23:02:42:692
0,031001	-0,022958	-0,075788	2020-10-13T23:02:42:711
0,000487	0,056850	-0,006280	2020-10-13T23:02:42:731
-0,019224	0,002243	-0,094939	2020-10-13T23:02:42:751
-0,057064	-0,008851	-0,049426	2020-10-13T23:02:42:771
-0,004887	0,011473	-0,051012	2020-10-13T23:02:42:791
0,021434	-0,062705	-0,077333	2020-10-13T23:02:42:811
0,029142	-0,032816	-0,035872	2020-10-13T23:02:42:831
0,070033	-0,020695	-0,026046	2020-10-13T23:02:42:851
0,006374	0,009359	-0,028230	2020-10-13T23:02:42:873
-0,077770	0,070089	-0,028333	2020-10-13T23:02:42:891
-0,048079	0,059808	-0,019092	2020-10-13T23:02:42:911
0,022940	0,041234	-0,002526	2020-10-13T23:02:42:932
-0,010039	0,016047	-0,040990	2020-10-13T23:02:42:951
-0,053110	-0,082058	-0,064919	2020-10-13T23:02:42:971
-0,059248	0,009276	-0,036633	2020-10-13T23:02:42:992
-0,037776	-0,031322	-0,048661	2020-10-13T23:02:43:011
0,032724	0,096281	-0,062993	2020-10-13T23:02:43:031
-0,050677	0,139642	0,008344	2020-10-13T23:02:43:051
-0,055227	0,036898	-0,011565	2020-10-13T23:02:43:072
0,005077	0,002544	-0,031028	2020-10-13T23:02:43:091
0,000173	0,015174	-0,081399	2020-10-13T23:02:43:111
-0,021633	0,061157	0,042902	2020-10-13T23:02:43:134
-0,003813	-0,001351	-0,024492	2020-10-13T23:02:43:153
-0,077788	0,054545	-0,094000	2020-10-13T23:02:43:179
-0,043062	0,034825	-0,046459	2020-10-13T23:02:43:193
-0,005046	0,113211	-0,018016	2020-10-13T23:02:43:214
-0,002737	0,040081	-0,095015	2020-10-13T23:02:43:234
-0,013072	-0,013133	-0,039997	2020-10-13T23:02:43:254
-0,027410	-0,066647	-0,063820	2020-10-13T23:02:43:273
0,009509	0,013238	-0,022939	2020-10-13T23:02:43:295
-0,065460	-0,024961	-0,077945	2020-10-13T23:02:43:313
0,015898	-0,005649	-0,073047	2020-10-13T23:02:43:334
0,000410	-0,062781	-0,041888	2020-10-13T23:02:43:354
0,024170	0,087329	-0,015437	2020-10-13T23:02:43:375
0,002181	-0,022901	-0,075763	2020-10-13T23:02:43:394
-0,007461	-0,047754	-0,037372	2020-10-13T23:02:43:415
0,061512	-0,029564	-0,015554	2020-10-13T23:02:43:434
-0,049650	0,074327	-0,072811	2020-10-13T23:02:43:454
-0,073676	0,028789	-0,008614	2020-10-13T23:02:43:474
0,013948	-0,069126	-0,013665	2020-10-13T23:02:43:494
-0,020522	-0,007740	-0,068394	2020-10-13T23:02:43:513
-0,009229	0,004828	-0,045486	2020-10-13T23:02:43:536
-0,035550	0,093362	-0,023951	2020-10-13T23:02:43:553
0,001449	-0,074690	-0,011896	2020-10-13T23:02:43:574
-0,027935	-0,151545	-0,057066	2020-10-13T23:02:43:594
0,024551	-0,161681	-0,054114	2020-10-13T23:02:43:615
-0,041690	-0,140059	-0,027289	2020-10-13T23:02:43:634
-0,064084	-0,062789	-0,093990	2020-10-13T23:02:43:655
0,000902	-0,025417	-0,079624	2020-10-13T23:02:43:674
-0,018331	-0,085412	-0,070061	2020-10-13T23:02:43:694
0,027243	-0,090704	-0,033898	2020-10-13T23:02:43:714
0,061632	-0,050676	-0,055124	2020-10-13T23:02:43:735
-0,035121	-0,071820	-0,030911	2020-10-13T23:02:43:754
-0,005731	-0,041159	-0,083293	2020-10-13T23:02:43:775
-0,032781	0,013223	-0,068644	2020-10-13T23:02:43:794
-0,027387	-0,095785	-0,109272	2020-10-13T23:02:43:814
-0,027110	-0,066195	-0,022766	2020-10-13T23:02:43:834
-0,049878	0,034506	-0,056129	2020-10-13T23:02:43:855
-0,055133	-0,077156	-0,058685	2020-10-13T23:02:43:874
0,028869	-0,119298	0,010847	2020-10-13T23:02:43:896
-0,016028	-0,015540	-0,022220	2020-10-13T23:02:43:914
-0,004080	-0,038237	-0,053243	2020-10-13T23:02:43:935
-0,001778	-0,058349	-0,081858	2020-10-13T23:02:43:954
0,053498	-0,085276	-0,038673	2020-10-13T23:02:43:975
0,002075	-0,005799	-0,060263	2020-10-13T23:02:43:994
-0,038603	0,046843	-0,033941	2020-10-13T23:02:44:015
-0,015565	0,079299	-0,043207	2020-10-13T23:02:44:035
-0,077393	-0,027623	-0,048291	2020-10-13T23:02:44:055
0,002594	-0,014465	-0,069849	2020-10-13T23:02:44:075
0,028530	-0,011414	-0,065004	2020-10-13T23:02:44:095
-0,008814	0,016627	-0,048996	2020-10-13T23:02:44:114
-0,049492	-0,024051	-0,044210	2020-10-13T23:02:44:137
0,025177	0,135047	-0,043464	2020-10-13T23:02:44:154
0,032994	0,120393	-0,053577	2020-10-13T23:02:44:175
-0,009657	0,096682	-0,044497	2020-10-13T23:02:44:194
0,050039	0,000881	-0,040085	2020-10-13T23:02:44:215
0,037751	0,015341	-0,023254	2020-10-13T23:02:44:234
-0,003007	0,022069	-0,020829	2020-10-13T23:02:44:256
0,001585	-0,002135	-0,041771	2020-10-13T23:02:44:275
-0,012772	0,115113	-0,051342	2020-10-13T23:02:44:295
0,007884	-0,012833	-0,026105	2020-10-13T23:02:44:315
0,014811	-0,071178	-0,071622	2020-10-13T23:02:44:336
-0,041174	-0,003784	-0,080982	2020-10-13T23:02:44:354
-0,004099	0,005996	-0,060541	2020-10-13T23:02:44:378
0,077257	-0,056217	-0,043792	2020-10-13T23:02:44:394
0,046743	0,096182	-0,008726	2020-10-13T23:02:44:415
-0,048933	0,073835	-0,042582	2020-10-13T23:02:44:435
0,077668	-0,009140	-0,086021	2020-10-13T23:02:44:455
-0,024188	-0,001941	-0,026086	2020-10-13T23:02:44:475
-0,017874	0,048997	-0,038225	2020-10-13T23:02:44:496
-0,017259	0,122559	-0,016934	2020-10-13T23:02:44:514
0,028644	-0,018237	0,006474	2020-10-13T23:02:44:536
-0,013268	0,027811	-0,110270	2020-10-13T23:02:44:555
-0,013268	0,058918	-0,076771	2020-10-13T23:02:44:576
-0,011982	0,059031	0,014348	2020-10-13T23:02:44:595
-0,056977	0,093899	-0,045754	2020-10-13T23:02:44:617
-0,054383	0,019813	-0,041411	2020-10-13T23:02:44:635
-0,011169	0,052056	-0,039189	2020-10-13T23:02:44:656
0,037088	0,020368	-0,044217	2020-10-13T23:02:44:675
0,032898	0,053918	-0,032381	2020-10-13T23:02:44:696
0,011697	0,135103	-0,025339	2020-10-13T23:02:44:714
0,001067	0,048522	-0,076139	2020-10-13T23:02:44:736
-0,030196	0,047625	-0,028527	2020-10-13T23:02:44:755
0,040296	-0,066995	-0,028723	2020-10-13T23:02:44:776
-0,000341	0,070735	-0,097763	2020-10-13T23:02:44:795
-0,038972	0,077072	-0,016643	2020-10-13T23:02:44:816
0,039125	0,057258	-0,050417	2020-10-13T23:02:44:835
0,003413	0,057948	-0,016981	2020-10-13T23:02:44:857
0,003629	0,003273	-0,025687	2020-10-13T23:02:44:876
-0,020299	0,046344	-0,028081	2020-10-13T23:02:44:896
-0,008099	0,004776	-0,024848	2020-10-13T23:02:44:915
-0,000760	0,023640	-0,044017	2020-10-13T23:02:44:938
-0,010245	-0,080755	-0,060881	2020-10-13T23:02:44:955
-0,024525	-0,029249	-0,024718	2020-10-13T23:02:44:977
-0,033121	0,014999	-0,082086	2020-10-13T23:02:44:995
-0,036744	-0,014199	-0,019942	2020-10-13T23:02:45:016
0,012403	0,034925	0,011223	2020-10-13T23:02:45:036
0,047270	-0,107447	-0,034301	2020-10-13T23:02:45:056
-0,041389	0,022636	-0,036198	2020-10-13T23:02:45:075
-0,017295	0,163033	-0,055653	2020-10-13T23:02:45:097
-0,003109	0,000308	-0,036482	2020-10-13T23:02:45:115
0,080639	-0,100191	-0,058017	2020-10-13T23:02:45:137
-0,006467	-0,036881	-0,038187	2020-10-13T23:02:45:155
0,000542	0,013155	-0,066722	2020-10-13T23:02:45:177
-0,097871	0,045962	-0,035658	2020-10-13T23:02:45:195
-0,016510	0,036522	-0,045578	2020-10-13T23:02:45:217
-0,008810	0,020642	-0,036093	2020-10-13T23:02:45:236
-0,018382	0,063713	-0,043271	2020-10-13T23:02:45:257
0,041693	-0,001318	0,001966	2020-10-13T23:02:45:276
-0,027570	0,001333	-0,036237	2020-10-13T23:02:45:297
0,014056	-0,048366	-0,014689	2020-10-13T23:02:45:315
0,043882	-0,032784	-0,033535	2020-10-13T23:02:45:340
-0,006574	0,020120	-0,065532	2020-10-13T23:02:45:356
0,024533	0,029692	-0,010497	2020-10-13T23:02:45:377
0,071391	-0,046932	-0,067009	2020-10-13T23:02:45:396
-0,069021	-0,009695	-0,042659	2020-10-13T23:02:45:417
-0,068769	0,011174	-0,013899	2020-10-13T23:02:45:436
-0,013176	-0,018176	-0,042759	2020-10-13T23:02:45:457
-0,051322	0,028586	-0,021127	2020-10-13T23:02:45:476
-0,061328	-0,017104	-0,078635	2020-10-13T23:02:45:497
-0,063761	0,039535	-0,088159	2020-10-13T23:02:45:516
-0,049100	0,013895	-0,028559	2020-10-13T23:02:45:538
0,005631	0,077579	-0,043053	2020-10-13T23:02:45:555
-0,012023	0,020997	-0,051315	2020-10-13T23:02:45:580
-0,080591	0,023565	0,006006	2020-10-13T23:02:45:596
-0,111697	-0,086505	0,015578	2020-10-13T23:02:45:617
0,000493	0,098793	0,009640	2020-10-13T23:02:45:636
-0,026271	0,034082	-0,057780	2020-10-13T23:02:45:657
-0,006834	0,004599	-0,061887	2020-10-13T23:02:45:676
-0,011519	-0,021021	-0,100122	2020-10-13T23:02:45:697
-0,019532	0,002627	-0,014230	2020-10-13T23:02:45:716
-0,019532	-0,042837	-0,038158	2020-10-13T23:02:45:738
-0,002330	-0,004576	-0,004067	2020-10-13T23:02:45:756
-0,026259	0,016960	-0,044745	2020-10-13T23:02:45:779
-0,006295	0,014132	-0,058259	2020-10-13T23:02:45:796
0,028563	0,048444	-0,020437	2020-10-13T23:02:45:820
-0,039061	-0,005936	-0,039763	2020-10-13T23:02:45:837
0,015105	-0,012328	-0,006364	2020-10-13T23:02:45:858
0,007926	0,049885	-0,015936	2020-10-13T23:02:45:876
0,004218	0,058814	-0,012115	2020-10-13T23:02:45:897
-0,005257	0,039174	-0,048389	2020-10-13T23:02:45:916
-0,014739	-0,047757	-0,027082	2020-10-13T23:02:45:938
-0,062135	-0,020185	-0,065292	2020-10-13T23:02:45:956
-0,001958	-0,034693	-0,036669	2020-10-13T23:02:45:977
-0,045010	-0,055889	-0,000754	2020-10-13T23:02:45:996
-0,016414	-0,007357	0,013586	2020-10-13T23:02:46:017
0,070624	0,013087	-0,077445	2020-10-13T23:02:46:036
-0,007285	0,006083	-0,050873	2020-10-13T23:02:46:060
-0,045570	-0,022631	-0,077194	2020-10-13T23:02:46:077
-0,040604	-0,015540	-0,066826	2020-10-13T23:02:46:097
0,008750	0,039866	-0,014201	2020-10-13T23:02:46:116
0,029700	-0,034801	-0,067051	2020-10-13T23:02:46:138
-0,007756	0,088517	-0,042975	2020-10-13T23:02:46:156
-0,091064	0,083626	-0,081656	2020-10-13T23:02:46:178
-0,060365	0,026502	-0,060599	2020-10-13T23:02:46:196
-0,074201	0,026675	-0,053679	2020-10-13T23:02:46:217
-0,009337	0,005396	-0,035027	2020-10-13T23:02:46:237
0,024162	-0,095103	-0,078096	2020-10-13T23:02:46:257
-0,018916	0,046301	-0,093640	2020-10-13T23:02:46:277
-0,010941	0,021655	-0,039632	2020-10-13T23:02:46:301
0,017773	0,059940	-0,051596	2020-10-13T23:02:46:316
-0,018389	-0,056055	-0,033505	2020-10-13T23:02:46:339
-0,047027	-0,052801	-0,050035	2020-10-13T23:02:46:356
-0,033299	-0,057771	0,005100	2020-10-13T23:02:46:379
-0,048848	-0,045708	0,000451	2020-10-13T23:02:46:397
-0,030127	-0,106510	-0,066508	2020-10-13T23:02:46:419
-0,013336	0,028451	-0,106465	2020-10-13T23:02:46:437
0,015378	0,026058	-0,053823	2020-10-13T23:02:46:458
0,012623	-0,031611	-0,035876	2020-10-13T23:02:46:477
-0,081171	0,042260	-0,016742	2020-10-13T23:02:46:498
-0,036528	0,056019	-0,043420	2020-10-13T23:02:46:516
-0,008719	0,005342	-0,057686	2020-10-13T23:02:46:541
-0,047123	0,013395	-0,060260	2020-10-13T23:02:46:557
0,010305	0,032538	-0,012403	2020-10-13T23:02:46:579
-0,062661	-0,018117	-0,040695	2020-10-13T23:02:46:597
0,035679	-0,044058	-0,040750	2020-10-13T23:02:46:618
-0,023674	0,040871	-0,064533	2020-10-13T23:02:46:637
-0,070436	0,011224	-0,086340	2020-10-13T23:02:46:659
0,011578	-0,049653	-0,029080	2020-10-13T23:02:46:677
-0,044069	-0,057623	-0,074412	2020-10-13T23:02:46:699
-0,013514	-0,034163	-0,028867	2020-10-13T23:02:46:717
0,020505	-0,079059	-0,059949	2020-10-13T23:02:46:739
0,002555	-0,032971	-0,069267	2020-10-13T23:02:46:756
-0,024056	-0,008386	-0,050070	2020-10-13T23:02:46:780
0,001116	0,052781	-0,040611	2020-10-13T23:02:46:796
-0,006243	0,001570	-0,065030	2020-10-13T23:02:46:819
-0,015628	0,005734	-0,010045	2020-10-13T23:02:46:838
0,005907	0,036841	-0,079436	2020-10-13T23:02:46:858
-0,052679	-0,044687	-0,038308	2020-10-13T23:02:46:877
0,037778	-0,092769	-0,126752	2020-10-13T23:02:46:899
0,023355	-0,091902	0,005316	2020-10-13T23:02:46:917
-0,006505	0,016562	-0,045546	2020-10-13T23:02:46:939
0,050922	-0,007366	-0,040759	2020-10-13T23:02:46:957
-0,077871	0,089082	-0,002451	2020-10-13T23:02:46:979
-0,102770	0,031643	-0,031659	2020-10-13T23:02:46:997
-0,008019	0,001355	-0,012423	2020-10-13T23:02:47:021
0,018302	-0,063251	-0,055493	2020-10-13T23:02:47:037
-0,068743	0,011010	-0,037929	2020-10-13T23:02:47:060
-0,029840	0,005547	-0,035694	2020-10-13T23:02:47:077
-0,037587	0,051878	-0,074158	2020-10-13T23:02:47:099
-0,017091	0,071326	0,006991	2020-10-13T23:02:47:120
-0,090275	-0,047692	-0,019681	2020-10-13T23:02:47:140
-0,057760	0,060919	0,004371	2020-10-13T23:02:47:157
-0,023597	0,104705	-0,058254	2020-10-13T23:02:47:179
-0,032611	0,020638	-0,025159	2020-10-13T23:02:47:197
-0,000454	-0,011254	-0,094646	2020-10-13T23:02:47:219
-0,017911	0,061484	0,003555	2020-10-13T23:02:47:237
0,009312	0,016624	-0,013538	2020-10-13T23:02:47:261
-0,031885	0,038668	-0,066304	2020-10-13T23:02:47:277
0,000499	-0,023457	-0,011484	2020-10-13T23:02:47:299
-0,043000	0,039647	-0,071224	2020-10-13T23:02:47:318
0,018681	0,042268	-0,049911	2020-10-13T23:02:47:340
0,022226	-0,043820	-0,047651	2020-10-13T23:02:47:357
-0,007725	0,004488	-0,033445	2020-10-13T23:02:47:380
0,025775	0,073879	-0,014302	2020-10-13T23:02:47:397
0,006602	0,078016	0,019030	2020-10-13T23:02:47:419
-0,010569	0,112928	-0,036424	2020-10-13T23:02:47:438
0,017807	-0,014437	-0,046381	2020-10-13T23:02:47:459
-0,009988	-0,005128	-0,077285	2020-10-13T23:02:47:477
0,054281	-0,037367	-0,010182	2020-10-13T23:02:47:501
0,039653	-0,004826	-0,036316	2020-10-13T23:02:47:517
0,011128	0,004849	-0,002742	2020-10-13T23:02:47:540
-0,032310	0,028320	-0,021907	2020-10-13T23:02:47:557
-0,021963	0,051343	-0,057890	2020-10-13T23:02:47:580
0,002685	-0,001029	-0,026962	2020-10-13T23:02:47:597
-0,000270	-0,002945	-0,069981	2020-10-13T23:02:47:620
-0,046225	0,014555	0,044946	2020-10-13T23:02:47:638
-0,037335	0,012092	-0,046041	2020-10-13T23:02:47:660
-0,036168	-0,016448	-0,005384	2020-10-13T23:02:47:678
0,027980	-0,066267	-0,048482	2020-10-13T23:02:47:700
-0,108005	0,014466	-0,067254	2020-10-13T23:02:47:717
0,003357	-0,011343	-0,051799	2020-10-13T23:02:47:742
0,039250	-0,066378	-0,085299	2020-10-13T23:02:47:757
0,017075	-0,005918	-0,052713	2020-10-13T23:02:47:780
0,049847	-0,018267	-0,040758	2020-10-13T23:02:47:798
0,085884	-0,003377	-0,038267	2020-10-13T23:02:47:820
0,024606	-0,044359	-0,062115	2020-10-13T23:02:47:838
-0,005969	0,006199	-0,025360	2020-10-13T23:02:47:860
-0,053825	0,025341	-0,056467	2020-10-13T23:02:47:878
0,003217	0,049848	-0,045193	2020-10-13T23:02:47:900
0,009712	0,019560	0,019317	2020-10-13T23:02:47:918
-0,026198	0,068390	-0,045394	2020-10-13T23:02:47:940
0,044826	0,021916	-0,007401	2020-10-13T23:02:47:958
0,010415	-0,019842	-0,038423	2020-10-13T23:02:47:983
-0,078119	-0,017449	-0,055172	2020-10-13T23:02:47:998
-0,025144	-0,026816	-0,074645	2020-10-13T23:02:48:020
0,012358	0,035865	-0,074644	2020-10-13T23:02:48:038
0,105448	-0,043097	-0,015003	2020-10-13T23:02:48:060
0,080790	0,065988	-0,072017	2020-10-13T23:02:48:080
0,107660	0,005175	-0,036289	2020-10-13T23:02:48:102
0,059156	0,013413	-0,050440	2020-10-13T23:02:48:117
0,010389	-0,028486	-0,026343	2020-10-13T23:02:48:141
0,038130	0,017476	-0,018917	2020-10-13T23:02:48:158
0,050845	0,061147	-0,062088	2020-10-13T23:02:48:181
0,046110	0,023068	0,011792	2020-10-13T23:02:48:198
0,032476	0,017446	-0,026701	2020-10-13T23:02:48:223
-0,010423	0,010966	-0,029103	2020-10-13T23:02:48:239
-0,036744	0,135393	0,004395	2020-10-13T23:02:48:260
0,018972	-0,047358	-0,040541	2020-10-13T23:02:48:279
0,010224	-0,066052	-0,114479	2020-10-13T23:02:48:301
0,008818	-0,078521	-0,054319	2020-10-13T23:02:48:318
0,074745	-0,110278	-0,075532	2020-10-13T23:02:48:341
0,020855	-0,072054	-0,039207	2020-10-13T23:02:48:358
0,036718	-0,072828	-0,070175	2020-10-13T23:02:48:381
0,039277	-0,012516	-0,084266	2020-10-13T23:02:48:399
0,012940	-0,011930	-0,021949	2020-10-13T23:02:48:421
-0,006277	0,004939	-0,036849	2020-10-13T23:02:48:439
0,025093	0,007838	-0,094181	2020-10-13T23:02:48:464
-0,069268	-0,002748	-0,013002	2020-10-13T23:02:48:479
-0,007055	0,073822	-0,001039	2020-10-13T23:02:48:501
0,052475	-0,047381	-0,040196	2020-10-13T23:02:48:518
-0,000243	-0,043587	-0,037642	2020-10-13T23:02:48:542
0,097598	-0,026338	-0,056743	2020-10-13T23:02:48:559
-0,033678	-0,033929	0,022305	2020-10-13T23:02:48:581
0,041650	-0,107473	-0,087750	2020-10-13T23:02:48:599
0,003461	-0,050307	-0,013190	2020-10-13T23:02:48:621
0,084504	0,039029	-0,063374	2020-10-13T23:02:48:639
0,003087	-0,085708	-0,003621	2020-10-13T23:02:48:661
-0,005464	0,009275	-0,044014	2020-10-13T23:02:48:679
0,006057	0,050807	-0,082594	2020-10-13T23:02:48:704
0,029986	0,041236	-0,041916	2020-10-13T23:02:48:719
-0,126039	-0,011100	-0,103525	2020-10-13T23:02:48:741
-0,105373	0,014509	-0,024846	2020-10-13T23:02:48:759
-0,095274	-0,002399	-0,049155	2020-10-13T23:02:48:782
-0,023636	0,049179	0,039136	2020-10-13T23:02:48:799
-0,049267	-0,044382	-0,040046	2020-10-13T23:02:48:821
-0,021193	0,060668	-0,059091	2020-10-13T23:02:48:839
-0,070457	0,054356	-0,047451	2020-10-13T23:02:48:861
-0,026318	-0,057012	-0,021521	2020-10-13T23:02:48:879
-0,022777	-0,012362	-0,057337	2020-10-13T23:02:48:901
-0,017404	-0,017485	-0,004740	2020-10-13T23:02:48:919
-0,038230	0,010605	-0,050273	2020-10-13T23:02:48:943
-0,070263	0,033673	-0,026458	2020-10-13T23:02:48:959
-0,033628	-0,006617	-0,000390	2020-10-13T23:02:48:981
-0,010130	0,017609	-0,073717	2020-10-13T23:02:49:000
-0,163271	0,041537	-0,013896	2020-10-13T23:02:49:022
0,088124	0,020764	-0,050182	2020-10-13T23:02:49:039
0,020818	-0,027469	-0,028576	2020-10-13T23:02:49:061
0,093836	0,111819	-0,054836	2020-10-13T23:02:49:079
0,072224	0,030100	-0,036163	2020-10-13T23:02:49:102
0,157237	0,020018	-0,055451	2020-10-13T23:02:49:119
0,068482	0,054253	-0,014741	2020-10-13T23:02:49:142
-0,008661	0,006851	-0,029724	2020-10-13T23:02:49:159
-0,101981	-0,012291	-0,046474	2020-10-13T23:02:49:183
-0,002724	-0,001975	-0,014722	2020-10-13T23:02:49:199
0,002062	0,074596	-0,036257	2020-10-13T23:02:49:221
-0,025212	-0,076049	-0,039062	2020-10-13T23:02:49:240
-0,024393	0,039375	-0,069986	2020-10-13T23:02:49:262
-0,066763	-0,037198	-0,022321	2020-10-13T23:02:49:279
-0,006754	-0,047624	0,018387	2020-10-13T23:02:49:302
-0,023327	0,032818	-0,031764	2020-10-13T23:02:49:319
-0,020242	-0,038203	-0,005579	2020-10-13T23:02:49:342
-0,005119	-0,012959	-0,053366	2020-10-13T23:02:49:360
0,011658	-0,021992	-0,029400	2020-10-13T23:02:49:382
-0,001294	-0,009060	-0,029302	2020-10-13T23:02:49:400
0,008137	-0,002029	-0,062808	2020-10-13T23:02:49:423
-0,028254	-0,017343	-0,012611	2020-10-13T23:02:49:440
-0,048601	0,030144	-0,029423	2020-10-13T23:02:49:461
0,015736	0,054590	-0,120546	2020-10-13T23:02:49:480
-0,006965	0,025392	-0,029786	2020-10-13T23:02:49:502
-0,025893	-0,048640	-0,068235	2020-10-13T23:02:49:519
-0,031949	-0,006470	-0,008345	2020-10-13T23:02:49:542
0,026943	0,005313	-0,022758	2020-10-13T23:02:49:559
-0,072794	0,004752	-0,041891	2020-10-13T23:02:49:583
-0,009472	-0,032527	-0,063628	2020-10-13T23:02:49:600
0,009874	0,014403	-0,010890	2020-10-13T23:02:49:621
0,011665	-0,015405	-0,075555	2020-10-13T23:02:49:640
-0,037092	-0,002230	-0,041944	2020-10-13T23:02:49:664
0,059906	0,012364	-0,053929	2020-10-13T23:02:49:680
-0,034673	0,040973	0,005994	2020-10-13T23:02:49:702
-0,071261	0,049886	-0,020593	2020-10-13T23:02:49:720
-0,013385	-0,073511	-0,054272	2020-10-13T23:02:49:743
0,005848	-0,117160	-0,075517	2020-10-13T23:02:49:760
0,007226	-0,042062	-0,079869	2020-10-13T23:02:49:782
0,026064	-0,046363	-0,060684	2020-10-13T23:02:49:800
-0,024964	-0,014716	-0,072586	2020-10-13T23:02:49:823
-0,012324	0,023905	0,008773	2020-10-13T23:02:49:840
-0,014599	-0,039232	-0,012832	2020-10-13T23:02:49:862
0,024026	-0,077936	-0,055773	2020-10-13T23:02:49:880
0,017864	-0,022197	-0,053119	2020-10-13T23:02:49:904
-0,030790	0,023050	-0,024397	2020-10-13T23:02:49:920
0,042551	0,063144	-0,012691	2020-10-13T23:02:49:942
-0,050288	0,048374	0,010929	2020-10-13T23:02:49:960
0,059616	-0,002895	-0,049198	2020-10-13T23:02:49:983
0,013346	-0,076809	-0,022762	2020-10-13T23:02:50:000
0,021825	-0,039586	-0,032040	2020-10-13T23:02:50:022
-0,004354	-0,000705	0,001121	2020-10-13T23:02:50:040
0,069823	-0,031811	-0,041951	2020-10-13T23:02:50:063
-0,041864	0,041116	-0,032612	2020-10-13T23:02:50:080
-0,008846	0,023376	-0,054397	2020-10-13T23:02:50:102
0,005511	0,025769	0,000638	2020-10-13T23:02:50:119
-0,004831	0,010162	-0,042504	2020-10-13T23:02:50:146
-0,009615	-0,016929	-0,083071	2020-10-13T23:02:50:161
0,007135	0,047677	-0,018464	2020-10-13T23:02:50:182
0,030423	-0,099136	-0,071539	2020-10-13T23:02:50:201
-0,064998	-0,093561	-0,035220	2020-10-13T23:02:50:223
-0,050322	-0,048976	-0,056591	2020-10-13T23:02:50:240
-0,007462	-0,049174	-0,075660	2020-10-13T23:02:50:262
-0,078872	-0,087504	-0,065948	2020-10-13T23:02:50:280
-0,017701	-0,028310	-0,037079	2020-10-13T23:02:50:303
-0,062650	-0,048274	-0,025027	2020-10-13T23:02:50:320
-0,052672	-0,077543	-0,087206	2020-10-13T23:02:50:344
-0,003541	0,001979	-0,032654	2020-10-13T23:02:50:360
-0,068147	-0,143983	-0,066154	2020-10-13T23:02:50:386
0,077554	0,095534	-0,021299	2020-10-13T23:02:50:400
0,023116	0,071542	-0,038334	2020-10-13T23:02:50:422
0,003617	-0,008061	-0,025827	2020-10-13T23:02:50:441
0,037116	0,080474	-0,076077	2020-10-13T23:02:50:463
-0,024074	-0,073411	-0,056441	2020-10-13T23:02:50:480
-0,027744	-0,039258	-0,041908	2020-10-13T23:02:50:503
-0,005758	0,014413	-0,034368	2020-10-13T23:02:50:520
0,039705	-0,019086	-0,031975	2020-10-13T23:02:50:543
-0,005644	-0,029015	-0,079638	2020-10-13T23:02:50:560
-0,005496	-0,029702	-0,000559	2020-10-13T23:02:50:583
-0,031437	-0,062291	-0,053147	2020-10-13T23:02:50:600
-0,086892	-0,048325	-0,048276	2020-10-13T23:02:50:624
-0,012367	0,023750	-0,021514	2020-10-13T23:02:50:641
0,025918	-0,016928	-0,038264	2020-10-13T23:02:50:662
-0,027547	0,060179	-0,035886	2020-10-13T23:02:50:681
-0,057721	-0,008054	-0,052762	2020-10-13T23:02:50:703
-0,079811	0,004398	-0,107638	2020-10-13T23:02:50:720
-0,055786	0,024349	-0,016548	2020-10-13T23:02:50:743
0,004514	-0,006156	-0,038921	2020-10-13T23:02:50:761
0,054764	0,077592	0,066363	2020-10-13T23:02:50:784
-0,057821	-0,071670	-0,072669	2020-10-13T23:02:50:801
-0,021199	0,006959	-0,029544	2020-10-13T23:02:50:824
-0,046370	-0,023922	0,027682	2020-10-13T23:02:50:841
0,009810	-0,018613	-0,059951	2020-10-13T23:02:50:866
0,002064	-0,103698	-0,061902	2020-10-13T23:02:50:881
-0,031436	-0,043877	-0,116937	2020-10-13T23:02:50:903
0,021084	-0,029358	-0,058656	2020-10-13T23:02:50:921
0,050794	0,039254	-0,068065	2020-10-13T23:02:50:944
0,076655	-0,029613	-0,070534	2020-10-13T23:02:50:961
0,022471	0,025415	-0,046316	2020-10-13T23:02:50:983
-0,024298	0,028892	-0,058350	2020-10-13T23:02:51:001
0,000706	0,033796	-0,022663	2020-10-13T23:02:51:024
0,010496	0,030647	-0,034879	2020-10-13T23:02:51:041
-0,003924	-0,044023	-0,018353	2020-10-13T23:02:51:063
0,034863	0,031722	-0,018244	2020-10-13T23:02:51:081
0,021187	-0,008002	-0,011133	2020-10-13T23:02:51:105
0,048522	-0,093299	-0,089994	2020-10-13T23:02:51:121
-0,020681	-0,050599	-0,051307	2020-10-13T23:02:51:143
-0,003361	-0,000346	-0,068811	2020-10-13T23:02:51:162
0,073209	0,016404	-0,059240	2020-10-13T23:02:51:184
-0,104777	-0,062555	-0,084332	2020-10-13T23:02:51:201
-0,006408	-0,067681	-0,038874	2020-10-13T23:02:51:223
-0,008991	-0,021384	-0,052977	2020-10-13T23:02:51:241
-0,059459	-0,075035	-0,007399	2020-10-13T23:02:51:264
0,000252	-0,019095	-0,069430	2020-10-13T23:02:51:282
0,000634	0,018625	-0,055129	2020-10-13T23:02:51:303
-0,033059	-0,028625	-0,028940	2020-10-13T23:02:51:321
-0,006862	0,000387	-0,003403	2020-10-13T23:02:51:347
-0,077343	0,025454	-0,037115	2020-10-13T23:02:51:361
-0,060593	0,023061	-0,058651	2020-10-13T23:02:51:383
0,017637	-0,038267	0,000504	2020-10-13T23:02:51:402
0,011449	-0,071303	-0,051881	2020-10-13T23:02:51:424
-0,027876	-0,088393	-0,010829	2020-10-13T23:02:51:441
0,011601	-0,044319	-0,072804	2020-10-13T23:02:51:463
0,029885	0,106872	-0,089499	2020-10-13T23:02:51:482
0,047435	0,124436	-0,025540	2020-10-13T23:02:51:504
0,037966	-0,058772	-0,069217	2020-10-13T23:02:51:522
0,021117	0,000536	-0,073608	2020-10-13T23:02:51:544
-0,035886	-0,066605	-0,030313	2020-10-13T23:02:51:561
-0,008500	-0,003473	-0,068366	2020-10-13T23:02:51:586
-0,010289	0,013650	-0,025923	2020-10-13T23:02:51:602
-0,067717	-0,043778	-0,047459	2020-10-13T23:02:51:623
0,008413	0,053892	-0,036136	2020-10-13T23:02:51:642
0,076884	0,015560	-0,002807	2020-10-13T23:02:51:664
0,058597	0,047372	-0,055482	2020-10-13T23:02:51:682
-0,001399	0,070115	-0,026984	2020-10-13T23:02:51:704
0,003068	-0,063919	-0,039131	2020-10-13T23:02:51:721
-0,014450	0,017312	-0,024386	2020-10-13T23:02:51:745
0,050289	-0,038670	-0,026857	2020-10-13T23:02:51:762
0,043609	0,040138	-0,017249	2020-10-13T23:02:51:784
-0,035387	0,044513	-0,041334	2020-10-13T23:02:51:802
-0,009607	0,008891	-0,051815	2020-10-13T23:02:51:827
-0,047892	0,025640	-0,035066	2020-10-13T23:02:51:842
-0,034707	-0,042606	-0,026405	2020-10-13T23:02:51:863
-0,048129	0,022021	-0,004720	2020-10-13T23:02:51:882
0,047679	-0,058380	0,009454	2020-10-13T23:02:51:905
-0,012098	0,020167	-0,047292	2020-10-13T23:02:51:922
-0,021544	0,009795	-0,047164	2020-10-13T23:02:51:945
0,001728	-0,002000	0,003119	2020-10-13T23:02:51:962
-0,010236	-0,011571	-0,047131	2020-10-13T23:02:51:985
-0,010888	0,092415	-0,070029	2020-10-13T23:02:52:002
-0,028418	0,103554	-0,029599	2020-10-13T23:02:52:024
-0,010852	0,046476	-0,063493	2020-10-13T23:02:52:042
0,022371	0,049625	-0,061229	2020-10-13T23:02:52:068
0,011304	-0,003166	-0,008755	2020-10-13T23:02:52:083
0,027245	0,020628	-0,011137	2020-10-13T23:02:52:106
0,047004	0,081498	-0,075802	2020-10-13T23:02:52:125
-0,015580	0,113457	-0,076046	2020-10-13T23:02:52:149
0,034875	0,055933	-0,062097	2020-10-13T23:02:52:168
0,028068	-0,001244	0,009573	2020-10-13T23:02:52:186
-0,064566	0,078176	-0,033411	2020-10-13T23:02:52:201
-0,014189	-0,007612	-0,050402	2020-10-13T23:02:52:225
0,064716	0,017099	0,040788	2020-10-13T23:02:52:243
-0,009252	0,025311	-0,061927	2020-10-13T23:02:52:264
0,007498	0,094703	-0,033213	2020-10-13T23:02:52:282
0,022857	-0,044613	-0,114885	2020-10-13T23:02:52:306
0,054520	-0,057579	-0,095392	2020-10-13T23:02:52:322
-0,037144	-0,008760	0,015031	2020-10-13T23:02:52:345
-0,009160	0,006045	-0,076760	2020-10-13T23:02:52:363
-0,079586	0,080611	-0,038962	2020-10-13T23:02:52:386
-0,048479	-0,055780	-0,041355	2020-10-13T23:02:52:402
0,010925	0,058383	-0,083170	2020-10-13T23:02:52:424
-0,016042	-0,029104	-0,016483	2020-10-13T23:02:52:443
0,003908	0,083183	-0,047628	2020-10-13T23:02:52:465
0,054042	0,115381	-0,048162	2020-10-13T23:02:52:483
0,063187	0,153491	-0,046333	2020-10-13T23:02:52:504
-0,002586	0,154486	-0,070905	2020-10-13T23:02:52:522
0,003939	-0,018156	-0,052389	2020-10-13T23:02:52:547
0,065654	0,063805	-0,021216	2020-10-13T23:02:52:562
-0,002372	0,005156	0,000108	2020-10-13T23:02:52:585
-0,002416	-0,002433	-0,010921	2020-10-13T23:02:52:613
-0,136414	-0,150788	-0,030064	2020-10-13T23:02:52:625
0,116811	0,140701	-0,064282	2020-10-13T23:02:52:643
0,110275	0,059075	-0,083959	2020-10-13T23:02:52:665
-0,006875	0,005739	-0,080115	2020-10-13T23:02:52:684
0,024232	-0,030154	-0,075330	2020-10-13T23:02:52:705
-0,021403	0,063449	-0,033266	2020-10-13T23:02:52:723
-0,040008	0,065325	-0,019171	2020-10-13T23:02:52:745
-0,033646	0,057647	-0,055355	2020-10-13T23:02:52:762
-0,019717	-0,022966	-0,019861	2020-10-13T23:02:52:787
-0,069221	0,014022	-0,007829	2020-10-13T23:02:52:802
-0,063893	-0,003515	-0,048663	2020-10-13T23:02:52:824
-0,032532	-0,013097	-0,034388	2020-10-13T23:02:52:843
0,011743	0,020571	-0,020054	2020-10-13T23:02:52:865
-0,020278	-0,007071	-0,058421	2020-10-13T23:02:52:883
-0,007416	0,028415	-0,036947	2020-10-13T23:02:52:905
0,000010	0,107737	-0,039516	2020-10-13T23:02:52:923
0,016296	0,051648	-0,020841	2020-10-13T23:02:52:946
-0,025365	0,026653	-0,004345	2020-10-13T23:02:52:963
-0,007073	0,014704	-0,057228	2020-10-13T23:02:52:985
0,014671	-0,003414	-0,023847	2020-10-13T23:02:53:003
0,042670	0,005234	-0,033472	2020-10-13T23:02:53:038
-0,098148	0,001582	-0,038298	2020-10-13T23:02:53:043
0,011780	0,006259	-0,083911	2020-10-13T23:02:53:065
-0,003543	0,027764	-0,062348	2020-10-13T23:02:53:083
-0,032411	0,093109	-0,086407	2020-10-13T23:02:53:106
-0,005700	0,003615	-0,023065	2020-10-13T23:02:53:124
0,063692	-0,015528	-0,061350	2020-10-13T23:02:53:145
-0,124119	-0,021612	-0,040806	2020-10-13T23:02:53:163
-0,068544	0,005932	-0,052861	2020-10-13T23:02:53:186
-0,067964	0,060110	-0,024323	2020-10-13T23:02:53:203
-0,119887	-0,018045	-0,039114	2020-10-13T23:02:53:225
-0,003701	-0,000765	-0,066769	2020-10-13T23:02:53:244
-0,017276	-0,004025	-0,066859	2020-10-13T23:02:53:268
0,029119	-0,000905	-0,083702	2020-10-13T23:02:53:284
0,041083	0,013452	-0,050202	2020-10-13T23:02:53:305
0,003220	0,027831	-0,040135	2020-10-13T23:02:53:323
0,022441	-0,032202	0,005121	2020-10-13T23:02:53:346
-0,055191	0,008970	-0,045055	2020-10-13T23:02:53:363
-0,040174	-0,009680	-0,071621	2020-10-13T23:02:53:386
-0,002930	-0,042158	-0,052441	2020-10-13T23:02:53:404
-0,041801	-0,025177	-0,025896	2020-10-13T23:02:53:436
0,000608	0,007056	-0,009111	2020-10-13T23:02:53:444
0,004998	-0,044024	-0,042665	2020-10-13T23:02:53:465
-0,009459	0,022829	-0,059911	2020-10-13T23:02:53:484
0,001868	0,015921	-0,043121	2020-10-13T23:02:53:508
-0,021366	-0,044001	-0,004667	2020-10-13T23:02:53:524
0,028883	-0,077501	-0,004667	2020-10-13T23:02:53:545
-0,038196	0,131348	-0,009113	2020-10-13T23:02:53:563
-0,012807	0,087353	-0,055137	2020-10-13T23:02:53:586
0,001943	0,002222	0,017440	2020-10-13T23:02:53:603
-0,025466	0,013254	-0,066426	2020-10-13T23:02:53:626
-0,019692	0,026298	-0,061777	2020-10-13T23:02:53:644
-0,000549	0,007156	-0,076134	2020-10-13T23:02:53:666
-0,007926	0,015935	-0,004658	2020-10-13T23:02:53:684
-0,003140	-0,051064	-0,023800	2020-10-13T23:02:53:705
0,002278	-0,005089	-0,065125	2020-10-13T23:02:53:724
-0,039030	0,033148	-0,058198	2020-10-13T23:02:53:749
-0,016902	0,044622	-0,048876	2020-10-13T23:02:53:764
-0,098258	-0,008020	-0,060840	2020-10-13T23:02:53:786
0,096785	-0,018875	-0,107787	2020-10-13T23:02:53:804
0,084666	-0,064255	-0,045267	2020-10-13T23:02:53:826
0,116031	0,062245	-0,018482	2020-10-13T23:02:53:844
0,003441	-0,009139	-0,039860	2020-10-13T23:02:53:866
-0,075522	-0,047425	-0,032681	2020-10-13T23:02:53:884
0,035001	0,026563	-0,045341	2020-10-13T23:02:53:907
-0,010326	0,018752	-0,052033	2020-10-13T23:02:53:924
-0,022290	-0,098496	-0,080748	2020-10-13T23:02:53:945
-0,004532	0,009388	-0,025123	2020-10-13T23:02:53:964
-0,043462	-0,024835	-0,008287	2020-10-13T23:02:53:988
-0,005289	0,010470	-0,044226	2020-10-13T23:02:54:004
-0,031610	-0,013458	-0,046618	2020-10-13T23:02:54:025
-0,056349	0,027939	-0,029274	2020-10-13T23:02:54:044
-0,027749	0,089743	-0,055695	2020-10-13T23:02:54:065
-0,008626	0,014460	-0,106249	2020-10-13T23:02:54:084
0,041624	-0,009468	0,003820	2020-10-13T23:02:54:105
-0,078767	-0,043586	-0,053929	2020-10-13T23:02:54:124
-0,005540	0,003245	-0,058722	2020-10-13T23:02:54:146
0,004148	0,050274	-0,068371	2020-10-13T23:02:54:164
-0,034434	-0,003453	-0,027987	2020-10-13T23:02:54:186
-0,056855	0,115874	-0,032848	2020-10-13T23:02:54:204
-0,097547	0,029623	-0,018994	2020-10-13T23:02:54:228
-0,038266	0,065144	-0,016770	2020-10-13T23:02:54:244
-0,046341	-0,023943	-0,076894	2020-10-13T23:02:54:265
-0,025413	0,041659	-0,062509	2020-10-13T23:02:54:284
0,006700	-0,020334	-0,038799	2020-10-13T23:02:54:305
-0,029984	0,011875	-0,053036	2020-10-13T23:02:54:324
-0,062461	-0,012295	-0,067446	2020-10-13T23:02:54:346
-0,038449	0,017143	0,001930	2020-10-13T23:02:54:364
-0,029430	0,039097	-0,015047	2020-10-13T23:02:54:386
-0,040319	0,051115	-0,055960	2020-10-13T23:02:54:405
0,008874	-0,012601	-0,060915	2020-10-13T23:02:54:425
-0,007831	0,011908	-0,052074	2020-10-13T23:02:54:445
-0,058080	-0,045520	-0,071218	2020-10-13T23:02:54:466
-0,012006	0,025557	-0,025048	2020-10-13T23:02:54:485
0,002351	0,008807	-0,037013	2020-10-13T23:02:54:505
0,039675	0,041524	-0,044585	2020-10-13T23:02:54:525
0,018028	0,021618	-0,016077	2020-10-13T23:02:54:547
0,017385	0,036916	-0,059461	2020-10-13T23:02:54:564
0,019347	0,054416	-0,047831	2020-10-13T23:02:54:587
0,051485	0,000944	-0,040891	2020-10-13T23:02:54:604
0,094361	0,059698	-0,005017	2020-10-13T23:02:54:626
0,094456	0,095016	-0,036448	2020-10-13T23:02:54:645
0,005845	0,024272	-0,048791	2020-10-13T23:02:54:666
0,005439	-0,061094	-0,063272	2020-10-13T23:02:54:685
-0,009785	0,017970	-0,089666	2020-10-13T23:02:54:708
-0,005215	0,118629	-0,071151	2020-10-13T23:02:54:725
-0,048285	0,130593	-0,047222	2020-10-13T23:02:54:746
-0,037509	0,073952	-0,056753	2020-10-13T23:02:54:765
0,035329	-0,103888	-0,035490	2020-10-13T23:02:54:786
0,035822	-0,106141	-0,049416	2020-10-13T23:02:54:804
0,043381	-0,136568	-0,041759	2020-10-13T23:02:54:825
0,074129	-0,021549	-0,031535	2020-10-13T23:02:54:845
-0,039441	0,083048	-0,081741	2020-10-13T23:02:54:866
-0,044848	0,012994	-0,034360	2020-10-13T23:02:54:885
0,028596	-0,009214	-0,075137	2020-10-13T23:02:54:906
-0,009583	0,010003	-0,006482	2020-10-13T23:02:54:925
-0,062225	0,050681	-0,016052	2020-10-13T23:02:54:947
-0,000019	0,006972	-0,043550	2020-10-13T23:02:54:965
0,074159	-0,036099	-0,041157	2020-10-13T23:02:54:986
-0,018061	0,038811	-0,049897	2020-10-13T23:02:55:005
-0,062645	-0,043137	-0,028638	2020-10-13T23:02:55:026
-0,059960	0,025232	-0,066910	2020-10-13T23:02:55:045
-0,133874	0,059808	-0,033614	2020-10-13T23:02:55:067
-0,002872	-0,003285	-0,034196	2020-10-13T23:02:55:085
0,030627	0,001501	-0,084445	2020-10-13T23:02:55:106
0,011975	0,035592	-0,006540	2020-10-13T23:02:55:125
0,013539	0,059715	-0,037806	2020-10-13T23:02:55:147
-0,001694	-0,004689	-0,004551	2020-10-13T23:02:55:165
-0,095136	0,046066	-0,100581	2020-10-13T23:02:55:190
-0,068815	0,089136	-0,019225	2020-10-13T23:02:55:205
0,008798	-0,091248	-0,020958	2020-10-13T23:02:55:227
-0,030235	0,003833	-0,085237	2020-10-13T23:02:55:245
0,044692	-0,031548	-0,025398	2020-10-13T23:02:55:267
0,068854	-0,016420	-0,058782	2020-10-13T23:02:55:285
0,031810	-0,102122	-0,029936	2020-10-13T23:02:55:307
0,048842	-0,082138	-0,043815	2020-10-13T23:02:55:325
-0,070972	-0,130432	-0,108021	2020-10-13T23:02:55:347
0,003743	-0,093241	-0,064573	2020-10-13T23:02:55:365
-0,071096	-0,067531	-0,045094	2020-10-13T23:02:55:387
0,025440	-0,046256	-0,088093	2020-10-13T23:02:55:405
0,035919	-0,033095	-0,004211	2020-10-13T23:02:55:429
-0,007636	0,012327	-0,026267	2020-10-13T23:02:55:447
-0,050707	-0,052279	-0,011910	2020-10-13T23:02:55:467
-0,009383	0,007854	-0,023138	2020-10-13T23:02:55:486
0,004974	0,000676	-0,061423	2020-10-13T23:02:55:507
-0,018714	0,098329	-0,063239	2020-10-13T23:02:55:526
-0,011190	0,076313	-0,054111	2020-10-13T23:02:55:547
-0,025887	0,033167	-0,039945	2020-10-13T23:02:55:565
-0,013758	-0,037580	-0,068579	2020-10-13T23:02:55:587
-0,064102	-0,091338	-0,049133	2020-10-13T23:02:55:605
-0,047459	-0,107628	-0,029633	2020-10-13T23:02:55:627
-0,038575	0,022062	-0,043609	2020-10-13T23:02:55:646
-0,020356	0,006941	-0,029361	2020-10-13T23:02:55:668
-0,031414	0,072180	-0,077393	2020-10-13T23:02:55:685
-0,039429	0,102965	-0,025222	2020-10-13T23:02:55:707
-0,040470	-0,007506	-0,025690	2020-10-13T23:02:55:726
-0,010358	-0,016324	-0,037636	2020-10-13T23:02:55:748
-0,017474	-0,008547	-0,032804	2020-10-13T23:02:55:765
-0,076625	-0,030120	-0,040006	2020-10-13T23:02:55:788
0,022670	0,027666	-0,066408	2020-10-13T23:02:55:806
-0,031043	0,029255	-0,030744	2020-10-13T23:02:55:827
-0,058033	0,087696	-0,045461	2020-10-13T23:02:55:846
-0,004820	0,059965	-0,060410	2020-10-13T23:02:55:867
0,011826	0,035236	-0,077413	2020-10-13T23:02:55:886
-0,040152	-0,090919	-0,010308	2020-10-13T23:02:55:910
-0,029527	-0,084942	-0,012252	2020-10-13T23:02:56:127
0,026318	0,002429	0,002375	2020-10-13T23:02:56:128
-0,010898	-0,006589	-0,019269	2020-10-13T23:02:56:129
-0,024758	0,023540	-0,050470	2020-10-13T23:02:56:130
0,007007	-0,020327	-0,072090	2020-10-13T23:02:56:130
0,013371	-0,183830	-0,088686	2020-10-13T23:02:56:131
-0,026359	-0,030833	-0,001731	2020-10-13T23:02:56:132
0,017836	-0,003445	-0,042356	2020-10-13T23:02:56:132
-0,018974	0,038924	-0,061527	2020-10-13T23:02:56:132
-0,066011	0,033753	-0,073745	2020-10-13T23:02:56:133
0,037517	-0,051881	0,000187	2020-10-13T23:02:56:133
-0,004466	0,004844	-0,054336	2020-10-13T23:02:56:149
-0,002073	-0,081297	-0,030407	2020-10-13T23:02:56:165
-0,010203	0,016437	-0,104746	2020-10-13T23:02:56:187
-0,008988	0,015617	-0,005289	2020-10-13T23:02:56:207
0,050414	0,070294	-0,079844	2020-10-13T23:02:56:229
0,013521	0,097185	0,027274	2020-10-13T23:02:56:246
-0,067835	0,090007	-0,011011	2020-10-13T23:02:56:272
0,054579	-0,086929	-0,027373	2020-10-13T23:02:56:286
0,049439	0,005120	-0,105994	2020-10-13T23:02:56:311
0,082523	-0,024174	-0,055727	2020-10-13T23:02:56:327
0,001762	-0,026114	-0,057985	2020-10-13T23:02:56:348
0,094364	0,011331	-0,033916	2020-10-13T23:02:56:365
-0,001882	-0,004315	-0,017255	2020-10-13T23:02:56:395
0,022948	0,073317	-0,065383	2020-10-13T23:02:56:409
0,022948	0,020675	-0,017526	2020-10-13T23:02:56:427
-0,024502	0,051758	-0,023196	2020-10-13T23:02:56:448
-0,023474	0,017111	-0,088124	2020-10-13T23:02:56:468
-0,013374	0,004260	-0,011643	2020-10-13T23:02:56:486
-0,015638	-0,036828	0,005070	2020-10-13T23:02:56:508
-0,017699	0,031681	-0,023531	2020-10-13T23:02:56:527
-0,008592	0,005727	-0,069348	2020-10-13T23:02:56:557
-0,082769	-0,130664	-0,100455	2020-10-13T23:02:56:583
-0,005297	0,001496	-0,022058	2020-10-13T23:02:56:589
0,028203	0,113958	-0,026843	2020-10-13T23:02:56:614
0,022820	-0,045334	-0,072978	2020-10-13T23:02:56:632
0,007037	-0,129981	-0,029752	2020-10-13T23:02:56:648
-0,005529	-0,118018	-0,093989	2020-10-13T23:02:56:676
0,023055	-0,055578	-0,067295	2020-10-13T23:02:56:686
0,007860	-0,070960	-0,004953	2020-10-13T23:02:56:707
-0,074616	-0,043397	-0,038148	2020-10-13T23:02:56:726
-0,057083	0,010742	-0,090780	2020-10-13T23:02:56:749
-0,054980	-0,059237	-0,045427	2020-10-13T23:02:56:766
-0,009652	-0,021032	-0,071648	2020-10-13T23:02:56:789
-0,010316	0,011863	-0,008064	2020-10-13T23:02:56:807
0,044719	0,083648	-0,046350	2020-10-13T23:02:56:828
-0,010965	0,013969	-0,024636	2020-10-13T23:02:56:847
-0,073178	0,013969	-0,036600	2020-10-13T23:02:56:870
-0,009889	0,012734	-0,047148	2020-10-13T23:02:56:888
-0,021853	0,094090	-0,073469	2020-10-13T23:02:56:909
0,009351	-0,056428	-0,044939	2020-10-13T23:02:56:927
-0,003412	0,062919	-0,083047	2020-10-13T23:02:56:949
-0,046687	-0,147208	-0,044896	2020-10-13T23:02:56:967
-0,056940	-0,029778	-0,094670	2020-10-13T23:02:56:989
-0,011416	0,018825	-0,033226	2020-10-13T23:02:57:007
-0,028166	-0,029031	-0,040405	2020-10-13T23:02:57:028
-0,008334	0,046422	-0,074379	2020-10-13T23:02:57:047
-0,006690	0,020033	-0,073408	2020-10-13T23:02:57:070
-0,015498	0,029271	-0,016220	2020-10-13T23:02:57:088
0,034751	0,041235	-0,054505	2020-10-13T23:02:57:111
0,005525	-0,019594	-0,054019	2020-10-13T23:02:57:126
-0,012006	-0,054783	-0,077870	2020-10-13T23:02:57:149
-0,010785	0,010627	-0,085244	2020-10-13T23:02:57:168
-0,034714	0,082412	-0,034995	2020-10-13T23:02:57:189
0,005791	-0,001185	-0,047826	2020-10-13T23:02:57:207
-0,025017	0,065579	-0,060019	2020-10-13T23:02:57:229
-0,054358	0,042501	-0,089315	2020-10-13T23:02:57:247
-0,035034	0,032383	-0,036999	2020-10-13T23:02:57:269
0,007515	0,072862	-0,032486	2020-10-13T23:02:57:287
-0,012362	0,026122	-0,049513	2020-10-13T23:02:57:309
-0,052920	0,023054	-0,092643	2020-10-13T23:02:57:328
-0,011274	0,012974	-0,056618	2020-10-13T23:02:57:352
0,037811	0,036277	-0,052294	2020-10-13T23:02:57:367
-0,072259	0,134382	-0,049901	2020-10-13T23:02:57:389
-0,013580	-0,009386	-0,027144	2020-10-13T23:02:57:408
0,011534	0,089047	-0,079980	2020-10-13T23:02:57:429
0,065360	-0,027866	-0,039619	2020-10-13T23:02:57:447
0,011339	-0,021015	-0,034575	2020-10-13T23:02:57:469
0,122210	-0,034982	-0,058244	2020-10-13T23:02:57:487
-0,016156	-0,014315	-0,041006	2020-10-13T23:02:57:509
0,036981	0,072211	-0,074488	2020-10-13T23:02:57:527
0,006123	0,003779	-0,031661	2020-10-13T23:02:57:549
0,038692	-0,048656	0,023416	2020-10-13T23:02:57:567
0,084872	0,001176	-0,040990	2020-10-13T23:02:57:591
-0,004543	-0,000450	-0,008129	2020-10-13T23:02:57:608
-0,016507	-0,100949	-0,094271	2020-10-13T23:02:57:629
-0,008443	0,020145	-0,059191	2020-10-13T23:02:57:648
0,089663	-0,099496	-0,013728	2020-10-13T23:02:57:669
-0,086227	0,129434	-0,076614	2020-10-13T23:02:57:687
-0,053121	0,167548	-0,043934	2020-10-13T23:02:57:709
-0,090647	0,121494	-0,044953	2020-10-13T23:02:57:727
-0,016675	0,107761	-0,036120	2020-10-13T23:02:57:749
-0,032482	0,067742	-0,053476	2020-10-13T23:02:57:768
-0,074258	0,053683	-0,010633	2020-10-13T23:02:57:789
-0,037388	-0,004762	-0,063477	2020-10-13T23:02:57:807
-0,002473	0,015358	-0,108397	2020-10-13T23:02:57:832
-0,016830	-0,092319	-0,077291	2020-10-13T23:02:57:848
-0,006962	0,070828	-0,047896	2020-10-13T23:02:57:869
-0,035906	0,085037	-0,033759	2020-10-13T23:02:57:888
-0,036621	0,100213	-0,048522	2020-10-13T23:02:57:909
-0,028651	0,041774	-0,000993	2020-10-13T23:02:57:927
-0,015212	0,084543	-0,068276	2020-10-13T23:02:57:950
-0,029452	0,080778	-0,066217	2020-10-13T23:02:57:968
-0,016674	-0,003947	-0,059361	2020-10-13T23:02:57:989
-0,003434	0,002815	-0,044567	2020-10-13T23:02:58:008
-0,005827	0,062636	-0,051745	2020-10-13T23:02:58:029
-0,002480	-0,001095	-0,039429	2020-10-13T23:02:58:048
0,001887	0,006215	-0,032229	2020-10-13T23:02:58:073
0,078457	-0,005749	-0,017873	2020-10-13T23:02:58:088
-0,007673	-0,070589	-0,036583	2020-10-13T23:02:58:111
-0,022193	-0,056528	-0,057755	2020-10-13T23:02:58:128
-0,018968	-0,026853	-0,021622	2020-10-13T23:02:58:149
0,022728	0,014489	-0,071851	2020-10-13T23:02:58:167
-0,047623	0,079972	0,011806	2020-10-13T23:02:58:189
-0,100598	-0,010351	-0,007737	2020-10-13T23:02:58:208
-0,010589	-0,103493	-0,093799	2020-10-13T23:02:58:229
-0,018273	-0,108011	0,038422	2020-10-13T23:02:58:248
-0,018072	-0,029908	-0,068749	2020-10-13T23:02:58:270
-0,091786	0,055786	-0,015964	2020-10-13T23:02:58:288
-0,004427	0,007897	-0,046704	2020-10-13T23:02:58:313
0,000358	-0,011245	-0,065846	2020-10-13T23:02:58:328
0,000534	-0,056923	-0,088368	2020-10-13T23:02:58:350
0,031279	-0,030559	-0,030729	2020-10-13T23:02:58:368
-0,005075	0,003759	-0,102277	2020-10-13T23:02:58:390
-0,036181	-0,001027	-0,090313	2020-10-13T23:02:58:409
-0,045420	-0,054404	-0,083313	2020-10-13T23:02:58:430
0,001350	0,013432	-0,066318	2020-10-13T23:02:58:448
0,012988	0,042440	-0,049742	2020-10-13T23:02:58:469
-0,021593	0,097014	0,002683	2020-10-13T23:02:58:488
0,055552	0,024699	-0,062395	2020-10-13T23:02:58:512
-0,011483	0,009723	-0,074765	2020-10-13T23:02:58:549
-0,029683	0,040906	-0,060637	2020-10-13T23:02:58:553
-0,063182	0,028942	-0,077387	2020-10-13T23:02:58:570
-0,003711	0,001460	-0,063945	2020-10-13T23:02:58:597
0,094139	0,003559	-0,027958	2020-10-13T23:02:58:609
0,074997	0,046629	-0,071028	2020-10-13T23:02:58:629
0,009669	-0,106894	-0,069739	2020-10-13T23:02:58:648
-0,067858	-0,113510	-0,028616	2020-10-13T23:02:58:670
-0,012146	0,017820	-0,078940	2020-10-13T23:02:58:689
-0,045645	0,027391	-0,071761	2020-10-13T23:02:58:710
-0,074267	0,006169	-0,055910	2020-10-13T23:02:58:729
-0,054268	-0,027683	-0,041690	2020-10-13T23:02:58:751
-0,006187	-0,025748	-0,041813	2020-10-13T23:02:58:769
-0,017714	-0,017609	-0,046730	2020-10-13T23:02:58:792
-0,098200	-0,035402	-0,044451	2020-10-13T23:02:58:808
-0,014676	-0,049891	-0,080501	2020-10-13T23:02:58:830
-0,033250	0,013441	-0,003857	2020-10-13T23:02:58:849
0,020641	-0,074404	-0,018393	2020-10-13T23:02:58:870
0,007263	0,007321	-0,080335	2020-10-13T23:02:58:888
0,008758	0,004468	-0,042059	2020-10-13T23:02:58:910
-0,005579	0,010871	-0,082893	2020-10-13T23:02:58:928
-0,051042	0,027621	-0,042215	2020-10-13T23:02:58:951
0,058769	0,008454	-0,071782	2020-10-13T23:02:58:969
0,088840	-0,088898	-0,052499	2020-10-13T23:02:58:990
-0,005201	0,011189	-0,018958	2020-10-13T23:02:59:009
0,015707	0,040464	-0,047991	2020-10-13T23:02:59:033
-0,044114	-0,012178	-0,036026	2020-10-13T23:02:59:049
-0,008218	-0,080800	-0,079208	2020-10-13T23:02:59:070
-0,008673	0,043121	-0,004667	2020-10-13T23:02:59:089
-0,003478	0,004040	-0,067154	2020-10-13T23:02:59:111
-0,036839	-0,014079	-0,072055	2020-10-13T23:02:59:129
0,029101	-0,000039	-0,072119	2020-10-13T23:02:59:151
-0,006290	0,064605	-0,091205	2020-10-13T23:02:59:168
0,039066	0,056267	-0,014920	2020-10-13T23:02:59:190
-0,020545	0,028513	-0,053452	2020-10-13T23:02:59:209
0,046723	-0,001283	-0,051154	2020-10-13T23:02:59:231
-0,001074	-0,049872	-0,048753	2020-10-13T23:02:59:249
-0,020847	0,026545	-0,074875	2020-10-13T23:02:59:272
-0,006326	0,002547	-0,060908	2020-10-13T23:02:59:289
-0,020683	-0,047703	-0,013052	2020-10-13T23:02:59:311
-0,050569	0,017548	-0,076959	2020-10-13T23:02:59:329
-0,010141	0,002468	-0,048372	2020-10-13T23:02:59:351
-0,003002	0,021810	-0,089033	2020-10-13T23:02:59:368
-0,005775	0,054435	-0,062769	2020-10-13T23:02:59:391
0,007979	-0,084466	-0,019879	2020-10-13T23:02:59:409
0,011919	0,048670	-0,053039	2020-10-13T23:02:59:431
-0,017990	-0,051777	-0,096258	2020-10-13T23:02:59:450
-0,010441	-0,000441	-0,036170	2020-10-13T23:02:59:471
-0,036642	-0,048035	-0,057689	2020-10-13T23:02:59:489
-0,006042	0,048850	-0,079191	2020-10-13T23:02:59:512
-0,008950	0,003758	-0,031086	2020-10-13T23:02:59:529
-0,001772	0,015722	-0,007158	2020-10-13T23:02:59:551
-0,009840	-0,121399	-0,063399	2020-10-13T23:02:59:570
-0,026267	0,029116	-0,022385	2020-10-13T23:02:59:591
-0,043958	0,016219	-0,032256	2020-10-13T23:02:59:609
0,015414	0,029140	-0,010892	2020-10-13T23:02:59:631
-0,064718	-0,134983	-0,037283	2020-10-13T23:02:59:650
-0,007287	-0,014279	-0,108698	2020-10-13T23:02:59:671
-0,016910	0,026508	-0,032118	2020-10-13T23:02:59:689
0,014539	-0,001587	-0,039442	2020-10-13T23:02:59:711
-0,017787	0,001284	-0,048939	2020-10-13T23:02:59:730
-0,012874	0,021868	-0,041205	2020-10-13T23:02:59:755
-0,070302	0,024261	0,006652	2020-10-13T23:02:59:769
0,026387	-0,122257	-0,126258	2020-10-13T23:02:59:792
0,072429	-0,081928	-0,061094	2020-10-13T23:02:59:809
0,044944	-0,013583	-0,012872	2020-10-13T23:02:59:831
0,011698	-0,050064	-0,022439	2020-10-13T23:02:59:850
0,061341	-0,032165	0,006376	2020-10-13T23:02:59:871
-0,020766	-0,033476	-0,048503	2020-10-13T23:02:59:890
0,080422	0,043562	-0,012590	2020-10-13T23:02:59:911
0,012413	0,003687	-0,043921	2020-10-13T23:02:59:930
0,040139	-0,126047	-0,113329	2020-10-13T23:02:59:952
0,130985	-0,095614	-0,052952	2020-10-13T23:02:59:969
-0,010916	0,010911	-0,045932	2020-10-13T23:02:59:994
-0,068343	0,030054	-0,057896	2020-10-13T23:03:00:010
0,031645	0,096000	0,023966	2020-10-13T23:03:00:031
-0,010566	0,018447	-0,092240	2020-10-13T23:03:00:051
-0,032101	-0,091623	-0,070705	2020-10-13T23:03:00:071
-0,040207	0,015020	-0,047112	2020-10-13T23:03:00:089
-0,000610	0,141425	-0,035222	2020-10-13T23:03:00:112
-0,031779	0,063344	-0,033564	2020-10-13T23:03:00:129
0,000092	0,032053	-0,017055	2020-10-13T23:03:00:152
0,018796	0,085488	-0,067425	2020-10-13T23:03:00:170
0,019881	0,057249	-0,079712	2020-10-13T23:03:00:191
0,011465	0,102159	-0,039242	2020-10-13T23:03:00:210
-0,006334	0,008920	0,010497	2020-10-13T23:03:00:234
-0,003941	-0,048508	-0,027788	2020-10-13T23:03:00:250
-0,022361	-0,012383	-0,054956	2020-10-13T23:03:00:271
-0,014609	-0,056699	-0,002239	2020-10-13T23:03:00:290
-0,026544	-0,010575	-0,037879	2020-10-13T23:03:00:312
-0,071145	-0,019445	-0,025886	2020-10-13T23:03:00:330
-0,027709	0,053652	-0,064157	2020-10-13T23:03:00:352
-0,043655	0,002843	-0,033322	2020-10-13T23:03:00:370
-0,015575	0,016442	-0,019089	2020-10-13T23:03:00:392
-0,067443	0,066511	-0,036078	2020-10-13T23:03:00:411
-0,021085	0,004414	-0,012646	2020-10-13T23:03:00:431
-0,005871	0,052990	-0,058275	2020-10-13T23:03:00:451
-0,008880	0,008405	-0,026321	2020-10-13T23:03:00:474
-0,077033	-0,006297	-0,052794	2020-10-13T23:03:00:490
-0,081818	-0,035011	-0,040831	2020-10-13T23:03:00:512
0,046844	0,170967	-0,027982	2020-10-13T23:03:00:533
0,087800	0,142164	-0,064860	2020-10-13T23:03:00:552
0,052054	0,111609	-0,046366	2020-10-13T23:03:00:570
-0,003545	0,005614	0,034929	2020-10-13T23:03:00:592
-0,077722	0,096542	-0,029676	2020-10-13T23:03:00:610
0,063571	0,019844	-0,044497	2020-10-13T23:03:00:632
0,007883	-0,006127	-0,006290	2020-10-13T23:03:00:651
0,019597	-0,020662	-0,061332	2020-10-13T23:03:00:672
0,056973	0,004272	-0,056444	2020-10-13T23:03:00:690
0,042020	-0,020219	-0,051622	2020-10-13T23:03:00:714
0,008717	0,028470	-0,044321	2020-10-13T23:03:00:730
0,106062	0,027075	-0,053980	2020-10-13T23:03:00:752
0,031500	-0,029974	-0,032458	2020-10-13T23:03:00:770
-0,027783	-0,007295	-0,068211	2020-10-13T23:03:00:792
0,040411	0,006841	-0,073047	2020-10-13T23:03:00:810
0,012049	-0,056404	-0,034784	2020-10-13T23:03:00:832
0,056917	-0,021239	-0,029855	2020-10-13T23:03:00:851
-0,012761	0,054912	-0,072882	2020-10-13T23:03:00:872
-0,007420	0,027237	-0,068401	2020-10-13T23:03:00:891
0,061868	-0,067410	-0,078074	2020-10-13T23:03:00:912
0,027690	-0,054740	-0,089710	2020-10-13T23:03:00:930
-0,009174	0,009640	-0,021824	2020-10-13T23:03:00:955
-0,060932	-0,014708	-0,002828	2020-10-13T23:03:00:971
-0,068110	0,004434	-0,055470	2020-10-13T23:03:00:992
-0,042279	0,035472	-0,026444	2020-10-13T23:03:01:011
0,019362	-0,055244	-0,084088	2020-10-13T23:03:01:032
0,058725	-0,038697	-0,062350	2020-10-13T23:03:01:051
0,021954	-0,008038	-0,076468	2020-10-13T23:03:01:073
0,056241	-0,042992	-0,033280	2020-10-13T23:03:01:090
-0,016434	0,021682	-0,078464	2020-10-13T23:03:01:112
-0,013775	0,015968	-0,016330	2020-10-13T23:03:01:131
0,055672	-0,018028	-0,047475	2020-10-13T23:03:01:153
-0,028648	-0,002176	-0,052061	2020-10-13T23:03:01:171
-0,004905	0,001881	-0,013865	2020-10-13T23:03:01:195
-0,002513	-0,012476	-0,056936	2020-10-13T23:03:01:211
0,094493	-0,000495	-0,046116	2020-10-13T23:03:01:232
0,098986	0,033785	-0,029193	2020-10-13T23:03:01:251
0,074917	0,076836	-0,050803	2020-10-13T23:03:01:272
0,001799	0,053151	-0,010387	2020-10-13T23:03:01:292
0,044164	-0,056705	-0,036858	2020-10-13T23:03:01:313
0,077593	0,004126	-0,036540	2020-10-13T23:03:01:331
0,097814	0,017016	-0,053314	2020-10-13T23:03:01:353
-0,004325	0,004870	-0,059844	2020-10-13T23:03:01:371
-0,011504	-0,031022	-0,038308	2020-10-13T23:03:01:393
-0,034730	0,029190	-0,050382	2020-10-13T23:03:01:411
-0,025510	0,024780	-0,084111	2020-10-13T23:03:01:434
-0,052807	0,011597	-0,043578	2020-10-13T23:03:01:451
-0,014779	0,050154	-0,043629	2020-10-13T23:03:01:472
-0,021427	0,004117	-0,067810	2020-10-13T23:03:01:492
-0,022704	0,041461	-0,017672	2020-10-13T23:03:01:512
-0,029490	0,004645	-0,017757	2020-10-13T23:03:01:531
-0,057458	0,019864	-0,012930	2020-10-13T23:03:01:553
-0,028545	-0,038499	-0,046588	2020-10-13T23:03:01:571
-0,108978	0,047224	-0,041677	2020-10-13T23:03:01:593
-0,044404	0,027128	-0,084979	2020-10-13T23:03:01:612
-0,011527	0,002426	-0,044419	2020-10-13T23:03:01:633
-0,042336	-0,026354	-0,022899	2020-10-13T23:03:01:651
-0,014024	-0,036687	-0,022834	2020-10-13T23:03:01:678
-0,006322	-0,060448	-0,063326	2020-10-13T23:03:01:691
-0,014058	0,013027	-0,048627	2020-10-13T23:03:01:713
-0,042118	0,049559	-0,051180	2020-10-13T23:03:01:732
0,045806	0,080826	-0,008344	2020-10-13T23:03:01:753
-0,045441	-0,020732	-0,053993	2020-10-13T23:03:01:772
0,032692	-0,042858	0,008313	2020-10-13T23:03:01:793
0,018668	-0,090324	-0,041651	2020-10-13T23:03:01:811
0,026983	0,000780	-0,067536	2020-10-13T23:03:01:833
-0,034312	-0,023488	-0,055551	2020-10-13T23:03:01:852
-0,022987	0,036818	-0,026855	2020-10-13T23:03:01:873
-0,026897	-0,003341	-0,038997	2020-10-13T23:03:01:891
-0,002334	-0,001203	-0,027543	2020-10-13T23:03:01:916
-0,007120	0,128009	-0,056257	2020-10-13T23:03:01:932
0,029069	-0,023905	-0,035046	2020-10-13T23:03:01:953
-0,030042	-0,154019	-0,020529	2020-10-13T23:03:01:972
-0,074572	-0,060701	-0,043961	2020-10-13T23:03:01:993
0,006631	-0,007782	-0,028330	2020-10-13T23:03:02:012
0,001845	0,054432	-0,023545	2020-10-13T23:03:02:033
0,027935	-0,014517	-0,015840	2020-10-13T23:03:02:052
0,039139	-0,010307	-0,023043	2020-10-13T23:03:02:075
-0,010981	0,023334	-0,022007	2020-10-13T23:03:02:092
0,053625	0,047262	-0,024399	2020-10-13T23:03:02:113
-0,044000	-0,024145	-0,040807	2020-10-13T23:03:02:132
-0,082746	0,031788	-0,040801	2020-10-13T23:03:02:155
-0,097399	0,033936	-0,041174	2020-10-13T23:03:02:172
-0,050332	-0,009458	-0,070050	2020-10-13T23:03:02:193
-0,027188	0,045264	-0,026863	2020-10-13T23:03:02:212
-0,054373	0,047915	-0,017519	2020-10-13T23:03:02:233
0,010150	0,003084	-0,058419	2020-10-13T23:03:02:252
-0,055133	-0,039287	0,001481	2020-10-13T23:03:02:273
-0,002874	-0,088305	-0,029394	2020-10-13T23:03:02:292
-0,048613	-0,037977	-0,079234	2020-10-13T23:03:02:313
-0,053863	-0,019016	-0,026472	2020-10-13T23:03:02:333
-0,041495	0,035715	-0,064876	2020-10-13T23:03:02:353
-0,018211	-0,000078	-0,072302	2020-10-13T23:03:02:372
-0,011396	0,024146	-0,094027	2020-10-13T23:03:02:397
-0,073610	0,007396	-0,041384	2020-10-13T23:03:02:412
0,020347	-0,053721	-0,063066	2020-10-13T23:03:02:433
-0,009052	0,033130	-0,036668	2020-10-13T23:03:02:452
0,003971	0,042079	-0,008437	2020-10-13T23:03:02:473
0,037005	-0,042830	-0,035043	2020-10-13T23:03:02:492
0,010619	-0,060073	-0,061138	2020-10-13T23:03:02:514
-0,021691	-0,001981	-0,029742	2020-10-13T23:03:02:532
0,055475	0,095638	-0,065693	2020-10-13T23:03:02:554
-0,007301	0,029003	-0,068573	2020-10-13T23:03:02:572
0,037806	0,093975	-0,020876	2020-10-13T23:03:02:594
0,090374	-0,056595	-0,064260	2020-10-13T23:03:02:612
0,077622	0,008786	-0,020571	2020-10-13T23:03:02:635
0,013441	-0,045153	-0,092138	2020-10-13T23:03:02:652
0,017272	-0,004427	-0,044051	2020-10-13T23:03:02:673
0,011537	0,014349	-0,067982	2020-10-13T23:03:02:693
-0,046931	0,032751	-0,082371	2020-10-13T23:03:02:714
-0,064547	0,106896	-0,056096	2020-10-13T23:03:02:732
-0,038209	0,060565	-0,042081	2020-10-13T23:03:02:754
0,025110	0,018808	-0,032632	2020-10-13T23:03:02:772
0,001456	-0,023018	-0,042038	2020-10-13T23:03:02:794
0,024318	-0,033766	0,020508	2020-10-13T23:03:02:813
0,029599	-0,030240	-0,019820	2020-10-13T23:03:02:834
0,022680	0,011237	-0,038632	2020-10-13T23:03:02:853
0,011129	-0,049192	-0,114993	2020-10-13T23:03:02:875
-0,011467	0,025775	-0,044517	2020-10-13T23:03:02:893
0,005283	0,018596	0,015305	2020-10-13T23:03:02:914
-0,045054	0,039490	-0,029357	2020-10-13T23:03:02:933
0,098109	-0,053370	-0,027189	2020-10-13T23:03:02:954
-0,002308	0,027714	-0,041223	2020-10-13T23:03:02:972
0,000033	0,030824	-0,024616	2020-10-13T23:03:02:994
0,062129	0,028762	-0,031969	2020-10-13T23:03:03:013
-0,039247	0,036744	-0,084649	2020-10-13T23:03:03:034
0,031613	-0,005294	-0,065668	2020-10-13T23:03:03:053
-0,010429	0,018122	0,034096	2020-10-13T23:03:03:075
-0,010323	0,097420	-0,047687	2020-10-13T23:03:03:093
-0,086893	0,032814	-0,035723	2020-10-13T23:03:03:116
-0,004631	-0,001140	0,007547	2020-10-13T23:03:03:133
0,002547	0,077823	-0,064237	2020-10-13T23:03:03:154
-0,004579	-0,003741	-0,065541	2020-10-13T23:03:03:173
0,041388	-0,066824	-0,065629	2020-10-13T23:03:03:194
-0,005915	0,002924	-0,039541	2020-10-13T23:03:03:214
-0,012988	0,108875	-0,068871	2020-10-13T23:03:03:235
0,060204	0,122136	-0,055188	2020-10-13T23:03:03:254
-0,006795	0,119743	-0,016904	2020-10-13T23:03:03:277
0,056650	-0,107865	-0,051213	2020-10-13T23:03:03:293
0,034551	-0,019399	-0,010069	2020-10-13T23:03:03:314
-0,022081	-0,050683	-0,055500	2020-10-13T23:03:03:333
0,014526	0,049673	-0,021838	2020-10-13T23:03:03:357
-0,009222	0,005316	-0,019289	2020-10-13T23:03:03:373
-0,066650	-0,018613	-0,067145	2020-10-13T23:03:03:395
0,000611	0,003713	-0,038150	2020-10-13T23:03:03:413
0,019245	-0,017138	-0,016539	2020-10-13T23:03:03:435
0,013048	0,084979	-0,095316	2020-10-13T23:03:03:453
0,054818	0,038492	-0,028593	2020-10-13T23:03:03:475
0,067462	0,107225	-0,049859	2020-10-13T23:03:03:493
-0,007976	0,002780	-0,051342	2020-10-13T23:03:03:515
-0,078838	-0,061078	-0,058393	2020-10-13T23:03:03:534
-0,112338	0,005921	-0,022500	2020-10-13T23:03:03:555
0,030311	-0,050394	-0,062654	2020-10-13T23:03:03:573
-0,004947	-0,071435	-0,048002	2020-10-13T23:03:03:596
0,023666	0,018395	-0,033330	2020-10-13T23:03:03:613
0,010589	-0,030430	-0,047736	2020-10-13T23:03:03:634
-0,011507	0,017902	-0,010921	2020-10-13T23:03:03:654
0,010029	-0,001241	-0,025277	2020-10-13T23:03:03:674
-0,005602	0,045374	-0,003057	2020-10-13T23:03:03:693
0,001827	0,075482	-0,044060	2020-10-13T23:03:03:714
-0,041099	-0,020751	-0,073273	2020-10-13T23:03:03:733
-0,009140	0,010176	-0,036412	2020-10-13T23:03:03:756
-0,059389	0,053247	-0,022056	2020-10-13T23:03:03:773
-0,041498	-0,030991	-0,018941	2020-10-13T23:03:03:794
-0,011162	0,052754	-0,069238	2020-10-13T23:03:03:813
-0,008212	0,016190	0,000696	2020-10-13T23:03:03:838
-0,034533	-0,005345	-0,054338	2020-10-13T23:03:03:854
0,027117	0,028734	-0,044899	2020-10-13T23:03:03:874
0,030199	0,051422	0,024434	2020-10-13T23:03:03:895
0,028298	0,024662	0,009884	2020-10-13T23:03:03:915
-0,026060	-0,060805	-0,069179	2020-10-13T23:03:03:933
0,003328	-0,009153	-0,052115	2020-10-13T23:03:03:956
0,028912	0,021278	-0,030406	2020-10-13T23:03:03:973
0,055377	-0,044728	-0,020680	2020-10-13T23:03:03:995
-0,019780	0,075865	-0,077710	2020-10-13T23:03:04:014
-0,010059	0,029500	-0,044506	2020-10-13T23:03:04:035
-0,036537	-0,026686	-0,097245	2020-10-13T23:03:04:054
0,045715	-0,018496	-0,073044	2020-10-13T23:03:04:091
0,009372	-0,025313	-0,000928	2020-10-13T23:03:04:098
0,032283	-0,027329	-0,017400	2020-10-13T23:03:04:115
0,040235	-0,051726	0,001964	2020-10-13T23:03:04:133
0,031553	0,064248	0,014074	2020-10-13T23:03:04:156
-0,057903	0,088165	-0,003074	2020-10-13T23:03:04:173
-0,021176	-0,026529	-0,032298	2020-10-13T23:03:04:195
-0,044407	-0,010451	-0,036953	2020-10-13T23:03:04:213
-0,013460	-0,050824	-0,015459	2020-10-13T23:03:04:235
-0,009581	0,027229	-0,078268	2020-10-13T23:03:04:255
0,055025	0,048764	-0,054340	2020-10-13T23:03:04:275
-0,126449	0,036295	-0,111596	2020-10-13T23:03:04:293
-0,082470	-0,001315	-0,025813	2020-10-13T23:03:04:317
-0,028556	0,063453	-0,102497	2020-10-13T23:03:04:334
-0,005892	0,026450	-0,014322	2020-10-13T23:03:04:356
-0,053213	0,000974	-0,055378	2020-10-13T23:03:04:374
-0,036535	-0,014444	-0,034019	2020-10-13T23:03:04:396
-0,004262	0,048491	-0,079457	2020-10-13T23:03:04:414
-0,057098	-0,049608	-0,038989	2020-10-13T23:03:04:436
0,003022	0,039923	-0,074883	2020-10-13T23:03:04:454
-0,046662	0,111636	-0,051413	2020-10-13T23:03:04:477
-0,032309	-0,017908	-0,037810	2020-10-13T23:03:04:495
-0,021992	0,049981	-0,056898	2020-10-13T23:03:04:516
0,040524	-0,021403	-0,009230	2020-10-13T23:03:04:541
-0,008106	0,009282	-0,090903	2020-10-13T23:03:04:559
-0,053569	0,023639	-0,069368	2020-10-13T23:03:04:574
0,055241	0,049542	-0,007991	2020-10-13T23:03:04:595
-0,005667	0,015622	-0,017631	2020-10-13T23:03:04:615
0,013476	-0,044198	-0,005667	2020-10-13T23:03:04:636
-0,062254	0,076691	-0,068323	2020-10-13T23:03:04:654
-0,010581	0,026318	-0,034986	2020-10-13T23:03:04:676
-0,036902	0,045461	-0,046950	2020-10-13T23:03:04:694
0,039411	-0,060247	-0,051461	2020-10-13T23:03:04:716
0,037095	-0,084750	-0,098903	2020-10-13T23:03:04:734
0,035088	-0,047362	-0,076986	2020-10-13T23:03:04:756
0,079391	-0,061572	-0,041052	2020-10-13T23:03:04:774
0,037902	-0,036465	-0,074368	2020-10-13T23:03:04:797
0,060530	-0,092138	-0,009580	2020-10-13T23:03:04:814
0,044633	0,026927	-0,030919	2020-10-13T23:03:04:836
0,031875	0,055604	-0,062418	2020-10-13T23:03:04:855
0,024481	0,054516	-0,029414	2020-10-13T23:03:04:876
-0,000362	-0,082457	-0,017678	2020-10-13T23:03:04:894
0,054900	-0,102566	-0,055646	2020-10-13T23:03:04:917
0,011212	-0,077158	-0,002390	2020-10-13T23:03:04:935
-0,011472	0,017387	-0,021822	2020-10-13T23:03:04:957
-0,090435	-0,040040	-0,079249	2020-10-13T23:03:04:974
0,024501	-0,000127	-0,044065	2020-10-13T23:03:04:996
0,128217	0,022777	-0,070441	2020-10-13T23:03:05:014
0,092736	0,055923	-0,070311	2020-10-13T23:03:05:038
0,004478	-0,004445	-0,112853	2020-10-13T23:03:05:055
-0,096020	-0,066658	-0,041069	2020-10-13T23:03:05:076
0,075624	-0,030210	0,021715	2020-10-13T23:03:05:095
0,119231	0,029397	-0,021327	2020-10-13T23:03:05:116
0,031020	0,104471	0,024119	2020-10-13T23:03:05:135
-0,013341	-0,009453	-0,050356	2020-10-13T23:03:05:157
-0,058557	-0,015089	-0,057202	2020-10-13T23:03:05:175
0,029100	-0,188625	-0,090229	2020-10-13T23:03:05:196
0,010247	-0,035437	-0,042542	2020-10-13T23:03:05:215
0,074853	0,029169	-0,013828	2020-10-13T23:03:05:237
0,028384	0,039801	-0,027241	2020-10-13T23:03:05:255
-0,008221	0,009647	-0,007866	2020-10-13T23:03:05:279
-0,036934	-0,133922	-0,050937	2020-10-13T23:03:05:295
0,001374	0,054111	-0,020266	2020-10-13T23:03:05:317
-0,039167	0,094854	-0,042265	2020-10-13T23:03:05:335
0,034668	0,057537	-0,018993	2020-10-13T23:03:05:357
0,027751	-0,066253	-0,045429	2020-10-13T23:03:05:375
0,004451	-0,015789	-0,066435	2020-10-13T23:03:05:397
0,030281	-0,007654	0,007849	2020-10-13T23:03:05:415
-0,028989	0,080863	-0,013640	2020-10-13T23:03:05:436
-0,000981	0,074601	-0,047791	2020-10-13T23:03:05:456
-0,048636	0,031115	0,013915	2020-10-13T23:03:05:477
0,027220	0,051404	-0,048461	2020-10-13T23:03:05:495
0,041507	0,005229	-0,031715	2020-10-13T23:03:05:520
0,096072	0,001346	-0,007625	2020-10-13T23:03:05:535
0,053193	0,007976	-0,055412	2020-10-13T23:03:05:557
0,022041	0,142577	-0,026804	2020-10-13T23:03:05:575
0,035390	0,028666	-0,049133	2020-10-13T23:03:05:597
-0,019619	0,016499	-0,001233	2020-10-13T23:03:05:615
-0,023475	0,092221	-0,101836	2020-10-13T23:03:05:637
0,046887	0,011511	-0,035255	2020-10-13T23:03:05:655
-0,034323	-0,041292	0,017433	2020-10-13T23:03:05:677
-0,028137	-0,090540	-0,044497	2020-10-13T23:03:05:696
0,035031	-0,038954	-0,015229	2020-10-13T23:03:05:717
-0,031203	0,010505	-0,070066	2020-10-13T23:03:05:735
-0,017436	0,048818	-0,029663	2020-10-13T23:03:05:759
-0,018460	0,056146	-0,066032	2020-10-13T23:03:05:775
-0,017273	-0,000032	-0,064007	2020-10-13T23:03:05:797
-0,012044	-0,037171	-0,047160	2020-10-13T23:03:05:816
-0,002257	-0,044156	-0,037351	2020-10-13T23:03:05:837
-0,042930	-0,047911	-0,030074	2020-10-13T23:03:05:855
0,040080	0,046233	-0,082683	2020-10-13T23:03:05:877
0,025497	-0,011057	-0,030184	2020-10-13T23:03:05:895
0,009661	-0,051220	-0,073166	2020-10-13T23:03:05:917
-0,007051	0,009999	-0,039786	2020-10-13T23:03:05:936
-0,086014	0,029141	-0,030215	2020-10-13T23:03:05:958
-0,007926	0,075145	0,024893	2020-10-13T23:03:05:975
0,130875	0,029433	-0,095232	2020-10-13T23:03:05:999
-0,005529	0,000159	-0,024735	2020-10-13T23:03:06:016
0,001649	0,067158	-0,041485	2020-10-13T23:03:06:037
-0,099589	-0,060202	-0,049812	2020-10-13T23:03:06:056
-0,028211	-0,098178	-0,028162	2020-10-13T23:03:06:077
-0,010540	-0,089801	-0,109212	2020-10-13T23:03:06:095
-0,022575	-0,024978	-0,044358	2020-10-13T23:03:06:117
0,019604	0,104937	-0,018241	2020-10-13T23:03:06:135
0,004047	0,023828	-0,028423	2020-10-13T23:03:06:157
0,008326	0,063141	-0,073997	2020-10-13T23:03:06:176
0,004856	-0,016020	-0,033526	2020-10-13T23:03:06:198
-0,046115	0,013640	-0,021452	2020-10-13T23:03:06:215
0,000484	0,007644	-0,074258	2020-10-13T23:03:06:242
0,036377	0,024394	-0,067080	2020-10-13T23:03:06:256
0,027071	-0,029725	-0,043978	2020-10-13T23:03:06:277
0,089886	0,008317	-0,060489	2020-10-13T23:03:06:296
0,051335	0,018426	-0,089029	2020-10-13T23:03:06:317
0,020068	-0,046104	-0,012606	2020-10-13T23:03:06:335
0,081170	-0,011773	-0,057965	2020-10-13T23:03:06:358
-0,009134	0,013591	-0,014875	2020-10-13T23:03:06:376
-0,028073	-0,033913	-0,053351	2020-10-13T23:03:06:397
-0,012655	-0,031183	-0,031813	2020-10-13T23:03:06:416
0,000220	-0,022289	-0,007969	2020-10-13T23:03:06:437
0,050243	-0,024305	-0,012714	2020-10-13T23:03:06:456
0,049805	-0,002325	-0,070029	2020-10-13T23:03:06:479
0,020384	-0,057045	-0,007707	2020-10-13T23:03:06:496
0,040263	-0,046657	-0,083942	2020-10-13T23:03:06:517
0,025569	-0,066601	0,009813	2020-10-13T23:03:06:536
0,033794	0,039147	-0,044924	2020-10-13T23:03:06:558
-0,001604	-0,020485	-0,035723	2020-10-13T23:03:06:576
0,024460	-0,002182	-0,026221	2020-10-13T23:03:06:598
0,001467	0,044544	0,009607	2020-10-13T23:03:06:616
0,056001	0,059000	-0,026481	2020-10-13T23:03:06:638
0,031445	-0,054380	-0,048233	2020-10-13T23:03:06:656
-0,004100	0,008690	-0,088560	2020-10-13T23:03:06:677
-0,007948	0,009528	-0,074393	2020-10-13T23:03:06:696
-0,098875	-0,124470	-0,052858	2020-10-13T23:03:06:719
0,027728	-0,036433	-0,043969	2020-10-13T23:03:06:736
0,073939	0,116369	-0,024590	2020-10-13T23:03:06:758
0,033723	0,011896	-0,022714	2020-10-13T23:03:06:776
0,029469	0,093766	0,022613	2020-10-13T23:03:06:798
0,075613	0,113567	-0,025826	2020-10-13T23:03:06:816
-0,007063	0,002793	-0,074723	2020-10-13T23:03:06:839
-0,071669	-0,109669	-0,086687	2020-10-13T23:03:06:857
0,057554	-0,033528	-0,102988	2020-10-13T23:03:06:878
-0,005352	0,013121	-0,014257	2020-10-13T23:03:06:896
0,040112	0,025602	0,004715	2020-10-13T23:03:06:918
-0,008656	0,014612	-0,051704	2020-10-13T23:03:06:937
-0,038479	-0,009796	-0,034824	2020-10-13T23:03:06:961
-0,052836	0,014132	-0,070717	2020-10-13T23:03:06:976
-0,047462	-0,065248	-0,041820	2020-10-13T23:03:06:998
0,011871	-0,041138	-0,034462	2020-10-13T23:03:07:016
0,032501	0,042128	-0,065372	2020-10-13T23:03:07:038
0,023015	0,110385	-0,060626	2020-10-13T23:03:07:057
0,023922	-0,033853	-0,094573	2020-10-13T23:03:07:080
-0,020811	-0,010360	-0,065638	2020-10-13T23:03:07:096
-0,017698	0,037322	-0,072852	2020-10-13T23:03:07:118
0,006855	0,034634	-0,037217	2020-10-13T23:03:07:137
0,037482	-0,046549	-0,049366	2020-10-13T23:03:07:160
-0,002957	0,063514	-0,061058	2020-10-13T23:03:07:176
-0,009431	0,022074	-0,051584	2020-10-13T23:03:07:201
0,033640	-0,023390	-0,032442	2020-10-13T23:03:07:216
0,020600	0,045734	-0,050570	2020-10-13T23:03:07:239
-0,024345	0,055295	-0,043332	2020-10-13T23:03:07:257
0,015985	0,053836	-0,040842	2020-10-13T23:03:07:278
-0,067846	-0,060076	-0,069169	2020-10-13T23:03:07:296
-0,003232	-0,002959	-0,038176	2020-10-13T23:03:07:320
0,015911	-0,067566	-0,052532	2020-10-13T23:03:07:337
0,029648	0,074001	-0,030476	2020-10-13T23:03:07:359
-0,080119	0,063064	0,005099	2020-10-13T23:03:07:377
-0,001956	0,150273	-0,028910	2020-10-13T23:03:07:400
-0,031051	0,090067	-0,058380	2020-10-13T23:03:07:417
-0,010556	0,098352	0,024953	2020-10-13T23:03:07:440
-0,012146	0,023680	-0,034422	2020-10-13T23:03:07:457
-0,014539	0,081107	-0,036815	2020-10-13T23:03:07:480
-0,111518	-0,036399	-0,066412	2020-10-13T23:03:07:497
-0,036607	-0,037895	-0,085647	2020-10-13T23:03:07:518
0,000156	0,006085	-0,051858	2020-10-13T23:03:07:537
0,025692	0,033192	-0,025437	2020-10-13T23:03:07:560
-0,019431	0,070933	-0,073280	2020-10-13T23:03:07:577
-0,004380	0,011409	0,012106	2020-10-13T23:03:07:599
0,002798	0,028159	-0,069250	2020-10-13T23:03:07:617
-0,023489	0,004683	-0,052096	2020-10-13T23:03:07:639
0,051443	0,003570	-0,061797	2020-10-13T23:03:07:657
-0,007389	0,003366	-0,081605	2020-10-13T23:03:07:682
-0,071995	-0,022955	-0,033749	2020-10-13T23:03:07:697
0,032442	-0,027991	-0,064966	2020-10-13T23:03:07:720
-0,038934	-0,021431	0,002259	2020-10-13T23:03:07:737
-0,030172	-0,030538	-0,021676	2020-10-13T23:03:07:759
0,078570	-0,070329	-0,026413	2020-10-13T23:03:07:776
-0,036119	-0,087419	-0,059356	2020-10-13T23:03:07:800
-0,023157	-0,089347	-0,058899	2020-10-13T23:03:07:817
0,027747	0,051710	-0,056090	2020-10-13T23:03:07:839
-0,012661	0,016253	-0,065778	2020-10-13T23:03:07:858
-0,022190	0,003983	0,010762	2020-10-13T23:03:07:880
0,014054	-0,009802	-0,113623	2020-10-13T23:03:07:898
-0,008726	0,009919	-0,064164	2020-10-13T23:03:07:922
-0,066154	0,055383	-0,076128	2020-10-13T23:03:07:937
0,038529	-0,054130	-0,015738	2020-10-13T23:03:07:960
0,047986	-0,033644	-0,029665	2020-10-13T23:03:07:978
0,007828	0,038560	0,003925	2020-10-13T23:03:07:999
0,083861	0,136773	-0,017819	2020-10-13T23:03:08:017
0,065164	0,047181	-0,061579	2020-10-13T23:03:08:040
-0,000169	-0,024898	-0,059361	2020-10-13T23:03:08:057
0,014148	0,000224	0,007754	2020-10-13T23:03:08:079
0,049058	-0,024158	0,026880	2020-10-13T23:03:08:100
0,063271	-0,004322	-0,061518	2020-10-13T23:03:08:120
-0,009714	0,025247	-0,061650	2020-10-13T23:03:08:137
-0,005112	0,061111	-0,009249	2020-10-13T23:03:08:163
-0,050576	0,094611	-0,033177	2020-10-13T23:03:08:177
-0,077836	-0,012718	-0,026796	2020-10-13T23:03:08:201
-0,038077	-0,019758	-0,046039	2020-10-13T23:03:08:217
-0,003268	-0,085108	-0,067458	2020-10-13T23:03:08:239
0,041986	-0,049528	-0,040715	2020-10-13T23:03:08:258
0,015792	-0,032690	0,036152	2020-10-13T23:03:08:281
-0,013429	-0,075650	0,036177	2020-10-13T23:03:08:298
0,013894	-0,045332	-0,040273	2020-10-13T23:03:08:319
0,041788	0,035067	-0,023365	2020-10-13T23:03:08:337
-0,010694	-0,038101	-0,035394	2020-10-13T23:03:08:361
0,003471	-0,025230	-0,001580	2020-10-13T23:03:08:377
-0,007271	0,014855	-0,025676	2020-10-13T23:03:08:402
-0,045557	0,069890	-0,013712	2020-10-13T23:03:08:418
0,040056	-0,069699	-0,074459	2020-10-13T23:03:08:441
-0,031766	-0,046949	-0,076437	2020-10-13T23:03:08:459
0,040961	0,049157	-0,040303	2020-10-13T23:03:08:480
0,020070	-0,006745	0,009683	2020-10-13T23:03:08:498
0,035919	-0,004456	-0,038157	2020-10-13T23:03:08:521
0,031302	-0,039129	-0,081047	2020-10-13T23:03:08:538
-0,069486	-0,024787	-0,011117	2020-10-13T23:03:08:560
-0,085223	-0,056923	0,000878	2020-10-13T23:03:08:578
-0,014553	-0,085160	-0,075520	2020-10-13T23:03:08:600
-0,011936	0,007308	-0,101464	2020-10-13T23:03:08:618
-0,007701	0,019758	-0,053541	2020-10-13T23:03:08:643
-0,003179	-0,009974	-0,058183	2020-10-13T23:03:08:659
-0,034286	-0,005189	-0,041432	2020-10-13T23:03:08:681
-0,029733	-0,000597	-0,010258	2020-10-13T23:03:08:698
0,069172	-0,025872	-0,053241	2020-10-13T23:03:08:720
0,039248	0,031198	-0,060123	2020-10-13T23:03:08:738
0,027597	0,057580	-0,024417	2020-10-13T23:03:08:761
-0,017022	0,049433	0,008782	2020-10-13T23:03:08:778
0,019345	-0,031643	-0,075191	2020-10-13T23:03:08:800
-0,022494	0,041610	-0,046300	2020-10-13T23:03:08:819
0,045488	0,014411	-0,003584	2020-10-13T23:03:08:841
-0,009557	0,058441	-0,032381	2020-10-13T23:03:08:859
-0,006351	0,006379	-0,014996	2020-10-13T23:03:08:883
-0,063213	-0,040342	-0,055652	2020-10-13T23:03:08:899
-0,053642	-0,009235	-0,046081	2020-10-13T23:03:08:921
0,008818	-0,020600	-0,085668	2020-10-13T23:03:08:939
0,039925	-0,044528	-0,066525	2020-10-13T23:03:08:961
0,074838	-0,041795	-0,026984	2020-10-13T23:03:08:978
-0,039436	-0,043385	-0,093541	2020-10-13T23:03:09:001
-0,030780	-0,014536	-0,043080	2020-10-13T23:03:09:018
0,027565	-0,063489	-0,033404	2020-10-13T23:03:09:040
-0,069687	-0,005428	-0,064161	2020-10-13T23:03:09:059
-0,006560	0,010366	-0,064268	2020-10-13T23:03:09:082
0,050288	0,050770	-0,057306	2020-10-13T23:03:09:101
-0,009533	0,017270	-0,064485	2020-10-13T23:03:09:122
0,077468	0,004579	-0,003554	2020-10-13T23:03:09:139
0,085321	0,061169	-0,032263	2020-10-13T23:03:09:161
-0,000640	0,040274	-0,058914	2020-10-13T23:03:09:179
0,070173	0,022497	0,003214	2020-10-13T23:03:09:200
0,109170	0,009267	-0,080570	2020-10-13T23:03:09:219
0,038684	0,044380	-0,025474	2020-10-13T23:03:09:241
0,067474	0,067624	-0,049667	2020-10-13T23:03:09:259
0,035318	0,065338	-0,007000	2020-10-13T23:03:09:280
-0,014549	0,056306	-0,050461	2020-10-13T23:03:09:299
0,002370	0,093634	-0,041242	2020-10-13T23:03:09:321
0,028117	0,069515	-0,034563	2020-10-13T23:03:09:339
-0,004472	0,013471	-0,039148	2020-10-13T23:03:09:364
0,032141	0,027382	-0,053745	2020-10-13T23:03:09:379
0,108712	-0,018081	-0,077673	2020-10-13T23:03:09:401
-0,100662	0,024012	-0,038320	2020-10-13T23:03:09:420
-0,110941	-0,024563	-0,038536	2020-10-13T23:03:09:440
0,008624	0,040895	-0,060151	2020-10-13T23:03:09:459
-0,137997	-0,020289	-0,046149	2020-10-13T23:03:09:482
-0,062912	0,035629	-0,003186	2020-10-13T23:03:09:499
-0,046548	0,024611	-0,046471	2020-10-13T23:03:09:521
-0,070881	0,063500	-0,070646	2020-10-13T23:03:09:540
-0,021962	0,011235	-0,052062	2020-10-13T23:03:09:562
-0,026259	0,064778	-0,028299	2020-10-13T23:03:09:579
-0,032015	0,008980	-0,009757	2020-10-13T23:03:09:602
-0,006533	0,018154	-0,062135	2020-10-13T23:03:09:620
0,065252	-0,101487	-0,098027	2020-10-13T23:03:09:642
-0,012259	0,029050	-0,069653	2020-10-13T23:03:09:661
-0,009866	0,031442	-0,036153	2020-10-13T23:03:09:681
0,027598	0,001321	-0,048653	2020-10-13T23:03:09:699
0,011227	0,005921	-0,065362	2020-10-13T23:03:09:722
0,010444	-0,040599	-0,089368	2020-10-13T23:03:09:739
0,026113	-0,029238	-0,038918	2020-10-13T23:03:09:761
0,034202	-0,026178	-0,072311	2020-10-13T23:03:09:779
0,013217	0,007674	-0,050688	2020-10-13T23:03:09:803
-0,018641	0,004120	-0,060348	2020-10-13T23:03:09:819
0,010619	-0,098978	-0,024490	2020-10-13T23:03:09:842
-0,009955	0,010940	-0,097982	2020-10-13T23:03:09:860
-0,043455	-0,048880	-0,078840	2020-10-13T23:03:09:881
0,036240	-0,023588	-0,031469	2020-10-13T23:03:09:900
0,027040	0,063458	-0,005001	2020-10-13T23:03:09:921
0,041944	0,007540	0,004291	2020-10-13T23:03:09:939
0,018170	-0,018145	-0,060429	2020-10-13T23:03:09:963
0,024149	0,091687	-0,072383	2020-10-13T23:03:09:979
0,089562	-0,014091	-0,034582	2020-10-13T23:03:10:001
0,031939	0,120718	0,006320	2020-10-13T23:03:10:020
-0,042154	0,061063	-0,063704	2020-10-13T23:03:10:042
0,019458	0,112427	-0,054547	2020-10-13T23:03:10:060
-0,009503	0,009956	-0,036418	2020-10-13T23:03:10:095
-0,011896	0,110455	-0,034025	2020-10-13T23:03:10:099
0,032202	0,008864	-0,039857	2020-10-13T23:03:10:122
0,001553	-0,004556	-0,047112	2020-10-13T23:03:10:140
-0,022689	-0,073585	-0,047070	2020-10-13T23:03:10:162
0,006335	-0,033138	-0,058626	2020-10-13T23:03:10:180
-0,016246	0,023781	-0,034494	2020-10-13T23:03:10:202
-0,008491	-0,011978	-0,053861	2020-10-13T23:03:10:220
-0,008563	0,002879	0,023527	2020-10-13T23:03:10:242
-0,020527	-0,030621	-0,086543	2020-10-13T23:03:10:261
0,054790	0,039475	-0,059359	2020-10-13T23:03:10:282
-0,048056	0,050133	-0,050085	2020-10-13T23:03:10:300
-0,074643	0,056393	-0,074411	2020-10-13T23:03:10:323
-0,035557	0,101552	-0,012567	2020-10-13T23:03:10:340
-0,069989	-0,042672	-0,049045	2020-10-13T23:03:10:363
-0,004617	0,057081	-0,068123	2020-10-13T23:03:10:380
-0,023992	0,073322	-0,070795	2020-10-13T23:03:10:401
-0,010734	0,061556	-0,040180	2020-10-13T23:03:10:420
-0,028778	0,065928	-0,047902	2020-10-13T23:03:10:443
-0,003621	-0,001450	-0,049515	2020-10-13T23:03:10:461
-0,037121	-0,006236	-0,056693	2020-10-13T23:03:10:481
0,022219	-0,042855	-0,044875	2020-10-13T23:03:10:500
-0,017518	-0,059611	-0,070942	2020-10-13T23:03:10:523
0,004747	-0,008585	-0,046338	2020-10-13T23:03:10:541
0,016711	-0,044477	-0,041553	2020-10-13T23:03:10:565
-0,037113	0,027439	0,030530	2020-10-13T23:03:10:580
-0,061939	0,033105	-0,019915	2020-10-13T23:03:10:603
-0,056716	0,035973	-0,056085	2020-10-13T23:03:10:620
-0,044132	0,061401	-0,011035	2020-10-13T23:03:10:642
-0,003890	-0,000036	-0,054471	2020-10-13T23:03:10:661
0,022431	0,038249	-0,080792	2020-10-13T23:03:10:683
-0,048409	-0,066795	-0,058798	2020-10-13T23:03:10:700
-0,042666	-0,102558	-0,051212	2020-10-13T23:03:10:721
-0,008253	0,010192	-0,024467	2020-10-13T23:03:10:740
-0,048267	0,001256	-0,101219	2020-10-13T23:03:10:764
-0,094001	-0,044359	-0,041488	2020-10-13T23:03:10:780
-0,001447	0,010266	-0,053413	2020-10-13T23:03:10:803
-0,054035	-0,075238	-0,039216	2020-10-13T23:03:10:820
0,027245	0,073129	-0,041472	2020-10-13T23:03:10:843
-0,050701	-0,029736	-0,020318	2020-10-13T23:03:10:861
-0,003567	0,001162	-0,039018	2020-10-13T23:03:10:882
0,080182	-0,171122	-0,091660	2020-10-13T23:03:10:900
-0,122358	0,139004	-0,019632	2020-10-13T23:03:10:924
-0,087768	0,089158	-0,056435	2020-10-13T23:03:10:940
-0,055317	0,015466	-0,006760	2020-10-13T23:03:10:962
-0,002772	0,114840	-0,050027	2020-10-13T23:03:10:980
-0,012543	0,139810	-0,038674	2020-10-13T23:03:11:003
-0,084829	0,005388	-0,034392	2020-10-13T23:03:11:021
-0,006765	0,014511	-0,010362	2020-10-13T23:03:11:045
0,009033	0,022805	-0,010457	2020-10-13T23:03:11:061
0,047318	-0,060944	-0,089420	2020-10-13T23:03:11:083
-0,038600	0,068104	-0,040373	2020-10-13T23:03:11:101
-0,044613	0,010466	-0,095713	2020-10-13T23:03:11:122
-0,052303	0,148493	0,004646	2020-10-13T23:03:11:140
-0,119210	0,037157	-0,048935	2020-10-13T23:03:11:164
-0,084858	0,135862	-0,046906	2020-10-13T23:03:11:181
-0,045556	0,027557	-0,078666	2020-10-13T23:03:11:202
0,066024	0,021868	-0,057270	2020-10-13T23:03:11:221
0,003117	0,055890	-0,052571	2020-10-13T23:03:11:243
0,017378	0,031020	-0,069652	2020-10-13T23:03:11:261
0,004002	-0,014078	-0,014956	2020-10-13T23:03:11:285
0,015966	0,088814	0,006578	2020-10-13T23:03:11:301
-0,004809	-0,033435	-0,029490	2020-10-13T23:03:11:324
-0,095849	-0,103069	-0,041271	2020-10-13T23:03:11:341
0,047035	-0,150596	-0,060105	2020-10-13T23:03:11:363
0,051614	-0,159737	-0,052206	2020-10-13T23:03:11:381
0,010616	-0,075607	-0,077801	2020-10-13T23:03:11:404
-0,014067	0,061611	-0,008109	2020-10-13T23:03:11:421
0,034313	-0,042462	-0,051502	2020-10-13T23:03:11:442
-0,020499	-0,120611	-0,020054	2020-10-13T23:03:11:461
0,006617	-0,131262	-0,062623	2020-10-13T23:03:11:484
-0,001040	-0,077063	-0,069234	2020-10-13T23:03:11:501
-0,029378	-0,038649	-0,047489	2020-10-13T23:03:11:524
-0,011473	0,032007	-0,020859	2020-10-13T23:03:11:541
0,079454	0,051150	-0,016073	2020-10-13T23:03:11:564
-0,013337	0,032528	-0,094678	2020-10-13T23:03:11:582
-0,068372	0,034920	-0,061179	2020-10-13T23:03:11:603
0,101463	0,040007	-0,029827	2020-10-13T23:03:11:621
0,062835	0,085893	-0,041873	2020-10-13T23:03:11:644
0,055121	-0,015730	-0,037603	2020-10-13T23:03:11:661
0,038983	0,068557	-0,061674	2020-10-13T23:03:11:683
0,041626	-0,047083	-0,026043	2020-10-13T23:03:11:701
0,024379	0,005183	-0,044687	2020-10-13T23:03:11:724
0,093013	0,039215	-0,121423	2020-10-13T23:03:11:741
0,026543	0,086797	-0,009120	2020-10-13T23:03:11:765
0,026887	0,076036	-0,035742	2020-10-13T23:03:11:781
0,097712	0,025739	-0,040974	2020-10-13T23:03:11:804
-0,007986	0,022263	-0,022623	2020-10-13T23:03:11:822
0,015942	-0,023201	-0,101586	2020-10-13T23:03:11:843
-0,002932	0,000289	-0,047511	2020-10-13T23:03:11:861
-0,034546	-0,013944	-0,047241	2020-10-13T23:03:11:884
-0,013982	-0,038806	-0,066279	2020-10-13T23:03:11:901
0,065179	-0,009717	-0,051647	2020-10-13T23:03:11:923
-0,017320	0,018242	0,008446	2020-10-13T23:03:11:942
-0,071915	0,104504	-0,017876	2020-10-13T23:03:11:965
-0,025677	-0,047754	-0,066224	2020-10-13T23:03:11:981
-0,024701	-0,015765	-0,025243	2020-10-13T23:03:12:004
-0,003922	0,006072	-0,091273	2020-10-13T23:03:12:022
0,017613	-0,001107	-0,005132	2020-10-13T23:03:12:044
-0,026451	-0,028261	-0,035583	2020-10-13T23:03:12:062
0,012798	-0,032020	-0,030722	2020-10-13T23:03:12:084
0,012337	-0,017077	-0,001935	2020-10-13T23:03:12:101
0,028863	0,015578	-0,035514	2020-10-13T23:03:12:124
0,010699	0,042063	-0,071590	2020-10-13T23:03:12:141
-0,015571	0,042783	-0,040895	2020-10-13T23:03:12:163
-0,005598	0,047835	-0,036334	2020-10-13T23:03:12:181
-0,024665	-0,002720	-0,039000	2020-10-13T23:03:12:204
0,098222	-0,093001	-0,072459	2020-10-13T23:03:12:221
-0,011531	-0,001902	-0,031154	2020-10-13T23:03:12:244
0,050888	0,037046	-0,035878	2020-10-13T23:03:12:262
0,019463	0,003618	-0,043210	2020-10-13T23:03:12:284
-0,072725	-0,010746	-0,083852	2020-10-13T23:03:12:302
-0,033317	0,013919	-0,067132	2020-10-13T23:03:12:324
0,006163	-0,041328	-0,016939	2020-10-13T23:03:12:342
0,026705	0,020695	-0,066937	2020-10-13T23:03:12:365
0,008282	-0,026139	-0,026348	2020-10-13T23:03:12:382
-0,045755	0,078851	-0,045238	2020-10-13T23:03:12:404
0,080689	-0,009437	-0,072075	2020-10-13T23:03:12:422
-0,002492	0,041038	-0,036035	2020-10-13T23:03:12:445
-0,043371	0,016609	-0,043497	2020-10-13T23:03:12:462
-0,063468	0,082687	-0,050812	2020-10-13T23:03:12:485
0,011074	0,018124	-0,070508	2020-10-13T23:03:12:501
0,065218	-0,005067	-0,018004	2020-10-13T23:03:12:524
-0,007454	0,049552	-0,044269	2020-10-13T23:03:12:542
0,002228	0,017767	-0,068505	2020-10-13T23:03:12:563
-0,005249	0,021325	-0,047082	2020-10-13T23:03:12:581
0,003746	0,049200	-0,063898	2020-10-13T23:03:12:604
-0,008868	0,007545	-0,046864	2020-10-13T23:03:12:622
-0,018440	-0,069026	-0,087542	2020-10-13T23:03:12:643
-0,062380	-0,053721	-0,015555	2020-10-13T23:03:12:662
-0,068692	0,062112	-0,034698	2020-10-13T23:03:12:684
-0,024928	0,058771	-0,037540	2020-10-13T23:03:12:702
-0,025914	0,056793	-0,045224	2020-10-13T23:03:12:725
-0,036936	0,143891	-0,033691	2020-10-13T23:03:12:742
0,007926	0,082243	-0,020330	2020-10-13T23:03:12:765
-0,002562	-0,013408	0,012708	2020-10-13T23:03:12:782
0,015791	0,098365	-0,039733	2020-10-13T23:03:12:803
-0,026109	0,050166	-0,028261	2020-10-13T23:03:12:822
-0,087311	0,074971	-0,023909	2020-10-13T23:03:12:844
-0,059367	0,015472	-0,029276	2020-10-13T23:03:12:862
-0,018153	0,013683	-0,019977	2020-10-13T23:03:12:884
-0,034566	0,087166	-0,046378	2020-10-13T23:03:12:902
-0,040237	0,072202	-0,013472	2020-10-13T23:03:12:925
-0,021925	0,022862	-0,035447	2020-10-13T23:03:12:942
-0,000049	0,033957	-0,054688	2020-10-13T23:03:12:966
-0,000470	0,006176	0,004997	2020-10-13T23:03:12:982
-0,014923	-0,032979	-0,066871	2020-10-13T23:03:13:005
0,002369	0,087482	-0,050056	2020-10-13T23:03:13:022
-0,002697	-0,003288	-0,024137	2020-10-13T23:03:13:045
-0,019447	-0,177964	-0,048065	2020-10-13T23:03:13:063
0,013556	0,137378	-0,039130	2020-10-13T23:03:13:085
0,029253	0,144618	-0,013593	2020-10-13T23:03:13:102
0,015492	0,184509	0,033411	2020-10-13T23:03:13:124
0,090886	0,078772	-0,015538	2020-10-13T23:03:13:142
-0,021326	0,136353	-0,075748	2020-10-13T23:03:13:165
-0,035178	0,096127	-0,043009	2020-10-13T23:03:13:182
-0,014953	0,108407	-0,045925	2020-10-13T23:03:13:206
-0,028692	0,175835	0,020315	2020-10-13T23:03:13:222
0,044574	0,106367	-0,042990	2020-10-13T23:03:13:245
-0,003507	0,100282	0,018639	2020-10-13T23:03:13:263
-0,006779	0,112131	0,006172	2020-10-13T23:03:13:284
-0,040041	0,093435	0,012625	2020-10-13T23:03:13:302
0,067046	0,085052	-0,045490	2020-10-13T23:03:13:326
0,020316	0,096539	-0,055514	2020-10-13T23:03:13:342
-0,026905	0,065627	-0,005699	2020-10-13T23:03:13:365
0,036391	0,126219	-0,034863	2020-10-13T23:03:13:383
0,053493	0,078120	-0,073863	2020-10-13T23:03:13:405
-0,028508	0,055165	-0,086135	2020-10-13T23:03:13:423
0,015273	-0,065702	-0,040818	2020-10-13T23:03:13:446
0,013941	0,063008	0,005126	2020-10-13T23:03:13:463
0,012860	0,069107	-0,055023	2020-10-13T23:03:13:485
-0,038530	-0,001034	-0,050528	2020-10-13T23:03:13:509
0,010624	0,097712	-0,012214	2020-10-13T23:03:13:525
-0,012071	0,014202	-0,024612	2020-10-13T23:03:13:542
0,006893	0,035749	0,023251	2020-10-13T23:03:13:566
0,013294	0,053102	-0,060659	2020-10-13T23:03:13:583
0,014299	0,048437	-0,027351	2020-10-13T23:03:13:604
-0,087032	0,021338	-0,046793	2020-10-13T23:03:13:623
-0,044286	0,009585	-0,011251	2020-10-13T23:03:13:646
-0,016285	-0,040978	0,026954	2020-10-13T23:03:13:663
0,061921	0,015767	-0,028198	2020-10-13T23:03:13:686
0,007032	-0,011807	-0,023711	2020-10-13T23:03:13:704
-0,016896	0,131762	-0,078746	2020-10-13T23:03:13:725
0,054675	-0,088037	-0,042649	2020-10-13T23:03:13:744
-0,013327	-0,147965	-0,082826	2020-10-13T23:03:13:765
0,006139	-0,086518	-0,020073	2020-10-13T23:03:13:783
0,012628	-0,104493	-0,024530	2020-10-13T23:03:13:806
0,007757	-0,018002	-0,035712	2020-10-13T23:03:13:823
0,000579	0,008319	-0,050069	2020-10-13T23:03:13:845
-0,003234	-0,000217	-0,032259	2020-10-13T23:03:13:864
0,021989	0,143585	-0,081043	2020-10-13T23:03:13:888
0,020345	0,081711	-0,007272	2020-10-13T23:03:13:903
-0,063404	-0,033145	-0,012057	2020-10-13T23:03:13:926
0,085940	0,072835	-0,041116	2020-10-13T23:03:13:943
0,100684	0,032823	-0,007959	2020-10-13T23:03:13:966
0,038070	0,040125	-0,027229	2020-10-13T23:03:13:983
0,093575	0,094578	-0,034677	2020-10-13T23:03:14:005
0,107934	0,072241	-0,063867	2020-10-13T23:03:14:023
-0,008364	0,006183	-0,048956	2020-10-13T23:03:14:047
-0,046913	-0,024490	-0,029838	2020-10-13T23:03:14:064
-0,066056	-0,091490	-0,063336	2020-10-13T23:03:14:085
0,022637	0,039158	-0,029345	2020-10-13T23:03:14:104
0,080936	0,060959	-0,012774	2020-10-13T23:03:14:126
0,093586	0,118443	-0,005979	2020-10-13T23:03:14:143
-0,003370	-0,000239	-0,026785	2020-10-13T23:03:14:168
-0,027298	-0,064845	0,009108	2020-10-13T23:03:14:183
-0,006761	0,055969	0,028813	2020-10-13T23:03:14:206
-0,016040	0,049548	-0,040992	2020-10-13T23:03:14:223
-0,004056	0,152656	-0,067533	2020-10-13T23:03:14:245
0,009661	-0,017079	0,025105	2020-10-13T23:03:14:264
0,042159	-0,017134	-0,055988	2020-10-13T23:03:14:286
0,089856	0,036988	-0,082088	2020-10-13T23:03:14:303
0,030702	0,012836	0,003913	2020-10-13T23:03:14:325
-0,075654	0,031939	-0,058510	2020-10-13T23:03:14:344
-0,103646	0,054891	-0,022807	2020-10-13T23:03:14:367
0,004131	0,039983	-0,056741	2020-10-13T23:03:14:383
-0,005036	0,008212	-0,070220	2020-10-13T23:03:14:408
0,002143	0,012998	-0,024756	2020-10-13T23:03:14:424
0,049414	0,016938	-0,071175	2020-10-13T23:03:14:446
-0,003872	0,004066	-0,071191	2020-10-13T23:03:14:465
-0,025407	0,037566	-0,056834	2020-10-13T23:03:14:485
0,046411	-0,111736	-0,058021	2020-10-13T23:03:14:504
0,067177	-0,039432	-0,050061	2020-10-13T23:03:14:527
0,066146	0,000814	-0,040225	2020-10-13T23:03:14:544
0,050560	-0,046911	-0,037731	2020-10-13T23:03:14:566
0,051984	-0,102767	-0,068386	2020-10-13T23:03:14:585
0,077792	0,056321	-0,036653	2020-10-13T23:03:14:607
0,052077	-0,003699	-0,096606	2020-10-13T23:03:14:624
0,037317	-0,019971	0,004009	2020-10-13T23:03:14:647
-0,000241	-0,043770	-0,039005	2020-10-13T23:03:14:664
-0,010294	-0,086308	-0,057863	2020-10-13T23:03:14:686
0,014047	-0,053655	-0,019218	2020-10-13T23:03:14:704
0,025657	-0,106844	-0,047750	2020-10-13T23:03:14:726
-0,009143	-0,094319	-0,078319	2020-10-13T23:03:14:744
0,060586	-0,001356	-0,034838	2020-10-13T23:03:14:767
0,045220	0,018688	-0,068160	2020-10-13T23:03:14:784
0,028891	-0,021083	-0,077819	2020-10-13T23:03:14:805
0,053977	-0,058907	0,032329	2020-10-13T23:03:14:824
-0,023165	-0,027071	-0,031899	2020-10-13T23:03:14:847
0,058742	-0,051638	-0,017389	2020-10-13T23:03:14:864
0,056097	-0,043112	-0,055474	2020-10-13T23:03:14:888
0,027197	-0,015333	-0,043298	2020-10-13T23:03:14:904
0,032900	0,028243	-0,021672	2020-10-13T23:03:14:927
-0,047650	-0,018685	-0,064837	2020-10-13T23:03:14:944
0,012285	-0,046978	0,006916	2020-10-13T23:03:14:966
-0,089644	-0,059629	0,016920	2020-10-13T23:03:14:984
-0,007256	-0,125347	-0,045035	2020-10-13T23:03:15:007
-0,009021	0,019409	-0,013710	2020-10-13T23:03:15:025
0,036443	0,055301	-0,035246	2020-10-13T23:03:15:046
-0,003744	0,009872	-0,002592	2020-10-13T23:03:15:065
0,070433	-0,028413	-0,026521	2020-10-13T23:03:15:097
-0,022189	0,047720	-0,040574	2020-10-13T23:03:15:104
-0,031215	0,039190	-0,019198	2020-10-13T23:03:15:127
-0,032449	0,111363	-0,036194	2020-10-13T23:03:15:144
-0,026377	0,036499	-0,022449	2020-10-13T23:03:15:167
-0,010646	0,074724	-0,068209	2020-10-13T23:03:15:185
0,015877	0,001848	-0,044648	2020-10-13T23:03:15:206
-0,006674	0,008151	-0,045367	2020-10-13T23:03:15:225
0,002897	0,084721	-0,002297	2020-10-13T23:03:15:247
-0,060170	-0,001330	0,020313	2020-10-13T23:03:15:265
-0,057751	0,025308	-0,061089	2020-10-13T23:03:15:286
-0,002191	-0,057696	-0,054166	2020-10-13T23:03:15:305
-0,035958	0,007719	-0,053843	2020-10-13T23:03:15:327
-0,029778	-0,032919	-0,106525	2020-10-13T23:03:15:344
-0,005521	0,007792	-0,012586	2020-10-13T23:03:15:370
-0,043806	-0,020922	-0,034122	2020-10-13T23:03:15:384
-0,044039	0,058379	-0,033046	2020-10-13T23:03:15:418
-0,007941	0,020834	-0,024708	2020-10-13T23:03:15:425
0,032737	-0,005487	-0,034279	2020-10-13T23:03:15:446
-0,084824	-0,087671	0,008341	2020-10-13T23:03:15:465
-0,113924	-0,051435	-0,013063	2020-10-13T23:03:15:487
-0,092103	-0,068114	-0,046479	2020-10-13T23:03:15:505
-0,052690	-0,040007	-0,048562	2020-10-13T23:03:15:526
0,030480	-0,010542	-0,012406	2020-10-13T23:03:15:545
-0,072101	0,026977	-0,081566	2020-10-13T23:03:15:568
0,026714	0,013306	-0,057910	2020-10-13T23:03:15:585
-0,011087	0,027224	-0,050716	2020-10-13T23:03:15:608
-0,025420	-0,129473	-0,065193	2020-10-13T23:03:15:625
-0,089465	-0,022934	-0,062201	2020-10-13T23:03:15:648
-0,030292	0,008511	0,016666	2020-10-13T23:03:15:665
-0,060455	0,079700	-0,009745	2020-10-13T23:03:15:687
-0,053167	-0,072735	-0,012632	2020-10-13T23:03:15:705
0,006313	-0,042693	-0,012316	2020-10-13T23:03:15:728
-0,078842	0,026032	-0,035778	2020-10-13T23:03:15:745
-0,049145	-0,005836	-0,033567	2020-10-13T23:03:15:767
-0,017763	-0,067386	-0,072111	2020-10-13T23:03:15:785
-0,027352	-0,004557	-0,035910	2020-10-13T23:03:15:808
0,014296	0,023410	-0,040801	2020-10-13T23:03:15:825
-0,004819	0,010304	-0,053075	2020-10-13T23:03:15:850
-0,031140	0,041411	-0,065039	2020-10-13T23:03:15:865
0,038860	0,021405	-0,014367	2020-10-13T23:03:15:888
0,034209	-0,041634	-0,067034	2020-10-13T23:03:15:905
-0,016242	0,011269	-0,040374	2020-10-13T23:03:15:927
0,025337	-0,001420	-0,014393	2020-10-13T23:03:15:945
0,067315	0,025143	0,023703	2020-10-13T23:03:15:969
0,008978	-0,065572	-0,050607	2020-10-13T23:03:15:985
0,026709	-0,001719	-0,016662	2020-10-13T23:03:16:007
0,015633	0,049415	-0,090950	2020-10-13T23:03:16:025
0,096139	0,002596	-0,100876	2020-10-13T23:03:16:048
0,040468	-0,001351	-0,028857	2020-10-13T23:03:16:065
-0,002683	-0,032618	-0,057518	2020-10-13T23:03:16:089
0,047578	0,008517	-0,086185	2020-10-13T23:03:16:105
-0,016974	0,014215	-0,024055	2020-10-13T23:03:16:128
-0,006803	0,031751	-0,096019	2020-10-13T23:03:16:145
-0,002158	0,001393	0,018675	2020-10-13T23:03:16:167
-0,017054	-0,036949	-0,017208	2020-10-13T23:03:16:185
-0,007055	0,012093	-0,100849	2020-10-13T23:03:16:208
0,036135	-0,007998	0,006729	2020-10-13T23:03:16:225
-0,051770	-0,089885	-0,036345	2020-10-13T23:03:16:247
-0,045227	-0,028527	-0,052749	2020-10-13T23:03:16:266
-0,046126	0,087425	-0,040717	2020-10-13T23:03:16:288
0,032412	-0,034619	-0,084326	2020-10-13T23:03:16:305
-0,010210	0,018767	-0,036784	2020-10-13T23:03:16:331
-0,041316	-0,019518	-0,079855	2020-10-13T23:03:16:345
0,050671	0,110912	-0,025497	2020-10-13T23:03:16:369
0,019086	0,105948	-0,014212	2020-10-13T23:03:16:386
0,060295	0,029060	-0,050576	2020-10-13T23:03:16:408
0,033042	0,089729	-0,038682	2020-10-13T23:03:16:426
0,088352	-0,012843	-0,022327	2020-10-13T23:03:16:449
0,040880	-0,012562	-0,031754	2020-10-13T23:03:16:466
0,036355	-0,014751	0,011395	2020-10-13T23:03:16:487
0,031944	0,041125	-0,002823	2020-10-13T23:03:16:506
-0,027689	0,027246	-0,069955	2020-10-13T23:03:16:529
0,032834	0,021535	-0,079638	2020-10-13T23:03:16:546
0,040578	0,022067	-0,041491	2020-10-13T23:03:16:570
0,071584	-0,013375	-0,008117	2020-10-13T23:03:16:586
-0,039588	0,038631	-0,048760	2020-10-13T23:03:16:608
-0,045184	0,014372	-0,025149	2020-10-13T23:03:16:626
-0,004940	0,036680	-0,051687	2020-10-13T23:03:16:648
0,011820	0,000451	-0,051959	2020-10-13T23:03:16:666
0,030224	0,011338	-0,052046	2020-10-13T23:03:16:689
0,019063	0,004412	-0,090498	2020-10-13T23:03:16:705
0,027537	-0,051861	-0,030769	2020-10-13T23:03:16:728
-0,019493	0,100070	-0,111964	2020-10-13T23:03:16:745
0,028931	0,058215	-0,026427	2020-10-13T23:03:16:769
0,043864	0,075812	0,018701	2020-10-13T23:03:16:787
0,000163	-0,051917	-0,012643	2020-10-13T23:03:16:809
0,042553	0,022334	-0,055452	2020-10-13T23:03:16:826
0,038352	0,040721	-0,041351	2020-10-13T23:03:16:849
-0,003979	-0,038916	-0,043995	2020-10-13T23:03:16:867
-0,047204	0,034630	-0,029462	2020-10-13T23:03:16:888
-0,026022	-0,002984	-0,067974	2020-10-13T23:03:16:906
-0,039513	0,059592	-0,017715	2020-10-13T23:03:16:929
-0,009749	0,012114	-0,027465	2020-10-13T23:03:16:947
0,045286	0,002543	0,017999	2020-10-13T23:03:16:968
-0,092669	-0,047296	-0,071924	2020-10-13T23:03:16:986
-0,083886	0,029150	-0,088591	2020-10-13T23:03:17:014
-0,118542	0,033201	-0,074427	2020-10-13T23:03:17:026
-0,017850	-0,038588	-0,065022	2020-10-13T23:03:17:051
-0,017681	0,000228	-0,026460	2020-10-13T23:03:17:068
-0,110606	0,093331	-0,028886	2020-10-13T23:03:17:099
-0,040894	0,002123	-0,075006	2020-10-13T23:03:17:155
-0,015226	0,023042	-0,036837	2020-10-13T23:03:17:156
-0,017158	0,007091	-0,039397	2020-10-13T23:03:17:157
-0,007374	-0,021813	-0,027458	2020-10-13T23:03:17:174
-0,067032	-0,014613	-0,051390	2020-10-13T23:03:17:291
-0,051961	-0,024943	-0,018062	2020-10-13T23:03:17:294
0,024559	0,011152	-0,027689	2020-10-13T23:03:17:295
-0,043817	-0,013314	-0,025304	2020-10-13T23:03:17:295
0,010742	0,044628	0,001005	2020-10-13T23:03:17:296
-0,035583	-0,053353	-0,023111	2020-10-13T23:03:17:296
-0,020357	-0,071649	-0,097006	2020-10-13T23:03:17:305
-0,031835	-0,005951	-0,027294	2020-10-13T23:03:17:329
0,024619	0,016679	-0,056177	2020-10-13T23:03:17:345
0,011206	0,020105	0,005950	2020-10-13T23:03:17:368
-0,002796	-0,001803	-0,028334	2020-10-13T23:03:17:387
-0,080380	0,070957	-0,059939	2020-10-13T23:03:17:410
0,018835	-0,037675	-0,081291	2020-10-13T23:03:17:427
-0,044112	-0,045088	-0,059606	2020-10-13T23:03:17:449
-0,024969	-0,076195	-0,119426	2020-10-13T23:03:17:468
-0,051475	0,078767	0,008402	2020-10-13T23:03:17:489
-0,015502	0,157386	-0,068789	2020-10-13T23:03:17:507
0,001333	-0,003490	-0,059101	2020-10-13T23:03:17:531
-0,022595	-0,130309	-0,102171	2020-10-13T23:03:17:546
-0,012471	0,081058	-0,007995	2020-10-13T23:03:17:570
0,009464	-0,011813	-0,022814	2020-10-13T23:03:17:587
0,006435	0,148716	-0,008414	2020-10-13T23:03:17:608
-0,020094	0,091826	-0,064372	2020-10-13T23:03:17:631
0,014065	0,025198	-0,021774	2020-10-13T23:03:17:650
-0,006125	0,038357	-0,000326	2020-10-13T23:03:17:667
-0,068713	0,101459	-0,036360	2020-10-13T23:03:17:688
-0,046456	0,038766	-0,075280	2020-10-13T23:03:17:707
-0,018637	0,004888	-0,041866	2020-10-13T23:03:17:729
-0,012155	0,027304	-0,059953	2020-10-13T23:03:17:747
-0,038476	0,065589	-0,036024	2020-10-13T23:03:17:771
-0,001380	0,013787	-0,033855	2020-10-13T23:03:17:787
-0,087689	-0,013334	-0,002821	2020-10-13T23:03:17:809
-0,011911	0,042080	-0,010089	2020-10-13T23:03:17:828
-0,033713	0,057639	-0,036517	2020-10-13T23:03:17:849
0,008687	-0,020463	0,004505	2020-10-13T23:03:17:868
0,044580	0,029786	-0,052923	2020-10-13T23:03:17:890
0,058285	0,010032	-0,063704	2020-10-13T23:03:17:907
-0,012450	-0,008072	-0,058711	2020-10-13T23:03:17:929
-0,009296	0,010571	-0,082988	2020-10-13T23:03:17:948
-0,033225	0,070391	-0,056666	2020-10-13T23:03:17:971
0,012381	-0,036936	-0,052085	2020-10-13T23:03:17:987
-0,012834	-0,068089	-0,035071	2020-10-13T23:03:18:011
0,023173	-0,018102	-0,015496	2020-10-13T23:03:18:028
-0,009855	0,023109	-0,003596	2020-10-13T23:03:18:050
-0,064118	0,029384	-0,068403	2020-10-13T23:03:18:068
-0,042583	0,067669	-0,037296	2020-10-13T23:03:18:092
-0,046762	-0,002729	-0,040243	2020-10-13T23:03:18:108
0,036423	0,026385	-0,052221	2020-10-13T23:03:18:130
-0,013604	0,035015	-0,071394	2020-10-13T23:03:18:148
-0,070322	-0,031258	-0,066793	2020-10-13T23:03:18:169
-0,069786	-0,035799	-0,028332	2020-10-13T23:03:18:188
0,007275	-0,023647	-0,095156	2020-10-13T23:03:18:210
-0,052872	-0,004110	-0,059216	2020-10-13T23:03:18:228
-0,007523	0,021989	-0,083989	2020-10-13T23:03:18:252
0,006834	-0,004332	-0,016991	2020-10-13T23:03:18:268
-0,084245	0,013670	-0,040059	2020-10-13T23:03:18:290
-0,030157	0,065164	-0,064226	2020-10-13T23:03:18:308
-0,022072	0,106957	-0,047891	2020-10-13T23:03:18:329
-0,013160	0,027695	-0,070833	2020-10-13T23:03:18:348
0,007541	0,006324	-0,018147	2020-10-13T23:03:18:371
-0,011602	0,070930	-0,068397	2020-10-13T23:03:18:387
0,007215	-0,050175	-0,065484	2020-10-13T23:03:18:409
-0,069768	-0,109892	-0,038908	2020-10-13T23:03:18:428
0,018921	-0,029426	-0,059913	2020-10-13T23:03:18:451
0,006014	-0,015951	-0,071699	2020-10-13T23:03:18:468
-0,006266	0,018953	-0,049479	2020-10-13T23:03:18:491
0,022448	-0,143759	-0,044694	2020-10-13T23:03:18:507
-0,060696	0,063033	-0,019085	2020-10-13T23:03:18:530
-0,020103	0,114003	-0,081555	2020-10-13T23:03:18:549
-0,059956	0,104029	-0,041482	2020-10-13T23:03:18:569
0,000424	0,103507	-0,066089	2020-10-13T23:03:18:588
0,000365	0,050129	-0,021234	2020-10-13T23:03:18:610
-0,016619	0,066528	-0,043064	2020-10-13T23:03:18:628
-0,021061	0,065480	-0,041060	2020-10-13T23:03:18:649
-0,005265	0,003627	-0,004997	2020-10-13T23:03:18:669
-0,002872	0,065840	-0,043283	2020-10-13T23:03:18:701
0,005814	-0,040277	-0,097685	2020-10-13T23:03:18:708
0,002398	-0,010938	-0,056916	2020-10-13T23:03:18:732
0,095718	0,008205	-0,080845	2020-10-13T23:03:18:748
-0,007282	-0,011266	-0,061490	2020-10-13T23:03:18:771
-0,045795	0,020842	-0,035060	2020-10-13T23:03:18:788
-0,079830	-0,051391	-0,068665	2020-10-13T23:03:18:809
-0,045613	-0,073630	0,015399	2020-10-13T23:03:18:828
-0,043696	-0,029530	-0,041742	2020-10-13T23:03:18:851
-0,013111	0,028839	-0,027349	2020-10-13T23:03:18:868
-0,005395	0,021742	-0,049135	2020-10-13T23:03:18:889
-0,001077	0,028092	-0,053989	2020-10-13T23:03:18:908
-0,037327	-0,002590	-0,075713	2020-10-13T23:03:18:931
-0,009772	0,012128	-0,040771	2020-10-13T23:03:18:949
0,014156	-0,078799	-0,086234	2020-10-13T23:03:18:972
-0,010894	0,015880	-0,035610	2020-10-13T23:03:18:988
0,008249	0,013487	-0,009289	2020-10-13T23:03:19:011
0,003565	-0,006083	-0,060397	2020-10-13T23:03:19:029
-0,006006	0,025023	-0,041254	2020-10-13T23:03:19:050
0,005489	-0,013973	-0,012406	2020-10-13T23:03:19:069
-0,016047	-0,030723	-0,019586	2020-10-13T23:03:19:091
-0,010038	0,016121	-0,047752	2020-10-13T23:03:19:108
0,109665	0,034153	-0,050264	2020-10-13T23:03:19:130
-0,010307	0,017297	-0,057159	2020-10-13T23:03:19:149
0,061477	0,014905	-0,033232	2020-10-13T23:03:19:171
0,003369	-0,012390	-0,024129	2020-10-13T23:03:19:189
-0,031315	-0,046138	-0,050280	2020-10-13T23:03:19:212
-0,004994	-0,082031	-0,062244	2020-10-13T23:03:19:228
-0,013484	0,043902	-0,084655	2020-10-13T23:03:19:251
-0,009922	0,015837	-0,037292	2020-10-13T23:03:19:269
0,095362	0,006266	-0,042078	2020-10-13T23:03:19:290
-0,009191	0,015319	-0,004025	2020-10-13T23:03:19:309
-0,069012	-0,013395	-0,056667	2020-10-13T23:03:19:331
-0,023060	0,075449	-0,061443	2020-10-13T23:03:19:349
0,017932	0,027029	0,005233	2020-10-13T23:03:19:370
-0,019267	0,071187	-0,069049	2020-10-13T23:03:19:389
0,043632	0,019789	-0,067051	2020-10-13T23:03:19:411
-0,004879	-0,007722	-0,033341	2020-10-13T23:03:19:429
0,023267	-0,086788	-0,042653	2020-10-13T23:03:19:452
-0,006830	0,003817	-0,066753	2020-10-13T23:03:19:469
-0,081008	-0,048825	-0,054789	2020-10-13T23:03:19:491
0,084894	-0,066463	-0,063576	2020-10-13T23:03:19:509
0,085169	0,051025	-0,000732	2020-10-13T23:03:19:530
0,042988	-0,019827	-0,060855	2020-10-13T23:03:19:549
0,002654	0,038749	0,013493	2020-10-13T23:03:19:572
0,014364	-0,076534	-0,075080	2020-10-13T23:03:19:589
0,066407	0,004852	-0,074566	2020-10-13T23:03:19:610
-0,013101	0,006018	-0,060262	2020-10-13T23:03:19:630
0,049080	-0,048636	-0,081756	2020-10-13T23:03:19:651
0,093948	-0,070633	-0,066873	2020-10-13T23:03:19:669
0,062104	0,015104	-0,001413	2020-10-13T23:03:19:692
0,005999	-0,019614	-0,034839	2020-10-13T23:03:19:709
0,090325	-0,139472	-0,089125	2020-10-13T23:03:19:732
0,030504	-0,103580	-0,053231	2020-10-13T23:03:19:749
0,001283	-0,069790	-0,020147	2020-10-13T23:03:19:771
-0,020930	-0,012476	-0,053136	2020-10-13T23:03:19:789
0,008656	0,061433	-0,002938	2020-10-13T23:03:19:812
0,027331	-0,023886	-0,022487	2020-10-13T23:03:19:829
0,059308	-0,010297	-0,034239	2020-10-13T23:03:19:851
0,048756	0,000278	-0,019685	2020-10-13T23:03:19:869
-0,046581	0,088641	-0,072542	2020-10-13T23:03:19:892
-0,007034	0,008204	-0,068886	2020-10-13T23:03:19:909
0,033748	-0,019926	-0,087904	2020-10-13T23:03:19:934
-0,016502	-0,046247	-0,023298	2020-10-13T23:03:19:949
0,040223	0,090626	-0,047025	2020-10-13T23:03:19:972
0,037855	0,128828	-0,050185	2020-10-13T23:03:19:989
0,028436	0,060965	-0,007966	2020-10-13T23:03:20:011
-0,010056	0,014171	-0,048557	2020-10-13T23:03:20:030
0,049764	-0,043256	-0,077271	2020-10-13T23:03:20:052
-0,008504	0,018490	0,017491	2020-10-13T23:03:20:070
-0,063539	0,059168	-0,051900	2020-10-13T23:03:20:091
-0,022968	-0,008278	-0,054414	2020-10-13T23:03:20:109
0,099684	-0,090559	-0,056672	2020-10-13T23:03:20:132
0,032269	-0,008094	-0,029615	2020-10-13T23:03:20:149
0,033039	-0,001656	-0,008117	2020-10-13T23:03:20:173
0,001972	-0,005418	-0,043466	2020-10-13T23:03:20:189
0,049829	-0,050882	-0,014752	2020-10-13T23:03:20:212
-0,095989	-0,011141	-0,022002	2020-10-13T23:03:20:230
-0,089041	-0,009036	-0,005445	2020-10-13T23:03:20:251
-0,017815	0,088256	0,030209	2020-10-13T23:03:20:269
-0,084178	0,049818	-0,044520	2020-10-13T23:03:20:292
-0,016237	-0,022726	-0,051897	2020-10-13T23:03:20:309
0,039250	0,019475	-0,075678	2020-10-13T23:03:20:331
-0,029877	0,048766	-0,047084	2020-10-13T23:03:20:350
-0,064869	0,132201	-0,064155	2020-10-13T23:03:20:373
-0,086276	0,049572	-0,000280	2020-10-13T23:03:20:389
-0,005085	0,002800	0,019147	2020-10-13T23:03:20:414
0,009272	-0,071378	-0,047852	2020-10-13T23:03:20:430
0,025247	-0,005238	-0,041980	2020-10-13T23:03:20:452
0,054230	0,070317	0,006086	2020-10-13T23:03:20:470
0,009936	0,053405	0,025048	2020-10-13T23:03:20:491
-0,062625	0,065129	-0,075716	2020-10-13T23:03:20:510
0,072352	0,053107	-0,069158	2020-10-13T23:03:20:533
-0,009806	0,012848	-0,014508	2020-10-13T23:03:20:550
0,001678	0,006359	-0,045527	2020-10-13T23:03:20:572
0,003762	0,025213	-0,076656	2020-10-13T23:03:20:590
0,060453	0,094190	-0,043181	2020-10-13T23:03:20:613
0,051951	0,059963	-0,007521	2020-10-13T23:03:20:630
0,032585	0,027450	-0,043748	2020-10-13T23:03:20:653
-0,026495	0,118154	-0,051160	2020-10-13T23:03:20:671
-0,011237	0,023220	-0,049789	2020-10-13T23:03:20:693
0,031682	0,087023	-0,083557	2020-10-13T23:03:20:710
0,038861	-0,008690	-0,035701	2020-10-13T23:03:20:732
-0,003730	0,002431	-0,062472	2020-10-13T23:03:20:750
0,027377	-0,102853	-0,045723	2020-10-13T23:03:20:773
-0,010794	0,025936	-0,052441	2020-10-13T23:03:20:790
0,065776	0,052257	-0,033298	2020-10-13T23:03:20:811
-0,044358	-0,044111	-0,096099	2020-10-13T23:03:20:830
-0,033011	0,017893	0,021311	2020-10-13T23:03:20:853
-0,084382	-0,023806	-0,081730	2020-10-13T23:03:20:871
-0,054514	-0,031301	-0,040961	2020-10-13T23:03:20:893
-0,002524	-0,000137	-0,010451	2020-10-13T23:03:20:910
-0,081487	-0,088671	-0,106165	2020-10-13T23:03:20:933
0,074118	0,061152	-0,038065	2020-10-13T23:03:20:950
0,029041	-0,001038	-0,014290	2020-10-13T23:03:20:972
-0,002593	-0,001667	-0,012667	2020-10-13T23:03:20:991
0,023728	0,036618	-0,029417	2020-10-13T23:03:21:013
0,013447	-0,054215	-0,017790	2020-10-13T23:03:21:030
-0,006484	-0,037996	-0,036723	2020-10-13T23:03:21:052
0,043910	-0,036782	-0,062927	2020-10-13T23:03:21:071
-0,004181	-0,142519	-0,067444	2020-10-13T23:03:21:093
0,009958	-0,018365	-0,057170	2020-10-13T23:03:21:111
-0,023683	-0,054496	-0,023690	2020-10-13T23:03:21:133
-0,012578	0,044329	-0,066732	2020-10-13T23:03:21:150
0,004188	-0,056961	0,004972	2020-10-13T23:03:21:174
-0,023027	-0,101953	-0,056684	2020-10-13T23:03:21:190
0,011365	-0,007854	-0,008285	2020-10-13T23:03:21:213
-0,011328	0,034265	-0,070663	2020-10-13T23:03:21:231
-0,028078	0,017515	-0,070663	2020-10-13T23:03:21:254
-0,011727	0,029114	-0,057733	2020-10-13T23:03:21:271
-0,059584	0,072184	0,016445	2020-10-13T23:03:21:292
-0,062021	0,006487	-0,065195	2020-10-13T23:03:21:311
0,031803	-0,032472	-0,082099	2020-10-13T23:03:21:334
-0,018235	-0,010965	-0,019575	2020-10-13T23:03:21:350
-0,101525	0,025578	-0,048233	2020-10-13T23:03:21:374
-0,006025	-0,111692	-0,072386	2020-10-13T23:03:21:390
0,039324	-0,067753	-0,090929	2020-10-13T23:03:21:413
0,029916	-0,042150	-0,073685	2020-10-13T23:03:21:432
0,042534	-0,032650	-0,030316	2020-10-13T23:03:21:452
0,018767	-0,041275	-0,027759	2020-10-13T23:03:21:471
-0,054149	-0,020479	-0,063441	2020-10-13T23:03:21:493
0,001703	0,002853	-0,003078	2020-10-13T23:03:21:511
0,090237	0,038745	0,013670	2020-10-13T23:03:21:532
-0,073784	-0,003660	-0,052726	2020-10-13T23:03:21:551
-0,031743	-0,020025	-0,064773	2020-10-13T23:03:21:575
-0,034807	0,023707	-0,014509	2020-10-13T23:03:21:590
0,003009	0,002534	-0,068463	2020-10-13T23:03:21:615
0,000045	-0,083101	-0,063092	2020-10-13T23:03:21:631
-0,023883	-0,016102	-0,077449	2020-10-13T23:03:21:653
0,098784	0,020294	-0,072915	2020-10-13T23:03:21:671
0,018907	0,004416	-0,041580	2020-10-13T23:03:21:692
-0,013381	-0,016688	-0,053469	2020-10-13T23:03:21:711
-0,006437	0,012711	-0,001502	2020-10-13T23:03:21:733
-0,017950	0,112212	-0,026126	2020-10-13T23:03:21:751
-0,068199	0,030856	-0,042876	2020-10-13T23:03:21:773
-0,037278	0,034210	-0,112580	2020-10-13T23:03:21:790
-0,055153	0,031062	-0,076811	2020-10-13T23:03:21:813
0,014240	0,015159	-0,072271	2020-10-13T23:03:21:831
-0,032258	0,030815	-0,000582	2020-10-13T23:03:21:854
-0,010017	0,022493	-0,071448	2020-10-13T23:03:21:872
0,028269	0,048814	-0,025985	2020-10-13T23:03:21:893
-0,007954	0,014800	-0,057017	2020-10-13T23:03:21:911
-0,039061	0,043514	-0,021125	2020-10-13T23:03:21:933
0,037497	0,021948	-0,000374	2020-10-13T23:03:21:950
-0,065169	-0,053607	-0,057882	2020-10-13T23:03:21:975
-0,055334	-0,036875	-0,064890	2020-10-13T23:03:21:991
0,013718	-0,027808	-0,007323	2020-10-13T23:03:22:013
-0,097237	-0,022433	-0,023985	2020-10-13T23:03:22:031
-0,026034	-0,059999	-0,083852	2020-10-13T23:03:22:053
0,056043	0,000308	-0,021356	2020-10-13T23:03:22:072
0,031486	-0,045971	-0,033318	2020-10-13T23:03:22:095
0,003467	-0,028059	-0,037930	2020-10-13T23:03:22:111
0,024769	-0,071139	-0,057068	2020-10-13T23:03:22:134
-0,003174	-0,043986	-0,071035	2020-10-13T23:03:22:151
-0,003621	-0,022776	-0,030124	2020-10-13T23:03:22:173
-0,010979	-0,034428	-0,094691	2020-10-13T23:03:22:202
-0,011823	0,030570	-0,066514	2020-10-13T23:03:22:215
-0,028573	0,040141	-0,059336	2020-10-13T23:03:22:231
0,079723	-0,010218	-0,046826	2020-10-13T23:03:22:253
0,015702	-0,002698	-0,049076	2020-10-13T23:03:22:272
0,062368	-0,084053	-0,082543	2020-10-13T23:03:22:294
-0,010955	0,019034	-0,049593	2020-10-13T23:03:22:313
-0,054026	-0,026430	-0,018486	2020-10-13T23:03:22:337
0,009157	0,025802	-0,057525	2020-10-13T23:03:22:352
0,099296	0,077133	-0,045686	2020-10-13T23:03:22:375
0,022113	0,017855	-0,019701	2020-10-13T23:03:22:392
-0,008856	0,018278	-0,056872	2020-10-13T23:03:22:414
0,129927	-0,003257	-0,042516	2020-10-13T23:03:22:432
-0,046737	-0,060524	-0,057396	2020-10-13T23:03:22:455
-0,010577	0,013035	-0,065827	2020-10-13T23:03:22:472
-0,096719	0,060892	-0,017971	2020-10-13T23:03:22:493
-0,003600	0,001730	-0,045153	2020-10-13T23:03:22:512
0,056220	-0,055697	-0,021225	2020-10-13T23:03:22:535
-0,014766	0,003889	-0,049409	2020-10-13T23:03:22:552
-0,038469	0,031554	-0,027997	2020-10-13T23:03:22:575
0,002918	-0,012867	-0,038537	2020-10-13T23:03:22:592
-0,071260	-0,077473	-0,095964	2020-10-13T23:03:22:614
0,074554	-0,023617	-0,062099	2020-10-13T23:03:22:632
0,100068	0,023511	-0,050143	2020-10-13T23:03:22:653
0,052476	0,064851	-0,079211	2020-10-13T23:03:22:672
0,008833	0,019724	-0,043742	2020-10-13T23:03:22:695
0,005713	0,109486	-0,053426	2020-10-13T23:03:22:712
0,067067	0,057013	-0,051521	2020-10-13T23:03:22:733
-0,029963	0,065844	0,000866	2020-10-13T23:03:22:752
0,040644	0,042735	-0,001993	2020-10-13T23:03:22:775
0,098145	0,023739	-0,028502	2020-10-13T23:03:22:792
-0,007522	0,002929	-0,012831	2020-10-13T23:03:22:816
0,021856	0,025738	-0,067928	2020-10-13T23:03:22:832
-0,069071	-0,002976	-0,051179	2020-10-13T23:03:22:855
0,070444	-0,032703	-0,004386	2020-10-13T23:03:22:873
0,066795	-0,043156	-0,037628	2020-10-13T23:03:22:894
0,063467	0,039411	-0,013483	2020-10-13T23:03:22:912
-0,018713	-0,014061	-0,032886	2020-10-13T23:03:22:935
-0,009626	0,016355	-0,026294	2020-10-13T23:03:22:953
0,086087	0,047462	-0,086114	2020-10-13T23:03:22:974
-0,043467	0,016854	-0,052040	2020-10-13T23:03:22:992
0,015860	0,072786	-0,045085	2020-10-13T23:03:23:015
-0,009038	0,005677	-0,004507	2020-10-13T23:03:23:033
-0,059089	0,105687	-0,005178	2020-10-13T23:03:23:057
-0,092588	0,108080	-0,069785	2020-10-13T23:03:23:073
-0,021007	-0,015567	-0,097190	2020-10-13T23:03:23:094
-0,009161	0,009193	-0,060739	2020-10-13T23:03:23:113
-0,083339	0,018764	-0,051167	2020-10-13T23:03:23:134
0,005452	-0,014655	-0,034000	2020-10-13T23:03:23:152
0,034166	-0,021833	-0,029215	2020-10-13T23:03:23:176
-0,010575	0,021246	-0,086432	2020-10-13T23:03:23:193
-0,015360	0,040389	-0,031398	2020-10-13T23:03:23:214
-0,003373	0,044563	-0,050187	2020-10-13T23:03:23:232
0,018049	-0,011196	-0,050522	2020-10-13T23:03:23:255
0,000274	-0,066501	-0,084022	2020-10-13T23:03:23:273
-0,009975	0,086192	-0,035677	2020-10-13T23:03:23:296
0,016349	-0,017626	-0,007322	2020-10-13T23:03:23:312
-0,001520	0,069502	-0,078970	2020-10-13T23:03:23:335
-0,021213	0,047657	-0,031390	2020-10-13T23:03:23:353
0,017577	0,007470	-0,055538	2020-10-13T23:03:23:375
-0,007748	-0,023528	-0,055488	2020-10-13T23:03:23:392
0,045146	0,043549	-0,002844	2020-10-13T23:03:23:416
-0,000296	-0,007697	-0,041428	2020-10-13T23:03:23:433
-0,062604	-0,042000	-0,012796	2020-10-13T23:03:23:454
0,009538	-0,012500	-0,015182	2020-10-13T23:03:23:473
-0,012441	0,014701	0,013381	2020-10-13T23:03:23:495
0,016934	0,064346	-0,030029	2020-10-13T23:03:23:512
0,054795	-0,017926	-0,044983	2020-10-13T23:03:23:536
-0,007830	0,010083	0,010416	2020-10-13T23:03:23:553
-0,077222	0,069904	-0,073333	2020-10-13T23:03:23:576
0,079635	0,030101	-0,022010	2020-10-13T23:03:23:593
0,080120	0,027421	-0,029127	2020-10-13T23:03:23:615
0,075993	-0,050192	-0,017182	2020-10-13T23:03:23:633
0,088415	-0,020392	-0,081328	2020-10-13T23:03:23:656
0,076349	-0,047206	-0,064269	2020-10-13T23:03:23:673
0,105667	-0,008056	-0,068616	2020-10-13T23:03:23:694
0,097472	-0,030014	-0,068271	2020-10-13T23:03:23:713
0,037041	-0,005550	-0,034331	2020-10-13T23:03:23:735
0,044114	-0,028962	-0,024644	2020-10-13T23:03:23:758
-0,009870	0,024641	-0,042811	2020-10-13T23:03:23:778
0,042401	-0,029971	-0,075934	2020-10-13T23:03:23:793
0,059151	-0,041935	-0,052006	2020-10-13T23:03:23:816
-0,025318	0,007553	-0,009156	2020-10-13T23:03:23:833
0,026485	0,110889	-0,021391	2020-10-13T23:03:23:855
0,003683	0,157740	0,001644	2020-10-13T23:03:23:873
-0,013354	0,128841	-0,032948	2020-10-13T23:03:23:896
-0,053682	-0,037723	-0,024089	2020-10-13T23:03:23:913
0,020306	0,053289	-0,071735	2020-10-13T23:03:23:935
-0,017333	0,030048	-0,081444	2020-10-13T23:03:23:953
-0,047874	0,040445	-0,021816	2020-10-13T23:03:23:976
-0,006370	0,010362	-0,055254	2020-10-13T23:03:23:993
0,025472	0,050018	-0,081888	2020-10-13T23:03:24:018
0,092471	-0,026552	-0,105817	2020-10-13T23:03:24:033
-0,029760	0,020233	-0,065525	2020-10-13T23:03:24:056
-0,059944	0,012170	-0,005832	2020-10-13T23:03:24:074
-0,005329	0,015001	-0,056708	2020-10-13T23:03:24:095
0,089974	-0,003399	0,012915	2020-10-13T23:03:24:113
-0,042185	0,044315	-0,004169	2020-10-13T23:03:24:137
-0,074604	0,008028	-0,066525	2020-10-13T23:03:24:156
-0,005516	-0,023857	-0,073516	2020-10-13T23:03:24:175
-0,012284	0,056422	-0,045198	2020-10-13T23:03:24:193
-0,021856	0,092314	-0,090662	2020-10-13T23:03:24:216
0,016517	0,010205	-0,114280	2020-10-13T23:03:24:232
-0,013381	-0,016406	0,005363	2020-10-13T23:03:24:255
0,075221	-0,065529	-0,083057	2020-10-13T23:03:24:273
-0,041240	-0,011963	-0,070648	2020-10-13T23:03:24:295
0,003562	-0,003181	-0,030097	2020-10-13T23:03:24:312
0,094166	-0,042106	-0,034940	2020-10-13T23:03:24:336
0,072606	-0,082764	-0,044134	2020-10-13T23:03:24:353
-0,008155	-0,051216	-0,036303	2020-10-13T23:03:24:376
0,032170	0,051779	-0,026464	2020-10-13T23:03:24:393
-0,009390	-0,051484	-0,038936	2020-10-13T23:03:24:415
0,020214	0,014429	-0,043612	2020-10-13T23:03:24:434
-0,017087	-0,025497	-0,041101	2020-10-13T23:03:24:456
-0,003476	0,004625	-0,059609	2020-10-13T23:03:24:474
-0,017833	-0,052803	-0,018931	2020-10-13T23:03:24:497
0,042738	-0,024850	-0,056767	2020-10-13T23:03:24:513
0,076150	0,032430	0,000963	2020-10-13T23:03:24:536
-0,040274	0,040765	-0,025393	2020-10-13T23:03:24:553
-0,006993	0,001531	-0,037769	2020-10-13T23:03:24:576
0,002330	-0,006621	-0,079688	2020-10-13T23:03:24:594
-0,000063	-0,073620	-0,015081	2020-10-13T23:03:24:617
0,038088	-0,001606	-0,042862	2020-10-13T23:03:24:634
0,017105	0,015125	-0,057170	2020-10-13T23:03:24:655
-0,022403	0,076549	-0,038082	2020-10-13T23:03:24:675
0,004683	-0,017414	-0,080458	2020-10-13T23:03:24:697
0,121932	-0,000665	-0,056529	2020-10-13T23:03:24:713
-0,087987	0,051026	0,024283	2020-10-13T23:03:24:737
-0,028594	-0,044643	-0,045510	2020-10-13T23:03:24:754
-0,122813	-0,014532	0,012012	2020-10-13T23:03:24:776
-0,031021	0,034142	-0,079021	2020-10-13T23:03:24:794
-0,031867	-0,045850	-0,028934	2020-10-13T23:03:24:816
-0,008377	0,022960	-0,052972	2020-10-13T23:03:24:834
-0,084947	0,111494	-0,031436	2020-10-13T23:03:24:857
0,070707	-0,012238	-0,052279	2020-10-13T23:03:24:874
-0,014059	-0,083384	-0,011456	2020-10-13T23:03:24:896
0,036798	-0,084239	-0,094824	2020-10-13T23:03:24:913
0,039179	-0,038132	-0,096611	2020-10-13T23:03:24:937
0,041546	-0,063712	-0,012486	2020-10-13T23:03:24:953
-0,010391	0,026722	-0,029693	2020-10-13T23:03:24:979
-0,070211	0,036293	0,027735	2020-10-13T23:03:24:993
0,019650	0,102864	-0,028925	2020-10-13T23:03:25:017
-0,004267	0,010424	-0,057737	2020-10-13T23:03:25:035
0,048375	0,019995	0,037975	2020-10-13T23:03:25:056
-0,012127	0,030989	-0,072193	2020-10-13T23:03:25:075
-0,079126	-0,040796	-0,048265	2020-10-13T23:03:25:097
0,013281	0,031386	-0,064563	2020-10-13T23:03:25:114
0,019532	0,013302	-0,098189	2020-10-13T23:03:25:136
0,128137	0,027990	0,007168	2020-10-13T23:03:25:155
-0,009717	0,024570	-0,086122	2020-10-13T23:03:25:178
-0,014503	-0,018500	-0,076550	2020-10-13T23:03:25:194
0,000089	0,008829	-0,068122	2020-10-13T23:03:25:219
0,049682	0,054385	-0,022847	2020-10-13T23:03:25:234
0,011397	0,142919	-0,037204	2020-10-13T23:03:25:257
-0,020634	-0,054408	-0,071251	2020-10-13T23:03:25:276
0,000689	-0,044606	-0,046795	2020-10-13T23:03:25:296
-0,040790	-0,119398	-0,055906	2020-10-13T23:03:25:314
-0,018054	-0,109696	-0,059958	2020-10-13T23:03:25:337
-0,039265	-0,068144	-0,040225	2020-10-13T23:03:25:354
0,028886	-0,069343	-0,054233	2020-10-13T23:03:25:376
0,067314	-0,093508	-0,008219	2020-10-13T23:03:25:394
0,025591	-0,065643	-0,048376	2020-10-13T23:03:25:417
-0,030799	-0,041977	-0,019394	2020-10-13T23:03:25:435
-0,060812	-0,063906	-0,047924	2020-10-13T23:03:25:457
-0,046203	-0,037324	-0,057285	2020-10-13T23:03:25:474
-0,034750	-0,024467	-0,078778	2020-10-13T23:03:25:497
0,021542	-0,014615	-0,042892	2020-10-13T23:03:25:515
0,013125	-0,067328	-0,057221	2020-10-13T23:03:25:536
0,052745	0,007402	0,019699	2020-10-13T23:03:25:554
-0,009614	-0,059104	0,033924	2020-10-13T23:03:25:578
0,014694	-0,065167	-0,102358	2020-10-13T23:03:25:594
0,023198	-0,060454	-0,054218	2020-10-13T23:03:25:616
-0,012008	0,009500	-0,087346	2020-10-13T23:03:25:634
0,014263	0,013989	-0,025164	2020-10-13T23:03:25:657
-0,008588	0,015021	-0,016025	2020-10-13T23:03:25:676
0,050493	-0,001118	-0,042192	2020-10-13T23:03:25:699
-0,026078	-0,017868	-0,075692	2020-10-13T23:03:25:715
0,014990	0,075542	-0,015836	2020-10-13T23:03:25:737
0,112225	0,061622	-0,011536	2020-10-13T23:03:25:755
0,041658	0,103935	-0,035684	2020-10-13T23:03:25:777
0,087127	0,033740	-0,007556	2020-10-13T23:03:25:794
-0,006600	0,007063	-0,045920	2020-10-13T23:03:25:818
-0,029252	0,128543	-0,087547	2020-10-13T23:03:25:835
-0,060358	0,001724	-0,073190	2020-10-13T23:03:25:856
0,050866	0,099663	-0,042841	2020-10-13T23:03:25:875
0,004859	0,113595	-0,069705	2020-10-13T23:03:25:898
-0,008364	0,009968	-0,002518	2020-10-13T23:03:25:915
0,022743	0,057825	-0,047981	2020-10-13T23:03:25:938
-0,013296	0,030903	-0,049460	2020-10-13T23:03:25:955
0,003454	0,006975	-0,059031	2020-10-13T23:03:25:978
-0,052243	0,162506	-0,111491	2020-10-13T23:03:25:995
-0,074044	-0,022895	-0,059904	2020-10-13T23:03:26:016
-0,006270	0,047098	-0,000118	2020-10-13T23:03:26:034
-0,075577	0,067932	0,004300	2020-10-13T23:03:26:058
0,007402	0,055693	-0,005997	2020-10-13T23:03:26:075
-0,046008	0,097961	-0,020701	2020-10-13T23:03:26:097
-0,017792	0,076230	0,021728	2020-10-13T23:03:26:115
0,021092	0,028875	0,006855	2020-10-13T23:03:26:138
0,000301	0,109098	-0,043469	2020-10-13T23:03:26:154
-0,040761	0,007775	-0,027353	2020-10-13T23:03:26:179
-0,068249	0,012855	-0,072824	2020-10-13T23:03:26:195
0,005890	0,013232	-0,017822	2020-10-13T23:03:26:217
-0,056811	0,061647	0,015483	2020-10-13T23:03:26:235
-0,099259	0,054225	0,002846	2020-10-13T23:03:26:257
-0,031964	0,045317	-0,004966	2020-10-13T23:03:26:276
0,005759	0,072202	-0,010289	2020-10-13T23:03:26:298
-0,068519	0,093578	-0,018023	2020-10-13T23:03:26:315
-0,050661	0,038025	0,000413	2020-10-13T23:03:26:337
-0,072523	-0,004927	-0,035799	2020-10-13T23:03:26:355
-0,016859	-0,014892	-0,093365	2020-10-13T23:03:26:378
0,067512	0,106422	-0,057571	2020-10-13T23:03:26:395
-0,098993	0,107260	0,059087	2020-10-13T23:03:26:418
-0,032075	-0,084879	0,010475	2020-10-13T23:03:26:436
0,028800	0,048341	-0,072862	2020-10-13T23:03:26:458
-0,018319	0,064225	-0,073173	2020-10-13T23:03:26:476
-0,005727	-0,031066	-0,056924	2020-10-13T23:03:26:497
0,013328	-0,008301	-0,037642	2020-10-13T23:03:26:516
0,016920	-0,033638	-0,003998	2020-10-13T23:03:26:538
-0,051194	-0,008104	-0,051643	2020-10-13T23:03:26:555
-0,044327	0,068081	-0,049356	2020-10-13T23:03:26:577
-0,025744	0,083541	-0,052213	2020-10-13T23:03:26:596
-0,008029	0,019595	-0,040731	2020-10-13T23:03:26:618
-0,068187	0,072167	-0,016801	2020-10-13T23:03:26:636
-0,046395	-0,016492	-0,041085	2020-10-13T23:03:26:658
-0,022426	0,019321	-0,019631	2020-10-13T23:03:26:676
0,010000	-0,011304	-0,019879	2020-10-13T23:03:26:698
-0,028638	-0,033201	-0,058193	2020-10-13T23:03:26:716
-0,019975	-0,039968	-0,065371	2020-10-13T23:03:26:737
0,016643	0,018914	-0,060448	2020-10-13T23:03:26:756
-0,020322	-0,011467	-0,072563	2020-10-13T23:03:26:779
-0,026830	0,007722	0,008779	2020-10-13T23:03:26:796
-0,020999	-0,064965	-0,032028	2020-10-13T23:03:26:817
0,034683	-0,009449	-0,053269	2020-10-13T23:03:26:836
-0,024218	0,070676	-0,012682	2020-10-13T23:03:26:859
-0,039966	0,033201	0,005997	2020-10-13T23:03:26:876
0,017481	-0,039316	-0,063806	2020-10-13T23:03:26:899
-0,028400	0,056550	-0,075741	2020-10-13T23:03:26:916
-0,012262	0,037665	-0,069105	2020-10-13T23:03:26:939
-0,010104	0,013708	-0,007641	2020-10-13T23:03:26:957
0,040168	-0,089206	-0,035810	2020-10-13T23:03:26:978
0,019589	-0,107835	-0,006518	2020-10-13T23:03:26:997
0,069839	-0,028872	-0,066339	2020-10-13T23:03:27:018
-0,002019	-0,089298	-0,079677	2020-10-13T23:03:27:036
-0,033679	-0,012623	-0,016926	2020-10-13T23:03:27:057
-0,082715	-0,043615	0,006975	2020-10-13T23:03:27:076
-0,020715	-0,000784	-0,057808	2020-10-13T23:03:27:099
-0,043135	0,082911	-0,053331	2020-10-13T23:03:27:116
-0,058109	-0,062731	-0,017971	2020-10-13T23:03:27:139
0,016344	-0,075179	-0,044176	2020-10-13T23:03:27:156
-0,018112	-0,074403	-0,070130	2020-10-13T23:03:27:179
-0,034164	0,023905	-0,002878	2020-10-13T23:03:27:196
-0,044708	0,019732	-0,015077	2020-10-13T23:03:27:217
-0,008684	0,008246	-0,034485	2020-10-13T23:03:27:237
-0,032612	0,003460	-0,075163	2020-10-13T23:03:27:259
