v1	v2	v3	v4	ts
988,338989	209,490051	28,309999	988,277344	2020-10-13T23:02:42:211
988,333801	209,534958	28,309999	988,287109	2020-10-13T23:02:42:451
988,328796	209,577240	28,309999	988,283691	2020-10-13T23:02:42:692
988,322021	209,635376	28,309999	988,260986	2020-10-13T23:02:42:933
988,319397	209,656509	28,309999	988,295654	2020-10-13T23:02:43:181
988,319275	209,659149	28,299999	988,318115	2020-10-13T23:02:43:416
988,316467	209,682938	28,309999	988,291260	2020-10-13T23:02:43:656
988,314453	209,698776	28,299999	988,296387	2020-10-13T23:02:43:897
988,312256	209,717285	28,309999	988,292480	2020-10-13T23:02:44:138
988,307922	209,754272	28,309999	988,269043	2020-10-13T23:02:44:379
988,306091	209,770126	28,309999	988,289795	2020-10-13T23:02:44:618
988,305603	209,775406	28,299999	988,301025	2020-10-13T23:02:44:858
988,303040	209,796555	28,309999	988,279785	2020-10-13T23:02:45:100
988,302490	209,801834	28,299999	988,297607	2020-10-13T23:02:45:341
988,302551	209,799194	28,299999	988,302734	2020-10-13T23:02:45:580
988,299500	209,825607	28,309999	988,271729	2020-10-13T23:02:45:821
988,297424	209,844116	28,309999	988,278809	2020-10-13T23:02:46:059
988,298157	209,838821	28,299999	988,304932	2020-10-13T23:02:46:300
988,297791	209,841461	28,309999	988,294678	2020-10-13T23:02:46:540
988,295776	209,857315	28,309999	988,277588	2020-10-13T23:02:46:781
988,296387	209,852036	28,299999	988,301758	2020-10-13T23:02:47:020
988,293579	209,875809	28,299999	988,268311	2020-10-13T23:02:47:261
988,292847	209,883743	28,309999	988,286377	2020-10-13T23:02:47:501
988,294495	209,867889	28,299999	988,308838	2020-10-13T23:02:47:743
988,295593	209,859955	28,309999	988,305664	2020-10-13T23:02:47:983
988,297607	209,841461	28,309999	988,315674	2020-10-13T23:02:48:223
988,299011	209,830902	28,299999	988,311768	2020-10-13T23:02:48:464
988,299133	209,830902	28,309999	988,299805	2020-10-13T23:02:48:704
988,301392	209,809753	28,309999	988,321777	2020-10-13T23:02:48:944
988,303406	209,793900	28,309999	988,321045	2020-10-13T23:02:49:184
988,302002	209,804474	28,309999	988,289551	2020-10-13T23:02:49:424
988,299622	209,825607	28,309999	988,277832	2020-10-13T23:02:49:664
988,297302	209,844116	28,309999	988,276367	2020-10-13T23:02:49:904
988,295410	209,862610	28,299999	988,278320	2020-10-13T23:02:50:146
988,296997	209,846756	28,299999	988,311279	2020-10-13T23:02:50:387
988,294861	209,865250	28,309999	988,275391	2020-10-13T23:02:50:625
988,292542	209,886383	28,309999	988,271729	2020-10-13T23:02:50:865
988,291260	209,896957	28,309999	988,280029	2020-10-13T23:02:51:106
988,291199	209,896957	28,299999	988,290771	2020-10-13T23:02:51:347
988,289124	209,915451	28,309999	988,270752	2020-10-13T23:02:51:587
988,287598	209,928665	28,299999	988,273438	2020-10-13T23:02:51:827
988,287903	209,926025	28,309999	988,290527	2020-10-13T23:02:52:069
988,289001	209,915451	28,320000	988,298828	2020-10-13T23:02:52:307
988,289856	209,907516	28,309999	988,297363	2020-10-13T23:02:52:548
988,289978	209,907516	28,320000	988,291016	2020-10-13T23:02:52:788
988,290771	209,902237	28,309999	988,298096	2020-10-13T23:02:53:039
988,293640	209,875809	28,309999	988,319580	2020-10-13T23:02:53:268
988,294556	209,867889	28,309999	988,302979	2020-10-13T23:02:53:508
988,295654	209,859955	28,309999	988,305420	2020-10-13T23:02:53:749
988,294189	209,870529	28,309999	988,281250	2020-10-13T23:02:53:988
988,293457	209,878464	28,309999	988,286865	2020-10-13T23:02:54:229
988,296265	209,854675	28,309999	988,321289	2020-10-13T23:02:54:467
988,297119	209,846756	28,309999	988,304932	2020-10-13T23:02:54:707
988,297302	209,844116	28,309999	988,298584	2020-10-13T23:02:54:948
988,292908	209,883743	28,309999	988,253662	2020-10-13T23:02:55:190
988,286682	209,936584	28,309999	988,230225	2020-10-13T23:02:55:429
988,284058	209,957733	28,309999	988,260498	2020-10-13T23:02:55:669
988,283142	209,965652	28,309999	988,275146	2020-10-13T23:02:56:128
988,280518	209,986786	28,309999	988,256348	2020-10-13T23:02:56:149
988,280334	209,989441	28,309999	988,278320	2020-10-13T23:02:56:396
988,279358	209,997360	28,309999	988,270508	2020-10-13T23:02:56:633
988,281250	209,981506	28,320000	988,297852	2020-10-13T23:02:56:871
988,284058	209,957733	28,309999	988,309326	2020-10-13T23:02:57:111
988,284851	209,952438	28,309999	988,291748	2020-10-13T23:02:57:351
988,285156	209,949799	28,309999	988,287842	2020-10-13T23:02:57:591
988,282288	209,973587	28,309999	988,256348	2020-10-13T23:02:57:832
988,281067	209,984146	28,320000	988,270020	2020-10-13T23:02:58:072
988,279175	210,000000	28,309999	988,261963	2020-10-13T23:02:58:312
988,279663	209,994720	28,309999	988,283936	2020-10-13T23:02:58:554
988,278320	210,007935	28,309999	988,266357	2020-10-13T23:02:58:793
988,277832	210,010574	28,309999	988,273438	2020-10-13T23:02:59:033
988,277710	210,010574	28,309999	988,276611	2020-10-13T23:02:59:273
988,275879	210,026428	28,309999	988,259766	2020-10-13T23:02:59:513
988,275330	210,031708	28,309999	988,270752	2020-10-13T23:02:59:755
988,276489	210,021149	28,309999	988,287109	2020-10-13T23:02:59:995
988,277466	210,013214	28,320000	988,286621	2020-10-13T23:03:00:233
988,278748	210,002640	28,309999	988,290283	2020-10-13T23:03:00:475
988,278137	210,007935	28,309999	988,272461	2020-10-13T23:03:00:715
988,275879	210,026428	28,320000	988,255371	2020-10-13T23:03:00:955
988,273193	210,050201	28,309999	988,249512	2020-10-13T23:03:01:194
988,269348	210,081909	28,309999	988,234619	2020-10-13T23:03:01:435
988,269287	210,081909	28,309999	988,268555	2020-10-13T23:03:01:679
988,269714	210,079269	28,309999	988,273682	2020-10-13T23:03:01:916
988,272278	210,058136	28,320000	988,295166	2020-10-13T23:03:02:156
988,266174	210,110977	28,309999	988,211182	2020-10-13T23:03:02:395
988,265686	210,113617	28,320000	988,261475	2020-10-13T23:03:02:636
988,268066	210,092484	28,320000	988,289795	2020-10-13T23:03:02:876
988,267822	210,095123	28,320000	988,265869	2020-10-13T23:03:03:116
988,266296	210,108337	28,320000	988,252441	2020-10-13T23:03:03:357
988,268433	210,089844	28,330000	988,287598	2020-10-13T23:03:03:596
988,270630	210,071350	28,320000	988,290039	2020-10-13T23:03:03:837
988,271301	210,066055	28,320000	988,277100	2020-10-13T23:03:04:093
988,270081	210,076630	28,309999	988,259277	2020-10-13T23:03:04:318
988,269165	210,084549	28,320000	988,260742	2020-10-13T23:03:04:559
988,266541	210,105698	28,320000	988,243408	2020-10-13T23:03:04:798
988,265442	210,116257	28,320000	988,255371	2020-10-13T23:03:05:038
988,266663	210,105698	28,320000	988,277344	2020-10-13T23:03:05:279
988,266113	210,110977	28,320000	988,260986	2020-10-13T23:03:05:521
988,264709	210,121552	28,320000	988,252197	2020-10-13T23:03:05:760
988,262573	210,140045	28,320000	988,243164	2020-10-13T23:03:05:999
988,263489	210,132111	28,320000	988,271729	2020-10-13T23:03:06:240
988,264221	210,126831	28,309999	988,270752	2020-10-13T23:03:06:480
988,261536	210,150620	28,320000	988,237061	2020-10-13T23:03:06:720
988,260559	210,158539	28,309999	988,251709	2020-10-13T23:03:06:961
988,258911	210,171753	28,320000	988,243652	2020-10-13T23:03:07:201
988,255005	210,203461	28,309999	988,219971	2020-10-13T23:03:07:440
988,256042	210,195526	28,309999	988,264893	2020-10-13T23:03:07:681
988,258972	210,171753	28,320000	988,285400	2020-10-13T23:03:07:921
988,257568	210,182327	28,320000	988,245117	2020-10-13T23:03:08:163
988,254028	210,214020	28,320000	988,222656	2020-10-13T23:03:08:403
988,254883	210,206100	28,320000	988,262451	2020-10-13T23:03:08:641
988,253357	210,219315	28,320000	988,239502	2020-10-13T23:03:08:883
988,252502	210,224594	28,320000	988,244873	2020-10-13T23:03:09:123
988,253357	210,219315	28,320000	988,260986	2020-10-13T23:03:09:363
988,255737	210,198181	28,309999	988,277588	2020-10-13T23:03:09:603
988,257446	210,184967	28,309999	988,272949	2020-10-13T23:03:09:843
988,259705	210,163818	28,320000	988,279785	2020-10-13T23:03:10:095
988,263306	210,134766	28,320000	988,295654	2020-10-13T23:03:10:324
988,266541	210,105698	28,309999	988,295410	2020-10-13T23:03:10:565
988,268127	210,092484	28,309999	988,281982	2020-10-13T23:03:10:803
988,267334	210,100403	28,320000	988,260010	2020-10-13T23:03:11:045
988,271606	210,063416	28,320000	988,310547	2020-10-13T23:03:11:285
988,274597	210,036987	28,309999	988,301758	2020-10-13T23:03:11:525
988,279480	209,997360	28,320000	988,323242	2020-10-13T23:03:11:766
988,282593	209,970932	28,309999	988,310547	2020-10-13T23:03:12:006
988,288025	209,923370	28,320000	988,337402	2020-10-13T23:03:12:246
988,289185	209,915451	28,309999	988,299316	2020-10-13T23:03:12:486
988,288879	209,918091	28,320000	988,285645	2020-10-13T23:03:12:725
988,284912	209,949799	28,309999	988,249023	2020-10-13T23:03:12:967
988,283508	209,963013	28,320000	988,270508	2020-10-13T23:03:13:207
988,283875	209,960373	28,309999	988,286865	2020-10-13T23:03:13:447
988,283081	209,965652	28,320000	988,276123	2020-10-13T23:03:13:687
988,282288	209,973587	28,309999	988,274658	2020-10-13T23:03:13:927
988,284851	209,952438	28,309999	988,307617	2020-10-13T23:03:14:168
988,285522	209,944519	28,320000	988,291260	2020-10-13T23:03:14:408
988,285645	209,944519	28,309999	988,286377	2020-10-13T23:03:14:647
988,285217	209,947159	28,309999	988,281738	2020-10-13T23:03:14:888
988,286743	209,933945	28,309999	988,300537	2020-10-13T23:03:15:128
988,285828	209,941879	28,320000	988,277344	2020-10-13T23:03:15:369
988,288330	209,920731	28,309999	988,311035	2020-10-13T23:03:15:609
988,291016	209,899597	28,309999	988,314941	2020-10-13T23:03:15:850
988,293152	209,881104	28,309999	988,312256	2020-10-13T23:03:16:089
988,295593	209,859955	28,309999	988,317627	2020-10-13T23:03:16:329
988,297424	209,844116	28,320000	988,313721	2020-10-13T23:03:16:571
988,296143	209,854675	28,309999	988,284424	2020-10-13T23:03:16:810
988,295593	209,859955	28,320000	988,290771	2020-10-13T23:03:17:052
988,295105	209,865250	28,309999	988,291016	2020-10-13T23:03:17:296
988,293945	209,873169	28,309999	988,283447	2020-10-13T23:03:17:532
988,294983	209,865250	28,309999	988,304199	2020-10-13T23:03:17:772
988,294556	209,867889	28,309999	988,290527	2020-10-13T23:03:18:012
988,293701	209,875809	28,309999	988,285889	2020-10-13T23:03:18:252
988,290710	209,902237	28,309999	988,264160	2020-10-13T23:03:18:492
988,289001	209,915451	28,309999	988,273438	2020-10-13T23:03:18:731
988,291382	209,894318	28,299999	988,312744	2020-10-13T23:03:18:972
988,292297	209,886383	28,309999	988,300293	2020-10-13T23:03:19:213
988,291199	209,896957	28,309999	988,281006	2020-10-13T23:03:19:452
988,293701	209,875809	28,299999	988,316650	2020-10-13T23:03:19:693
988,294861	209,865250	28,309999	988,305664	2020-10-13T23:03:19:934
988,297546	209,844116	28,309999	988,321777	2020-10-13T23:03:20:174
988,301697	209,807114	28,309999	988,338867	2020-10-13T23:03:20:413
988,299805	209,822968	28,309999	988,282959	2020-10-13T23:03:20:654
988,300659	209,817688	28,299999	988,308594	2020-10-13T23:03:20:894
988,302307	209,801834	28,309999	988,317139	2020-10-13T23:03:21:134
988,302185	209,804474	28,299999	988,301270	2020-10-13T23:03:21:375
988,304993	209,780701	28,309999	988,330566	2020-10-13T23:03:21:615
988,306396	209,767487	28,299999	988,319092	2020-10-13T23:03:21:855
988,306458	209,767487	28,309999	988,307129	2020-10-13T23:03:22:096
988,304993	209,780701	28,299999	988,292236	2020-10-13T23:03:22:338
988,304138	209,785980	28,299999	988,296387	2020-10-13T23:03:22:576
988,306091	209,770126	28,299999	988,323730	2020-10-13T23:03:22:816
988,307739	209,756912	28,309999	988,322754	2020-10-13T23:03:23:057
988,307617	209,756912	28,299999	988,306396	2020-10-13T23:03:23:296
988,307007	209,762192	28,299999	988,302002	2020-10-13T23:03:23:537
988,309448	209,741058	28,309999	988,331543	2020-10-13T23:03:23:777
988,306580	209,767487	28,289999	988,281006	2020-10-13T23:03:24:018
988,305847	209,772766	28,309999	988,299561	2020-10-13T23:03:24:255
988,305298	209,778046	28,299999	988,300781	2020-10-13T23:03:24:497
988,306274	209,770126	28,299999	988,314941	2020-10-13T23:03:24:737
988,308777	209,746338	28,299999	988,331055	2020-10-13T23:03:24:979
988,311096	209,727844	28,299999	988,331787	2020-10-13T23:03:25:219
988,311523	209,725204	28,299999	988,315430	2020-10-13T23:03:25:460
988,312988	209,711990	28,299999	988,326172	2020-10-13T23:03:25:699
988,312805	209,714630	28,299999	988,311035	2020-10-13T23:03:25:939
988,312195	209,719925	28,289999	988,306885	2020-10-13T23:03:26:179
988,314331	209,701431	28,289999	988,333496	2020-10-13T23:03:26:419
988,317932	209,669724	28,299999	988,350586	2020-10-13T23:03:26:659
988,319031	209,661789	28,289999	988,328369	2020-10-13T23:03:26:899
988,318970	209,661789	28,299999	988,318359	2020-10-13T23:03:27:140
988,318176	209,667084	28,289999	988,311035	2020-10-13T23:03:27:380
988,318726	209,664429	28,299999	988,323486	2020-10-13T23:03:27:620
988,320679	209,645935	28,299999	988,338379	2020-10-13T23:03:27:861
988,322021	209,635376	28,299999	988,334229	2020-10-13T23:03:28:103
988,320984	209,643295	28,299999	988,311768	2020-10-13T23:03:28:341
988,318054	209,669724	28,299999	988,291260	2020-10-13T23:03:28:582
988,316956	209,677643	28,289999	988,307373	2020-10-13T23:03:28:822
988,317017	209,677643	28,289999	988,317871	2020-10-13T23:03:29:062
988,318848	209,661789	28,289999	988,335449	2020-10-13T23:03:29:303
988,317078	209,677643	28,289999	988,301270	2020-10-13T23:03:29:545
988,319946	209,653870	28,289999	988,345459	2020-10-13T23:03:29:783
988,320740	209,645935	28,289999	988,328125	2020-10-13T23:03:30:022
988,322144	209,635376	28,289999	988,334961	2020-10-13T23:03:30:264
988,319397	209,656509	28,289999	988,294434	2020-10-13T23:03:30:503
988,318176	209,667084	28,289999	988,307129	2020-10-13T23:03:30:744
988,318237	209,667084	28,289999	988,318604	2020-10-13T23:03:30:984
988,316833	209,680283	28,299999	988,304443	2020-10-13T23:03:31:224
988,316528	209,682938	28,279999	988,313965	2020-10-13T23:03:31:465
988,316040	209,685577	28,289999	988,311768	2020-10-13T23:03:31:704
988,317322	209,675003	28,279999	988,328369	2020-10-13T23:03:31:945
988,315735	209,688217	28,289999	988,301270	2020-10-13T23:03:32:185
988,312683	209,714630	28,279999	988,285156	2020-10-13T23:03:32:425
988,311523	209,725204	28,279999	988,301025	2020-10-13T23:03:32:665
988,311035	209,727844	28,279999	988,306885	2020-10-13T23:03:32:905
988,310974	209,727844	28,279999	988,310059	2020-10-13T23:03:33:146
988,310364	209,733139	28,289999	988,304932	2020-10-13T23:03:33:386
988,309326	209,743698	28,279999	988,299805	2020-10-13T23:03:33:628
988,304871	209,780701	28,279999	988,264404	2020-10-13T23:03:33:867
988,302002	209,804474	28,279999	988,276123	2020-10-13T23:03:34:108
988,303406	209,793900	28,279999	988,315674	2020-10-13T23:03:34:348
988,305054	209,780701	28,279999	988,320312	2020-10-13T23:03:34:587
988,308899	209,746338	28,279999	988,343018	2020-10-13T23:03:34:828
988,309143	209,743698	28,279999	988,311768	2020-10-13T23:03:35:068
988,307068	209,762192	28,279999	988,288086	2020-10-13T23:03:35:307
988,306519	209,767487	28,279999	988,301514	2020-10-13T23:03:35:549
988,304077	209,788620	28,279999	988,282227	2020-10-13T23:03:35:789
988,303589	209,791260	28,279999	988,299072	2020-10-13T23:03:36:029
988,299927	209,822968	28,279999	988,266846	2020-10-13T23:03:36:269
988,295959	209,857315	28,279999	988,260254	2020-10-13T23:03:36:509
988,293091	209,881104	28,269999	988,266846	2020-10-13T23:03:36:749
988,293579	209,875809	28,279999	988,297852	2020-10-13T23:03:36:990
988,293701	209,875809	28,279999	988,295166	2020-10-13T23:03:37:229
988,294434	209,870529	28,269999	988,301270	2020-10-13T23:03:37:470
988,298157	209,838821	28,279999	988,331787	2020-10-13T23:03:37:711
988,301453	209,809753	28,279999	988,331055	2020-10-13T23:03:37:950
988,301453	209,809753	28,279999	988,301025	2020-10-13T23:03:38:191
988,299927	209,822968	28,279999	988,285645	2020-10-13T23:03:38:431
988,299805	209,822968	28,279999	988,298828	2020-10-13T23:03:38:673
988,300842	209,815048	28,279999	988,310303	2020-10-13T23:03:38:912
988,304199	209,785980	28,279999	988,333984	2020-10-13T23:03:39:152
988,303101	209,796555	28,279999	988,293213	2020-10-13T23:03:39:392
988,305176	209,778046	28,279999	988,323975	2020-10-13T23:03:39:632
988,301941	209,807114	28,279999	988,272949	2020-10-13T23:03:39:873
988,298950	209,830902	28,279999	988,271973	2020-10-13T23:03:40:113
988,296387	209,852036	28,279999	988,272949	2020-10-13T23:03:40:353
988,295532	209,859955	28,279999	988,287842	2020-10-13T23:03:40:593
988,293213	209,881104	28,279999	988,272705	2020-10-13T23:03:40:833
988,291016	209,899597	28,279999	988,271240	2020-10-13T23:03:41:075
988,294067	209,873169	28,279999	988,321289	2020-10-13T23:03:41:315
988,297852	209,841461	28,269999	988,331787	2020-10-13T23:03:41:554
988,301941	209,807114	28,279999	988,339111	2020-10-13T23:03:41:795
988,304749	209,780701	28,279999	988,329834	2020-10-13T23:03:42:035
988,306091	209,770126	28,279999	988,318115	2020-10-13T23:03:42:275
988,304565	209,783340	28,279999	988,290527	2020-10-13T23:03:42:514
988,304321	209,785980	28,279999	988,302246	2020-10-13T23:03:42:755
988,303711	209,791260	28,269999	988,297852	2020-10-13T23:03:42:995
988,303833	209,788620	28,269999	988,304688	2020-10-13T23:03:43:236
988,304565	209,783340	28,269999	988,311035	2020-10-13T23:03:43:477
988,307312	209,759552	28,279999	988,332520	2020-10-13T23:03:43:716
988,309448	209,741058	28,279999	988,328613	2020-10-13T23:03:43:956
988,309448	209,741058	28,279999	988,309570	2020-10-13T23:03:44:197
988,310913	209,730484	28,269999	988,324219	2020-10-13T23:03:44:437
988,312927	209,711990	28,269999	988,331055	2020-10-13T23:03:44:677
988,311035	209,727844	28,269999	988,293945	2020-10-13T23:03:44:917
988,308655	209,748993	28,269999	988,286865	2020-10-13T23:03:45:159
988,303955	209,788620	28,269999	988,261475	2020-10-13T23:03:45:398
988,300171	209,820328	28,269999	988,266602	2020-10-13T23:03:45:639
988,298584	209,833542	28,269999	988,284180	2020-10-13T23:03:45:879
988,300842	209,815048	28,269999	988,321533	2020-10-13T23:03:46:120
988,301941	209,807114	28,269999	988,311523	2020-10-13T23:03:46:359
988,301086	209,812408	28,269999	988,293213	2020-10-13T23:03:46:599
988,301819	209,807114	28,269999	988,308350	2020-10-13T23:03:46:839
988,298706	209,833542	28,260000	988,270752	2020-10-13T23:03:47:080
988,297241	209,846756	28,269999	988,284180	2020-10-13T23:03:47:320
988,295776	209,857315	28,260000	988,282959	2020-10-13T23:03:47:560
988,294556	209,867889	28,269999	988,283447	2020-10-13T23:03:47:800
988,295288	209,862610	28,269999	988,301514	2020-10-13T23:03:48:040
988,294250	209,870529	28,269999	988,284912	2020-10-13T23:03:48:280
988,292542	209,886383	28,269999	988,277588	2020-10-13T23:03:48:521
988,290894	209,899597	28,260000	988,275879	2020-10-13T23:03:48:761
988,287964	209,923370	28,260000	988,261230	2020-10-13T23:03:49:002
988,287659	209,926025	28,269999	988,284668	2020-10-13T23:03:49:242
988,286072	209,939224	28,260000	988,271729	2020-10-13T23:03:49:482
988,286560	209,936584	28,269999	988,291016	2020-10-13T23:03:49:722
988,286377	209,939224	28,260000	988,284424	2020-10-13T23:03:49:965
988,287292	209,931305	28,269999	988,295898	2020-10-13T23:03:50:204
988,288818	209,918091	28,260000	988,302490	2020-10-13T23:03:50:443
988,284729	209,952438	28,260000	988,247803	2020-10-13T23:03:50:683
988,280762	209,986786	28,260000	988,244873	2020-10-13T23:03:50:924
988,275879	210,026428	28,260000	988,232178	2020-10-13T23:03:51:164
988,272705	210,055496	28,260000	988,244629	2020-10-13T23:03:51:404
988,270508	210,073990	28,260000	988,250244	2020-10-13T23:03:51:645
988,265625	210,113617	28,260000	988,221680	2020-10-13T23:03:51:884
988,261963	210,145325	28,260000	988,229004	2020-10-13T23:03:52:126
988,262268	210,142685	28,260000	988,265137	2020-10-13T23:03:52:365
988,262756	210,137405	28,250000	988,266846	2020-10-13T23:03:52:605
988,259705	210,163818	28,260000	988,232178	2020-10-13T23:03:52:845
988,260193	210,161179	28,260000	988,264648	2020-10-13T23:03:53:086
988,258789	210,171753	28,260000	988,246094	2020-10-13T23:03:53:325
988,258484	210,174393	28,260000	988,256104	2020-10-13T23:03:53:566
988,261414	210,150620	28,260000	988,287842	2020-10-13T23:03:53:807
988,263855	210,129471	28,260000	988,285889	2020-10-13T23:03:54:046
988,263977	210,129471	28,260000	988,265381	2020-10-13T23:03:54:287
988,267883	210,095123	28,260000	988,303223	2020-10-13T23:03:54:527
988,268738	210,087204	28,250000	988,276123	2020-10-13T23:03:54:767
988,269531	210,081909	28,250000	988,276855	2020-10-13T23:03:55:007
988,268372	210,089844	28,250000	988,257568	2020-10-13T23:03:55:247
988,269287	210,081909	28,250000	988,277344	2020-10-13T23:03:55:487
988,268799	210,087204	28,250000	988,264404	2020-10-13T23:03:55:728
988,268555	210,089844	28,250000	988,266602	2020-10-13T23:03:55:969
988,269714	210,079269	28,250000	988,280518	2020-10-13T23:03:56:209
988,267090	210,103058	28,250000	988,242920	2020-10-13T23:03:56:448
988,265747	210,113617	28,250000	988,253418	2020-10-13T23:03:56:690
988,265442	210,116257	28,250000	988,262695	2020-10-13T23:03:56:929
988,266602	210,105698	28,260000	988,276855	2020-10-13T23:03:57:169
988,269409	210,081909	28,250000	988,294189	2020-10-13T23:03:57:411
988,270081	210,076630	28,250000	988,276367	2020-10-13T23:03:57:650
988,268372	210,089844	28,250000	988,252930	2020-10-13T23:03:57:889
988,265991	210,110977	28,250000	988,244141	2020-10-13T23:03:58:131
988,264954	210,118912	28,250000	988,255371	2020-10-13T23:03:58:371
988,265442	210,116257	28,250000	988,270020	2020-10-13T23:03:58:613
988,265869	210,113617	28,250000	988,269531	2020-10-13T23:03:58:851
988,267761	210,097763	28,250000	988,284424	2020-10-13T23:03:59:091
988,265503	210,116257	28,240000	988,244873	2020-10-13T23:03:59:332
988,263672	210,132111	28,250000	988,247314	2020-10-13T23:03:59:572
988,266663	210,105698	28,250000	988,293945	2020-10-13T23:03:59:813
988,270325	210,073990	28,240000	988,302979	2020-10-13T23:04:00:052
988,272827	210,052841	28,250000	988,294922	2020-10-13T23:04:00:292
988,274841	210,036987	28,240000	988,292969	2020-10-13T23:04:00:533
988,276672	210,021149	28,250000	988,293213	2020-10-13T23:04:00:773
988,278503	210,005295	28,250000	988,295166	2020-10-13T23:04:01:014
988,274841	210,036987	28,240000	988,242188	2020-10-13T23:04:01:253
988,274780	210,036987	28,250000	988,274414	2020-10-13T23:04:01:494
988,275146	210,034348	28,250000	988,278320	2020-10-13T23:04:01:735
988,277039	210,018494	28,240000	988,293945	2020-10-13T23:04:01:974
988,273376	210,047562	28,240000	988,239990	2020-10-13T23:04:02:215
988,276550	210,021149	28,240000	988,304688	2020-10-13T23:04:02:454
988,275574	210,029068	28,240000	988,266846	2020-10-13T23:04:02:695
988,273926	210,044922	28,240000	988,259033	2020-10-13T23:04:02:935
988,272339	210,058136	28,240000	988,257812	2020-10-13T23:04:03:176
988,272949	210,052841	28,240000	988,278320	2020-10-13T23:04:03:416
988,275513	210,029068	28,240000	988,298584	2020-10-13T23:04:03:655
988,276611	210,021149	28,240000	988,286621	2020-10-13T23:04:03:895
988,278259	210,007935	28,240000	988,293213	2020-10-13T23:04:04:136
988,281006	209,984146	28,250000	988,305176	2020-10-13T23:04:04:376
988,278809	210,002640	28,240000	988,258789	2020-10-13T23:04:04:618
988,276733	210,021149	28,240000	988,257568	2020-10-13T23:04:04:857
988,277405	210,013214	28,240000	988,283447	2020-10-13T23:04:05:097
988,280212	209,989441	28,240000	988,305664	2020-10-13T23:04:05:338
988,280396	209,989441	28,240000	988,282227	2020-10-13T23:04:05:578
988,281311	209,981506	28,240000	988,289795	2020-10-13T23:04:05:819
988,281311	209,981506	28,240000	988,281250	2020-10-13T23:04:06:059
988,282593	209,970932	28,240000	988,293701	2020-10-13T23:04:06:298
988,285767	209,941879	28,240000	988,314697	2020-10-13T23:04:06:538
988,288025	209,923370	28,240000	988,308594	2020-10-13T23:04:06:779
988,288635	209,918091	28,240000	988,293945	2020-10-13T23:04:07:020
988,287476	209,928665	28,250000	988,276611	2020-10-13T23:04:07:259
988,283936	209,957733	28,240000	988,252441	2020-10-13T23:04:07:499
988,282288	209,973587	28,240000	988,267578	2020-10-13T23:04:07:739
988,283020	209,965652	28,240000	988,289307	2020-10-13T23:04:07:980
988,283813	209,960373	28,240000	988,290771	2020-10-13T23:04:08:221
988,284119	209,957733	28,240000	988,287109	2020-10-13T23:04:08:461
988,286255	209,939224	28,240000	988,305176	2020-10-13T23:04:08:701
988,287537	209,928665	28,240000	988,299072	2020-10-13T23:04:08:941
988,288452	209,920731	28,240000	988,297119	2020-10-13T23:04:09:181
988,286743	209,933945	28,250000	988,271240	2020-10-13T23:04:09:422
988,281738	209,976227	28,250000	988,236572	2020-10-13T23:04:09:661
988,279907	209,992081	28,250000	988,263428	2020-10-13T23:04:09:901
988,281433	209,978867	28,250000	988,294922	2020-10-13T23:04:10:142
988,282715	209,968292	28,240000	988,294434	2020-10-13T23:04:10:384
988,284363	209,955078	28,250000	988,299316	2020-10-13T23:04:10:624
988,285095	209,949799	28,240000	988,291504	2020-10-13T23:04:10:863
988,285034	209,949799	28,240000	988,284912	2020-10-13T23:04:11:104
988,285034	209,949799	28,240000	988,285156	2020-10-13T23:04:11:343
988,284790	209,952438	28,250000	988,282959	2020-10-13T23:04:11:583
988,285278	209,947159	28,240000	988,289551	2020-10-13T23:04:11:824
988,283936	209,957733	28,250000	988,271729	2020-10-13T23:04:12:064
988,282837	209,968292	28,240000	988,273193	2020-10-13T23:04:12:304
988,282593	209,970932	28,240000	988,280273	2020-10-13T23:04:12:544
988,281555	209,978867	28,240000	988,272217	2020-10-13T23:04:12:784
988,278992	210,000000	28,240000	988,255859	2020-10-13T23:04:13:025
988,277954	210,010574	28,240000	988,268799	2020-10-13T23:04:13:265
988,278381	210,005295	28,240000	988,281982	2020-10-13T23:04:13:505
988,279419	209,997360	28,240000	988,289062	2020-10-13T23:04:13:746
988,279053	210,000000	28,240000	988,275391	2020-10-13T23:04:13:987
988,274902	210,034348	28,240000	988,237793	2020-10-13T23:04:14:226
988,271973	210,060776	28,240000	988,245361	2020-10-13T23:04:14:468
988,268982	210,084549	28,240000	988,241699	2020-10-13T23:04:14:707
988,266724	210,105698	28,240000	988,246094	2020-10-13T23:04:14:951
988,267517	210,097763	28,250000	988,274658	2020-10-13T23:04:15:187
988,268188	210,092484	28,240000	988,274170	2020-10-13T23:04:15:426
988,270508	210,073990	28,240000	988,291260	2020-10-13T23:04:15:668
988,269409	210,081909	28,240000	988,259521	2020-10-13T23:04:15:908
988,267883	210,095123	28,240000	988,254150	2020-10-13T23:04:16:148
988,266235	210,108337	28,240000	988,251221	2020-10-13T23:04:16:388
988,262512	210,140045	28,240000	988,229248	2020-10-13T23:04:16:629
988,263733	210,129471	28,240000	988,274658	2020-10-13T23:04:16:869
988,264465	210,124191	28,230000	988,271484	2020-10-13T23:04:17:109
988,262451	210,140045	28,240000	988,244385	2020-10-13T23:04:17:349
988,256470	210,192886	28,250000	988,203125	2020-10-13T23:04:17:589
988,256836	210,187607	28,240000	988,260010	2020-10-13T23:04:17:830
988,256409	210,192886	28,240000	988,252441	2020-10-13T23:04:18:070
988,256042	210,195526	28,240000	988,252686	2020-10-13T23:04:18:310
988,258728	210,171753	28,240000	988,282959	2020-10-13T23:04:18:549
988,258301	210,177032	28,240000	988,254395	2020-10-13T23:04:18:790
988,257629	210,182327	28,240000	988,251465	2020-10-13T23:04:19:032
988,257996	210,179672	28,240000	988,261719	2020-10-13T23:04:19:271
988,258362	210,177032	28,240000	988,261230	2020-10-13T23:04:19:511
988,259216	210,169113	28,240000	988,266846	2020-10-13T23:04:19:751
988,257019	210,187607	28,230000	988,236816	2020-10-13T23:04:19:992
988,254272	210,211380	28,240000	988,229736	2020-10-13T23:04:20:233
988,254272	210,211380	28,240000	988,253906	2020-10-13T23:04:20:472
988,253296	210,219315	28,240000	988,244629	2020-10-13T23:04:20:713
988,253418	210,219315	28,240000	988,254639	2020-10-13T23:04:20:953
988,255798	210,198181	28,230000	988,277588	2020-10-13T23:04:21:193
988,260986	210,153259	28,240000	988,307861	2020-10-13T23:04:21:435
988,264587	210,124191	28,240000	988,296631	2020-10-13T23:04:21:673
988,262390	210,142685	28,230000	988,242676	2020-10-13T23:04:21:913
988,259705	210,163818	28,240000	988,235107	2020-10-13T23:04:22:155
988,258972	210,171753	28,230000	988,252441	2020-10-13T23:04:22:394
988,254944	210,206100	28,240000	988,218750	2020-10-13T23:04:22:635
988,255005	210,203461	28,230000	988,255127	2020-10-13T23:04:22:875
988,254456	210,208740	28,230000	988,249268	2020-10-13T23:04:23:115
988,256348	210,192886	28,230000	988,273193	2020-10-13T23:04:23:355
988,257996	210,179672	28,240000	988,272949	2020-10-13T23:04:23:606
988,257996	210,179672	28,230000	988,257812	2020-10-13T23:04:23:836
988,259338	210,166473	28,230000	988,270996	2020-10-13T23:04:24:076
988,262756	210,137405	28,230000	988,293213	2020-10-13T23:04:24:315
988,263916	210,129471	28,240000	988,274414	2020-10-13T23:04:24:556
988,268372	210,089844	28,240000	988,308350	2020-10-13T23:04:24:797
988,272034	210,060776	28,240000	988,304932	2020-10-13T23:04:25:036
988,275391	210,031708	28,230000	988,305420	2020-10-13T23:04:25:277
988,276306	210,023788	28,230000	988,284668	2020-10-13T23:04:25:517
988,277893	210,010574	28,230000	988,292236	2020-10-13T23:04:25:757
988,278809	210,002640	28,230000	988,287109	2020-10-13T23:04:25:997
988,277954	210,010574	28,230000	988,269775	2020-10-13T23:04:26:239
988,275269	210,031708	28,230000	988,251221	2020-10-13T23:04:26:478
988,274719	210,036987	28,230000	988,270264	2020-10-13T23:04:26:719
988,274414	210,039642	28,230000	988,271973	2020-10-13T23:04:26:959
988,273865	210,044922	28,240000	988,268555	2020-10-13T23:04:27:199
988,274109	210,042282	28,240000	988,276123	2020-10-13T23:04:27:439
988,274780	210,036987	28,230000	988,281006	2020-10-13T23:04:27:680
988,274353	210,039642	28,230000	988,270508	2020-10-13T23:04:27:919
988,276367	210,023788	28,230000	988,294678	2020-10-13T23:04:28:160
988,275391	210,031708	28,240000	988,266357	2020-10-13T23:04:28:400
988,275330	210,031708	28,230000	988,274902	2020-10-13T23:04:28:641
988,276978	210,018494	28,230000	988,292236	2020-10-13T23:04:28:880
988,275024	210,034348	28,230000	988,257080	2020-10-13T23:04:29:120
988,270386	210,073990	28,240000	988,228760	2020-10-13T23:04:29:361
988,269470	210,081909	28,240000	988,261230	2020-10-13T23:04:29:601
988,270874	210,068695	28,240000	988,283203	2020-10-13T23:04:29:842
988,272766	210,052841	28,240000	988,289551	2020-10-13T23:04:30:084
988,275330	210,031708	28,230000	988,297852	2020-10-13T23:04:30:322
988,276794	210,018494	28,240000	988,290039	2020-10-13T23:04:30:563
988,278259	210,007935	28,230000	988,291260	2020-10-13T23:04:30:803
988,280029	209,992081	28,230000	988,295654	2020-10-13T23:04:31:043
988,279358	209,997360	28,230000	988,273193	2020-10-13T23:04:31:282
988,278076	210,007935	28,230000	988,266357	2020-10-13T23:04:31:523
988,278320	210,007935	28,240000	988,280518	2020-10-13T23:04:31:763
988,279480	209,997360	28,230000	988,290283	2020-10-13T23:04:32:003
988,279785	209,994720	28,230000	988,281982	2020-10-13T23:04:32:244
988,283997	209,957733	28,230000	988,322021	2020-10-13T23:04:32:485
988,283569	209,963013	28,230000	988,280029	2020-10-13T23:04:32:724
988,283997	209,957733	28,230000	988,287842	2020-10-13T23:04:32:964
988,284607	209,952438	28,230000	988,290039	2020-10-13T23:04:33:204
988,284729	209,952438	28,230000	988,286133	2020-10-13T23:04:33:446
988,283264	209,965652	28,230000	988,270020	2020-10-13T23:04:33:685
988,285339	209,947159	28,240000	988,304443	2020-10-13T23:04:33:925
988,286987	209,933945	28,230000	988,301514	2020-10-13T23:04:34:166
988,283936	209,957733	28,240000	988,256592	2020-10-13T23:04:34:406
988,285645	209,944519	28,230000	988,301025	2020-10-13T23:04:34:646
988,286377	209,939224	28,230000	988,293457	2020-10-13T23:04:34:886
988,282104	209,973587	28,230000	988,243652	2020-10-13T23:04:35:127
988,281250	209,981506	28,230000	988,273682	2020-10-13T23:04:35:367
988,278564	210,005295	28,240000	988,254150	2020-10-13T23:04:35:607
988,279175	210,000000	28,240000	988,284424	2020-10-13T23:04:35:848
988,278015	210,010574	28,230000	988,267334	2020-10-13T23:04:36:087
988,277527	210,013214	28,230000	988,273193	2020-10-13T23:04:36:329
988,276978	210,018494	28,230000	988,271973	2020-10-13T23:04:36:568
988,278931	210,002640	28,230000	988,296387	2020-10-13T23:04:36:809
988,281311	209,981506	28,230000	988,303223	2020-10-13T23:04:37:049
988,283264	209,965652	28,230000	988,300537	2020-10-13T23:04:37:289
988,285339	209,947159	28,230000	988,304199	2020-10-13T23:04:37:530
988,286011	209,941879	28,240000	988,291992	2020-10-13T23:04:37:769
988,286865	209,933945	28,230000	988,294678	2020-10-13T23:04:38:010
988,285400	209,947159	28,240000	988,272705	2020-10-13T23:04:38:250
988,284851	209,952438	28,240000	988,279541	2020-10-13T23:04:38:490
988,284058	209,957733	28,240000	988,276611	2020-10-13T23:04:38:730
988,283203	209,965652	28,240000	988,275635	2020-10-13T23:04:38:970
988,282654	209,970932	28,240000	988,278076	2020-10-13T23:04:39:211
988,283325	209,963013	28,240000	988,289307	2020-10-13T23:04:39:451
988,285278	209,947159	28,240000	988,303223	2020-10-13T23:04:39:691
988,287109	209,931305	28,230000	988,303467	2020-10-13T23:04:39:931
988,289734	209,910172	28,240000	988,313232	2020-10-13T23:04:40:172
988,291260	209,896957	28,240000	988,304688	2020-10-13T23:04:40:411
988,293335	209,878464	28,240000	988,312012	2020-10-13T23:04:40:652
988,297119	209,846756	28,240000	988,331299	2020-10-13T23:04:40:893
988,300598	209,817688	28,240000	988,331787	2020-10-13T23:04:41:132
988,300476	209,817688	28,240000	988,299072	2020-10-13T23:04:41:372
988,301331	209,812408	28,240000	988,309326	2020-10-13T23:04:41:613
988,305847	209,772766	28,240000	988,346436	2020-10-13T23:04:41:853
988,308960	209,746338	28,240000	988,337402	2020-10-13T23:04:42:104
988,310547	209,733139	28,240000	988,324707	2020-10-13T23:04:42:333
988,311890	209,722565	28,240000	988,323975	2020-10-13T23:04:42:573
988,312683	209,714630	28,240000	988,319824	2020-10-13T23:04:42:814
988,311951	209,719925	28,240000	988,305664	2020-10-13T23:04:43:054
988,309509	209,741058	28,240000	988,287598	2020-10-13T23:04:43:295
988,308838	209,746338	28,240000	988,302734	2020-10-13T23:04:43:534
988,307068	209,762192	28,240000	988,291260	2020-10-13T23:04:43:776
988,307922	209,754272	28,240000	988,315918	2020-10-13T23:04:44:017
988,305969	209,772766	28,240000	988,288330	2020-10-13T23:04:44:256
988,306946	209,762192	28,240000	988,315918	2020-10-13T23:04:44:496
988,304321	209,785980	28,240000	988,280518	2020-10-13T23:04:44:736
988,306152	209,770126	28,240000	988,322754	2020-10-13T23:04:44:976
988,308777	209,746338	28,240000	988,332031	2020-10-13T23:04:45:217
988,308960	209,746338	28,240000	988,310059	2020-10-13T23:04:45:457
988,305054	209,780701	28,240000	988,269775	2020-10-13T23:04:45:697
988,301758	209,807114	28,240000	988,271729	2020-10-13T23:04:45:937
988,297852	209,841461	28,230000	988,262939	2020-10-13T23:04:46:178
988,295166	209,862610	28,240000	988,271240	2020-10-13T23:04:46:418
988,290894	209,899597	28,240000	988,252441	2020-10-13T23:04:46:658
988,288696	209,918091	28,240000	988,269043	2020-10-13T23:04:46:899
988,288513	209,920731	28,240000	988,287109	2020-10-13T23:04:47:138
988,287292	209,931305	28,240000	988,276367	2020-10-13T23:04:47:379
988,287964	209,923370	28,240000	988,293701	2020-10-13T23:04:47:619
988,290161	209,904877	28,250000	988,309814	2020-10-13T23:04:47:860
988,292114	209,889023	28,240000	988,309814	2020-10-13T23:04:48:101
988,292297	209,886383	28,240000	988,293945	2020-10-13T23:04:48:340
988,292175	209,889023	28,240000	988,291016	2020-10-13T23:04:48:580
988,294617	209,867889	28,250000	988,316162	2020-10-13T23:04:48:820
988,297302	209,844116	28,240000	988,321533	2020-10-13T23:04:49:060
988,298279	209,836182	28,240000	988,307373	2020-10-13T23:04:49:300
988,301025	209,815048	28,240000	988,325439	2020-10-13T23:04:49:541
988,297119	209,846756	28,240000	988,262207	2020-10-13T23:04:49:781
988,293518	209,878464	28,240000	988,260986	2020-10-13T23:04:50:021
988,293152	209,881104	28,240000	988,289551	2020-10-13T23:04:50:263
988,291687	209,891663	28,250000	988,278564	2020-10-13T23:04:50:501
988,291809	209,891663	28,240000	988,292480	2020-10-13T23:04:50:741
988,292419	209,886383	28,240000	988,298340	2020-10-13T23:04:50:984
988,294067	209,873169	28,250000	988,309082	2020-10-13T23:04:51:221
988,290833	209,899597	28,240000	988,261719	2020-10-13T23:04:51:462
988,289185	209,915451	28,250000	988,274414	2020-10-13T23:04:51:705
988,290710	209,902237	28,250000	988,303955	2020-10-13T23:04:51:943
988,293518	209,878464	28,240000	988,318604	2020-10-13T23:04:52:184
988,293701	209,875809	28,240000	988,295166	2020-10-13T23:04:52:423
988,295715	209,859955	28,240000	988,314209	2020-10-13T23:04:52:664
988,297180	209,846756	28,250000	988,310303	2020-10-13T23:04:52:904
988,299011	209,830902	28,240000	988,314941	2020-10-13T23:04:53:144
988,297241	209,846756	28,250000	988,281006	2020-10-13T23:04:53:384
988,296082	209,854675	28,240000	988,286133	2020-10-13T23:04:53:625
988,293579	209,875809	28,250000	988,271240	2020-10-13T23:04:53:865
988,294495	209,867889	28,240000	988,302734	2020-10-13T23:04:54:104
988,291565	209,894318	28,240000	988,265137	2020-10-13T23:04:54:346
988,289673	209,910172	28,240000	988,272461	2020-10-13T23:04:54:586
988,291321	209,896957	28,240000	988,305908	2020-10-13T23:04:54:825
988,291077	209,896957	28,250000	988,288818	2020-10-13T23:04:55:066
988,292419	209,886383	28,250000	988,303955	2020-10-13T23:04:55:307
988,293945	209,873169	28,240000	988,308105	2020-10-13T23:04:55:546
988,294617	209,867889	28,240000	988,300537	2020-10-13T23:04:55:787
988,296509	209,852036	28,240000	988,313232	2020-10-13T23:04:56:027
988,299438	209,828262	28,240000	988,325684	2020-10-13T23:04:56:269
988,300964	209,815048	28,240000	988,314697	2020-10-13T23:04:56:508
988,300537	209,817688	28,240000	988,296875	2020-10-13T23:04:56:747
988,300232	209,820328	28,240000	988,297363	2020-10-13T23:04:56:987
988,301514	209,809753	28,240000	988,312988	2020-10-13T23:04:57:227
988,303223	209,793900	28,250000	988,318848	2020-10-13T23:04:57:470
988,305054	209,780701	28,240000	988,321289	2020-10-13T23:04:57:708
988,305847	209,772766	28,250000	988,312744	2020-10-13T23:04:57:950
988,305725	209,772766	28,240000	988,304932	2020-10-13T23:04:58:188
988,303040	209,796555	28,240000	988,278809	2020-10-13T23:04:58:429
988,301208	209,812408	28,240000	988,284912	2020-10-13T23:04:58:672
988,303040	209,796555	28,240000	988,319580	2020-10-13T23:04:58:910
988,305054	209,780701	28,240000	988,322998	2020-10-13T23:04:59:150
988,305481	209,775406	28,240000	988,309082	2020-10-13T23:04:59:392
988,308960	209,746338	28,240000	988,340332	2020-10-13T23:04:59:631
988,310181	209,735779	28,240000	988,321045	2020-10-13T23:04:59:871
988,310730	209,730484	28,240000	988,315674	2020-10-13T23:05:00:111
988,309326	209,743698	28,240000	988,296631	2020-10-13T23:05:00:351
988,306702	209,764847	28,240000	988,282959	2020-10-13T23:05:00:591
988,303894	209,788620	28,240000	988,278320	2020-10-13T23:05:00:833
988,304993	209,780701	28,240000	988,314453	2020-10-13T23:05:01:073
988,306763	209,764847	28,250000	988,322266	2020-10-13T23:05:01:312
988,304626	209,783340	28,240000	988,285400	2020-10-13T23:05:01:552
988,305481	209,775406	28,240000	988,313232	2020-10-13T23:05:01:794
988,305298	209,778046	28,250000	988,303467	2020-10-13T23:05:02:033
988,307861	209,756912	28,240000	988,331299	2020-10-13T23:05:02:273
988,310303	209,735779	28,240000	988,332520	2020-10-13T23:05:02:513
988,310974	209,727844	28,240000	988,317139	2020-10-13T23:05:02:754
988,313416	209,709351	28,240000	988,335205	2020-10-13T23:05:02:995
988,317871	209,669724	28,240000	988,358154	2020-10-13T23:05:03:234
988,322388	209,632721	28,250000	988,362793	2020-10-13T23:05:03:474
988,323364	209,624802	28,250000	988,332275	2020-10-13T23:05:03:714
988,324463	209,614227	28,250000	988,334229	2020-10-13T23:05:03:955
988,326172	209,601013	28,250000	988,341553	2020-10-13T23:05:04:195
988,322571	209,630081	28,250000	988,290283	2020-10-13T23:05:04:437
988,322083	209,635376	28,240000	988,317871	2020-10-13T23:05:04:676
988,321655	209,638016	28,250000	988,317627	2020-10-13T23:05:04:916
988,318115	209,669724	28,250000	988,286377	2020-10-13T23:05:05:156
988,315979	209,685577	28,250000	988,296875	2020-10-13T23:05:05:396
988,311401	209,725204	28,250000	988,269775	2020-10-13T23:05:05:636
988,310303	209,735779	28,250000	988,300781	2020-10-13T23:05:05:876
988,309265	209,743698	28,240000	988,300049	2020-10-13T23:05:06:117
988,310669	209,730484	28,250000	988,323242	2020-10-13T23:05:06:357
988,312927	209,711990	28,250000	988,333252	2020-10-13T23:05:06:596
988,313782	209,706711	28,250000	988,321533	2020-10-13T23:05:06:838
988,312378	209,717285	28,250000	988,300049	2020-10-13T23:05:07:078
988,311584	209,725204	28,250000	988,304199	2020-10-13T23:05:07:318
988,308899	209,746338	28,250000	988,284424	2020-10-13T23:05:07:558
988,311279	209,727844	28,250000	988,332764	2020-10-13T23:05:07:798
988,307861	209,756912	28,250000	988,277588	2020-10-13T23:05:08:038
988,308472	209,748993	28,250000	988,314209	2020-10-13T23:05:08:280
988,307373	209,759552	28,250000	988,297607	2020-10-13T23:05:08:519
988,303345	209,793900	28,260000	988,267090	2020-10-13T23:05:08:759
988,303833	209,788620	28,250000	988,308350	2020-10-13T23:05:08:999
988,307312	209,759552	28,260000	988,338623	2020-10-13T23:05:09:239
988,308289	209,751633	28,260000	988,316895	2020-10-13T23:05:09:480
988,306213	209,770126	28,260000	988,287598	2020-10-13T23:05:09:721
988,307922	209,754272	28,250000	988,323242	2020-10-13T23:05:09:960
988,309387	209,743698	28,250000	988,322754	2020-10-13T23:05:10:200
988,311523	209,725204	28,260000	988,330322	2020-10-13T23:05:10:441
988,312073	209,719925	28,250000	988,317139	2020-10-13T23:05:10:681
988,310547	209,733139	28,260000	988,297119	2020-10-13T23:05:10:921
988,310181	209,735779	28,250000	988,306885	2020-10-13T23:05:11:162
988,310608	209,733139	28,250000	988,314697	2020-10-13T23:05:11:403
988,310974	209,727844	28,260000	988,314209	2020-10-13T23:05:11:642
988,310486	209,733139	28,250000	988,305908	2020-10-13T23:05:11:884
988,309143	209,743698	28,250000	988,296631	2020-10-13T23:05:12:122
988,305847	209,772766	28,260000	988,275879	2020-10-13T23:05:12:362
988,303711	209,791260	28,260000	988,284424	2020-10-13T23:05:12:604
988,303040	209,796555	28,250000	988,296631	2020-10-13T23:05:12:843
988,300903	209,815048	28,250000	988,281494	2020-10-13T23:05:13:084
988,302002	209,804474	28,250000	988,312256	2020-10-13T23:05:13:324
988,299744	209,825607	28,260000	988,279297	2020-10-13T23:05:13:564
988,297974	209,838821	28,260000	988,281982	2020-10-13T23:05:13:805
988,298340	209,836182	28,250000	988,301514	2020-10-13T23:05:14:045
988,299622	209,825607	28,260000	988,311035	2020-10-13T23:05:14:285
988,301941	209,807114	28,250000	988,322266	2020-10-13T23:05:14:525
988,302063	209,804474	28,250000	988,302734	2020-10-13T23:05:14:766
988,299438	209,828262	28,260000	988,275391	2020-10-13T23:05:15:006
988,299927	209,822968	28,250000	988,303955	2020-10-13T23:05:15:246
988,300537	209,817688	28,250000	988,305908	2020-10-13T23:05:15:488
988,297852	209,841461	28,250000	988,273682	2020-10-13T23:05:15:725
988,293518	209,878464	28,260000	988,254883	2020-10-13T23:05:15:967
988,293701	209,875809	28,260000	988,294922	2020-10-13T23:05:16:207
988,294983	209,865250	28,250000	988,306885	2020-10-13T23:05:16:448
988,297241	209,846756	28,250000	988,317627	2020-10-13T23:05:16:688
988,303284	209,793900	28,250000	988,357666	2020-10-13T23:05:16:928
988,307068	209,762192	28,250000	988,341064	2020-10-13T23:05:17:167
988,307129	209,762192	28,260000	988,308105	2020-10-13T23:05:17:408
988,303711	209,791260	28,260000	988,273193	2020-10-13T23:05:17:648
988,304321	209,785980	28,250000	988,309570	2020-10-13T23:05:17:888
988,303833	209,788620	28,250000	988,299561	2020-10-13T23:05:18:136
988,304016	209,788620	28,260000	988,305176	2020-10-13T23:05:18:368
988,301941	209,807114	28,250000	988,283447	2020-10-13T23:05:18:608
988,298889	209,830902	28,250000	988,271240	2020-10-13T23:05:18:849
988,296692	209,849396	28,240000	988,276855	2020-10-13T23:05:19:090
988,295837	209,857315	28,260000	988,288574	2020-10-13T23:05:19:330
988,296082	209,854675	28,260000	988,298340	2020-10-13T23:05:19:569
988,295349	209,862610	28,250000	988,289062	2020-10-13T23:05:19:810
988,294373	209,870529	28,250000	988,285156	2020-10-13T23:05:20:051
988,292969	209,881104	28,260000	988,280518	2020-10-13T23:05:20:291
988,293518	209,878464	28,250000	988,298828	2020-10-13T23:05:20:531
988,293152	209,881104	28,250000	988,289307	2020-10-13T23:05:20:771
988,293396	209,878464	28,250000	988,295898	2020-10-13T23:05:21:011
988,293396	209,878464	28,260000	988,292969	2020-10-13T23:05:21:252
988,295776	209,857315	28,250000	988,317139	2020-10-13T23:05:21:492
988,297607	209,841461	28,250000	988,313721	2020-10-13T23:05:21:732
988,298584	209,833542	28,260000	988,307129	2020-10-13T23:05:21:972
988,298889	209,830902	28,240000	988,302002	2020-10-13T23:05:22:213
988,299194	209,828262	28,260000	988,301758	2020-10-13T23:05:22:453
988,296936	209,849396	28,250000	988,276611	2020-10-13T23:05:22:694
988,295654	209,859955	28,260000	988,283936	2020-10-13T23:05:22:934
988,296753	209,849396	28,260000	988,306396	2020-10-13T23:05:23:173
988,296021	209,857315	28,260000	988,289795	2020-10-13T23:05:23:413
988,294861	209,865250	28,260000	988,284424	2020-10-13T23:05:23:654
988,289734	209,910172	28,260000	988,243896	2020-10-13T23:05:23:894
988,284912	209,949799	28,250000	988,241211	2020-10-13T23:05:24:134
988,280762	209,986786	28,250000	988,242920	2020-10-13T23:05:24:375
988,281860	209,976227	28,260000	988,291992	2020-10-13T23:05:24:614
988,281494	209,978867	28,250000	988,277832	2020-10-13T23:05:24:854
988,282837	209,968292	28,250000	988,295166	2020-10-13T23:05:25:096
988,281982	209,976227	28,260000	988,274170	2020-10-13T23:05:25:335
988,281860	209,976227	28,260000	988,281250	2020-10-13T23:05:25:575
988,280334	209,989441	28,260000	988,266113	2020-10-13T23:05:25:816
988,280090	209,992081	28,260000	988,278076	2020-10-13T23:05:26:056
988,277161	210,015854	28,260000	988,250732	2020-10-13T23:05:26:297
988,276672	210,021149	28,250000	988,272217	2020-10-13T23:05:26:537
988,274048	210,042282	28,260000	988,250488	2020-10-13T23:05:26:777
988,272583	210,055496	28,250000	988,259521	2020-10-13T23:05:27:018
988,271667	210,063416	28,260000	988,263428	2020-10-13T23:05:27:257
988,269043	210,084549	28,260000	988,245850	2020-10-13T23:05:27:499
988,266235	210,108337	28,250000	988,240967	2020-10-13T23:05:27:737
988,265625	210,113617	28,260000	988,260498	2020-10-13T23:05:27:978
988,267517	210,097763	28,260000	988,284424	2020-10-13T23:05:28:218
988,268982	210,084549	28,260000	988,282471	2020-10-13T23:05:28:459
988,269043	210,084549	28,260000	988,269531	2020-10-13T23:05:28:699
988,269470	210,081909	28,260000	988,273193	2020-10-13T23:05:28:941
988,269409	210,081909	28,260000	988,269043	2020-10-13T23:05:29:179
988,269226	210,084549	28,260000	988,267822	2020-10-13T23:05:29:419
988,271179	210,066055	28,269999	988,288818	2020-10-13T23:05:29:660
988,266907	210,103058	28,260000	988,228271	2020-10-13T23:05:29:900
988,266907	210,103058	28,260000	988,267090	2020-10-13T23:05:30:140
988,266113	210,110977	28,269999	988,259277	2020-10-13T23:05:30:381
988,265686	210,113617	28,260000	988,262207	2020-10-13T23:05:30:621
988,267883	210,095123	28,260000	988,287842	2020-10-13T23:05:30:861
988,268738	210,087204	28,260000	988,276367	2020-10-13T23:05:31:103
988,268372	210,089844	28,250000	988,264893	2020-10-13T23:05:31:341
988,265198	210,118912	28,260000	988,236572	2020-10-13T23:05:31:581
988,261169	210,153259	28,269999	988,224854	2020-10-13T23:05:31:823
988,257141	210,184967	28,260000	988,220459	2020-10-13T23:05:32:065
988,257324	210,184967	28,260000	988,258789	2020-10-13T23:05:32:304
988,256592	210,190247	28,260000	988,249756	2020-10-13T23:05:32:542
988,256592	210,190247	28,260000	988,256348	2020-10-13T23:05:32:782
988,256653	210,190247	28,269999	988,257080	2020-10-13T23:05:33:023
988,255981	210,195526	28,260000	988,250000	2020-10-13T23:05:33:264
988,253723	210,216675	28,269999	988,233398	2020-10-13T23:05:33:504
988,256409	210,192886	28,260000	988,280273	2020-10-13T23:05:33:744
988,255554	210,200821	28,269999	988,248291	2020-10-13T23:05:33:984
988,254517	210,208740	28,269999	988,244873	2020-10-13T23:05:34:225
988,254211	210,211380	28,269999	988,251709	2020-10-13T23:05:34:465
988,253540	210,216675	28,269999	988,247314	2020-10-13T23:05:34:705
988,253174	210,219315	28,260000	988,249756	2020-10-13T23:05:34:944
988,252930	210,221954	28,269999	988,250244	2020-10-13T23:05:35:186
988,251160	210,237808	28,269999	988,235352	2020-10-13T23:05:35:426
988,249268	210,253662	28,269999	988,231934	2020-10-13T23:05:35:666
988,249878	210,248383	28,269999	988,255615	2020-10-13T23:05:35:907
988,249573	210,251022	28,269999	988,246582	2020-10-13T23:05:36:146
988,248535	210,258942	28,269999	988,238770	2020-10-13T23:05:36:386
988,250244	210,245728	28,269999	988,265869	2020-10-13T23:05:36:627
988,249756	210,248383	28,269999	988,245850	2020-10-13T23:05:36:876
988,253540	210,216675	28,269999	988,287598	2020-10-13T23:05:37:107
988,255310	210,203461	28,269999	988,271240	2020-10-13T23:05:37:347
988,257019	210,187607	28,269999	988,272217	2020-10-13T23:05:37:588
988,257324	210,184967	28,269999	988,260254	2020-10-13T23:05:37:827
988,256653	210,190247	28,279999	988,250244	2020-10-13T23:05:38:068
988,254822	210,206100	28,269999	988,238037	2020-10-13T23:05:38:308
988,253357	210,219315	28,269999	988,240234	2020-10-13T23:05:38:548
988,253967	210,214020	28,269999	988,259766	2020-10-13T23:05:38:788
988,253113	210,219315	28,269999	988,245361	2020-10-13T23:05:39:029
988,248840	210,256302	28,279999	988,210205	2020-10-13T23:05:39:270
988,246216	210,280090	28,269999	988,222168	2020-10-13T23:05:39:509
988,244995	210,290649	28,269999	988,233887	2020-10-13T23:05:39:749
988,245056	210,288010	28,279999	988,245850	2020-10-13T23:05:39:991
988,247009	210,272156	28,269999	988,264648	2020-10-13T23:05:40:231
988,253113	210,219315	28,279999	988,307861	2020-10-13T23:05:40:470
988,255066	210,203461	28,279999	988,272217	2020-10-13T23:05:40:711
988,256470	210,192886	28,279999	988,269043	2020-10-13T23:05:40:951
988,257202	210,184967	28,269999	988,263916	2020-10-13T23:05:41:191
988,259155	210,169113	28,269999	988,276611	2020-10-13T23:05:41:431
988,259216	210,169113	28,269999	988,259766	2020-10-13T23:05:41:673
988,258728	210,171753	28,279999	988,254395	2020-10-13T23:05:41:912
988,257629	210,182327	28,269999	988,247314	2020-10-13T23:05:42:152
988,257996	210,179672	28,279999	988,261230	2020-10-13T23:05:42:392
988,258606	210,174393	28,279999	988,263672	2020-10-13T23:05:42:632
988,255249	210,203461	28,279999	988,224854	2020-10-13T23:05:42:873
988,255066	210,203461	28,279999	988,253418	2020-10-13T23:05:43:114
988,254517	210,208740	28,279999	988,249023	2020-10-13T23:05:43:353
988,255615	210,200821	28,269999	988,265625	2020-10-13T23:05:43:592
988,254517	210,208740	28,279999	988,244629	2020-10-13T23:05:43:833
988,253723	210,216675	28,279999	988,246582	2020-10-13T23:05:44:075
988,253845	210,214020	28,279999	988,254639	2020-10-13T23:05:44:314
988,257141	210,184967	28,279999	988,286377	2020-10-13T23:05:44:555
988,258301	210,177032	28,279999	988,268799	2020-10-13T23:05:44:795
988,259949	210,163818	28,279999	988,274658	2020-10-13T23:05:45:035
988,257507	210,182327	28,279999	988,235107	2020-10-13T23:05:45:275
988,255371	210,200821	28,279999	988,235840	2020-10-13T23:05:45:515
988,250244	210,245728	28,279999	988,204346	2020-10-13T23:05:45:755
988,245850	210,282730	28,279999	988,206299	2020-10-13T23:05:45:995
988,249390	210,253662	28,279999	988,281250	2020-10-13T23:05:46:236
988,251099	210,237808	28,279999	988,266113	2020-10-13T23:05:46:475
988,253235	210,219315	28,279999	988,272217	2020-10-13T23:05:46:717
988,252930	210,221954	28,279999	988,249756	2020-10-13T23:05:46:956
988,251709	210,232529	28,279999	988,240967	2020-10-13T23:05:47:197
988,254883	210,206100	28,279999	988,283203	2020-10-13T23:05:47:438
988,255981	210,195526	28,279999	988,265869	2020-10-13T23:05:47:679
988,257202	210,184967	28,279999	988,268066	2020-10-13T23:05:47:920
988,256714	210,190247	28,279999	988,252441	2020-10-13T23:05:48:157
988,259338	210,166473	28,279999	988,282715	2020-10-13T23:05:48:399
988,260803	210,155899	28,279999	988,273438	2020-10-13T23:05:48:638
988,262146	210,145325	28,279999	988,274170	2020-10-13T23:05:48:878
988,264954	210,118912	28,279999	988,290039	2020-10-13T23:05:49:119
988,266479	210,108337	28,279999	988,280518	2020-10-13T23:05:49:359
988,265137	210,118912	28,279999	988,252930	2020-10-13T23:05:49:601
988,262939	210,137405	28,279999	988,242920	2020-10-13T23:05:49:840
988,260376	210,158539	28,279999	988,236816	2020-10-13T23:05:50:081
988,259277	210,169113	28,279999	988,249023	2020-10-13T23:05:50:320
988,260376	210,158539	28,289999	988,270264	2020-10-13T23:05:50:560
988,264587	210,124191	28,289999	988,302246	2020-10-13T23:05:50:800
988,264771	210,121552	28,279999	988,266602	2020-10-13T23:05:51:040
988,264160	210,126831	28,279999	988,258301	2020-10-13T23:05:51:282
988,263794	210,129471	28,269999	988,260498	2020-10-13T23:05:51:521
988,263184	210,134766	28,279999	988,257812	2020-10-13T23:05:51:762
988,264038	210,126831	28,279999	988,271729	2020-10-13T23:05:52:001
988,261841	210,147964	28,279999	988,242188	2020-10-13T23:05:52:244
988,260559	210,158539	28,279999	988,249512	2020-10-13T23:05:52:483
988,257202	210,184967	28,279999	988,226562	2020-10-13T23:05:52:722
988,253723	210,216675	28,279999	988,222656	2020-10-13T23:05:52:963
988,253296	210,219315	28,279999	988,249023	2020-10-13T23:05:53:202
988,253723	210,216675	28,279999	988,257812	2020-10-13T23:05:53:445
988,254883	210,206100	28,279999	988,265137	2020-10-13T23:05:53:683
988,254211	210,211380	28,279999	988,248047	2020-10-13T23:05:53:923
988,254272	210,211380	28,279999	988,254883	2020-10-13T23:05:54:163
988,255981	210,195526	28,279999	988,271240	2020-10-13T23:05:54:404
988,256409	210,192886	28,279999	988,260254	2020-10-13T23:05:54:644
988,258240	210,177032	28,279999	988,275146	2020-10-13T23:05:54:884
988,258240	210,177032	28,269999	988,258301	2020-10-13T23:05:55:125
988,259521	210,166473	28,279999	988,271240	2020-10-13T23:05:55:365
988,260315	210,158539	28,279999	988,267578	2020-10-13T23:05:55:605
988,262268	210,142685	28,279999	988,280029	2020-10-13T23:05:55:845
988,270081	210,076630	28,279999	988,340332	2020-10-13T23:05:56:095
988,272583	210,055496	28,279999	988,294922	2020-10-13T23:05:56:327
988,271912	210,060776	28,279999	988,265625	2020-10-13T23:05:56:567
988,271729	210,063416	28,279999	988,270264	2020-10-13T23:05:56:806
988,267944	210,095123	28,279999	988,233887	2020-10-13T23:05:57:046
988,265747	210,113617	28,279999	988,246338	2020-10-13T23:05:57:287
988,263977	210,129471	28,279999	988,248291	2020-10-13T23:05:57:528
988,264893	210,121552	28,279999	988,273193	2020-10-13T23:05:57:767
988,264954	210,118912	28,279999	988,265869	2020-10-13T23:05:58:008
988,259216	210,169113	28,269999	988,207764	2020-10-13T23:05:58:248
988,256775	210,190247	28,279999	988,234863	2020-10-13T23:05:58:489
988,257446	210,184967	28,279999	988,263428	2020-10-13T23:05:58:731
988,258606	210,174393	28,279999	988,268555	2020-10-13T23:05:58:969
988,258179	210,177032	28,279999	988,254150	2020-10-13T23:05:59:208
988,255371	210,200821	28,289999	988,230469	2020-10-13T23:05:59:449
988,251404	210,235168	28,279999	988,215576	2020-10-13T23:05:59:689
988,251770	210,232529	28,289999	988,254639	2020-10-13T23:05:59:930
988,253723	210,216675	28,289999	988,270996	2020-10-13T23:06:00:169
988,253601	210,216675	28,289999	988,252197	2020-10-13T23:06:00:411
988,253418	210,219315	28,279999	988,251953	2020-10-13T23:06:00:650
988,254211	210,211380	28,289999	988,261719	2020-10-13T23:06:00:890
988,251282	210,235168	28,289999	988,224609	2020-10-13T23:06:01:131
988,248413	210,261581	28,289999	988,222412	2020-10-13T23:06:01:372
988,246765	210,274796	28,289999	988,232422	2020-10-13T23:06:01:611
988,248230	210,261581	28,299999	988,261719	2020-10-13T23:06:01:851
988,249512	210,251022	28,289999	988,260742	2020-10-13T23:06:02:092
988,250732	210,240448	28,289999	988,261230	2020-10-13T23:06:02:333
988,251831	210,232529	28,289999	988,261230	2020-10-13T23:06:02:572
988,253357	210,219315	28,289999	988,267090	2020-10-13T23:06:02:812
988,254517	210,208740	28,289999	988,265137	2020-10-13T23:06:03:053
988,255798	210,198181	28,289999	988,267822	2020-10-13T23:06:03:293
988,255554	210,200821	28,279999	988,253662	2020-10-13T23:06:03:533
988,255615	210,200821	28,289999	988,255859	2020-10-13T23:06:03:773
988,254150	210,211380	28,289999	988,240723	2020-10-13T23:06:04:013
988,252563	210,224594	28,289999	988,238037	2020-10-13T23:06:04:254
988,251526	210,235168	28,289999	988,241699	2020-10-13T23:06:04:494
988,255493	210,200821	28,289999	988,291260	2020-10-13T23:06:04:734
988,257141	210,184967	28,289999	988,271973	2020-10-13T23:06:04:973
988,256714	210,190247	28,289999	988,253174	2020-10-13T23:06:05:215
988,255249	210,203461	28,289999	988,242188	2020-10-13T23:06:05:455
988,255005	210,203461	28,289999	988,253174	2020-10-13T23:06:05:695
988,256958	210,187607	28,299999	988,274170	2020-10-13T23:06:05:936
988,259766	210,163818	28,289999	988,285156	2020-10-13T23:06:06:175
988,261353	210,150620	28,299999	988,275635	2020-10-13T23:06:06:416
988,260010	210,161179	28,289999	988,247803	2020-10-13T23:06:06:655
988,259399	210,166473	28,289999	988,254150	2020-10-13T23:06:06:897
988,254395	210,208740	28,289999	988,209717	2020-10-13T23:06:07:137
988,253296	210,219315	28,289999	988,243408	2020-10-13T23:06:07:377
988,249939	210,248383	28,289999	988,220215	2020-10-13T23:06:07:618
988,248413	210,261581	28,299999	988,234863	2020-10-13T23:06:07:857
988,245239	210,288010	28,289999	988,217041	2020-10-13T23:06:08:115
988,245300	210,288010	28,289999	988,245605	2020-10-13T23:06:08:339
988,246460	210,277435	28,299999	988,256592	2020-10-13T23:06:08:579
988,246033	210,280090	28,299999	988,241699	2020-10-13T23:06:08:818
988,246765	210,274796	28,299999	988,253662	2020-10-13T23:06:09:059
988,248840	210,256302	28,299999	988,267334	2020-10-13T23:06:09:298
988,249756	210,248383	28,299999	988,257568	2020-10-13T23:06:09:539
988,248779	210,256302	28,299999	988,240234	2020-10-13T23:06:09:779
988,247986	210,264236	28,299999	988,240723	2020-10-13T23:06:10:019
988,249939	210,248383	28,289999	988,267578	2020-10-13T23:06:10:259
988,248291	210,261581	28,299999	988,233398	2020-10-13T23:06:10:499
988,246582	210,274796	28,299999	988,231201	2020-10-13T23:06:10:740
988,246216	210,280090	28,299999	988,242920	2020-10-13T23:06:10:980
988,245605	210,285370	28,299999	988,240234	2020-10-13T23:06:11:220
988,247498	210,269516	28,289999	988,264648	2020-10-13T23:06:11:460
988,247498	210,269516	28,299999	988,247559	2020-10-13T23:06:11:700
988,248657	210,258942	28,299999	988,258789	2020-10-13T23:06:11:941
988,248352	210,261581	28,299999	988,245850	2020-10-13T23:06:12:181
988,246094	210,280090	28,299999	988,225586	2020-10-13T23:06:12:421
988,248108	210,264236	28,299999	988,266602	2020-10-13T23:06:12:662
988,252380	210,227234	28,299999	988,290771	2020-10-13T23:06:12:903
988,252686	210,224594	28,289999	988,255371	2020-10-13T23:06:13:143
988,253052	210,221954	28,299999	988,256348	2020-10-13T23:06:13:382
988,254028	210,214020	28,289999	988,262939	2020-10-13T23:06:13:623
988,254089	210,211380	28,299999	988,254883	2020-10-13T23:06:13:862
988,251282	210,235168	28,289999	988,226074	2020-10-13T23:06:14:102
988,250549	210,243088	28,289999	988,243652	2020-10-13T23:06:14:343
988,251038	210,237808	28,299999	988,255127	2020-10-13T23:06:14:583
988,252808	210,221954	28,299999	988,268799	2020-10-13T23:06:14:823
988,253479	210,216675	28,299999	988,259766	2020-10-13T23:06:15:064
988,253662	210,216675	28,299999	988,255615	2020-10-13T23:06:15:304
988,257690	210,182327	28,299999	988,293945	2020-10-13T23:06:15:545
988,259277	210,169113	28,299999	988,273682	2020-10-13T23:06:15:785
988,260559	210,158539	28,299999	988,271973	2020-10-13T23:06:16:025
988,264587	210,124191	28,299999	988,300781	2020-10-13T23:06:16:265
988,264893	210,121552	28,299999	988,267334	2020-10-13T23:06:16:506
988,265076	210,118912	28,299999	988,267090	2020-10-13T23:06:16:747
988,263245	210,134766	28,299999	988,247070	2020-10-13T23:06:16:987
988,261963	210,145325	28,309999	988,250488	2020-10-13T23:06:17:227
988,262695	210,140045	28,299999	988,269531	2020-10-13T23:06:17:467
988,262878	210,137405	28,299999	988,264404	2020-10-13T23:06:17:707
988,265259	210,116257	28,299999	988,286621	2020-10-13T23:06:17:947
988,268066	210,092484	28,299999	988,293457	2020-10-13T23:06:18:187
988,269836	210,079269	28,309999	988,286133	2020-10-13T23:06:18:427
988,271179	210,066055	28,299999	988,283447	2020-10-13T23:06:18:667
988,271179	210,066055	28,299999	988,271240	2020-10-13T23:06:18:908
988,267151	210,100403	28,299999	988,231201	2020-10-13T23:06:19:148
988,264404	210,124191	28,309999	988,239502	2020-10-13T23:06:19:388
988,262634	210,140045	28,299999	988,246826	2020-10-13T23:06:19:628
988,258606	210,174393	28,299999	988,222168	2020-10-13T23:06:19:868
988,253662	210,216675	28,299999	988,208984	2020-10-13T23:06:20:110
988,251221	210,237808	28,299999	988,229004	2020-10-13T23:06:20:350
988,250000	210,248383	28,299999	988,238770	2020-10-13T23:06:20:589
988,250061	210,245728	28,299999	988,250244	2020-10-13T23:06:20:830
988,249207	210,253662	28,299999	988,241455	2020-10-13T23:06:21:070
988,248718	210,258942	28,299999	988,244385	2020-10-13T23:06:21:311
988,249390	210,253662	28,299999	988,255615	2020-10-13T23:06:21:551
988,251953	210,229874	28,299999	988,275146	2020-10-13T23:06:21:791
988,252502	210,224594	28,299999	988,257324	2020-10-13T23:06:22:031
988,252563	210,224594	28,299999	988,252930	2020-10-13T23:06:22:272
988,254333	210,211380	28,309999	988,270264	2020-10-13T23:06:22:512
988,257751	210,182327	28,299999	988,288086	2020-10-13T23:06:22:753
988,259460	210,166473	28,299999	988,275146	2020-10-13T23:06:22:991
988,260376	210,158539	28,299999	988,268555	2020-10-13T23:06:23:231
988,260010	210,161179	28,299999	988,256836	2020-10-13T23:06:23:472
988,255432	210,200821	28,299999	988,214600	2020-10-13T23:06:23:712
988,251221	210,237808	28,309999	988,213379	2020-10-13T23:06:23:953
988,249146	210,253662	28,299999	988,230469	2020-10-13T23:06:24:193
988,248413	210,261581	28,299999	988,241699	2020-10-13T23:06:24:434
988,247864	210,264236	28,299999	988,243164	2020-10-13T23:06:24:673
988,248352	210,261581	28,299999	988,252686	2020-10-13T23:06:24:913
988,247803	210,266876	28,309999	988,242432	2020-10-13T23:06:25:154
988,249878	210,248383	28,309999	988,268555	2020-10-13T23:06:25:395
988,250977	210,237808	28,299999	988,260986	2020-10-13T23:06:25:636
988,251221	210,237808	28,299999	988,253662	2020-10-13T23:06:25:875
988,254272	210,211380	28,309999	988,281738	2020-10-13T23:06:26:115
988,255859	210,198181	28,309999	988,270264	2020-10-13T23:06:26:356
988,257019	210,187607	28,309999	988,267334	2020-10-13T23:06:26:596
988,258606	210,174393	28,309999	988,272949	2020-10-13T23:06:26:835
988,258301	210,177032	28,309999	988,255615	2020-10-13T23:06:27:076
988,259094	210,169113	28,309999	988,266602	2020-10-13T23:06:27:315
988,254639	210,208740	28,299999	988,214355	2020-10-13T23:06:27:556
988,252502	210,224594	28,299999	988,233643	2020-10-13T23:06:27:798
988,251953	210,229874	28,309999	988,246826	2020-10-13T23:06:28:038
988,253845	210,214020	28,309999	988,270508	2020-10-13T23:06:28:277
988,255005	210,203461	28,299999	988,265137	2020-10-13T23:06:28:517
988,256042	210,195526	28,299999	988,264893	2020-10-13T23:06:28:757
988,256042	210,195526	28,309999	988,256104	2020-10-13T23:06:28:997
988,256348	210,192886	28,309999	988,259277	2020-10-13T23:06:29:238
988,254517	210,208740	28,309999	988,238037	2020-10-13T23:06:29:478
988,252319	210,227234	28,309999	988,232666	2020-10-13T23:06:29:718
988,252136	210,229874	28,309999	988,250244	2020-10-13T23:06:29:959
988,256897	210,187607	28,309999	988,299805	2020-10-13T23:06:30:199
988,262268	210,142685	28,299999	988,310059	2020-10-13T23:06:30:439
988,265381	210,116257	28,309999	988,292969	2020-10-13T23:06:30:680
988,265076	210,118912	28,309999	988,261963	2020-10-13T23:06:30:919
988,262512	210,140045	28,309999	988,239502	2020-10-13T23:06:31:161
988,262756	210,137405	28,309999	988,264893	2020-10-13T23:06:31:399
988,264465	210,124191	28,309999	988,279785	2020-10-13T23:06:31:641
988,266235	210,108337	28,309999	988,281982	2020-10-13T23:06:31:880
988,271179	210,066055	28,309999	988,315918	2020-10-13T23:06:32:120
988,272461	210,055496	28,309999	988,284180	2020-10-13T23:06:32:362
988,273682	210,044922	28,309999	988,284912	2020-10-13T23:06:32:602
988,273743	210,044922	28,320000	988,274170	2020-10-13T23:06:32:841
988,273254	210,050201	28,309999	988,268799	2020-10-13T23:06:33:081
988,271851	210,060776	28,309999	988,259277	2020-10-13T23:06:33:323
988,273376	210,047562	28,320000	988,287109	2020-10-13T23:06:33:562
988,272827	210,052841	28,309999	988,267822	2020-10-13T23:06:33:802
988,270813	210,071350	28,309999	988,252686	2020-10-13T23:06:34:043
988,269714	210,079269	28,309999	988,259521	2020-10-13T23:06:34:283
988,267944	210,095123	28,309999	988,251465	2020-10-13T23:06:34:523
988,269043	210,084549	28,309999	988,279053	2020-10-13T23:06:34:765
988,267029	210,103058	28,309999	988,248779	2020-10-13T23:06:35:003
988,266052	210,110977	28,309999	988,257080	2020-10-13T23:06:35:244
988,265564	210,113617	28,309999	988,260742	2020-10-13T23:06:35:484
988,264893	210,121552	28,320000	988,259277	2020-10-13T23:06:35:724
988,265747	210,113617	28,320000	988,273926	2020-10-13T23:06:35:965
988,264954	210,118912	28,309999	988,257568	2020-10-13T23:06:36:204
988,265686	210,113617	28,309999	988,272217	2020-10-13T23:06:36:445
988,263184	210,134766	28,309999	988,240479	2020-10-13T23:06:36:685
988,262634	210,140045	28,309999	988,257568	2020-10-13T23:06:36:925
988,265686	210,113617	28,320000	988,293457	2020-10-13T23:06:37:167
988,263550	210,132111	28,320000	988,244141	2020-10-13T23:06:37:406
988,264648	210,121552	28,309999	988,274414	2020-10-13T23:06:37:646
988,265930	210,110977	28,320000	988,277344	2020-10-13T23:06:37:886
988,269165	210,084549	28,320000	988,297852	2020-10-13T23:06:38:127
988,269958	210,076630	28,320000	988,277588	2020-10-13T23:06:38:368
988,270508	210,073990	28,320000	988,275635	2020-10-13T23:06:38:608
988,272034	210,060776	28,309999	988,286133	2020-10-13T23:06:38:847
988,271179	210,066055	28,320000	988,263428	2020-10-13T23:06:39:088
988,270020	210,076630	28,309999	988,259766	2020-10-13T23:06:39:328
988,266479	210,108337	28,320000	988,234375	2020-10-13T23:06:39:568
988,263916	210,129471	28,320000	988,240967	2020-10-13T23:06:39:808
988,259827	210,163818	28,309999	988,223145	2020-10-13T23:06:40:049
988,256775	210,190247	28,320000	988,229248	2020-10-13T23:06:40:289
988,254150	210,211380	28,320000	988,230469	2020-10-13T23:06:40:529
988,252319	210,227234	28,320000	988,236084	2020-10-13T23:06:40:771
988,251221	210,237808	28,320000	988,241455	2020-10-13T23:06:41:009
988,247314	210,269516	28,309999	988,211914	2020-10-13T23:06:41:249
988,246399	210,277435	28,320000	988,238037	2020-10-13T23:06:41:490
988,248291	210,261581	28,320000	988,264893	2020-10-13T23:06:41:730
988,249573	210,251022	28,320000	988,260986	2020-10-13T23:06:41:971
988,250427	210,243088	28,320000	988,257568	2020-10-13T23:06:42:212
988,252380	210,227234	28,320000	988,270264	2020-10-13T23:06:42:451
988,255432	210,200821	28,320000	988,282959	2020-10-13T23:06:42:691
988,257629	210,182327	28,320000	988,277344	2020-10-13T23:06:42:931
988,257507	210,182327	28,320000	988,256836	2020-10-13T23:06:43:171
988,256104	210,195526	28,320000	988,243408	2020-10-13T23:06:43:411
988,257080	210,187607	28,320000	988,265625	2020-10-13T23:06:43:652
988,253723	210,216675	28,320000	988,223389	2020-10-13T23:06:43:892
988,250916	210,237808	28,320000	988,225586	2020-10-13T23:06:44:132
988,250061	210,245728	28,320000	988,242432	2020-10-13T23:06:44:374
988,249695	210,251022	28,320000	988,246338	2020-10-13T23:06:44:613
988,252991	210,221954	28,309999	988,282715	2020-10-13T23:06:44:854
988,254517	210,208740	28,320000	988,268311	2020-10-13T23:06:45:093
988,256897	210,187607	28,320000	988,278564	2020-10-13T23:06:45:334
988,256042	210,195526	28,309999	988,248291	2020-10-13T23:06:45:574
988,255188	210,203461	28,320000	988,247314	2020-10-13T23:06:45:814
988,254822	210,206100	28,320000	988,251953	2020-10-13T23:06:46:055
988,251038	210,237808	28,330000	988,216797	2020-10-13T23:06:46:294
988,249268	210,253662	28,320000	988,233643	2020-10-13T23:06:46:535
988,248169	210,261581	28,320000	988,238037	2020-10-13T23:06:46:774
988,248108	210,264236	28,320000	988,247314	2020-10-13T23:06:47:017
988,248352	210,261581	28,320000	988,250488	2020-10-13T23:06:47:255
988,249084	210,256302	28,320000	988,255371	2020-10-13T23:06:47:497
988,247986	210,264236	28,320000	988,238525	2020-10-13T23:06:47:736
988,247620	210,266876	28,320000	988,244141	2020-10-13T23:06:47:977
988,248718	210,258942	28,330000	988,258545	2020-10-13T23:06:48:216
988,250488	210,243088	28,320000	988,266602	2020-10-13T23:06:48:456
988,252563	210,224594	28,320000	988,271484	2020-10-13T23:06:48:697
988,253906	210,214020	28,320000	988,265625	2020-10-13T23:06:48:937
988,251648	210,232529	28,320000	988,231689	2020-10-13T23:06:49:178
988,250305	210,245728	28,320000	988,238281	2020-10-13T23:06:49:418
988,247620	210,266876	28,330000	988,223877	2020-10-13T23:06:49:660
988,246521	210,277435	28,320000	988,236328	2020-10-13T23:06:49:897
988,248047	210,264236	28,320000	988,261230	2020-10-13T23:06:50:139
988,248291	210,261581	28,320000	988,250488	2020-10-13T23:06:50:379
988,252319	210,227234	28,320000	988,288574	2020-10-13T23:06:50:618
988,254883	210,206100	28,320000	988,277832	2020-10-13T23:06:50:859
988,256409	210,192886	28,320000	988,270264	2020-10-13T23:06:51:099
988,260193	210,161179	28,320000	988,294678	2020-10-13T23:06:51:340
988,265564	210,113617	28,320000	988,314209	2020-10-13T23:06:51:580
988,269531	210,081909	28,320000	988,305176	2020-10-13T23:06:51:820
988,270935	210,068695	28,320000	988,283691	2020-10-13T23:06:52:060
988,271423	210,066055	28,320000	988,275391	2020-10-13T23:06:52:301
988,270569	210,071350	28,330000	988,262939	2020-10-13T23:06:52:541
988,268982	210,084549	28,320000	988,254883	2020-10-13T23:06:52:781
988,267639	210,097763	28,330000	988,255615	2020-10-13T23:06:53:021
988,267944	210,095123	28,320000	988,270508	2020-10-13T23:06:53:261
988,267090	210,103058	28,320000	988,259766	2020-10-13T23:06:53:501
988,268005	210,095123	28,330000	988,276123	2020-10-13T23:06:53:742
988,268921	210,087204	28,320000	988,277344	2020-10-13T23:06:53:982
988,267822	210,095123	28,320000	988,257812	2020-10-13T23:06:54:222
988,270203	210,076630	28,320000	988,291260	2020-10-13T23:06:54:462
988,269592	210,079269	28,330000	988,263672	2020-10-13T23:06:54:703
988,272217	210,058136	28,320000	988,295898	2020-10-13T23:06:54:943
988,271423	210,066055	28,330000	988,264404	2020-10-13T23:06:55:183
988,272522	210,055496	28,330000	988,282227	2020-10-13T23:06:55:423
988,272095	210,060776	28,320000	988,268311	2020-10-13T23:06:55:664
988,273987	210,042282	28,330000	988,290771	2020-10-13T23:06:55:904
988,275879	210,026428	28,320000	988,292725	2020-10-13T23:06:56:144
988,277710	210,010574	28,330000	988,294678	2020-10-13T23:06:56:385
988,280945	209,984146	28,330000	988,310059	2020-10-13T23:06:56:624
988,282410	209,970932	28,320000	988,295410	2020-10-13T23:06:56:866
988,283630	209,960373	28,320000	988,294678	2020-10-13T23:06:57:105
988,284119	209,957733	28,330000	988,288330	2020-10-13T23:06:57:345
988,283752	209,960373	28,320000	988,280518	2020-10-13T23:06:57:586
988,282349	209,973587	28,330000	988,269531	2020-10-13T23:06:57:826
988,280762	209,986786	28,330000	988,266357	2020-10-13T23:06:58:067
988,282715	209,968292	28,330000	988,300537	2020-10-13T23:06:58:307
988,283936	209,957733	28,330000	988,294922	2020-10-13T23:06:58:546
988,283752	209,960373	28,330000	988,282471	2020-10-13T23:06:58:795
988,283752	209,960373	28,330000	988,283691	2020-10-13T23:06:59:027
988,281128	209,981506	28,320000	988,257080	2020-10-13T23:06:59:267
988,277527	210,013214	28,330000	988,244873	2020-10-13T23:06:59:507
988,276184	210,023788	28,330000	988,264160	2020-10-13T23:06:59:748
988,277039	210,018494	28,330000	988,284912	2020-10-13T23:06:59:989
988,277344	210,015854	28,330000	988,280029	2020-10-13T23:07:00:229
988,278809	210,002640	28,330000	988,292236	2020-10-13T23:07:00:468
988,278564	210,005295	28,330000	988,276367	2020-10-13T23:07:00:708
988,273315	210,050201	28,330000	988,226074	2020-10-13T23:07:00:948
988,271790	210,063416	28,330000	988,257812	2020-10-13T23:07:01:190
988,270020	210,076630	28,330000	988,254150	2020-10-13T23:07:01:430
988,270020	210,076630	28,330000	988,269775	2020-10-13T23:07:01:670
988,270386	210,073990	28,330000	988,273438	2020-10-13T23:07:01:911
988,265869	210,113617	28,330000	988,225586	2020-10-13T23:07:02:150
988,261292	210,150620	28,340000	988,219727	2020-10-13T23:07:02:391
988,260559	210,158539	28,330000	988,254395	2020-10-13T23:07:02:631
988,259094	210,169113	28,330000	988,245605	2020-10-13T23:07:02:871
988,256287	210,192886	28,340000	988,230713	2020-10-13T23:07:03:114
988,253845	210,214020	28,330000	988,231445	2020-10-13T23:07:03:352
988,251465	210,235168	28,340000	988,229980	2020-10-13T23:07:03:592
988,251831	210,232529	28,330000	988,255615	2020-10-13T23:07:03:832
988,252197	210,227234	28,340000	988,255371	2020-10-13T23:07:04:073
988,252686	210,224594	28,330000	988,257324	2020-10-13T23:07:04:313
988,249695	210,251022	28,340000	988,222900	2020-10-13T23:07:04:552
988,245605	210,285370	28,330000	988,209229	2020-10-13T23:07:04:793
988,241272	210,322357	28,340000	988,202148	2020-10-13T23:07:05:033
988,239075	210,340851	28,340000	988,219238	2020-10-13T23:07:05:274
988,241272	210,322357	28,340000	988,260742	2020-10-13T23:07:05:513
988,244568	210,293289	28,340000	988,274414	2020-10-13T23:07:05:753
988,245911	210,282730	28,349998	988,257812	2020-10-13T23:07:05:996
988,247192	210,272156	28,340000	988,258301	2020-10-13T23:07:06:235
988,249695	210,251022	28,340000	988,272461	2020-10-13T23:07:06:474
988,250732	210,240448	28,340000	988,260498	2020-10-13T23:07:06:715
988,250732	210,240448	28,340000	988,250244	2020-10-13T23:07:06:955
988,253845	210,214020	28,340000	988,281738	2020-10-13T23:07:07:196
988,255432	210,200821	28,340000	988,269531	2020-10-13T23:07:07:435
988,256775	210,190247	28,340000	988,268555	2020-10-13T23:07:07:676
988,256042	210,195526	28,340000	988,249023	2020-10-13T23:07:07:915
988,259766	210,163818	28,349998	988,293457	2020-10-13T23:07:08:156
988,259827	210,163818	28,340000	988,260498	2020-10-13T23:07:08:397
988,261658	210,147964	28,340000	988,277832	2020-10-13T23:07:08:637
988,259277	210,169113	28,340000	988,237549	2020-10-13T23:07:08:877
988,259277	210,169113	28,340000	988,259033	2020-10-13T23:07:09:118
988,259644	210,166473	28,349998	988,262695	2020-10-13T23:07:09:357
988,261963	210,145325	28,340000	988,282959	2020-10-13T23:07:09:598
988,260986	210,153259	28,340000	988,252197	2020-10-13T23:07:09:839
988,260010	210,161179	28,349998	988,250977	2020-10-13T23:07:10:335
988,259827	210,163818	28,340000	988,258301	2020-10-13T23:07:10:341
988,256287	210,192886	28,340000	988,224121	2020-10-13T23:07:10:575
988,252747	210,224594	28,349998	988,220459	2020-10-13T23:07:10:804
988,250732	210,240448	28,349998	988,232910	2020-10-13T23:07:11:037
988,247314	210,269516	28,340000	988,216553	2020-10-13T23:07:11:280
988,244568	210,293289	28,340000	988,219727	2020-10-13T23:07:11:517
988,245850	210,282730	28,340000	988,257080	2020-10-13T23:07:11:757
988,246704	210,274796	28,349998	988,254395	2020-10-13T23:07:12:001
988,246338	210,277435	28,349998	988,243164	2020-10-13T23:07:12:238
988,246094	210,280090	28,349998	988,243896	2020-10-13T23:07:12:478
988,244568	210,293289	28,349998	988,230957	2020-10-13T23:07:12:721
988,242615	210,309143	28,359999	988,225098	2020-10-13T23:07:12:958
988,240906	210,324997	28,340000	988,225342	2020-10-13T23:07:13:201
988,242065	210,314438	28,349998	988,252197	2020-10-13T23:07:13:439
988,240906	210,324997	28,349998	988,230469	2020-10-13T23:07:13:682
988,240479	210,327652	28,349998	988,236572	2020-10-13T23:07:13:923
988,241394	210,319717	28,349998	988,249756	2020-10-13T23:07:14:162
988,243530	210,301224	28,359999	988,262695	2020-10-13T23:07:14:404
988,242798	210,309143	28,359999	988,236572	2020-10-13T23:07:14:643
988,243103	210,306503	28,359999	988,245361	2020-10-13T23:07:14:883
988,245911	210,282730	28,369999	988,271240	2020-10-13T23:07:15:123
988,250427	210,243088	28,369999	988,290771	2020-10-13T23:07:15:364
988,250549	210,243088	28,369999	988,251709	2020-10-13T23:07:15:604
988,249329	210,253662	28,369999	988,238037	2020-10-13T23:07:15:844
988,250244	210,245728	28,379999	988,258545	2020-10-13T23:07:16:093
