x	y	z	ts
-4,001802	-2,095079	8,704401	2020-10-29T19:34:46:747
-4,032485	-2,106617	8,687440	2020-10-29T19:34:46:747
-4,050589	-2,030200	8,697206	2020-10-29T19:34:46:748
-4,205128	-1,693944	8,695851	2020-10-29T19:34:46:804
-4,217736	-1,688470	8,690808	2020-10-29T19:34:46:808
-4,238235	-1,679632	8,682545	2020-10-29T19:34:46:809
-4,716522	-1,626232	8,442759	2020-10-29T19:34:46:812
-4,894702	-1,430565	8,376500	2020-10-29T19:34:46:814
-4,993388	-1,321893	8,336010	2020-10-29T19:34:46:836
-5,139441	-1,217459	8,262828	2020-10-29T19:34:46:855
-5,370193	-1,116730	8,129227	2020-10-29T19:34:46:875
-5,712253	-1,037254	7,903459	2020-10-29T19:34:46:895
-6,138309	-0,999499	7,582384	2020-10-29T19:34:46:915
-6,593620	-0,984713	7,192002	2020-10-29T19:34:46:935
-5,578934	-1,679594	7,888273	2020-10-29T19:34:46:956
-5,726173	-1,946553	7,719602	2020-10-29T19:34:46:975
-6,018440	-1,941373	7,495321	2020-10-29T19:34:46:995
-6,314993	-1,927773	7,250858	2020-10-29T19:34:47:015
-6,608793	-1,908342	6,989455	2020-10-29T19:34:47:036
-6,873026	-1,880861	6,737526	2020-10-29T19:34:47:055
-7,131409	-1,853245	6,471389	2020-10-29T19:34:47:075
-7,372978	-1,811642	6,207056	2020-10-29T19:34:47:095
-7,630888	-1,729229	5,911827	2020-10-29T19:34:47:115
-7,893467	-1,617817	5,589833	2020-10-29T19:34:47:135
-8,128306	-1,494593	5,278941	2020-10-29T19:34:47:155
-8,365686	-1,345152	4,937230	2020-10-29T19:34:47:176
-8,563618	-1,201107	4,625168	2020-10-29T19:34:47:196
-8,733500	-1,072529	4,329669	2020-10-29T19:34:47:215
-8,882305	-0,943624	4,047791	2020-10-29T19:34:47:237
-9,019653	-0,756462	3,774123	2020-10-29T19:34:47:255
-9,134448	-0,559968	3,524014	2020-10-29T19:34:47:284
-9,225204	-0,380656	3,304706	2020-10-29T19:34:47:295
-9,294160	-0,240423	3,119483	2020-10-29T19:34:47:315
-9,351438	-0,193748	2,946770	2020-10-29T19:34:47:342
-9,397829	-0,189505	2,795582	2020-10-29T19:34:47:368
-9,446936	-0,219939	2,622484	2020-10-29T19:34:47:391
-9,487404	-0,277477	2,466284	2020-10-29T19:34:47:484
-9,530293	-0,360803	2,283361	2020-10-29T19:34:47:485
-9,359023	-2,129193	2,011370	2020-10-29T19:34:47:485
-9,417007	-2,268535	1,531046	2020-10-29T19:34:47:486
-9,412921	-2,399919	1,344504	2020-10-29T19:34:47:486
-9,334769	-2,776925	1,149416	2020-10-29T19:34:47:495
-9,249401	-3,034176	1,188590	2020-10-29T19:34:47:516
-9,140405	-3,376203	1,106634	2020-10-29T19:34:47:536
-9,216562	-3,206704	0,970779	2020-10-29T19:34:47:556
-9,285928	-3,028387	0,877950	2020-10-29T19:34:47:576
-9,346684	-2,852676	0,819840	2020-10-29T19:34:47:596
-9,403614	-2,667927	0,790306	2020-10-29T19:34:47:615
-9,459170	-2,475095	0,753917	2020-10-29T19:34:47:637
-9,501221	-2,320907	0,714552	2020-10-29T19:34:47:655
-9,539424	-2,174902	0,663006	2020-10-29T19:34:47:678
-9,556392	-2,114919	0,610634	2020-10-29T19:34:47:695
-9,560514	-2,112192	0,552802	2020-10-29T19:34:47:717
-9,555191	-2,145155	0,516745	2020-10-29T19:34:47:735
-9,544703	-2,198364	0,486048	2020-10-29T19:34:47:758
-9,527103	-2,276016	0,473739	2020-10-29T19:34:47:775
-9,504144	-2,373044	0,458576	2020-10-29T19:34:47:799
-9,501118	-2,385416	0,457097	2020-10-29T19:34:47:816
-9,515409	-2,327528	0,458229	2020-10-29T19:34:47:839
-9,530152	-2,264917	0,465542	2020-10-29T19:34:47:855
-9,544967	-2,198399	0,480659	2020-10-29T19:34:47:878
-9,556118	-2,146784	0,492254	2020-10-29T19:34:47:896
-9,561412	-2,127344	0,473495	2020-10-29T19:34:47:919
-9,565156	-2,111834	0,467267	2020-10-29T19:34:47:944
-9,346836	-1,876409	2,299159	2020-10-29T19:34:47:971
-9,333833	-1,940569	2,298728	2020-10-29T19:34:47:976
-9,330457	-1,964919	2,291736	2020-10-29T19:34:47:999
-9,323301	-1,988399	2,300590	2020-10-29T19:34:48:016
-9,313098	-2,012810	2,320601	2020-10-29T19:34:48:039
-9,301442	-2,034325	2,348420	2020-10-29T19:34:48:058
-9,290885	-2,056237	2,371020	2020-10-29T19:34:48:080
-9,278735	-2,085717	2,392746	2020-10-29T19:34:48:098
-9,264163	-2,151091	2,391332	2020-10-29T19:34:48:120
-9,249265	-2,233221	2,373649	2020-10-29T19:34:48:138
-9,229977	-2,333950	2,351722	2020-10-29T19:34:48:161
-9,212426	-2,434337	2,318532	2020-10-29T19:34:48:177
-9,196874	-2,534130	2,272901	2020-10-29T19:34:48:200
-9,187581	-2,629106	2,201486	2020-10-29T19:34:48:218
-9,191298	-2,720572	2,070967	2020-10-29T19:34:48:240
-9,203942	-2,771822	1,942891	2020-10-29T19:34:48:258
-9,208159	-2,738085	1,970553	2020-10-29T19:34:48:282
-9,267236	-2,712301	1,712351	2020-10-29T19:34:56:116
-9,328835	-2,644123	1,466917	2020-10-29T19:34:56:123
-9,395528	-2,528867	1,224449	2020-10-29T19:34:56:142
-9,456547	-2,391243	1,012951	2020-10-29T19:34:56:149
-9,502524	-2,256366	0,883867	2020-10-29T19:34:56:156
-7,460438	-5,944089	2,275971	2020-10-29T19:34:56:170
-9,391022	-2,563540	-1,186324	2020-10-29T19:34:56:195
-9,460726	-2,421566	-0,895030	2020-10-29T19:34:56:212
-9,467732	-2,508610	-0,489180	2020-10-29T19:34:56:236
-9,567911	-2,150468	0,030831	2020-10-29T19:34:56:252
-9,562346	-1,893291	1,071159	2020-10-29T19:34:56:277
-9,669183	-1,521214	0,602653	2020-10-29T19:34:56:292
-9,701066	-1,330313	0,538491	2020-10-29T19:34:56:314
-9,723879	-1,173483	0,489389	2020-10-29T19:34:56:330
-9,737007	-1,072956	0,458079	2020-10-29T19:34:56:356
-9,741089	-1,040119	0,446899	2020-10-29T19:34:56:372
-9,738710	-1,061947	0,447407	2020-10-29T19:34:56:394
-9,726205	-1,164455	0,464084	2020-10-29T19:34:56:412
-9,702127	-1,338056	0,498705	2020-10-29T19:34:56:435
-9,659272	-1,607143	0,534722	2020-10-29T19:34:56:452
-9,610473	-1,868580	0,563560	2020-10-29T19:34:56:474
-9,552797	-2,139977	0,578753	2020-10-29T19:34:56:492
-9,510484	-2,317822	0,590582	2020-10-29T19:34:56:515
-9,476218	-2,454226	0,590300	2020-10-29T19:34:56:532
-9,457467	-2,526266	0,587088	2020-10-29T19:34:56:555
-9,463229	-2,503870	0,590184	2020-10-29T19:34:56:571
-9,478471	-2,443472	0,598679	2020-10-29T19:34:56:594
-9,490825	-2,393328	0,605487	2020-10-29T19:34:56:612
-9,483837	-2,425799	0,585422	2020-10-29T19:34:56:634
-9,457481	-2,536835	0,539347	2020-10-29T19:34:56:652
-9,425994	-2,661463	0,487475	2020-10-29T19:34:56:675
-9,414898	-2,709830	0,432320	2020-10-29T19:34:56:692
-9,454726	-2,575998	0,377860	2020-10-29T19:34:56:714
-9,547720	-2,213840	0,332165	2020-10-29T19:34:56:732
-9,634011	-1,806680	0,303511	2020-10-29T19:34:56:757
-9,692674	-1,464580	0,278328	2020-10-29T19:34:56:771
-9,719238	-1,279037	0,266176	2020-10-29T19:34:56:794
-9,731394	-1,182568	0,268113	2020-10-29T19:34:56:811
-9,736843	-1,137095	0,266987	2020-10-29T19:34:56:835
-9,740088	-1,107886	0,271433	2020-10-29T19:34:56:853
-9,741749	-1,093295	0,270979	2020-10-29T19:34:56:874
-9,741864	-1,092609	0,269584	2020-10-29T19:34:56:891
-9,193656	-3,308457	0,837372	2020-10-29T19:34:56:915
-9,128193	-3,471680	0,891017	2020-10-29T19:34:56:931
-9,045708	-3,670573	0,934057	2020-10-29T19:34:56:955
-8,951976	-3,884817	0,969900	2020-10-29T19:34:56:972
-8,843122	-4,115935	1,014223	2020-10-29T19:34:56:996
-8,718489	-4,364021	1,055299	2020-10-29T19:34:57:011
-8,592460	-4,597606	1,096379	2020-10-29T19:34:57:035
-8,450552	-4,843607	1,139306	2020-10-29T19:34:57:052
-8,308232	-5,071588	1,192752	2020-10-29T19:34:57:075
-8,142279	-5,321985	1,245053	2020-10-29T19:34:57:092
-7,953001	-5,589139	1,296799	2020-10-29T19:34:57:114
-7,761298	-5,838589	1,357761	2020-10-29T19:34:57:131
-7,597540	-6,030826	1,441149	2020-10-29T19:34:57:156
-7,475618	-6,156285	1,544563	2020-10-29T19:34:57:172
-7,390044	-6,234734	1,638821	2020-10-29T19:34:57:195
-7,311376	-6,308595	1,707569	2020-10-29T19:34:57:212
-7,232359	-6,389897	1,741431	2020-10-29T19:34:57:236
-7,136346	-6,497399	1,739754	2020-10-29T19:34:57:252
-9,458694	-2,360518	-1,063694	2020-10-29T19:34:57:276
-9,326499	-2,869525	-0,976029	2020-10-29T19:34:57:292
-9,234950	-3,143421	-1,002485	2020-10-29T19:34:57:315
-9,120105	-3,456702	-1,022389	2020-10-29T19:34:57:332
-8,973549	-3,818800	-1,030809	2020-10-29T19:34:57:355
-8,797213	-4,208202	-1,034640	2020-10-29T19:34:57:371
-8,589172	-4,618622	-1,031904	2020-10-29T19:34:57:396
-8,340459	-5,057206	-1,015778	2020-10-29T19:34:57:412
-8,056127	-5,501716	-1,000164	2020-10-29T19:34:57:435
-7,670038	-6,033643	-0,967495	2020-10-29T19:34:57:452
-7,169727	-6,633622	-0,872040	2020-10-29T19:34:57:477
-6,467594	-7,338301	-0,699972	2020-10-29T19:34:57:491
-5,672175	-7,984430	-0,495676	2020-10-29T19:34:57:515
-4,879063	-8,502389	-0,272984	2020-10-29T19:34:57:532
-4,129100	-8,894920	-0,036190	2020-10-29T19:34:57:556
-3,484197	-9,164911	0,187527	2020-10-29T19:34:57:572
-2,900951	-9,358924	0,406704	2020-10-29T19:34:57:595
-2,392485	-9,490447	0,614665	2020-10-29T19:34:57:612
-1,993789	-9,570970	0,769236	2020-10-29T19:34:57:636
-1,669948	-9,621473	0,899392	2020-10-29T19:34:57:652
-1,404979	-9,650625	1,030465	2020-10-29T19:34:57:675
-1,189198	-9,662881	1,176829	2020-10-29T19:34:57:692
-0,992091	-9,665483	1,328371	2020-10-29T19:34:57:717
-0,804305	-9,662080	1,472310	2020-10-29T19:34:57:732
-0,629297	-9,646275	1,650383	2020-10-29T19:34:57:756
-0,501679	-9,617958	1,847587	2020-10-29T19:34:57:772
-0,388606	-9,589985	2,012850	2020-10-29T19:34:57:795
-0,291350	-9,567153	2,134265	2020-10-29T19:34:57:812
-0,205073	-9,555409	2,196016	2020-10-29T19:34:57:835
-0,114968	-9,552190	2,216492	2020-10-29T19:34:57:853
-0,021891	-9,555415	2,205437	2020-10-29T19:34:57:876
-0,038156	-9,564848	2,163933	2020-10-29T19:34:57:892
-0,177208	-9,584264	2,069025	2020-10-29T19:34:57:916
-0,440938	-9,615746	1,874401	2020-10-29T19:34:57:932
-0,872099	-9,645734	1,539367	2020-10-29T19:34:57:958
-1,486169	-9,633716	1,073876	2020-10-29T19:34:57:972
-5,764963	-6,589529	-4,417431	2020-10-29T19:34:57:996
-6,015713	-5,562611	-5,388780	2020-10-29T19:34:58:012
-5,928846	-5,163008	-5,861955	2020-10-29T19:34:58:037
-5,777367	-4,715238	-6,368591	2020-10-29T19:34:58:053
-5,590180	-4,248065	-6,846475	2020-10-29T19:34:58:076
-5,343745	-3,772093	-7,306579	2020-10-29T19:34:58:092
-5,069103	-3,347582	-7,698589	2020-10-29T19:34:58:116
-4,798010	-2,962767	-8,023185	2020-10-29T19:34:58:133
-4,533768	-2,609800	-8,294834	2020-10-29T19:34:58:156
-4,309461	-2,345046	-8,491154	2020-10-29T19:34:58:172
-4,201623	-2,235382	-8,574369	2020-10-29T19:34:58:198
-4,129584	-2,159448	-8,628656	2020-10-29T19:34:58:212
-4,079518	-2,105581	-8,665705	2020-10-29T19:34:58:236
-3,947462	-1,981946	-8,755559	2020-10-29T19:34:58:253
-3,892483	-1,939570	-8,789598	2020-10-29T19:34:58:276
-3,833891	-1,896822	-8,824610	2020-10-29T19:34:58:293
-3,745328	-1,825770	-8,877470	2020-10-29T19:34:58:316
-3,640116	-1,739623	-8,938325	2020-10-29T19:34:58:332
-3,512026	-1,615730	-9,012518	2020-10-29T19:34:58:357
-3,450216	-1,509236	-9,054756	2020-10-29T19:34:58:373
-3,431859	-1,418948	-9,076304	2020-10-29T19:34:58:396
-3,433234	-1,322327	-9,090365	2020-10-29T19:34:58:413
-3,457290	-1,244385	-9,092252	2020-10-29T19:34:58:438
-3,493696	-1,187808	-9,085900	2020-10-29T19:34:58:453
-3,547715	-1,184987	-9,065313	2020-10-29T19:34:58:476
-3,617545	-1,231742	-9,031421	2020-10-29T19:34:58:493
-3,646327	-1,247474	-9,017676	2020-10-29T19:34:58:516
-3,650970	-1,238762	-9,016999	2020-10-29T19:34:58:533
-4,080706	-1,301979	-8,821739	2020-10-29T19:34:58:557
-3,926573	-1,185139	-8,907742	2020-10-29T19:34:58:572
-3,822162	-1,178462	-8,953920	2020-10-29T19:34:58:597
-3,738965	-1,183801	-8,988278	2020-10-29T19:34:58:613
-3,681376	-1,181847	-9,012275	2020-10-29T19:34:58:635
-3,666937	-1,190041	-9,017082	2020-10-29T19:34:58:656
-3,665372	-1,198923	-9,016541	2020-10-29T19:34:58:678
-3,695180	-1,245070	-8,998101	2020-10-29T19:34:58:693
-3,698144	-1,326467	-8,985244	2020-10-29T19:34:58:716
-3,688813	-1,403288	-8,977407	2020-10-29T19:34:58:733
-3,656692	-2,938093	-8,612003	2020-10-29T19:34:58:758
-3,622947	-2,085258	-8,871096	2020-10-29T19:34:58:774
-3,556513	-2,038246	-8,908825	2020-10-29T19:34:58:796
-3,521006	-1,997121	-8,932212	2020-10-29T19:34:58:813
-3,509282	-1,954971	-8,946139	2020-10-29T19:34:58:836
-3,531760	-1,931100	-8,942478	2020-10-29T19:34:58:853
-3,587798	-1,919676	-8,922608	2020-10-29T19:34:58:876
-3,662841	-1,911751	-8,893772	2020-10-29T19:34:58:893
-3,715734	-1,881719	-8,878222	2020-10-29T19:34:58:917
-3,739723	-1,856312	-8,873498	2020-10-29T19:34:58:933
-3,758192	-1,826497	-8,871881	2020-10-29T19:34:58:956
-3,781756	-1,789412	-8,869426	2020-10-29T19:34:58:973
-3,811586	-1,744657	-8,865572	2020-10-29T19:34:58:996
-3,848979	-1,672022	-8,863413	2020-10-29T19:34:59:013
-3,870420	-1,616436	-8,864388	2020-10-29T19:34:59:037
-3,874025	-1,580563	-8,869280	2020-10-29T19:34:59:054
-3,868493	-1,558185	-8,875652	2020-10-29T19:34:59:077
-3,845229	-1,522883	-8,891874	2020-10-29T19:34:59:093
-3,821456	-1,466942	-8,911506	2020-10-29T19:34:59:116
-3,840255	-1,396199	-8,914788	2020-10-29T19:34:59:133
-3,879717	-1,369359	-8,901855	2020-10-29T19:34:59:158
-3,916399	-1,378258	-8,884402	2020-10-29T19:34:59:173
-3,925741	-1,397763	-8,877229	2020-10-29T19:34:59:196
-3,910504	-1,403195	-8,883096	2020-10-29T19:34:59:213
-3,905600	-1,393123	-8,886838	2020-10-29T19:34:59:237
-3,908317	-1,384407	-8,887005	2020-10-29T19:34:59:254
-3,920377	-1,388322	-8,881081	2020-10-29T19:34:59:276
-3,926930	-1,399130	-8,876488	2020-10-29T19:34:59:294
-3,944927	-1,400976	-8,868213	2020-10-29T19:34:59:317
-3,973349	-1,389460	-8,857329	2020-10-29T19:34:59:333
-4,018361	-1,361441	-8,841360	2020-10-29T19:34:59:356
-4,068767	-1,333303	-8,822575	2020-10-29T19:34:59:374
-4,115213	-1,314317	-8,803862	2020-10-29T19:34:59:398
-4,158412	-1,309137	-8,784313	2020-10-29T19:34:59:413
-4,205706	-1,313012	-8,761189	2020-10-29T19:34:59:438
-4,263679	-1,309523	-8,733646	2020-10-29T19:34:59:454
-4,318771	-1,294384	-8,708798	2020-10-29T19:34:59:477
-4,363136	-1,267600	-8,690605	2020-10-29T19:34:59:493
-4,379124	-1,235205	-8,687227	2020-10-29T19:34:59:516
-4,408777	-1,191232	-8,678366	2020-10-29T19:34:59:534
-4,463240	-1,140675	-8,657293	2020-10-29T19:34:59:558
-4,529819	-1,099673	-8,627969	2020-10-29T19:34:59:574
-4,604874	-1,065525	-8,592449	2020-10-29T19:34:59:596
-4,679952	-1,043794	-8,554468	2020-10-29T19:34:59:614
-4,760461	-1,028593	-8,511779	2020-10-29T19:34:59:638
-4,799508	-1,036342	-8,488881	2020-10-29T19:34:59:654
-4,805542	-1,052162	-8,483520	2020-10-29T19:34:59:677
-4,754633	-1,082306	-8,508376	2020-10-29T19:34:59:694
-4,697676	-1,107475	-8,536728	2020-10-29T19:34:59:717
-4,671544	-1,113180	-8,550316	2020-10-29T19:34:59:734
-4,735998	-1,077397	-8,519385	2020-10-29T19:34:59:757
-4,838728	-1,032623	-8,467041	2020-10-29T19:34:59:774
-4,999142	-0,978424	-8,379836	2020-10-29T19:34:59:797
-5,210555	-0,921557	-8,256587	2020-10-29T19:34:59:814
-5,400759	-0,880477	-8,137994	2020-10-29T19:34:59:837
-5,496220	-0,871286	-8,074826	2020-10-29T19:34:59:854
-2,930790	-1,362610	-9,258734	2020-10-29T19:34:59:880
-3,218269	-1,675033	-9,110839	2020-10-29T19:34:59:894
-3,310974	-1,686925	-9,075357	2020-10-29T19:34:59:916
-3,408838	-1,713957	-9,033967	2020-10-29T19:34:59:934
-3,505459	-1,769312	-8,986194	2020-10-29T19:34:59:958
-3,590059	-1,833950	-8,939714	2020-10-29T19:34:59:974
-3,682469	-1,893799	-8,889506	2020-10-29T19:34:59:996
-3,792918	-1,964408	-8,827528	2020-10-29T19:35:00:014
-3,912955	-2,049785	-8,755429	2020-10-29T19:35:00:038
-4,025045	-2,127930	-8,685696	2020-10-29T19:35:00:055
-4,114900	-2,188791	-8,628278	2020-10-29T19:35:00:077
-4,200188	-2,230208	-8,576420	2020-10-29T19:35:00:094
-4,291041	-2,238216	-8,529229	2020-10-29T19:35:00:119
-4,402833	-2,162261	-8,491765	2020-10-29T19:35:00:134
-4,542643	-2,082449	-8,437901	2020-10-29T19:35:00:158
-4,713257	-2,015873	-8,360134	2020-10-29T19:35:00:175
-4,874461	-1,993954	-8,272494	2020-10-29T19:35:00:198
-5,050858	-1,965061	-8,172989	2020-10-29T19:35:00:215
-5,233263	-1,939186	-8,063678	2020-10-29T19:35:00:238
-5,421679	-1,917059	-7,943592	2020-10-29T19:35:00:255
-5,586843	-1,904541	-7,831366	2020-10-29T19:35:00:278
-5,737208	-1,880018	-7,727895	2020-10-29T19:35:00:294
-5,887815	-1,846224	-7,622039	2020-10-29T19:35:00:317
-6,051496	-1,801377	-7,503654	2020-10-29T19:35:00:334
-6,252366	-0,954463	-7,494485	2020-10-29T19:35:00:361
-6,536523	-0,810458	-7,265495	2020-10-29T19:35:00:374
-6,919123	-0,793164	-6,904130	2020-10-29T19:35:00:397
-7,259446	-0,783988	-6,546464	2020-10-29T19:35:00:414
-7,497113	-0,791352	-6,271957	2020-10-29T19:35:00:438
-7,669488	-0,797808	-6,059112	2020-10-29T19:35:00:455
-7,790383	-0,798416	-5,902783	2020-10-29T19:35:00:477
-7,901287	-0,790784	-5,754539	2020-10-29T19:35:00:494
-5,931229	-1,462778	-7,671453	2020-10-29T19:35:00:518
-6,175336	-1,260617	-7,513085	2020-10-29T19:35:00:535
-6,437784	-1,249165	-7,291428	2020-10-29T19:35:00:558
-6,687664	-1,232571	-7,065855	2020-10-29T19:35:00:575
-6,935860	-1,210209	-6,826392	2020-10-29T19:35:00:599
-7,166735	-1,188221	-6,587596	2020-10-29T19:35:00:615
-7,376519	-1,155948	-6,357762	2020-10-29T19:35:00:637
-7,564745	-1,123775	-6,138578	2020-10-29T19:35:00:655
-7,717184	-1,084428	-5,953106	2020-10-29T19:35:00:678
-7,867619	-1,021762	-5,764283	2020-10-29T19:35:00:695
-8,011246	-0,935931	-5,578024	2020-10-29T19:35:00:717
-8,149409	-0,833123	-5,391050	2020-10-29T19:35:00:735
-8,284586	-0,715778	-5,198431	2020-10-29T19:35:00:760
-8,394384	-0,608519	-5,033329	2020-10-29T19:35:00:775
-8,483662	-0,509266	-4,892701	2020-10-29T19:35:00:798
-8,553135	-0,421471	-4,778769	2020-10-29T19:35:00:815
-8,599672	-0,355832	-4,699936	2020-10-29T19:35:00:839
-8,615418	-0,322711	-4,673415	2020-10-29T19:35:00:855
-8,612146	-0,289647	-4,681605	2020-10-29T19:35:00:878
-8,628762	-0,219779	-4,654734	2020-10-29T19:35:00:895
-8,663682	-0,103113	-4,593514	2020-10-29T19:35:00:918
-8,719787	0,065595	-4,486802	2020-10-29T19:35:00:935
-8,748286	0,209158	-4,426525	2020-10-29T19:35:00:959
-8,747110	0,314963	-4,422583	2020-10-29T19:35:00:975
-8,728037	0,381856	-4,454878	2020-10-29T19:35:00:999
-8,700737	0,416815	-4,504868	2020-10-29T19:35:01:015
-8,667745	0,419337	-4,567794	2020-10-29T19:35:01:038
-8,623693	0,387023	-4,653227	2020-10-29T19:35:01:056
-8,570495	0,331251	-4,754711	2020-10-29T19:35:01:080
-8,508368	0,268408	-4,868882	2020-10-29T19:35:01:095
-8,450286	0,222732	-4,971261	2020-10-29T19:35:01:123
-8,401611	0,201551	-5,053978	2020-10-29T19:35:01:137
-8,362753	0,208994	-5,117721	2020-10-29T19:35:01:163
-8,329038	0,231731	-5,171443	2020-10-29T19:35:01:186
-4,216868	1,253619	-8,764522	2020-10-29T19:35:01:259
-3,969344	0,982056	-8,913487	2020-10-29T19:35:01:262
-3,878199	0,935320	-8,958523	2020-10-29T19:35:01:263
-3,794336	0,875686	-9,000365	2020-10-29T19:35:01:268
-4,337107	-0,409632	-8,785903	2020-10-29T19:35:01:301
-4,398014	-1,124145	-8,692764	2020-10-29T19:35:01:302
-4,351871	-1,164225	-8,710693	2020-10-29T19:35:01:323
-4,291428	-1,214922	-8,733727	2020-10-29T19:35:01:341
-4,211143	-1,269238	-8,765027	2020-10-29T19:35:01:358
-4,115552	-1,308833	-8,804520	2020-10-29T19:35:01:375
-4,011724	-1,330572	-8,849070	2020-10-29T19:35:01:398
-3,904396	-1,328403	-8,897270	2020-10-29T19:35:01:416
-3,805087	-1,304577	-8,943701	2020-10-29T19:35:01:439
-3,708516	-1,266763	-8,989583	2020-10-29T19:35:01:456
-3,555983	-0,627644	-9,117644	2020-10-29T19:35:01:480
-3,728991	-1,007324	-9,013895	2020-10-29T19:35:01:496
-3,663885	-1,020910	-9,039031	2020-10-29T19:35:01:518
-3,615602	-1,054433	-9,054611	2020-10-29T19:35:01:536
-3,588755	-1,108295	-9,058858	2020-10-29T19:35:01:561
-3,567750	-1,178986	-9,058230	2020-10-29T19:35:01:576
-3,547868	-1,264087	-9,054563	2020-10-29T19:35:01:599
-3,520658	-1,354863	-9,052055	2020-10-29T19:35:01:616
-3,488361	-1,439713	-9,051461	2020-10-29T19:35:01:639
-3,451110	-1,515129	-9,053431	2020-10-29T19:35:01:656
-3,417797	-1,571895	-9,056390	2020-10-29T19:35:01:678
-3,383886	-1,626071	-9,059558	2020-10-29T19:35:01:696
-3,351835	-1,673901	-9,062761	2020-10-29T19:35:01:720
-3,318183	-1,722242	-9,066087	2020-10-29T19:35:01:736
-3,284031	-1,778955	-9,067571	2020-10-29T19:35:01:760
-3,249598	-1,850572	-9,065643	2020-10-29T19:35:01:776
-3,217400	-1,889276	-9,069143	2020-10-29T19:35:01:800
-3,191795	-1,928248	-9,069988	2020-10-29T19:35:01:816
-3,205787	-1,977481	-9,054440	2020-10-29T19:35:01:839
-3,239606	-2,019389	-9,033128	2020-10-29T19:35:01:857
-3,273355	-2,047353	-9,014647	2020-10-29T19:35:01:880
-3,301761	-2,066231	-8,999969	2020-10-29T19:35:01:896
-4,276414	-1,197301	-8,743520	2020-10-29T19:35:01:920
-4,359854	-0,835152	-8,744403	2020-10-29T19:35:01:936
-4,366268	-0,833623	-8,741348	2020-10-29T19:35:01:960
-4,383622	-0,812313	-8,734666	2020-10-29T19:35:01:976
-4,369012	-0,773389	-8,745512	2020-10-29T19:35:01:999
-4,344814	-0,713953	-8,762605	2020-10-29T19:35:02:017
-6,031872	-0,510863	-7,715304	2020-10-29T19:35:02:043
-5,222053	-1,258752	-8,204638	2020-10-29T19:35:02:057
-4,641484	-2,000995	-8,403750	2020-10-29T19:35:02:080
-4,586065	-2,335958	-8,347556	2020-10-29T19:35:02:098
-4,564797	-2,297958	-8,369731	2020-10-29T19:35:02:120
-4,567665	-2,259490	-8,378635	2020-10-29T19:35:02:137
-4,578863	-2,213979	-8,384670	2020-10-29T19:35:02:159
-4,582108	-2,162699	-8,396273	2020-10-29T19:35:02:176
-4,572228	-2,115429	-8,413684	2020-10-29T19:35:02:200
-4,544831	-2,078305	-8,437745	2020-10-29T19:35:02:217
-4,517091	-2,049743	-8,459599	2020-10-29T19:35:02:239
-4,487035	-2,031122	-8,480062	2020-10-29T19:35:02:257
-4,460912	-2,026411	-8,494958	2020-10-29T19:35:02:282
-4,436270	-2,030574	-8,506860	2020-10-29T19:35:02:296
-4,412064	-2,049433	-8,514922	2020-10-29T19:35:02:319
-4,400366	-2,082360	-8,512986	2020-10-29T19:35:02:337
-4,396451	-2,122466	-8,505101	2020-10-29T19:35:02:360
-4,390515	-2,164140	-8,497662	2020-10-29T19:35:02:377
-4,379855	-2,206547	-8,492255	2020-10-29T19:35:02:400
-4,361480	-2,245070	-8,491615	2020-10-29T19:35:02:417
-4,337766	-2,276428	-8,495414	2020-10-29T19:35:02:440
-4,304888	-2,295161	-8,507089	2020-10-29T19:35:02:457
-4,269068	-2,298172	-8,524309	2020-10-29T19:35:02:479
-4,223099	-2,292299	-8,548754	2020-10-29T19:35:02:497
-4,153980	-2,287050	-8,583953	2020-10-29T19:35:02:522
-4,073290	-2,272626	-8,626348	2020-10-29T19:35:02:536
-4,352825	-0,968768	-8,734117	2020-10-29T19:35:02:561
-5,163094	0,268464	-8,333113	2020-10-29T19:35:02:577
-5,643644	0,307761	-8,014047	2020-10-29T19:35:02:600
-5,913776	0,285648	-7,817675	2020-10-29T19:35:02:617
-6,317640	0,224789	-7,497152	2020-10-29T19:35:02:640
-6,841074	0,190316	-7,023808	2020-10-29T19:35:02:657
-7,388409	0,144076	-6,446785	2020-10-29T19:35:02:681
-7,698803	0,110783	-6,073429	2020-10-29T19:35:02:697
-7,917134	0,075671	-5,786506	2020-10-29T19:35:02:720
-8,079082	0,036480	-5,558551	2020-10-29T19:35:02:737
-8,154353	0,009561	-5,447644	2020-10-29T19:35:02:763
-8,118337	0,023218	-5,501132	2020-10-29T19:35:02:777
-8,058861	0,048344	-5,587738	2020-10-29T19:35:02:800
-7,894500	0,121418	-5,816572	2020-10-29T19:35:02:817
-7,694370	0,211914	-6,076359	2020-10-29T19:35:02:840
-7,490298	0,306065	-6,322353	2020-10-29T19:35:02:858
-7,375885	0,361828	-6,452579	2020-10-29T19:35:02:880
-7,356031	0,375435	-6,474430	2020-10-29T19:35:02:897
-7,436538	0,346437	-6,383437	2020-10-29T19:35:02:921
-7,580196	0,288403	-6,215129	2020-10-29T19:35:02:937
-7,744599	0,212496	-6,012188	2020-10-29T19:35:02:960
-7,897067	0,120852	-5,813098	2020-10-29T19:35:02:979
-7,987495	0,043183	-5,689327	2020-10-29T19:35:03:002
-8,013516	-0,003914	-5,652780	2020-10-29T19:35:03:017
-8,013317	-0,038887	-5,652931	2020-10-29T19:35:03:040
-7,992793	-0,042524	-5,681887	2020-10-29T19:35:03:058
-7,975613	-0,046524	-5,705945	2020-10-29T19:35:03:081
-7,959074	-0,047855	-5,728981	2020-10-29T19:35:03:099
-7,957422	-0,067623	-5,731077	2020-10-29T19:35:03:121
-7,963417	-0,099321	-5,722282	2020-10-29T19:35:03:137
-3,024630	-0,067582	-9,328314	2020-10-29T19:35:03:162
-3,065346	-0,191435	-9,313292	2020-10-29T19:35:03:178
-2,981076	-0,299878	-9,337754	2020-10-29T19:35:03:201
-2,934757	-0,258259	-9,353657	2020-10-29T19:35:03:218
-2,343953	-0,191646	-9,520480	2020-10-29T19:35:03:242
-5,633422	-0,377170	-8,018271	2020-10-29T19:35:03:258
-6,160007	-0,413079	-7,619321	2020-10-29T19:35:03:280
-6,512497	-0,438425	-7,318849	2020-10-29T19:35:03:297
-6,763745	-0,446589	-7,086797	2020-10-29T19:35:03:322
-6,948208	-0,443252	-6,906252	2020-10-29T19:35:03:356
-7,070159	-0,451408	-6,780816	2020-10-29T19:35:03:405
-7,140034	-0,509917	-6,703006	2020-10-29T19:35:03:407
-7,311526	-0,565861	-6,510896	2020-10-29T19:35:03:407
-7,549009	-0,674330	-6,223193	2020-10-29T19:35:03:418
-7,758675	-0,810547	-5,942757	2020-10-29T19:35:03:442
-7,914356	-0,949311	-5,712457	2020-10-29T19:35:03:459
-8,018573	-1,064927	-5,544259	2020-10-29T19:35:03:482
-8,105731	-1,164501	-5,395502	2020-10-29T19:35:03:498
-8,187890	-1,210037	-5,259720	2020-10-29T19:35:03:521
-8,289613	-1,247663	-5,088815	2020-10-29T19:35:03:538
-8,391928	-1,291197	-4,907010	2020-10-29T19:35:03:562
-8,464792	-1,336163	-4,767845	2020-10-29T19:35:03:578
-8,502924	-1,405682	-4,679180	2020-10-29T19:35:03:600
-8,513351	-1,520843	-4,623880	2020-10-29T19:35:03:618
-8,513459	-1,664320	-4,573995	2020-10-29T19:35:03:642
-8,520368	-1,812526	-4,504273	2020-10-29T19:35:03:659
-8,527534	-1,938258	-4,437873	2020-10-29T19:35:03:680
-8,528595	-2,066470	-4,377574	2020-10-29T19:35:03:698
-8,524649	-2,184597	-4,327619	2020-10-29T19:35:03:722
-8,511604	-2,306302	-4,289983	2020-10-29T19:35:03:738
-8,489415	-2,427665	-4,266927	2020-10-29T19:35:03:762
-8,461161	-2,542429	-4,256196	2020-10-29T19:35:03:778
-5,215792	-2,065284	-8,043662	2020-10-29T19:35:03:802
-5,467504	-2,051683	-7,878285	2020-10-29T19:35:03:818
-5,334545	-2,064000	-7,965734	2020-10-29T19:35:03:841
-5,223380	-2,075788	-8,036031	2020-10-29T19:35:03:858
-5,145067	-2,091910	-8,082239	2020-10-29T19:35:03:882
-5,090299	-2,109337	-8,112332	2020-10-29T19:35:03:898
-5,080211	-2,144997	-8,109305	2020-10-29T19:35:03:921
-5,091840	-2,197684	-8,087875	2020-10-29T19:35:03:939
-5,881866	-2,876404	-7,300708	2020-10-29T19:35:03:965
-6,326344	-3,274415	-6,739878	2020-10-29T19:35:03:978
-6,320826	-3,350459	-6,707606	2020-10-29T19:35:04:002
-6,323992	-3,430275	-6,664137	2020-10-29T19:35:04:019
-6,324131	-3,493197	-6,631238	2020-10-29T19:35:04:042
-6,321611	-3,559504	-6,598299	2020-10-29T19:35:04:059
-6,328114	-3,612964	-6,562915	2020-10-29T19:35:04:081
-6,329989	-3,675932	-6,526036	2020-10-29T19:35:04:099
-6,339701	-3,739096	-6,480566	2020-10-29T19:35:04:122
-6,384749	-3,813319	-6,392493	2020-10-29T19:35:04:139
-6,469992	-3,877643	-6,266855	2020-10-29T19:35:04:161
-6,600052	-3,942767	-6,088044	2020-10-29T19:35:04:179
-6,786758	-4,018964	-5,827369	2020-10-29T19:35:04:203
-7,042203	-4,105021	-5,452207	2020-10-29T19:35:04:218
-7,318631	-4,190690	-5,004612	2020-10-29T19:35:04:242
-7,641321	-4,277134	-4,414377	2020-10-29T19:35:04:260
-7,952541	-4,328306	-3,767391	2020-10-29T19:35:04:282
-8,181107	-4,292768	-3,288165	2020-10-29T19:35:04:299
-8,296795	-4,251460	-3,042806	2020-10-29T19:35:04:321
-8,391010	-4,157099	-2,912019	2020-10-29T19:35:04:339
-8,437807	-4,053934	-2,922227	2020-10-29T19:35:04:363
-8,420392	-4,050959	-2,976091	2020-10-29T19:35:04:380
-8,341351	-4,212426	-2,974511	2020-10-29T19:35:04:431
-8,163627	-4,608667	-2,878500	2020-10-29T19:35:04:432
-7,875682	-5,144811	-2,770368	2020-10-29T19:35:04:445
-7,682564	-5,500550	-2,625364	2020-10-29T19:35:04:460
-7,540877	-5,752460	-2,492943	2020-10-29T19:35:04:482
-7,437380	-5,924850	-2,398316	2020-10-29T19:35:04:499
-7,433554	-5,927668	-2,403208	2020-10-29T19:35:04:522
-7,511405	-5,798028	-2,476299	2020-10-29T19:35:04:539
-7,588966	-5,663155	-2,550815	2020-10-29T19:35:04:562
-7,577544	-5,669862	-2,569801	2020-10-29T19:35:04:579
-7,555189	-5,732035	-2,496652	2020-10-29T19:35:04:603
-7,477846	-5,905807	-2,318115	2020-10-29T19:35:04:619
-8,662924	-4,276115	-1,684926	2020-10-29T19:35:04:643
-8,871984	-2,751438	-3,144500	2020-10-29T19:35:04:660
-8,875713	-2,753713	-3,131959	2020-10-29T19:35:04:684
-8,755393	-2,867743	-3,359989	2020-10-29T19:35:04:699
-8,590903	-2,983530	-3,669512	2020-10-29T19:35:04:722
-8,493739	-3,070496	-3,820842	2020-10-29T19:35:04:739
-8,436685	-3,127165	-3,900459	2020-10-29T19:35:04:764
-8,409324	-3,207814	-3,894046	2020-10-29T19:35:04:780
-8,347150	-3,326355	-3,928211	2020-10-29T19:35:04:803
-8,303493	-3,415945	-3,943818	2020-10-29T19:35:04:819
-8,503050	-3,022147	-3,838640	2020-10-29T19:35:08:107
-8,659090	-2,694459	-3,732350	2020-10-29T19:35:08:108
-8,796524	-2,398307	-3,611047	2020-10-29T19:35:08:137
-8,888198	-2,179107	-3,524458	2020-10-29T19:35:08:138
-8,955492	-2,003873	-3,457461	2020-10-29T19:35:08:168
-9,011233	-1,865486	-3,389397	2020-10-29T19:35:08:179
-9,061518	-1,757719	-3,312056	2020-10-29T19:35:08:199
-9,107831	-1,668580	-3,230114	2020-10-29T19:35:08:236
-9,150350	-1,597112	-3,144952	2020-10-29T19:35:08:304
-9,188859	-1,517158	-3,071397	2020-10-29T19:35:08:304
-9,233916	-1,463415	-2,960337	2020-10-29T19:35:08:305
-9,269084	-1,405967	-2,877105	2020-10-29T19:35:08:305
-9,296910	-1,317098	-2,828974	2020-10-29T19:35:08:323
-9,302443	-1,248278	-2,841961	2020-10-29T19:35:08:344
-9,292551	-1,198444	-2,895273	2020-10-29T19:35:08:358
-9,279818	-1,145309	-2,956965	2020-10-29T19:35:08:377
-9,263476	-3,189217	-0,432754	2020-10-29T19:35:08:399
-9,122023	-3,554846	-0,567581	2020-10-29T19:35:08:416
-9,178497	-3,370229	-0,753075	2020-10-29T19:35:08:440
-9,208718	-3,245551	-0,914486	2020-10-29T19:35:08:456
-9,217074	-3,180142	-1,050055	2020-10-29T19:35:08:481
-9,211510	-3,153184	-1,172993	2020-10-29T19:35:08:496
-9,205415	-3,124078	-1,292618	2020-10-29T19:35:08:520
-9,200658	-3,104481	-1,371304	2020-10-29T19:35:08:537
-9,195943	-3,087312	-1,439972	2020-10-29T19:35:08:564
-9,186957	-3,067648	-1,536142	2020-10-29T19:35:08:577
-9,185276	-3,017350	-1,642158	2020-10-29T19:35:08:601
-9,199116	-2,933739	-1,714595	2020-10-29T19:35:08:617
-9,209661	-2,878231	-1,751657	2020-10-29T19:35:08:641
-9,204525	-2,888203	-1,762210	2020-10-29T19:35:08:657
-9,190508	-2,986542	-1,668988	2020-10-29T19:35:08:681
-9,146861	-3,132122	-1,641682	2020-10-29T19:35:08:699
-8,080441	-4,428917	3,355825	2020-10-29T19:35:08:722
-9,576706	-0,832287	1,940202	2020-10-29T19:35:08:737
-9,508900	-0,794957	2,262578	2020-10-29T19:35:08:760
-9,270882	-0,724141	3,113962	2020-10-29T19:35:08:777
-8,697642	-0,669780	4,480268	2020-10-29T19:35:08:802
-7,996624	-0,621809	5,642495	2020-10-29T19:35:08:817
-8,030262	-0,839548	5,566007	2020-10-29T19:35:08:840
-8,062620	-1,130038	5,466950	2020-10-29T19:35:08:857
-8,009323	-1,433480	5,474145	2020-10-29T19:35:08:881
-7,971470	-1,787021	5,425182	2020-10-29T19:35:08:897
-9,157323	-2,356885	-2,599790	2020-10-29T19:35:08:921
-9,149104	-2,628222	-2,357272	2020-10-29T19:35:08:937
-9,021082	-2,935435	-2,484692	2020-10-29T19:35:08:961
-8,900423	-3,214917	-2,572382	2020-10-29T19:35:08:978
-9,221315	-2,734236	-1,913553	2020-10-29T19:35:09:003
-9,427138	-2,461187	1,114453	2020-10-29T19:35:24:083
-9,446717	-2,399750	1,082187	2020-10-29T19:35:24:106
-9,466479	-2,332791	1,055578	2020-10-29T19:35:24:108
-9,483390	-2,271172	1,038020	2020-10-29T19:35:24:112
-9,498356	-2,216423	1,019357	2020-10-29T19:35:24:154
-9,516716	-2,149423	0,991202	2020-10-29T19:35:24:157
-9,533892	-2,082027	0,969772	2020-10-29T19:35:24:175
-9,541828	-2,043376	0,973915	2020-10-29T19:35:24:181
-9,538155	-2,045805	1,004328	2020-10-29T19:35:24:202
-9,532696	-2,055173	1,036509	2020-10-29T19:35:24:219
-9,525016	-2,072103	1,072778	2020-10-29T19:35:24:241
-9,515530	-2,098590	1,104989	2020-10-29T19:35:24:259
-9,709777	-1,335221	0,328323	2020-10-29T19:35:24:283
-9,680713	-1,553400	0,202825	2020-10-29T19:35:24:300
-9,656257	-1,694633	0,235174	2020-10-29T19:35:24:323
-9,628108	-1,846228	0,247711	2020-10-29T19:35:24:341
-9,601005	-1,983339	0,239723	2020-10-29T19:35:24:363
-9,582232	-2,075089	0,212638	2020-10-29T19:35:24:379
-9,573750	-2,117327	0,174947	2020-10-29T19:35:24:403
-9,585197	-2,068309	0,128349	2020-10-29T19:35:24:420
-9,613756	-1,933085	0,096243	2020-10-29T19:35:24:443
-8,315866	-5,194443	0,185817	2020-10-29T19:35:24:460
-7,817039	-5,918325	0,194219	2020-10-29T19:35:24:483
-7,439288	-6,386400	0,203152	2020-10-29T19:35:24:500
-7,096850	-6,765788	0,170912	2020-10-29T19:35:24:524
-6,995428	-6,871147	0,147369	2020-10-29T19:35:24:541
-7,015906	-6,850544	0,132240	2020-10-29T19:35:24:564
-7,133824	-6,727429	0,143644	2020-10-29T19:35:24:580
-7,336761	-6,504156	0,195671	2020-10-29T19:35:24:604
-7,547911	-6,256318	0,240640	2020-10-29T19:35:24:620
-9,239715	-3,077583	-1,151757	2020-10-29T19:35:24:644
-9,104518	-3,389302	-1,338197	2020-10-29T19:35:24:660
-9,060913	-3,528184	-1,273641	2020-10-29T19:35:24:683
-8,988073	-3,732115	-1,206751	2020-10-29T19:35:24:701
-8,891149	-3,977272	-1,139813	2020-10-29T19:35:24:723
-8,827566	-4,127756	-1,098222	2020-10-29T19:35:24:740
-8,787012	-4,222156	-1,064054	2020-10-29T19:35:24:763
-8,764482	-4,273563	-1,044459	2020-10-29T19:35:24:780
-9,489881	-2,129265	-1,256496	2020-10-29T19:35:24:804
-9,472177	-2,246100	-1,184603	2020-10-29T19:35:24:820
-9,428566	-2,403513	-1,222968	2020-10-29T19:35:24:844
-9,378297	-2,567032	-1,276042	2020-10-29T19:35:24:860
-9,323689	-2,730915	-1,334658	2020-10-29T19:35:24:883
-9,267478	-2,886237	-1,397809	2020-10-29T19:35:24:900
-9,213455	-3,029910	-1,449922	2020-10-29T19:35:24:923
-9,163128	-3,165712	-1,478426	2020-10-29T19:35:24:940
-9,116363	-3,292309	-1,490980	2020-10-29T19:35:24:963
-9,077089	-3,401184	-1,486196	2020-10-29T19:35:24:981
-9,044922	-3,491062	-1,473861	2020-10-29T19:35:25:004
-9,022505	-3,556998	-1,453462	2020-10-29T19:35:25:021
-9,009430	-3,598547	-1,432138	2020-10-29T19:35:25:043
-9,005794	-3,615121	-1,413137	2020-10-29T19:35:25:061
-9,008145	-3,616314	-1,394982	2020-10-29T19:35:25:085
-9,015778	-3,604534	-1,376033	2020-10-29T19:35:25:100
-9,030519	-3,563432	-1,386388	2020-10-29T19:35:25:124
-9,029707	-3,557383	-1,407055	2020-10-29T19:35:25:140
-9,039008	-3,532576	-1,409831	2020-10-29T19:35:25:163
-9,077212	-3,448800	-1,371267	2020-10-29T19:35:25:181
-9,102907	-3,394102	-1,336986	2020-10-29T19:35:25:204
-9,105305	-3,391258	-1,327847	2020-10-29T19:35:25:221
-9,091807	-3,431767	-1,316208	2020-10-29T19:35:25:244
-9,070230	-3,494490	-1,299943	2020-10-29T19:35:25:260
-8,110634	-5,512528	-0,006621	2020-10-29T19:35:25:284
-9,359057	-2,921160	0,212706	2020-10-29T19:35:25:301
-9,505714	-2,403608	0,185597	2020-10-29T19:35:25:326
-9,587113	-2,057597	0,154719	2020-10-29T19:35:25:340
-9,627274	-1,862035	0,137185	2020-10-29T19:35:25:364
-8,289879	-5,222514	0,416691	2020-10-29T19:35:25:381
-8,219575	-5,326999	0,481720	2020-10-29T19:35:25:404
-8,204745	-5,341732	0,564309	2020-10-29T19:35:25:421
-9,614926	-1,910777	0,269280	2020-10-29T19:35:25:445
-9,589907	-2,013963	0,384732	2020-10-29T19:35:25:461
-9,576102	-2,057156	0,486570	2020-10-29T19:35:25:484
-9,567829	-2,071149	0,580844	2020-10-29T19:35:25:501
-9,564095	-2,061297	0,670459	2020-10-29T19:35:25:525
-9,569053	-2,016375	0,733386	2020-10-29T19:35:25:541
-9,586924	-1,918189	0,762781	2020-10-29T19:35:25:565
-9,607604	-1,812277	0,761570	2020-10-29T19:35:25:581
-9,628624	-1,705510	0,742438	2020-10-29T19:35:25:605
-9,652074	-1,590995	0,690348	2020-10-29T19:35:25:621
-9,675317	-1,469440	0,631955	2020-10-29T19:35:25:644
-9,695933	-1,353672	0,571700	2020-10-29T19:35:25:661
-9,710860	-1,264265	0,520783	2020-10-29T19:35:25:685
-9,721174	-1,199222	0,480648	2020-10-29T19:35:25:701
-9,728546	-1,151020	0,448253	2020-10-29T19:35:25:725
-9,732551	-1,122992	0,432126	2020-10-29T19:35:25:741
-9,177682	-3,226034	1,238240	2020-10-29T19:35:25:765
-9,733530	-1,115511	0,429431	2020-10-29T19:35:25:781
-9,729975	-1,141193	0,442334	2020-10-29T19:35:25:805
-9,725310	-1,175064	0,456020	2020-10-29T19:35:25:821
-9,720122	-1,216226	0,458694	2020-10-29T19:35:25:845
-9,713643	-1,266356	0,460289	2020-10-29T19:35:25:861
-9,707145	-1,316970	0,455327	2020-10-29T19:35:25:884
-8,894856	-3,925378	1,281920	2020-10-29T19:35:25:902
-8,808973	-4,112051	1,289733	2020-10-29T19:35:25:925
-8,723658	-4,291422	1,285253	2020-10-29T19:35:25:941
-8,635950	-4,475548	1,249087	2020-10-29T19:35:25:965
-8,573490	-4,592942	1,253210	2020-10-29T19:35:25:981
-8,540701	-4,647761	1,274804	2020-10-29T19:35:26:006
-8,524225	-4,665146	1,320753	2020-10-29T19:35:26:022
-8,480891	-4,733716	1,355287	2020-10-29T19:35:26:045
-8,417734	-4,835588	1,388965	2020-10-29T19:35:26:061
-8,339240	-4,963180	1,412201	2020-10-29T19:35:26:086
-8,244596	-5,113323	1,432118	2020-10-29T19:35:26:102
-8,110703	-5,316719	1,455815	2020-10-29T19:35:26:125
-7,938711	-5,564483	1,477764	2020-10-29T19:35:26:142
-7,748842	-5,823659	1,486887	2020-10-29T19:35:26:166
-7,538535	-6,094262	1,483524	2020-10-29T19:35:26:181
-9,473569	-2,281890	-1,102207	2020-10-29T19:35:26:207
-9,418789	-2,385535	-1,328917	2020-10-29T19:35:26:222
-9,355874	-2,597753	-1,374660	2020-10-29T19:35:26:246
-9,286732	-2,815438	-1,414320	2020-10-29T19:35:26:262
-9,208137	-3,046588	-1,448759	2020-10-29T19:35:26:286
-9,118771	-3,292334	-1,476121	2020-10-29T19:35:26:301
-9,017898	-3,552600	-1,492291	2020-10-29T19:35:26:326
-8,902153	-3,824904	-1,513988	2020-10-29T19:35:26:342
-8,654602	-4,171129	-1,967215	2020-10-29T19:35:26:365
-8,555104	-4,401293	-1,899786	2020-10-29T19:35:26:382
-8,401517	-4,687839	-1,899755	2020-10-29T19:35:26:406
-8,235728	-4,970456	-1,907282	2020-10-29T19:35:26:422
-8,063806	-5,242655	-1,913110	2020-10-29T19:35:26:445
-7,894889	-5,503668	-1,884345	2020-10-29T19:35:26:461
-7,727767	-5,762316	-1,802144	2020-10-29T19:35:26:486
-7,566269	-5,989778	-1,744854	2020-10-29T19:35:26:502
-9,131304	-3,531662	0,563071	2020-10-29T19:35:26:527
-9,243700	-3,270611	0,165834	2020-10-29T19:35:26:542
-9,204903	-3,379478	0,138849	2020-10-29T19:35:26:566
-9,095199	-3,665293	0,115671	2020-10-29T19:35:26:582
-8,925817	-4,059788	0,135308	2020-10-29T19:35:26:605
-8,797668	-4,330111	0,146872	2020-10-29T19:35:26:622
-8,910649	-4,088048	0,242026	2020-10-29T19:35:26:646
-8,942292	-4,012307	0,327388	2020-10-29T19:35:26:662
-8,907362	-4,084385	0,383524	2020-10-29T19:35:26:685
-8,768264	-4,375337	0,379959	2020-10-29T19:35:26:703
-8,427342	-5,004854	0,318935	2020-10-29T19:35:26:726
-7,517591	-6,293532	0,218316	2020-10-29T19:35:26:742
-8,151528	-5,426936	-0,520909	2020-10-29T19:35:26:768
-8,066917	-5,546290	-0,577833	2020-10-29T19:35:26:782
-8,305883	-5,183053	-0,564491	2020-10-29T19:35:26:807
-8,467039	-4,918752	-0,534328	2020-10-29T19:35:26:823
-8,596164	-4,693390	-0,498440	2020-10-29T19:35:26:845
-8,717847	-4,467083	-0,463348	2020-10-29T19:35:26:862
-8,843604	-4,216455	-0,427260	2020-10-29T19:35:26:886
-8,970361	-3,943800	-0,386586	2020-10-29T19:35:26:902
-9,094204	-3,653104	-0,347369	2020-10-29T19:35:26:925
-9,202080	-3,374866	-0,319977	2020-10-29T19:35:26:942
-9,302732	-3,089958	-0,285857	2020-10-29T19:35:26:966
-9,386063	-2,830634	-0,244370	2020-10-29T19:35:26:983
-6,720196	-7,117640	-0,590391	2020-10-29T19:35:27:007
-6,312618	-7,476916	-0,645721	2020-10-29T19:35:27:022
-9,211620	-3,271229	0,784534	2020-10-29T19:35:27:047
-9,224226	-3,275569	0,595558	2020-10-29T19:35:27:062
-8,949082	-3,960110	0,633911	2020-10-29T19:35:27:086
-8,512426	-4,828658	0,626932	2020-10-29T19:35:27:103
-7,819527	-5,891297	0,563920	2020-10-29T19:35:27:127
-7,013212	-6,840257	0,442875	2020-10-29T19:35:27:142
-6,317379	-7,495056	0,291974	2020-10-29T19:35:27:166
-5,866075	-7,857339	0,147584	2020-10-29T19:35:27:182
-5,608902	-8,044209	0,036078	2020-10-29T19:35:27:207
-5,477851	-8,134017	-0,036091	2020-10-29T19:35:27:223
-5,439539	-8,159550	-0,059551	2020-10-29T19:35:27:247
-5,450413	-8,152371	-0,047186	2020-10-29T19:35:27:262
-5,490804	-8,125348	-0,013096	2020-10-29T19:35:27:286
-5,538627	-8,092785	0,028783	2020-10-29T19:35:27:303
-5,592325	-8,055490	0,073179	2020-10-29T19:35:27:326
-5,649146	-8,015302	0,111716	2020-10-29T19:35:27:343
-5,703423	-7,976357	0,138111	2020-10-29T19:35:27:367
-5,727889	-7,958753	0,141147	2020-10-29T19:35:27:383
-5,732403	-7,955556	0,138078	2020-10-29T19:35:27:406
-5,735989	-7,952956	0,138924	2020-10-29T19:35:27:423
-7,849671	-5,877156	-0,109946	2020-10-29T19:35:27:447
-8,342167	-5,154819	0,080478	2020-10-29T19:35:27:463
-8,888510	-4,142844	0,040282	2020-10-29T19:35:27:487
-5,560180	-8,077914	0,045652	2020-10-29T19:35:27:503
-5,287115	-8,259233	0,043182	2020-10-29T19:35:27:538
-5,425915	-8,168687	0,048877	2020-10-29T19:35:27:543
-5,910201	-7,825297	0,068118	2020-10-29T19:35:27:566
-9,316922	-3,059951	0,045172	2020-10-29T19:35:27:584
-9,212878	-3,359343	0,089831	2020-10-29T19:35:27:607
-9,180973	-3,444232	0,131838	2020-10-29T19:35:27:623
-9,208117	-3,369583	0,163916	2020-10-29T19:35:27:646
-9,252843	-3,243121	0,193510	2020-10-29T19:35:27:663
-9,277084	-3,170732	0,229249	2020-10-29T19:35:27:687
-9,268250	-3,193202	0,270881	2020-10-29T19:35:27:703
-9,212290	-3,346690	0,322123	2020-10-29T19:35:27:727
-9,110082	-3,611511	0,365765	2020-10-29T19:35:27:743
-8,883634	-4,138944	0,347231	2020-10-29T19:35:27:767
-8,232029	-5,320929	0,302991	2020-10-29T19:35:27:783
-6,992822	-6,872730	0,190809	2020-10-29T19:35:27:806
-6,379479	-7,447587	0,077971	2020-10-29T19:35:27:824
-6,209738	-7,590085	-0,012235	2020-10-29T19:35:27:848
-6,174965	-7,617981	-0,080927	2020-10-29T19:35:27:863
-6,224722	-7,576406	-0,145926	2020-10-29T19:35:27:887
-6,319561	-7,496358	-0,195316	2020-10-29T19:35:27:904
-6,440095	-7,392215	-0,225204	2020-10-29T19:35:27:927
-6,584744	-7,262591	-0,257493	2020-10-29T19:35:27:944
-6,724772	-7,132047	-0,285874	2020-10-29T19:35:27:967
-6,912674	-6,949080	-0,309210	2020-10-29T19:35:27:983
-7,128301	-6,726747	-0,329521	2020-10-29T19:35:28:008
-7,354197	-6,478014	-0,348574	2020-10-29T19:35:28:024
-7,588844	-6,200670	-0,362662	2020-10-29T19:35:28:046
-7,828766	-5,894161	-0,373730	2020-10-29T19:35:28:064
-8,075359	-5,550729	-0,385181	2020-10-29T19:35:28:088
-8,316143	-5,182361	-0,394055	2020-10-29T19:35:28:104
-8,530059	-4,821942	-0,396668	2020-10-29T19:35:28:129
-8,762280	-4,384011	-0,416256	2020-10-29T19:35:28:144
-8,998969	-3,876781	-0,399389	2020-10-29T19:35:28:167
-9,206140	-3,360503	-0,352706	2020-10-29T19:35:28:184
-9,351360	-2,938900	-0,292072	2020-10-29T19:35:28:208
-9,472669	-2,528630	-0,212031	2020-10-29T19:35:28:224
-9,579791	-2,094325	-0,108582	2020-10-29T19:35:28:248
-9,649615	-1,747945	0,000618	2020-10-29T19:35:28:264
-9,659407	-1,692853	0,022332	2020-10-29T19:35:28:287
-9,646517	-1,764950	0,007048	2020-10-29T19:35:28:304
-9,648558	-1,753535	0,028726	2020-10-29T19:35:28:328
-9,641873	-1,790033	0,021234	2020-10-29T19:35:28:344
-9,634241	-1,830736	-0,013964	2020-10-29T19:35:28:367
-9,631778	-1,842402	-0,069313	2020-10-29T19:35:28:384
-9,599401	-1,996931	-0,184788	2020-10-29T19:35:28:408
-9,581655	-2,073411	-0,251489	2020-10-29T19:35:28:425
-9,507256	-2,378134	-0,356314	2020-10-29T19:35:28:448
-9,423911	-2,680687	-0,417361	2020-10-29T19:35:28:464
-9,345030	-2,942266	-0,428804	2020-10-29T19:35:28:489
-9,277313	-3,154131	-0,391548	2020-10-29T19:35:28:504
-9,201873	-3,374977	-0,324739	2020-10-29T19:35:28:528
-9,105673	-3,632485	-0,249328	2020-10-29T19:35:28:544
-8,859472	-2,212581	3,575560	2020-10-29T19:35:28:569
-8,831881	-2,024486	3,750963	2020-10-29T19:35:28:584
-8,873752	-1,918740	3,707472	2020-10-29T19:35:28:609
-8,916560	-1,818708	3,654810	2020-10-29T19:35:28:624
-8,957213	-1,726037	3,599932	2020-10-29T19:35:28:647
-8,992564	-1,650585	3,546792	2020-10-29T19:35:28:664
-9,023244	-1,595886	3,493508	2020-10-29T19:35:28:688
-9,051718	-1,571871	3,430163	2020-10-29T19:35:28:704
-9,076358	-1,566327	3,367006	2020-10-29T19:35:28:728
-9,097881	-1,573707	3,304905	2020-10-29T19:35:28:744
-9,120446	-2,066867	2,952271	2020-10-29T19:35:28:768
-9,231422	-1,980444	2,651239	2020-10-29T19:35:28:784
-9,252651	-1,953214	2,596880	2020-10-29T19:35:28:808
-9,288153	-1,939056	2,478037	2020-10-29T19:35:28:824
-9,337161	-1,884559	2,331575	2020-10-29T19:35:28:848
-9,368063	-1,850676	2,232661	2020-10-29T19:35:28:865
-9,364247	-1,873246	2,229845	2020-10-29T19:35:28:888
-9,358209	-1,893546	2,238034	2020-10-29T19:35:28:904
-9,351106	-1,937525	2,230066	2020-10-29T19:35:28:928
-9,319291	-2,041826	2,269833	2020-10-29T19:35:28:944
-9,271546	-2,161317	2,353194	2020-10-29T19:35:28:968
-9,238978	-2,255229	2,392823	2020-10-29T19:35:28:985
-9,231629	-2,341702	2,337486	2020-10-29T19:35:29:008
-9,189418	-2,475000	2,366297	2020-10-29T19:35:29:025
-9,141026	-2,625111	2,391826	2020-10-29T19:35:29:048
-9,127716	-2,749476	2,301208	2020-10-29T19:35:29:064
-9,421493	-1,946938	-1,901391	2020-10-29T19:35:29:123
-9,397097	-1,429411	-2,412828	2020-10-29T19:35:29:124
-9,371955	-1,524261	-2,452240	2020-10-29T19:35:29:128
-9,353021	-1,596337	-2,478528	2020-10-29T19:35:29:146
-9,328871	-1,665984	-2,523304	2020-10-29T19:35:29:169
-9,306396	-1,735744	-2,559015	2020-10-29T19:35:29:184
-9,286388	-1,818112	-2,574460	2020-10-29T19:35:29:209
-9,267767	-1,906797	-2,577402	2020-10-29T19:35:29:225
-9,242330	-2,000153	-2,597906	2020-10-29T19:35:29:247
-9,217637	-2,077505	-2,624792	2020-10-29T19:35:29:265
-9,190947	-2,157961	-2,653316	2020-10-29T19:35:29:288
-9,156960	-2,254272	-2,690485	2020-10-29T19:35:29:305
-9,115685	-2,374629	-2,726866	2020-10-29T19:35:29:328
-9,073217	-2,503614	-2,753002	2020-10-29T19:35:29:345
-9,029064	-2,645867	-2,765099	2020-10-29T19:35:29:369
-8,983608	-2,816435	-2,744607	2020-10-29T19:35:29:385
-8,933661	-3,043154	-2,664452	2020-10-29T19:35:29:409
-8,871419	-3,297926	-2,567489	2020-10-29T19:35:29:425
-8,795737	-3,565390	-2,468479	2020-10-29T19:35:29:449
-8,716977	-3,822713	-2,360414	2020-10-29T19:35:29:465
-8,611614	-4,135238	-2,215918	2020-10-29T19:35:29:488
-8,451498	-4,549309	-2,011554	2020-10-29T19:35:29:505
-8,228376	-5,037327	-1,757709	2020-10-29T19:35:29:529
-7,950977	-5,547376	-1,476134	2020-10-29T19:35:29:545
-7,613111	-6,070411	-1,166637	2020-10-29T19:35:29:569
-7,410474	-6,341033	-1,023008	2020-10-29T19:35:29:585
-7,334152	-6,437356	-0,970077	2020-10-29T19:35:29:609
-7,375271	-6,388791	-0,979341	2020-10-29T19:35:29:625
-7,406201	-6,363591	-0,907349	2020-10-29T19:35:29:649
-7,461258	-6,304631	-0,866972	2020-10-29T19:35:29:665
-7,461020	-6,315495	-0,786184	2020-10-29T19:35:29:689
-7,429915	-6,363655	-0,686041	2020-10-29T19:35:29:705
-9,489539	-2,467417	-0,175754	2020-10-29T19:35:29:729
-9,486135	-2,476609	-0,223708	2020-10-29T19:35:29:745
-9,510121	-2,387825	-0,162082	2020-10-29T19:35:29:769
-9,565093	-2,161446	-0,086743	2020-10-29T19:35:29:785
-8,728186	-4,470853	-0,025010	2020-10-29T19:35:29:809
-8,866385	-4,189623	0,068199	2020-10-29T19:35:29:825
-9,530296	-2,172879	-0,788949	2020-10-29T19:35:29:850
-9,634457	-1,678260	-0,728746	2020-10-29T19:35:29:865
-9,648935	-1,631798	-0,636925	2020-10-29T19:35:29:890
-9,651628	-1,636796	-0,580829	2020-10-29T19:35:29:905
-9,640037	-1,708813	-0,565720	2020-10-29T19:35:29:929
-9,620516	-1,809588	-0,584338	2020-10-29T19:35:29:945
-9,596557	-1,919979	-0,624634	2020-10-29T19:35:29:968
-9,571251	-2,027612	-0,671059	2020-10-29T19:35:29:985
-9,547931	-2,120027	-0,716163	2020-10-29T19:35:30:010
-9,532142	-2,174838	-0,760750	2020-10-29T19:35:30:025
-9,524508	-2,202617	-0,776280	2020-10-29T19:35:30:048
-9,518335	-2,231971	-0,768107	2020-10-29T19:35:30:065
-9,514229	-2,265466	-0,719367	2020-10-29T19:35:30:089
-9,512444	-2,291529	-0,657790	2020-10-29T19:35:30:105
-9,511851	-2,312642	-0,588861	2020-10-29T19:35:30:130
-9,500682	-2,372296	-0,528815	2020-10-29T19:35:30:145
-9,455747	-2,554485	-0,483572	2020-10-29T19:35:30:169
-9,333033	-2,975678	-0,458500	2020-10-29T19:35:30:185
-8,979857	-3,918931	-0,417751	2020-10-29T19:35:30:209
-8,239077	-5,307247	-0,348051	2020-10-29T19:35:30:226
-7,741239	-6,013062	-0,294430	2020-10-29T19:35:30:250
-7,559631	-6,242511	-0,231117	2020-10-29T19:35:30:265
-7,550548	-6,256154	-0,141980	2020-10-29T19:35:30:288
-7,624155	-6,167634	-0,054224	2020-10-29T19:35:30:305
-7,719232	-6,048431	0,018159	2020-10-29T19:35:30:330
-7,786919	-5,960487	0,082896	2020-10-29T19:35:30:345
-7,841897	-5,886651	0,149617	2020-10-29T19:35:30:369
-7,938730	-5,752133	0,244767	2020-10-29T19:35:30:385
-8,069293	-5,562759	0,335568	2020-10-29T19:35:30:410
-8,105719	-5,507804	0,363043	2020-10-29T19:35:30:427
-8,012390	-5,643765	0,346275	2020-10-29T19:35:30:448
-7,819715	-5,909602	0,314726	2020-10-29T19:35:30:466
-7,593296	-6,200862	0,248088	2020-10-29T19:35:30:489
-7,391390	-6,442834	0,166214	2020-10-29T19:35:30:507
-7,350659	-6,489687	0,148842	2020-10-29T19:35:30:529
-7,354703	-6,485289	0,140546	2020-10-29T19:35:30:547
-7,400906	-6,432175	0,155222	2020-10-29T19:35:30:570
-7,400447	-6,433269	0,129674	2020-10-29T19:35:30:587
-7,413922	-6,417826	0,125141	2020-10-29T19:35:30:610
-7,425097	-6,405005	0,119245	2020-10-29T19:35:30:626
-7,416622	-6,414829	0,118590	2020-10-29T19:35:30:649
-7,354821	-6,485795	0,107011	2020-10-29T19:35:30:667
-7,262452	-6,589440	0,080369	2020-10-29T19:35:30:688
-7,140050	-6,722300	0,027465	2020-10-29T19:35:30:707
-7,026738	-6,840565	-0,044853	2020-10-29T19:35:30:730
-6,916374	-6,951852	-0,076850	2020-10-29T19:35:30:746
-6,829065	-7,036987	-0,122781	2020-10-29T19:35:30:769
-6,758951	-7,103063	-0,182931	2020-10-29T19:35:30:786
-9,229849	-2,496171	-2,179311	2020-10-29T19:35:30:810
-9,311858	-2,341171	-1,994644	2020-10-29T19:35:30:827
-9,272634	-2,458251	-2,036087	2020-10-29T19:35:30:850
-9,239012	-2,556583	-2,067591	2020-10-29T19:35:30:866
-9,200804	-2,660751	-2,106181	2020-10-29T19:35:30:890
-9,160486	-2,768157	-2,143170	2020-10-29T19:35:30:907
-9,123445	-2,861191	-2,178698	2020-10-29T19:35:30:930
-9,084299	-2,948641	-2,225175	2020-10-29T19:35:30:946
-9,046521	-3,032029	-2,266636	2020-10-29T19:35:30:970
-9,010319	-3,122498	-2,287913	2020-10-29T19:35:30:986
-8,990891	-3,216599	-2,233328	2020-10-29T19:35:31:009
-8,969914	-3,352509	-2,114639	2020-10-29T19:35:31:027
-9,348600	-2,604854	1,410244	2020-10-29T19:35:31:050
-9,380695	-2,485971	1,411694	2020-10-29T19:35:31:066
-9,513653	-2,331121	0,476096	2020-10-29T19:35:31:092
-9,364053	-2,843411	-0,632390	2020-10-29T19:35:31:106
-9,150580	-3,466918	-0,646334	2020-10-29T19:35:31:130
-8,806488	-4,271377	-0,609495	2020-10-29T19:35:31:146
-8,367474	-5,083151	-0,563336	2020-10-29T19:35:31:169
-7,732536	-6,016433	-0,425223	2020-10-29T19:35:31:186
-7,211775	-6,642741	-0,186211	2020-10-29T19:35:31:211
-7,297802	-6,550654	0,037333	2020-10-29T19:35:31:226
-7,571514	-6,230987	0,131796	2020-10-29T19:35:31:250
-7,850673	-5,874543	0,164522	2020-10-29T19:35:31:266
-9,786276	-0,605329	-0,181036	2020-10-29T19:35:31:291
-9,730436	-0,829102	-0,895315	2020-10-29T19:35:31:307
-9,739240	-0,728773	-0,886840	2020-10-29T19:35:31:330
-9,741160	-0,662304	-0,917349	2020-10-29T19:35:31:346
-9,745468	-0,584436	-0,924486	2020-10-29T19:35:31:370
-9,750939	-0,516632	-0,907005	2020-10-29T19:35:31:386
-9,023097	-3,789941	-0,624857	2020-10-29T19:35:31:410
-8,982328	-3,861043	-0,761912	2020-10-29T19:35:31:428
-9,019460	-3,770927	-0,774493	2020-10-29T19:35:31:450
-9,011837	-3,793514	-0,752613	2020-10-29T19:35:31:466
-8,928986	-3,987696	-0,736133	2020-10-29T19:35:31:489
-8,688152	-4,495199	-0,692519	2020-10-29T19:35:31:507
-8,160836	-5,407212	-0,577231	2020-10-29T19:35:31:531
-7,460634	-6,352636	-0,391583	2020-10-29T19:35:31:547
-7,064149	-6,797515	-0,248939	2020-10-29T19:35:31:570
-6,900163	-6,967364	-0,118218	2020-10-29T19:35:31:586
-6,928234	-6,940434	-0,018349	2020-10-29T19:35:31:611
-7,034044	-6,832974	0,055441	2020-10-29T19:35:31:627
-7,136775	-6,724832	0,116021	2020-10-29T19:35:31:650
-7,234249	-6,618855	0,163710	2020-10-29T19:35:31:667
-7,285967	-6,562514	0,135950	2020-10-29T19:35:31:691
-7,239985	-6,613593	0,115667	2020-10-29T19:35:31:707
-7,247346	-6,601915	0,247140	2020-10-29T19:35:31:730
-7,263899	-6,578871	0,353000	2020-10-29T19:35:31:746
-9,500900	-2,342436	0,645192	2020-10-29T19:35:31:771
-9,679855	-1,536059	0,333634	2020-10-29T19:35:31:787
-9,703337	-1,364986	0,390457	2020-10-29T19:35:31:811
-9,703120	-1,339220	0,475735	2020-10-29T19:35:31:827
-9,676451	-1,448797	0,661564	2020-10-29T19:35:31:851
-9,626652	-1,619361	0,935752	2020-10-29T19:35:31:867
-9,563889	-1,799192	1,210505	2020-10-29T19:35:31:889
-9,474990	-2,045804	1,486486	2020-10-29T19:35:31:907
-9,394757	-2,286637	1,637137	2020-10-29T19:35:31:931
-9,323144	-2,489362	1,747129	2020-10-29T19:35:31:947
-9,239835	-2,714825	1,850828	2020-10-29T19:35:31:970
-9,168315	-2,904275	1,917701	2020-10-29T19:35:31:987
-9,087852	-3,095098	2,000421	2020-10-29T19:35:32:011
-9,011778	-3,285372	2,040727	2020-10-29T19:35:32:027
-8,950195	-3,447664	2,044014	2020-10-29T19:35:32:051
-8,901673	-3,590079	2,010454	2020-10-29T19:35:32:067
-8,863107	-3,718671	1,946074	2020-10-29T19:35:32:091
-8,846159	-3,829295	1,803429	2020-10-29T19:35:32:108
-8,840714	-3,877502	1,725435	2020-10-29T19:35:32:130
-8,885201	-3,820314	1,621351	2020-10-29T19:35:32:147
-8,980288	-3,677914	1,413422	2020-10-29T19:35:32:171
-9,095130	-3,468755	1,190263	2020-10-29T19:35:32:187
-9,095469	-3,297775	-1,602342	2020-10-29T19:35:32:211
-9,228441	-3,281334	-0,488973	2020-10-29T19:35:32:228
-9,113118	-3,580168	-0,551226	2020-10-29T19:35:32:251
-8,983099	-3,886558	-0,607447	2020-10-29T19:35:32:267
-8,823640	-4,222912	-0,693379	2020-10-29T19:35:32:291
-8,596103	-4,659030	-0,755546	2020-10-29T19:35:32:308
-8,242727	-5,259490	-0,752060	2020-10-29T19:35:32:331
-7,662254	-6,087089	-0,638439	2020-10-29T19:35:32:347
-7,009776	-6,845683	-0,412376	2020-10-29T19:35:32:370
-6,543907	-7,303700	-0,060229	2020-10-29T19:35:32:388
-6,500751	-7,339136	0,218430	2020-10-29T19:35:32:411
-6,517273	-7,315870	0,416628	2020-10-29T19:35:32:428
-6,568257	-7,255666	0,619430	2020-10-29T19:35:32:451
-6,540157	-7,266630	0,769949	2020-10-29T19:35:32:468
-6,542563	-7,249780	0,897745	2020-10-29T19:35:32:491
-6,527892	-7,248683	1,006776	2020-10-29T19:35:32:508
-6,616863	-7,146627	1,145961	2020-10-29T19:35:32:532
-6,791782	-6,953509	1,300305	2020-10-29T19:35:32:547
-7,017833	-6,669248	1,562542	2020-10-29T19:35:32:571
-7,231235	-6,372519	1,808489	2020-10-29T19:35:32:588
-7,401435	-6,118856	1,987144	2020-10-29T19:35:32:611
-7,533353	-5,913430	2,109579	2020-10-29T19:35:32:628
-7,535789	-5,892745	2,158201	2020-10-29T19:35:32:651
-7,530640	-5,912786	2,121038	2020-10-29T19:35:32:668
-7,520104	-5,955135	2,038330	2020-10-29T19:35:32:691
-7,487852	-6,052825	1,861654	2020-10-29T19:35:32:708
-7,411493	-6,230799	1,554768	2020-10-29T19:35:32:731
-7,247265	-6,477509	1,299770	2020-10-29T19:35:32:749
-7,041840	-6,736175	1,098553	2020-10-29T19:35:32:772
-6,859705	-6,945611	0,934512	2020-10-29T19:35:32:788
-6,763262	-7,052552	0,830773	2020-10-29T19:35:32:812
-6,722962	-7,098488	0,763957	2020-10-29T19:35:32:828
-6,692544	-7,129587	0,741095	2020-10-29T19:35:32:852
-6,655163	-7,166003	0,726358	2020-10-29T19:35:32:868
-9,624776	-1,876919	-0,106012	2020-10-29T19:35:32:892
-9,686690	-1,526947	0,082694	2020-10-29T19:35:32:908
-9,184402	-3,436132	0,100697	2020-10-29T19:35:32:931
-9,055234	-3,762485	0,129747	2020-10-29T19:35:32:948
-9,034153	-3,811007	0,175179	2020-10-29T19:35:32:971
-9,737552	-1,159226	0,081635	2020-10-29T19:35:32:988
-9,451141	-0,200790	2,608830	2020-10-29T19:35:33:014
-9,501101	-1,581774	1,843224	2020-10-29T19:35:33:028
-9,492843	-1,711936	1,767937	2020-10-29T19:35:33:052
-9,509285	-1,745044	1,642773	2020-10-29T19:35:33:070
-9,534573	-1,718199	1,519905	2020-10-29T19:35:33:091
-9,560301	-1,661640	1,417739	2020-10-29T19:35:33:108
-9,582541	-1,637797	1,289547	2020-10-29T19:35:33:132
-9,596114	-1,628519	1,197043	2020-10-29T19:35:33:148
-9,602223	-1,628305	1,147303	2020-10-29T19:35:33:171
-9,611362	-1,574196	1,146304	2020-10-29T19:35:33:188
-9,628067	-1,482291	1,128504	2020-10-29T19:35:33:212
-9,646608	-1,376317	1,104122	2020-10-29T19:35:33:229
-9,661967	-1,285040	1,079558	2020-10-29T19:35:33:252
-9,671334	-1,218294	1,073055	2020-10-29T19:35:33:268
-9,492564	-2,348716	-0,738338	2020-10-29T19:35:33:293
-9,432174	-2,564775	-0,791459	2020-10-29T19:35:33:308
-9,496443	-2,352216	-0,674566	2020-10-29T19:35:33:331
-9,543667	-2,222326	-0,387394	2020-10-29T19:35:33:349
-9,681196	-1,563585	-0,005212	2020-10-29T19:35:33:372
-7,533237	-6,278592	-0,002103	2020-10-29T19:35:33:389
-7,333647	-6,510600	-0,010204	2020-10-29T19:35:33:412
-7,198862	-6,658801	-0,084537	2020-10-29T19:35:33:428
-7,092190	-6,769293	-0,218856	2020-10-29T19:35:33:452
-6,953908	-6,902592	-0,409601	2020-10-29T19:35:33:469
-6,759266	-7,077788	-0,622591	2020-10-29T19:35:33:492
-6,529267	-7,268655	-0,840069	2020-10-29T19:35:33:508
-6,328829	-7,414535	-1,068166	2020-10-29T19:35:33:533
-6,180439	-7,502509	-1,298046	2020-10-29T19:35:33:548
-5,990322	-7,629297	-1,442305	2020-10-29T19:35:33:571
-5,856252	-7,725498	-1,480330	2020-10-29T19:35:33:589
-5,806907	-7,769333	-1,444880	2020-10-29T19:35:33:613
-5,855533	-7,750294	-1,347614	2020-10-29T19:35:33:629
-8,941275	-2,114732	3,428105	2020-10-29T19:35:33:652
-9,104261	-1,379950	3,373211	2020-10-29T19:35:33:669
-9,235789	-1,165457	3,084199	2020-10-29T19:35:33:692
-9,395936	-0,889995	2,663585	2020-10-29T19:35:33:715
-9,537683	-0,603193	2,199805	2020-10-29T19:35:33:734
-9,639750	-0,285104	1,778853	2020-10-29T19:35:33:749
-9,701460	0,029905	1,432189	2020-10-29T19:35:33:773
-9,730185	0,310818	1,182065	2020-10-29T19:35:33:789
-9,738916	0,542927	1,014458	2020-10-29T19:35:33:814
-9,736868	0,725711	0,914953	2020-10-29T19:35:33:830
-9,499085	-2,436613	-0,026172	2020-10-29T19:35:33:853
-9,723973	-0,915719	-0,881018	2020-10-29T19:35:33:869
-9,744011	-0,727487	-0,833906	2020-10-29T19:35:33:892
-9,752483	-0,612883	-0,826937	2020-10-29T19:35:33:912
-9,756194	-0,541778	-0,832794	2020-10-29T19:35:33:933
-9,757463	-0,490752	-0,849385	2020-10-29T19:35:33:949
-9,759701	-0,438920	-0,852037	2020-10-29T19:35:33:973
-9,758385	-0,456868	-0,857662	2020-10-29T19:35:33:989
-9,762752	-0,415683	-0,828421	2020-10-29T19:35:34:014
-9,765431	-0,393403	-0,807447	2020-10-29T19:35:34:030
-9,764714	-0,389557	-0,817916	2020-10-29T19:35:34:052
-9,761378	-0,388607	-0,857245	2020-10-29T19:35:34:070
-9,748034	-0,468972	-0,962441	2020-10-29T19:35:34:093
-9,745717	-0,467311	-0,986410	2020-10-29T19:35:34:109
-9,745624	-0,476524	-0,982921	2020-10-29T19:35:34:132
-9,743483	-0,514513	-0,984990	2020-10-29T19:35:34:149
-9,736146	-0,597130	-1,010587	2020-10-29T19:35:34:173
-9,722111	-0,736589	-1,052798	2020-10-29T19:35:34:189
-9,698387	-0,949023	-1,100462	2020-10-29T19:35:34:214
-9,664694	-1,215468	-1,134336	2020-10-29T19:35:34:229
-9,625689	-1,501237	-1,123742	2020-10-29T19:35:34:253
-9,582324	-1,767529	-1,106926	2020-10-29T19:35:34:270
-9,532409	-2,018904	-1,107971	2020-10-29T19:35:34:293
-9,473413	-2,270372	-1,127045	2020-10-29T19:35:34:310
-9,411502	-2,510418	-1,136585	2020-10-29T19:35:34:334
-9,348598	-2,742973	-1,118116	2020-10-29T19:35:34:349
-9,292542	-2,965217	-1,013177	2020-10-29T19:35:34:372
-9,252748	-3,127270	-0,881594	2020-10-29T19:35:34:389
-9,752155	0,874214	-0,549182	2020-10-29T19:35:34:414
-9,709411	1,274904	-0,521864	2020-10-29T19:35:34:430
-9,727389	1,145538	-0,485816	2020-10-29T19:35:34:453
-9,749102	0,962523	-0,446048	2020-10-29T19:35:34:469
-9,768262	0,768982	-0,400145	2020-10-29T19:35:34:493
-9,783050	0,577584	-0,358774	2020-10-29T19:35:34:510
-9,793117	0,393621	-0,332137	2020-10-29T19:35:34:533
-9,799364	0,211713	-0,313101	2020-10-29T19:35:34:550
-9,801877	0,073009	-0,297087	2020-10-29T19:35:34:573
-9,802013	-0,102740	-0,283475	2020-10-29T19:35:34:590
-9,800311	-0,217372	-0,277548	2020-10-29T19:35:34:613
-9,797986	-0,290912	-0,291932	2020-10-29T19:35:34:630
-9,795671	-0,355171	-0,298414	2020-10-29T19:35:34:653
-9,793600	-0,408336	-0,298411	2020-10-29T19:35:34:670
-9,792041	-0,433803	-0,313266	2020-10-29T19:35:34:693
-9,789813	-0,491240	-0,297718	2020-10-29T19:35:34:710
-9,788105	-0,544759	-0,258111	2020-10-29T19:35:34:734
-9,788239	-0,537781	-0,267487	2020-10-29T19:35:34:750
-9,788039	-0,523448	-0,301137	2020-10-29T19:35:34:773
-9,786461	-0,563366	-0,279619	2020-10-29T19:35:34:790
-9,784575	-0,624278	-0,206813	2020-10-29T19:35:34:814
-9,781226	-0,703474	-0,055877	2020-10-29T19:35:34:830
-9,778190	-0,742694	0,076155	2020-10-29T19:35:34:853
-9,772334	-0,776732	0,261823	2020-10-29T19:35:34:870
-9,751971	-0,814263	0,637504	2020-10-29T19:35:34:893
-9,718176	-0,816747	1,029741	2020-10-29T19:35:34:911
-9,647729	-0,803605	1,563949	2020-10-29T19:35:34:934
-9,516258	-0,757933	2,244270	2020-10-29T19:35:34:949
-9,339055	-0,675131	2,914899	2020-10-29T19:35:34:974
-8,413634	-0,689503	-4,990564	2020-10-29T19:35:34:990
-8,804347	-0,804322	-4,243457	2020-10-29T19:35:35:013
-9,112813	-0,936863	-3,499901	2020-10-29T19:35:35:031
-9,264782	-1,041852	-3,041174	2020-10-29T19:35:35:054
-9,323025	-1,125390	-2,825790	2020-10-29T19:35:35:070
-9,350176	-1,217099	-2,695046	2020-10-29T19:35:35:094
-9,355589	-1,323090	-2,625410	2020-10-29T19:35:35:110
-9,344968	-1,427912	-2,608261	2020-10-29T19:35:35:134
-9,326956	-1,522634	-2,619133	2020-10-29T19:35:35:150
-9,313159	-1,618121	-2,610965	2020-10-29T19:35:35:174
-9,303811	-1,707084	-2,587538	2020-10-29T19:35:35:190
-9,305130	-1,800550	-2,518522	2020-10-29T19:35:35:214
-9,306531	-1,894183	-2,443551	2020-10-29T19:35:35:230
-8,959713	-3,901223	-0,821205	2020-10-29T19:35:35:254
-9,183099	-3,306316	-0,953601	2020-10-29T19:35:35:270
-9,038782	-3,676011	-0,978646	2020-10-29T19:35:35:294
-8,787703	-4,238341	-0,991532	2020-10-29T19:35:35:311
-8,410750	-4,949062	-0,967703	2020-10-29T19:35:35:333
-7,971869	-5,640269	-0,898369	2020-10-29T19:35:35:350
-7,578465	-6,173347	-0,791865	2020-10-29T19:35:35:374
-7,286333	-6,529027	-0,671972	2020-10-29T19:35:35:391
-9,419057	-2,656856	-0,626787	2020-10-29T19:35:35:415
-9,492569	-2,372561	-0,657625	2020-10-29T19:35:35:430
-9,395308	-2,720316	-0,706010	2020-10-29T19:35:35:454
-9,268666	-3,118509	-0,732881	2020-10-29T19:35:35:470
-9,141296	-3,474345	-0,732123	2020-10-29T19:35:35:494
-9,110504	-3,560214	-0,702836	2020-10-29T19:35:35:511
-9,161401	-3,431343	-0,681907	2020-10-29T19:35:35:535
-9,192385	-3,354842	-0,644573	2020-10-29T19:35:35:550
-9,174815	-3,416685	-0,565172	2020-10-29T19:35:35:573
-9,110806	-3,596143	-0,480999	2020-10-29T19:35:35:590
-8,959528	-3,965457	-0,415209	2020-10-29T19:35:35:615
-8,665850	-4,577337	-0,348456	2020-10-29T19:35:35:631
-8,162678	-5,428632	-0,266525	2020-10-29T19:35:35:655
-7,446562	-6,378538	-0,182650	2020-10-29T19:35:35:670
-7,728831	-6,031945	-0,226247	2020-10-29T19:35:35:695
-8,191665	-5,383769	-0,286445	2020-10-29T19:35:35:711
-8,468851	-4,937089	-0,272222	2020-10-29T19:35:35:734
-8,866601	-4,182888	-0,239200	2020-10-29T19:35:35:751
-9,045259	-2,717940	-2,639409	2020-10-29T19:35:35:775
-9,037418	-3,043359	-2,287667	2020-10-29T19:35:35:791
-9,050465	-3,062848	-2,208719	2020-10-29T19:35:35:814
-9,059770	-3,084354	-2,139562	2020-10-29T19:35:35:831
-9,058174	-3,110007	-2,108963	2020-10-29T19:35:35:855
-9,030976	-3,169216	-2,137270	2020-10-29T19:35:35:871
-8,989788	-3,238286	-2,206265	2020-10-29T19:35:35:895
-8,934676	-3,317666	-2,309771	2020-10-29T19:35:35:911
-8,877009	-3,391910	-2,421576	2020-10-29T19:35:35:935
-8,831440	-3,451766	-2,502270	2020-10-29T19:35:35:951
-8,799348	-3,496927	-2,552128	2020-10-29T19:35:35:974
-8,785955	-3,523351	-2,561906	2020-10-29T19:35:35:991
-8,788462	-3,542544	-2,526601	2020-10-29T19:35:36:015
-8,803874	-3,558072	-2,449960	2020-10-29T19:35:36:031
-8,820329	-3,579447	-2,357911	2020-10-29T19:35:36:054
-8,841834	-3,650020	-2,160951	2020-10-29T19:35:36:071
-8,790367	-3,799155	-2,113352	2020-10-29T19:35:36:095
-8,689480	-4,061743	-2,040975	2020-10-29T19:35:36:111
-8,513677	-4,477905	-1,906845	2020-10-29T19:35:36:135
-8,294916	-4,971055	-1,628917	2020-10-29T19:35:36:152
-8,054755	-5,446208	-1,276761	2020-10-29T19:35:36:175
-7,940404	-5,652122	-1,083455	2020-10-29T19:35:36:191
-8,030438	-5,525454	-1,073221	2020-10-29T19:35:36:215
-8,164053	-5,306416	-1,166436	2020-10-29T19:35:36:232
-8,174279	-5,290030	-1,169240	2020-10-29T19:35:36:255
-8,128607	-5,380127	-1,072554	2020-10-29T19:35:36:271
-9,567091	-2,050259	-0,661506	2020-10-29T19:35:36:295
-9,464602	-2,297326	-1,146290	2020-10-29T19:35:36:311
-9,477278	-2,243603	-1,147968	2020-10-29T19:35:36:335
-9,489964	-2,189455	-1,147712	2020-10-29T19:35:36:351
-9,505883	-2,132959	-1,122073	2020-10-29T19:35:36:375
-9,525170	-2,076694	-1,062477	2020-10-29T19:35:36:391
-9,541550	-2,033975	-0,996075	2020-10-29T19:35:36:415
-9,556755	-1,986955	-0,943832	2020-10-29T19:35:36:432
-9,568877	-1,947991	-0,901276	2020-10-29T19:35:36:454
-9,578978	-1,908589	-0,877985	2020-10-29T19:35:36:472
-9,590281	-1,849242	-0,881583	2020-10-29T19:35:36:495
-9,599452	-1,797554	-0,888651	2020-10-29T19:35:36:512
-9,611627	-1,733951	-0,883419	2020-10-29T19:35:36:535
-9,625020	-1,657472	-0,884397	2020-10-29T19:35:36:552
-9,631268	-1,608062	-0,907307	2020-10-29T19:35:36:575
-9,629355	-1,597653	-0,945200	2020-10-29T19:35:36:592
-9,620978	-1,622148	-0,987819	2020-10-29T19:35:36:615
-9,604656	-1,688414	-1,034510	2020-10-29T19:35:36:631
-9,574361	-1,805297	-1,114855	2020-10-29T19:35:36:655
-9,548876	-1,912199	-1,154495	2020-10-29T19:35:36:672
-9,519106	-2,048084	-1,167199	2020-10-29T19:35:36:694
-9,479835	-2,220697	-1,171163	2020-10-29T19:35:36:713
-9,427822	-2,426472	-1,182706	2020-10-29T19:35:36:736
-9,379108	-2,622029	-1,152247	2020-10-29T19:35:36:751
-9,335442	-2,801384	-1,082662	2020-10-29T19:35:36:775
-9,299968	-2,950228	-0,988498	2020-10-29T19:35:36:792
-9,265000	-3,082551	-0,909961	2020-10-29T19:35:36:816
-9,233521	-3,191405	-0,852879	2020-10-29T19:35:36:833
-8,759233	-3,081581	3,154377	2020-10-29T19:35:36:857
-8,523403	-3,497916	3,359549	2020-10-29T19:35:36:872
-8,461905	-3,674249	3,326626	2020-10-29T19:35:36:895
-8,389437	-3,902467	3,249381	2020-10-29T19:35:36:912
-8,315944	-4,143381	3,138131	2020-10-29T19:35:36:935
-8,262330	-4,333260	3,021117	2020-10-29T19:35:36:952
-8,243500	-4,466977	2,874233	2020-10-29T19:35:36:976
-8,252088	-4,609712	2,612278	2020-10-29T19:35:36:992
-8,242006	-4,787339	2,306752	2020-10-29T19:35:37:016
-8,138004	-5,067228	2,065545	2020-10-29T19:35:37:032
-7,889565	-5,539104	1,800966	2020-10-29T19:35:37:056
-7,409673	-6,254849	1,464234	2020-10-29T19:35:37:072
-9,392293	2,602209	-1,087993	2020-10-29T19:35:37:097
-8,183635	4,061252	-3,564371	2020-10-29T19:35:37:112
-8,105208	4,291344	-3,472801	2020-10-29T19:35:37:136
-8,065261	4,338204	-3,507412	2020-10-29T19:35:37:152
-8,042796	4,278044	-3,630723	2020-10-29T19:35:37:175
-8,066898	4,192013	-3,677303	2020-10-29T19:35:37:192
-8,261094	-3,288453	-4,136518	2020-10-29T19:35:37:217
-7,919463	-2,563108	-5,184879	2020-10-29T19:35:37:233
-8,819317	-2,130666	-3,721599	2020-10-29T19:35:37:256
-8,357301	-4,719496	-2,013023	2020-10-29T19:35:37:272
-8,349305	-4,770887	-1,923050	2020-10-29T19:35:37:296
-8,369411	-4,783629	-1,800064	2020-10-29T19:35:37:313
-8,387428	-4,782425	-1,717508	2020-10-29T19:35:37:337
-8,393152	-4,787292	-1,675471	2020-10-29T19:35:37:352
-8,403749	-4,766542	-1,681506	2020-10-29T19:35:37:376
-8,431047	-4,690296	-1,757538	2020-10-29T19:35:37:392
-8,468008	-4,582944	-1,860065	2020-10-29T19:35:37:415
-8,497425	-4,506226	-1,912611	2020-10-29T19:35:37:432
-8,524701	-4,436676	-1,953397	2020-10-29T19:35:37:456
-8,561295	-4,333037	-2,024701	2020-10-29T19:35:37:472
-8,612520	-4,188955	-2,108919	2020-10-29T19:35:37:495
-8,663772	-4,060086	-2,150616	2020-10-29T19:35:37:513
-8,715557	-3,896740	-2,241620	2020-10-29T19:35:37:536
-8,730810	-3,822533	-2,309022	2020-10-29T19:35:37:553
-9,096009	-1,979889	-3,084323	2020-10-29T19:35:37:577
-8,893159	-1,949245	-3,644524	2020-10-29T19:35:37:592
-8,886476	-1,912514	-3,680113	2020-10-29T19:35:37:617
-8,891708	-1,920137	-3,663466	2020-10-29T19:35:37:633
-8,909240	-1,994147	-3,580392	2020-10-29T19:35:37:655
-8,913404	-1,993008	-3,570648	2020-10-29T19:35:37:673
-8,902931	-1,967617	-3,610634	2020-10-29T19:35:37:696
-8,910789	-2,034743	-3,553595	2020-10-29T19:35:37:713
-8,922614	-2,063618	-3,506967	2020-10-29T19:35:37:736
-8,909310	-2,029602	-3,560238	2020-10-29T19:35:37:753
-8,886737	-1,989594	-3,638380	2020-10-29T19:35:37:776
-8,949325	-2,100188	-3,416020	2020-10-29T19:35:37:793
-9,000094	-2,158800	-3,241646	2020-10-29T19:35:37:817
-9,031358	-2,168910	-3,146551	2020-10-29T19:35:37:833
-9,063322	-2,192062	-3,036683	2020-10-29T19:35:37:857
-9,122672	-2,265608	-2,795398	2020-10-29T19:35:37:873
-9,194859	-2,370624	-2,450530	2020-10-29T19:35:37:895
-9,289701	-2,376055	-2,055772	2020-10-29T19:35:37:913
-9,367809	-2,370590	-1,671774	2020-10-29T19:35:37:937
-9,389307	-2,279281	-1,678146	2020-10-29T19:35:37:953
-9,433770	-2,136463	-1,615518	2020-10-29T19:35:37:976
-9,460653	-2,174334	-1,392369	2020-10-29T19:35:37:993
-7,054163	-5,885506	-3,430741	2020-10-29T19:35:38:017
-7,151415	-5,771310	-3,423395	2020-10-29T19:35:38:033
-6,986920	-5,953881	-3,450308	2020-10-29T19:35:38:056
-6,814170	-6,202222	-3,357069	2020-10-29T19:35:38:073
-6,590359	-6,498018	-3,242425	2020-10-29T19:35:38:098
-6,326525	-6,796055	-3,155805	2020-10-29T19:35:38:113
-6,076561	-7,048169	-3,093396	2020-10-29T19:35:38:142
-5,844123	-7,268758	-3,030143	2020-10-29T19:35:38:153
-5,667265	-7,441409	-2,945831	2020-10-29T19:35:38:177
-5,512739	-7,590022	-2,858613	2020-10-29T19:35:38:193
-5,373499	-7,731975	-2,740885	2020-10-29T19:35:38:216
-5,209926	-7,894300	-2,589805	2020-10-29T19:35:38:233
-4,992182	-8,080865	-2,438879	2020-10-29T19:35:38:257
-4,933179	-8,174456	-2,238841	2020-10-29T19:35:38:273
-5,010043	-8,174798	-2,059741	2020-10-29T19:35:38:297
-5,029686	-8,190964	-1,944416	2020-10-29T19:35:38:313
-5,092532	-8,215871	-1,654078	2020-10-29T19:35:38:338
-5,088722	-8,261713	-1,421054	2020-10-29T19:35:38:353
-7,793418	-3,639273	4,710490	2020-10-29T19:35:38:377
-7,775084	-4,159334	4,291667	2020-10-29T19:35:38:393
-7,493787	-4,288321	4,650144	2020-10-29T19:35:38:417
-7,176663	-4,320904	5,098595	2020-10-29T19:35:38:433
-6,884073	-4,284715	5,515536	2020-10-29T19:35:38:457
-6,656462	-4,263268	5,804003	2020-10-29T19:35:38:473
-6,508112	-4,310133	5,936128	2020-10-29T19:35:38:497
-6,420462	-4,405832	5,961267	2020-10-29T19:35:38:514
-6,388855	-4,545729	5,889760	2020-10-29T19:35:38:538
-6,431717	-4,752259	5,676216	2020-10-29T19:35:38:553
-6,515213	-4,963159	5,393464	2020-10-29T19:35:38:577
-6,590319	-5,181158	5,088584	2020-10-29T19:35:38:593
-6,671448	-5,166053	4,997405	2020-10-29T19:35:38:617
-6,800058	-5,040588	4,951976	2020-10-29T19:35:38:636
-0,630181	-9,694679	1,336580	2020-10-29T19:35:38:658
-1,143212	-9,680188	1,075830	2020-10-29T19:35:38:673
-1,590522	-9,539614	1,623698	2020-10-29T19:35:38:697
-1,977700	-9,367993	2,121269	2020-10-29T19:35:38:714
-2,216889	-9,282618	2,255836	2020-10-29T19:35:38:737
-2,392535	-9,225278	2,310933	2020-10-29T19:35:38:753
-2,599902	-9,107286	2,543271	2020-10-29T19:35:38:777
-2,856673	-8,908107	2,942012	2020-10-29T19:35:38:793
-3,075573	-8,715617	3,278605	2020-10-29T19:35:38:818
-3,255355	-8,548374	3,535299	2020-10-29T19:35:38:834
-3,359174	-8,383032	3,822448	2020-10-29T19:35:38:857
-3,447644	-8,110277	4,302039	2020-10-29T19:35:38:874
-3,563960	-7,768446	4,808307	2020-10-29T19:35:38:897
-3,684685	-7,519675	5,103721	2020-10-29T19:35:38:914
-3,711895	-7,458082	5,173900	2020-10-29T19:35:38:938
-3,747298	-7,395795	5,237399	2020-10-29T19:35:38:954
-3,919846	-7,128892	5,475772	2020-10-29T19:35:38:978
-4,141625	-6,810734	5,712375	2020-10-29T19:35:38:994
-4,344400	-6,525084	5,892356	2020-10-29T19:35:39:018
-4,480248	-6,356919	5,973888	2020-10-29T19:35:39:034
-4,544495	-6,305290	5,980073	2020-10-29T19:35:39:058
-4,645958	-6,169386	6,043520	2020-10-29T19:35:39:074
-5,631445	-3,027165	7,435959	2020-10-29T19:35:39:099
-5,588382	-3,029670	7,467360	2020-10-29T19:35:39:114
-5,632576	-3,050103	7,425722	2020-10-29T19:35:39:139
-5,675217	-3,047213	7,394376	2020-10-29T19:35:39:154
-5,701792	-3,064677	7,366662	2020-10-29T19:35:39:178
-5,715438	-3,093477	7,344015	2020-10-29T19:35:39:194
-5,734448	-3,067485	7,340097	2020-10-29T19:35:39:219
-5,749234	-3,031668	7,343411	2020-10-29T19:35:39:234
-5,756922	-3,017359	7,343281	2020-10-29T19:35:39:259
-5,758317	-3,027177	7,338144	2020-10-29T19:35:39:274
-5,765406	-3,054456	7,321255	2020-10-29T19:35:39:299
-5,780487	-3,091933	7,293580	2020-10-29T19:35:39:314
-5,802918	-3,126556	7,260934	2020-10-29T19:35:39:338
-5,845429	-3,154055	7,214796	2020-10-29T19:35:39:354
-5,900101	-3,159061	7,167951	2020-10-29T19:35:39:379
-5,946862	-3,127223	7,143228	2020-10-29T19:35:39:394
-6,027089	-3,034178	7,116062	2020-10-29T19:35:39:418
-6,101537	-2,954964	7,085889	2020-10-29T19:35:39:435
-7,136716	-1,671796	6,514812	2020-10-29T19:35:39:459
-6,957487	-1,783725	6,676981	2020-10-29T19:35:39:474
-6,617821	-1,858776	6,994268	2020-10-29T19:35:39:501
-6,047954	-2,900246	7,154105	2020-10-29T19:35:39:514
-6,104601	-2,928687	7,094154	2020-10-29T19:35:39:539
-6,155644	-2,955804	7,038583	2020-10-29T19:35:39:554
-6,206070	-2,965465	6,990071	2020-10-29T19:35:39:577
-6,258317	-2,954512	6,948000	2020-10-29T19:35:39:594
-6,311996	-2,945720	6,903030	2020-10-29T19:35:39:619
-6,359525	-2,944343	6,859859	2020-10-29T19:35:39:634
-6,397444	-2,947873	6,822986	2020-10-29T19:35:39:658
-6,440423	-2,942036	6,784966	2020-10-29T19:35:39:674
-6,490464	-2,925597	6,744267	2020-10-29T19:35:39:698
-6,551397	-2,894950	6,698421	2020-10-29T19:35:39:715
-6,630183	-2,857219	6,636818	2020-10-29T19:35:39:739
-6,704678	-2,821440	6,577018	2020-10-29T19:35:39:754
-6,749550	-2,821897	6,530762	2020-10-29T19:35:39:779
-6,779620	-2,831558	6,495338	2020-10-29T19:35:39:795
-6,795015	-2,818934	6,484734	2020-10-29T19:35:39:818
-6,812519	-2,785538	6,480798	2020-10-29T19:35:39:835
-6,828377	-2,742336	6,482534	2020-10-29T19:35:39:858
-6,841111	-2,696965	6,488141	2020-10-29T19:35:39:874
-6,865749	-2,256828	6,628620	2020-10-29T19:35:39:898
-6,868252	-2,223011	6,637448	2020-10-29T19:35:39:915
-6,882653	-2,223507	6,622347	2020-10-29T19:35:39:939
-6,903827	-2,222643	6,600562	2020-10-29T19:35:39:955
-6,926911	-2,221603	6,576684	2020-10-29T19:35:39:979
-6,950142	-2,223687	6,551422	2020-10-29T19:35:39:995
-6,973765	-2,225438	6,525673	2020-10-29T19:35:40:019
-6,998496	-2,224232	6,499557	2020-10-29T19:35:40:036
-7,019112	-2,217110	6,479729	2020-10-29T19:35:40:058
-7,038651	-2,212683	6,460015	2020-10-29T19:35:40:075
-7,056445	-2,202307	6,444131	2020-10-29T19:35:40:099
-7,074527	-2,199765	6,425145	2020-10-29T19:35:40:117
-7,094133	-2,212610	6,399064	2020-10-29T19:35:40:139
-7,108268	-2,226577	6,378500	2020-10-29T19:35:40:155
-7,114397	-2,261772	6,359256	2020-10-29T19:35:40:179
-7,130498	-2,253793	6,344037	2020-10-29T19:35:40:195
-7,140719	-2,239451	6,337616	2020-10-29T19:35:40:219
-7,156630	-2,217052	6,327537	2020-10-29T19:35:40:235
-7,172853	-2,203834	6,313770	2020-10-29T19:35:40:259
-7,182827	-2,191378	6,306762	2020-10-29T19:35:40:275
-7,168040	-2,356973	6,263726	2020-10-29T19:35:40:299
-7,123880	-2,302595	6,333938	2020-10-29T19:35:40:315
-7,120162	-2,265959	6,351307	2020-10-29T19:35:40:339
-7,114715	-2,243422	6,365396	2020-10-29T19:35:40:355
-7,108349	-2,216839	6,381800	2020-10-29T19:35:40:378
-7,076380	-2,201166	6,422624	2020-10-29T19:35:40:395
-6,947912	-2,031503	6,615883	2020-10-29T19:35:40:420
-7,018323	-1,938055	6,569435	2020-10-29T19:35:40:435
-7,009234	-1,953463	6,574572	2020-10-29T19:35:40:459
-6,997428	-1,920494	6,596824	2020-10-29T19:35:40:475
-6,999021	-1,898319	6,601551	2020-10-29T19:35:40:499
-7,007928	-1,879170	6,597579	2020-10-29T19:35:40:515
-7,023541	-1,857839	6,587008	2020-10-29T19:35:40:539
-7,063257	-1,857037	6,544631	2020-10-29T19:35:40:555
-7,092229	-1,866703	6,510460	2020-10-29T19:35:40:579
-7,115481	-1,898493	6,475804	2020-10-29T19:35:40:595
-7,138340	-1,935085	6,439715	2020-10-29T19:35:40:619
-7,160626	-1,964425	6,406002	2020-10-29T19:35:40:636
-7,178646	-1,984061	6,379728	2020-10-29T19:35:40:659
-7,197544	-1,995032	6,354966	2020-10-29T19:35:40:676
-7,317612	-2,103709	6,180400	2020-10-29T19:35:40:701
-7,308930	-2,059636	6,205467	2020-10-29T19:35:40:715
-7,321095	-2,082097	6,183593	2020-10-29T19:35:40:740
-7,332032	-2,107255	6,162075	2020-10-29T19:35:40:756
-7,338653	-2,133233	6,145232	2020-10-29T19:35:40:778
-7,339964	-2,160943	6,133974	2020-10-29T19:35:40:796
-7,234472	-2,356585	6,187027	2020-10-29T19:35:40:821
-7,248610	-2,250314	6,210002	2020-10-29T19:35:40:836
-7,249685	-2,258274	6,205856	2020-10-29T19:35:40:859
-7,251610	-2,258961	6,203357	2020-10-29T19:35:40:876
-7,255253	-2,262351	6,197858	2020-10-29T19:35:40:900
-7,257080	-2,262441	6,195687	2020-10-29T19:35:40:916
-7,254698	-2,270303	6,195601	2020-10-29T19:35:40:941
-7,251805	-2,277718	6,196266	2020-10-29T19:35:40:955
-7,252752	-2,274204	6,196448	2020-10-29T19:35:40:980
-7,250161	-2,270551	6,200819	2020-10-29T19:35:40:996
-7,253875	-2,275883	6,194517	2020-10-29T19:35:41:019
-7,265384	-2,201486	6,207901	2020-10-29T19:35:41:036
-7,263525	-2,204540	6,208993	2020-10-29T19:35:41:061
-7,259702	-2,216600	6,209171	2020-10-29T19:35:41:076
-7,123537	-2,382915	6,304548	2020-10-29T19:35:41:100
-7,147302	-2,358998	6,286620	2020-10-29T19:35:41:116
-7,144877	-2,363626	6,287637	2020-10-29T19:35:41:140
-7,139283	-2,378307	6,288456	2020-10-29T19:35:41:156
-7,134480	-2,388184	6,290164	2020-10-29T19:35:41:180
-7,128853	-2,396063	6,293546	2020-10-29T19:35:41:196
-7,127947	-2,398405	6,293680	2020-10-29T19:35:41:221
-7,123807	-2,406374	6,295325	2020-10-29T19:35:41:236
-7,118876	-2,420590	6,295453	2020-10-29T19:35:41:259
-7,114718	-2,433671	6,295111	2020-10-29T19:35:41:277
-7,107137	-2,447189	6,298433	2020-10-29T19:35:41:301
-7,092240	-2,464707	6,308386	2020-10-29T19:35:41:316
-6,640440	-2,791252	6,654611	2020-10-29T19:35:41:340
-6,529872	-2,534152	6,863616	2020-10-29T19:35:41:356
-6,489804	-2,496701	6,915151	2020-10-29T19:35:41:380
-6,428360	-2,431708	6,995238	2020-10-29T19:35:41:396
-4,329398	-1,110080	8,728941	2020-10-29T19:35:41:422
-3,055090	-0,088914	9,318203	2020-10-29T19:35:41:436
-7,215789	-0,058148	6,640737	2020-10-29T19:35:41:460
-7,269223	0,031859	6,582383	2020-10-29T19:35:41:476
-7,359908	0,090334	6,480276	2020-10-29T19:35:41:499
-7,557536	0,096395	6,248579	2020-10-29T19:35:41:517
-7,974782	-0,056520	5,707017	2020-10-29T19:35:41:541
-8,108506	-0,345342	5,504839	2020-10-29T19:35:41:556
-7,826505	-5,395831	2,408572	2020-10-29T19:35:41:580
-8,028783	-4,870165	2,826751	2020-10-29T19:35:41:597
-8,044800	-4,885293	2,754177	2020-10-29T19:35:41:621
-8,055772	-4,845773	2,791666	2020-10-29T19:35:41:637
-8,116356	-4,662029	2,925856	2020-10-29T19:35:41:660
-8,180999	-4,520065	2,968276	2020-10-29T19:35:41:676
-8,265095	-4,372402	2,956468	2020-10-29T19:35:41:701
-8,352543	-4,249639	2,888941	2020-10-29T19:35:41:717
-8,442965	-4,153305	2,763474	2020-10-29T19:35:41:739
-8,560122	-4,028193	2,582314	2020-10-29T19:35:41:756
-8,729110	-3,796180	2,358399	2020-10-29T19:35:41:781
-8,907460	-3,496242	2,145653	2020-10-29T19:35:41:797
-9,083988	-2,365855	2,838004	2020-10-29T19:35:41:821
-9,697279	-1,176493	0,865466	2020-10-29T19:35:41:837
-9,699142	-1,185426	0,831738	2020-10-29T19:35:41:861
-9,709722	-1,166437	0,728778	2020-10-29T19:35:41:877
-9,055775	-2,600964	2,719985	2020-10-29T19:35:41:902
-9,270733	-2,660466	1,773644	2020-10-29T19:35:41:917
-9,364532	-2,495232	1,499915	2020-10-29T19:35:41:941
-9,453254	-2,312555	1,207674	2020-10-29T19:35:41:957
-9,539558	-2,083611	0,908724	2020-10-29T19:35:41:979
-9,611665	-1,839061	0,635725	2020-10-29T19:35:41:997
-9,565051	-2,154857	-0,191744	2020-10-29T19:35:42:022
-9,480383	-2,471332	-0,430401	2020-10-29T19:35:42:037
-9,552244	-2,175602	-0,437917	2020-10-29T19:35:42:061
-9,624835	-1,731210	-0,732017	2020-10-29T19:35:42:077
-9,588843	-1,839224	-0,917453	2020-10-29T19:35:42:100
-9,554740	-1,921174	-1,089232	2020-10-29T19:35:42:117
-9,525187	-1,961394	-1,262585	2020-10-29T19:35:42:141
-9,498871	-1,979009	-1,423151	2020-10-29T19:35:42:157
-9,477388	-1,952973	-1,592290	2020-10-29T19:35:42:181
-9,409224	-2,205672	-1,664902	2020-10-29T19:35:42:197
-9,762877	-0,799975	0,465464	2020-10-29T19:35:42:221
-9,498357	-1,323843	2,049156	2020-10-29T19:35:42:237
-9,528481	-1,208552	1,979356	2020-10-29T19:35:42:261
-9,510261	-1,221107	2,057725	2020-10-29T19:35:42:277
-9,461915	-1,293436	2,229253	2020-10-29T19:35:42:301
-9,427752	-1,298223	2,366960	2020-10-29T19:35:42:318
-6,727767	1,398337	-6,996583	2020-10-29T19:35:42:342
-6,823093	1,403639	-6,902578	2020-10-29T19:35:42:358
-7,181937	1,446775	-6,518973	2020-10-29T19:35:42:381
-7,542330	1,467296	-6,093495	2020-10-29T19:35:42:397
-7,870145	1,476746	-5,661309	2020-10-29T19:35:42:422
-8,158735	1,456636	-5,242484	2020-10-29T19:35:42:438
-8,410520	1,409322	-4,842247	2020-10-29T19:35:42:461
-8,598596	1,358028	-4,515562	2020-10-29T19:35:42:478
-8,739814	1,327493	-4,245444	2020-10-29T19:35:42:502
-8,865842	1,324421	-3,976574	2020-10-29T19:35:42:518
-9,032638	0,870463	-3,718082	2020-10-29T19:35:42:542
-9,176833	0,479937	-3,424292	2020-10-29T19:35:42:557
-9,431621	0,430501	-2,651336	2020-10-29T19:35:42:582
-9,551891	0,356689	-2,191925	2020-10-29T19:35:42:598
-9,622938	0,265666	-1,870524	2020-10-29T19:35:42:622
-9,670437	0,157586	-1,621171	2020-10-29T19:35:42:637
-9,704329	0,051221	-1,412006	2020-10-29T19:35:42:662
-9,731218	-0,071281	-1,211893	2020-10-29T19:35:42:678
-9,260326	-1,781741	-2,691123	2020-10-29T19:35:42:701
-9,291782	-2,069204	-2,356174	2020-10-29T19:35:42:718
-9,309654	-2,040973	-2,309796	2020-10-29T19:35:42:742
-9,336702	-2,007315	-2,228690	2020-10-29T19:35:42:757
-9,373044	-1,955596	-2,119452	2020-10-29T19:35:42:781
-9,412890	-1,889144	-1,999752	2020-10-29T19:35:42:798
-9,454075	-1,809511	-1,875241	2020-10-29T19:35:42:822
-9,492843	-1,718994	-1,761071	2020-10-29T19:35:42:838
-9,527207	-1,620480	-1,666357	2020-10-29T19:35:42:863
-9,556831	-1,517275	-1,592243	2020-10-29T19:35:42:878
-9,579648	-1,409547	-1,553676	2020-10-29T19:35:42:902
-8,005235	-3,640998	-4,339324	2020-10-29T19:35:42:918
-7,935995	-3,383882	-4,662586	2020-10-29T19:35:42:941
-7,881696	-3,055756	-4,971077	2020-10-29T19:35:42:958
-7,786017	-2,639282	-5,346262	2020-10-29T19:35:42:982
-7,753244	-2,234475	-5,573573	2020-10-29T19:35:42:998
-7,796854	-1,806045	-5,667243	2020-10-29T19:35:43:021
-7,934220	-1,375341	-5,597051	2020-10-29T19:35:43:039
-8,207445	-0,921892	-5,287565	2020-10-29T19:35:43:062
-8,797542	-0,458638	-4,308514	2020-10-29T19:35:43:078
-9,392793	-2,132586	1,843342	2020-10-29T19:35:43:104
-9,457693	-1,591054	2,047185	2020-10-29T19:35:43:118
-9,540499	-1,416959	1,772426	2020-10-29T19:35:43:142
-9,598175	-1,281438	1,550271	2020-10-29T19:35:43:158
-9,637043	-1,213451	1,351042	2020-10-29T19:35:43:181
-9,644174	-1,292733	1,220307	2020-10-29T19:35:43:199
-7,712164	-6,057313	0,043125	2020-10-29T19:35:43:223
-7,807295	-5,871277	0,862921	2020-10-29T19:35:43:238
-7,109623	-6,718745	0,694341	2020-10-29T19:35:43:261
-6,712655	-7,122959	0,611644	2020-10-29T19:35:43:278
-6,702354	-7,135223	0,580873	2020-10-29T19:35:43:302
-6,834589	-7,008635	0,581213	2020-10-29T19:35:43:319
-6,895974	-6,948518	0,577952	2020-10-29T19:35:43:343
-6,822746	-7,023936	0,533703	2020-10-29T19:35:43:358
-6,747465	-7,099936	0,482702	2020-10-29T19:35:43:382
-6,643214	-7,201181	0,425544	2020-10-29T19:35:43:399
-6,432883	-7,393296	0,357185	2020-10-29T19:35:43:421
-6,409704	-7,414654	0,330123	2020-10-29T19:35:43:439
-6,745547	-7,108747	0,365655	2020-10-29T19:35:43:462
-7,318713	-6,513009	0,433065	2020-10-29T19:35:43:478
-7,886333	-5,805778	0,518734	2020-10-29T19:35:43:502
-8,230245	-5,297160	0,611184	2020-10-29T19:35:43:519
-8,377901	-5,045443	0,724340	2020-10-29T19:35:43:543
-8,401154	-4,988662	0,839205	2020-10-29T19:35:43:559
-8,362502	-5,033100	0,952282	2020-10-29T19:35:43:583
-8,301576	-5,109180	1,072615	2020-10-29T19:35:43:598
-8,221731	-5,215845	1,169821	2020-10-29T19:35:43:623
-8,111394	-5,368245	1,248046	2020-10-29T19:35:43:639
-8,015766	-5,513102	1,234340	2020-10-29T19:35:43:661
-7,915972	-5,659620	1,215100	2020-10-29T19:35:43:679
-7,848546	-5,743720	1,257140	2020-10-29T19:35:43:703
-7,781160	-5,831992	1,269568	2020-10-29T19:35:43:719
-7,686041	-5,964535	1,232672	2020-10-29T19:35:43:742
-7,576035	-6,118181	1,158416	2020-10-29T19:35:43:759
-7,429002	-6,296920	1,152873	2020-10-29T19:35:43:783
-7,306801	-6,439460	1,146475	2020-10-29T19:35:43:799
-7,202872	-6,558061	1,131748	2020-10-29T19:35:43:823
-7,084354	-6,692780	1,090415	2020-10-29T19:35:43:839
-9,680581	-1,288324	-0,892726	2020-10-29T19:35:43:864
-9,698566	-1,270515	-0,702838	2020-10-29T19:35:43:879
-9,696948	-1,296080	-0,678059	2020-10-29T19:35:43:902
-9,701363	-1,285553	-0,633483	2020-10-29T19:35:43:919
-9,713851	-1,220713	-0,566867	2020-10-29T19:35:43:943
-9,730276	-1,115211	-0,498415	2020-10-29T19:35:43:959
-9,709623	-0,758504	1,148160	2020-10-29T19:35:43:983
-9,761081	-0,821731	0,465245	2020-10-29T19:35:43:999
-9,780650	-0,610539	0,369478	2020-10-29T19:35:44:023
-9,796612	-0,364407	0,252964	2020-10-29T19:35:44:039
-9,805569	-0,044185	0,138754	2020-10-29T19:35:44:065
-9,664734	-1,655092	0,154857	2020-10-29T19:35:44:079
-9,698353	-1,413471	-0,338295	2020-10-29T19:35:44:103
-9,738170	-1,088626	-0,391578	2020-10-29T19:35:44:120
-9,771883	-0,722695	-0,397989	2020-10-29T19:35:44:142
-9,795432	-0,335423	-0,327701	2020-10-29T19:35:44:159
-9,803614	-0,012127	-0,243722	2020-10-29T19:35:44:183
-9,802160	0,258090	-0,146412	2020-10-29T19:35:44:199
-9,797877	0,410010	-0,062289	2020-10-29T19:35:44:223
-9,791497	0,544287	-0,026909	2020-10-29T19:35:44:240
-9,793248	0,507783	-0,069528	2020-10-29T19:35:44:264
-9,802929	0,217755	-0,159836	2020-10-29T19:35:44:279
-9,803194	-0,119659	-0,231197	2020-10-29T19:35:44:303
-9,795703	-0,392091	-0,246667	2020-10-29T19:35:44:320
-9,792176	-0,483936	-0,222415	2020-10-29T19:35:44:344
-9,795311	-0,427325	-0,199140	2020-10-29T19:35:44:360
-9,795262	-0,433750	-0,187300	2020-10-29T19:35:44:382
-9,790031	-0,542122	-0,178268	2020-10-29T19:35:44:400
-9,774562	-0,771171	-0,183370	2020-10-29T19:35:44:425
-9,743497	-1,090295	-0,214272	2020-10-29T19:35:44:440
-9,694668	-1,454817	-0,259443	2020-10-29T19:35:44:463
-9,631741	-1,819838	-0,296885	2020-10-29T19:35:44:480
-9,558720	-2,168167	-0,316717	2020-10-29T19:35:44:503
-7,261209	-6,535769	-0,853785	2020-10-29T19:35:44:521
-6,437493	-7,345945	-0,875302	2020-10-29T19:35:44:545
-5,564320	-8,037569	-0,778592	2020-10-29T19:35:44:559
-4,719966	-8,577042	-0,571541	2020-10-29T19:35:44:584
-4,133237	-8,886306	-0,346844	2020-10-29T19:35:44:600
-4,168454	-8,876210	-0,085268	2020-10-29T19:35:44:623
-5,924679	-7,812217	0,194510	2020-10-29T19:35:44:640
-7,353215	-6,477500	0,377633	2020-10-29T19:35:44:664
-7,866704	-5,836435	0,470499	2020-10-29T19:35:44:680
-8,086308	-5,524559	0,511121	2020-10-29T19:35:44:703
-8,213367	-5,332897	0,520775	2020-10-29T19:35:44:720
-8,338034	-5,139516	0,482656	2020-10-29T19:35:44:744
-2,297433	-9,491703	0,894294	2020-10-29T19:35:44:760
-2,421666	-9,468643	0,806670	2020-10-29T19:35:44:784
-2,881024	-9,357040	0,562031	2020-10-29T19:35:44:800
-3,498914	-9,155424	0,325872	2020-10-29T19:35:44:824
-4,364632	-8,781512	0,073602	2020-10-29T19:35:44:840
-5,260337	-8,275225	-0,141040	2020-10-29T19:35:44:863
-5,988563	-7,760392	-0,289509	2020-10-29T19:35:44:880
-6,492743	-7,340219	-0,368581	2020-10-29T19:35:44:905
-6,843655	-7,011710	-0,413153	2020-10-29T19:35:44:920
-7,080929	-6,770355	-0,439461	2020-10-29T19:35:44:943
-7,233800	-6,605810	-0,453636	2020-10-29T19:35:44:960
-7,311846	-6,519753	-0,447350	2020-10-29T19:35:44:984
-7,346864	-6,481669	-0,426549	2020-10-29T19:35:45:001
-7,389442	-6,434196	-0,409461	2020-10-29T19:35:45:025
-7,812280	-5,906736	-0,499137	2020-10-29T19:35:45:040
-8,279630	-5,222463	-0,586506	2020-10-29T19:35:45:065
-8,593554	-4,684232	-0,615768	2020-10-29T19:35:45:080
-8,610271	-4,661598	-0,550552	2020-10-29T19:35:45:103
-8,617343	-4,655085	-0,491900	2020-10-29T19:35:45:121
-8,703749	-4,493396	-0,473848	2020-10-29T19:35:45:145
-8,898536	-4,095602	-0,460971	2020-10-29T19:35:45:160
-9,648577	-1,752882	-0,052482	2020-10-29T19:35:45:184
-9,626057	-1,836047	0,371958	2020-10-29T19:35:45:201
-9,597380	-1,972594	0,411787	2020-10-29T19:35:45:225
-9,574591	-2,072751	0,448669	2020-10-29T19:35:45:241
-9,536578	-2,228680	0,506999	2020-10-29T19:35:45:264
-9,495299	-2,385875	0,563275	2020-10-29T19:35:45:280
-9,453756	-2,535799	0,605479	2020-10-29T19:35:45:305
-9,385553	-2,770324	0,638028	2020-10-29T19:35:45:321
-9,106459	-3,586425	0,616733	2020-10-29T19:35:45:343
-8,474833	-4,911410	0,475023	2020-10-29T19:35:45:361
-8,198867	-5,370636	0,324385	2020-10-29T19:35:45:385
-8,372926	-5,100679	0,218080	2020-10-29T19:35:45:401
-8,680484	-4,560056	0,159589	2020-10-29T19:35:45:424
-8,979176	-3,940828	0,121104	2020-10-29T19:35:45:441
-9,252115	-3,248840	0,117389	2020-10-29T19:35:45:465
-9,455962	-2,592446	0,185436	2020-10-29T19:35:45:481
-9,364796	-1,696594	-2,364858	2020-10-29T19:35:45:505
-9,246202	-2,115656	-2,490410	2020-10-29T19:35:45:521
-9,345740	-1,818477	-2,349610	2020-10-29T19:35:45:546
-9,414474	-1,610108	-2,223876	2020-10-29T19:35:45:561
-9,470523	-1,457680	-2,086804	2020-10-29T19:35:45:584
-9,516593	-1,321558	-1,964264	2020-10-29T19:35:45:601
-9,544355	-1,238997	-1,881635	2020-10-29T19:35:45:625
-9,556257	-1,184383	-1,856226	2020-10-29T19:35:45:641
-9,558609	-1,172683	-1,851536	2020-10-29T19:35:45:664
-9,544269	-1,188610	-1,914296	2020-10-29T19:35:45:681
-9,515695	-1,226307	-2,029315	2020-10-29T19:35:45:705
-9,473271	-1,275826	-2,190841	2020-10-29T19:35:45:721
-9,416974	-1,309981	-2,403108	2020-10-29T19:35:45:745
-9,365413	-1,328056	-2,587604	2020-10-29T19:35:45:761
-9,322645	-1,319111	-2,742010	2020-10-29T19:35:45:785
-9,310897	-1,293161	-2,793798	2020-10-29T19:35:45:801
-9,333473	-1,248839	-2,738077	2020-10-29T19:35:45:824
-9,391485	-1,176515	-2,566359	2020-10-29T19:35:45:841
-9,494757	-1,103680	-2,191316	2020-10-29T19:35:45:865
-9,583115	-0,995599	-1,828411	2020-10-29T19:35:45:881
-9,648306	-0,877384	-1,520123	2020-10-29T19:35:45:904
-9,691603	-0,770198	-1,284533	2020-10-29T19:35:45:921
-9,717322	-0,650526	-1,149278	2020-10-29T19:35:45:945
-9,734050	-0,561696	-1,050310	2020-10-29T19:35:45:961
-9,746246	-0,494644	-0,967676	2020-10-29T19:35:45:985
-9,757519	-0,471943	-0,859350	2020-10-29T19:35:46:001
-9,762657	-0,481009	-0,793431	2020-10-29T19:35:46:026
-9,759439	-0,512471	-0,813086	2020-10-29T19:35:46:042
-9,754463	-0,567515	-0,835916	2020-10-29T19:35:46:065
-9,748787	-0,638276	-0,850971	2020-10-29T19:35:46:081
-9,738321	-0,736999	-0,890124	2020-10-29T19:35:46:105
-9,726912	-0,849588	-0,914193	2020-10-29T19:35:46:122
-9,719539	-0,956745	-0,886334	2020-10-29T19:35:46:146
-9,711820	-1,072020	-0,837685	2020-10-29T19:35:46:161
-9,704261	-1,192135	-0,759287	2020-10-29T19:35:46:185
-9,696313	-1,322001	-0,635776	2020-10-29T19:35:46:202
-9,687827	-1,434933	-0,507296	2020-10-29T19:35:46:227
-9,679909	-1,522304	-0,390318	2020-10-29T19:35:46:241
-9,672297	-1,587204	-0,312812	2020-10-29T19:35:46:266
-9,651368	-1,708684	-0,319195	2020-10-29T19:35:46:281
-8,281219	-5,174003	-0,906360	2020-10-29T19:35:46:304
-7,924226	-5,684132	-1,033278	2020-10-29T19:35:46:322
-7,531404	-6,167074	-1,189764	2020-10-29T19:35:46:346
-7,092306	-6,638631	-1,340954	2020-10-29T19:35:46:361
-6,673449	-7,029761	-1,489273	2020-10-29T19:35:46:385
-6,324482	-7,316392	-1,625333	2020-10-29T19:35:46:402
-6,125569	-7,448984	-1,777758	2020-10-29T19:35:46:426
-5,992151	-7,528149	-1,895123	2020-10-29T19:35:46:442
-9,177615	-3,336479	-0,899814	2020-10-29T19:35:46:466
-9,080509	-3,555077	-1,037380	2020-10-29T19:35:46:481
-8,960388	-3,786402	-1,242978	2020-10-29T19:35:46:506
-8,832333	-4,014320	-1,430218	2020-10-29T19:35:46:522
-8,692844	-4,253052	-1,586311	2020-10-29T19:35:46:545
-8,547750	-4,496900	-1,698308	2020-10-29T19:35:46:561
-8,380764	-4,767840	-1,789099	2020-10-29T19:35:46:586
-8,211354	-5,039008	-1,830968	2020-10-29T19:35:46:602
-8,042261	-5,312668	-1,807754	2020-10-29T19:35:46:625
-7,876409	-5,576127	-1,743381	2020-10-29T19:35:46:642
-7,711416	-5,825580	-1,663453	2020-10-29T19:35:46:666
-7,537416	-6,074194	-1,569043	2020-10-29T19:35:46:682
-7,337207	-6,343369	-1,448253	2020-10-29T19:35:46:706
-7,099933	-6,636190	-1,312374	2020-10-29T19:35:46:722
-6,836124	-6,932791	-1,172265	2020-10-29T19:35:46:746
-6,560152	-7,216214	-1,030077	2020-10-29T19:35:46:762
-6,252162	-7,505196	-0,867696	2020-10-29T19:35:46:785
-5,923495	-7,784500	-0,695818	2020-10-29T19:35:46:802
-5,529215	-8,084533	-0,488364	2020-10-29T19:35:46:826
-5,142799	-8,344903	-0,290832	2020-10-29T19:35:46:842
-4,843562	-8,525987	-0,133583	2020-10-29T19:35:46:866
-4,651541	-8,633269	-0,014920	2020-10-29T19:35:46:882
-4,533898	-8,695390	0,065973	2020-10-29T19:35:46:906
-4,416848	-8,754653	0,133769	2020-10-29T19:35:46:923
-4,265976	-8,827635	0,211420	2020-10-29T19:35:46:947
-4,188769	-8,863108	0,264429	2020-10-29T19:35:46:962
-4,118252	-8,893583	0,338483	2020-10-29T19:35:46:986
-4,119313	-8,890688	0,396631	2020-10-29T19:35:47:002
-4,185796	-8,859417	0,400277	2020-10-29T19:35:47:025
-4,288100	-8,813074	0,335121	2020-10-29T19:35:47:043
-4,469076	-8,725930	0,236418	2020-10-29T19:35:47:067
-4,799644	-8,551189	0,104724	2020-10-29T19:35:47:082
-5,473029	-8,137284	-0,030810	2020-10-29T19:35:47:105
-6,800742	-7,063632	-0,159338	2020-10-29T19:35:47:122
-7,940555	-5,750172	-0,231266	2020-10-29T19:35:47:146
-8,409207	-5,039619	-0,240512	2020-10-29T19:35:47:162
-8,641691	-4,630642	-0,220703	2020-10-29T19:35:47:186
-8,796164	-4,331743	-0,184089	2020-10-29T19:35:47:202
-8,949372	-4,007379	-0,141536	2020-10-29T19:35:47:227
-9,126215	-3,586956	-0,127829	2020-10-29T19:35:47:243
-9,266755	-3,206429	-0,128284	2020-10-29T19:35:47:265
-9,365064	-2,906774	-0,128959	2020-10-29T19:35:47:282
-8,250768	-5,276940	0,499114	2020-10-29T19:35:47:308
-7,828588	-5,886463	-0,482849	2020-10-29T19:35:47:322
-7,917464	-5,762432	-0,527757	2020-10-29T19:35:47:346
-7,846669	-5,856993	-0,543881	2020-10-29T19:35:47:363
-7,696098	-5,922898	-1,363723	2020-10-29T19:35:47:387
-8,040343	-5,501976	-1,118713	2020-10-29T19:35:47:403
-7,921124	-5,684459	-1,055042	2020-10-29T19:35:47:427
-7,974169	-5,620171	-0,998347	2020-10-29T19:35:47:442
-7,684837	-6,012593	-0,981018	2020-10-29T19:35:47:466
-7,256813	-6,526226	-0,957827	2020-10-29T19:35:47:482
-6,733902	-7,075012	-0,877013	2020-10-29T19:35:47:505
-6,139067	-7,615754	-0,694644	2020-10-29T19:35:47:523
-5,434982	-8,153008	-0,399752	2020-10-29T19:35:47:547
-4,798365	-8,552481	0,033943	2020-10-29T19:35:47:562
-4,443470	-8,728409	0,490753	2020-10-29T19:35:47:586
-4,278580	-8,784557	0,834079	2020-10-29T19:35:47:603
-4,055727	-8,852958	1,160429	2020-10-29T19:35:47:626
-3,764608	-8,941404	1,431572	2020-10-29T19:35:47:643
-9,312944	-3,060093	-0,274368	2020-10-29T19:35:47:668
-9,460232	-2,498582	-0,656875	2020-10-29T19:35:47:682
-9,358692	-2,850129	-0,679732	2020-10-29T19:35:47:707
-9,277677	-3,096241	-0,713019	2020-10-29T19:35:47:723
-9,249058	-3,170811	-0,755827	2020-10-29T19:35:47:745
-9,259278	-3,128731	-0,804485	2020-10-29T19:35:47:763
-9,273359	-3,075419	-0,846747	2020-10-29T19:35:47:787
-9,302917	-2,975252	-0,879777	2020-10-29T19:35:47:804
-9,332112	-2,871155	-0,915712	2020-10-29T19:35:47:826
-9,349748	-2,795368	-0,968771	2020-10-29T19:35:47:844
-9,357031	-2,756491	-1,009021	2020-10-29T19:35:47:867
-9,365667	-2,714089	-1,043257	2020-10-29T19:35:47:884
-9,419273	-2,434122	-1,233986	2020-10-29T19:35:47:908
-9,416426	-2,509687	-1,096713	2020-10-29T19:35:47:924
-9,405863	-2,533608	-1,131794	2020-10-29T19:35:47:947
-9,394091	-2,567035	-1,154023	2020-10-29T19:35:47:964
-9,393636	-2,561275	-1,170413	2020-10-29T19:35:47:987
-9,411781	-2,514391	-1,125428	2020-10-29T19:35:48:005
-9,441180	-2,445920	-1,025654	2020-10-29T19:35:48:027
-9,465070	-2,377265	-0,965120	2020-10-29T19:35:48:043
-9,645961	-1,738371	-0,322335	2020-10-29T19:35:48:066
-9,628961	-1,845255	0,220294	2020-10-29T19:35:48:083
-9,713593	-1,335965	0,178031	2020-10-29T19:35:48:106
-9,769304	-0,850395	0,088949	2020-10-29T19:35:48:124
-9,497419	-2,437686	0,164629	2020-10-29T19:35:48:150
-9,427606	-2,698160	0,102809	2020-10-29T19:35:48:163
-9,376371	-2,872530	0,051184	2020-10-29T19:35:48:186
-9,306838	-3,090682	0,028844	2020-10-29T19:35:48:203
-9,358525	-2,930223	0,046624	2020-10-29T19:35:48:226
-9,648922	-1,750556	0,065083	2020-10-29T19:35:48:243
-9,779655	-0,718626	0,110950	2020-10-29T19:35:48:267
-9,757483	-0,965598	0,171895	2020-10-29T19:35:48:283
-9,715754	-1,317241	0,198461	2020-10-29T19:35:48:306
-9,612002	-1,931706	0,219798	2020-10-29T19:35:48:323
-9,326670	-3,022483	0,219570	2020-10-29T19:35:48:347
-8,183354	-5,402588	0,123034	2020-10-29T19:35:48:363
-9,646199	-1,685236	-0,530285	2020-10-29T19:35:48:389
-9,476543	-2,321864	-0,987140	2020-10-29T19:35:48:403
-9,500258	-2,192317	-1,053192	2020-10-29T19:35:48:427
-9,514070	-2,093283	-1,127397	2020-10-29T19:35:48:443
-9,518405	-2,031268	-1,201789	2020-10-29T19:35:48:466
-9,520730	-1,986358	-1,257163	2020-10-29T19:35:48:483
-9,531820	-1,939134	-1,246816	2020-10-29T19:35:48:507
-9,536229	-1,941203	-1,209320	2020-10-29T19:35:48:523
-9,536292	-1,963492	-1,172274	2020-10-29T19:35:48:547
-9,535363	-1,975598	-1,159420	2020-10-29T19:35:48:563
-9,529949	-2,007607	-1,148900	2020-10-29T19:35:48:587
-9,522876	-2,066036	-1,103049	2020-10-29T19:35:48:604
-9,509338	-2,146713	-1,065125	2020-10-29T19:35:48:628
-9,487099	-2,256239	-1,036692	2020-10-29T19:35:48:643
-9,453590	-2,397569	-1,025512	2020-10-29T19:35:48:667
-9,410128	-2,563751	-1,023262	2020-10-29T19:35:48:683
-9,348471	-2,785611	-1,008392	2020-10-29T19:35:48:706
-9,251391	-3,104029	-0,973216	2020-10-29T19:35:48:724
-9,094372	-3,555299	-0,906990	2020-10-29T19:35:48:747
-8,829019	-4,193649	-0,795059	2020-10-29T19:35:48:763
-9,649563	-1,709583	0,365584	2020-10-29T19:35:48:787
-9,687080	-1,493248	0,317903	2020-10-29T19:35:48:803
-9,667234	-1,609843	0,351225	2020-10-29T19:35:48:827
-9,645963	-1,731832	0,355743	2020-10-29T19:35:48:844
-9,632008	-1,811798	0,334968	2020-10-29T19:35:48:867
-9,622900	-1,863773	0,310679	2020-10-29T19:35:48:883
-9,618254	-1,892874	0,276772	2020-10-29T19:35:48:907
-7,868714	-5,792459	0,837335	2020-10-29T19:35:48:924
-7,337691	-6,445090	0,888527	2020-10-29T19:35:48:947
-6,881772	-6,921296	0,952504	2020-10-29T19:35:48:964
-6,616608	-7,153164	1,105950	2020-10-29T19:35:48:987
-6,408823	-7,307966	1,300386	2020-10-29T19:35:49:004
-6,205188	-7,440145	1,519952	2020-10-29T19:35:49:027
-5,978987	-7,575691	1,740978	2020-10-29T19:35:49:044
-5,727937	-7,718654	1,945122	2020-10-29T19:35:49:067
-5,459763	-7,894190	2,010754	2020-10-29T19:35:49:084
-5,187818	-8,067749	2,041656	2020-10-29T19:35:49:109
-4,909038	-8,206167	2,174984	2020-10-29T19:35:49:124
-4,661458	-8,314631	2,303935	2020-10-29T19:35:49:148
-4,427021	-8,398867	2,455791	2020-10-29T19:35:49:164
-4,217216	-8,454808	2,627106	2020-10-29T19:35:49:186
-4,042612	-8,486006	2,795601	2020-10-29T19:35:49:204
-8,224395	-4,612735	-2,693027	2020-10-29T19:35:49:229
-8,158826	-4,530358	-3,013271	2020-10-29T19:35:49:244
-8,178850	-4,266644	-3,327543	2020-10-29T19:35:49:267
-8,122821	-4,157556	-3,592338	2020-10-29T19:35:49:284
-8,014297	-4,295254	-3,673174	2020-10-29T19:35:49:308
-7,918033	-4,420959	-3,732326	2020-10-29T19:35:49:324
-7,889313	-5,179169	-2,665583	2020-10-29T19:35:49:349
-7,925916	-5,275757	-2,348750	2020-10-29T19:35:49:364
-7,900130	-5,345811	-2,276100	2020-10-29T19:35:49:389
-8,050029	-5,195787	-2,090744	2020-10-29T19:35:49:404
-7,880416	-5,430816	-2,139082	2020-10-29T19:35:49:427
-7,685417	-5,697002	-2,156136	2020-10-29T19:35:49:444
-7,486917	-5,963878	-2,132750	2020-10-29T19:35:49:469
-7,296974	-6,217803	-2,064819	2020-10-29T19:35:49:484
-7,136888	-6,432565	-1,964009	2020-10-29T19:35:49:507
-7,020774	-6,593820	-1,844085	2020-10-29T19:35:49:525
-6,913260	-6,753813	-1,662295	2020-10-29T19:35:49:549
-6,855049	-6,848027	-1,511030	2020-10-29T19:35:49:564
-6,822752	-6,912271	-1,356818	2020-10-29T19:35:49:588
-6,803667	-6,958303	-1,209347	2020-10-29T19:35:49:604
-6,843236	-6,932335	-1,132801	2020-10-29T19:35:49:629
-6,908403	-6,873285	-1,096499	2020-10-29T19:35:49:645
-6,971891	-6,812696	-1,072516	2020-10-29T19:35:49:667
-7,044021	-6,740218	-1,059066	2020-10-29T19:35:49:685
-7,128639	-6,650714	-1,058720	2020-10-29T19:35:49:709
-7,224397	-6,545027	-1,068220	2020-10-29T19:35:49:725
-7,316183	-6,442592	-1,066236	2020-10-29T19:35:49:748
-7,403866	-6,342714	-1,059779	2020-10-29T19:35:49:765
-7,485883	-6,247047	-1,051825	2020-10-29T19:35:49:788
-7,551301	-6,171554	-1,029633	2020-10-29T19:35:49:805
-7,590906	-6,131845	-0,974170	2020-10-29T19:35:49:829
-7,594003	-6,141793	-0,883110	2020-10-29T19:35:49:845
-7,564686	-6,193729	-0,763953	2020-10-29T19:35:49:869
-7,523033	-6,258897	-0,632906	2020-10-29T19:35:49:885
-7,504383	-6,288823	-0,552562	2020-10-29T19:35:49:907
-7,503863	-6,293068	-0,509623	2020-10-29T19:35:49:925
-7,491033	-6,313171	-0,445732	2020-10-29T19:35:49:949
-7,469498	-6,339024	-0,440186	2020-10-29T19:35:49:965
-7,455515	-6,353373	-0,469386	2020-10-29T19:35:49:988
-7,491942	-6,304210	-0,546007	2020-10-29T19:35:50:005
-7,554368	-6,222438	-0,619009	2020-10-29T19:35:50:029
-7,691763	-6,040801	-0,718250	2020-10-29T19:35:50:046
-7,920223	-5,722204	-0,834765	2020-10-29T19:35:50:069
-8,134253	-5,397167	-0,935362	2020-10-29T19:35:50:085
-8,291406	-5,137385	-1,015012	2020-10-29T19:35:50:109
-8,384013	-4,973552	-1,068872	2020-10-29T19:35:50:125
-8,368746	-4,991462	-1,104440	2020-10-29T19:35:50:148
-8,281859	-5,133813	-1,106868	2020-10-29T19:35:50:165
-8,112926	-5,406631	-1,057909	2020-10-29T19:35:50:189
-7,954546	-5,648137	-0,997066	2020-10-29T19:35:50:205
-7,464500	-6,313431	-0,769547	2020-10-29T19:35:50:228
-6,975837	-6,875900	-0,479673	2020-10-29T19:35:50:246
-6,506043	-7,335308	-0,187192	2020-10-29T19:35:50:269
-6,119718	-7,662240	0,097523	2020-10-29T19:35:50:285
-9,201139	-1,601146	2,990946	2020-10-29T19:35:50:309
-9,552920	-1,078170	1,936403	2020-10-29T19:35:50:325
-9,529752	-1,206552	1,974450	2020-10-29T19:35:50:350
-9,510254	-1,332621	1,987352	2020-10-29T19:35:50:365
-9,500604	-1,441697	1,957146	2020-10-29T19:35:50:388
-9,505009	-1,514085	1,879557	2020-10-29T19:35:50:405
-9,522466	-1,535096	1,771020	2020-10-29T19:35:50:429
-9,550855	-1,498468	1,645041	2020-10-29T19:35:50:445
-9,586118	-1,407164	1,515458	2020-10-29T19:35:50:468
-9,629895	-1,256315	1,362782	2020-10-29T19:35:50:485
-9,676869	-1,062127	1,183410	2020-10-29T19:35:50:509
-9,722342	-0,857198	0,954808	2020-10-29T19:35:50:525
-9,759377	-0,633890	0,723277	2020-10-29T19:35:50:550
-9,785045	-0,416026	0,500209	2020-10-29T19:35:50:565
-9,800427	-0,203555	0,283844	2020-10-29T19:35:50:589
-9,806319	-0,008017	0,080096	2020-10-29T19:35:50:605
-9,787199	0,536587	-0,305284	2020-10-29T19:35:50:628
-9,760182	0,788562	-0,536097	2020-10-29T19:35:50:645
-9,735730	0,946596	-0,699922	2020-10-29T19:35:50:669
-9,737821	0,908504	-0,721009	2020-10-29T19:35:50:685
-9,750458	0,790870	-0,688097	2020-10-29T19:35:50:708
-9,763793	0,638830	-0,656220	2020-10-29T19:35:50:725
-9,777956	0,442768	-0,604910	2020-10-29T19:35:50:749
-9,786803	0,307341	-0,542599	2020-10-29T19:35:50:766
-9,795821	0,132286	-0,441331	2020-10-29T19:35:50:789
-9,801862	-0,142497	-0,271273	2020-10-29T19:35:50:805
-9,801268	-0,277896	-0,168247	2020-10-29T19:35:50:829
-9,802478	-0,244134	-0,149023	2020-10-29T19:35:50:845
-9,804190	-0,133077	-0,174735	2020-10-29T19:35:50:868
-9,804905	-0,072935	-0,170018	2020-10-29T19:35:50:886
-9,805461	-0,123641	-0,089660	2020-10-29T19:35:50:909
-9,800332	-0,341418	0,085486	2020-10-29T19:35:50:926
-9,776842	-0,697466	0,311899	2020-10-29T19:35:50:949
-9,791921	-0,476116	0,248958	2020-10-29T19:35:50:965
-9,767069	-0,792865	0,382239	2020-10-29T19:35:50:989
-9,724607	-1,159951	0,506862	2020-10-29T19:35:51:006
-9,468599	-1,744714	-1,863326	2020-10-29T19:35:51:030
-9,408360	-1,899952	-2,010799	2020-10-29T19:35:51:046
-9,340223	-2,093517	-2,132555	2020-10-29T19:35:51:069
-9,264052	-2,294967	-2,254075	2020-10-29T19:35:51:086
-9,194578	-2,479766	-2,341127	2020-10-29T19:35:51:109
-9,143918	-2,643873	-2,359891	2020-10-29T19:35:51:126
-9,112947	-2,773902	-2,330248	2020-10-29T19:35:51:150
-9,088037	-2,887899	-2,288671	2020-10-29T19:35:51:166
-9,069459	-2,983720	-2,238909	2020-10-29T19:35:51:189
-9,056102	-3,069199	-2,176560	2020-10-29T19:35:51:206
-9,051507	-3,145407	-2,084953	2020-10-29T19:35:51:230
-9,077223	-3,187195	-1,901632	2020-10-29T19:35:51:246
-9,740247	-1,010506	0,526162	2020-10-29T19:35:51:270
-9,765626	-0,860602	0,249601	2020-10-29T19:35:51:286
-9,773831	-0,771950	0,216087	2020-10-29T19:35:51:310
-9,781800	-0,673070	0,183682	2020-10-29T19:35:51:326
-9,789112	-0,554764	0,189507	2020-10-29T19:35:51:350
-9,791008	-0,501006	0,235667	2020-10-29T19:35:51:366
-9,789846	-0,478864	0,316194	2020-10-29T19:35:51:390
-9,788954	-0,434130	0,397874	2020-10-29T19:35:51:406
-9,790477	-0,339700	0,448941	2020-10-29T19:35:51:429
-9,792706	-0,231735	0,468601	2020-10-29T19:35:51:446
-9,677310	-1,201777	1,037199	2020-10-29T19:35:51:470
-9,596522	-2,001498	0,266735	2020-10-29T19:35:51:487
-9,416512	-2,723736	0,284521	2020-10-29T19:35:51:510
-8,560919	-4,775884	0,268314	2020-10-29T19:35:51:526
-7,922879	-5,775952	0,191685	2020-10-29T19:35:51:551
-7,982152	-5,694918	0,153388	2020-10-29T19:35:51:566
-8,177472	-5,411357	0,128650	2020-10-29T19:35:51:589
-8,418546	-5,028770	0,099684	2020-10-29T19:35:51:606
-8,651624	-4,616828	0,068429	2020-10-29T19:35:51:630
-8,868892	-4,184759	0,030732	2020-10-29T19:35:51:646
-9,073312	-3,720740	-0,038526	2020-10-29T19:35:51:669
-9,226773	-3,320043	-0,119840	2020-10-29T19:35:51:686
-9,330740	-3,012638	-0,178008	2020-10-29T19:35:51:710
-9,412639	-2,741338	-0,240181	2020-10-29T19:35:51:727
-9,477701	-2,501585	-0,292630	2020-10-29T19:35:51:750
-9,529118	-2,295011	-0,315012	2020-10-29T19:35:51:766
-9,574965	-2,096378	-0,309244	2020-10-29T19:35:51:790
-9,629035	-1,840950	-0,250936	2020-10-29T19:35:51:806
-9,667169	-1,633631	-0,217909	2020-10-29T19:35:51:829
-9,704185	-1,404919	-0,159292	2020-10-29T19:35:51:847
-9,729964	-1,218719	-0,113564	2020-10-29T19:35:51:870
-9,761889	-0,935855	-0,009068	2020-10-29T19:35:51:886
-9,781847	-0,694538	0,058834	2020-10-29T19:35:51:909
-9,792617	-0,516152	0,092931	2020-10-29T19:35:51:927
-9,528877	-2,256974	0,526261	2020-10-29T19:35:51:951
-9,485846	-2,283489	0,987318	2020-10-29T19:35:51:971
-9,508244	-2,228644	0,892656	2020-10-29T19:35:51:992
-9,532187	-2,163064	0,793064	2020-10-29T19:35:52:007
-9,272035	-2,729169	1,658735	2020-10-29T19:35:52:031
-9,154430	-2,868896	2,033772	2020-10-29T19:35:52:047
-9,202636	-2,793832	1,917391	2020-10-29T19:35:52:070
-9,257814	-2,678877	1,812975	2020-10-29T19:35:52:087
-8,907360	-2,794856	3,003016	2020-10-29T19:35:52:111
-8,835042	-2,576558	3,387294	2020-10-29T19:35:52:126
-8,930650	-2,152178	3,432492	2020-10-29T19:35:52:151
-9,067936	-1,696132	3,326569	2020-10-29T19:35:52:167
-9,088408	-1,569853	3,332684	2020-10-29T19:35:52:190
-9,104572	-1,467923	3,335018	2020-10-29T19:35:52:208
-9,121061	-1,399703	3,319256	2020-10-29T19:35:52:232
-9,132503	-1,368314	3,300834	2020-10-29T19:35:52:247
-9,326905	-2,340680	1,923654	2020-10-29T19:35:52:272
-9,336734	-2,545774	1,585819	2020-10-29T19:35:52:287
-9,311939	-2,592061	1,655110	2020-10-29T19:35:52:310
-9,280536	-2,670521	1,705975	2020-10-29T19:35:52:327
-9,246699	-2,772203	1,727376	2020-10-29T19:35:52:351
-9,160604	-3,015453	1,777851	2020-10-29T19:35:52:367
-9,000059	-3,429499	1,846038	2020-10-29T19:35:52:390
-8,789556	-3,928914	1,864866	2020-10-29T19:35:52:407
-8,551099	-4,432735	1,843895	2020-10-29T19:35:52:431
-8,281494	-4,931471	1,807716	2020-10-29T19:35:52:447
-7,987397	-5,412434	1,754261	2020-10-29T19:35:52:471
-7,681644	-5,861165	1,676146	2020-10-29T19:35:52:487
-7,400786	-6,236529	1,582546	2020-10-29T19:35:52:511
-7,136078	-6,561842	1,479528	2020-10-29T19:35:52:527
-6,919530	-6,806071	1,402812	2020-10-29T19:35:52:550
-6,761089	-6,974215	1,348478	2020-10-29T19:35:52:567
-6,100498	-7,002118	-3,150342	2020-10-29T19:35:52:591
-5,725859	-7,216295	-3,363036	2020-10-29T19:35:52:607
-4,986771	-7,797423	-3,240785	2020-10-29T19:35:52:631
-4,190163	-8,313611	-3,081685	2020-10-29T19:35:52:647
-3,393674	-8,726900	-2,914546	2020-10-29T19:35:52:671
-2,555513	-9,067872	-2,722763	2020-10-29T19:35:52:687
-1,698046	-9,335203	-2,478105	2020-10-29T19:35:52:711
-2,480001	-7,367565	-5,978208	2020-10-29T19:35:52:727
-2,012677	-6,866674	-6,705841	2020-10-29T19:35:52:751
-1,486255	-6,474508	-7,214026	2020-10-29T19:35:52:767
-0,882567	-6,303883	-7,460062	2020-10-29T19:35:52:790
-0,376927	-6,287164	-7,516640	2020-10-29T19:35:52:807
0,232607	-6,328674	-7,487600	2020-10-29T19:35:52:831
0,779840	-6,357154	-7,426225	2020-10-29T19:35:52:848
1,208499	-6,335052	-7,387626	2020-10-29T19:35:52:871
1,575704	-6,275898	-7,368897	2020-10-29T19:35:52:888
1,871845	-6,148786	-7,406687	2020-10-29T19:35:52:911
2,109989	-5,969466	-7,488912	2020-10-29T19:35:52:928
1,016606	-5,309214	8,182245	2020-10-29T19:35:52:953
2,600554	-5,368313	7,783875	2020-10-29T19:35:52:967
2,683509	-5,168972	7,889923	2020-10-29T19:35:52:991
2,872709	-5,068296	7,888618	2020-10-29T19:35:53:008
3,119011	-5,186315	7,716495	2020-10-29T19:35:53:031
3,370945	-5,506557	7,381391	2020-10-29T19:35:53:048
8,438169	-4,768762	1,492185	2020-10-29T19:35:53:072
8,534477	-4,496992	1,763562	2020-10-29T19:35:53:088
8,454783	-4,639529	1,778142	2020-10-29T19:35:53:111
8,369540	-4,782411	1,802699	2020-10-29T19:35:53:128
8,260262	-4,948789	1,856864	2020-10-29T19:35:53:152
8,145549	-5,103721	1,942279	2020-10-29T19:35:53:168
8,021706	-5,275361	1,998294	2020-10-29T19:35:53:192
7,849163	-5,524742	2,009541	2020-10-29T19:35:53:208
7,657588	-5,787888	2,008006	2020-10-29T19:35:53:233
7,507606	-5,986667	1,991495	2020-10-29T19:35:53:248
7,374669	-6,140944	2,018282	2020-10-29T19:35:53:271
7,207878	-6,336808	2,015378	2020-10-29T19:35:53:288
7,065167	-6,490890	2,030308	2020-10-29T19:35:53:312
6,943586	-6,607973	2,071640	2020-10-29T19:35:53:328
6,884404	-6,656691	2,112780	2020-10-29T19:35:53:351
6,881883	-6,645346	2,156257	2020-10-29T19:35:53:368
6,913857	-6,594145	2,210482	2020-10-29T19:35:53:392
6,959387	-6,520741	2,284128	2020-10-29T19:35:53:408
7,030567	-6,404783	2,391708	2020-10-29T19:35:53:432
7,111914	-6,246428	2,563825	2020-10-29T19:35:53:448
7,194482	-6,044377	2,806300	2020-10-29T19:35:53:474
7,277974	-5,787093	3,116253	2020-10-29T19:35:53:488
7,362089	-5,512684	3,402991	2020-10-29T19:35:53:511
7,573915	-5,104052	3,571393	2020-10-29T19:35:53:529
7,865530	-4,524462	3,719282	2020-10-29T19:35:53:552
8,163073	-3,801501	3,883713	2020-10-29T19:35:53:568
8,362503	-3,230151	3,975557	2020-10-29T19:35:53:591
8,526909	-2,817800	3,939823	2020-10-29T19:35:53:608
8,757587	-2,317126	3,755791	2020-10-29T19:35:53:632
9,055745	-1,559072	3,425370	2020-10-29T19:35:53:649
9,198697	-1,090626	3,219455	2020-10-29T19:35:53:672
9,315959	-0,690032	2,984486	2020-10-29T19:35:53:688
9,400309	-0,436096	2,759421	2020-10-29T19:35:53:713
9,460847	-0,249900	2,569107	2020-10-29T19:35:53:728
9,521027	-0,036890	2,349271	2020-10-29T19:35:53:751
9,602909	0,252736	1,972471	2020-10-29T19:35:53:768
9,669103	0,494382	1,560267	2020-10-29T19:35:53:792
9,700497	0,613577	1,301642	2020-10-29T19:35:53:808
9,725084	0,704076	1,047568	2020-10-29T19:35:53:832
9,745347	0,816231	0,729633	2020-10-29T19:35:53:849
9,756743	0,938849	0,308062	2020-10-29T19:35:53:872
9,757741	0,974900	-0,080326	2020-10-29T19:35:53:889
9,764075	0,880857	-0,239386	2020-10-29T19:35:53:912
9,772293	0,756692	-0,316356	2020-10-29T19:35:53:929
9,788119	0,594935	-0,095709	2020-10-29T19:35:53:953
9,792748	0,410518	0,322406	2020-10-29T19:35:53:969
9,779720	0,251534	0,681313	2020-10-29T19:35:53:991
9,757865	0,120825	0,969464	2020-10-29T19:35:54:009
9,728920	-0,021363	1,232088	2020-10-29T19:35:54:033
9,708740	-0,116719	1,377363	2020-10-29T19:35:54:049
9,700905	-0,193296	1,423190	2020-10-29T19:35:54:089
9,656773	-0,517176	1,627775	2020-10-29T19:35:54:091
9,618103	-0,919784	1,678237	2020-10-29T19:35:54:112
9,610955	-1,233425	1,509501	2020-10-29T19:35:54:129
9,605408	-1,509557	1,275837	2020-10-29T19:35:54:153
7,880413	-5,088219	2,859985	2020-10-29T19:35:54:169
6,673451	-6,569662	2,911181	2020-10-29T19:35:54:193
5,268174	-7,761789	2,858560	2020-10-29T19:35:54:209
3,892118	-8,552074	2,807815	2020-10-29T19:35:54:232
2,679972	-8,976930	2,898771	2020-10-29T19:35:54:249
1,646549	-9,107209	3,243148	2020-10-29T19:35:54:273
0,526849	-8,966097	3,937248	2020-10-29T19:35:54:289
-0,641922	-8,488355	4,868897	2020-10-29T19:35:54:312
-1,962223	-7,550065	5,942776	2020-10-29T19:35:54:329
-3,313792	-6,311483	6,734564	2020-10-29T19:35:54:353
7,050749	-5,263813	-4,330081	2020-10-29T19:35:54:369
7,162524	-6,109818	-2,745680	2020-10-29T19:35:54:393
7,583885	-6,123827	-1,074153	2020-10-29T19:35:54:409
8,224156	-5,341467	0,048660	2020-10-29T19:35:54:433
8,593155	-4,697162	0,514526	2020-10-29T19:35:54:449
8,772008	-4,327843	0,701448	2020-10-29T19:35:54:472
8,814028	-4,230083	0,767911	2020-10-29T19:35:54:489
8,779257	-4,285717	0,853030	2020-10-29T19:35:54:513
8,889229	-3,963245	1,201953	2020-10-29T19:35:54:529
8,995012	-3,551824	1,626250	2020-10-29T19:35:54:553
9,041954	-3,286851	1,900015	2020-10-29T19:35:54:569
9,066867	-3,089706	2,101436	2020-10-29T19:35:54:594
9,080004	-2,934123	2,261601	2020-10-29T19:35:55:092
9,081925	-2,833644	2,378966	2020-10-29T19:35:55:093
9,082672	-2,763494	2,457348	2020-10-29T19:35:55:094
9,096069	-2,545292	2,636928	2020-10-29T19:35:55:094
9,100261	-2,293501	2,845256	2020-10-29T19:35:55:096
9,087440	-2,015525	3,086499	2020-10-29T19:35:55:096
9,063807	-1,688485	3,341679	2020-10-29T19:35:55:097
9,030679	-1,330919	3,584116	2020-10-29T19:35:55:097
9,017900	-1,135757	3,682106	2020-10-29T19:35:55:097
9,000104	-0,955755	3,775585	2020-10-29T19:35:55:098
8,968918	-0,809386	3,882499	2020-10-29T19:35:55:099
8,922703	-0,725995	4,003584	2020-10-29T19:35:55:101
8,824478	-0,553405	4,241782	2020-10-29T19:35:55:102
8,723281	-0,400795	4,462524	2020-10-29T19:35:55:102
8,667045	-0,369308	4,573438	2020-10-29T19:35:55:103
8,611289	-0,331330	4,680418	2020-10-29T19:35:55:103
8,551554	-0,296826	4,790950	2020-10-29T19:35:55:103
8,435753	-0,131069	4,999128	2020-10-29T19:35:55:104
8,316690	0,070085	5,195973	2020-10-29T19:35:55:104
8,192468	0,324979	5,380358	2020-10-29T19:35:55:105
8,052427	0,596948	5,565290	2020-10-29T19:35:55:105
7,891850	0,882168	5,754205	2020-10-29T19:35:55:105
7,716441	1,168500	5,938141	2020-10-29T19:35:55:106
7,528967	1,448405	6,114504	2020-10-29T19:35:55:109
7,310596	1,733421	6,302446	2020-10-29T19:35:55:110
7,061882	2,008909	6,501114	2020-10-29T19:35:55:111
6,778469	2,279592	6,710157	2020-10-29T19:35:55:128
6,479786	2,528488	6,912996	2020-10-29T19:35:55:153
6,165528	2,754082	7,111377	2020-10-29T19:35:55:177
5,834033	2,958890	7,306122	2020-10-29T19:35:55:224
0,244443	4,120135	8,895792	2020-10-29T19:35:55:241
0,238704	4,289577	8,815494	2020-10-29T19:35:55:242
0,249094	5,632339	8,024033	2020-10-29T19:35:55:254
0,390323	4,646167	8,627350	2020-10-29T19:35:55:271
0,471990	4,763042	8,559266	2020-10-29T19:35:55:287
0,481247	5,482378	8,116793	2020-10-29T19:35:55:323
0,472448	6,158614	7,616997	2020-10-29T19:35:55:333
0,444384	6,631628	7,210715	2020-10-29T19:35:55:358
0,379707	6,973481	6,884531	2020-10-29T19:35:55:375
0,415595	-0,240684	9,794883	2020-10-29T19:35:55:392
0,378455	-0,142210	9,798313	2020-10-29T19:35:55:409
0,347080	0,207675	9,798306	2020-10-29T19:35:55:437
0,309697	0,604969	9,783072	2020-10-29T19:35:55:448
0,258831	0,980458	9,754081	2020-10-29T19:35:55:475
0,222319	1,199405	9,730488	2020-10-29T19:35:55:488
0,191135	1,337564	9,713124	2020-10-29T19:35:55:514
0,169267	1,416574	9,702322	2020-10-29T19:35:55:542
0,154663	1,445295	9,698329	2020-10-29T19:35:55:554
0,137084	1,432059	9,700557	2020-10-29T19:35:55:573
0,119016	1,369182	9,709869	2020-10-29T19:35:55:591
0,097321	1,274348	9,723011	2020-10-29T19:35:55:608
0,052953	1,218821	9,730471	2020-10-29T19:35:55:635
-0,037298	1,308865	9,718841	2020-10-29T19:35:55:649
-0,201756	1,713992	9,653596	2020-10-29T19:35:55:744
-0,456100	2,145930	9,558104	2020-10-29T19:35:55:745
-0,733292	2,379817	9,485207	2020-10-29T19:35:55:746
-2,828122	7,010019	6,247540	2020-10-29T19:35:55:746
-3,612547	7,751543	4,799319	2020-10-29T19:35:56:082
-4,500020	7,899281	3,677168	2020-10-29T19:35:56:083
-5,292077	7,829545	2,619645	2020-10-29T19:35:56:083
-5,922703	7,625714	1,714776	2020-10-29T19:35:56:084
-6,366145	7,394974	0,978231	2020-10-29T19:35:56:084
-6,692507	7,158926	0,361266	2020-10-29T19:35:56:085
-6,776134	7,084727	-0,247051	2020-10-29T19:35:56:085
-6,775025	7,047578	-0,775277	2020-10-29T19:35:56:085
-6,680296	7,082191	-1,177535	2020-10-29T19:35:56:086
-6,498121	7,200913	-1,446257	2020-10-29T19:35:56:088
-6,205308	7,424609	-1,593648	2020-10-29T19:35:56:089
-5,874212	7,684934	-1,614252	2020-10-29T19:35:56:092
-5,555266	7,927364	-1,570447	2020-10-29T19:35:56:092
-5,314251	8,096300	-1,542416	2020-10-29T19:35:56:093
-5,138356	8,192188	-1,629643	2020-10-29T19:35:56:093
-5,029768	8,208478	-1,868881	2020-10-29T19:35:56:094
-5,001486	8,142839	-2,202201	2020-10-29T19:35:56:094
-5,109431	7,982065	-2,520067	2020-10-29T19:35:56:096
-5,483669	7,667452	-2,703689	2020-10-29T19:35:56:112
-5,859267	7,373961	-2,732044	2020-10-29T19:35:56:129
-6,234057	7,097283	-2,633532	2020-10-29T19:35:56:167
-6,482338	6,913969	-2,519268	2020-10-29T19:35:56:169
-6,736392	6,714552	-2,388763	2020-10-29T19:35:56:193
-6,992116	6,495780	-2,255116	2020-10-29T19:35:56:240
-7,242399	6,263050	-2,119493	2020-10-29T19:35:56:240
-7,494332	6,009584	-1,972376	2020-10-29T19:35:56:250
-7,729042	5,745580	-1,849487	2020-10-29T19:35:56:286
-8,003281	5,408496	-1,692941	2020-10-29T19:35:56:289
-8,240939	5,105217	-1,481238	2020-10-29T19:35:56:313
-8,480124	4,772491	-1,217056	2020-10-29T19:35:56:331
-8,734853	4,371142	-0,875128	2020-10-29T19:35:56:354
-8,945378	3,979966	-0,557185	2020-10-29T19:35:56:369
-9,154634	3,509403	-0,217125	2020-10-29T19:35:56:393
-9,300507	3,109180	0,062960	2020-10-29T19:35:56:411
-9,435294	2,652420	0,332074	2020-10-29T19:35:56:437
-9,536269	2,222482	0,538998	2020-10-29T19:35:56:451
-9,624846	1,730688	0,733109	2020-10-29T19:35:56:477
-9,681006	1,302112	0,867762	2020-10-29T19:35:56:491
-9,720776	0,861791	0,966555	2020-10-29T19:35:56:520
-9,739362	0,549902	1,006389	2020-10-29T19:35:56:533
-9,755896	0,124736	0,988597	2020-10-29T19:35:56:558
-9,759454	-0,185943	0,942796	2020-10-29T19:35:56:587
-9,756512	-0,468522	0,872550	2020-10-29T19:35:56:595
-9,751106	-0,678192	0,791436	2020-10-29T19:35:56:611
-9,744136	-0,869236	0,683097	2020-10-29T19:35:56:637
-9,735947	-1,027867	0,570285	2020-10-29T19:35:56:651
-9,755072	-0,886443	0,472414	2020-10-29T19:35:56:676
-9,778907	-0,636821	0,371252	2020-10-29T19:35:56:696
-9,803031	-0,085464	0,252299	2020-10-29T19:35:56:714
-9,766226	0,880211	0,128255	2020-10-29T19:35:56:730
-9,576623	2,111318	-0,031902	2020-10-29T19:35:56:755
-7,966836	5,709018	-0,327130	2020-10-29T19:35:56:771
-9,257258	-3,210927	-0,404355	2020-10-29T19:35:56:797
-9,354700	-2,942732	0,017477	2020-10-29T19:35:56:811
-7,224123	-6,630115	0,154930	2020-10-29T19:35:56:836
-7,301223	-6,538955	0,323413	2020-10-29T19:35:56:851
-7,435048	-6,371100	0,547293	2020-10-29T19:35:56:875
-7,666071	-6,072524	0,725391	2020-10-29T19:35:56:891
-8,030898	-5,567204	0,825410	2020-10-29T19:35:56:917
-9,612678	-1,905182	0,370259	2020-10-29T19:35:56:931
-8,278768	-5,169746	0,951904	2020-10-29T19:35:56:956
-7,998051	-5,591446	0,968139	2020-10-29T19:35:56:971
-7,901011	-5,702324	1,108109	2020-10-29T19:35:56:996
-7,918910	-5,634122	1,310695	2020-10-29T19:35:57:012
-9,254029	-2,619383	-1,916290	2020-10-29T19:35:57:036
-9,643476	-0,830329	-1,576169	2020-10-29T19:35:57:051
-9,682693	-0,990819	-1,197548	2020-10-29T19:35:57:076
-9,630151	-1,611043	-0,913850	2020-10-29T19:35:57:115
-9,647543	-1,546170	-0,839434	2020-10-29T19:35:57:117
-9,656468	-1,510430	-0,800996	2020-10-29T19:35:57:138
-9,651820	-1,539184	-0,802289	2020-10-29T19:35:57:156
-9,639880	-1,601370	-0,823842	2020-10-29T19:35:57:179
-9,620322	-1,692372	-0,869283	2020-10-29T19:35:57:195
-9,592805	-1,807466	-0,938909	2020-10-29T19:35:57:211
-9,551192	-1,973195	-1,025485	2020-10-29T19:35:57:236
-9,512159	-2,131676	-1,070122	2020-10-29T19:35:57:252
-9,469393	-2,306126	-1,087549	2020-10-29T19:35:57:276
-9,403208	-2,552545	-1,111119	2020-10-29T19:35:57:292
-9,312367	-2,860526	-1,125868	2020-10-29T19:35:57:316
-9,201282	-3,210457	-1,095338	2020-10-29T19:35:57:331
-9,058990	-3,607046	-1,046085	2020-10-29T19:35:57:355
-8,865846	-4,071883	-0,993441	2020-10-29T19:35:57:372
-8,645559	-4,521937	-0,988318	2020-10-29T19:35:57:396
-8,391169	-4,978449	-0,986773	2020-10-29T19:35:57:412
-8,049531	-5,523683	-0,929707	2020-10-29T19:35:57:435
-7,755898	-5,939854	-0,857076	2020-10-29T19:35:57:452
-7,525931	-6,236903	-0,794852	2020-10-29T19:35:57:476
-7,391830	-6,398266	-0,770337	2020-10-29T19:35:57:492
-7,300473	-6,503551	-0,759801	2020-10-29T19:35:57:516
-7,186169	-6,632924	-0,730536	2020-10-29T19:35:57:532
-7,124680	-6,701931	-0,702447	2020-10-29T19:35:57:557
-7,002913	-6,833777	-0,655051	2020-10-29T19:35:57:572
-6,894701	-6,945994	-0,621803	2020-10-29T19:35:57:595
-6,805809	-7,034839	-0,601984	2020-10-29T19:35:57:612
-6,732992	-7,105833	-0,586811	2020-10-29T19:35:57:636
-6,630279	-7,204397	-0,553585	2020-10-29T19:35:57:652
