x	y	z	ts
-3,890730	-2,151148	8,676375	2020-10-29T19:34:46:747
-3,976871	-2,069792	8,642875	2020-10-29T19:34:46:747
-3,926622	-1,950150	8,494520	2020-10-29T19:34:46:747
-4,034299	-1,823331	8,286345	2020-10-29T19:34:46:747
-3,986443	-1,411765	8,042276	2020-10-29T19:34:46:748
-4,019942	-1,016950	8,042276	2020-10-29T19:34:46:804
-4,412365	-1,517050	7,886744	2020-10-29T19:34:46:807
-4,412365	-1,517050	7,886744	2020-10-29T19:34:46:809
-4,412365	-1,517050	7,886744	2020-10-29T19:34:46:812
-4,642076	-1,356731	7,944171	2020-10-29T19:34:46:814
-4,814359	-0,961915	7,731210	2020-10-29T19:34:46:836
-4,962714	-0,717847	7,503892	2020-10-29T19:34:46:855
-5,166104	-0,466600	7,424929	2020-10-29T19:34:46:875
-5,338387	-0,433101	7,343572	2020-10-29T19:34:46:895
-5,343173	-0,885344	7,556533	2020-10-29T19:34:46:915
-5,402994	-1,328017	7,546963	2020-10-29T19:34:46:935
-5,355137	-1,612763	7,587641	2020-10-29T19:34:46:956
-5,553742	-1,887937	7,487142	2020-10-29T19:34:46:974
-5,584848	-2,007578	7,611568	2020-10-29T19:34:46:995
-5,527420	-2,045863	7,432107	2020-10-29T19:34:47:015
-5,340781	-2,103291	7,214360	2020-10-29T19:34:47:036
-5,410172	-2,139183	7,262216	2020-10-29T19:34:47:055
-5,501099	-2,421536	7,049256	2020-10-29T19:34:47:075
-5,503492	-2,371287	6,783652	2020-10-29T19:34:47:095
-5,429315	-2,129612	6,541977	2020-10-29T19:34:47:115
-5,620740	-1,703690	6,156733	2020-10-29T19:34:47:135
-5,690133	-1,225125	5,759524	2020-10-29T19:34:47:155
-5,776274	-0,873380	5,273781	2020-10-29T19:34:47:175
-6,259624	-1,014557	5,446064	2020-10-29T19:34:47:196
-7,281359	-1,804188	5,742774	2020-10-29T19:34:47:214
-8,279166	-2,639283	5,797810	2020-10-29T19:34:47:236
-9,054441	-2,821138	5,501099	2020-10-29T19:34:47:255
-9,360723	-2,689533	4,974678	2020-10-29T19:34:47:284
-9,590433	-2,600998	4,608576	2020-10-29T19:34:47:295
-9,609575	-2,500499	4,220939	2020-10-29T19:34:47:315
-9,609575	-2,656033	3,735196	2020-10-29T19:34:47:337
-9,466006	-2,596212	3,285345	2020-10-29T19:34:47:368
-9,477970	-2,378466	2,675175	2020-10-29T19:34:47:391
-9,611969	-2,376073	2,514857	2020-10-29T19:34:47:484
-9,832108	-2,364109	2,330609	2020-10-29T19:34:47:485
-10,126426	-2,292324	2,175076	2020-10-29T19:34:47:485
-10,449455	-2,517249	1,698904	2020-10-29T19:34:47:486
-10,829915	-2,773281	1,540978	2020-10-29T19:34:47:486
-11,212767	-3,335595	1,380659	2020-10-29T19:34:47:495
-11,562119	-3,730411	1,462015	2020-10-29T19:34:47:516
-11,265409	-4,161119	1,363909	2020-10-29T19:34:47:535
-10,753345	-4,376472	1,442872	2020-10-29T19:34:47:556
-10,363315	-4,144369	1,794617	2020-10-29T19:34:47:576
-10,095319	-3,534199	1,962115	2020-10-29T19:34:47:596
-9,829715	-2,734996	1,689333	2020-10-29T19:34:47:615
-9,566505	-1,880759	1,301696	2020-10-29T19:34:47:637
-9,525827	-1,385444	1,160519	2020-10-29T19:34:47:655
-9,623933	-1,232304	1,179662	2020-10-29T19:34:47:678
-9,547362	-1,579263	1,019342	2020-10-29T19:34:47:695
-9,351151	-1,892723	1,000200	2020-10-29T19:34:47:717
-9,315259	-2,038685	1,311267	2020-10-29T19:34:47:735
-9,202796	-2,127219	1,540978	2020-10-29T19:34:47:757
-9,248260	-2,225325	1,871187	2020-10-29T19:34:47:775
-9,320045	-2,538785	1,847259	2020-10-29T19:34:47:799
-9,638289	-2,244468	2,134398	2020-10-29T19:34:47:815
-9,784252	-1,954936	2,007578	2020-10-29T19:34:47:839
-9,820145	-1,799403	2,057827	2020-10-29T19:34:47:855
-9,781858	-1,749153	2,148755	2020-10-29T19:34:47:878
-10,037891	-1,792224	2,091327	2020-10-29T19:34:47:895
-10,547562	-2,167897	2,330609	2020-10-29T19:34:47:919
-10,978271	-2,184647	2,598605	2020-10-29T19:34:47:944
-10,705488	-2,146362	2,612962	2020-10-29T19:34:47:971
-10,289137	-2,139183	2,533999	2020-10-29T19:34:47:976
-10,095319	-2,153540	2,426322	2020-10-29T19:34:47:999
-9,882358	-1,952543	2,263610	2020-10-29T19:34:48:016
-9,678967	-1,710868	1,995614	2020-10-29T19:34:48:039
-9,578469	-1,579263	1,914258	2020-10-29T19:34:48:057
-9,674182	-1,328017	1,560120	2020-10-29T19:34:48:080
-9,489935	-1,141376	1,328017	2020-10-29T19:34:48:097
-9,513863	-1,533799	1,071985	2020-10-29T19:34:48:120
-9,509077	-1,701297	0,856631	2020-10-29T19:34:48:138
-9,303294	-1,782653	0,667598	2020-10-29T19:34:48:161
-9,336794	-1,945365	0,495314	2020-10-29T19:34:48:177
-9,592826	-2,201397	0,397209	2020-10-29T19:34:48:200
-9,662218	-2,538785	-0,217747	2020-10-29T19:34:48:217
-9,068797	-3,436093	-2,038685	2020-10-29T19:34:48:240
-9,090333	-5,168497	-2,376073	2020-10-29T19:34:48:257
-9,004191	-6,652047	-1,158126	2020-10-29T19:34:48:282
-8,417950	-2,443072	-1,361516	2020-10-29T19:34:56:115
-8,963513	-2,713461	-1,560120	2020-10-29T19:34:56:123
-9,659825	-2,758924	-1,698904	2020-10-29T19:34:56:125
-10,109675	-2,993421	-1,591227	2020-10-29T19:34:56:149
-10,234102	-3,254239	-1,533799	2020-10-29T19:34:56:155
-10,248460	-2,943172	-1,344766	2020-10-29T19:34:56:169
-9,975677	-2,715853	-1,258625	2020-10-29T19:34:56:194
-9,535398	-2,440679	-0,902094	2020-10-29T19:34:56:211
-9,085547	-2,397608	-0,468993	2020-10-29T19:34:56:236
-8,910872	-2,002793	0,028714	2020-10-29T19:34:56:252
-9,059227	-1,804188	1,024128	2020-10-29T19:34:56:277
-9,521042	-1,497907	0,593420	2020-10-29T19:34:56:291
-10,499706	-0,906880	-0,112463	2020-10-29T19:34:56:314
-11,523834	-0,636491	0,155533	2020-10-29T19:34:56:330
-11,724831	-0,571885	0,184247	2020-10-29T19:34:56:354
-11,234302	-0,832702	0,124427	2020-10-29T19:34:56:372
-10,784451	-1,301696	0,332602	2020-10-29T19:34:56:393
-10,317852	-1,816152	0,545564	2020-10-29T19:34:56:411
-9,561719	-2,313859	0,658026	2020-10-29T19:34:56:435
-8,877372	-2,507678	0,399601	2020-10-29T19:34:56:451
-8,496914	-2,816352	0,478565	2020-10-29T19:34:56:474
-8,556733	-2,873780	0,358923	2020-10-29T19:34:56:492
-8,908479	-2,969493	0,497707	2020-10-29T19:34:56:515
-8,999406	-3,093920	0,081356	2020-10-29T19:34:56:531
-8,807980	-2,931208	-0,205783	2020-10-29T19:34:56:555
-8,848659	-2,756532	-0,043071	2020-10-29T19:34:56:571
-8,879765	-2,555535	0,191426	2020-10-29T19:34:56:594
-8,927622	-2,464607	0,205783	2020-10-29T19:34:56:611
-8,920443	-2,275574	-0,299103	2020-10-29T19:34:56:633
-9,233903	-2,476572	-0,507278	2020-10-29T19:34:56:651
-9,973285	-2,809174	-0,253639	2020-10-29T19:34:56:675
-10,861022	-3,522235	0,078963	2020-10-29T19:34:56:692
-11,631511	-4,084548	0,411566	2020-10-29T19:34:56:713
-11,856436	-4,244867	0,703490	2020-10-29T19:34:56:731
-11,078769	-4,364508	0,600598	2020-10-29T19:34:56:757
-10,313066	-3,938586	0,320638	2020-10-29T19:34:56:771
-9,767502	-3,376273	0,445065	2020-10-29T19:34:56:794
-9,358330	-2,773281	0,476172	2020-10-29T19:34:56:811
-8,834301	-2,347359	0,035892	2020-10-29T19:34:56:834
-8,422735	-1,895115	-0,177069	2020-10-29T19:34:56:852
-8,374879	-1,627119	-0,217747	2020-10-29T19:34:56:874
-8,772088	-1,586441	0,117248	2020-10-29T19:34:56:891
-9,116654	-1,794617	0,093320	2020-10-29T19:34:56:915
-9,133404	-1,931008	-0,157926	2020-10-29T19:34:56:931
-8,934800	-2,141576	-0,459422	2020-10-29T19:34:56:954
-9,233903	-2,294717	-0,562313	2020-10-29T19:34:56:971
-9,695717	-2,572284	-0,454636	2020-10-29T19:34:56:996
-10,042676	-2,696711	-0,720240	2020-10-29T19:34:57:011
-10,325029	-2,641676	-0,887737	2020-10-29T19:34:57:034
-10,025927	-2,541178	-1,239482	2020-10-29T19:34:57:051
-9,616754	-2,541178	-1,229911	2020-10-29T19:34:57:075
-9,434900	-2,402394	-1,543371	2020-10-29T19:34:57:091
-9,451650	-2,452643	-1,931008	2020-10-29T19:34:57:114
-9,834501	-2,603391	-1,852045	2020-10-29T19:34:57:131
-10,064213	-2,584249	-1,531406	2020-10-29T19:34:57:156
-9,944571	-2,349752	-1,349552	2020-10-29T19:34:57:172
-10,212566	-1,804188	-1,440479	2020-10-29T19:34:57:194
-10,210175	-1,557728	-1,942972	2020-10-29T19:34:57:211
-9,805787	-1,483550	-1,990828	2020-10-29T19:34:57:236
-9,738789	-1,828116	-1,560120	2020-10-29T19:34:57:251
-10,179067	-2,543570	-1,150948	2020-10-29T19:34:57:275
-10,289137	-3,165704	-1,076770	2020-10-29T19:34:57:291
-9,980463	-3,376273	-1,103091	2020-10-29T19:34:57:315
-9,667004	-3,335595	-1,328017	2020-10-29T19:34:57:331
-9,363115	-3,242275	-1,368695	2020-10-29T19:34:57:355
-9,420543	-3,426522	-1,512264	2020-10-29T19:34:57:371
-9,724431	-3,704089	-1,392623	2020-10-29T19:34:57:395
-9,810574	-4,579862	-1,112662	2020-10-29T19:34:57:411
-10,920842	-5,826523	-0,827917	2020-10-29T19:34:57:434
-12,423534	-7,020542	-0,930808	2020-10-29T19:34:57:452
-12,866207	-7,731210	-0,930808	2020-10-29T19:34:57:476
-12,232110	-7,235896	-1,342373	2020-10-29T19:34:57:491
-11,765509	-6,384050	-1,531406	2020-10-29T19:34:57:515
-11,236694	-5,699703	-0,911665	2020-10-29T19:34:57:531
-10,284351	-5,589634	-0,198604	2020-10-29T19:34:57:556
-9,004191	-6,147161	0,504886	2020-10-29T19:34:57:571
-7,884350	-6,740582	0,868595	2020-10-29T19:34:57:595
-7,087541	-6,247660	1,670190	2020-10-29T19:34:57:611
-6,218946	-6,326623	1,459622	2020-10-29T19:34:57:635
-5,879165	-6,642475	1,323231	2020-10-29T19:34:57:652
-5,943772	-6,666404	1,600798	2020-10-29T19:34:57:674
-5,606383	-6,305088	1,287339	2020-10-29T19:34:57:691
-5,261817	-6,144768	0,930808	2020-10-29T19:34:57:716
-5,575277	-6,836295	1,170090	2020-10-29T19:34:57:731
-5,642276	-7,140182	1,337588	2020-10-29T19:34:57:756
-5,795416	-6,262017	1,801795	2020-10-29T19:34:57:772
-6,202196	-6,247660	2,359323	2020-10-29T19:34:57:795
-6,187840	-5,860023	2,715853	2020-10-29T19:34:57:812
-5,793024	-5,826523	2,833102	2020-10-29T19:34:57:835
-5,438886	-6,668797	3,488736	2020-10-29T19:34:57:852
-5,118248	-7,747960	3,495914	2020-10-29T19:34:57:876
-4,833502	-6,685547	1,916651	2020-10-29T19:34:57:892
-4,721039	-5,072784	0,631705	2020-10-29T19:34:57:915
-4,280759	-3,926622	-0,691526	2020-10-29T19:34:57:932
-4,055835	-4,424329	-2,060220	2020-10-29T19:34:57:957
-4,110869	-5,749953	-3,103491	2020-10-29T19:34:57:972
-4,766503	-5,446064	-3,651447	2020-10-29T19:34:57:996
-5,051248	-4,670790	-4,524827	2020-10-29T19:34:58:012
-4,981857	-4,776074	-5,362316	2020-10-29T19:34:58:036
-5,496314	-6,257231	-6,436693	2020-10-29T19:34:58:053
-5,986843	-8,216952	-7,972885	2020-10-29T19:34:58:076
-6,049056	-9,188439	-8,437093	2020-10-29T19:34:58:092
-6,144768	-9,430114	-8,568698	2020-10-29T19:34:58:116
-6,386444	-9,253045	-7,331609	2020-10-29T19:34:58:132
-5,548956	-9,221939	-5,489135	2020-10-29T19:34:58:156
-5,974878	-8,152347	-5,513064	2020-10-29T19:34:58:172
-6,434300	-6,336195	-5,335995	2020-10-29T19:34:58:197
-6,295516	-5,216353	-5,424529	2020-10-29T19:34:58:212
-6,783652	-5,170890	-5,580062	2020-10-29T19:34:58:235
-6,989435	-5,345565	-6,527620	2020-10-29T19:34:58:253
-6,503692	-4,658825	-6,745367	2020-10-29T19:34:58:276
-6,221339	-3,644269	-7,661818	2020-10-29T19:34:58:292
-6,680761	-2,493321	-8,185846	2020-10-29T19:34:58:315
-6,558727	-2,093720	-9,178867	2020-10-29T19:34:58:332
-6,214160	-1,859223	-8,683553	2020-10-29T19:34:58:356
-6,446264	-1,667797	-7,444071	2020-10-29T19:34:58:372
-7,659425	-1,316052	-6,843473	2020-10-29T19:34:58:395
-7,752745	-0,756132	-7,097112	2020-10-29T19:34:58:413
-7,293324	-0,957129	-6,642475	2020-10-29T19:34:58:438
-6,333801	-1,201197	-6,764510	2020-10-29T19:34:58:452
-5,718846	-1,861616	-6,731010	2020-10-29T19:34:58:475
-5,067998	-2,397608	-6,893722	2020-10-29T19:34:58:492
-4,321437	-1,737189	-7,066005	2020-10-29T19:34:58:516
-3,771089	-1,093520	-7,164111	2020-10-29T19:34:58:532
-3,503092	-1,105484	-7,520642	2020-10-29T19:34:58:557
-3,670590	-1,107877	-8,327023	2020-10-29T19:34:58:572
-4,252046	-1,813759	-9,260223	2020-10-29T19:34:58:597
-4,996214	-2,392823	-8,843873	2020-10-29T19:34:58:612
-5,481956	-2,301895	-7,939385	2020-10-29T19:34:58:635
-5,852845	-2,385644	-7,259824	2020-10-29T19:34:58:655
-5,934200	-2,380858	-7,685746	2020-10-29T19:34:58:677
-5,733203	-2,947958	-7,951349	2020-10-29T19:34:58:692
-4,192225	-3,517449	-7,716853	2020-10-29T19:34:58:715
-3,991228	-3,328416	-7,925028	2020-10-29T19:34:58:733
-3,713661	-2,979064	-8,772088	2020-10-29T19:34:58:758
-3,467200	-1,995614	-8,489735	2020-10-29T19:34:58:773
-3,680161	-1,995614	-7,987241	2020-10-29T19:34:58:795
-4,122833	-2,163112	-7,616355	2020-10-29T19:34:58:812
-4,472186	-2,177469	-7,822137	2020-10-29T19:34:58:836
-5,111069	-2,423929	-8,413164	2020-10-29T19:34:58:853
-5,285746	-2,043471	-8,461020	2020-10-29T19:34:58:875
-5,089533	-1,586441	-8,506484	2020-10-29T19:34:58:893
-4,534399	-1,189233	-8,772088	2020-10-29T19:34:58:917
-3,948158	-1,481157	-8,798409	2020-10-29T19:34:58:932
-3,661019	-1,320838	-8,779266	2020-10-29T19:34:58:956
-3,680161	-1,069592	-8,896514	2020-10-29T19:34:58:973
-3,862016	-0,937986	-9,068797	2020-10-29T19:34:58:996
-3,955336	-0,399601	-9,174082	2020-10-29T19:34:59:013
-3,950550	-0,839881	-9,253045	2020-10-29T19:34:59:036
-3,787838	-1,210768	-10,006784	2020-10-29T19:34:59:053
-4,223332	-1,581656	-11,215159	2020-10-29T19:34:59:076
-4,716253	-1,454836	-11,294124	2020-10-29T19:34:59:093
-4,979464	-0,641276	-10,296316	2020-10-29T19:34:59:115
-4,924429	-0,492921	-9,399008	2020-10-29T19:34:59:133
-4,443472	-0,973879	-9,114261	2020-10-29T19:34:59:158
-4,024727	-1,409373	-9,377472	2020-10-29T19:34:59:173
-3,761517	-1,655833	-9,722038	2020-10-29T19:34:59:196
-3,376273	-1,387837	-9,485149	2020-10-29T19:34:59:213
-3,129812	-0,916451	-8,982656	2020-10-29T19:34:59:236
-3,168097	-0,839881	-8,913264	2020-10-29T19:34:59:254
-3,409772	-1,055235	-8,903693	2020-10-29T19:34:59:276
-3,404987	-1,110270	-8,781659	2020-10-29T19:34:59:293
-3,483950	-0,906880	-8,650054	2020-10-29T19:34:59:316
-3,371487	-0,593420	-8,669197	2020-10-29T19:34:59:333
-3,306881	-0,232104	-8,874979	2020-10-29T19:34:59:356
-3,256632	-0,167498	-9,097511	2020-10-29T19:34:59:373
-3,280560	-0,342174	-9,370294	2020-10-29T19:34:59:397
-3,395415	-0,602991	-9,343972	2020-10-29T19:34:59:413
-3,507878	-0,744168	-9,097511	2020-10-29T19:34:59:438
-3,448057	-0,586242	-8,807980	2020-10-29T19:34:59:454
-3,306881	-0,409173	-8,755339	2020-10-29T19:34:59:476
-3,029313	-0,308674	-8,999406	2020-10-29T19:34:59:493
-2,610569	-0,330210	-9,382257	2020-10-29T19:34:59:516
-2,651247	-0,212961	-9,499505	2020-10-29T19:34:59:533
-2,794817	-0,148355	-9,640682	2020-10-29T19:34:59:557
-3,084348	-0,323031	-9,731609	2020-10-29T19:34:59:573
-3,385844	-0,564706	-9,628718	2020-10-29T19:34:59:596
-3,704089	-0,935594	-9,212367	2020-10-29T19:34:59:613
-3,931407	-1,153341	-8,836694	2020-10-29T19:34:59:637
-3,617948	-1,569692	-8,891729	2020-10-29T19:34:59:654
-3,206382	-1,627119	-8,956335	2020-10-29T19:34:59:677
-2,670390	-1,761117	-8,989835	2020-10-29T19:34:59:693
-2,486143	-1,624727	-9,011370	2020-10-29T19:34:59:716
-2,517249	-1,280160	-9,018548	2020-10-29T19:34:59:733
-2,871387	-0,655633	-9,099905	2020-10-29T19:34:59:757
-3,101098	-0,468993	-9,181261	2020-10-29T19:34:59:773
-3,495914	-0,325424	-9,135797	2020-10-29T19:34:59:797
-3,701697	-0,222532	-9,145369	2020-10-29T19:34:59:813
-3,577270	-0,480957	-9,214760	2020-10-29T19:34:59:837
-3,256632	-0,990629	-9,535398	2020-10-29T19:34:59:854
-2,959922	-1,383051	-9,360723	2020-10-29T19:34:59:880
-3,213561	-1,672583	-9,097511	2020-10-29T19:34:59:893
-3,483950	-1,725225	-8,956335	2020-10-29T19:34:59:916
-3,486342	-1,883151	-8,951550	2020-10-29T19:34:59:933
-3,326023	-2,232504	-8,889337	2020-10-29T19:34:59:957
-3,424129	-2,529213	-9,372685	2020-10-29T19:34:59:974
-4,096512	-2,634498	-9,607183	2020-10-29T19:34:59:996
-4,881358	-3,144169	-9,719646	2020-10-29T19:35:00:013
-5,292924	-3,081956	-10,033106	2020-10-29T19:35:00:037
-5,120641	-2,301895	-10,564312	2020-10-29T19:35:00:054
-5,075177	-1,737189	-11,172089	2020-10-29T19:35:00:076
-4,934000	-1,033699	-10,868200	2020-10-29T19:35:00:094
-4,869394	0,126820	-10,181459	2020-10-29T19:35:00:118
-5,213961	0,423530	-9,145369	2020-10-29T19:35:00:133
-5,493921	0,287139	-8,003991	2020-10-29T19:35:00:158
-5,804988	0,038285	-7,185646	2020-10-29T19:35:00:174
-5,402994	-0,418744	-6,716653	2020-10-29T19:35:00:197
-5,261817	-0,569492	-6,352944	2020-10-29T19:35:00:214
-4,965107	-0,957129	-6,230910	2020-10-29T19:35:00:237
-5,137390	-1,301696	-6,338587	2020-10-29T19:35:00:254
-5,166104	-1,806581	-7,104291	2020-10-29T19:35:00:277
-5,740381	-1,878366	-8,327023	2020-10-29T19:35:00:294
-6,429514	-1,691726	-9,221939	2020-10-29T19:35:00:317
-6,905686	-1,392623	-9,214760	2020-10-29T19:35:00:334
-7,271788	-1,115055	-8,786445	2020-10-29T19:35:00:361
-7,101898	-0,880559	-7,893922	2020-10-29T19:35:00:373
-6,561120	-1,033699	-7,482357	2020-10-29T19:35:00:397
-5,934200	-1,325624	-7,255038	2020-10-29T19:35:00:414
-5,283352	-1,665405	-7,262216	2020-10-29T19:35:00:437
-4,934000	-1,624727	-7,223931	2020-10-29T19:35:00:455
-5,024928	-1,598405	-7,183254	2020-10-29T19:35:00:477
-5,429315	-1,560120	-7,183254	2020-10-29T19:35:00:494
-5,752346	-1,416551	-7,432107	2020-10-29T19:35:00:518
-6,130411	-1,251446	-7,458428	2020-10-29T19:35:00:534
-6,139983	-1,184447	-7,446464	2020-10-29T19:35:00:557
-6,089733	-1,208375	-7,410572	2020-10-29T19:35:00:574
-6,053841	-1,253839	-7,259824	2020-10-29T19:35:00:599
-6,008378	-1,426122	-7,054041	2020-10-29T19:35:00:614
-5,989235	-1,378266	-6,898508	2020-10-29T19:35:00:637
-6,015556	-1,531406	-6,757331	2020-10-29T19:35:00:655
-6,094519	-1,438086	-7,054041	2020-10-29T19:35:00:678
-6,221339	-1,105484	-7,123433	2020-10-29T19:35:00:694
-6,230910	-0,691526	-7,180861	2020-10-29T19:35:00:717
-6,431907	-0,437887	-7,144968	2020-10-29T19:35:00:734
-6,690332	-0,260818	-6,989435	2020-10-29T19:35:00:759
-6,764510	-0,236889	-6,747760	2020-10-29T19:35:00:774
-6,673582	-0,327817	-6,690332	2020-10-29T19:35:00:797
-6,697510	-0,390030	-6,637690	2020-10-29T19:35:00:815
-6,644868	-0,562313	-6,482157	2020-10-29T19:35:00:839
-6,407979	-0,854238	-6,661618	2020-10-29T19:35:00:855
-6,393622	-0,497707	-8,367701	2020-10-29T19:35:00:877
-6,845865	0,629312	-9,042477	2020-10-29T19:35:00:895
-7,391429	1,799403	-8,489735	2020-10-29T19:35:00:918
-7,231110	1,899901	-7,487142	2020-10-29T19:35:00:935
-6,525227	1,670190	-7,817351	2020-10-29T19:35:00:958
-5,838487	1,308874	-8,331808	2020-10-29T19:35:00:975
-5,735595	0,844666	-8,262416	2020-10-29T19:35:00:998
-5,709275	0,600598	-7,965706	2020-10-29T19:35:01:015
-5,690133	0,382852	-7,992027	2020-10-29T19:35:01:037
-5,603990	0,148355	-8,269595	2020-10-29T19:35:01:055
-5,405386	0,045464	-8,662018	2020-10-29T19:35:01:079
-5,242674	0,208176	-8,922836	2020-10-29T19:35:01:095
-5,008178	0,562313	-8,757731	2020-10-29T19:35:01:122
-4,723432	0,918844	-8,336594	2020-10-29T19:35:01:136
-4,450650	1,261017	-8,243275	2020-10-29T19:35:01:160
-4,206582	1,361516	-8,293523	2020-10-29T19:35:01:186
-4,122833	1,227518	-8,618947	2020-10-29T19:35:01:258
-3,926622	0,971486	-8,817552	2020-10-29T19:35:01:260
-3,842873	0,552742	-8,982656	2020-10-29T19:35:01:263
-4,058227	0,224925	-9,037691	2020-10-29T19:35:01:267
-4,412365	-0,418744	-8,975478	2020-10-29T19:35:01:300
-4,484150	-1,146162	-8,863015	2020-10-29T19:35:01:302
-4,347759	-1,665405	-8,757731	2020-10-29T19:35:01:323
-4,082155	-1,816152	-8,817552	2020-10-29T19:35:01:340
-3,823731	-1,892723	-8,865408	2020-10-29T19:35:01:358
-3,529413	-1,691726	-8,946764	2020-10-29T19:35:01:375
-3,414558	-1,414158	-8,987441	2020-10-29T19:35:01:398
-3,261417	-1,024128	-9,123833	2020-10-29T19:35:01:416
-3,306881	-0,701097	-9,310472	2020-10-29T19:35:01:438
-3,378666	-0,564706	-9,329616	2020-10-29T19:35:01:456
-3,608376	-0,634098	-9,305687	2020-10-29T19:35:01:480
-3,773481	-1,019342	-9,121440	2020-10-29T19:35:01:496
-3,699304	-1,375873	-9,157332	2020-10-29T19:35:01:518
-3,603590	-1,746760	-9,042477	2020-10-29T19:35:01:536
-3,653840	-2,151148	-8,934800	2020-10-29T19:35:01:560
-3,467200	-2,574677	-8,992228	2020-10-29T19:35:01:575
-3,302095	-2,837888	-9,080762	2020-10-29T19:35:01:598
-3,098706	-2,926422	-9,214760	2020-10-29T19:35:01:616
-3,007778	-2,842674	-9,142976	2020-10-29T19:35:01:639
-2,852244	-2,524428	-8,772088	2020-10-29T19:35:01:656
-2,883351	-2,301895	-8,764909	2020-10-29T19:35:01:678
-2,797210	-2,237289	-8,729016	2020-10-29T19:35:01:696
-2,734996	-2,153540	-8,779266	2020-10-29T19:35:01:719
-2,663212	-2,222932	-8,930015	2020-10-29T19:35:01:736
-2,656033	-2,423929	-9,145369	2020-10-29T19:35:01:759
-2,734996	-3,053242	-9,650253	2020-10-29T19:35:01:776
-3,266203	-3,428915	-10,368099	2020-10-29T19:35:01:800
-3,809374	-3,775874	-10,049855	2020-10-29T19:35:01:815
-5,182854	-3,507878	-9,269794	2020-10-29T19:35:01:839
-5,982057	-3,105884	-8,843873	2020-10-29T19:35:01:856
-6,037091	-2,572284	-9,561719	2020-10-29T19:35:01:880
-5,383851	-2,074577	-10,104890	2020-10-29T19:35:01:896
-4,919643	-1,366302	-10,035499	2020-10-29T19:35:01:920
-4,646862	-0,890130	-9,320045	2020-10-29T19:35:01:936
-4,938786	-0,619741	-8,362915	2020-10-29T19:35:01:960
-5,103891	-0,435494	-7,542177	2020-10-29T19:35:01:976
-5,302495	-0,145962	-6,898508	2020-10-29T19:35:01:998
-5,400600	-0,122034	-6,477371	2020-10-29T19:35:02:016
-5,168497	-0,449851	-6,608976	2020-10-29T19:35:02:042
-4,943572	-1,191626	-7,767102	2020-10-29T19:35:02:056
-5,039285	-2,172683	-9,171689	2020-10-29T19:35:02:080
-5,496314	-2,799603	-10,004392	2020-10-29T19:35:02:097
-5,888737	-2,773281	-9,731609	2020-10-29T19:35:02:119
-5,807381	-2,239682	-8,678767	2020-10-29T19:35:02:136
-5,639884	-1,730011	-8,231310	2020-10-29T19:35:02:159
-5,166104	-1,409373	-8,118847	2020-10-29T19:35:02:176
-4,713861	-1,485943	-8,092526	2020-10-29T19:35:02:200
-4,381258	-1,741975	-8,147561	2020-10-29T19:35:02:216
-4,445865	-1,933401	-8,011170	2020-10-29T19:35:02:239
-4,448257	-2,132005	-7,893922	2020-10-29T19:35:02:256
-4,508078	-2,359323	-7,855636	2020-10-29T19:35:02:281
-4,670790	-2,557927	-7,956135	2020-10-29T19:35:02:296
-4,591826	-2,801995	-7,836494	2020-10-29T19:35:02:319
-4,723432	-2,952743	-7,697710	2020-10-29T19:35:02:336
-4,778467	-2,967100	-7,587641	2020-10-29T19:35:02:360
-4,642076	-2,928815	-7,570890	2020-10-29T19:35:02:376
-4,515256	-2,854637	-7,683353	2020-10-29T19:35:02:399
-4,352544	-2,708675	-7,786245	2020-10-29T19:35:02:416
-4,333402	-2,615355	-7,884350	2020-10-29T19:35:02:440
-4,297509	-2,428715	-8,035098	2020-10-29T19:35:02:457
-4,208975	-2,155933	-8,061419	2020-10-29T19:35:02:479
-4,158726	-2,079363	-8,274381	2020-10-29T19:35:02:496
-4,094120	-2,402394	-9,293723	2020-10-29T19:35:02:522
-4,804788	-2,909672	-12,016755	2020-10-29T19:35:02:536
-5,680561	-1,265803	-11,564510	2020-10-29T19:35:02:561
-5,752346	0,299103	-9,284152	2020-10-29T19:35:02:576
-6,305088	-0,069392	-7,802995	2020-10-29T19:35:02:600
-5,642276	-0,736989	-8,367701	2020-10-29T19:35:02:616
-4,938786	-1,253839	-9,375079	2020-10-29T19:35:02:639
-4,670790	-1,447658	-9,896714	2020-10-29T19:35:02:657
-4,572684	-0,799203	-9,638289	2020-10-29T19:35:02:680
-4,534399	-0,337388	-8,963513	2020-10-29T19:35:02:696
-4,599005	-0,150748	-8,906086	2020-10-29T19:35:02:719
-4,780859	-0,014357	-9,071191	2020-10-29T19:35:02:737
-4,759324	0,313460	-8,843873	2020-10-29T19:35:02:762
-4,333402	0,923629	-8,310273	2020-10-29T19:35:02:777
-3,761517	0,995414	-8,092526	2020-10-29T19:35:02:799
-3,213561	1,464408	-8,154739	2020-10-29T19:35:02:817
-3,036492	1,603191	-8,499306	2020-10-29T19:35:02:840
-3,261417	1,674976	-9,188439	2020-10-29T19:35:02:857
-3,713661	1,342373	-9,355937	2020-10-29T19:35:02:879
-4,127619	0,815953	-9,320045	2020-10-29T19:35:02:896
-4,476971	0,277567	-9,219545	2020-10-29T19:35:02:920
-4,601398	-0,026321	-9,300901	2020-10-29T19:35:02:937
-4,314260	-0,148355	-9,413363	2020-10-29T19:35:02:960
-3,708875	-0,313460	-9,688539	2020-10-29T19:35:02:978
-3,081956	-0,062213	-9,585647	2020-10-29T19:35:03:002
-2,572284	0,210568	-9,504292	2020-10-29T19:35:03:017
-2,390430	0,246461	-9,360723	2020-10-29T19:35:03:040
-2,816352	0,576670	-9,073583	2020-10-29T19:35:03:057
-3,046063	0,524028	-9,190832	2020-10-29T19:35:03:081
-3,309274	0,490529	-9,363115	2020-10-29T19:35:03:099
-3,448057	0,220140	-9,296116	2020-10-29T19:35:03:121
-3,481557	0,055035	-9,288938	2020-10-29T19:35:03:137
-3,206382	-0,074178	-9,315259	2020-10-29T19:35:03:162
-3,065206	-0,191426	-9,312866	2020-10-29T19:35:03:177
-3,036492	-0,311067	-9,391829	2020-10-29T19:35:03:201
-2,991028	-0,263210	-9,533006	2020-10-29T19:35:03:217
-2,825923	-0,320638	-9,542577	2020-10-29T19:35:03:242
-2,830709	-0,251246	-9,475577	2020-10-29T19:35:03:258
-2,734996	0,090927	-9,343972	2020-10-29T19:35:03:280
-2,732604	0,301496	-9,248260	2020-10-29T19:35:03:297
-2,624927	0,571885	-9,454042	2020-10-29T19:35:03:322
-2,533999	0,713061	-9,827322	2020-10-29T19:35:03:351
-2,809174	0,583849	-9,975677	2020-10-29T19:35:03:404
-3,615555	0,086142	-10,408779	2020-10-29T19:35:03:407
-5,522634	0,248854	-9,131011	2020-10-29T19:35:03:407
-7,013363	-0,334995	-6,807580	2020-10-29T19:35:03:418
-6,965507	-0,741775	-6,910471	2020-10-29T19:35:03:442
-6,005985	-0,734596	-8,327023	2020-10-29T19:35:03:459
-5,044070	-0,373280	-9,554541	2020-10-29T19:35:03:482
-4,754539	-0,141177	-9,803394	2020-10-29T19:35:03:497
-5,180461	0,239282	-8,851050	2020-10-29T19:35:03:520
-6,151947	0,476172	-7,649854	2020-10-29T19:35:03:538
-6,419943	0,263210	-7,066005	2020-10-29T19:35:03:562
-5,919843	-0,028714	-7,405786	2020-10-29T19:35:03:577
-5,414958	-0,684347	-8,276773	2020-10-29T19:35:03:600
-5,240282	-1,646262	-8,549555	2020-10-29T19:35:03:617
-5,259424	-2,175076	-7,908278	2020-10-29T19:35:03:641
-5,359922	-2,048256	-7,140182	2020-10-29T19:35:03:658
-5,328816	-1,751546	-6,809973	2020-10-29T19:35:03:680
-5,149354	-1,660619	-6,891330	2020-10-29T19:35:03:698
-5,099105	-1,706082	-7,032506	2020-10-29T19:35:03:722
-4,996214	-1,866402	-7,125826	2020-10-29T19:35:03:737
-5,070391	-2,026721	-7,597212	2020-10-29T19:35:03:761
-5,185246	-2,325824	-8,102098	2020-10-29T19:35:03:778
-5,481956	-2,170290	-8,434700	2020-10-29T19:35:03:802
-5,974878	-2,242075	-8,609376	2020-10-29T19:35:03:818
-6,233303	-2,294717	-8,657232	2020-10-29T19:35:03:840
-6,580262	-2,390430	-8,817552	2020-10-29T19:35:03:858
-6,807580	-2,629712	-8,788837	2020-10-29T19:35:03:881
-6,809973	-2,538785	-8,434700	2020-10-29T19:35:03:898
-6,513263	-2,644069	-8,116454	2020-10-29T19:35:03:920
-6,329016	-2,778067	-7,915457	2020-10-29T19:35:03:938
-6,029913	-2,947958	-7,458428	2020-10-29T19:35:03:964
-6,259624	-3,239882	-6,668797	2020-10-29T19:35:03:978
-6,491727	-3,732803	-6,245267	2020-10-29T19:35:04:001
-6,518049	-3,649055	-6,357729	2020-10-29T19:35:04:018
-6,187840	-3,141776	-6,697510	2020-10-29T19:35:04:041
-5,711668	-2,876173	-6,829116	2020-10-29T19:35:04:059
-5,675776	-2,708675	-6,943972	2020-10-29T19:35:04:081
-5,857630	-3,136991	-7,355537	2020-10-29T19:35:04:098
-5,924629	-3,390630	-6,996613	2020-10-29T19:35:04:122
-6,546762	-3,838088	-5,728417	2020-10-29T19:35:04:138
-7,336394	-3,883551	-4,802395	2020-10-29T19:35:04:161
-7,953743	-3,969693	-3,881158	2020-10-29T19:35:04:178
-8,492127	-4,012764	-3,024528	2020-10-29T19:35:04:203
-9,102298	-3,799802	-1,670190	2020-10-29T19:35:04:218
-9,370294	-3,950550	-1,067199	2020-10-29T19:35:04:241
-9,298509	-3,725625	0,468993	2020-10-29T19:35:04:259
-9,171689	-3,022135	1,892723	2020-10-29T19:35:04:282
-8,149954	-2,900101	-1,086342	2020-10-29T19:35:04:299
-7,025328	-3,646662	-6,714260	2020-10-29T19:35:04:321
-5,529813	-5,084748	-9,939785	2020-10-29T19:35:04:338
-5,343173	-9,042477	-9,729217	2020-10-29T19:35:04:362
-5,888737	-11,131411	-8,413164	2020-10-29T19:35:04:379
-5,620740	-10,844273	-7,401000	2020-10-29T19:35:04:431
-5,111069	-10,183852	-8,015956	2020-10-29T19:35:04:432
-6,187840	-5,924629	-6,479764	2020-10-29T19:35:04:444
-7,604390	-3,002992	-4,831109	2020-10-29T19:35:04:460
-8,334201	-2,440679	-4,216154	2020-10-29T19:35:04:482
-8,240881	-2,218147	-4,091727	2020-10-29T19:35:04:498
-8,693125	-0,945165	-3,771089	2020-10-29T19:35:04:522
-9,363115	-0,782453	-1,923829	2020-10-29T19:35:04:539
-10,442278	-1,813759	-1,371087	2020-10-29T19:35:04:562
-11,401800	-2,883351	-1,404587	2020-10-29T19:35:04:579
-11,344372	-3,213561	-1,619941	2020-10-29T19:35:04:602
-10,810772	-4,771288	-1,385444	2020-10-29T19:35:04:619
-8,750552	-4,292724	-1,694118	2020-10-29T19:35:04:642
-6,805188	-2,110470	-2,411965	2020-10-29T19:35:04:659
-6,943972	-1,921437	-2,488536	2020-10-29T19:35:04:683
-7,070791	-5,041678	-3,713661	2020-10-29T19:35:04:699
-7,278966	-6,412765	-3,986443	2020-10-29T19:35:04:722
-7,889136	-6,467800	-2,806781	2020-10-29T19:35:04:739
-7,850852	-5,422136	-6,104091	2020-10-29T19:35:04:763
-8,877372	-4,950750	-6,139983	2020-10-29T19:35:04:779
-9,951750	-6,716653	-5,034499	2020-10-29T19:35:04:803
-11,016556	-8,946764	-0,741775	2020-10-29T19:35:04:819
-14,646468	-3,790231	-0,404387	2020-10-29T19:35:08:106
-13,835299	-3,385844	-3,594020	2020-10-29T19:35:08:108
-12,045469	-3,486342	-4,725825	2020-10-29T19:35:08:137
-11,576476	-3,795017	-3,986443	2020-10-29T19:35:08:138
-12,289536	-3,818945	-2,983850	2020-10-29T19:35:08:168
-12,669996	-3,493521	-2,373680	2020-10-29T19:35:08:179
-12,174682	-2,983850	-1,947758	2020-10-29T19:35:08:199
-11,495120	-2,526821	-1,416551	2020-10-29T19:35:08:227
-11,138590	-2,244468	-0,378066	2020-10-29T19:35:08:303
-10,597812	-2,057827	-0,370888	2020-10-29T19:35:08:304
-10,296316	-2,112862	-0,289532	2020-10-29T19:35:08:304
-9,671788	-2,184647	-0,363709	2020-10-29T19:35:08:305
-9,138189	-1,978864	-0,861416	2020-10-29T19:35:08:323
-8,941978	-2,565106	-1,328017	2020-10-29T19:35:08:344
-9,174082	-2,873780	-1,117448	2020-10-29T19:35:08:358
-8,985049	-2,919244	-0,997807	2020-10-29T19:35:08:377
-8,537591	-2,974278	-0,409173	2020-10-29T19:35:08:399
-8,037491	-3,132205	-0,500100	2020-10-29T19:35:08:416
-7,664211	-3,510271	-1,098306	2020-10-29T19:35:08:440
-7,865208	-3,627519	-0,660419	2020-10-29T19:35:08:456
-8,556733	-4,029513	-0,346959	2020-10-29T19:35:08:481
-9,559326	-4,460221	-0,267996	2020-10-29T19:35:08:496
-10,616954	-4,974678	0,811167	2020-10-29T19:35:08:520
-11,459228	-4,754539	1,718047	2020-10-29T19:35:08:536
-11,777473	-3,862016	1,062413	2020-10-29T19:35:08:564
-13,435699	-3,337988	1,356731	2020-10-29T19:35:08:576
-14,981462	-3,467200	1,629512	2020-10-29T19:35:08:600
-14,199009	-4,309474	1,627119	2020-10-29T19:35:08:616
-12,275180	-5,034499	1,550549	2020-10-29T19:35:08:641
-10,518847	-4,689932	1,957329	2020-10-29T19:35:08:656
-8,858230	-4,299902	2,313859	2020-10-29T19:35:08:681
-7,367501	-4,287938	2,117648	2020-10-29T19:35:08:699
-7,020542	-3,847659	2,919244	2020-10-29T19:35:08:722
-8,480164	-0,736989	1,718047	2020-10-29T19:35:08:736
-11,504691	0,626920	3,108276	2020-10-29T19:35:08:759
-13,873586	0,157926	0,418744	2020-10-29T19:35:08:777
-15,081962	-1,837688	-1,296910	2020-10-29T19:35:08:802
-15,500705	0,282353	-3,292524	2020-10-29T19:35:08:816
-14,885750	-1,354338	-0,847059	2020-10-29T19:35:08:840
-14,230117	-2,924029	-1,103091	2020-10-29T19:35:08:856
-13,481163	-2,457429	-2,309074	2020-10-29T19:35:08:881
-11,832507	-2,658426	-2,706282	2020-10-29T19:35:08:896
-10,439885	-2,715853	-2,986243	2020-10-29T19:35:08:921
-9,695717	-2,785245	-2,498107	2020-10-29T19:35:08:937
-9,387043	-3,349952	-2,045863	2020-10-29T19:35:08:961
-9,456435	-3,134598	-1,801795	2020-10-29T19:35:08:977
-9,293723	-2,766103	-1,926222	2020-10-29T19:35:09:002
-9,128618	-2,383251	1,079163	2020-10-29T19:35:24:082
-9,226725	-2,529213	1,148555	2020-10-29T19:35:24:105
-9,521042	-2,505285	1,277767	2020-10-29T19:35:24:108
-9,542577	-2,600998	1,335195	2020-10-29T19:35:24:112
-9,707682	-2,679961	1,153341	2020-10-29T19:35:24:153
-10,413565	-2,596212	0,993021	2020-10-29T19:35:24:157
-11,155338	-2,780460	1,045663	2020-10-29T19:35:24:174
-11,136196	-2,799603	0,942772	2020-10-29T19:35:24:180
-10,269995	-2,610569	0,722632	2020-10-29T19:35:24:202
-9,655040	-2,103291	0,406780	2020-10-29T19:35:24:218
-9,583255	-1,799403	0,401994	2020-10-29T19:35:24:241
-9,583255	-1,442872	0,260818	2020-10-29T19:35:24:259
-9,638289	-1,308874	0,323031	2020-10-29T19:35:24:283
-9,707682	-1,557728	0,203390	2020-10-29T19:35:24:300
-9,506684	-1,674976	-0,141177	2020-10-29T19:35:24:322
-9,305687	-1,655833	-0,483350	2020-10-29T19:35:24:341
-9,150154	-1,816152	-0,689133	2020-10-29T19:35:24:363
-9,265009	-1,854438	-0,806381	2020-10-29T19:35:24:379
-9,037691	-2,000400	-0,856631	2020-10-29T19:35:24:403
-8,740981	-2,132005	-0,945165	2020-10-29T19:35:24:420
-8,384450	-2,184647	-0,969093	2020-10-29T19:35:24:442
-8,178668	-2,222932	-1,019342	2020-10-29T19:35:24:459
-8,073383	-2,380858	-0,921237	2020-10-29T19:35:24:483
-8,207381	-2,392823	-1,043271	2020-10-29T19:35:24:499
-8,740981	-2,471786	-1,246661	2020-10-29T19:35:24:523
-9,449257	-2,603391	-1,155733	2020-10-29T19:35:24:540
-9,846465	-2,727818	-1,165305	2020-10-29T19:35:24:564
-10,265208	-2,921637	-1,079163	2020-10-29T19:35:24:580
-10,566705	-2,981457	-1,009771	2020-10-29T19:35:24:604
-11,002198	-3,270989	-1,205983	2020-10-29T19:35:24:620
-11,088341	-3,737589	-1,409373	2020-10-29T19:35:24:644
-10,939985	-4,072584	-1,607977	2020-10-29T19:35:24:660
-10,683953	-4,084548	-1,775474	2020-10-29T19:35:24:683
-10,573883	-3,665804	-1,844866	2020-10-29T19:35:24:701
-10,437491	-2,883351	-1,933401	2020-10-29T19:35:24:723
-10,205389	-2,273181	-1,907080	2020-10-29T19:35:24:740
-10,035499	-1,935793	-1,624727	2020-10-29T19:35:24:763
-9,956534	-1,993221	-1,418944	2020-10-29T19:35:24:780
-9,939785	-2,237289	-1,311267	2020-10-29T19:35:24:804
-9,757930	-2,313859	-1,220340	2020-10-29T19:35:24:820
-9,848858	-2,404787	-1,210768	2020-10-29T19:35:24:844
-9,903893	-2,577070	-1,277767	2020-10-29T19:35:24:859
-9,839286	-2,656033	-1,328017	2020-10-29T19:35:24:883
-9,724431	-2,557927	-1,473979	2020-10-29T19:35:24:900
-9,781858	-2,423929	-1,392623	2020-10-29T19:35:24:923
-9,767502	-2,452643	-1,217947	2020-10-29T19:35:24:940
-9,602397	-2,340181	-1,263410	2020-10-29T19:35:24:963
-9,446864	-2,117648	-1,179662	2020-10-29T19:35:24:980
-9,346365	-1,899901	-1,131805	2020-10-29T19:35:25:004
-9,174082	-1,768296	-1,026521	2020-10-29T19:35:25:020
-9,092726	-1,665405	-0,971486	2020-10-29T19:35:25:043
-8,963513	-1,619941	-0,971486	2020-10-29T19:35:25:060
-8,690732	-1,708475	-0,959522	2020-10-29T19:35:25:084
-8,805587	-1,768296	-0,859023	2020-10-29T19:35:25:100
-9,480364	-1,818545	-1,241875	2020-10-29T19:35:25:123
-10,913664	-1,892723	-1,220340	2020-10-29T19:35:25:140
-11,090734	-2,299503	-0,961915	2020-10-29T19:35:25:163
-9,102298	-2,467000	-0,976272	2020-10-29T19:35:25:180
-7,551748	-2,483750	-0,806381	2020-10-29T19:35:25:203
-7,712067	-2,419144	-0,559920	2020-10-29T19:35:25:220
-8,805587	-2,467000	-0,370888	2020-10-29T19:35:25:243
-9,590433	-2,560320	-0,332602	2020-10-29T19:35:25:260
-9,640682	-2,904887	-0,011964	2020-10-29T19:35:25:284
-9,475577	-2,957529	0,215354	2020-10-29T19:35:25:301
-9,748360	-2,785245	0,047856	2020-10-29T19:35:25:325
-10,418350	-2,488536	-0,040678	2020-10-29T19:35:25:340
-11,030912	-2,170290	-0,002393	2020-10-29T19:35:25:364
-11,588440	-1,792224	0,064606	2020-10-29T19:35:25:380
-11,705689	-1,502693	0,619741	2020-10-29T19:35:25:403
-11,071590	-1,332802	1,591227	2020-10-29T19:35:25:421
-9,980463	-1,339981	2,495714	2020-10-29T19:35:25:445
-9,418150	-1,301696	3,096312	2020-10-29T19:35:25:460
-9,169296	-1,356731	2,897708	2020-10-29T19:35:25:484
-8,894121	-1,481157	2,651247	2020-10-29T19:35:25:501
-8,836694	-1,600798	2,526821	2020-10-29T19:35:25:525
-8,946764	-1,878366	2,189433	2020-10-29T19:35:25:541
-9,071191	-1,667797	1,751546	2020-10-29T19:35:25:565
-9,434900	-1,890330	1,476372	2020-10-29T19:35:25:580
-9,578469	-2,249253	1,220340	2020-10-29T19:35:25:605
-9,408579	-2,285146	0,442672	2020-10-29T19:35:25:621
-9,535398	-2,151148	0,308674	2020-10-29T19:35:25:644
-9,726824	-2,277967	0,296710	2020-10-29T19:35:25:661
-9,987641	-2,639283	0,311067	2020-10-29T19:35:25:685
-10,133603	-2,883351	0,186640	2020-10-29T19:35:25:701
-10,112068	-2,811567	-0,040678	2020-10-29T19:35:25:725
-9,980463	-2,636890	-0,026321	2020-10-29T19:35:25:741
-9,774680	-2,411965	-0,026321	2020-10-29T19:35:25:764
-9,578469	-2,206182	-0,026321	2020-10-29T19:35:25:781
-9,241080	-2,072184	0,019143	2020-10-29T19:35:25:805
-9,071191	-1,832902	0,143569	2020-10-29T19:35:25:821
-8,906086	-1,861616	0,069392	2020-10-29T19:35:25:845
-8,750552	-2,024328	0,200997	2020-10-29T19:35:25:861
-8,796017	-2,184647	0,270389	2020-10-29T19:35:25:884
-8,784052	-2,469393	0,303888	2020-10-29T19:35:25:901
-8,963513	-2,675175	0,375673	2020-10-29T19:35:25:925
-9,265009	-2,809174	0,133998	2020-10-29T19:35:25:941
-10,241282	-2,845066	-0,495314	2020-10-29T19:35:25:964
-12,011970	-3,069991	-0,177069	2020-10-29T19:35:25:981
-11,971292	-3,163311	-0,179462	2020-10-29T19:35:26:005
-10,736595	-3,256632	-0,052642	2020-10-29T19:35:26:021
-10,042676	-3,247060	-0,071785	2020-10-29T19:35:26:045
-9,891929	-2,852244	-0,299103	2020-10-29T19:35:26:061
-10,011569	-2,467000	-0,535992	2020-10-29T19:35:26:085
-9,975677	-2,158326	-0,586242	2020-10-29T19:35:26:102
-9,879964	-2,316252	-0,727418	2020-10-29T19:35:26:124
-9,585647	-2,464607	-0,916451	2020-10-29T19:35:26:142
-9,547362	-2,270789	-0,945165	2020-10-29T19:35:26:165
-9,437292	-2,165504	-0,966700	2020-10-29T19:35:26:181
-9,346365	-2,261217	-1,086342	2020-10-29T19:35:26:207
-9,683753	-2,452643	-1,366302	2020-10-29T19:35:26:221
-10,214959	-2,928815	-1,488336	2020-10-29T19:35:26:245
-10,370493	-3,428915	-1,655833	2020-10-29T19:35:26:261
-10,248460	-3,785445	-2,029114	2020-10-29T19:35:26:285
-10,214959	-3,962514	-2,254039	2020-10-29T19:35:26:301
-10,183852	-4,082155	-2,210968	2020-10-29T19:35:26:326
-9,564112	-4,244867	-2,234896	2020-10-29T19:35:26:342
-9,018548	-4,350152	-2,053042	2020-10-29T19:35:26:365
-8,437093	-4,340580	-1,873580	2020-10-29T19:35:26:382
-8,133204	-4,175476	-1,710868	2020-10-29T19:35:26:406
-7,984849	-3,979264	-1,631905	2020-10-29T19:35:26:421
-8,035098	-3,840480	-1,406980	2020-10-29T19:35:26:445
-8,145168	-3,586841	-0,650848	2020-10-29T19:35:26:461
-8,264810	-3,419343	0,234497	2020-10-29T19:35:26:485
-8,044669	-3,120241	0,739382	2020-10-29T19:35:26:502
-7,561320	-2,883351	0,452243	2020-10-29T19:35:26:527
-7,202396	-2,548356	0,129212	2020-10-29T19:35:26:541
-7,345965	-2,677568	0,098106	2020-10-29T19:35:26:565
-8,126025	-3,079563	0,701097	2020-10-29T19:35:26:581
-9,121440	-3,524628	1,572084	2020-10-29T19:35:26:605
-9,853643	-3,716053	2,359323	2020-10-29T19:35:26:622
-9,597611	-3,393023	2,529213	2020-10-29T19:35:26:645
-8,927622	-3,656233	1,873580	2020-10-29T19:35:26:661
-8,520842	-3,570091	1,366302	2020-10-29T19:35:26:685
-8,736196	-3,428915	0,358923	2020-10-29T19:35:26:702
-9,901501	-4,130012	-0,122034	2020-10-29T19:35:26:726
-9,489935	-4,974678	-0,459422	2020-10-29T19:35:26:742
-8,729016	-5,843273	-0,569492	2020-10-29T19:35:26:767
-8,484949	-5,833702	-0,607777	2020-10-29T19:35:26:782
-8,745767	-5,271388	-0,677169	2020-10-29T19:35:26:806
-9,047262	-4,996214	-0,435494	2020-10-29T19:35:26:822
-9,011370	-4,735396	-0,430708	2020-10-29T19:35:26:845
-8,724231	-4,421937	-0,483350	2020-10-29T19:35:26:862
-8,752945	-4,074977	-0,301496	2020-10-29T19:35:26:886
-8,879765	-4,168297	-0,138784	2020-10-29T19:35:26:902
-9,147761	-4,661219	-0,205783	2020-10-29T19:35:26:925
-9,980463	-4,900501	-0,528814	2020-10-29T19:35:26:942
-10,671989	-4,505685	-0,595813	2020-10-29T19:35:26:965
-10,846665	-4,297509	-0,634098	2020-10-29T19:35:26:982
-10,547562	-3,914658	-0,107677	2020-10-29T19:35:27:006
-10,466206	-3,701697	0,691526	2020-10-29T19:35:27:022
-10,255639	-3,605984	0,849452	2020-10-29T19:35:27:047
-9,561719	-3,395415	0,617348	2020-10-29T19:35:27:062
-8,827123	-3,115455	0,306281	2020-10-29T19:35:27:086
-8,377272	-2,983850	0,174676	2020-10-29T19:35:27:102
-7,994420	-3,117848	0,088534	2020-10-29T19:35:27:126
-7,707282	-3,335595	0,394816	2020-10-29T19:35:27:142
-7,513463	-3,852444	0,715454	2020-10-29T19:35:27:165
-7,250252	-4,496114	0,602991	2020-10-29T19:35:27:182
-7,513463	-4,711468	0,449851	2020-10-29T19:35:27:206
-7,807780	-5,058427	0,454636	2020-10-29T19:35:27:223
-8,068598	-5,386244	0,722632	2020-10-29T19:35:27:246
-8,185846	-5,663811	0,976272	2020-10-29T19:35:27:261
-7,977671	-5,728417	1,093520	2020-10-29T19:35:27:286
-7,587641	-5,675776	1,189233	2020-10-29T19:35:27:303
-7,166504	-5,637490	1,174876	2020-10-29T19:35:27:326
-7,027720	-5,587241	0,940379	2020-10-29T19:35:27:342
-7,278966	-5,699703	0,753739	2020-10-29T19:35:27:366
-7,764710	-5,778666	0,626920	2020-10-29T19:35:27:382
-7,934600	-6,084948	0,631705	2020-10-29T19:35:27:405
-7,733603	-6,116055	0,576670	2020-10-29T19:35:27:422
-7,903493	-5,843273	-0,100499	2020-10-29T19:35:27:447
-9,425328	-5,824130	0,090927	2020-10-29T19:35:27:463
-10,801201	-5,974878	0,172283	2020-10-29T19:35:27:486
-11,131411	-5,663811	-0,162712	2020-10-29T19:35:27:502
-11,117055	-5,434100	-0,169890	2020-10-29T19:35:27:537
-10,865808	-5,300103	-0,143569	2020-10-29T19:35:27:542
-10,214959	-4,807181	-0,100499	2020-10-29T19:35:27:566
-9,432507	-4,543970	0,093320	2020-10-29T19:35:27:583
-8,702696	-4,180261	0,167498	2020-10-29T19:35:27:607
-8,307880	-3,589234	0,074178	2020-10-29T19:35:27:623
-8,362915	-3,175276	0,007178	2020-10-29T19:35:27:646
-9,310472	-2,766103	0,117248	2020-10-29T19:35:27:663
-10,588240	-2,545963	0,203390	2020-10-29T19:35:27:687
-11,277373	-2,411965	-0,334995	2020-10-29T19:35:27:703
-11,057234	-2,139183	-0,969093	2020-10-29T19:35:27:727
-10,602598	-2,045863	-1,500300	2020-10-29T19:35:27:742
-10,408779	-1,859223	-1,450050	2020-10-29T19:35:27:767
-10,054641	-1,842474	-1,282553	2020-10-29T19:35:27:783
-9,300901	-1,806581	-0,949951	2020-10-29T19:35:27:806
-9,080762	-1,928615	-0,507278	2020-10-29T19:35:27:824
-8,755339	-1,993221	-0,311067	2020-10-29T19:35:27:848
-8,583055	-1,859223	-0,227318	2020-10-29T19:35:27:863
-8,640482	-1,797010	-0,167498	2020-10-29T19:35:27:886
-8,736196	-1,765903	-0,119641	2020-10-29T19:35:27:903
-8,889337	-1,808974	-0,062213	2020-10-29T19:35:27:926
-8,683553	-1,768296	-0,184247	2020-10-29T19:35:27:943
-8,575876	-1,751546	-0,174676	2020-10-29T19:35:27:967
-8,776874	-1,753939	-0,172283	2020-10-29T19:35:27:983
-9,083155	-1,708475	-0,184247	2020-10-29T19:35:28:007
-9,480364	-1,868794	-0,239282	2020-10-29T19:35:28:024
-9,801002	-1,942972	-0,277567	2020-10-29T19:35:28:046
-9,954143	-2,014757	-0,346959	2020-10-29T19:35:28:063
-9,899107	-2,005185	-0,442672	2020-10-29T19:35:28:087
-9,879964	-2,041078	-0,478565	2020-10-29T19:35:28:104
-9,633504	-2,146362	-0,433101	2020-10-29T19:35:28:127
-9,667004	-2,141576	-1,064806	2020-10-29T19:35:28:144
-11,456835	-2,402394	-1,136591	2020-10-29T19:35:28:167
-12,985848	-2,744568	-0,775275	2020-10-29T19:35:28:184
-11,619547	-2,873780	-1,442872	2020-10-29T19:35:28:207
-10,679168	-3,091527	-1,584049	2020-10-29T19:35:28:223
-11,681760	-3,352344	-0,780060	2020-10-29T19:35:28:247
-11,581261	-3,316452	-0,169890	2020-10-29T19:35:28:264
-9,848858	-3,558127	-0,160319	2020-10-29T19:35:28:286
-8,271988	-3,249453	0,076570	2020-10-29T19:35:28:304
-7,109076	-2,723032	0,253639	2020-10-29T19:35:28:328
-6,424729	-2,191825	0,236889	2020-10-29T19:35:28:343
-6,788438	-2,060220	0,179462	2020-10-29T19:35:28:367
-8,456236	-2,263610	0,098106	2020-10-29T19:35:28:383
-10,131211	-2,658426	0,394816	2020-10-29T19:35:28:408
-10,542776	-2,928815	0,983450	2020-10-29T19:35:28:424
-9,652647	-3,081956	1,524228	2020-10-29T19:35:28:447
-9,052048	-2,971886	2,187040	2020-10-29T19:35:28:464
-9,190832	-2,818745	2,639283	2020-10-29T19:35:28:488
-9,212367	-2,368894	2,723032	2020-10-29T19:35:28:504
-9,068797	-2,258825	3,108276	2020-10-29T19:35:28:527
-8,879765	-2,249253	3,268596	2020-10-29T19:35:28:543
-8,575876	-2,136791	3,464807	2020-10-29T19:35:28:568
-8,580662	-1,966900	3,644269	2020-10-29T19:35:28:583
-8,934800	-1,698904	3,558127	2020-10-29T19:35:28:608
-9,190832	-1,540978	3,438486	2020-10-29T19:35:28:624
-9,348758	-1,337588	3,385844	2020-10-29T19:35:28:647
-9,233903	-1,229911	3,342773	2020-10-29T19:35:28:663
-9,008978	-1,201197	3,337988	2020-10-29T19:35:28:687
-8,906086	-1,507478	3,237489	2020-10-29T19:35:28:704
-8,886944	-1,780260	3,254239	2020-10-29T19:35:28:728
-9,083155	-2,057827	3,211168	2020-10-29T19:35:28:744
-9,286544	-2,110470	3,010171	2020-10-29T19:35:28:767
-9,681360	-2,076970	2,780460	2020-10-29T19:35:28:784
-9,434900	-1,921437	2,409572	2020-10-29T19:35:28:808
-10,078569	-1,852045	1,067199	2020-10-29T19:35:28:824
-13,284950	-2,282753	1,679761	2020-10-29T19:35:28:848
-14,447863	-2,426322	2,108077	2020-10-29T19:35:28:864
-12,095718	-2,593820	1,646262	2020-10-29T19:35:28:887
-11,413764	-2,577070	1,840081	2020-10-29T19:35:28:904
-10,214959	-2,469393	1,406980	2020-10-29T19:35:28:928
-8,556733	-2,385644	0,756132	2020-10-29T19:35:28:944
-7,980063	-2,483750	0,725025	2020-10-29T19:35:28:968
-8,494520	-1,938186	0,354138	2020-10-29T19:35:28:984
-8,760124	-1,339981	-0,066999	2020-10-29T19:35:29:007
-8,544770	-0,928415	-0,265603	2020-10-29T19:35:29:024
-8,106883	-1,940579	-1,024128	2020-10-29T19:35:29:048
-8,729016	-2,110470	-1,325624	2020-10-29T19:35:29:063
-9,643075	-2,002793	-1,954936	2020-10-29T19:35:29:123
-10,083356	-1,533799	-2,589034	2020-10-29T19:35:29:124
-10,052249	-1,741975	-3,139383	2020-10-29T19:35:29:128
-10,088140	-2,021935	-3,404987	2020-10-29T19:35:29:145
-9,793823	-2,256432	-3,357130	2020-10-29T19:35:29:168
-9,288938	-2,641676	-3,002992	2020-10-29T19:35:29:184
-8,980263	-3,005385	-2,266003	2020-10-29T19:35:29:208
-8,583055	-2,974278	-1,933401	2020-10-29T19:35:29:224
-8,630912	-2,742175	-2,151148	2020-10-29T19:35:29:247
-8,987441	-2,222932	-2,277967	2020-10-29T19:35:29:264
-9,123833	-2,084148	-2,309074	2020-10-29T19:35:29:288
-9,324830	-2,167897	-2,361716	2020-10-29T19:35:29:304
-9,793823	-2,550749	-2,132005	2020-10-29T19:35:29:327
-10,057034	-2,900101	-1,945365	2020-10-29T19:35:29:344
-9,968499	-3,127419	-1,765903	2020-10-29T19:35:29:369
-9,994821	-3,450450	-1,050449	2020-10-29T19:35:29:384
-10,033106	-3,833302	0,141177	2020-10-29T19:35:29:408
-9,841680	-3,742374	0,071785	2020-10-29T19:35:29:425
-9,662218	-3,038885	-0,440279	2020-10-29T19:35:29:449
-9,446864	-2,280360	-0,454636	2020-10-29T19:35:29:465
-9,425328	-2,033899	0,066999	2020-10-29T19:35:29:487
-9,693325	-1,866402	1,100698	2020-10-29T19:35:29:505
-9,927821	-1,502693	1,665405	2020-10-29T19:35:29:529
-9,611969	-0,969093	1,545763	2020-10-29T19:35:29:544
-9,748360	-0,143569	0,768096	2020-10-29T19:35:29:568
-11,265409	0,064606	0,442672	2020-10-29T19:35:29:584
-12,674782	-0,607777	0,713061	2020-10-29T19:35:29:608
-11,339586	-1,686940	0,653241	2020-10-29T19:35:29:625
-9,092726	-2,411965	1,002593	2020-10-29T19:35:29:648
-8,037491	-2,730211	1,272982	2020-10-29T19:35:29:664
-7,968100	-2,684747	1,098306	2020-10-29T19:35:29:688
-8,169096	-2,486143	0,339781	2020-10-29T19:35:29:705
-8,810372	-2,330609	-0,172283	2020-10-29T19:35:29:729
-10,045070	-2,622534	-0,236889	2020-10-29T19:35:29:745
-11,483156	-3,158526	-0,112463	2020-10-29T19:35:29:768
-12,055040	-3,622734	-0,284746	2020-10-29T19:35:29:785
-11,827723	-3,842873	-0,744168	2020-10-29T19:35:29:809
-11,763116	-3,565305	-0,937986	2020-10-29T19:35:29:825
-11,624333	-2,627320	-0,964308	2020-10-29T19:35:29:849
-10,755738	-1,873580	-0,813560	2020-10-29T19:35:29:865
-9,781858	-1,581656	-0,583849	2020-10-29T19:35:29:889
-9,176475	-1,655833	-0,483350	2020-10-29T19:35:29:905
-8,630912	-2,088934	-0,516850	2020-10-29T19:35:29:929
-8,477771	-2,127219	-0,495314	2020-10-29T19:35:29:945
-8,506484	-2,069792	-0,205783	2020-10-29T19:35:29:968
-8,207381	-2,048256	-0,069392	2020-10-29T19:35:29:985
-7,750352	-2,079363	-0,234497	2020-10-29T19:35:30:010
-7,544570	-1,512264	-0,497707	2020-10-29T19:35:30:025
-7,836494	-1,371087	-0,028714	2020-10-29T19:35:30:048
-8,221739	-2,069792	0,576670	2020-10-29T19:35:30:065
-8,575876	-2,763710	0,940379	2020-10-29T19:35:30:089
-8,642875	-3,299703	1,390230	2020-10-29T19:35:30:105
-8,547162	-3,019742	1,610370	2020-10-29T19:35:30:129
-8,520842	-2,672783	1,691726	2020-10-29T19:35:30:145
-8,800802	-2,787638	1,832902	2020-10-29T19:35:30:169
-9,410972	-3,110669	1,756332	2020-10-29T19:35:30:185
-9,736395	-3,326023	1,864009	2020-10-29T19:35:30:208
-10,045070	-3,081956	0,952343	2020-10-29T19:35:30:225
-11,705689	-2,971886	0,380459	2020-10-29T19:35:30:250
-13,646267	-3,041277	1,189233	2020-10-29T19:35:30:265
-12,064612	-3,170490	1,086342	2020-10-29T19:35:30:288
-10,619347	-3,297310	0,906880	2020-10-29T19:35:30:305
-11,047661	-3,476771	1,100698	2020-10-29T19:35:30:329
-11,198411	-3,168097	1,067199	2020-10-29T19:35:30:345
-10,573883	-3,182454	1,268196	2020-10-29T19:35:30:369
-9,568897	-2,852244	1,040878	2020-10-29T19:35:30:385
-8,386844	-2,143969	0,722632	2020-10-29T19:35:30:409
-7,389036	-0,717847	-0,473779	2020-10-29T19:35:30:426
-7,446464	-0,557528	-0,969093	2020-10-29T19:35:30:448
-8,346166	-1,562513	-1,217947	2020-10-29T19:35:30:466
-8,944371	-2,316252	-1,646262	2020-10-29T19:35:30:489
-9,623933	-2,517249	-2,134398	2020-10-29T19:35:30:506
-10,387242	-2,562713	-2,474179	2020-10-29T19:35:30:529
-10,834702	-2,677568	-3,000600	2020-10-29T19:35:30:546
-10,332209	-2,967100	-3,182454	2020-10-29T19:35:30:569
-9,647861	-3,084348	-3,048456	2020-10-29T19:35:30:587
-9,233903	-3,120241	-2,833102	2020-10-29T19:35:30:609
-8,987441	-2,667997	-2,555535	2020-10-29T19:35:30:626
-9,047262	-2,510071	-2,151148	2020-10-29T19:35:30:649
-8,908479	-2,565106	-2,132005	2020-10-29T19:35:30:666
-9,116654	-2,474179	-2,194218	2020-10-29T19:35:30:688
-9,468399	-2,342573	-2,201397	2020-10-29T19:35:30:706
-9,853643	-2,541178	-2,309074	2020-10-29T19:35:30:729
-10,183852	-2,799603	-2,428715	2020-10-29T19:35:30:746
-10,212566	-2,739782	-2,467000	2020-10-29T19:35:30:768
-10,128819	-2,878566	-2,622534	2020-10-29T19:35:30:786
-10,444671	-2,852244	-2,490928	2020-10-29T19:35:30:810
-10,545169	-2,651247	-2,258825	2020-10-29T19:35:30:826
-10,389636	-2,414358	-2,127219	2020-10-29T19:35:30:849
-10,358529	-2,136791	-1,938186	2020-10-29T19:35:30:866
-10,588240	-2,148755	-1,758725	2020-10-29T19:35:30:889
-10,554741	-2,263610	-1,672583	2020-10-29T19:35:30:906
-10,470992	-2,187040	-1,780260	2020-10-29T19:35:30:929
-10,772489	-2,120041	-1,830509	2020-10-29T19:35:30:945
-11,114661	-2,112862	-1,406980	2020-10-29T19:35:30:969
-10,770095	-2,421536	-0,880559	2020-10-29T19:35:30:986
-10,286745	-2,529213	-0,303888	2020-10-29T19:35:31:009
-9,741181	-2,622534	1,067199	2020-10-29T19:35:31:026
-9,332008	-2,617748	1,418944	2020-10-29T19:35:31:050
-9,047262	-2,397608	1,361516	2020-10-29T19:35:31:066
-9,552148	-2,325824	0,478565	2020-10-29T19:35:31:091
-9,566505	-2,904887	-0,646062	2020-10-29T19:35:31:106
-8,970692	-2,373680	-0,665205	2020-10-29T19:35:31:130
-7,877172	-1,129412	-0,629312	2020-10-29T19:35:31:146
-7,259824	0,098106	-1,103091	2020-10-29T19:35:31:169
-7,592427	0,454636	-0,086142	2020-10-29T19:35:31:186
-8,319844	-0,227318	0,808774	2020-10-29T19:35:31:211
-8,729016	-0,988236	1,117448	2020-10-29T19:35:31:226
-8,539984	-0,835095	0,756132	2020-10-29T19:35:31:249
-8,353344	-0,665205	0,236889	2020-10-29T19:35:31:266
-8,288737	-0,524028	-0,167498	2020-10-29T19:35:31:291
-8,087741	-0,689133	-0,744168	2020-10-29T19:35:31:306
-8,537591	-0,914058	-0,890130	2020-10-29T19:35:31:330
-9,461221	-1,708475	-1,328017	2020-10-29T19:35:31:345
-10,430314	-2,902494	-0,926022	2020-10-29T19:35:31:369
-10,234102	-4,505685	-0,887737	2020-10-29T19:35:31:386
-10,049855	-4,328616	-0,713061	2020-10-29T19:35:31:410
-10,437491	-4,486543	-0,885344	2020-10-29T19:35:31:427
-10,770095	-4,587041	-0,349352	2020-10-29T19:35:31:450
-9,810574	-4,304688	-0,634098	2020-10-29T19:35:31:466
-9,226725	-3,163311	-0,882952	2020-10-29T19:35:31:489
-9,772287	-2,318645	-0,440279	2020-10-29T19:35:31:506
-10,344172	-1,916651	0,098106	2020-10-29T19:35:31:530
-10,384850	-2,694318	0,641276	2020-10-29T19:35:31:546
-10,518847	-3,605984	0,509671	2020-10-29T19:35:31:570
-10,966305	-3,584448	0,275175	2020-10-29T19:35:31:586
-11,330014	-2,005185	-0,160319	2020-10-29T19:35:31:610
-10,932807	-1,414158	-0,270389	2020-10-29T19:35:31:627
-10,104890	-2,124826	-0,074178	2020-10-29T19:35:31:649
-9,420543	-1,885544	-0,198604	2020-10-29T19:35:31:666
-8,317451	-0,086142	-1,423729	2020-10-29T19:35:31:690
-8,472985	-1,347159	-0,212961	2020-10-29T19:35:31:707
-9,540184	-3,416951	2,268396	2020-10-29T19:35:31:729
-10,095319	-3,684947	1,069592	2020-10-29T19:35:31:746
-10,420743	-2,553142	0,705883	2020-10-29T19:35:31:771
-10,344172	-1,641476	0,356531	2020-10-29T19:35:31:787
-10,727024	-0,483350	0,641276	2020-10-29T19:35:31:811
-11,387443	-0,923629	0,885344	2020-10-29T19:35:31:827
-11,930614	-3,043670	2,904887	2020-10-29T19:35:31:851
-10,810772	-4,003192	3,818945	2020-10-29T19:35:31:866
-9,647861	-2,897708	1,698904	2020-10-29T19:35:31:889
-10,035499	-4,505685	2,084148	2020-10-29T19:35:31:907
-9,466006	-3,280560	-0,086142	2020-10-29T19:35:31:931
-9,793823	-2,132005	0,066999	2020-10-29T19:35:31:946
-9,131011	-2,555535	0,241675	2020-10-29T19:35:31:969
-8,937192	-1,811367	0,148355	2020-10-29T19:35:31:987
-8,370094	-1,538585	-0,038285	2020-10-29T19:35:32:011
-8,118847	-2,184647	-0,272782	2020-10-29T19:35:32:027
-7,989635	-2,074577	-0,428315	2020-10-29T19:35:32:051
-7,740781	-1,916651	-0,696311	2020-10-29T19:35:32:067
-7,731210	-2,105684	-0,981057	2020-10-29T19:35:32:091
-8,982656	-2,902494	-1,009771	2020-10-29T19:35:32:107
-10,037891	-4,859823	-1,318445	2020-10-29T19:35:32:129
-9,978070	-5,161318	-1,598405	2020-10-29T19:35:32:147
-9,221939	-4,615755	-1,612763	2020-10-29T19:35:32:171
-8,571091	-3,986443	-1,222732	2020-10-29T19:35:32:187
-8,303094	-3,005385	-1,469193	2020-10-29T19:35:32:211
-8,896514	-3,163311	-0,471386	2020-10-29T19:35:32:227
-9,449257	-2,419144	0,160319	2020-10-29T19:35:32:251
-9,915856	-1,617548	-0,069392	2020-10-29T19:35:32:267
-10,856236	-1,928615	-0,643669	2020-10-29T19:35:32:291
-11,873186	-3,333202	-0,040678	2020-10-29T19:35:32:307
-12,055040	-3,833302	0,425922	2020-10-29T19:35:32:331
-12,277573	-2,397608	0,552742	2020-10-29T19:35:32:347
-11,660224	-1,658226	0,736989	2020-10-29T19:35:32:370
-11,976077	-0,586242	3,220739	2020-10-29T19:35:32:387
-11,215159	0,595813	5,328816	2020-10-29T19:35:32:411
-9,949356	-0,150748	4,273581	2020-10-29T19:35:32:427
-10,310673	-1,476372	2,799603	2020-10-29T19:35:32:450
-9,193225	-2,553142	1,454836	2020-10-29T19:35:32:467
-8,681160	-2,050649	0,382852	2020-10-29T19:35:32:491
-8,350951	-0,911665	-1,048056	2020-10-29T19:35:32:508
-8,102098	-0,574277	-1,019342	2020-10-29T19:35:32:532
-8,353344	0,004786	-0,449851	2020-10-29T19:35:32:547
-8,561519	-0,193819	0,198604	2020-10-29T19:35:32:571
-8,516055	-0,485743	0,605384	2020-10-29T19:35:32:587
-8,475377	-1,098306	0,847059	2020-10-29T19:35:32:610
-8,707481	-2,455036	1,610370	2020-10-29T19:35:32:628
-8,628519	-3,562913	1,134198	2020-10-29T19:35:32:651
-8,446664	-3,077170	0,662812	2020-10-29T19:35:32:667
-8,341379	-2,275574	-0,107677	2020-10-29T19:35:32:690
-8,547162	-1,433301	-0,813560	2020-10-29T19:35:32:708
-8,922836	-1,569692	-1,268196	2020-10-29T19:35:32:731
-9,425328	-2,586641	-1,122234	2020-10-29T19:35:32:749
-9,901501	-3,730411	-1,320838	2020-10-29T19:35:32:771
-9,652647	-3,830909	-1,835295	2020-10-29T19:35:32:787
-9,332008	-3,141776	-1,241875	2020-10-29T19:35:32:812
-9,576077	-2,455036	-0,796810	2020-10-29T19:35:32:828
-9,781858	-2,404787	-0,354138	2020-10-29T19:35:32:852
-10,054641	-2,297110	-0,222532	2020-10-29T19:35:32:868
-11,114661	-1,971686	-0,100499	2020-10-29T19:35:32:892
-12,052648	-1,899901	0,102891	2020-10-29T19:35:32:908
-11,672189	-2,215754	1,363909	2020-10-29T19:35:32:931
-12,744174	-0,117248	3,586841	2020-10-29T19:35:32:948
-12,519248	0,545564	4,220939	2020-10-29T19:35:32:971
-11,231910	3,081956	3,641876	2020-10-29T19:35:32:988
-8,834301	-0,196211	2,505285	2020-10-29T19:35:33:013
-8,695518	-1,447658	1,686940	2020-10-29T19:35:33:028
-10,109675	-2,127219	0,399601	2020-10-29T19:35:33:051
-11,145767	-3,716053	0,796810	2020-10-29T19:35:33:069
-11,971292	-1,751546	-0,669990	2020-10-29T19:35:33:090
-10,971091	-1,593620	-1,646262	2020-10-29T19:35:33:108
-10,226924	-2,179861	-1,292124	2020-10-29T19:35:33:131
-9,671788	-3,192025	-0,949951	2020-10-29T19:35:33:147
-8,685946	-3,330809	-0,746561	2020-10-29T19:35:33:171
-8,023134	-2,438286	-0,722632	2020-10-29T19:35:33:188
-8,415558	-1,763510	-0,658026	2020-10-29T19:35:33:212
-10,837094	-2,108077	-0,105284	2020-10-29T19:35:33:228
-11,947363	-2,737389	-0,361316	2020-10-29T19:35:33:251
-12,356536	-2,991028	-0,622134	2020-10-29T19:35:33:268
-12,495319	-3,129812	-0,981057	2020-10-29T19:35:33:292
-12,090932	-3,287738	-1,014557	2020-10-29T19:35:33:308
-10,908878	-3,151347	-0,777667	2020-10-29T19:35:33:331
-9,556933	-2,268396	-0,397209	2020-10-29T19:35:33:348
-8,889337	-1,435694	-0,004786	2020-10-29T19:35:33:372
-8,702696	-1,136591	0,308674	2020-10-29T19:35:33:388
-9,049655	-1,330409	0,258425	2020-10-29T19:35:33:411
-9,312866	-1,368695	-0,145962	2020-10-29T19:35:33:428
-9,367901	-1,280160	-0,614955	2020-10-29T19:35:33:451
-9,312866	-1,316052	-1,033699	2020-10-29T19:35:33:468
-9,384650	-1,330409	-1,021735	2020-10-29T19:35:33:492
-9,332008	-1,342373	-0,868595	2020-10-29T19:35:33:508
-9,099905	-1,225125	-0,949951	2020-10-29T19:35:33:533
-8,690732	-1,234696	-1,115055	2020-10-29T19:35:33:548
-8,248059	-1,371087	-0,363709	2020-10-29T19:35:33:571
-7,530212	-1,718047	0,878166	2020-10-29T19:35:33:588
-6,587440	-1,751546	1,495514	2020-10-29T19:35:33:612
-5,761917	-1,658226	1,852045	2020-10-29T19:35:33:628
-5,618347	-1,323231	2,153540	2020-10-29T19:35:33:652
-6,393622	-0,969093	2,368894	2020-10-29T19:35:33:668
-7,645068	-0,787239	2,172683	2020-10-29T19:35:33:692
-9,047262	-0,866202	1,741975	2020-10-29T19:35:33:715
-10,176675	-1,253839	1,237089	2020-10-29T19:35:33:734
-11,136196	-1,849652	0,667598	2020-10-29T19:35:33:748
-11,839686	-2,821138	0,349352	2020-10-29T19:35:33:772
-11,990433	-4,342973	0,189033	2020-10-29T19:35:33:788
-12,055040	-5,793024	0,653241	2020-10-29T19:35:33:813
-11,858829	-5,934200	0,911665	2020-10-29T19:35:33:829
-11,385050	-3,505485	-0,055035	2020-10-29T19:35:33:853
-12,069397	-1,136591	-1,093520	2020-10-29T19:35:33:868
-13,931013	-0,495314	-1,069592	2020-10-29T19:35:33:891
-14,325829	-0,818345	-1,435694	2020-10-29T19:35:33:911
-13,316057	-2,656033	-1,825724	2020-10-29T19:35:33:933
-12,524034	-3,419343	-1,411765	2020-10-29T19:35:33:948
-10,686346	-3,816552	-1,033699	2020-10-29T19:35:33:973
-8,635696	-4,103691	-0,253639	2020-10-29T19:35:33:988
-6,513263	-4,208975	-0,222532	2020-10-29T19:35:34:013
-5,087141	-4,240082	-0,145962	2020-10-29T19:35:34:029
-4,699504	-4,493721	-0,378066	2020-10-29T19:35:34:052
-5,726025	-4,883751	-0,485743	2020-10-29T19:35:34:069
-7,932207	-5,508278	-0,284746	2020-10-29T19:35:34:093
-9,731609	-6,084948	-0,122034	2020-10-29T19:35:34:109
-10,150353	-6,391229	-0,385244	2020-10-29T19:35:34:132
-10,057034	-6,295516	-0,674776	2020-10-29T19:35:34:149
-10,585848	-5,505885	-0,681954	2020-10-29T19:35:34:173
-11,078769	-4,685147	-0,564706	2020-10-29T19:35:34:189
-10,992627	-3,605984	-0,397209	2020-10-29T19:35:34:213
-10,813165	-2,490928	-0,421137	2020-10-29T19:35:34:229
-10,085747	-1,591227	-0,294317	2020-10-29T19:35:34:253
-9,693325	-0,928415	-0,373280	2020-10-29T19:35:34:269
-9,535398	-1,122234	-0,535992	2020-10-29T19:35:34:292
-9,523434	-1,531406	-0,660419	2020-10-29T19:35:34:309
-9,978070	-1,852045	-0,334995	2020-10-29T19:35:34:333
-10,856236	-0,215354	0,904487	2020-10-29T19:35:34:349
-10,286745	-2,634498	-0,327817	2020-10-29T19:35:34:372
-10,839487	0,169890	-0,519243	2020-10-29T19:35:34:389
-10,423136	0,933201	-0,583849	2020-10-29T19:35:34:414
-10,150353	1,332802	-0,545564	2020-10-29T19:35:34:430
-10,097712	0,734596	-0,081356	2020-10-29T19:35:34:453
-10,363315	-0,576670	0,059821	2020-10-29T19:35:34:469
-10,193424	-0,961915	-0,220140	2020-10-29T19:35:34:493
-9,911072	-1,392623	-0,650848	2020-10-29T19:35:34:509
-9,951750	-1,957329	-1,009771	2020-10-29T19:35:34:533
-10,279566	-2,830709	-1,237089	2020-10-29T19:35:34:549
-10,219746	-3,476771	-1,385444	2020-10-29T19:35:34:573
-10,011569	-3,486342	-1,698904	2020-10-29T19:35:34:589
-10,143176	-3,206382	-2,397608	2020-10-29T19:35:34:612
-11,126624	-3,117848	-2,285146	2020-10-29T19:35:34:629
-11,332408	-3,249453	-2,287539	2020-10-29T19:35:34:653
-10,841879	-3,125026	-2,110470	2020-10-29T19:35:34:669
-10,533205	-3,239882	-1,526621	2020-10-29T19:35:34:693
-9,836893	-3,017349	-0,715454	2020-10-29T19:35:34:709
-8,401200	-2,778067	-0,354138	2020-10-29T19:35:34:733
-7,747960	-2,385644	-0,284746	2020-10-29T19:35:34:749
-8,228917	-2,648855	-0,157926	2020-10-29T19:35:34:772
-8,932407	-2,971886	-0,074178	2020-10-29T19:35:34:789
-8,846266	-3,115455	-0,143569	2020-10-29T19:35:34:814
-8,307880	-3,041277	-0,279960	2020-10-29T19:35:34:829
-7,889136	-2,644069	-0,770489	2020-10-29T19:35:34:853
-8,267202	-2,277967	-1,361516	2020-10-29T19:35:34:870
-9,430114	-2,043471	-1,392623	2020-10-29T19:35:34:893
-10,801201	-2,038685	-1,306481	2020-10-29T19:35:34:910
-11,794223	-2,581856	-1,557728	2020-10-29T19:35:34:934
-12,306287	-2,624927	-1,730011	2020-10-29T19:35:34:949
-12,074183	-2,703890	-1,978864	2020-10-29T19:35:34:973
-11,688939	-2,732604	-1,849652	2020-10-29T19:35:34:990
-10,939985	-2,955136	-1,753939	2020-10-29T19:35:35:013
-9,839286	-2,720639	-1,466800	2020-10-29T19:35:35:030
-8,841480	-2,258825	-1,198804	2020-10-29T19:35:35:053
-8,221739	-2,000400	-0,969093	2020-10-29T19:35:35:069
-7,977671	-1,696511	-0,818345	2020-10-29T19:35:35:094
-8,140383	-1,768296	-0,808774	2020-10-29T19:35:35:110
-8,178668	-1,773082	-1,098306	2020-10-29T19:35:35:134
-8,329416	-1,832902	-1,421337	2020-10-29T19:35:35:150
-8,846266	-2,076970	-1,574477	2020-10-29T19:35:35:174
-9,585647	-2,612962	-1,406980	2020-10-29T19:35:35:189
-9,793823	-3,536592	-0,792024	2020-10-29T19:35:35:214
-9,097511	-4,039084	-0,875773	2020-10-29T19:35:35:230
-8,968300	-3,938586	-0,830309	2020-10-29T19:35:35:254
-8,779266	-3,160919	-0,911665	2020-10-29T19:35:35:270
-8,504091	-3,034099	-0,892523	2020-10-29T19:35:35:294
-8,513663	-2,974278	-0,684347	2020-10-29T19:35:35:310
-8,810372	-3,151347	-0,648455	2020-10-29T19:35:35:333
-8,831908	-3,136991	-0,808774	2020-10-29T19:35:35:350
-8,760124	-3,072384	-0,851845	2020-10-29T19:35:35:374
-8,767302	-2,825923	-0,756132	2020-10-29T19:35:35:390
-9,200402	-2,622534	-0,622134	2020-10-29T19:35:35:415
-9,774680	-2,443072	-0,677169	2020-10-29T19:35:35:430
-10,748559	-2,318645	-0,165105	2020-10-29T19:35:35:454
-12,631711	-2,086541	1,076770	2020-10-29T19:35:35:470
-13,849657	-1,454836	2,141576	2020-10-29T19:35:35:493
-13,473984	-2,610569	2,730211	2020-10-29T19:35:35:510
-12,442677	-5,190032	2,368894	2020-10-29T19:35:35:535
-11,377872	-6,805188	1,426122	2020-10-29T19:35:35:550
-9,253045	-5,417351	-0,205783	2020-10-29T19:35:35:573
-7,805387	-3,627519	-1,021735	2020-10-29T19:35:35:590
-7,381857	-3,060420	-1,261017	2020-10-29T19:35:35:614
-7,276574	-3,333202	-1,162912	2020-10-29T19:35:35:631
-7,089933	-3,220739	-1,325624	2020-10-29T19:35:35:654
-7,501499	-2,545963	-1,770689	2020-10-29T19:35:35:670
-8,776874	-1,823331	-2,388037	2020-10-29T19:35:35:694
-10,092925	-1,981257	-2,684747	2020-10-29T19:35:35:711
-10,734202	-2,261217	-2,959922	2020-10-29T19:35:35:733
-10,746166	-2,864209	-3,177669	2020-10-29T19:35:35:751
-10,533205	-3,163311	-3,086741	2020-10-29T19:35:35:775
-10,502099	-3,536592	-2,658426	2020-10-29T19:35:35:791
-9,927821	-3,302095	-2,072184	2020-10-29T19:35:35:814
-9,080762	-2,840281	-1,782653	2020-10-29T19:35:35:830
-8,382057	-2,282753	-1,679761	2020-10-29T19:35:35:854
-7,884350	-1,823331	-1,552942	2020-10-29T19:35:35:871
-7,889136	-1,691726	-1,500300	2020-10-29T19:35:35:894
-7,989635	-1,785046	-1,689333	2020-10-29T19:35:35:911
-8,011170	-1,847259	-1,706082	2020-10-29T19:35:35:935
-7,920243	-2,026721	-1,323231	2020-10-29T19:35:35:951
-7,791030	-2,191825	-1,184447	2020-10-29T19:35:35:973
-7,678568	-2,012364	-0,717847	2020-10-29T19:35:35:991
-7,578069	-2,143969	0,090927	2020-10-29T19:35:36:015
-7,556533	-2,067399	1,397408	2020-10-29T19:35:36:031
-7,774280	-2,136791	2,811567	2020-10-29T19:35:36:053
-8,525627	-2,598605	3,694518	2020-10-29T19:35:36:071
-9,552148	-3,113062	4,156333	2020-10-29T19:35:36:094
-11,351551	-9,257831	7,164111	2020-10-29T19:35:36:111
-12,954741	-14,344972	6,561120	2020-10-29T19:35:36:135
-10,679168	-7,111469	5,218746	2020-10-29T19:35:36:151
-9,157332	-1,744368	4,039084	2020-10-29T19:35:36:174
-8,563912	-1,703690	2,782853	2020-10-29T19:35:36:191
-9,549755	-2,964707	1,579263	2020-10-29T19:35:36:215
-12,782458	-4,065405	1,060020	2020-10-29T19:35:36:231
-14,574683	-3,931407	0,878166	2020-10-29T19:35:36:255
-12,416357	-2,632105	0,177069	2020-10-29T19:35:36:271
-10,147961	-2,182254	-0,708275	2020-10-29T19:35:36:295
-9,542577	-2,316252	-1,155733	2020-10-29T19:35:36:311
-10,181459	-2,991028	-1,103091	2020-10-29T19:35:36:335
-10,901700	-3,069991	-0,710668	2020-10-29T19:35:36:351
-10,626525	-2,478964	-0,545564	2020-10-29T19:35:36:375
-9,712467	-2,275574	-0,547956	2020-10-29T19:35:36:391
-8,767302	-2,352145	-0,447458	2020-10-29T19:35:36:415
-7,879565	-2,215754	-0,562313	2020-10-29T19:35:36:431
-7,499106	-1,854438	-0,713061	2020-10-29T19:35:36:454
-7,719246	-1,464408	-0,976272	2020-10-29T19:35:36:471
-8,678767	-1,328017	-1,165305	2020-10-29T19:35:36:495
-9,214760	-2,086541	-1,514657	2020-10-29T19:35:36:511
-8,953942	-2,684747	-1,574477	2020-10-29T19:35:36:535
-8,666803	-3,436093	-1,801795	2020-10-29T19:35:36:551
-8,874979	-4,055835	-2,096112	2020-10-29T19:35:36:575
-8,788837	-4,522435	-2,294717	2020-10-29T19:35:36:591
-8,487342	-4,579862	-2,309074	2020-10-29T19:35:36:615
-7,999206	-4,599005	-2,151148	2020-10-29T19:35:36:631
-7,508677	-4,302295	-2,500499	2020-10-29T19:35:36:655
-7,329216	-4,400401	-1,406980	2020-10-29T19:35:36:671
-7,159326	-4,445865	-0,200997	2020-10-29T19:35:36:694
-6,790830	-4,517649	-0,002393	2020-10-29T19:35:36:712
-5,929415	-4,388437	-0,445065	2020-10-29T19:35:36:735
-5,211568	-3,684947	0,392423	2020-10-29T19:35:36:751
-5,046463	-3,572484	1,351945	2020-10-29T19:35:36:774
-5,771489	-2,754139	2,143969	2020-10-29T19:35:36:791
-6,453443	-2,273181	1,672583	2020-10-29T19:35:36:815
-7,037291	-1,801795	1,564906	2020-10-29T19:35:36:833
-7,601997	-2,653640	2,720639	2020-10-29T19:35:36:856
-7,369894	-3,024528	2,904887	2020-10-29T19:35:36:871
-5,958128	-2,756532	1,950150	2020-10-29T19:35:36:895
-4,723432	-3,053242	0,502493	2020-10-29T19:35:36:912
-4,579862	-4,070191	0,404387	2020-10-29T19:35:36:934
-5,812167	-4,393222	0,784846	2020-10-29T19:35:36:952
-7,211967	-3,912265	-0,253639	2020-10-29T19:35:36:975
-8,319844	-3,223132	-1,091127	2020-10-29T19:35:36:992
-9,219545	-2,531606	-1,945365	2020-10-29T19:35:37:015
-10,080962	-2,153540	-3,510271	2020-10-29T19:35:37:032
-10,454242	-2,036292	-3,457629	2020-10-29T19:35:37:056
-10,727024	-0,492921	-2,474179	2020-10-29T19:35:37:072
-11,181661	3,105884	-1,301696	2020-10-29T19:35:37:096
-12,492928	6,199803	-5,441278	2020-10-29T19:35:37:112
-15,507884	-5,970093	-9,571291	2020-10-29T19:35:37:136
-20,599810	-9,638289	-4,127619	2020-10-29T19:35:37:152
-16,594225	-1,773082	-6,881758	2020-10-29T19:35:37:174
-15,278172	-1,780260	-4,843073	2020-10-29T19:35:37:192
-14,823536	-5,888737	-7,436893	2020-10-29T19:35:37:217
-12,598210	-4,077370	-8,248059	2020-10-29T19:35:37:232
-11,167303	-2,718246	-4,699504	2020-10-29T19:35:37:256
-8,910872	-5,032106	-2,146362	2020-10-29T19:35:37:272
-8,283953	-4,989035	-0,689133	2020-10-29T19:35:37:295
-8,597411	-3,369094	-0,071785	2020-10-29T19:35:37:312
-9,633504	-2,770889	-0,122034	2020-10-29T19:35:37:336
-10,080962	-3,629912	-0,490529	2020-10-29T19:35:37:352
-9,669396	-3,792624	-1,246661	2020-10-29T19:35:37:376
-9,410972	-3,558127	-2,842674	2020-10-29T19:35:37:392
-9,032906	-3,168097	-3,433701	2020-10-29T19:35:37:415
-8,834301	-3,512664	-2,440679	2020-10-29T19:35:37:432
-8,159525	-3,314059	-2,017149	2020-10-29T19:35:37:456
-7,659425	-1,856830	-3,239882	2020-10-29T19:35:37:472
-8,568698	-2,208575	-2,766103	2020-10-29T19:35:37:495
-9,193225	-2,151148	-1,837688	2020-10-29T19:35:37:512
-8,920443	-1,840081	-3,297310	2020-10-29T19:35:37:536
-9,753145	-2,835495	-3,945765	2020-10-29T19:35:37:552
-9,951750	-2,172683	-3,393023	2020-10-29T19:35:37:577
-9,803394	-2,148755	-4,017549	2020-10-29T19:35:37:592
-9,669396	-1,234696	-4,642076	2020-10-29T19:35:37:616
-8,927622	-2,210968	-3,318845	2020-10-29T19:35:37:632
-9,212367	-3,431308	-1,887937	2020-10-29T19:35:37:655
-9,274581	-2,060220	-3,352344	2020-10-29T19:35:37:672
-8,961121	-1,500300	-4,601398	2020-10-29T19:35:37:696
-9,358330	-3,247060	-2,610569	2020-10-29T19:35:37:712
-9,798609	-2,388037	-3,048456	2020-10-29T19:35:37:735
-8,839087	-0,969093	-5,661418	2020-10-29T19:35:37:752
-7,250252	-0,701097	-6,424729	2020-10-29T19:35:37:776
-8,329416	-4,017549	-0,392423	2020-10-29T19:35:37:792
-9,741181	-3,134598	-1,351945	2020-10-29T19:35:37:816
-9,370294	-2,210968	-3,072384	2020-10-29T19:35:37:832
-9,360723	-2,500499	-3,048456	2020-10-29T19:35:37:857
-9,004191	-3,273381	-0,947558	2020-10-29T19:35:37:872
-8,638089	-5,067998	1,548156	2020-10-29T19:35:37:895
-7,185646	-4,591826	13,873586	2020-10-29T19:35:37:913
-4,886144	-8,975478	5,546563	2020-10-29T19:35:37:936
-13,186846	0,428315	-9,738789	2020-10-29T19:35:37:952
-14,254045	4,029513	-5,816952	2020-10-29T19:35:37:976
-6,862615	-5,297709	-1,318445	2020-10-29T19:35:37:993
-9,707682	-7,570890	-0,933201	2020-10-29T19:35:38:017
-11,710474	2,433501	-4,733003	2020-10-29T19:35:38:033
-12,246466	-3,369094	-3,249453	2020-10-29T19:35:38:056
-13,923835	-3,850052	0,622134	2020-10-29T19:35:38:072
-13,335200	-3,397808	2,758924	2020-10-29T19:35:38:097
-12,885350	-3,828516	3,737589	2020-10-29T19:35:38:113
-11,803794	-4,278367	4,677969	2020-10-29T19:35:38:139
-10,851451	-5,546563	4,977071	2020-10-29T19:35:38:153
-11,126624	-6,439085	7,192825	2020-10-29T19:35:38:176
-11,361122	-6,087341	8,176274	2020-10-29T19:35:38:193
-11,806188	-5,848059	8,518449	2020-10-29T19:35:38:216
-11,937792	-5,967700	5,934200	2020-10-29T19:35:38:233
-10,779665	-7,334002	0,385244	2020-10-29T19:35:38:256
-10,537991	0,392423	4,792823	2020-10-29T19:35:38:273
-10,186246	2,833102	6,250053	2020-10-29T19:35:38:297
-10,234102	1,328017	3,292524	2020-10-29T19:35:38:313
-9,162118	-0,217747	2,971886	2020-10-29T19:35:38:337
-7,293324	-0,921237	3,634698	2020-10-29T19:35:38:353
-7,549356	-3,529413	4,572684	2020-10-29T19:35:38:377
-9,138189	-4,888536	5,044070	2020-10-29T19:35:38:393
-8,958728	-4,098906	4,264010	2020-10-29T19:35:38:417
-6,893722	-2,624927	3,452843	2020-10-29T19:35:38:433
-5,170890	-1,818545	3,055635	2020-10-29T19:35:38:456
-4,374080	-1,749153	1,701297	2020-10-29T19:35:38:473
-3,778267	-2,093720	0,978664	2020-10-29T19:35:38:497
-2,816352	-1,998007	0,677169	2020-10-29T19:35:38:514
-1,976472	-1,983650	0,626920	2020-10-29T19:35:38:538
-2,550749	-3,464807	0,220140	2020-10-29T19:35:38:553
-3,359523	-6,723832	0,038285	2020-10-29T19:35:38:577
-3,086741	-9,310472	0,279960	2020-10-29T19:35:38:593
-2,383251	-11,231910	0,744168	2020-10-29T19:35:38:616
-1,548156	-12,076575	0,236889	2020-10-29T19:35:38:635
-0,892523	-13,596018	1,904687	2020-10-29T19:35:38:658
-2,395216	-20,281565	2,254039	2020-10-29T19:35:38:673
-0,047856	-8,650054	2,277967	2020-10-29T19:35:38:697
1,500300	-3,390630	3,072384	2020-10-29T19:35:38:713
1,098306	-7,441679	3,637090	2020-10-29T19:35:38:737
0,167498	-11,921042	4,309474	2020-10-29T19:35:38:753
0,969093	-11,842079	5,206782	2020-10-29T19:35:38:777
1,785046	-9,844072	5,907879	2020-10-29T19:35:38:793
0,318245	-9,379865	6,733403	2020-10-29T19:35:38:817
-0,830309	-8,260024	8,884550	2020-10-29T19:35:38:833
-1,076770	-13,060026	12,626925	2020-10-29T19:35:38:857
-0,368495	-10,930414	11,988041	2020-10-29T19:35:38:873
-0,923629	-3,775874	12,490535	2020-10-29T19:35:38:897
-3,139383	-1,648655	12,035898	2020-10-29T19:35:38:913
-4,153940	-3,043670	11,169697	2020-10-29T19:35:38:937
-4,228118	-2,419144	10,392029	2020-10-29T19:35:38:953
-4,709075	-0,973879	9,135797	2020-10-29T19:35:38:977
-5,520242	-0,028714	8,343772	2020-10-29T19:35:38:994
-5,958128	-0,610170	8,123632	2020-10-29T19:35:39:017
-6,032306	-2,715853	8,039884	2020-10-29T19:35:39:033
-5,984450	-4,005585	8,154739	2020-10-29T19:35:39:057
-6,063413	-3,988836	7,975278	2020-10-29T19:35:39:073
-5,843273	-3,141776	7,743174	2020-10-29T19:35:39:099
-5,508278	-2,986243	7,360322	2020-10-29T19:35:39:114
-5,522634	-3,361916	7,142576	2020-10-29T19:35:39:138
-5,692525	-3,067599	7,549356	2020-10-29T19:35:39:153
-5,185246	-3,591627	7,094719	2020-10-29T19:35:39:178
-5,259424	-3,878766	7,113862	2020-10-29T19:35:39:193
-5,180461	-2,861816	7,056434	2020-10-29T19:35:39:219
-5,240282	-2,457429	7,219146	2020-10-29T19:35:39:234
-5,199604	-2,658426	7,219146	2020-10-29T19:35:39:258
-5,161318	-3,017349	7,168896	2020-10-29T19:35:39:273
-5,352744	-3,280560	7,003791	2020-10-29T19:35:39:298
-5,515456	-3,519842	6,757331	2020-10-29T19:35:39:314
-5,790630	-3,529413	7,061220	2020-10-29T19:35:39:337
-6,422336	-3,519842	7,264609	2020-10-29T19:35:39:354
-7,214360	-3,163311	7,408179	2020-10-29T19:35:39:378
-7,740781	-2,395216	7,173682	2020-10-29T19:35:39:394
-7,668997	-1,658226	6,575477	2020-10-29T19:35:39:418
-7,197611	-1,552942	6,455836	2020-10-29T19:35:39:434
-7,030113	-1,643869	6,381658	2020-10-29T19:35:39:459
-6,943972	-1,780260	6,664011	2020-10-29T19:35:39:474
-6,561120	-1,844866	6,951149	2020-10-29T19:35:39:500
-5,848059	-2,804388	6,917650	2020-10-29T19:35:39:513
-5,826523	-2,926422	6,987042	2020-10-29T19:35:39:538
-5,950950	-2,998207	7,027720	2020-10-29T19:35:39:554
-5,960521	-2,962314	6,841080	2020-10-29T19:35:39:577
-6,092126	-2,945565	6,573084	2020-10-29T19:35:39:594
-6,257231	-3,058028	6,458229	2020-10-29T19:35:39:618
-6,278766	-3,036492	6,415157	2020-10-29T19:35:39:634
-6,271588	-3,058028	6,661618	2020-10-29T19:35:39:657
-6,403193	-2,912065	6,503692	2020-10-29T19:35:39:674
-6,599405	-2,684747	6,410372	2020-10-29T19:35:39:698
-6,876972	-2,220540	6,314659	2020-10-29T19:35:39:714
-7,527820	-2,187040	6,362515	2020-10-29T19:35:39:739
-7,398607	-2,234896	6,319445	2020-10-29T19:35:39:753
-7,032506	-3,067599	6,769295	2020-10-29T19:35:39:778
-6,910471	-3,148954	6,958328	2020-10-29T19:35:39:794
-6,611369	-2,871387	6,831509	2020-10-29T19:35:39:817
-6,824330	-2,567499	6,738188	2020-10-29T19:35:39:834
-6,678369	-2,373680	6,546762	2020-10-29T19:35:39:858
-6,687939	-2,261217	6,546762	2020-10-29T19:35:39:874
-6,702296	-2,201397	6,477371	2020-10-29T19:35:39:898
-6,764510	-2,189433	6,537192	2020-10-29T19:35:39:914
-6,721439	-2,524428	6,546762	2020-10-29T19:35:39:938
-6,795617	-2,459821	6,357729	2020-10-29T19:35:39:954
-6,912865	-2,416751	6,331409	2020-10-29T19:35:39:978
-6,970293	-2,447858	6,290731	2020-10-29T19:35:39:994
-7,030113	-2,447858	6,283553	2020-10-29T19:35:40:018
-7,111469	-2,385644	6,159126	2020-10-29T19:35:40:035
-7,216753	-2,249253	6,317052	2020-10-29T19:35:40:057
-7,243074	-2,285146	6,283553	2020-10-29T19:35:40:074
-7,207181	-2,057827	6,156733	2020-10-29T19:35:40:098
-7,063612	-2,100898	6,125626	2020-10-29T19:35:40:116
-7,109076	-2,340181	6,202196	2020-10-29T19:35:40:138
-7,152147	-2,402394	6,345766	2020-10-29T19:35:40:154
-6,910471	-2,857030	6,106483	2020-10-29T19:35:40:178
-7,195218	-2,072184	6,230910	2020-10-29T19:35:40:195
-7,176075	-1,981257	6,104091	2020-10-29T19:35:40:219
-7,243074	-1,852045	6,211767	2020-10-29T19:35:40:234
-7,360322	-2,242075	6,338587	2020-10-29T19:35:40:259
-7,556533	-2,105684	6,474977	2020-10-29T19:35:40:275
-7,257431	-2,380858	6,338587	2020-10-29T19:35:40:299
-7,099504	-2,294717	6,312266	2020-10-29T19:35:40:315
-6,955935	-1,954936	6,216553	2020-10-29T19:35:40:339
-6,996613	-2,091327	6,211767	2020-10-29T19:35:40:354
-7,056434	-2,026721	6,276374	2020-10-29T19:35:40:378
-6,735795	-2,237289	6,759724	2020-10-29T19:35:40:395
-6,415157	-1,866402	6,108876	2020-10-29T19:35:40:420
-7,070791	-1,952543	6,618547	2020-10-29T19:35:40:435
-6,979864	-2,364109	6,448657	2020-10-29T19:35:40:459
-7,058826	-1,552942	6,403193	2020-10-29T19:35:40:475
-7,207181	-1,732404	6,238089	2020-10-29T19:35:40:499
-7,235896	-1,564906	5,977271	2020-10-29T19:35:40:515
-7,111469	-1,359123	5,960521	2020-10-29T19:35:40:539
-7,494320	-1,584049	5,857630	2020-10-29T19:35:40:555
-7,458428	-1,667797	6,379266	2020-10-29T19:35:40:579
-6,884151	-2,079363	6,283553	2020-10-29T19:35:40:595
-6,915257	-2,136791	6,352944	2020-10-29T19:35:40:618
-7,231110	-2,127219	6,460621	2020-10-29T19:35:40:635
-7,228717	-2,062613	6,324231	2020-10-29T19:35:40:659
-7,178468	-1,921437	6,168696	2020-10-29T19:35:40:675
-7,216753	-2,067399	6,077770	2020-10-29T19:35:40:701
-7,243074	-2,041078	6,149554	2020-10-29T19:35:40:715
-7,233503	-2,187040	6,192625	2020-10-29T19:35:40:739
-7,197611	-2,246860	6,130411	2020-10-29T19:35:40:756
-7,176075	-2,311467	6,233303	2020-10-29T19:35:40:778
-7,262216	-2,464607	6,309873	2020-10-29T19:35:40:795
-7,252645	-2,373680	6,199803	2020-10-29T19:35:40:820
-7,214360	-2,239682	6,180661	2020-10-29T19:35:40:835
-7,168896	-2,299503	6,149554	2020-10-29T19:35:40:858
-7,250252	-2,196611	6,223732	2020-10-29T19:35:40:875
-7,250252	-2,277967	6,135197	2020-10-29T19:35:40:899
-7,180861	-2,213361	6,178268	2020-10-29T19:35:40:916
-7,063612	-2,337788	6,202196	2020-10-29T19:35:40:940
-7,147361	-2,373680	6,242875	2020-10-29T19:35:40:955
-7,221539	-2,206182	6,183054	2020-10-29T19:35:40:979
-7,125826	-2,182254	6,216553	2020-10-29T19:35:40:995
-7,161718	-2,251646	6,142376	2020-10-29T19:35:41:019
-7,233503	-2,191825	6,180661	2020-10-29T19:35:41:036
-7,152147	-2,249253	6,195018	2020-10-29T19:35:41:061
-7,085148	-2,419144	6,087341	2020-10-29T19:35:41:075
-7,034898	-2,342573	6,216553	2020-10-29T19:35:41:100
-7,054041	-2,328217	6,204589	2020-10-29T19:35:41:115
-6,977471	-2,258825	6,123233	2020-10-29T19:35:41:140
-6,967900	-2,443072	6,204589	2020-10-29T19:35:41:155
-7,010970	-2,344966	6,161518	2020-10-29T19:35:41:179
-7,056434	-2,309074	6,206983	2020-10-29T19:35:41:195
-7,137790	-2,177469	6,156733	2020-10-29T19:35:41:221
-7,089933	-2,282753	6,269196	2020-10-29T19:35:41:236
-7,073184	-2,402394	6,259624	2020-10-29T19:35:41:259
-7,008578	-2,390430	6,206983	2020-10-29T19:35:41:277
-6,881758	-2,404787	6,242875	2020-10-29T19:35:41:300
-6,903293	-2,577070	6,544370	2020-10-29T19:35:41:316
-6,888937	-2,885744	6,903293	2020-10-29T19:35:41:340
-6,788438	-2,634498	7,135397	2020-10-29T19:35:41:356
-6,618547	-2,390430	7,121039	2020-10-29T19:35:41:380
-6,764510	-1,859223	8,638089	2020-10-29T19:35:41:396
-5,718846	-1,483550	11,473583	2020-10-29T19:35:41:421
-4,110869	-0,119641	12,538391	2020-10-29T19:35:41:436
-3,165704	-0,279960	9,188439	2020-10-29T19:35:41:460
-3,988836	-0,095713	5,175675	2020-10-29T19:35:41:476
-5,173282	0,114855	2,596212	2020-10-29T19:35:41:499
-6,285945	0,198604	1,684547	2020-10-29T19:35:41:516
-7,178468	-1,426122	1,033699	2020-10-29T19:35:41:541
-7,901100	-3,957729	1,227518	2020-10-29T19:35:41:556
-9,073583	-6,238089	2,763710	2020-10-29T19:35:41:580
-11,404193	-6,917650	4,015156	2020-10-29T19:35:41:596
-11,325230	-4,247260	6,163911	2020-10-29T19:35:41:620
-9,011370	-4,051049	7,587641	2020-10-29T19:35:41:636
-8,200203	-1,476372	5,967700	2020-10-29T19:35:41:660
-6,431907	-0,667598	4,965107	2020-10-29T19:35:41:676
-4,268795	-0,172283	4,153940	2020-10-29T19:35:41:700
-4,780859	-1,447658	6,436693	2020-10-29T19:35:41:716
-5,144568	-2,933600	6,063413	2020-10-29T19:35:41:739
-4,706682	-2,947958	3,414558	2020-10-29T19:35:41:756
-6,029913	-1,806581	2,660819	2020-10-29T19:35:41:780
-9,384650	-1,741975	3,706482	2020-10-29T19:35:41:796
-12,689137	-3,318845	3,998406	2020-10-29T19:35:41:821
-17,158932	-2,081756	1,531406	2020-10-29T19:35:41:836
-13,129417	-2,957529	5,242674	2020-10-29T19:35:41:860
-10,480563	-2,522035	3,873980	2020-10-29T19:35:41:876
-9,686146	-2,773281	2,902494	2020-10-29T19:35:41:902
-10,305886	-2,957529	1,971686	2020-10-29T19:35:41:916
-9,848858	-2,407180	0,947558	2020-10-29T19:35:41:941
-10,188639	-2,979064	0,390030	2020-10-29T19:35:41:956
-9,647861	-2,646462	0,217747	2020-10-29T19:35:41:979
-9,994821	-3,014957	0,497707	2020-10-29T19:35:41:996
-9,454042	-2,120041	-0,184247	2020-10-29T19:35:42:022
-9,803394	-2,555535	-0,445065	2020-10-29T19:35:42:036
-10,339387	-2,383251	-0,485743	2020-10-29T19:35:42:061
-10,602598	-1,907080	-0,806381	2020-10-29T19:35:42:076
-11,097912	-2,299503	-0,665205	2020-10-29T19:35:42:100
-11,485549	-1,945365	-0,277567	2020-10-29T19:35:42:116
-11,377872	-1,222732	-0,433101	2020-10-29T19:35:42:140
-11,430513	-0,801596	-0,315853	2020-10-29T19:35:42:156
-11,219944	-0,157926	-0,277567	2020-10-29T19:35:42:180
-10,480563	-0,129212	0,531207	2020-10-29T19:35:42:196
-12,107682	-0,988236	0,588634	2020-10-29T19:35:42:221
-15,416957	-2,148755	3,326023	2020-10-29T19:35:42:237
-16,374086	-3,857230	3,165704	2020-10-29T19:35:42:260
-15,933806	-3,830909	1,165305	2020-10-29T19:35:42:276
-14,612967	-2,868994	-2,608176	2020-10-29T19:35:42:300
-12,174682	-0,150748	-8,592626	2020-10-29T19:35:42:317
-9,911072	2,065006	-10,368099	2020-10-29T19:35:42:342
-9,037691	1,859223	-9,142976	2020-10-29T19:35:42:357
-9,437292	0,940379	-7,099504	2020-10-29T19:35:42:381
-10,803595	0,241675	-5,565705	2020-10-29T19:35:42:397
-11,100305	0,189033	-5,087141	2020-10-29T19:35:42:421
-10,554741	-0,634098	-4,498507	2020-10-29T19:35:42:437
-10,451849	-1,464408	-4,003192	2020-10-29T19:35:42:460
-10,616954	-1,648655	-4,778467	2020-10-29T19:35:42:478
-10,609775	-0,404387	-5,027320	2020-10-29T19:35:42:501
-10,336994	0,739382	-4,852644	2020-10-29T19:35:42:517
-10,198210	0,969093	-4,180261	2020-10-29T19:35:42:542
-9,836893	0,514457	-3,670590	2020-10-29T19:35:42:557
-9,425328	0,081356	-3,701697	2020-10-29T19:35:42:581
-8,836694	0,064606	-3,689733	2020-10-29T19:35:42:597
-8,511270	-0,069392	-3,462414	2020-10-29T19:35:42:622
-8,396415	-0,442672	-3,187240	2020-10-29T19:35:42:637
-8,135597	-0,789631	-2,928815	2020-10-29T19:35:42:661
-7,886744	-1,194018	-2,455036	2020-10-29T19:35:42:677
-7,554141	-1,435694	-2,182254	2020-10-29T19:35:42:701
-7,360322	-1,639083	-1,866402	2020-10-29T19:35:42:718
-7,001399	-1,689333	-1,706082	2020-10-29T19:35:42:742
-6,723832	-1,533799	-1,351945	2020-10-29T19:35:42:757
-6,381658	-1,194018	-1,083949	2020-10-29T19:35:42:780
-6,202196	-0,966700	-0,937986	2020-10-29T19:35:42:797
-6,149554	-0,856631	-0,847059	2020-10-29T19:35:42:822
-6,116055	-0,705883	-0,835095	2020-10-29T19:35:42:838
-6,154340	-0,667598	-0,899701	2020-10-29T19:35:42:862
-6,419943	-0,803988	-0,935594	2020-10-29T19:35:42:877
-6,604190	-1,007378	-1,263410	2020-10-29T19:35:42:901
-6,776474	-1,272982	-1,524228	2020-10-29T19:35:42:917
-7,068398	-1,440479	-1,940579	2020-10-29T19:35:42:940
-7,405786	-1,701297	-2,163112	2020-10-29T19:35:42:958
-8,075776	-1,770689	-2,043471	2020-10-29T19:35:42:982
-8,736196	-2,187040	-1,808974	2020-10-29T19:35:42:998
-9,442079	-2,428715	-1,014557	2020-10-29T19:35:43:021
-9,894321	-2,684747	-0,251246	2020-10-29T19:35:43:038
-9,923036	-2,555535	0,026321	2020-10-29T19:35:43:062
-9,738789	-2,555535	0,763310	2020-10-29T19:35:43:077
-10,037891	-2,270789	1,962115	2020-10-29T19:35:43:104
-10,468598	-1,761117	2,266003	2020-10-29T19:35:43:117
-10,583455	-0,880559	0,516850	2020-10-29T19:35:43:142
-10,693524	-0,734596	-1,701297	2020-10-29T19:35:43:157
-11,179268	-1,689333	-2,476572	2020-10-29T19:35:43:181
-11,495120	-3,852444	-1,507478	2020-10-29T19:35:43:198
-11,734402	-6,855437	0,050249	2020-10-29T19:35:43:223
-10,932807	-8,221739	1,208375	2020-10-29T19:35:43:238
-9,389436	-6,855437	1,576870	2020-10-29T19:35:43:261
-8,882158	-5,008178	1,557728	2020-10-29T19:35:43:277
-9,482756	-3,998406	1,172483	2020-10-29T19:35:43:302
-9,657433	-3,754339	1,069592	2020-10-29T19:35:43:318
-8,934800	-3,833302	0,763310	2020-10-29T19:35:43:342
-8,193025	-3,818945	0,133998	2020-10-29T19:35:43:357
-8,528020	-3,725625	0,382852	2020-10-29T19:35:43:382
-9,245867	-3,967300	0,720240	2020-10-29T19:35:43:398
-10,033106	-4,476971	1,091127	2020-10-29T19:35:43:421
-10,880164	-5,020142	1,445265	2020-10-29T19:35:43:438
-11,464014	-4,871787	1,679761	2020-10-29T19:35:43:462
-11,679367	-4,565506	1,117448	2020-10-29T19:35:43:478
-11,834900	-4,237689	1,270589	2020-10-29T19:35:43:501
-12,236896	-3,634698	1,131805	2020-10-29T19:35:43:518
-12,335001	-2,871387	0,973879	2020-10-29T19:35:43:543
-12,021541	-2,304288	0,392423	2020-10-29T19:35:43:559
-11,507084	-1,959722	-0,055035	2020-10-29T19:35:43:582
-11,775080	-1,567299	0,210568	2020-10-29T19:35:43:597
-12,098111	-1,351945	-0,172283	2020-10-29T19:35:43:623
-11,581261	-1,249053	-0,471386	2020-10-29T19:35:43:639
-10,308280	-1,402194	-0,839881	2020-10-29T19:35:43:661
-9,779467	-1,658226	-0,598206	2020-10-29T19:35:43:678
-10,195816	-1,840081	0,354138	2020-10-29T19:35:43:702
-10,155140	-1,739582	-0,011964	2020-10-29T19:35:43:718
-9,475577	-1,447658	-0,569492	2020-10-29T19:35:43:741
-8,796017	-1,268196	-0,849452	2020-10-29T19:35:43:758
-8,559127	-1,459622	-0,504886	2020-10-29T19:35:43:782
-8,604590	-1,478764	-0,196211	2020-10-29T19:35:43:798
-8,690732	-1,308874	-0,205783	2020-10-29T19:35:43:823
-8,432307	-1,098306	-0,555135	2020-10-29T19:35:43:839
-8,068598	-1,060020	-0,736989	2020-10-29T19:35:43:864
-7,726424	-1,012164	-0,559920	2020-10-29T19:35:43:878
-7,558927	-1,160519	-0,074178	2020-10-29T19:35:43:901
-7,283752	-1,150948	0,404387	2020-10-29T19:35:43:919
-7,135397	-0,715454	0,859023	2020-10-29T19:35:43:943
-7,118648	-0,689133	1,050449	2020-10-29T19:35:43:958
-7,403394	-0,576670	0,863809	2020-10-29T19:35:43:983
-7,731210	-0,650848	0,368495	2020-10-29T19:35:43:998
-8,377272	-0,746561	0,057428	2020-10-29T19:35:44:022
-9,446864	-1,127020	-0,076570	2020-10-29T19:35:44:039
-10,904092	-1,545763	0,351745	2020-10-29T19:35:44:065
-12,071791	-1,933401	0,169890	2020-10-29T19:35:44:079
-13,856836	-2,019542	-0,483350	2020-10-29T19:35:44:103
-17,216360	-3,390630	-0,660419	2020-10-29T19:35:44:119
-15,862022	-4,441079	-0,854238	2020-10-29T19:35:44:142
-13,761123	-6,281159	-0,071785	2020-10-29T19:35:44:159
-12,550355	-7,633104	0,966700	2020-10-29T19:35:44:183
-10,511670	-6,671190	1,160519	2020-10-29T19:35:44:199
-8,080563	-4,680361	0,277567	2020-10-29T19:35:44:222
-6,656832	-3,340380	-0,184247	2020-10-29T19:35:44:240
-7,551748	-2,912065	0,387637	2020-10-29T19:35:44:263
-9,631111	-2,615355	0,538385	2020-10-29T19:35:44:279
-10,633704	-3,050849	-0,004786	2020-10-29T19:35:44:303
-10,186246	-3,172883	-0,263210	2020-10-29T19:35:44:319
-9,640682	-3,560520	0,236889	2020-10-29T19:35:44:344
-9,987641	-4,256832	0,784846	2020-10-29T19:35:44:359
-10,523634	-5,249853	0,552742	2020-10-29T19:35:44:382
-10,387242	-6,271588	0,172283	2020-10-29T19:35:44:400
-10,382458	-6,518049	0,021535	2020-10-29T19:35:44:425
-10,832308	-6,041877	-0,055035	2020-10-29T19:35:44:439
-11,229517	-5,379066	-0,478565	2020-10-29T19:35:44:462
-10,760524	-5,127820	-0,303888	2020-10-29T19:35:44:479
-9,875179	-5,625526	0,083749	2020-10-29T19:35:44:503
-9,415757	-6,032306	0,595813	2020-10-29T19:35:44:521
-9,123833	-6,252446	1,088734	2020-10-29T19:35:44:545
-8,489735	-6,166305	1,435694	2020-10-29T19:35:44:559
-7,515855	-5,273781	1,785046	2020-10-29T19:35:44:583
-6,754939	-4,666004	2,024328	2020-10-29T19:35:44:599
-6,082555	-4,242475	2,108077	2020-10-29T19:35:44:623
-5,651847	-3,823731	2,498107	2020-10-29T19:35:44:639
-5,659025	-3,412165	2,660819	2020-10-29T19:35:44:664
-6,139983	-3,419343	2,653640	2020-10-29T19:35:44:679
-6,644868	-3,455236	2,383251	2020-10-29T19:35:44:702
-7,070791	-3,098706	2,117648	2020-10-29T19:35:44:720
-7,128219	-2,660819	1,112662	2020-10-29T19:35:44:744
-7,585248	-1,849652	0,457029	2020-10-29T19:35:44:759
-8,391629	-1,584049	-0,289532	2020-10-29T19:35:44:784
-9,592826	-1,406980	-0,770489	2020-10-29T19:35:44:799
-10,715059	-1,921437	-1,186840	2020-10-29T19:35:44:823
-11,442478	-2,490928	-1,067199	2020-10-29T19:35:44:840
-11,686546	-3,227918	-0,698704	2020-10-29T19:35:44:863
-11,729616	-3,749553	-0,440279	2020-10-29T19:35:44:880
-11,633904	-4,007978	-0,289532	2020-10-29T19:35:44:904
-11,763116	-4,134798	-0,775275	2020-10-29T19:35:44:920
-11,916256	-4,082155	-1,387837	2020-10-29T19:35:44:943
-11,968900	-3,914658	-1,725225	2020-10-29T19:35:44:960
-11,799009	-3,349952	-1,710868	2020-10-29T19:35:44:984
-11,325230	-2,258825	-1,883151	2020-10-29T19:35:45:000
-10,729417	-1,021735	-1,959722	2020-10-29T19:35:45:024
-10,490135	-0,380459	-1,658226	2020-10-29T19:35:45:040
-10,258030	-0,468993	-1,277767	2020-10-29T19:35:45:064
-9,616754	-0,792024	-0,571885	2020-10-29T19:35:45:079
-8,956335	-1,428515	0,351745	2020-10-29T19:35:45:103
-9,375079	-1,691726	0,679562	2020-10-29T19:35:45:120
-10,088140	-1,789831	0,411566	2020-10-29T19:35:45:145
-9,870394	-1,756332	0,112463	2020-10-29T19:35:45:160
-9,109475	-1,777867	-0,059821	2020-10-29T19:35:45:184
-8,731410	-1,665405	0,337388	2020-10-29T19:35:45:200
-9,836893	-1,308874	0,607777	2020-10-29T19:35:45:224
-10,157533	-1,316052	0,641276	2020-10-29T19:35:45:240
-9,956534	-1,306481	0,617348	2020-10-29T19:35:45:264
-10,016356	-1,366302	0,629312	2020-10-29T19:35:45:279
-10,581062	-1,198804	0,480957	2020-10-29T19:35:45:304
-10,729417	-0,923629	0,270389	2020-10-29T19:35:45:320
-10,671989	-0,964308	-0,334995	2020-10-29T19:35:45:343
-10,583455	-1,387837	-0,978664	2020-10-29T19:35:45:360
-10,755738	-1,507478	-0,863809	2020-10-29T19:35:45:384
-10,738988	-1,641476	-1,088734	2020-10-29T19:35:45:400
-10,822738	-1,835295	-0,997807	2020-10-29T19:35:45:424
-10,205389	-2,359323	-1,438086	2020-10-29T19:35:45:440
-10,231709	-2,045863	-1,909473	2020-10-29T19:35:45:464
-10,983055	-2,065006	-2,531606	2020-10-29T19:35:45:480
-12,744174	-2,325824	-3,201597	2020-10-29T19:35:45:505
-12,988241	-2,971886	-3,498307	2020-10-29T19:35:45:520
-11,140982	-3,309274	-3,565305	2020-10-29T19:35:45:545
-9,454042	-3,806981	-2,950350	2020-10-29T19:35:45:560
-8,212167	-4,007978	-1,686940	2020-10-29T19:35:45:583
-6,687939	-3,948158	-0,945165	2020-10-29T19:35:45:600
-5,723632	-3,227918	-0,849452	2020-10-29T19:35:45:625
-6,479764	-2,388037	-0,677169	2020-10-29T19:35:45:640
-8,662018	-1,808974	-0,337388	2020-10-29T19:35:45:663
-10,049855	-1,890330	-0,720240	2020-10-29T19:35:45:680
-9,367901	-2,182254	-1,282553	2020-10-29T19:35:45:704
-8,975478	-2,356930	-1,521835	2020-10-29T19:35:45:721
-9,573684	-2,108077	-1,883151	2020-10-29T19:35:45:745
-9,523434	-1,990828	-1,660619	2020-10-29T19:35:45:760
-8,511270	-2,103291	-0,531207	2020-10-29T19:35:45:785
-7,396214	-2,545963	1,567299	2020-10-29T19:35:45:800
-6,946364	-3,141776	2,340181	2020-10-29T19:35:45:824
-7,338787	-3,215954	2,438286	2020-10-29T19:35:45:841
-8,870193	-3,239882	2,136791	2020-10-29T19:35:45:865
-10,057034	-3,103491	1,773082	2020-10-29T19:35:45:880
-10,167104	-3,156133	1,464408	2020-10-29T19:35:45:904
-10,080962	-3,397808	1,629512	2020-10-29T19:35:45:921
-10,351351	-3,771089	2,120041	2020-10-29T19:35:45:945
-10,377672	-3,768696	2,720639	2020-10-29T19:35:45:961
-9,958927	-3,129812	2,979064	2020-10-29T19:35:45:985
-9,640682	-2,443072	3,110669	2020-10-29T19:35:46:001
-9,982857	-2,213361	2,955136	2020-10-29T19:35:46:025
-10,834702	-2,407180	2,947958	2020-10-29T19:35:46:041
-11,267801	-2,883351	3,072384	2020-10-29T19:35:46:064
-11,356337	-3,550949	2,443072	2020-10-29T19:35:46:081
-12,847065	-4,271189	2,435893	2020-10-29T19:35:46:105
-13,866407	-4,235296	2,629712	2020-10-29T19:35:46:122
-13,057633	-4,285545	2,108077	2020-10-29T19:35:46:145
-12,189038	-4,000800	1,988436	2020-10-29T19:35:46:161
-10,743774	-3,328416	1,526621	2020-10-29T19:35:46:185
-9,286544	-2,811567	0,909273	2020-10-29T19:35:46:201
-8,769694	-2,117648	0,746561	2020-10-29T19:35:46:227
-9,032906	-1,828116	0,394816	2020-10-29T19:35:46:241
-9,241080	-1,208375	-0,507278	2020-10-29T19:35:46:265
-9,410972	-0,995414	-2,215754	2020-10-29T19:35:46:281
-10,554741	-1,502693	-3,388237	2020-10-29T19:35:46:304
-12,114861	-1,734797	-3,318845	2020-10-29T19:35:46:322
-12,866207	-2,227718	-2,943172	2020-10-29T19:35:46:345
-12,093326	-2,682354	-2,938386	2020-10-29T19:35:46:361
-11,054840	-2,974278	-3,180061	2020-10-29T19:35:46:384
-10,071390	-2,964707	-3,096312	2020-10-29T19:35:46:401
-9,166903	-2,845066	-2,868994	2020-10-29T19:35:46:425
-8,403593	-2,667997	-2,627320	2020-10-29T19:35:46:441
-8,001599	-2,366502	-2,665605	2020-10-29T19:35:46:465
-7,903493	-2,304288	-2,775674	2020-10-29T19:35:46:481
-8,035098	-2,581856	-2,854637	2020-10-29T19:35:46:505
-7,996813	-2,998207	-2,600998	2020-10-29T19:35:46:521
-7,872386	-3,637090	-2,440679	2020-10-29T19:35:46:545
-7,913064	-4,302295	-2,323431	2020-10-29T19:35:46:561
-8,104490	-4,737789	-2,476572	2020-10-29T19:35:46:585
-8,633304	-4,929214	-2,012364	2020-10-29T19:35:46:601
-8,791230	-4,890929	-0,952343	2020-10-29T19:35:46:624
-8,506484	-4,893322	-0,246461	2020-10-29T19:35:46:641
-8,018349	-4,807181	0,069392	2020-10-29T19:35:46:665
-7,546963	-4,744967	0,476172	2020-10-29T19:35:46:682
-7,470392	-4,907679	1,117448	2020-10-29T19:35:46:705
-7,920243	-5,300103	1,564906	2020-10-29T19:35:46:721
-8,346166	-5,570491	1,533799	2020-10-29T19:35:46:746
-8,554340	-5,936593	1,308874	2020-10-29T19:35:46:761
-8,693125	-5,848059	1,339981	2020-10-29T19:35:46:784
-8,630912	-5,977271	1,301696	2020-10-29T19:35:46:801
-8,183454	-5,907879	1,667797	2020-10-29T19:35:46:826
-7,934600	-5,429315	1,395016	2020-10-29T19:35:46:842
-8,681160	-5,134997	1,189233	2020-10-29T19:35:46:865
-9,432507	-5,015356	1,335195	2020-10-29T19:35:46:881
-9,044869	-5,316852	1,282553	2020-10-29T19:35:46:906
-7,968100	-5,654240	1,502693	2020-10-29T19:35:46:922
-7,188039	-5,613562	1,830509	2020-10-29T19:35:46:946
-6,587440	-5,106283	1,844866	2020-10-29T19:35:46:961
-6,022735	-4,599005	1,435694	2020-10-29T19:35:46:986
-5,587241	-4,113262	0,811167	2020-10-29T19:35:47:002
-5,795416	-3,739982	0,165105	2020-10-29T19:35:47:025
-6,589834	-3,682554	-0,306281	2020-10-29T19:35:47:042
-8,236095	-3,840480	0,143569	2020-10-29T19:35:47:067
-9,822537	-4,158726	-0,002393	2020-10-29T19:35:47:081
-10,389636	-4,271189	-0,325424	2020-10-29T19:35:47:105
-10,439885	-4,132405	-0,954736	2020-10-29T19:35:47:122
-10,557133	-3,893122	-0,923629	2020-10-29T19:35:47:146
-10,853845	-4,036692	-0,196211	2020-10-29T19:35:47:162
-10,437491	-4,027121	0,114855	2020-10-29T19:35:47:186
-9,434900	-3,431308	0,126820	2020-10-29T19:35:47:202
-8,382057	-3,084348	0,351745	2020-10-29T19:35:47:226
-7,733603	-3,486342	0,658026	2020-10-29T19:35:47:242
-7,759924	-3,890730	1,414158	2020-10-29T19:35:47:265
-8,248059	-4,441079	1,296910	2020-10-29T19:35:47:282
-8,621340	-5,491528	0,509671	2020-10-29T19:35:47:307
-8,729016	-6,563512	-0,538385	2020-10-29T19:35:47:322
-8,152347	-7,190433	-1,064806	2020-10-29T19:35:47:345
-7,920243	-7,077969	-1,143769	2020-10-29T19:35:47:362
-8,082954	-6,233303	-1,435694	2020-10-29T19:35:47:387
-8,822337	-6,037091	-1,227518	2020-10-29T19:35:47:402
-8,961121	-6,419943	-1,170090	2020-10-29T19:35:47:427
-9,078369	-6,398407	-1,136591	2020-10-29T19:35:47:441
-9,449257	-6,108876	-1,887937	2020-10-29T19:35:47:466
-12,019149	-6,252446	-1,885544	2020-10-29T19:35:47:482
-13,753943	-6,494121	-1,837688	2020-10-29T19:35:47:505
-12,909278	-5,886343	-2,141576	2020-10-29T19:35:47:522
-12,457035	-4,864608	-2,500499	2020-10-29T19:35:47:546
-12,399607	-2,481357	-1,232304	2020-10-29T19:35:47:562
-11,375479	-1,294517	-1,284946	2020-10-29T19:35:47:585
-10,325029	-2,148755	-0,552742	2020-10-29T19:35:47:602
-9,056834	-3,227918	0,399601	2020-10-29T19:35:47:626
-7,544570	-3,189633	0,126820	2020-10-29T19:35:47:642
-6,860222	-2,361716	-0,212961	2020-10-29T19:35:47:668
-7,374680	-1,947758	-0,512064	2020-10-29T19:35:47:681
-8,539984	-2,096112	-0,306281	2020-10-29T19:35:47:706
-9,279366	-2,237289	-1,012164	2020-10-29T19:35:47:723
-9,590433	-1,452443	-1,325624	2020-10-29T19:35:47:745
-9,686146	-1,524228	-1,938186	2020-10-29T19:35:47:762
-9,288938	-2,469393	-2,014757	2020-10-29T19:35:47:786
-8,800802	-2,325824	-2,031506	2020-10-29T19:35:47:804
-8,719445	-1,830509	-2,165504	2020-10-29T19:35:47:825
-9,401401	-2,210968	-2,153540	2020-10-29T19:35:47:844
-10,064213	-2,804388	-1,703690	2020-10-29T19:35:47:867
-9,946963	-2,708675	-1,342373	2020-10-29T19:35:47:884
-9,020942	-2,335395	-1,191626	2020-10-29T19:35:47:908
-8,834301	-2,354537	-1,028914	2020-10-29T19:35:47:924
-9,166903	-2,538785	-0,643669	2020-10-29T19:35:47:946
-9,655040	-2,641676	-0,394816	2020-10-29T19:35:47:964
-9,982857	-2,270789	-0,741775	2020-10-29T19:35:47:987
-9,626326	-2,366502	-0,459422	2020-10-29T19:35:48:004
-9,109475	-1,909473	0,040678	2020-10-29T19:35:48:026
-9,425328	-1,686940	-0,454636	2020-10-29T19:35:48:043
-10,147961	-1,797010	-0,330210	2020-10-29T19:35:48:066
-9,726824	-1,864009	0,222532	2020-10-29T19:35:48:083
-9,243474	-1,679761	0,679562	2020-10-29T19:35:48:106
-9,245867	-1,588834	0,459422	2020-10-29T19:35:48:123
-9,671788	-1,555335	0,189033	2020-10-29T19:35:48:149
-10,238889	-2,076970	0,177069	2020-10-29T19:35:48:163
-10,774881	-3,481557	1,316052	2020-10-29T19:35:48:186
-11,413764	-8,767302	2,371287	2020-10-29T19:35:48:203
-11,569297	-12,102897	3,122634	2020-10-29T19:35:48:225
-10,322637	-6,407979	3,280560	2020-10-29T19:35:48:243
-8,760124	-2,213361	1,730011	2020-10-29T19:35:48:266
-7,903493	-1,550549	0,966700	2020-10-29T19:35:48:282
-7,889136	-2,746960	0,882952	2020-10-29T19:35:48:305
-8,286345	-2,691926	1,335195	2020-10-29T19:35:48:323
-8,477771	-1,763510	0,875773	2020-10-29T19:35:48:346
-8,377272	-1,258625	0,148355	2020-10-29T19:35:48:363
-8,307880	-1,416551	-0,437887	2020-10-29T19:35:48:388
-8,154739	-1,998007	-0,849452	2020-10-29T19:35:48:402
-8,609376	-2,196611	-1,507478	2020-10-29T19:35:48:426
-11,282159	-2,727818	-2,371287	2020-10-29T19:35:48:443
-13,325629	-3,799802	-2,309074	2020-10-29T19:35:48:465
-12,569498	-4,462614	-2,076970	2020-10-29T19:35:48:483
-10,179067	-4,747360	-1,416551	2020-10-29T19:35:48:506
-8,640482	-4,292724	-0,760918	2020-10-29T19:35:48:523
-8,204988	-3,687340	-0,210568	2020-10-29T19:35:48:546
-8,188239	-3,144169	0,191426	2020-10-29T19:35:48:563
-8,221739	-2,988636	0,430708	2020-10-29T19:35:48:586
-8,346166	-2,849852	0,591027	2020-10-29T19:35:48:603
-8,721838	-3,103491	0,667598	2020-10-29T19:35:48:627
-9,073583	-3,481557	0,502493	2020-10-29T19:35:48:643
-9,609575	-3,986443	-0,066999	2020-10-29T19:35:48:666
-10,322637	-4,433900	0,014357	2020-10-29T19:35:48:683
-11,286944	-4,304688	-0,028714	2020-10-29T19:35:48:706
-12,174682	-4,051049	-0,031107	2020-10-29T19:35:48:723
-12,571891	-3,194418	0,098106	2020-10-29T19:35:48:747
-12,172288	-2,402394	0,397209	2020-10-29T19:35:48:763
-11,289338	-1,947758	0,404387	2020-10-29T19:35:48:787
-10,353743	-1,596013	0,339781	2020-10-29T19:35:48:803
-9,504292	-1,663012	-0,081356	2020-10-29T19:35:48:827
-9,032906	-1,914258	-0,385244	2020-10-29T19:35:48:843
-8,697910	-1,811367	-0,519243	2020-10-29T19:35:48:867
-8,429914	-1,823331	-0,751346	2020-10-29T19:35:48:883
-8,147561	-2,287539	-0,736989	2020-10-29T19:35:48:907
-7,994420	-3,024528	-1,167697	2020-10-29T19:35:48:923
-8,444271	-3,948158	-1,885544	2020-10-29T19:35:48:946
-9,327222	-4,843073	-2,335395	2020-10-29T19:35:48:963
-10,114462	-5,187639	-2,529213	2020-10-29T19:35:48:987
-10,447062	-4,795217	-2,651247	2020-10-29T19:35:49:003
-10,631311	-4,443472	-3,060420	2020-10-29T19:35:49:026
-10,973484	-4,242475	-3,177669	2020-10-29T19:35:49:044
-10,456635	-4,376472	-2,976671	2020-10-29T19:35:49:067
-9,169296	-4,070191	-2,933600	2020-10-29T19:35:49:083
-7,984849	-3,969693	-2,847459	2020-10-29T19:35:49:107
-7,420143	-3,873980	-2,696711	2020-10-29T19:35:49:123
-7,228717	-3,742374	-2,378466	2020-10-29T19:35:49:147
-7,384251	-4,247260	-1,954936	2020-10-29T19:35:49:163
-7,334002	-4,335794	-1,923829	2020-10-29T19:35:49:186
-7,056434	-4,180261	-2,151148	2020-10-29T19:35:49:204
-6,853044	-3,857230	-2,244468	2020-10-29T19:35:49:229
-6,537192	-3,629912	-2,414358	2020-10-29T19:35:49:244
-6,482157	-3,381058	-2,641676	2020-10-29T19:35:49:267
-6,671190	-3,414558	-2,950350	2020-10-29T19:35:49:283
-7,197611	-3,845266	-2,835495	2020-10-29T19:35:49:307
-7,692925	-4,465007	-2,732604	2020-10-29T19:35:49:324
-8,032705	-5,259424	-2,711068	2020-10-29T19:35:49:349
-8,494520	-5,654240	-2,517249	2020-10-29T19:35:49:363
-8,609376	-5,807381	-2,474179	2020-10-29T19:35:49:389
-8,678767	-5,601598	-2,254039	2020-10-29T19:35:49:404
-8,834301	-5,400600	-2,222932	2020-10-29T19:35:49:427
-9,324830	-5,003392	-2,256432	2020-10-29T19:35:49:444
-9,966106	-4,888536	-2,050649	2020-10-29T19:35:49:468
-10,420743	-4,725825	-1,703690	2020-10-29T19:35:49:484
-10,320245	-4,733003	-1,581656	2020-10-29T19:35:49:507
-10,205389	-4,383651	-1,131805	2020-10-29T19:35:49:524
-10,676775	-4,275974	0,777667	2020-10-29T19:35:49:548
-10,109675	-4,663611	0,720240	2020-10-29T19:35:49:564
-9,363115	-4,546363	-0,124427	2020-10-29T19:35:49:588
-9,133404	-3,708875	-0,801596	2020-10-29T19:35:49:604
-9,178867	-2,773281	-1,351945	2020-10-29T19:35:49:628
-9,236296	-2,730211	-1,318445	2020-10-29T19:35:49:644
-9,214760	-3,072384	-1,064806	2020-10-29T19:35:49:667
-9,095119	-3,163311	-1,134198	2020-10-29T19:35:49:684
-9,102298	-3,046063	-1,275374	2020-10-29T19:35:49:708
-9,279366	-3,089134	-1,332802	2020-10-29T19:35:49:724
-9,389436	-3,299703	-1,162912	2020-10-29T19:35:49:748
-9,305687	-3,553342	-1,280160	2020-10-29T19:35:49:764
-9,231510	-3,749553	-1,524228	2020-10-29T19:35:49:788
-9,415757	-3,945765	-1,536192	2020-10-29T19:35:49:804
-9,533006	-3,893122	-1,174876	2020-10-29T19:35:49:828
-9,341579	-4,043870	-0,909273	2020-10-29T19:35:49:844
-9,018548	-4,043870	-0,722632	2020-10-29T19:35:49:868
-8,740981	-3,692125	-0,808774	2020-10-29T19:35:49:884
-9,119047	-3,213561	-1,447658	2020-10-29T19:35:49:907
-10,289137	-2,804388	-1,442872	2020-10-29T19:35:49:924
-10,423136	-2,718246	-1,208375	2020-10-29T19:35:49:948
-9,209974	-2,605784	-1,361516	2020-10-29T19:35:49:964
-8,516055	-2,464607	-1,246661	2020-10-29T19:35:49:987
-8,453842	-2,280360	-1,148555	2020-10-29T19:35:50:004
-8,458629	-2,230111	-0,952343	2020-10-29T19:35:50:029
-8,370094	-2,323431	-1,067199	2020-10-29T19:35:50:045
-8,573483	-2,438286	-0,909273	2020-10-29T19:35:50:068
-9,233903	-2,438286	-0,748954	2020-10-29T19:35:50:084
-9,901501	-2,435893	-0,703490	2020-10-29T19:35:50:109
-10,258030	-2,512464	-0,624527	2020-10-29T19:35:50:125
-10,693524	-2,912065	-0,461815	2020-10-29T19:35:50:148
-11,112268	-3,127419	-0,239282	2020-10-29T19:35:50:165
-10,880164	-3,029313	-0,064606	2020-10-29T19:35:50:188
-10,109675	-2,483750	-0,859023	2020-10-29T19:35:50:204
-10,939985	-1,057628	1,820938	2020-10-29T19:35:50:228
-12,088539	-1,026521	4,309474	2020-10-29T19:35:50:245
-11,318050	-2,163112	4,386044	2020-10-29T19:35:50:269
-10,226924	-2,548356	4,072584	2020-10-29T19:35:50:285
-9,678967	-1,686940	3,151347	2020-10-29T19:35:50:309
-9,561719	-1,079163	1,938186	2020-10-29T19:35:50:325
-9,221939	-1,215554	0,844666	2020-10-29T19:35:50:350
-8,516055	-1,478764	0,102891	2020-10-29T19:35:50:364
-7,779066	-1,576870	-0,215354	2020-10-29T19:35:50:387
-7,403394	-1,718047	-0,452243	2020-10-29T19:35:50:405
-7,401000	-1,933401	-0,507278	2020-10-29T19:35:50:429
-7,525427	-2,177469	-0,595813	2020-10-29T19:35:50:445
-7,506285	-2,120041	-0,471386	2020-10-29T19:35:50:468
-7,791030	-1,947758	-0,413958	2020-10-29T19:35:50:485
-8,181061	-1,966900	-0,320638	2020-10-29T19:35:50:508
-8,764909	-2,129612	-0,155533	2020-10-29T19:35:50:525
-9,305687	-2,182254	-0,028714	2020-10-29T19:35:50:550
-9,628718	-2,352145	-0,078963	2020-10-29T19:35:50:564
-9,932607	-2,507678	0,004786	2020-10-29T19:35:50:588
-10,308280	-2,794817	0,081356	2020-10-29T19:35:50:605
-10,573883	-2,900101	0,212961	2020-10-29T19:35:50:628
-11,040483	-2,196611	0,844666	2020-10-29T19:35:50:645
-11,064411	-1,806581	0,894916	2020-10-29T19:35:50:669
-10,892128	-2,624927	1,237089	2020-10-29T19:35:50:685
-10,966305	-2,837888	1,610370	2020-10-29T19:35:50:708
-12,538391	-2,569891	1,777867	2020-10-29T19:35:50:725
-13,600803	-2,778067	1,998007	2020-10-29T19:35:50:749
-12,430713	-3,141776	1,624727	2020-10-29T19:35:50:765
-10,588240	-3,649055	0,961915	2020-10-29T19:35:50:789
-9,607183	-3,579663	0,514457	2020-10-29T19:35:50:805
-9,188439	-2,952743	0,224925	2020-10-29T19:35:50:829
-9,324830	-1,789831	-0,059821	2020-10-29T19:35:50:845
-9,690931	-0,832702	-0,406780	2020-10-29T19:35:50:868
-9,848858	-0,488136	-0,875773	2020-10-29T19:35:50:885
-10,214959	-0,291924	-0,787239	2020-10-29T19:35:50:909
-10,420743	-0,588634	-0,878166	2020-10-29T19:35:50:925
-9,923036	-1,024128	-0,863809	2020-10-29T19:35:50:948
-9,427721	-1,339981	-1,215554	2020-10-29T19:35:50:965
-9,798609	-1,493121	-1,576870	2020-10-29T19:35:50:989
-10,616954	-1,703690	-1,969293	2020-10-29T19:35:51:006
-11,425728	-2,132005	-2,285146	2020-10-29T19:35:51:030
-11,576476	-2,337788	-2,474179	2020-10-29T19:35:51:046
-11,351551	-2,577070	-2,409572	2020-10-29T19:35:51:069
-10,884951	-2,821138	-2,287539	2020-10-29T19:35:51:085
-10,382458	-2,835495	-2,112862	2020-10-29T19:35:51:108
-9,611969	-2,620141	-1,911865	2020-10-29T19:35:51:126
-8,841480	-2,232504	-1,758725	2020-10-29T19:35:51:149
-8,305488	-1,703690	-1,548156	2020-10-29T19:35:51:165
-7,901100	-1,428515	-1,368695	2020-10-29T19:35:51:188
-7,893922	-1,337588	-0,885344	2020-10-29T19:35:51:205
-8,298308	-1,198804	-0,066999	2020-10-29T19:35:51:230
-8,767302	-1,220340	0,423530	2020-10-29T19:35:51:246
-8,989835	-0,933201	0,478565	2020-10-29T19:35:51:270
-8,987441	-0,792024	0,229711	2020-10-29T19:35:51:285
-9,061620	-0,366102	-0,157926	2020-10-29T19:35:51:309
-9,253045	-0,157926	-0,057428	2020-10-29T19:35:51:326
-9,485149	-0,172283	0,624527	2020-10-29T19:35:51:349
-9,523434	-0,181855	1,787439	2020-10-29T19:35:51:365
-9,169296	-0,105284	2,529213	2020-10-29T19:35:51:389
-8,932407	-0,071785	2,694318	2020-10-29T19:35:51:405
-9,260223	-0,189033	2,426322	2020-10-29T19:35:51:429
-10,145569	-0,734596	1,926222	2020-10-29T19:35:51:446
-11,073983	-1,383051	1,179662	2020-10-29T19:35:51:470
-11,621940	-2,423929	0,323031	2020-10-29T19:35:51:486
-11,815758	-3,692125	-0,098106	2020-10-29T19:35:51:509
-11,741580	-4,677969	-0,193819	2020-10-29T19:35:51:525
-11,363515	-5,029713	0,102891	2020-10-29T19:35:51:550
-11,006985	-4,165904	-0,339781	2020-10-29T19:35:51:565
-12,117253	-3,184847	-0,557528	2020-10-29T19:35:51:589
-13,045669	-2,292324	-0,770489	2020-10-29T19:35:51:606
-12,308680	-2,251646	-1,299303	2020-10-29T19:35:51:630
-11,200804	-2,103291	-1,380659	2020-10-29T19:35:51:646
-10,116854	-2,093720	-1,375873	2020-10-29T19:35:51:669
-9,040084	-2,244468	-1,459622	2020-10-29T19:35:51:686
-8,293523	-2,349752	-1,447658	2020-10-29T19:35:51:709
-7,798209	-2,677568	-1,572084	2020-10-29T19:35:51:726
-7,654640	-2,861816	-1,730011	2020-10-29T19:35:51:750
-7,326823	-3,208775	-1,682154	2020-10-29T19:35:51:765
-7,080362	-3,455236	-1,871187	2020-10-29T19:35:51:789
-7,525427	-3,555735	-1,938186	2020-10-29T19:35:51:806
-8,805587	-3,610770	-1,624727	2020-10-29T19:35:51:829
-9,846465	-3,656233	-1,598405	2020-10-29T19:35:51:846
-10,021141	-3,653840	-1,581656	2020-10-29T19:35:51:870
-10,198210	-3,548556	-1,363909	2020-10-29T19:35:51:886
-10,640882	-3,077170	-0,713061	2020-10-29T19:35:51:909
-10,600205	-2,612962	0,019143	2020-10-29T19:35:51:926
-9,662218	-2,299503	0,531207	2020-10-29T19:35:51:951
-8,965906	-2,158326	0,933201	2020-10-29T19:35:51:970
-8,434700	-2,117648	1,138984	2020-10-29T19:35:51:991
-8,231310	-2,170290	1,225125	2020-10-29T19:35:52:007
-8,429914	-2,498107	1,514657	2020-10-29T19:35:52:031
-8,918050	-2,794817	1,981257	2020-10-29T19:35:52:046
-9,475577	-3,125026	2,337788	2020-10-29T19:35:52:069
-10,047462	-3,273381	2,818745	2020-10-29T19:35:52:087
-10,389636	-3,297310	3,529413	2020-10-29T19:35:52:111
-10,691131	-3,117848	4,098906	2020-10-29T19:35:52:126
-10,844273	-2,603391	4,158726	2020-10-29T19:35:52:151
-10,899307	-2,038685	3,998406	2020-10-29T19:35:52:166
-10,557133	-1,469193	3,639483	2020-10-29T19:35:52:190
-10,289137	-1,361516	3,077170	2020-10-29T19:35:52:208
-10,375278	-1,617548	2,648855	2020-10-29T19:35:52:231
-10,466206	-2,139183	2,318645	2020-10-29T19:35:52:247
-10,372886	-2,612962	2,134398	2020-10-29T19:35:52:271
-10,030712	-2,734996	1,703690	2020-10-29T19:35:52:287
-9,903893	-2,665605	1,198804	2020-10-29T19:35:52:309
-11,050055	-3,058028	0,602991	2020-10-29T19:35:52:327
-13,473984	-3,656233	1,519442	2020-10-29T19:35:52:351
-13,397413	-4,503292	1,440479	2020-10-29T19:35:52:366
-11,339586	-5,587241	0,473779	2020-10-29T19:35:52:389
-10,664811	-6,257231	-0,267996	2020-10-29T19:35:52:406
-11,188839	-6,872187	-0,358923	2020-10-29T19:35:52:430
-11,406586	-7,477571	-0,801596	2020-10-29T19:35:52:447
-11,100305	-8,401200	-1,524228	2020-10-29T19:35:52:471
-11,215159	-8,824730	-1,938186	2020-10-29T19:35:52:486
-11,480762	-9,868000	-2,596212	2020-10-29T19:35:52:510
-11,935399	-10,980663	-3,349952	2020-10-29T19:35:52:527
-12,052648	-11,825329	-3,330809	2020-10-29T19:35:52:550
-11,521441	-12,413965	-4,412365	2020-10-29T19:35:52:567
-10,889735	-12,476178	-5,603990	2020-10-29T19:35:52:591
-10,396815	-13,103097	-6,106483	2020-10-29T19:35:52:606
-10,174281	-13,179667	-6,714260	2020-10-29T19:35:52:630
-9,899107	-12,650853	-7,051648	2020-10-29T19:35:52:647
-9,006584	-12,509676	-7,680960	2020-10-29T19:35:52:670
-8,068598	-13,775480	-8,494520	2020-10-29T19:35:52:687
-7,872386	-14,545969	-9,279366	2020-10-29T19:35:52:711
-8,171489	-14,727824	-9,315259	2020-10-29T19:35:52:727
-7,511070	-14,069797	-8,941978	2020-10-29T19:35:52:751
-6,836295	-12,552748	-7,731210	2020-10-29T19:35:52:767
-6,532406	-10,411172	-6,458229	2020-10-29T19:35:52:789
-6,161518	-7,922636	-3,512664	2020-10-29T19:35:52:807
-4,898108	-5,173282	-1,560120	2020-10-29T19:35:52:831
-4,067799	-3,749553	-0,559920	2020-10-29T19:35:52:847
-2,926422	-2,852244	0,801596	2020-10-29T19:35:52:871
-1,782653	-2,294717	2,163112	2020-10-29T19:35:52:887
-1,091127	-2,483750	4,084548	2020-10-29T19:35:52:911
-0,167498	-3,742374	4,950750	2020-10-29T19:35:52:927
0,794417	-4,125226	6,321837	2020-10-29T19:35:52:953
1,749153	-3,610770	5,235496	2020-10-29T19:35:52:967
3,014957	-0,985843	5,907879	2020-10-29T19:35:52:991
5,472386	0,457029	4,833502	2020-10-29T19:35:53:008
7,934600	-1,289732	3,017349	2020-10-29T19:35:53:030
10,009177	-4,883751	1,789831	2020-10-29T19:35:53:048
11,621940	-6,498906	2,038685	2020-10-29T19:35:53:072
11,243874	-5,924629	2,323431	2020-10-29T19:35:53:087
11,030912	-5,355137	1,737189	2020-10-29T19:35:53:110
11,708081	-5,127820	1,517050	2020-10-29T19:35:53:128
11,612368	-4,979464	2,196611	2020-10-29T19:35:53:151
11,021341	-3,852444	3,388237	2020-10-29T19:35:53:168
10,526026	-3,512664	2,658426	2020-10-29T19:35:53:191
10,499706	-4,768896	2,438286	2020-10-29T19:35:53:207
9,772287	-5,919843	2,277967	2020-10-29T19:35:53:232
8,700303	-5,338387	1,421337	2020-10-29T19:35:53:248
7,489535	-4,476971	2,043471	2020-10-29T19:35:53:270
8,070991	-5,919843	2,017149	2020-10-29T19:35:53:288
7,747960	-6,716653	2,019542	2020-10-29T19:35:53:311
7,231110	-7,432107	2,285146	2020-10-29T19:35:53:328
7,439285	-7,451250	1,773082	2020-10-29T19:35:53:351
7,219146	-6,731010	1,134198	2020-10-29T19:35:53:368
7,245467	-6,431907	1,347159	2020-10-29T19:35:53:391
7,001399	-6,604190	1,919044	2020-10-29T19:35:53:408
6,934400	-6,309873	2,462214	2020-10-29T19:35:53:432
6,448657	-6,381658	3,661019	2020-10-29T19:35:53:448
5,546563	-5,936593	5,082355	2020-10-29T19:35:53:473
4,670790	-5,848059	6,400801	2020-10-29T19:35:53:488
3,964907	-6,460621	5,178068	2020-10-29T19:35:53:511
3,792624	-6,262017	1,543371	2020-10-29T19:35:53:528
3,670590	-1,911865	0,990629	2020-10-29T19:35:53:552
2,658426	3,058028	2,524428	2020-10-29T19:35:53:568
1,619941	2,254039	2,744568	2020-10-29T19:35:53:591
2,615355	0,126820	1,512264	2020-10-29T19:35:53:608
4,910072	1,694118	-0,502493	2020-10-29T19:35:53:632
7,207181	6,534799	-0,088534	2020-10-29T19:35:53:649
6,362515	9,566505	1,057628	2020-10-29T19:35:53:672
6,668797	5,659025	2,450250	2020-10-29T19:35:53:688
8,695518	3,014957	3,584448	2020-10-29T19:35:53:712
9,449257	3,251846	4,776074	2020-10-29T19:35:53:728
9,315259	4,235296	5,319244	2020-10-29T19:35:53:750
8,939585	8,094919	5,927022	2020-10-29T19:35:53:768
7,996813	8,336594	5,280960	2020-10-29T19:35:53:792
8,630912	4,878965	5,072784	2020-10-29T19:35:53:808
9,915856	3,084348	4,290331	2020-10-29T19:35:53:831
10,621738	3,675375	4,333402	2020-10-29T19:35:53:848
10,889735	5,484349	3,661019	2020-10-29T19:35:53:872
10,155140	4,208975	2,663212	2020-10-29T19:35:53:888
10,942378	1,057628	2,823531	2020-10-29T19:35:53:912
10,463813	0,993021	2,431108	2020-10-29T19:35:53:928
9,446864	0,239282	2,033899	2020-10-29T19:35:53:953
9,078369	-0,007178	1,320838	2020-10-29T19:35:53:968
8,822337	0,325424	1,746760	2020-10-29T19:35:53:991
9,047262	0,882952	2,864209	2020-10-29T19:35:54:008
9,150154	1,040878	2,227718	2020-10-29T19:35:54:032
8,336594	3,192025	1,698904	2020-10-29T19:35:54:048
7,276574	6,656832	1,395016	2020-10-29T19:35:54:089
6,910471	5,297709	0,461815	2020-10-29T19:35:54:091
8,264810	2,486143	0,021535	2020-10-29T19:35:54:112
9,609575	2,026721	-1,194018	2020-10-29T19:35:54:129
9,683753	3,017349	-2,636890	2020-10-29T19:35:54:152
7,948956	1,395016	-3,737589	2020-10-29T19:35:54:168
7,360322	-3,168097	-2,995814	2020-10-29T19:35:54:192
7,453642	-7,838887	-3,141776	2020-10-29T19:35:54:208
6,415157	-10,861022	-4,766503	2020-10-29T19:35:54:232
5,548956	-14,873785	-6,711867	2020-10-29T19:35:54:249
5,797810	-17,194822	-6,927221	2020-10-29T19:35:54:273
7,101898	-18,391235	-6,587440	2020-10-29T19:35:54:288
7,671390	-15,991233	-5,166104	2020-10-29T19:35:54:311
6,678369	-12,380465	-4,668397	2020-10-29T19:35:54:329
4,345366	-7,690532	-1,572084	2020-10-29T19:35:54:353
0,923629	-3,254239	0,200997	2020-10-29T19:35:54:369
-1,758725	3,802195	-5,218746	2020-10-29T19:35:54:392
-3,780660	18,927227	1,031307	2020-10-29T19:35:54:409
-3,438486	22,387249	6,979864	2020-10-29T19:35:54:433
-0,497707	13,330415	10,918450	2020-10-29T19:35:54:449
-1,495514	6,656832	12,296716	2020-10-29T19:35:54:471
-2,443072	1,768296	13,270595	2020-10-29T19:35:54:489
-1,292124	-0,186640	11,224730	2020-10-29T19:35:54:512
0,284746	4,800002	10,779665	2020-10-29T19:35:54:528
-0,799203	9,712467	9,375079	2020-10-29T19:35:54:552
-1,000200	8,346166	7,532606	2020-10-29T19:35:54:569
-0,770489	7,951349	7,456036	2020-10-29T19:35:54:594
-0,423530	8,451449	8,547162	2020-10-29T19:35:55:066
-0,526421	7,896315	9,384650	2020-10-29T19:35:55:093
-0,593420	6,647261	9,198010	2020-10-29T19:35:55:094
-0,478565	6,075377	8,657232	2020-10-29T19:35:55:094
-0,717847	5,508278	8,439486	2020-10-29T19:35:55:095
-1,203590	5,328816	8,204988	2020-10-29T19:35:55:096
-1,208375	5,668597	7,673782	2020-10-29T19:35:55:096
-1,031307	6,168696	6,908078	2020-10-29T19:35:55:097
-0,875773	6,017949	6,183054	2020-10-29T19:35:55:097
-0,579063	5,900701	5,927022	2020-10-29T19:35:55:098
-0,679562	5,371887	6,350551	2020-10-29T19:35:55:099
-1,115055	4,694718	6,817152	2020-10-29T19:35:55:101
-1,184447	4,321437	7,700103	2020-10-29T19:35:55:102
-1,004985	4,063013	7,913064	2020-10-29T19:35:55:102
-0,722632	4,436293	7,482357	2020-10-29T19:35:55:103
-0,497707	3,926622	7,350751	2020-10-29T19:35:55:103
-0,653241	3,297310	7,752745	2020-10-29T19:35:55:103
-0,619741	2,715853	8,901299	2020-10-29T19:35:55:104
-0,459422	2,859423	9,152546	2020-10-29T19:35:55:104
0,076570	3,579663	8,999406	2020-10-29T19:35:55:105
0,105284	3,515057	9,099905	2020-10-29T19:35:55:105
0,026321	3,345166	8,870193	2020-10-29T19:35:55:105
0,098106	3,402594	8,927622	2020-10-29T19:35:55:106
0,270389	3,864408	9,032906	2020-10-29T19:35:55:109
0,303888	4,079762	8,989835	2020-10-29T19:35:55:110
0,148355	4,118048	9,037691	2020-10-29T19:35:55:111
0,069392	4,103691	9,085547	2020-10-29T19:35:55:128
0,150748	4,228118	9,198010	2020-10-29T19:35:55:153
0,263210	4,295116	9,334401	2020-10-29T19:35:55:177
0,236889	4,252046	9,372685	2020-10-29T19:35:55:224
0,246461	4,278367	9,322437	2020-10-29T19:35:55:241
0,241675	4,342973	8,925228	2020-10-29T19:35:55:242
0,284746	4,498507	8,650054	2020-10-29T19:35:55:254
0,382852	4,567898	8,336594	2020-10-29T19:35:55:271
0,445065	4,491328	8,070991	2020-10-29T19:35:55:287
0,507278	4,484150	7,934600	2020-10-29T19:35:55:322
0,736989	4,421937	7,977671	2020-10-29T19:35:55:332
0,818345	4,467400	8,228917	2020-10-29T19:35:55:352
0,346959	4,223332	9,064013	2020-10-29T19:35:55:375
-0,294317	3,641876	9,260223	2020-10-29T19:35:55:392
-0,447458	3,445665	8,913264	2020-10-29T19:35:55:408
-0,351745	3,299703	8,755339	2020-10-29T19:35:55:437
-0,323031	2,904887	8,647661	2020-10-29T19:35:55:448
-0,480957	2,411965	8,544770	2020-10-29T19:35:55:475
-0,514457	2,182254	8,082954	2020-10-29T19:35:55:488
-0,454636	2,309074	7,374680	2020-10-29T19:35:55:514
-0,122034	2,746960	6,080163	2020-10-29T19:35:55:541
0,122034	2,620141	5,443672	2020-10-29T19:35:55:554
0,179462	2,026721	5,247460	2020-10-29T19:35:55:573
0,435494	1,734797	5,111069	2020-10-29T19:35:55:591
0,756132	1,550549	4,673182	2020-10-29T19:35:55:608
1,055235	1,789831	4,613362	2020-10-29T19:35:55:634
1,069592	1,954936	4,711468	2020-10-29T19:35:55:649
0,390030	1,244268	5,245068	2020-10-29T19:35:55:744
-0,698704	0,200997	5,498707	2020-10-29T19:35:55:745
-1,495514	-0,361316	5,257031	2020-10-29T19:35:55:745
-2,153540	-1,122234	5,618347	2020-10-29T19:35:55:746
-3,519842	-2,206182	6,486942	2020-10-29T19:35:56:082
-5,386244	-3,840480	6,259624	2020-10-29T19:35:56:083
-6,704689	-4,469792	4,500899	2020-10-29T19:35:56:083
-7,585248	-4,031906	3,297310	2020-10-29T19:35:56:084
-8,300702	-4,130012	3,201597	2020-10-29T19:35:56:084
-9,348758	-4,089334	3,180061	2020-10-29T19:35:56:085
-10,923235	-3,603590	2,818745	2020-10-29T19:35:56:085
-12,827922	-3,402594	2,376073	2020-10-29T19:35:56:085
-15,034104	-3,531806	1,947758	2020-10-29T19:35:56:086
-17,551353	-3,931407	1,842474	2020-10-29T19:35:56:088
-19,415363	-5,312066	2,371287	2020-10-29T19:35:56:089
-18,929621	-7,755138	2,306681	2020-10-29T19:35:56:091
-16,778471	-10,317852	1,629512	2020-10-29T19:35:56:092
-14,100904	-11,980864	1,155733	2020-10-29T19:35:56:093
-11,933006	-9,420543	0,263210	2020-10-29T19:35:56:093
-11,277373	-3,960121	-0,583849	2020-10-29T19:35:56:093
-11,387443	-2,663212	-0,368495	2020-10-29T19:35:56:094
-10,892128	-1,306481	0,145962	2020-10-29T19:35:56:094
-10,604989	-1,438086	1,067199	2020-10-29T19:35:56:112
-10,396815	-1,665405	1,720440	2020-10-29T19:35:56:129
-10,193424	-2,478964	2,163112	2020-10-29T19:35:56:166
-10,521241	-3,122634	2,857030	2020-10-29T19:35:56:169
-10,973484	-3,297310	3,304488	2020-10-29T19:35:56:192
-11,014162	-3,002992	2,438286	2020-10-29T19:35:56:239
-10,822738	-2,641676	1,395016	2020-10-29T19:35:56:240
-10,920842	-2,945565	0,741775	2020-10-29T19:35:56:250
-10,985448	-3,194418	0,409173	2020-10-29T19:35:56:286
-10,705488	-1,150948	0,129212	2020-10-29T19:35:56:288
-10,621738	-0,086142	-0,045464	2020-10-29T19:35:56:313
-10,669596	-0,409173	-0,378066	2020-10-29T19:35:56:330
-10,159925	-0,593420	-0,437887	2020-10-29T19:35:56:354
-9,399008	-1,014557	-0,435494	2020-10-29T19:35:56:369
-8,803195	-1,201197	-0,342174	2020-10-29T19:35:56:393
-8,501699	-1,335195	-0,270389	2020-10-29T19:35:56:410
-8,422735	-1,634298	-0,370888	2020-10-29T19:35:56:436
-8,331808	-2,000400	-0,349352	2020-10-29T19:35:56:451
-8,061419	-2,268396	-0,234497	2020-10-29T19:35:56:476
-7,800602	-2,376073	-0,478565	2020-10-29T19:35:56:491
-7,534998	-2,574677	-0,638884	2020-10-29T19:35:56:520
-7,905886	-2,763710	-0,839881	2020-10-29T19:35:56:533
-8,439486	-2,790031	-1,038485	2020-10-29T19:35:56:557
-8,532805	-2,758924	-1,402194	2020-10-29T19:35:56:587
-8,477771	-2,737389	-1,591227	2020-10-29T19:35:56:595
-8,554340	-2,787638	-1,679761	2020-10-29T19:35:56:610
-8,982656	-2,998207	-1,665405	2020-10-29T19:35:56:634
-9,573684	-3,144169	-1,641476	2020-10-29T19:35:56:650
-10,334601	-3,400201	-1,531406	2020-10-29T19:35:56:676
-10,908878	-3,708875	-1,452443	2020-10-29T19:35:56:696
-11,117055	-3,993621	-1,404587	2020-10-29T19:35:56:713
-10,801201	-4,185047	-1,112662	2020-10-29T19:35:56:730
-10,516455	-4,115655	-0,796810	2020-10-29T19:35:56:755
-10,250853	-3,859623	-0,669990	2020-10-29T19:35:56:771
-10,231709	-3,467200	-0,423530	2020-10-29T19:35:56:797
-10,246067	-3,223132	0,019143	2020-10-29T19:35:56:811
-10,145569	-3,110669	0,337388	2020-10-29T19:35:56:836
-10,269995	-2,904887	0,875773	2020-10-29T19:35:56:851
-10,669596	-3,055635	4,130012	2020-10-29T19:35:56:874
-11,923435	1,514657	8,319844	2020-10-29T19:35:56:891
-10,700702	2,115255	5,879165	2020-10-29T19:35:56:917
-9,111869	-0,887737	3,287738	2020-10-29T19:35:56:931
-9,145369	-1,653440	2,359323	2020-10-29T19:35:56:955
-10,523634	-4,223332	3,488736	2020-10-29T19:35:56:971
-10,327423	-6,520442	0,775275	2020-10-29T19:35:56:995
-8,417950	-4,929214	-0,569492	2020-10-29T19:35:57:011
-7,743174	-2,194218	-1,603191	2020-10-29T19:35:57:036
-7,920243	-0,681954	-1,294517	2020-10-29T19:35:57:051
-8,322237	-0,863809	-1,043271	2020-10-29T19:35:57:076
-8,295916	-1,387837	-0,787239	2020-10-29T19:35:57:114
-8,051848	-1,698904	-0,689133	2020-10-29T19:35:57:117
-8,341379	-2,043471	-0,794417	2020-10-29T19:35:57:138
-9,238688	-2,720639	-0,954736	2020-10-29T19:35:57:155
-9,595219	-3,287738	-1,107877	2020-10-29T19:35:57:172
-9,908678	-3,665804	-1,701297	2020-10-29T19:35:57:195
-11,263017	-3,881158	-2,242075	2020-10-29T19:35:57:210
-12,847065	-4,070191	-1,806581	2020-10-29T19:35:57:236
-12,394822	-4,386044	-1,514657	2020-10-29T19:35:57:252
-11,129018	-4,553542	-1,380659	2020-10-29T19:35:57:276
-10,877771	-4,378866	-0,995414	2020-10-29T19:35:57:291
-10,686346	-4,118048	-0,830309	2020-10-29T19:35:57:315
-9,482756	-3,859623	-0,748954	2020-10-29T19:35:57:331
