x	y	z	ts
-5,810000	2,660000	1,260000	2020-10-29T19:34:46:748
4,410000	-19,600000	48,020000	2020-10-29T19:34:46:748
5,950000	-12,880000	50,400002	2020-10-29T19:34:46:804
0,770000	-3,360000	62,090000	2020-10-29T19:34:46:808
0,770000	-3,360000	62,090000	2020-10-29T19:34:46:809
0,770000	-3,360000	62,090000	2020-10-29T19:34:46:812
12,880000	0,980000	68,040001	2020-10-29T19:34:46:815
20,020000	4,340000	74,970001	2020-10-29T19:34:46:836
14,140000	8,540000	80,709999	2020-10-29T19:34:46:855
1,260000	11,830000	85,470001	2020-10-29T19:34:46:875
-17,990000	14,420000	88,550003	2020-10-29T19:34:46:895
-41,509998	17,570000	91,629997	2020-10-29T19:34:46:915
-60,060001	20,860001	94,360001	2020-10-29T19:34:46:936
-65,239998	23,799999	97,720001	2020-10-29T19:34:46:955
-62,439999	27,719999	99,889999	2020-10-29T19:34:46:975
-60,410000	30,030001	101,080002	2020-10-29T19:34:46:996
-63,209999	32,130001	102,199997	2020-10-29T19:34:47:015
-67,129997	34,299999	103,389999	2020-10-29T19:34:47:037
-70,980003	38,220001	103,949997	2020-10-29T19:34:47:055
-73,360001	43,959999	105,980003	2020-10-29T19:34:47:076
-73,360001	46,200001	106,400002	2020-10-29T19:34:47:095
-75,320000	49,560001	108,360001	2020-10-29T19:34:47:115
-82,320000	53,760002	110,739998	2020-10-29T19:34:47:136
-96,320000	57,330002	113,610001	2020-10-29T19:34:47:155
-115,779999	60,200001	119,279999	2020-10-29T19:34:47:176
-137,339996	63,490002	127,540001	2020-10-29T19:34:47:196
-153,369995	67,550003	138,460007	2020-10-29T19:34:47:215
-151,550003	66,500000	149,380005	2020-10-29T19:34:47:237
-141,259995	62,650002	155,470001	2020-10-29T19:34:47:255
-139,930008	56,630001	155,610001	2020-10-29T19:34:47:284
-152,460007	51,380001	150,430008	2020-10-29T19:34:47:295
-173,949997	49,700001	141,330002	2020-10-29T19:34:47:316
-197,259995	50,259998	131,039993	2020-10-29T19:34:47:342
-216,790009	52,990002	120,750000	2020-10-29T19:34:47:368
-236,389999	58,660000	110,459999	2020-10-29T19:34:47:484
-255,149994	66,150002	104,160004	2020-10-29T19:34:47:484
-262,149994	72,239998	101,570000	2020-10-29T19:34:47:485
-262,920013	75,599998	101,290001	2020-10-29T19:34:47:486
-256,200012	75,389999	106,330002	2020-10-29T19:34:47:486
-245,770004	72,870003	112,139999	2020-10-29T19:34:47:486
-224,000000	66,220001	119,000000	2020-10-29T19:34:47:495
-192,639999	56,139999	121,239998	2020-10-29T19:34:47:515
-154,279999	42,279999	119,699997	2020-10-29T19:34:47:536
-112,559998	31,080000	110,739998	2020-10-29T19:34:47:556
-73,989998	25,480000	97,580002	2020-10-29T19:34:47:576
-44,869999	22,960001	81,269997	2020-10-29T19:34:47:596
-29,330000	20,090000	64,120003	2020-10-29T19:34:47:615
-31,710001	19,110001	46,130001	2020-10-29T19:34:47:637
-49,279999	21,629999	32,689999	2020-10-29T19:34:47:656
-73,639999	23,590000	24,290001	2020-10-29T19:34:47:679
-93,309998	23,170000	20,020000	2020-10-29T19:34:47:695
-108,639999	21,490000	15,960000	2020-10-29T19:34:47:717
-116,900002	20,719999	13,370000	2020-10-29T19:34:47:736
-119,419998	21,629999	15,190001	2020-10-29T19:34:47:758
-118,790001	20,860001	11,410000	2020-10-29T19:34:47:775
-108,080002	21,490000	11,900000	2020-10-29T19:34:47:799
-90,300003	22,120001	12,320000	2020-10-29T19:34:47:816
-73,290001	20,930000	10,990000	2020-10-29T19:34:47:839
-68,180000	19,320000	9,730000	2020-10-29T19:34:47:856
-63,000000	18,129999	8,680000	2020-10-29T19:34:47:879
-61,110001	17,360001	6,650000	2020-10-29T19:34:47:896
-59,500000	18,549999	6,720000	2020-10-29T19:34:47:919
-51,869999	15,680000	5,950000	2020-10-29T19:34:47:944
-39,340000	8,120000	2,870000	2020-10-29T19:34:47:971
-29,400000	3,220000	-2,940000	2020-10-29T19:34:47:976
-16,660000	1,960000	-7,560000	2020-10-29T19:34:47:999
-2,170000	-0,980000	-13,790000	2020-10-29T19:34:48:016
9,030000	-5,040000	-19,040001	2020-10-29T19:34:48:039
15,610000	-7,910000	-22,049999	2020-10-29T19:34:48:058
14,280000	-11,270000	-25,900000	2020-10-29T19:34:48:081
5,110000	-16,520000	-30,240000	2020-10-29T19:34:48:098
-5,670000	-17,990000	-32,619999	2020-10-29T19:34:48:120
-12,110000	-17,570000	-36,330002	2020-10-29T19:34:48:139
-12,810000	-19,460001	-41,090000	2020-10-29T19:34:48:162
-7,910000	-16,520000	-43,119999	2020-10-29T19:34:48:178
3,990000	-10,290000	-44,099998	2020-10-29T19:34:48:200
21,700001	-6,720000	-44,029999	2020-10-29T19:34:48:218
48,580002	-1,610000	-43,540001	2020-10-29T19:34:48:243
106,680000	20,580000	-38,009998	2020-10-29T19:34:48:258
227,360001	35,279999	-27,719999	2020-10-29T19:34:48:285
24,570000	54,950001	-28,840000	2020-10-29T19:34:56:117
50,540001	59,080002	-19,389999	2020-10-29T19:34:56:123
74,900002	60,970001	-8,400000	2020-10-29T19:34:56:145
98,769997	58,240002	3,360000	2020-10-29T19:34:56:150
122,709999	52,360001	13,580000	2020-10-29T19:34:56:156
147,419998	46,480000	23,309999	2020-10-29T19:34:56:170
167,300003	39,549999	30,799999	2020-10-29T19:34:56:194
177,100006	34,090000	33,529999	2020-10-29T19:34:56:212
183,750000	30,380001	36,400002	2020-10-29T19:34:56:237
188,229996	28,070000	36,470001	2020-10-29T19:34:56:253
186,690002	25,690001	34,580002	2020-10-29T19:34:56:276
174,509995	20,790001	32,619999	2020-10-29T19:34:56:292
140,630005	17,920000	30,520000	2020-10-29T19:34:56:315
85,330002	17,430000	30,870001	2020-10-29T19:34:56:331
23,730000	4,830000	28,350000	2020-10-29T19:34:56:357
-35,279999	-7,560000	24,080000	2020-10-29T19:34:56:373
-85,330002	-10,850000	17,010000	2020-10-29T19:34:56:394
-112,419998	-14,350000	10,780000	2020-10-29T19:34:56:412
-119,980003	-20,650000	4,060000	2020-10-29T19:34:56:436
-112,770004	-23,799999	0,420000	2020-10-29T19:34:56:452
-94,919998	-21,700001	1,260000	2020-10-29T19:34:56:474
-71,050003	-16,870001	4,480000	2020-10-29T19:34:56:492
-44,310001	-12,950000	9,520000	2020-10-29T19:34:56:516
-15,400000	-13,580000	17,290001	2020-10-29T19:34:56:532
9,520000	-16,170000	23,799999	2020-10-29T19:34:56:556
28,139999	-14,280000	31,360001	2020-10-29T19:34:56:572
28,980000	-12,530000	35,070000	2020-10-29T19:34:56:595
21,770000	-12,250000	35,770000	2020-10-29T19:34:56:612
7,140000	-11,270000	32,759998	2020-10-29T19:34:56:634
-13,230000	-4,830000	27,160000	2020-10-29T19:34:56:652
-33,880001	5,740000	21,350000	2020-10-29T19:34:56:675
-36,610001	17,080000	17,290001	2020-10-29T19:34:56:693
-15,400000	25,410000	14,910000	2020-10-29T19:34:56:714
23,170000	26,250000	11,550000	2020-10-29T19:34:56:732
72,940002	21,280001	10,220000	2020-10-29T19:34:56:758
123,410004	20,860001	7,700000	2020-10-29T19:34:56:771
161,350006	21,420000	4,200000	2020-10-29T19:34:56:794
183,330002	18,900000	-0,210000	2020-10-29T19:34:56:812
191,169998	14,070000	-4,550000	2020-10-29T19:34:56:835
182,770004	11,340000	-9,310000	2020-10-29T19:34:56:853
164,220001	12,460000	-11,830000	2020-10-29T19:34:56:875
142,240005	14,630000	-12,460000	2020-10-29T19:34:56:892
123,830002	12,460000	-13,090000	2020-10-29T19:34:56:915
111,160004	7,420000	-14,490000	2020-10-29T19:34:56:932
103,320000	5,600000	-15,610000	2020-10-29T19:34:56:955
99,330002	9,590000	-16,450001	2020-10-29T19:34:56:972
99,470001	14,350000	-17,500000	2020-10-29T19:34:56:997
106,470001	16,590000	-18,620001	2020-10-29T19:34:57:011
117,320000	17,360001	-20,299999	2020-10-29T19:34:57:035
128,449997	14,910000	-23,520000	2020-10-29T19:34:57:052
138,039993	14,840000	-27,230000	2020-10-29T19:34:57:075
146,789993	18,760000	-30,380001	2020-10-29T19:34:57:092
154,699997	24,710001	-33,389999	2020-10-29T19:34:57:115
162,820007	32,759998	-34,299999	2020-10-29T19:34:57:132
178,990005	36,189999	-33,180000	2020-10-29T19:34:57:157
200,410004	35,420002	-32,270000	2020-10-29T19:34:57:172
207,410004	34,230000	-31,780001	2020-10-29T19:34:57:195
195,580002	31,219999	-32,340000	2020-10-29T19:34:57:212
166,250000	25,480000	-34,439999	2020-10-29T19:34:57:237
130,270004	26,809999	-34,650002	2020-10-29T19:34:57:252
98,419998	32,060001	-35,630001	2020-10-29T19:34:57:274
89,180000	30,870001	-37,240002	2020-10-29T19:34:57:292
97,090004	25,969999	-40,740002	2020-10-29T19:34:57:316
109,340004	22,400000	-46,900002	2020-10-29T19:34:57:332
117,669998	20,299999	-54,529999	2020-10-29T19:34:57:356
116,760002	19,740000	-64,820000	2020-10-29T19:34:57:372
99,120003	20,580000	-78,400002	2020-10-29T19:34:57:396
72,309998	18,480000	-92,120003	2020-10-29T19:34:57:412
54,040001	23,030001	-109,760002	2020-10-29T19:34:57:435
64,260002	29,120001	-121,660004	2020-10-29T19:34:57:453
95,129997	21,000000	-134,050003	2020-10-29T19:34:57:478
123,830002	9,870000	-151,339996	2020-10-29T19:34:57:492
131,320007	12,530000	-160,020004	2020-10-29T19:34:57:515
123,129997	17,360001	-161,490005	2020-10-29T19:34:57:532
112,349998	16,799999	-156,940002	2020-10-29T19:34:57:557
101,919998	20,440001	-147,000000	2020-10-29T19:34:57:572
92,470001	26,389999	-136,289993	2020-10-29T19:34:57:595
73,010002	35,000000	-119,699997	2020-10-29T19:34:57:612
59,080002	37,240002	-104,580002	2020-10-29T19:34:57:636
55,580002	38,009998	-82,389999	2020-10-29T19:34:57:653
62,580002	48,090000	-73,919998	2020-10-29T19:34:57:675
80,080002	46,759998	-63,980000	2020-10-29T19:34:57:692
90,230003	44,240002	-59,220001	2020-10-29T19:34:57:717
93,169998	49,000000	-53,970001	2020-10-29T19:34:57:732
113,680000	54,389999	-45,150002	2020-10-29T19:34:57:757
119,910004	56,490002	-38,990002	2020-10-29T19:34:57:772
97,160004	59,709999	-43,259998	2020-10-29T19:34:57:796
64,959999	61,880001	-49,279999	2020-10-29T19:34:57:813
31,920000	56,910000	-46,200001	2020-10-29T19:34:57:836
2,940000	59,220001	-36,750000	2020-10-29T19:34:57:853
-6,790000	64,050003	-32,060001	2020-10-29T19:34:57:877
-10,850000	72,660004	-21,420000	2020-10-29T19:34:57:893
-25,969999	79,029999	-4,830000	2020-10-29T19:34:57:916
-54,670002	78,680000	5,740000	2020-10-29T19:34:57:933
-100,169998	94,500000	15,820000	2020-10-29T19:34:57:958
-152,809998	114,870003	30,380001	2020-10-29T19:34:57:973
-180,809998	136,009995	51,380001	2020-10-29T19:34:57:995
-193,479996	140,839996	73,430000	2020-10-29T19:34:58:013
-228,550003	138,250000	89,250000	2020-10-29T19:34:58:037
-264,529999	134,750000	100,940002	2020-10-29T19:34:58:054
-284,410004	125,440002	99,540001	2020-10-29T19:34:58:076
-284,059998	109,970001	86,940002	2020-10-29T19:34:58:092
-257,179993	97,720001	70,279999	2020-10-29T19:34:58:117
-241,430008	77,910004	51,029999	2020-10-29T19:34:58:133
-232,750000	62,860001	40,459999	2020-10-29T19:34:58:157
-186,339996	63,840000	28,630001	2020-10-29T19:34:58:173
-151,479996	59,709999	9,380000	2020-10-29T19:34:58:198
-126,419998	46,410000	-6,230000	2020-10-29T19:34:58:213
-119,000000	41,299999	-18,549999	2020-10-29T19:34:58:236
-108,989998	35,910000	-28,420000	2020-10-29T19:34:58:254
-101,430000	31,990000	-33,670002	2020-10-29T19:34:58:276
-70,910004	31,430000	-32,270000	2020-10-29T19:34:58:293
-45,220001	36,540001	-29,400000	2020-10-29T19:34:58:316
-44,170002	38,430000	-30,240000	2020-10-29T19:34:58:333
-57,610001	42,070000	-24,990000	2020-10-29T19:34:58:357
-55,580002	44,799999	-14,770000	2020-10-29T19:34:58:373
-46,060001	44,310001	-13,090000	2020-10-29T19:34:58:396
-37,240002	31,010000	-7,490000	2020-10-29T19:34:58:414
-40,880001	19,040001	-6,860000	2020-10-29T19:34:58:438
-38,570000	5,250000	-6,020000	2020-10-29T19:34:58:453
-35,209999	-2,450000	-10,850000	2020-10-29T19:34:58:476
-28,000000	-10,360000	-18,549999	2020-10-29T19:34:58:493
-16,940001	-16,100000	-24,360001	2020-10-29T19:34:58:516
-18,760000	-15,260000	-27,230000	2020-10-29T19:34:58:533
-23,940001	-10,920000	-28,559999	2020-10-29T19:34:58:556
-24,290001	-6,090000	-29,469999	2020-10-29T19:34:58:573
-25,129999	4,480000	-28,559999	2020-10-29T19:34:58:597
-29,960001	15,190001	-26,740000	2020-10-29T19:34:58:613
-34,860001	21,139999	-25,830000	2020-10-29T19:34:58:636
-35,420002	19,879999	-23,520000	2020-10-29T19:34:58:656
-31,710001	15,190001	-21,139999	2020-10-29T19:34:58:678
-22,190001	12,110000	-16,379999	2020-10-29T19:34:58:693
-17,360001	11,410000	-12,600000	2020-10-29T19:34:58:716
-12,040000	14,420000	-10,430000	2020-10-29T19:34:58:734
-5,460000	20,860001	-7,560000	2020-10-29T19:34:58:757
-12,600000	24,360001	-5,950000	2020-10-29T19:34:58:774
-20,370001	29,540001	1,190000	2020-10-29T19:34:58:796
-21,420000	30,870001	9,590000	2020-10-29T19:34:58:813
-21,070000	27,020000	16,030001	2020-10-29T19:34:58:837
-14,070000	21,910000	18,620001	2020-10-29T19:34:58:854
0,210000	17,219999	21,629999	2020-10-29T19:34:58:876
13,370000	15,260000	23,520000	2020-10-29T19:34:58:894
12,670000	14,980000	25,620001	2020-10-29T19:34:58:918
8,330000	16,450001	28,770000	2020-10-29T19:34:58:933
10,360000	18,200001	31,710001	2020-10-29T19:34:58:957
12,390000	19,809999	33,670002	2020-10-29T19:34:58:974
11,550000	20,719999	34,439999	2020-10-29T19:34:58:997
9,030000	21,210001	34,580002	2020-10-29T19:34:59:014
4,340000	20,860001	33,389999	2020-10-29T19:34:59:037
5,950000	19,110001	31,150000	2020-10-29T19:34:59:054
1,960000	19,389999	26,809999	2020-10-29T19:34:59:077
-3,710000	24,780001	23,100000	2020-10-29T19:34:59:094
-7,770000	29,049999	21,700001	2020-10-29T19:34:59:116
-4,760000	26,180000	22,049999	2020-10-29T19:34:59:134
4,970000	17,430000	20,160000	2020-10-29T19:34:59:159
11,970000	7,700000	16,379999	2020-10-29T19:34:59:174
10,710000	3,080000	11,340000	2020-10-29T19:34:59:197
6,720000	2,590000	7,770000	2020-10-29T19:34:59:214
8,050000	2,310000	5,460000	2020-10-29T19:34:59:237
9,940000	1,330000	2,800000	2020-10-29T19:34:59:254
11,200000	0,140000	2,800000	2020-10-29T19:34:59:277
11,550000	-1,470000	-2,520000	2020-10-29T19:34:59:294
11,550000	-2,870000	-3,990000	2020-10-29T19:34:59:317
12,810000	-4,130000	-3,430000	2020-10-29T19:34:59:334
14,490000	-5,040000	-1,890000	2020-10-29T19:34:59:357
15,820000	-6,020000	0,490000	2020-10-29T19:34:59:374
16,520000	-6,370000	2,170000	2020-10-29T19:34:59:398
17,430000	-5,810000	3,850000	2020-10-29T19:34:59:414
18,760000	-5,460000	4,620000	2020-10-29T19:34:59:438
18,969999	-5,740000	5,320000	2020-10-29T19:34:59:454
17,150000	-6,650000	6,300000	2020-10-29T19:34:59:477
14,350000	-5,740000	8,540000	2020-10-29T19:34:59:494
10,640000	-3,640000	12,110000	2020-10-29T19:34:59:517
9,240000	0,280000	17,219999	2020-10-29T19:34:59:534
9,660000	4,270000	23,799999	2020-10-29T19:34:59:558
10,290000	6,720000	30,730000	2020-10-29T19:34:59:574
8,750000	6,650000	35,560001	2020-10-29T19:34:59:596
5,880000	4,480000	38,290001	2020-10-29T19:34:59:614
3,360000	1,260000	39,480000	2020-10-29T19:34:59:638
3,570000	-2,520000	39,549999	2020-10-29T19:34:59:655
4,970000	-4,970000	39,200001	2020-10-29T19:34:59:677
5,320000	-5,740000	38,779999	2020-10-29T19:34:59:694
5,810000	-4,340000	38,709999	2020-10-29T19:34:59:717
5,880000	-2,730000	38,779999	2020-10-29T19:34:59:734
5,530000	-1,190000	39,689999	2020-10-29T19:34:59:758
6,160000	-1,330000	41,720001	2020-10-29T19:34:59:774
7,700000	-2,450000	44,450001	2020-10-29T19:34:59:798
11,690000	-4,900000	46,270000	2020-10-29T19:34:59:814
13,160000	-8,400000	47,110001	2020-10-29T19:34:59:837
12,600000	-11,200000	45,430000	2020-10-29T19:34:59:855
12,600000	-12,810000	42,770000	2020-10-29T19:34:59:878
11,060000	-14,980000	38,570000	2020-10-29T19:34:59:894
9,450000	-17,990000	34,020000	2020-10-29T19:34:59:917
11,830000	-22,190001	28,139999	2020-10-29T19:34:59:934
15,960000	-25,830000	21,420000	2020-10-29T19:34:59:958
17,080000	-29,330000	13,720000	2020-10-29T19:34:59:975
13,090000	-30,870001	4,270000	2020-10-29T19:34:59:997
17,780001	-34,509998	-3,500000	2020-10-29T19:35:00:014
26,320000	-37,380001	-11,200000	2020-10-29T19:35:00:038
29,400000	-38,500000	-17,850000	2020-10-29T19:35:00:055
30,450001	-35,980000	-21,770000	2020-10-29T19:35:00:077
29,680000	-31,010000	-18,549999	2020-10-29T19:35:00:094
30,450001	-26,040001	-10,010000	2020-10-29T19:35:00:119
24,850000	-21,280001	1,890000	2020-10-29T19:35:00:134
23,309999	-18,200001	15,260000	2020-10-29T19:35:00:159
25,480000	-18,549999	28,000000	2020-10-29T19:35:00:175
24,500000	-19,950001	38,849998	2020-10-29T19:35:00:198
22,750000	-20,650000	47,180000	2020-10-29T19:35:00:215
22,400000	-19,670000	53,619999	2020-10-29T19:35:00:238
23,170000	-17,920000	57,260002	2020-10-29T19:35:00:255
24,219999	-14,910000	58,310001	2020-10-29T19:35:00:278
24,500000	-9,520000	58,310001	2020-10-29T19:35:00:295
25,900000	-2,240000	59,639999	2020-10-29T19:35:00:318
28,490000	2,380000	62,650002	2020-10-29T19:35:00:335
31,639999	2,800000	65,169998	2020-10-29T19:35:00:359
36,889999	-1,330000	67,269997	2020-10-29T19:35:00:374
42,209999	-6,300000	68,529999	2020-10-29T19:35:00:398
45,990002	-10,570000	68,739998	2020-10-29T19:35:00:415
47,880001	-12,320000	67,830002	2020-10-29T19:35:00:438
47,250000	-11,970000	65,800003	2020-10-29T19:35:00:455
43,330002	-10,780000	63,279999	2020-10-29T19:35:00:478
41,160000	-9,940000	61,180000	2020-10-29T19:35:00:495
41,720001	-9,940000	60,130001	2020-10-29T19:35:00:517
42,209999	-9,940000	60,689999	2020-10-29T19:35:00:535
42,560001	-9,800000	62,160000	2020-10-29T19:35:00:558
45,290001	-10,220000	64,050003	2020-10-29T19:35:00:575
47,389999	-10,780000	66,080002	2020-10-29T19:35:00:600
48,369999	-10,920000	67,830002	2020-10-29T19:35:00:615
48,439999	-10,710000	69,370003	2020-10-29T19:35:00:638
47,529999	-10,430000	70,070000	2020-10-29T19:35:00:655
48,160000	-8,960000	70,349998	2020-10-29T19:35:00:678
47,599998	-6,230000	70,489998	2020-10-29T19:35:00:695
47,320000	-2,730000	70,840004	2020-10-29T19:35:00:718
46,340000	2,170000	71,610001	2020-10-29T19:35:00:735
46,340000	7,000000	72,940002	2020-10-29T19:35:00:760
46,900002	11,130000	73,570000	2020-10-29T19:35:00:775
46,900002	14,280000	72,800003	2020-10-29T19:35:00:798
45,990002	16,660000	70,070000	2020-10-29T19:35:00:816
44,380001	18,620001	65,730003	2020-10-29T19:35:00:839
44,170002	20,860001	60,130001	2020-10-29T19:35:00:856
43,889999	23,309999	53,480000	2020-10-29T19:35:00:878
39,270000	27,090000	49,490002	2020-10-29T19:35:00:895
27,160000	34,439999	54,320000	2020-10-29T19:35:00:919
28,980000	43,119999	57,189999	2020-10-29T19:35:00:936
33,670002	41,720001	55,510002	2020-10-29T19:35:00:959
29,889999	40,320000	51,170002	2020-10-29T19:35:00:975
25,340000	40,040001	43,820000	2020-10-29T19:35:00:999
25,340000	38,779999	34,369999	2020-10-29T19:35:01:016
25,480000	35,000000	23,240000	2020-10-29T19:35:01:038
24,570000	31,500000	10,710000	2020-10-29T19:35:01:056
25,620001	29,400000	-1,190000	2020-10-29T19:35:01:080
26,250000	29,330000	-10,640000	2020-10-29T19:35:01:096
24,150000	30,100000	-17,290001	2020-10-29T19:35:01:124
22,049999	30,450001	-20,580000	2020-10-29T19:35:01:137
19,389999	30,170000	-21,000000	2020-10-29T19:35:01:164
15,890000	29,889999	-18,830000	2020-10-29T19:35:01:187
12,110000	30,520000	-14,560000	2020-10-29T19:35:01:259
9,520000	31,150000	-9,310000	2020-10-29T19:35:01:262
9,730000	31,430000	-4,830000	2020-10-29T19:35:01:265
9,030000	30,450001	-3,150000	2020-10-29T19:35:01:269
7,140000	28,770000	-3,780000	2020-10-29T19:35:01:301
7,070000	26,809999	-6,440000	2020-10-29T19:35:01:303
7,700000	24,360001	-10,850000	2020-10-29T19:35:01:323
8,400000	22,260000	-16,100000	2020-10-29T19:35:01:342
7,000000	20,580000	-21,490000	2020-10-29T19:35:01:358
4,550000	19,320000	-26,040001	2020-10-29T19:35:01:375
1,820000	18,900000	-29,049999	2020-10-29T19:35:01:399
-0,140000	18,200001	-30,170000	2020-10-29T19:35:01:416
-2,520000	16,660000	-30,100000	2020-10-29T19:35:01:439
-5,740000	14,770000	-28,490000	2020-10-29T19:35:01:457
-7,910000	12,250000	-26,040001	2020-10-29T19:35:01:479
-8,120000	9,170000	-23,799999	2020-10-29T19:35:01:496
-7,000000	4,550000	-22,610001	2020-10-29T19:35:01:519
-6,160000	-0,140000	-22,750000	2020-10-29T19:35:01:537
-5,670000	-4,410000	-23,940001	2020-10-29T19:35:01:562
-4,690000	-7,560000	-25,969999	2020-10-29T19:35:01:576
-3,080000	-9,870000	-29,120001	2020-10-29T19:35:01:599
-1,960000	-11,270000	-33,040001	2020-10-29T19:35:01:617
-3,010000	-11,690000	-37,099998	2020-10-29T19:35:01:640
-4,410000	-12,180000	-40,250000	2020-10-29T19:35:01:657
-6,020000	-13,020000	-42,420002	2020-10-29T19:35:01:679
-6,860000	-14,210000	-42,980000	2020-10-29T19:35:01:697
-6,650000	-14,630000	-42,000000	2020-10-29T19:35:01:720
-6,160000	-13,930000	-39,759998	2020-10-29T19:35:01:737
-4,480000	-12,250000	-38,080002	2020-10-29T19:35:01:760
-3,430000	-9,380000	-37,939999	2020-10-29T19:35:01:777
-9,030000	-5,110000	-40,810001	2020-10-29T19:35:01:801
-12,320000	-3,150000	-41,930000	2020-10-29T19:35:01:816
-6,860000	-4,130000	-43,330002	2020-10-29T19:35:01:840
-10,010000	-8,120000	-43,820000	2020-10-29T19:35:01:857
-8,890000	-12,810000	-43,189999	2020-10-29T19:35:01:881
-6,160000	-15,750000	-40,459999	2020-10-29T19:35:01:897
-3,640000	-13,930000	-34,439999	2020-10-29T19:35:01:919
-0,840000	-9,730000	-24,080000	2020-10-29T19:35:01:936
-0,560000	-5,390000	-13,650000	2020-10-29T19:35:01:961
-5,460000	-2,730000	-5,110000	2020-10-29T19:35:01:977
-12,810000	-2,800000	2,240000	2020-10-29T19:35:01:999
-21,490000	-7,630000	11,130000	2020-10-29T19:35:02:017
-22,750000	-12,670000	14,630000	2020-10-29T19:35:02:040
-23,660000	-15,400000	14,210000	2020-10-29T19:35:02:057
-25,129999	-13,020000	9,940000	2020-10-29T19:35:02:079
-24,710001	-6,510000	4,480000	2020-10-29T19:35:02:098
-22,400000	-0,070000	-0,210000	2020-10-29T19:35:02:120
-18,129999	2,170000	-3,850000	2020-10-29T19:35:02:137
-13,720000	1,400000	-6,720000	2020-10-29T19:35:02:160
-12,810000	-1,330000	-7,980000	2020-10-29T19:35:02:177
-14,770000	-4,060000	-8,400000	2020-10-29T19:35:02:200
-18,270000	-5,600000	-9,590000	2020-10-29T19:35:02:217
-21,280001	-5,810000	-11,550000	2020-10-29T19:35:02:240
-23,030001	-5,880000	-14,000000	2020-10-29T19:35:02:257
-23,170000	-5,670000	-16,520000	2020-10-29T19:35:02:282
-22,750000	-4,270000	-18,410000	2020-10-29T19:35:02:297
-21,559999	-2,520000	-19,389999	2020-10-29T19:35:02:320
-17,710001	-0,980000	-20,090000	2020-10-29T19:35:02:337
-14,000000	0,630000	-20,160000	2020-10-29T19:35:02:361
-10,290000	2,170000	-20,090000	2020-10-29T19:35:02:377
-6,090000	3,990000	-19,460001	2020-10-29T19:35:02:400
-2,450000	6,440000	-18,690001	2020-10-29T19:35:02:417
-1,050000	9,590000	-17,850000	2020-10-29T19:35:02:441
-0,840000	12,530000	-17,080000	2020-10-29T19:35:02:458
-0,700000	14,560000	-16,520000	2020-10-29T19:35:02:480
-1,960000	16,240000	-16,520000	2020-10-29T19:35:02:497
-5,180000	16,660000	-17,780001	2020-10-29T19:35:02:523
-9,450000	19,040001	-20,580000	2020-10-29T19:35:02:537
-28,000000	28,210001	-19,320000	2020-10-29T19:35:02:560
-49,420002	35,209999	-11,900000	2020-10-29T19:35:02:577
-39,549999	31,150000	-4,620000	2020-10-29T19:35:02:600
-20,510000	18,830000	-1,540000	2020-10-29T19:35:02:617
-12,250000	9,660000	-2,800000	2020-10-29T19:35:02:640
-18,900000	8,470000	-6,650000	2020-10-29T19:35:02:658
-24,780001	10,430000	-11,480000	2020-10-29T19:35:02:681
-21,840000	11,760000	-16,940001	2020-10-29T19:35:02:697
-19,110001	9,730000	-24,710001	2020-10-29T19:35:02:720
-17,990000	7,630000	-33,040001	2020-10-29T19:35:02:738
-18,410000	6,020000	-40,250000	2020-10-29T19:35:02:763
-20,440001	3,010000	-45,150002	2020-10-29T19:35:02:778
-22,680000	0,280000	-47,599998	2020-10-29T19:35:02:800
-24,710001	-1,540000	-47,810001	2020-10-29T19:35:02:818
-27,860001	-1,610000	-45,639999	2020-10-29T19:35:02:841
-27,370001	0,140000	-40,670002	2020-10-29T19:35:02:858
-22,540001	2,450000	-34,509998	2020-10-29T19:35:02:880
-17,639999	2,800000	-30,380001	2020-10-29T19:35:02:898
-16,590000	-0,420000	-30,870001	2020-10-29T19:35:02:921
-17,360001	-5,810000	-36,330002	2020-10-29T19:35:02:938
-20,160000	-10,430000	-44,240002	2020-10-29T19:35:02:961
-22,750000	-13,020000	-52,500000	2020-10-29T19:35:02:979
-24,430000	-13,230000	-59,920002	2020-10-29T19:35:03:003
-30,380001	-12,180000	-65,940002	2020-10-29T19:35:03:017
-36,820000	-9,940000	-69,090004	2020-10-29T19:35:03:040
-39,619999	-8,050000	-68,599998	2020-10-29T19:35:03:058
-42,630001	-6,090000	-66,360001	2020-10-29T19:35:03:082
-44,869999	-4,970000	-62,439999	2020-10-29T19:35:03:099
-45,920002	-5,250000	-60,549999	2020-10-29T19:35:03:121
-45,570000	-6,720000	-59,779999	2020-10-29T19:35:03:138
-43,959999	-8,680000	-59,430000	2020-10-29T19:35:03:161
-43,889999	-10,640000	-60,340000	2020-10-29T19:35:03:178
-45,500000	-11,900000	-62,930000	2020-10-29T19:35:03:200
-45,709999	-12,670000	-66,919998	2020-10-29T19:35:03:218
-46,759998	-12,460000	-71,610001	2020-10-29T19:35:03:243
-47,810001	-11,830000	-76,650002	2020-10-29T19:35:03:259
-47,180000	-12,040000	-81,410004	2020-10-29T19:35:03:281
-45,639999	-12,950000	-85,050003	2020-10-29T19:35:03:298
-45,430000	-14,000000	-88,410004	2020-10-29T19:35:03:323
-48,299999	-14,560000	-91,559998	2020-10-29T19:35:03:356
-49,490002	-14,980000	-93,169998	2020-10-29T19:35:03:406
-48,580002	-17,290001	-94,080002	2020-10-29T19:35:03:407
-49,560001	-24,500000	-92,610001	2020-10-29T19:35:03:411
-37,310001	-37,660000	-86,309998	2020-10-29T19:35:03:419
-23,450001	-49,000000	-83,860001	2020-10-29T19:35:03:442
-18,129999	-54,459999	-86,940002	2020-10-29T19:35:03:469
-28,280001	-51,730000	-91,070000	2020-10-29T19:35:03:483
-41,790001	-41,299999	-91,559998	2020-10-29T19:35:03:498
-44,730000	-28,630001	-88,129997	2020-10-29T19:35:03:521
-40,880001	-20,719999	-82,599998	2020-10-29T19:35:03:539
-40,810001	-19,460001	-77,699997	2020-10-29T19:35:03:563
-43,189999	-21,350000	-75,949997	2020-10-29T19:35:03:578
-44,869999	-21,420000	-76,720001	2020-10-29T19:35:03:601
-44,939999	-17,360001	-78,470001	2020-10-29T19:35:03:618
-39,830002	-12,740000	-80,779999	2020-10-29T19:35:03:642
-36,470001	-10,850000	-83,510002	2020-10-29T19:35:03:659
-35,910000	-10,220000	-85,400002	2020-10-29T19:35:03:681
-34,230000	-9,100000	-85,750000	2020-10-29T19:35:03:698
-30,309999	-8,610000	-84,910004	2020-10-29T19:35:03:723
-26,110001	-8,400000	-83,230003	2020-10-29T19:35:03:738
-24,360001	-7,980000	-81,690002	2020-10-29T19:35:03:762
-27,020000	-7,350000	-80,709999	2020-10-29T19:35:03:778
-30,240000	-7,980000	-79,800003	2020-10-29T19:35:03:801
-33,599998	-8,330000	-77,419998	2020-10-29T19:35:03:819
-35,840000	-9,380000	-74,620003	2020-10-29T19:35:03:841
-34,160000	-12,390000	-72,169998	2020-10-29T19:35:03:859
-32,340000	-16,379999	-69,930000	2020-10-29T19:35:03:882
-30,730000	-21,280001	-67,059998	2020-10-29T19:35:03:899
-26,180000	-25,969999	-63,700001	2020-10-29T19:35:03:921
-19,950001	-29,820000	-60,480000	2020-10-29T19:35:03:939
-17,430000	-33,529999	-57,959999	2020-10-29T19:35:03:963
-14,560000	-36,610001	-56,770000	2020-10-29T19:35:03:978
-12,040000	-39,619999	-57,260002	2020-10-29T19:35:04:002
-6,160000	-45,360001	-60,200001	2020-10-29T19:35:04:019
-0,140000	-49,209999	-61,389999	2020-10-29T19:35:04:042
10,640000	-50,470001	-59,709999	2020-10-29T19:35:04:060
18,830000	-49,070000	-53,060001	2020-10-29T19:35:04:082
25,410000	-41,299999	-43,400002	2020-10-29T19:35:04:099
28,350000	-34,020000	-32,410000	2020-10-29T19:35:04:123
26,460001	-25,900000	-22,750000	2020-10-29T19:35:04:139
24,150000	-20,440001	-12,950000	2020-10-29T19:35:04:162
38,570000	-16,590000	5,460000	2020-10-29T19:35:04:179
62,369999	-21,420000	23,170000	2020-10-29T19:35:04:204
92,610001	-28,770000	43,400002	2020-10-29T19:35:04:219
131,320007	-38,360001	62,930000	2020-10-29T19:35:04:242
179,410004	-52,290001	90,440002	2020-10-29T19:35:04:260
232,470001	-71,820000	119,770004	2020-10-29T19:35:04:282
255,710007	-99,050003	127,889999	2020-10-29T19:35:04:300
220,919998	-113,470001	96,879997	2020-10-29T19:35:04:322
90,720001	-93,519997	83,930000	2020-10-29T19:35:04:339
-8,050000	-48,299999	79,449997	2020-10-29T19:35:04:363
-1,470000	-10,080000	61,320000	2020-10-29T19:35:04:382
105,629997	3,290000	52,290001	2020-10-29T19:35:04:431
257,390015	11,060000	45,430000	2020-10-29T19:35:04:432
338,100006	36,259998	27,090000	2020-10-29T19:35:04:445
319,410004	49,560001	31,360001	2020-10-29T19:35:04:460
272,649994	41,230000	4,480000	2020-10-29T19:35:04:483
219,660004	33,180000	-8,190000	2020-10-29T19:35:04:499
141,889999	27,370001	-23,799999	2020-10-29T19:35:04:523
41,509998	24,080000	-39,200001	2020-10-29T19:35:04:540
-18,129999	35,279999	-28,139999	2020-10-29T19:35:04:563
8,820000	35,209999	-19,180000	2020-10-29T19:35:04:579
75,669998	17,430000	5,880000	2020-10-29T19:35:04:603
126,980003	-1,750000	8,260000	2020-10-29T19:35:04:620
141,539993	-26,460001	3,990000	2020-10-29T19:35:04:641
128,660004	-22,469999	24,710001	2020-10-29T19:35:04:660
24,500000	3,430000	4,480000	2020-10-29T19:35:04:684
-116,760002	32,410000	-26,880001	2020-10-29T19:35:04:700
-180,880005	41,580002	-38,500000	2020-10-29T19:35:04:722
-116,900002	35,490002	-11,970000	2020-10-29T19:35:04:740
32,200001	41,720001	20,440001	2020-10-29T19:35:04:764
112,629997	46,410000	30,660000	2020-10-29T19:35:04:780
75,949997	57,470001	11,410000	2020-10-29T19:35:04:803
-17,360001	41,790001	-5,600000	2020-10-29T19:35:04:819
-68,320000	61,459999	206,710007	2020-10-29T19:35:08:107
-2,310000	47,040001	185,360001	2020-10-29T19:35:08:108
13,160000	25,690001	160,300003	2020-10-29T19:35:08:138
7,840000	31,990000	138,460007	2020-10-29T19:35:08:139
6,930000	41,930000	116,199997	2020-10-29T19:35:08:169
9,240000	35,770000	95,970001	2020-10-29T19:35:08:179
11,270000	21,910000	76,510002	2020-10-29T19:35:08:202
7,980000	15,050000	62,720001	2020-10-29T19:35:08:236
-8,050000	14,350000	54,389999	2020-10-29T19:35:08:304
-39,410000	11,760000	44,310001	2020-10-29T19:35:08:304
-79,870003	11,620000	34,160000	2020-10-29T19:35:08:305
-120,260002	11,060000	24,570000	2020-10-29T19:35:08:308
-166,600006	13,020000	14,910000	2020-10-29T19:35:08:323
-208,250000	23,520000	10,570000	2020-10-29T19:35:08:344
-236,110001	39,340000	8,680000	2020-10-29T19:35:08:358
-241,639999	45,220001	16,450001	2020-10-29T19:35:08:378
-225,750000	44,730000	30,030001	2020-10-29T19:35:08:398
-202,160004	45,639999	43,400002	2020-10-29T19:35:08:416
-176,050003	50,330002	55,090000	2020-10-29T19:35:08:441
-147,139999	57,119999	67,690002	2020-10-29T19:35:08:457
-112,980003	67,550003	80,220001	2020-10-29T19:35:08:482
-87,709999	76,930000	82,879997	2020-10-29T19:35:08:497
-68,809998	80,849998	82,180000	2020-10-29T19:35:08:521
-51,730000	74,620003	75,389999	2020-10-29T19:35:08:538
-49,420002	62,860001	55,930000	2020-10-29T19:35:08:564
-88,830002	70,000000	33,320000	2020-10-29T19:35:08:577
-139,789993	64,540001	7,140000	2020-10-29T19:35:08:601
-172,830002	34,090000	-19,530001	2020-10-29T19:35:08:617
-176,330002	8,960000	-41,580002	2020-10-29T19:35:08:641
-162,470001	-5,600000	-67,970001	2020-10-29T19:35:08:657
-136,149994	-15,610000	-92,190002	2020-10-29T19:35:08:682
-99,260002	-21,840000	-114,099998	2020-10-29T19:35:08:702
-58,380001	-17,010000	-130,690002	2020-10-29T19:35:08:721
33,459999	-4,760000	-109,129997	2020-10-29T19:35:08:737
280,489990	10,150000	-34,790001	2020-10-29T19:35:08:760
336,209991	-44,240002	-26,180000	2020-10-29T19:35:08:778
319,829987	-56,700001	-41,509998	2020-10-29T19:35:08:803
151,619995	-77,000000	-87,080002	2020-10-29T19:35:08:817
6,860000	-76,720001	-119,419998	2020-10-29T19:35:08:841
-15,680000	-72,940002	-145,389999	2020-10-29T19:35:08:857
-9,730000	-66,919998	-171,009995	2020-10-29T19:35:08:881
-47,740002	-71,470001	-190,470001	2020-10-29T19:35:08:897
-93,940002	-69,300003	-200,130005	2020-10-29T19:35:08:920
-121,309998	-54,250000	-200,970001	2020-10-29T19:35:08:937
-111,370003	-36,959999	-192,639999	2020-10-29T19:35:08:962
-68,599998	-29,400000	-176,190002	2020-10-29T19:35:08:978
-7,280000	-32,410000	-153,649994	2020-10-29T19:35:09:004
21,350000	18,129999	4,760000	2020-10-29T19:35:24:083
25,340000	20,930000	2,870000	2020-10-29T19:35:24:107
33,320000	22,330000	1,890000	2020-10-29T19:35:24:108
45,220001	21,559999	1,330000	2020-10-29T19:35:24:113
57,820000	20,790001	0,280000	2020-10-29T19:35:24:155
69,650002	22,889999	-0,280000	2020-10-29T19:35:24:157
81,199997	22,889999	-1,330000	2020-10-29T19:35:24:175
93,239998	13,580000	-5,110000	2020-10-29T19:35:24:181
104,860001	0,420000	-11,830000	2020-10-29T19:35:24:202
112,559998	-4,900000	-18,340000	2020-10-29T19:35:24:219
111,860001	-5,320000	-26,180000	2020-10-29T19:35:24:241
103,320000	-7,350000	-34,509998	2020-10-29T19:35:24:259
88,550003	-9,940000	-41,439999	2020-10-29T19:35:24:282
73,849998	-11,830000	-45,500000	2020-10-29T19:35:24:300
60,340000	-14,210000	-48,720001	2020-10-29T19:35:24:323
46,130001	-14,770000	-50,540001	2020-10-29T19:35:24:341
33,670002	-11,130000	-50,470001	2020-10-29T19:35:24:364
25,760000	-5,740000	-48,580002	2020-10-29T19:35:24:380
23,030001	-2,520000	-45,430000	2020-10-29T19:35:24:403
24,639999	0,350000	-40,529999	2020-10-29T19:35:24:421
30,380001	5,950000	-33,670002	2020-10-29T19:35:24:443
39,830002	13,230000	-25,410000	2020-10-29T19:35:24:460
52,430000	21,350000	-15,890000	2020-10-29T19:35:24:483
67,620003	28,770000	-5,670000	2020-10-29T19:35:24:500
83,790001	36,259998	5,460000	2020-10-29T19:35:24:524
98,980003	44,730000	17,920000	2020-10-29T19:35:24:542
115,290001	48,790001	30,799999	2020-10-29T19:35:24:564
139,789993	48,509998	48,650002	2020-10-29T19:35:24:581
150,500000	44,730000	57,470001	2020-10-29T19:35:24:605
156,589996	39,970001	62,580002	2020-10-29T19:35:24:621
160,160004	32,130001	62,650002	2020-10-29T19:35:24:643
164,220001	22,540001	56,420002	2020-10-29T19:35:24:661
167,020004	13,580000	43,889999	2020-10-29T19:35:24:683
165,970001	6,860000	26,670000	2020-10-29T19:35:24:702
156,940002	0,140000	7,280000	2020-10-29T19:35:24:724
136,850006	-6,370000	-12,880000	2020-10-29T19:35:24:741
105,699997	-9,730000	-32,900002	2020-10-29T19:35:24:764
69,510002	-9,380000	-49,980000	2020-10-29T19:35:24:780
40,599998	-6,930000	-60,270000	2020-10-29T19:35:24:803
18,129999	-3,780000	-68,040001	2020-10-29T19:35:24:821
1,050000	1,260000	-73,500000	2020-10-29T19:35:24:845
-7,770000	6,440000	-74,970001	2020-10-29T19:35:24:860
-6,860000	9,590000	-73,709999	2020-10-29T19:35:24:884
1,890000	12,250000	-70,349998	2020-10-29T19:35:24:901
15,960000	15,050000	-65,099998	2020-10-29T19:35:24:924
34,299999	16,170000	-58,310001	2020-10-29T19:35:24:941
53,830002	13,860000	-51,240002	2020-10-29T19:35:24:963
69,650002	12,880000	-43,259998	2020-10-29T19:35:24:981
75,879997	12,670000	-35,560001	2020-10-29T19:35:25:004
74,410004	11,200000	-28,210001	2020-10-29T19:35:25:021
68,809998	10,780000	-20,860001	2020-10-29T19:35:25:044
60,549999	9,660000	-14,140000	2020-10-29T19:35:25:061
50,959999	8,470000	-7,700000	2020-10-29T19:35:25:085
41,650002	10,010000	-0,770000	2020-10-29T19:35:25:101
35,000000	14,560000	7,350000	2020-10-29T19:35:25:124
28,770000	23,240000	18,480000	2020-10-29T19:35:25:141
22,120001	18,200001	26,809999	2020-10-29T19:35:25:164
19,460001	-2,380000	28,630001	2020-10-29T19:35:25:181
22,540001	-2,100000	34,299999	2020-10-29T19:35:25:204
28,210001	16,100000	36,820000	2020-10-29T19:35:25:221
35,279999	31,080000	36,959999	2020-10-29T19:35:25:244
42,910000	31,710001	36,540001	2020-10-29T19:35:25:261
51,310001	24,920000	33,459999	2020-10-29T19:35:25:283
61,950001	19,530001	28,630001	2020-10-29T19:35:25:301
74,900002	20,719999	22,260000	2020-10-29T19:35:25:326
82,599998	21,350000	13,300000	2020-10-29T19:35:25:341
82,459999	17,639999	3,360000	2020-10-29T19:35:25:364
74,199997	14,490000	-6,020000	2020-10-29T19:35:25:381
55,160000	13,160000	-16,870001	2020-10-29T19:35:25:404
35,840000	10,430000	-23,799999	2020-10-29T19:35:25:422
27,930000	8,260000	-28,070000	2020-10-29T19:35:25:446
33,110001	14,350000	-26,950001	2020-10-29T19:35:25:461
46,480000	19,110001	-20,860001	2020-10-29T19:35:25:484
56,490002	18,760000	-13,650000	2020-10-29T19:35:25:502
67,199997	17,780001	-4,970000	2020-10-29T19:35:25:526
85,120003	19,320000	8,470000	2020-10-29T19:35:25:541
95,620003	23,799999	20,650000	2020-10-29T19:35:25:565
92,400002	25,969999	26,880001	2020-10-29T19:35:25:581
91,489998	23,730000	34,580002	2020-10-29T19:35:25:606
98,070000	19,740000	40,180000	2020-10-29T19:35:25:622
101,919998	18,549999	43,750000	2020-10-29T19:35:25:645
98,209999	18,830000	44,939999	2020-10-29T19:35:25:662
85,750000	15,960000	41,090000	2020-10-29T19:35:25:685
83,860001	11,760000	36,049999	2020-10-29T19:35:25:702
86,730003	6,930000	29,889999	2020-10-29T19:35:25:725
89,110001	2,940000	22,820000	2020-10-29T19:35:25:742
88,059998	0,350000	15,050000	2020-10-29T19:35:25:765
83,230003	-2,380000	7,140000	2020-10-29T19:35:25:782
71,820000	-4,340000	-1,610000	2020-10-29T19:35:25:806
54,180000	-3,010000	-8,750000	2020-10-29T19:35:25:822
38,920002	0,210000	-14,770000	2020-10-29T19:35:25:846
28,210001	4,270000	-18,059999	2020-10-29T19:35:25:861
21,139999	8,540000	-19,180000	2020-10-29T19:35:25:885
17,850000	12,180000	-18,760000	2020-10-29T19:35:25:902
21,280001	15,540000	-15,260000	2020-10-29T19:35:25:926
32,759998	19,389999	-10,290000	2020-10-29T19:35:25:942
47,389999	24,920000	-3,990000	2020-10-29T19:35:25:965
63,910000	37,240002	5,670000	2020-10-29T19:35:25:982
77,209999	23,520000	5,740000	2020-10-29T19:35:26:006
86,029999	8,610000	2,800000	2020-10-29T19:35:26:022
94,360001	7,420000	-1,050000	2020-10-29T19:35:26:046
98,279999	8,400000	-9,940000	2020-10-29T19:35:26:062
95,970001	7,490000	-19,320000	2020-10-29T19:35:26:086
89,110001	4,620000	-30,240000	2020-10-29T19:35:26:102
79,449997	0,490000	-41,509998	2020-10-29T19:35:26:125
72,029999	-1,540000	-51,380001	2020-10-29T19:35:26:143
65,940002	-1,190000	-58,310001	2020-10-29T19:35:26:166
57,540001	-0,840000	-66,430000	2020-10-29T19:35:26:182
48,720001	0,070000	-73,080002	2020-10-29T19:35:26:205
41,720001	3,640000	-76,860001	2020-10-29T19:35:26:222
37,730000	8,960000	-78,400002	2020-10-29T19:35:26:246
43,889999	8,120000	-77,840004	2020-10-29T19:35:26:262
62,369999	8,960000	-73,849998	2020-10-29T19:35:26:286
82,809998	12,320000	-68,110001	2020-10-29T19:35:26:302
96,180000	14,980000	-63,980000	2020-10-29T19:35:26:327
101,150002	16,240000	-61,250000	2020-10-29T19:35:26:342
98,559998	19,320000	-61,180000	2020-10-29T19:35:26:364
96,389999	24,290001	-61,740002	2020-10-29T19:35:26:383
92,260002	30,660000	-64,470001	2020-10-29T19:35:26:407
85,470001	38,500000	-67,410004	2020-10-29T19:35:26:422
76,230003	45,849998	-68,459999	2020-10-29T19:35:26:445
64,190002	49,490002	-67,269997	2020-10-29T19:35:26:462
51,520000	46,830002	-63,000000	2020-10-29T19:35:26:486
35,139999	35,630001	-57,470001	2020-10-29T19:35:26:503
16,309999	20,860001	-50,820000	2020-10-29T19:35:26:526
-5,880000	10,290000	-42,420002	2020-10-29T19:35:26:542
-27,230000	7,910000	-31,850000	2020-10-29T19:35:26:566
-47,880001	10,010000	-22,330000	2020-10-29T19:35:26:582
-57,959999	10,920000	-13,300000	2020-10-29T19:35:26:606
-42,910000	8,680000	-7,140000	2020-10-29T19:35:26:623
-14,070000	-0,770000	5,600000	2020-10-29T19:35:26:646
-0,490000	-7,140000	15,330000	2020-10-29T19:35:26:662
-17,570000	-8,540000	16,590000	2020-10-29T19:35:26:685
-39,410000	-11,480000	19,320000	2020-10-29T19:35:26:703
-64,680000	-4,830000	27,650000	2020-10-29T19:35:26:727
-84,980003	-18,200001	31,850000	2020-10-29T19:35:26:743
-77,209999	-35,630001	42,910000	2020-10-29T19:35:26:765
-53,760002	-30,940001	52,150002	2020-10-29T19:35:26:783
-26,320000	-21,629999	57,540001	2020-10-29T19:35:26:807
-9,030000	-15,050000	63,840000	2020-10-29T19:35:26:823
2,520000	-13,790000	66,989998	2020-10-29T19:35:26:845
5,390000	-14,700000	67,269997	2020-10-29T19:35:26:863
-1,820000	-13,160000	65,940002	2020-10-29T19:35:26:887
-9,590000	-14,140000	61,250000	2020-10-29T19:35:26:903
-18,760000	-18,340000	50,889999	2020-10-29T19:35:26:926
-27,860001	-20,510000	36,820000	2020-10-29T19:35:26:943
-37,029999	-26,320000	20,370001	2020-10-29T19:35:26:966
-49,209999	-34,020000	1,400000	2020-10-29T19:35:26:983
-67,550003	-41,090000	-20,090000	2020-10-29T19:35:27:007
-82,949997	-43,259998	-40,950001	2020-10-29T19:35:27:023
-94,080002	-44,170002	-56,560001	2020-10-29T19:35:27:046
-101,570000	-47,810001	-68,180000	2020-10-29T19:35:27:063
-109,760002	-49,209999	-75,809998	2020-10-29T19:35:27:086
-117,599998	-47,180000	-77,840004	2020-10-29T19:35:27:103
-124,389999	-43,119999	-74,550003	2020-10-29T19:35:27:127
-129,990005	-38,009998	-66,430000	2020-10-29T19:35:27:143
-128,800003	-34,020000	-52,779999	2020-10-29T19:35:27:166
-113,610001	-28,630001	-35,630001	2020-10-29T19:35:27:183
-93,379997	-20,510000	-19,040001	2020-10-29T19:35:27:207
-69,930000	-13,650000	-2,660000	2020-10-29T19:35:27:223
-49,420002	-9,730000	9,380000	2020-10-29T19:35:27:247
-34,299999	-7,840000	14,140000	2020-10-29T19:35:27:263
-24,920000	-8,190000	17,010000	2020-10-29T19:35:27:287
-23,030001	-7,980000	16,309999	2020-10-29T19:35:27:304
-18,340000	-4,270000	17,920000	2020-10-29T19:35:27:327
-8,820000	0,910000	20,230000	2020-10-29T19:35:27:343
-3,430000	8,540000	22,610001	2020-10-29T19:35:27:367
-7,980000	14,140000	21,980000	2020-10-29T19:35:27:383
-11,900000	11,830000	19,879999	2020-10-29T19:35:27:406
-11,270000	6,160000	18,410000	2020-10-29T19:35:27:423
-8,960000	5,950000	16,870001	2020-10-29T19:35:27:446
-9,310000	18,129999	20,370001	2020-10-29T19:35:27:463
-8,330000	20,020000	27,860001	2020-10-29T19:35:27:487
-0,910000	8,960000	35,349998	2020-10-29T19:35:27:503
4,970000	5,460000	46,200001	2020-10-29T19:35:27:538
9,520000	1,820000	50,680000	2020-10-29T19:35:27:543
16,940001	-3,990000	49,070000	2020-10-29T19:35:27:567
22,820000	-8,400000	43,959999	2020-10-29T19:35:27:584
29,330000	-12,040000	32,970001	2020-10-29T19:35:27:608
39,060001	-12,390000	21,420000	2020-10-29T19:35:27:624
49,279999	-7,980000	11,060000	2020-10-29T19:35:27:647
55,230000	-3,360000	1,890000	2020-10-29T19:35:27:664
56,840000	-4,270000	-3,010000	2020-10-29T19:35:27:687
58,099998	-14,980000	-3,360000	2020-10-29T19:35:27:704
50,259998	-31,219999	-3,920000	2020-10-29T19:35:27:728
28,770000	-41,439999	-3,990000	2020-10-29T19:35:27:743
-1,470000	-43,889999	-3,220000	2020-10-29T19:35:27:768
-28,559999	-47,040001	-3,640000	2020-10-29T19:35:27:784
-49,349998	-49,070000	-6,230000	2020-10-29T19:35:27:807
-63,209999	-44,310001	-7,630000	2020-10-29T19:35:27:824
-68,599998	-39,830002	-7,560000	2020-10-29T19:35:27:848
-66,779999	-32,549999	-4,550000	2020-10-29T19:35:27:863
-62,860001	-26,530001	1,120000	2020-10-29T19:35:27:887
-58,450001	-22,680000	9,030000	2020-10-29T19:35:27:904
-54,110001	-22,610001	18,059999	2020-10-29T19:35:27:927
-53,130001	-25,200001	26,250000	2020-10-29T19:35:27:944
-57,260002	-27,020000	33,670002	2020-10-29T19:35:27:968
-61,880001	-27,299999	41,860001	2020-10-29T19:35:27:984
-67,129997	-27,930000	48,860001	2020-10-29T19:35:28:008
-73,150002	-28,350000	55,230000	2020-10-29T19:35:28:024
-79,099998	-29,750000	60,970001	2020-10-29T19:35:28:047
-85,959999	-31,710001	64,959999	2020-10-29T19:35:28:064
-95,550003	-33,040001	66,919998	2020-10-29T19:35:28:088
-108,010002	-32,970001	67,550003	2020-10-29T19:35:28:104
-121,239998	-33,950001	66,779999	2020-10-29T19:35:28:131
-130,899994	-34,090000	65,940002	2020-10-29T19:35:28:144
-137,199997	-18,129999	70,489998	2020-10-29T19:35:28:168
-145,460007	-13,510000	73,360001	2020-10-29T19:35:28:185
-147,699997	-39,200001	69,370003	2020-10-29T19:35:28:208
-148,680008	-40,389999	71,750000	2020-10-29T19:35:28:224
-149,589996	-21,700001	72,239998	2020-10-29T19:35:28:248
-148,539993	-26,110001	65,590004	2020-10-29T19:35:28:264
-143,149994	-39,970001	56,349998	2020-10-29T19:35:28:287
-135,309998	-44,170002	46,130001	2020-10-29T19:35:28:305
-127,889999	-44,029999	33,740002	2020-10-29T19:35:28:329
-121,099998	-39,619999	21,490000	2020-10-29T19:35:28:344
-116,620003	-25,620001	11,480000	2020-10-29T19:35:28:367
-116,620003	-7,210000	4,480000	2020-10-29T19:35:28:384
-113,540001	-0,140000	1,330000	2020-10-29T19:35:28:409
-103,250000	-7,140000	1,190000	2020-10-29T19:35:28:425
-87,220001	-17,850000	2,590000	2020-10-29T19:35:28:448
-64,680000	-12,880000	9,380000	2020-10-29T19:35:28:464
-36,959999	-0,840000	15,470000	2020-10-29T19:35:28:489
-8,610000	7,140000	20,299999	2020-10-29T19:35:28:505
16,240000	11,620000	26,040001	2020-10-29T19:35:28:528
37,939999	11,480000	27,860001	2020-10-29T19:35:28:544
48,160000	11,900000	29,540001	2020-10-29T19:35:28:567
49,700001	15,050000	30,450001	2020-10-29T19:35:28:584
48,369999	17,780001	29,049999	2020-10-29T19:35:28:609
42,910000	17,850000	27,160000	2020-10-29T19:35:28:625
33,320000	15,890000	24,010000	2020-10-29T19:35:28:648
18,760000	12,320000	19,670000	2020-10-29T19:35:28:664
2,660000	10,850000	14,910000	2020-10-29T19:35:28:688
-9,170000	12,600000	11,200000	2020-10-29T19:35:28:704
-12,390000	14,840000	9,170000	2020-10-29T19:35:28:729
-10,570000	17,080000	7,140000	2020-10-29T19:35:28:745
-6,720000	21,350000	5,670000	2020-10-29T19:35:28:767
1,960000	25,620001	5,740000	2020-10-29T19:35:28:785
9,520000	21,629999	2,030000	2020-10-29T19:35:28:809
12,670000	21,910000	-2,660000	2020-10-29T19:35:28:825
11,690000	55,020000	2,660000	2020-10-29T19:35:28:848
13,020000	40,250000	-3,220000	2020-10-29T19:35:28:865
23,870001	2,520000	-13,440001	2020-10-29T19:35:28:888
35,770000	5,110000	-15,050000	2020-10-29T19:35:28:905
45,360001	5,180000	-22,820000	2020-10-29T19:35:28:929
53,200001	-18,059999	-40,950001	2020-10-29T19:35:28:944
52,080002	-13,370000	-53,900002	2020-10-29T19:35:28:969
56,560001	-0,770000	-55,369999	2020-10-29T19:35:28:985
55,160000	-3,080000	-59,220001	2020-10-29T19:35:29:008
28,139999	-15,610000	-73,150002	2020-10-29T19:35:29:025
27,230000	-20,510000	-73,919998	2020-10-29T19:35:29:049
43,680000	-12,460000	-72,449997	2020-10-29T19:35:29:064
57,119999	-3,220000	-57,820000	2020-10-29T19:35:29:087
52,500000	-4,340000	-48,230000	2020-10-29T19:35:29:124
48,720001	-4,060000	-34,299999	2020-10-29T19:35:29:129
45,360001	1,680000	-22,469999	2020-10-29T19:35:29:146
39,689999	9,800000	-11,760000	2020-10-29T19:35:29:169
35,349998	15,260000	-2,240000	2020-10-29T19:35:29:185
38,709999	25,059999	5,320000	2020-10-29T19:35:29:209
55,439999	31,290001	9,450000	2020-10-29T19:35:29:225
72,519997	38,849998	8,470000	2020-10-29T19:35:29:248
85,889999	45,009998	9,030000	2020-10-29T19:35:29:265
94,989998	47,040001	8,050000	2020-10-29T19:35:29:289
96,809998	49,840000	3,850000	2020-10-29T19:35:29:305
89,040001	54,180000	-0,070000	2020-10-29T19:35:29:328
82,110001	53,970001	-0,840000	2020-10-29T19:35:29:345
83,160004	51,939999	0,560000	2020-10-29T19:35:29:369
89,949997	53,480000	2,240000	2020-10-29T19:35:29:385
105,279999	51,660000	2,520000	2020-10-29T19:35:29:409
126,489998	45,709999	0,070000	2020-10-29T19:35:29:425
143,570007	38,990002	-7,000000	2020-10-29T19:35:29:450
143,990005	31,710001	-16,520000	2020-10-29T19:35:29:465
131,320007	27,930000	-27,020000	2020-10-29T19:35:29:488
111,650002	27,580000	-37,240002	2020-10-29T19:35:29:506
95,620003	23,240000	-45,290001	2020-10-29T19:35:29:529
82,529999	13,580000	-52,360001	2020-10-29T19:35:29:545
59,290001	8,190000	-53,060001	2020-10-29T19:35:29:569
22,330000	20,719999	-43,189999	2020-10-29T19:35:29:585
-22,469999	25,270000	-28,700001	2020-10-29T19:35:29:609
-56,420002	1,050000	-18,129999	2020-10-29T19:35:29:626
-65,940002	-18,410000	-2,450000	2020-10-29T19:35:29:649
-47,110001	-19,950001	15,820000	2020-10-29T19:35:29:665
-7,490000	-16,520000	30,030001	2020-10-29T19:35:29:689
32,830002	-18,549999	40,599998	2020-10-29T19:35:29:706
56,770000	-20,299999	50,889999	2020-10-29T19:35:29:729
66,010002	-16,309999	61,040001	2020-10-29T19:35:29:745
71,330002	-15,470000	66,010002	2020-10-29T19:35:29:769
77,349998	-25,480000	64,190002	2020-10-29T19:35:29:786
81,900002	-35,630001	55,090000	2020-10-29T19:35:29:809
83,230003	-36,119999	41,020000	2020-10-29T19:35:29:826
74,970001	-37,380001	20,860001	2020-10-29T19:35:29:849
52,990002	-43,750000	-2,030000	2020-10-29T19:35:29:866
15,190001	-43,820000	-27,299999	2020-10-29T19:35:29:891
-27,719999	-36,330002	-47,529999	2020-10-29T19:35:29:906
-60,270000	-28,139999	-62,510002	2020-10-29T19:35:29:930
-79,379997	-18,129999	-70,070000	2020-10-29T19:35:29:946
-87,709999	-5,390000	-62,650002	2020-10-29T19:35:29:968
-80,639999	1,400000	-55,790001	2020-10-29T19:35:29:986
-59,639999	4,200000	-42,349998	2020-10-29T19:35:30:010
-16,100000	15,190001	-17,010000	2020-10-29T19:35:30:026
17,639999	22,820000	1,610000	2020-10-29T19:35:30:049
39,340000	25,410000	10,780000	2020-10-29T19:35:30:066
41,090000	27,580000	15,120000	2020-10-29T19:35:30:089
43,820000	28,910000	27,090000	2020-10-29T19:35:30:106
52,360001	31,430000	37,240002	2020-10-29T19:35:30:130
61,599998	36,750000	43,610001	2020-10-29T19:35:30:146
68,459999	44,170002	46,270000	2020-10-29T19:35:30:170
72,379997	49,490002	46,830002	2020-10-29T19:35:30:186
81,970001	51,730000	48,930000	2020-10-29T19:35:30:209
92,330002	49,840000	48,790001	2020-10-29T19:35:30:226
91,000000	56,000000	47,040001	2020-10-29T19:35:30:251
82,250000	62,299999	49,770000	2020-10-29T19:35:30:266
80,150002	30,799999	37,799999	2020-10-29T19:35:30:289
76,580002	15,750000	26,530001	2020-10-29T19:35:30:306
72,800003	21,350000	16,379999	2020-10-29T19:35:30:330
61,950001	17,219999	0,210000	2020-10-29T19:35:30:346
47,320000	9,520000	-7,210000	2020-10-29T19:35:30:370
51,029999	-0,280000	-10,780000	2020-10-29T19:35:30:385
77,980003	-8,260000	-9,590000	2020-10-29T19:35:30:410
75,459999	-8,820000	-14,000000	2020-10-29T19:35:30:427
41,580002	3,290000	-24,360001	2020-10-29T19:35:30:449
21,700001	16,660000	-26,530001	2020-10-29T19:35:30:467
30,380001	16,730000	-21,559999	2020-10-29T19:35:30:490
47,740002	13,300000	-15,050000	2020-10-29T19:35:30:507
61,810001	11,270000	-2,940000	2020-10-29T19:35:30:530
75,040001	3,850000	7,420000	2020-10-29T19:35:30:547
92,050003	-7,000000	16,870001	2020-10-29T19:35:30:570
109,900002	-13,160000	22,680000	2020-10-29T19:35:30:587
124,389999	-12,530000	23,870001	2020-10-29T19:35:30:611
125,440002	-9,240000	17,920000	2020-10-29T19:35:30:627
113,050003	-10,920000	6,580000	2020-10-29T19:35:30:650
95,690002	-9,870000	-6,790000	2020-10-29T19:35:30:667
82,949997	-4,970000	-20,370001	2020-10-29T19:35:30:689
67,480003	-0,140000	-32,480000	2020-10-29T19:35:30:707
46,900002	2,870000	-42,770000	2020-10-29T19:35:30:730
29,750000	5,320000	-49,139999	2020-10-29T19:35:30:747
17,710001	3,430000	-52,570000	2020-10-29T19:35:30:769
12,670000	3,010000	-55,090000	2020-10-29T19:35:30:787
11,830000	6,580000	-54,599998	2020-10-29T19:35:30:809
14,210000	6,650000	-54,459999	2020-10-29T19:35:30:827
17,780001	5,250000	-53,340000	2020-10-29T19:35:30:850
18,340000	6,090000	-51,799999	2020-10-29T19:35:30:867
14,630000	10,500000	-50,259998	2020-10-29T19:35:30:890
9,730000	9,520000	-50,820000	2020-10-29T19:35:30:907
9,030000	9,450000	-48,860001	2020-10-29T19:35:30:931
6,510000	15,610000	-45,570000	2020-10-29T19:35:30:946
3,920000	20,790001	-42,770000	2020-10-29T19:35:30:970
9,310000	22,610001	-37,520000	2020-10-29T19:35:30:987
28,420000	27,370001	-31,290001	2020-10-29T19:35:31:010
55,230000	37,310001	-24,710001	2020-10-29T19:35:31:027
92,820000	46,759998	-20,860001	2020-10-29T19:35:31:049
141,399994	56,209999	-18,410000	2020-10-29T19:35:31:067
187,600006	65,029999	-15,820000	2020-10-29T19:35:31:089
219,520004	70,209999	-10,570000	2020-10-29T19:35:31:107
210,139999	46,549999	-1,890000	2020-10-29T19:35:31:131
202,369995	30,309999	15,820000	2020-10-29T19:35:31:147
199,080002	27,860001	27,860001	2020-10-29T19:35:31:169
160,580002	27,510000	29,120001	2020-10-29T19:35:31:187
113,959999	23,030001	30,730000	2020-10-29T19:35:31:212
79,379997	10,780000	36,610001	2020-10-29T19:35:31:227
62,369999	1,540000	45,849998	2020-10-29T19:35:31:250
41,509998	-4,480000	54,040001	2020-10-29T19:35:31:267
2,800000	-1,820000	50,680000	2020-10-29T19:35:31:290
-49,560001	2,380000	51,310001	2020-10-29T19:35:31:307
-107,029999	9,030000	43,049999	2020-10-29T19:35:31:331
-139,300003	17,920000	47,180000	2020-10-29T19:35:31:346
-156,100006	16,240000	47,599998	2020-10-29T19:35:31:370
-145,600006	3,640000	50,680000	2020-10-29T19:35:31:387
-107,590004	3,920000	56,770000	2020-10-29T19:35:31:409
-63,000000	10,570000	61,950001	2020-10-29T19:35:31:428
-16,309999	14,000000	59,010002	2020-10-29T19:35:31:451
44,869999	10,290000	62,439999	2020-10-29T19:35:31:467
101,360001	19,110001	58,450001	2020-10-29T19:35:31:490
143,639999	32,270000	53,970001	2020-10-29T19:35:31:507
152,180008	34,020000	49,700001	2020-10-29T19:35:31:531
127,260002	29,120001	30,590000	2020-10-29T19:35:31:547
108,430000	27,719999	21,210001	2020-10-29T19:35:31:571
112,349998	28,350000	20,090000	2020-10-29T19:35:31:587
115,779999	26,530001	26,530001	2020-10-29T19:35:31:611
109,970001	21,629999	28,630001	2020-10-29T19:35:31:628
96,320000	20,580000	22,469999	2020-10-29T19:35:31:650
96,389999	17,570000	16,520000	2020-10-29T19:35:31:667
80,220001	17,080000	10,220000	2020-10-29T19:35:31:691
7,210000	13,510000	-15,470000	2020-10-29T19:35:31:707
18,830000	12,600000	-22,049999	2020-10-29T19:35:31:731
79,519997	9,240000	-19,320000	2020-10-29T19:35:31:747
129,430008	7,000000	-13,020000	2020-10-29T19:35:31:770
163,029999	3,920000	-6,930000	2020-10-29T19:35:31:787
175,770004	-1,470000	-1,400000	2020-10-29T19:35:31:812
187,740005	-15,960000	-5,950000	2020-10-29T19:35:31:827
213,080002	-41,439999	-18,059999	2020-10-29T19:35:31:852
251,020004	-62,230000	-34,860001	2020-10-29T19:35:31:867
245,210007	-60,970001	-56,209999	2020-10-29T19:35:31:890
147,630005	-62,369999	-76,440002	2020-10-29T19:35:31:908
99,330002	-55,720001	-83,930000	2020-10-29T19:35:31:932
50,959999	-56,910000	-79,029999	2020-10-29T19:35:31:947
17,780001	-60,410000	-76,019997	2020-10-29T19:35:31:970
5,670000	-57,330002	-70,209999	2020-10-29T19:35:31:988
-10,360000	-55,510002	-61,950001	2020-10-29T19:35:32:011
-32,549999	-49,000000	-52,290001	2020-10-29T19:35:32:028
-41,299999	-41,580002	-40,740002	2020-10-29T19:35:32:051
-47,810001	-34,230000	-28,420000	2020-10-29T19:35:32:067
-56,630001	-26,740000	-17,990000	2020-10-29T19:35:32:092
-53,689999	-20,230000	-5,810000	2020-10-29T19:35:32:108
-30,030001	-8,680000	10,780000	2020-10-29T19:35:32:130
-0,700000	11,130000	28,840000	2020-10-29T19:35:32:148
12,390000	34,860001	43,750000	2020-10-29T19:35:32:172
13,300000	51,450001	44,869999	2020-10-29T19:35:32:188
1,750000	53,270000	39,270000	2020-10-29T19:35:32:210
2,240000	59,080002	30,590000	2020-10-29T19:35:32:228
5,880000	53,410000	12,040000	2020-10-29T19:35:32:251
23,520000	51,029999	6,860000	2020-10-29T19:35:32:268
31,290001	57,119999	-2,030000	2020-10-29T19:35:32:292
32,060001	61,040001	-11,760000	2020-10-29T19:35:32:308
70,559998	57,400002	-14,630000	2020-10-29T19:35:32:332
126,980003	51,170002	-10,640000	2020-10-29T19:35:32:348
153,930008	41,509998	-7,630000	2020-10-29T19:35:32:371
161,000000	28,070000	-19,950001	2020-10-29T19:35:32:388
82,599998	-12,460000	-26,809999	2020-10-29T19:35:32:412
40,250000	-4,760000	-53,619999	2020-10-29T19:35:32:428
17,219999	4,830000	-68,739998	2020-10-29T19:35:32:451
43,400002	-3,150000	-65,309998	2020-10-29T19:35:32:468
94,080002	-5,880000	-51,799999	2020-10-29T19:35:32:492
150,710007	0,700000	-35,000000	2020-10-29T19:35:32:508
193,479996	2,030000	-10,850000	2020-10-29T19:35:32:532
213,500000	2,730000	6,790000	2020-10-29T19:35:32:548
209,720001	2,870000	17,850000	2020-10-29T19:35:32:572
195,089996	3,640000	24,430000	2020-10-29T19:35:32:588
166,949997	9,380000	27,160000	2020-10-29T19:35:32:611
127,190002	20,020000	24,080000	2020-10-29T19:35:32:628
93,449997	34,020000	15,190001	2020-10-29T19:35:32:652
57,680000	46,689999	13,510000	2020-10-29T19:35:32:668
27,580000	55,020000	12,460000	2020-10-29T19:35:32:691
-13,090000	61,459999	5,180000	2020-10-29T19:35:32:708
-52,009998	62,369999	-3,570000	2020-10-29T19:35:32:732
-71,260002	58,170002	-11,900000	2020-10-29T19:35:32:749
-60,619999	44,939999	-15,750000	2020-10-29T19:35:32:772
-26,110001	26,320000	-15,330000	2020-10-29T19:35:32:788
12,460000	15,680000	-12,180000	2020-10-29T19:35:32:812
34,860001	14,210000	-13,300000	2020-10-29T19:35:32:828
41,580002	14,210000	-18,900000	2020-10-29T19:35:32:852
37,869999	13,790000	-25,059999	2020-10-29T19:35:32:868
29,540001	25,760000	-26,740000	2020-10-29T19:35:32:891
10,640000	39,549999	-29,260000	2020-10-29T19:35:32:908
-10,010000	38,430000	-35,070000	2020-10-29T19:35:32:932
-27,090000	29,540001	-26,040001	2020-10-29T19:35:32:949
12,460000	35,139999	-4,270000	2020-10-29T19:35:32:972
-47,040001	-7,910000	-21,000000	2020-10-29T19:35:32:989
-127,470001	-24,850000	-27,930000	2020-10-29T19:35:33:012
-142,940002	-18,969999	-40,670002	2020-10-29T19:35:33:028
-132,160004	-12,810000	-21,210001	2020-10-29T19:35:33:052
-52,220001	43,750000	-12,180000	2020-10-29T19:35:33:070
-1,750000	27,370001	-0,280000	2020-10-29T19:35:33:091
15,540000	4,760000	18,969999	2020-10-29T19:35:33:109
-0,700000	-4,270000	21,280001	2020-10-29T19:35:33:132
-6,860000	-10,080000	34,090000	2020-10-29T19:35:33:148
14,630000	-22,469999	41,439999	2020-10-29T19:35:33:171
41,860001	-30,240000	48,650002	2020-10-29T19:35:33:188
55,650002	-24,080000	53,900002	2020-10-29T19:35:33:212
54,250000	-14,630000	53,830002	2020-10-29T19:35:33:229
47,950001	-15,890000	54,180000	2020-10-29T19:35:33:252
44,240002	-24,920000	51,029999	2020-10-29T19:35:33:268
22,330000	-36,750000	39,970001	2020-10-29T19:35:33:291
-2,870000	-45,920002	23,240000	2020-10-29T19:35:33:309
-30,380001	-59,639999	-0,700000	2020-10-29T19:35:33:332
-52,500000	-68,110001	-22,330000	2020-10-29T19:35:33:348
-70,699997	-67,760002	-44,099998	2020-10-29T19:35:33:372
-88,550003	-62,299999	-66,150002	2020-10-29T19:35:33:389
-99,750000	-57,889999	-85,680000	2020-10-29T19:35:33:412
-106,050003	-58,099998	-100,379997	2020-10-29T19:35:33:429
-108,360001	-62,439999	-107,590004	2020-10-29T19:35:33:452
-114,029999	-65,519997	-113,260002	2020-10-29T19:35:33:469
-122,849998	-66,290001	-115,989998	2020-10-29T19:35:33:493
-125,650002	-68,599998	-111,370003	2020-10-29T19:35:33:509
-121,520004	-70,980003	-101,500000	2020-10-29T19:35:33:534
-117,250000	-70,489998	-85,820000	2020-10-29T19:35:33:549
-113,190002	-65,730003	-64,889999	2020-10-29T19:35:33:572
-100,379997	-63,209999	-39,970001	2020-10-29T19:35:33:589
-78,400002	-62,439999	-12,950000	2020-10-29T19:35:33:613
-57,889999	-55,020000	16,450001	2020-10-29T19:35:33:629
-41,860001	-37,799999	47,740002	2020-10-29T19:35:33:651
-29,889999	-15,330000	78,959999	2020-10-29T19:35:33:669
-24,639999	4,200000	108,360001	2020-10-29T19:35:33:693
-34,650002	13,860000	134,330002	2020-10-29T19:35:33:716
-55,230000	17,360001	157,639999	2020-10-29T19:35:33:735
-79,029999	19,320000	175,490005	2020-10-29T19:35:33:749
-97,160004	18,129999	185,149994	2020-10-29T19:35:33:773
-104,230003	13,580000	181,789993	2020-10-29T19:35:33:789
-99,680000	10,990000	168,839996	2020-10-29T19:35:33:815
-79,169998	0,770000	149,869995	2020-10-29T19:35:33:830
-42,349998	-11,690000	128,800003	2020-10-29T19:35:33:852
-6,510000	-2,800000	117,809998	2020-10-29T19:35:33:869
-6,020000	21,840000	88,760002	2020-10-29T19:35:33:892
-58,520000	18,690001	51,939999	2020-10-29T19:35:33:912
-120,889999	10,570000	39,480000	2020-10-29T19:35:33:933
-179,270004	9,450000	31,080000	2020-10-29T19:35:33:949
-222,250000	0,140000	31,010000	2020-10-29T19:35:33:974
-242,270004	-12,180000	31,150000	2020-10-29T19:35:33:989
-229,040009	-19,950001	38,430000	2020-10-29T19:35:34:014
-195,509995	-19,389999	42,420002	2020-10-29T19:35:34:030
-149,309998	-8,190000	45,779999	2020-10-29T19:35:34:052
-94,290001	17,570000	50,189999	2020-10-29T19:35:34:070
-38,009998	42,420002	53,480000	2020-10-29T19:35:34:094
15,890000	40,880001	52,709999	2020-10-29T19:35:34:110
68,040001	25,410000	49,700001	2020-10-29T19:35:34:133
121,590004	19,460001	41,509998	2020-10-29T19:35:34:149
174,020004	23,870001	25,410000	2020-10-29T19:35:34:173
222,180008	27,650000	6,860000	2020-10-29T19:35:34:190
244,509995	25,480000	-21,280001	2020-10-29T19:35:34:214
232,190002	16,590000	-49,490002	2020-10-29T19:35:34:230
199,919998	5,880000	-69,790001	2020-10-29T19:35:34:254
146,789993	-1,260000	-90,510002	2020-10-29T19:35:34:270
84,279999	-2,380000	-106,470001	2020-10-29T19:35:34:293
33,110001	-1,960000	-117,320000	2020-10-29T19:35:34:310
3,570000	0,280000	-119,419998	2020-10-29T19:35:34:334
-3,640000	0,350000	-116,410004	2020-10-29T19:35:34:350
166,529999	-8,610000	-45,150002	2020-10-29T19:35:34:373
262,010010	-23,100000	-23,730000	2020-10-29T19:35:34:390
277,970001	-28,210001	7,140000	2020-10-29T19:35:34:413
221,970001	-26,110001	0,070000	2020-10-29T19:35:34:431
129,430008	-12,320000	-16,520000	2020-10-29T19:35:34:454
41,160000	-3,430000	-35,000000	2020-10-29T19:35:34:469
-28,770000	-3,080000	-48,509998	2020-10-29T19:35:34:494
-78,820000	-1,890000	-53,689999	2020-10-29T19:35:34:510
-117,389999	4,690000	-62,020000	2020-10-29T19:35:34:533
-137,270004	8,190000	-65,800003	2020-10-29T19:35:34:550
-121,169998	6,160000	-60,549999	2020-10-29T19:35:34:574
-76,790001	2,310000	-51,590000	2020-10-29T19:35:34:590
-30,730000	1,820000	-41,790001	2020-10-29T19:35:34:613
3,220000	12,460000	-28,420000	2020-10-29T19:35:34:630
34,090000	10,500000	-17,150000	2020-10-29T19:35:34:654
53,060001	8,400000	-6,160000	2020-10-29T19:35:34:670
53,970001	17,710001	3,010000	2020-10-29T19:35:34:694
48,090000	19,670000	9,170000	2020-10-29T19:35:34:710
60,549999	14,420000	18,690001	2020-10-29T19:35:34:734
74,970001	23,100000	21,000000	2020-10-29T19:35:34:750
84,699997	39,060001	20,440001	2020-10-29T19:35:34:773
94,220001	45,920002	18,690001	2020-10-29T19:35:34:791
107,940002	39,480000	16,309999	2020-10-29T19:35:34:815
123,620003	29,260000	13,370000	2020-10-29T19:35:34:830
136,149994	23,379999	8,540000	2020-10-29T19:35:34:853
140,770004	23,379999	6,090000	2020-10-29T19:35:34:871
133,070007	28,490000	5,880000	2020-10-29T19:35:34:894
118,860001	30,240000	7,280000	2020-10-29T19:35:34:911
103,669998	24,080000	9,660000	2020-10-29T19:35:34:935
95,830002	11,760000	12,530000	2020-10-29T19:35:34:950
89,180000	3,500000	14,280000	2020-10-29T19:35:34:974
79,309998	-0,700000	13,440001	2020-10-29T19:35:34:991
75,809998	-4,620000	10,150000	2020-10-29T19:35:35:013
74,059998	-6,720000	1,680000	2020-10-29T19:35:35:031
72,309998	-5,530000	-5,740000	2020-10-29T19:35:35:054
70,489998	0,070000	-15,120000	2020-10-29T19:35:35:070
67,129997	7,910000	-23,799999	2020-10-29T19:35:35:095
62,230000	15,750000	-30,030001	2020-10-29T19:35:35:111
57,540001	22,680000	-31,360001	2020-10-29T19:35:35:135
54,529999	30,030001	-26,180000	2020-10-29T19:35:35:151
53,340000	41,090000	-16,520000	2020-10-29T19:35:35:175
57,959999	51,310001	-1,890000	2020-10-29T19:35:35:190
73,360001	52,779999	15,120000	2020-10-29T19:35:35:215
104,090004	53,410000	34,720001	2020-10-29T19:35:35:231
145,180008	57,540001	51,450001	2020-10-29T19:35:35:253
173,880005	60,200001	58,170002	2020-10-29T19:35:35:271
178,850006	62,580002	56,490002	2020-10-29T19:35:35:295
175,699997	70,000000	49,700001	2020-10-29T19:35:35:311
178,990005	74,620003	41,650002	2020-10-29T19:35:35:334
182,419998	73,150002	30,170000	2020-10-29T19:35:35:351
179,270004	67,830002	19,809999	2020-10-29T19:35:35:374
171,500000	64,889999	10,430000	2020-10-29T19:35:35:391
158,199997	61,880001	1,890000	2020-10-29T19:35:35:414
140,139999	55,790001	-3,920000	2020-10-29T19:35:35:431
121,800003	48,369999	-7,280000	2020-10-29T19:35:35:455
73,500000	47,599998	-7,980000	2020-10-29T19:35:35:471
23,870001	38,220001	-12,320000	2020-10-29T19:35:35:494
-28,420000	14,910000	-6,650000	2020-10-29T19:35:35:511
-66,220001	2,870000	-12,670000	2020-10-29T19:35:35:535
-38,709999	-9,520000	-22,820000	2020-10-29T19:35:35:551
30,870001	-27,930000	-21,910000	2020-10-29T19:35:35:574
89,599998	-32,970001	-25,340000	2020-10-29T19:35:35:591
102,129997	-24,780001	-39,410000	2020-10-29T19:35:35:615
99,959999	-20,790001	-55,299999	2020-10-29T19:35:35:632
102,269997	-25,830000	-61,459999	2020-10-29T19:35:35:655
99,610001	-27,090000	-64,400002	2020-10-29T19:35:35:671
85,470001	-23,379999	-62,230000	2020-10-29T19:35:35:695
62,160000	-25,410000	-57,889999	2020-10-29T19:35:35:711
35,560001	-39,689999	-54,950001	2020-10-29T19:35:35:734
15,540000	-53,830002	-49,630001	2020-10-29T19:35:35:752
-6,790000	-59,920002	-48,720001	2020-10-29T19:35:35:774
-25,270000	-59,570000	-51,170002	2020-10-29T19:35:35:791
-36,400002	-60,619999	-56,980000	2020-10-29T19:35:35:815
-42,840000	-59,010002	-62,439999	2020-10-29T19:35:35:831
-54,320000	-50,470001	-70,489998	2020-10-29T19:35:35:855
-72,309998	-35,349998	-79,519997	2020-10-29T19:35:35:871
-78,820000	-18,410000	-78,470001	2020-10-29T19:35:35:895
-70,000000	-0,490000	-71,540001	2020-10-29T19:35:35:911
-55,230000	14,980000	-59,990002	2020-10-29T19:35:35:935
-31,500000	25,830000	-40,459999	2020-10-29T19:35:35:951
1,540000	37,240002	-17,010000	2020-10-29T19:35:35:974
34,299999	49,770000	7,910000	2020-10-29T19:35:35:991
62,020000	63,209999	33,950001	2020-10-29T19:35:36:015
87,989998	76,580002	58,029999	2020-10-29T19:35:36:032
116,620003	89,180000	80,360001	2020-10-29T19:35:36:055
141,259995	104,300003	97,790001	2020-10-29T19:35:36:071
143,710007	111,020004	99,889999	2020-10-29T19:35:36:095
134,190002	90,720001	71,120003	2020-10-29T19:35:36:112
182,070007	45,920002	21,910000	2020-10-29T19:35:36:136
216,020004	9,380000	42,770000	2020-10-29T19:35:36:152
98,419998	-0,630000	15,190001	2020-10-29T19:35:36:175
-35,209999	7,070000	-1,050000	2020-10-29T19:35:36:192
-108,500000	19,320000	-7,490000	2020-10-29T19:35:36:216
-92,959999	38,430000	4,340000	2020-10-29T19:35:36:232
-14,910000	28,700001	26,389999	2020-10-29T19:35:36:255
50,049999	-8,190000	40,040001	2020-10-29T19:35:36:272
57,680000	-17,219999	46,410000	2020-10-29T19:35:36:294
22,260000	-3,500000	44,939999	2020-10-29T19:35:36:312
-14,700000	11,060000	41,580002	2020-10-29T19:35:36:336
-15,750000	12,740000	37,590000	2020-10-29T19:35:36:352
6,860000	5,040000	34,790001	2020-10-29T19:35:36:375
23,379999	-4,830000	33,250000	2020-10-29T19:35:36:392
24,219999	-10,360000	28,420000	2020-10-29T19:35:36:416
21,490000	-14,140000	20,860001	2020-10-29T19:35:36:432
21,000000	-14,980000	13,090000	2020-10-29T19:35:36:455
19,600000	-10,010000	10,990000	2020-10-29T19:35:36:472
9,380000	-3,430000	14,490000	2020-10-29T19:35:36:495
-12,320000	-7,840000	19,389999	2020-10-29T19:35:36:512
-48,020000	-19,110001	21,139999	2020-10-29T19:35:36:536
-106,889999	-27,650000	28,070000	2020-10-29T19:35:36:552
-131,600006	-25,900000	28,840000	2020-10-29T19:35:36:575
-142,660004	-28,420000	21,139999	2020-10-29T19:35:36:592
-135,800003	-32,549999	10,220000	2020-10-29T19:35:36:616
-109,129997	-32,060001	0,070000	2020-10-29T19:35:36:632
-75,110001	-26,110001	-14,420000	2020-10-29T19:35:36:656
-43,259998	-13,020000	-31,080000	2020-10-29T19:35:36:672
-12,320000	-8,120000	-44,450001	2020-10-29T19:35:36:695
17,290001	-6,510000	-56,139999	2020-10-29T19:35:36:713
37,240002	-8,120000	-67,970001	2020-10-29T19:35:36:736
48,790001	-8,820000	-74,059998	2020-10-29T19:35:36:752
61,880001	-3,150000	-72,590004	2020-10-29T19:35:36:775
67,970001	3,080000	-72,800003	2020-10-29T19:35:36:792
58,869999	5,180000	-69,160004	2020-10-29T19:35:36:816
17,639999	4,690000	-70,419998	2020-10-29T19:35:36:834
-32,759998	9,380000	-62,720001	2020-10-29T19:35:36:855
-66,570000	9,450000	-57,260002	2020-10-29T19:35:36:872
-78,190002	-3,710000	-54,389999	2020-10-29T19:35:36:896
-87,290001	-12,250000	-54,250000	2020-10-29T19:35:36:912
-98,769997	0,070000	-51,310001	2020-10-29T19:35:36:935
-83,860001	11,900000	-44,869999	2020-10-29T19:35:36:952
-65,239998	13,020000	-34,369999	2020-10-29T19:35:36:976
-83,090004	1,540000	-23,660000	2020-10-29T19:35:36:992
-116,550003	-7,980000	-10,640000	2020-10-29T19:35:37:016
-160,229996	-16,799999	-7,420000	2020-10-29T19:35:37:033
-212,240005	-35,070000	-3,920000	2020-10-29T19:35:37:056
-253,470001	-57,889999	17,780001	2020-10-29T19:35:37:072
-241,009995	-72,660004	61,740002	2020-10-29T19:35:37:095
-207,059998	-71,889999	113,959999	2020-10-29T19:35:37:113
-226,169998	14,700000	72,519997	2020-10-29T19:35:37:136
-99,260002	64,750000	22,120001	2020-10-29T19:35:37:152
43,959999	11,200000	68,320000	2020-10-29T19:35:37:175
-21,629999	18,059999	18,410000	2020-10-29T19:35:37:193
-71,750000	28,000000	-2,100000	2020-10-29T19:35:37:216
4,130000	21,559999	3,850000	2020-10-29T19:35:37:233
78,959999	14,490000	22,960001	2020-10-29T19:35:37:255
68,949997	8,750000	25,900000	2020-10-29T19:35:37:273
58,520000	14,280000	33,880001	2020-10-29T19:35:37:296
65,940002	17,780001	47,250000	2020-10-29T19:35:37:313
48,230000	27,090000	42,490002	2020-10-29T19:35:37:337
32,410000	29,469999	36,400002	2020-10-29T19:35:37:352
19,389999	28,630001	29,889999	2020-10-29T19:35:37:376
18,690001	27,160000	32,060001	2020-10-29T19:35:37:393
13,930000	26,040001	32,689999	2020-10-29T19:35:37:416
12,600000	23,030001	34,090000	2020-10-29T19:35:37:433
4,690000	21,840000	30,240000	2020-10-29T19:35:37:457
3,920000	19,389999	29,049999	2020-10-29T19:35:37:473
0,420000	24,430000	25,480000	2020-10-29T19:35:37:496
-6,020000	24,219999	18,480000	2020-10-29T19:35:37:513
-12,880000	14,980000	12,530000	2020-10-29T19:35:37:537
-24,500000	14,700000	9,800000	2020-10-29T19:35:37:553
-15,260000	11,060000	10,500000	2020-10-29T19:35:37:575
-11,970000	4,480000	6,580000	2020-10-29T19:35:37:593
-19,250000	4,340000	3,150000	2020-10-29T19:35:37:617
-6,650000	-1,470000	1,540000	2020-10-29T19:35:37:633
-9,170000	-5,810000	-6,300000	2020-10-29T19:35:37:656
-18,340000	-10,500000	-7,000000	2020-10-29T19:35:37:673
-25,410000	-20,020000	-11,480000	2020-10-29T19:35:37:697
-19,460001	-21,700001	-17,219999	2020-10-29T19:35:37:713
-12,320000	-25,129999	-19,740000	2020-10-29T19:35:37:736
-20,230000	-38,290001	-21,559999	2020-10-29T19:35:37:753
-13,510000	-42,630001	-16,030001	2020-10-29T19:35:37:777
1,960000	-37,310001	-12,040000	2020-10-29T19:35:37:793
-13,300000	-45,779999	-20,650000	2020-10-29T19:35:37:817
-5,460000	-58,170002	-22,190001	2020-10-29T19:35:37:833
2,590000	-64,470001	-23,450001	2020-10-29T19:35:37:857
11,480000	-74,480003	-30,520000	2020-10-29T19:35:37:873
17,219999	-88,900002	-34,930000	2020-10-29T19:35:37:896
20,160000	-104,720001	-33,180000	2020-10-29T19:35:37:914
-20,719999	-129,080002	-12,390000	2020-10-29T19:35:37:937
-3,640000	-37,450001	14,280000	2020-10-29T19:35:37:953
18,200001	-42,910000	15,820000	2020-10-29T19:35:37:977
4,480000	-125,300003	-32,549999	2020-10-29T19:35:37:993
6,230000	-91,559998	0,910000	2020-10-29T19:35:38:018
18,480000	-83,510002	3,780000	2020-10-29T19:35:38:034
-18,690001	-108,360001	-23,870001	2020-10-29T19:35:38:057
-21,629999	-116,550003	-28,280001	2020-10-29T19:35:38:073
-21,420000	-137,830002	-39,689999	2020-10-29T19:35:38:098
-33,040001	-141,050003	-47,529999	2020-10-29T19:35:38:114
-47,810001	-140,979996	-46,619999	2020-10-29T19:35:38:142
-48,720001	-135,449997	-42,070000	2020-10-29T19:35:38:154
-45,150002	-116,760002	-32,410000	2020-10-29T19:35:38:177
-45,639999	-110,949997	-35,560001	2020-10-29T19:35:38:193
-35,630001	-120,959999	-41,509998	2020-10-29T19:35:38:217
-20,020000	-147,630005	-58,660000	2020-10-29T19:35:38:234
20,370001	-161,839996	-78,820000	2020-10-29T19:35:38:257
4,060000	-170,589996	-81,900002	2020-10-29T19:35:38:274
-13,090000	-173,180008	-48,299999	2020-10-29T19:35:38:297
-24,080000	-154,070007	-54,950001	2020-10-29T19:35:38:314
-32,689999	-169,190002	-70,279999	2020-10-29T19:35:38:338
-15,540000	-188,020004	-58,939999	2020-10-29T19:35:38:354
-27,930000	-186,270004	-51,590000	2020-10-29T19:35:38:376
-33,040001	-186,899994	-59,150002	2020-10-29T19:35:38:394
21,559999	-207,130005	-49,000000	2020-10-29T19:35:38:418
70,070000	-233,520004	-34,509998	2020-10-29T19:35:38:434
69,720001	-230,089996	-14,490000	2020-10-29T19:35:38:457
34,369999	-204,889999	5,320000	2020-10-29T19:35:38:474
-18,410000	-175,699997	24,010000	2020-10-29T19:35:38:498
-70,629997	-154,490005	48,580002	2020-10-29T19:35:38:515
-125,930000	-128,800003	76,510002	2020-10-29T19:35:38:539
-190,960007	-96,250000	98,910004	2020-10-29T19:35:38:554
-219,520004	-71,190002	126,840004	2020-10-29T19:35:38:578
-172,830002	-77,629997	153,860001	2020-10-29T19:35:38:594
-98,699997	-86,099998	184,029999	2020-10-29T19:35:38:617
-31,570000	-71,610001	201,529999	2020-10-29T19:35:38:636
0,840000	-59,220001	191,240005	2020-10-29T19:35:38:657
3,990000	-69,510002	161,490005	2020-10-29T19:35:38:674
148,960007	-33,810001	164,779999	2020-10-29T19:35:38:698
108,570000	-7,980000	170,309998	2020-10-29T19:35:38:714
-33,459999	16,799999	160,160004	2020-10-29T19:35:38:738
-43,540001	30,030001	126,489998	2020-10-29T19:35:38:754
39,270000	21,350000	119,279999	2020-10-29T19:35:38:778
126,209999	42,560001	117,739998	2020-10-29T19:35:38:794
125,370003	67,129997	84,769997	2020-10-29T19:35:38:818
91,980003	72,379997	62,439999	2020-10-29T19:35:38:834
120,400002	37,450001	34,930000	2020-10-29T19:35:38:858
227,290009	17,710001	13,160000	2020-10-29T19:35:38:874
230,580002	25,270000	16,170000	2020-10-29T19:35:38:898
95,410004	22,190001	-4,340000	2020-10-29T19:35:38:914
-25,549999	4,130000	-12,250000	2020-10-29T19:35:38:938
-38,290001	-3,080000	-7,420000	2020-10-29T19:35:38:954
-9,030000	1,960000	1,820000	2020-10-29T19:35:38:978
1,820000	11,900000	10,570000	2020-10-29T19:35:38:995
-4,970000	13,930000	13,090000	2020-10-29T19:35:39:018
-19,740000	15,260000	9,660000	2020-10-29T19:35:39:034
-14,420000	18,969999	4,900000	2020-10-29T19:35:39:058
6,230000	23,520000	4,060000	2020-10-29T19:35:39:074
19,600000	24,500000	3,570000	2020-10-29T19:35:39:096
13,440001	23,870001	0,350000	2020-10-29T19:35:39:115
3,290000	26,809999	-0,700000	2020-10-29T19:35:39:139
4,550000	30,870001	0,840000	2020-10-29T19:35:39:154
12,320000	29,120001	2,590000	2020-10-29T19:35:39:179
11,200000	25,480000	-1,120000	2020-10-29T19:35:39:194
16,030001	23,030001	3,290000	2020-10-29T19:35:39:220
10,360000	17,360001	4,130000	2020-10-29T19:35:39:235
1,330000	10,710000	2,940000	2020-10-29T19:35:39:259
-4,130000	5,950000	3,780000	2020-10-29T19:35:39:274
-7,210000	3,010000	3,360000	2020-10-29T19:35:39:299
-8,680000	2,800000	2,800000	2020-10-29T19:35:39:315
-10,360000	5,180000	2,870000	2020-10-29T19:35:39:338
-14,210000	9,520000	3,010000	2020-10-29T19:35:39:354
-6,720000	17,780001	0,490000	2020-10-29T19:35:39:379
12,250000	22,750000	-4,480000	2020-10-29T19:35:39:394
17,430000	19,670000	-2,660000	2020-10-29T19:35:39:419
8,190000	17,080000	4,690000	2020-10-29T19:35:39:435
-3,920000	15,190001	9,800000	2020-10-29T19:35:39:458
-11,480000	15,190001	11,760000	2020-10-29T19:35:39:475
-14,560000	12,530000	15,820000	2020-10-29T19:35:39:498
-24,710001	7,980000	18,760000	2020-10-29T19:35:39:514
-27,719999	11,690000	13,930000	2020-10-29T19:35:39:539
-24,430000	16,240000	9,450000	2020-10-29T19:35:39:555
-12,810000	17,360001	11,340000	2020-10-29T19:35:39:578
-0,630000	17,639999	15,820000	2020-10-29T19:35:39:595
3,290000	18,410000	13,370000	2020-10-29T19:35:39:619
-0,490000	16,590000	10,710000	2020-10-29T19:35:39:635
-3,640000	16,030001	8,190000	2020-10-29T19:35:39:658
-2,590000	14,560000	9,660000	2020-10-29T19:35:39:675
-3,640000	12,740000	10,220000	2020-10-29T19:35:39:699
-10,570000	9,170000	10,570000	2020-10-29T19:35:39:715
-14,560000	7,280000	15,890000	2020-10-29T19:35:39:740
-16,520000	4,550000	20,510000	2020-10-29T19:35:39:754
-18,340000	1,050000	21,629999	2020-10-29T19:35:39:779
-20,020000	0,910000	17,710001	2020-10-29T19:35:39:795
-4,830000	2,870000	14,770000	2020-10-29T19:35:39:818
5,390000	6,020000	10,850000	2020-10-29T19:35:39:835
11,270000	7,420000	10,080000	2020-10-29T19:35:39:859
12,950000	8,050000	7,560000	2020-10-29T19:35:39:875
12,530000	9,800000	7,140000	2020-10-29T19:35:39:897
8,960000	10,990000	6,510000	2020-10-29T19:35:39:915
7,420000	12,460000	5,110000	2020-10-29T19:35:39:939
8,050000	14,770000	3,990000	2020-10-29T19:35:39:955
7,210000	14,490000	2,730000	2020-10-29T19:35:39:979
6,440000	14,280000	1,960000	2020-10-29T19:35:39:995
6,370000	13,930000	1,890000	2020-10-29T19:35:40:019
6,860000	12,600000	1,820000	2020-10-29T19:35:40:036
5,250000	10,290000	1,540000	2020-10-29T19:35:40:058
3,640000	7,350000	2,450000	2020-10-29T19:35:40:075
2,660000	5,110000	0,910000	2020-10-29T19:35:40:099
-2,100000	3,430000	1,890000	2020-10-29T19:35:40:117
-7,280000	2,730000	2,310000	2020-10-29T19:35:40:139
-6,510000	3,920000	0,910000	2020-10-29T19:35:40:155
-3,920000	2,800000	0,840000	2020-10-29T19:35:40:179
-1,820000	4,830000	1,120000	2020-10-29T19:35:40:195
2,030000	2,030000	0,490000	2020-10-29T19:35:40:219
-0,910000	0,630000	4,480000	2020-10-29T19:35:40:235
0,490000	-0,770000	9,590000	2020-10-29T19:35:40:260
-0,140000	-0,280000	3,430000	2020-10-29T19:35:40:275
4,900000	-5,110000	6,790000	2020-10-29T19:35:40:298
9,450000	-5,880000	6,650000	2020-10-29T19:35:40:316
12,250000	-3,360000	7,280000	2020-10-29T19:35:40:340
10,920000	-2,170000	4,060000	2020-10-29T19:35:40:355
12,600000	-0,910000	3,080000	2020-10-29T19:35:40:379
14,140000	-2,310000	1,400000	2020-10-29T19:35:40:395
8,260000	3,500000	2,380000	2020-10-29T19:35:40:419
11,830000	0,420000	-0,210000	2020-10-29T19:35:40:436
6,300000	1,330000	-1,820000	2020-10-29T19:35:40:459
16,170000	2,660000	-2,450000	2020-10-29T19:35:40:476
12,040000	0,840000	0,630000	2020-10-29T19:35:40:500
9,450000	3,710000	-3,920000	2020-10-29T19:35:40:516
2,450000	2,380000	-2,730000	2020-10-29T19:35:40:539
-6,580000	5,320000	-2,240000	2020-10-29T19:35:40:556
-12,600000	5,250000	-4,690000	2020-10-29T19:35:40:579
-17,080000	2,940000	-0,420000	2020-10-29T19:35:40:595
-17,639999	7,070000	-3,010000	2020-10-29T19:35:40:619
-14,490000	9,450000	-4,900000	2020-10-29T19:35:40:636
-9,590000	8,120000	-4,200000	2020-10-29T19:35:40:660
-8,050000	7,280000	-3,360000	2020-10-29T19:35:40:676
-9,240000	6,440000	-3,080000	2020-10-29T19:35:40:699
-11,620000	4,690000	-2,660000	2020-10-29T19:35:40:716
-13,370000	3,010000	-1,680000	2020-10-29T19:35:40:740
-14,280000	2,380000	-1,750000	2020-10-29T19:35:40:757
-13,650000	2,240000	-1,470000	2020-10-29T19:35:40:779
-11,200000	1,400000	-1,610000	2020-10-29T19:35:40:796
-6,720000	0,770000	-1,120000	2020-10-29T19:35:40:820
-4,130000	0,350000	-0,700000	2020-10-29T19:35:40:836
-3,850000	-0,560000	-0,490000	2020-10-29T19:35:40:859
-3,220000	-0,560000	-0,140000	2020-10-29T19:35:40:876
-3,150000	-1,400000	1,050000	2020-10-29T19:35:40:900
-3,150000	-1,540000	1,400000	2020-10-29T19:35:40:916
-3,920000	-1,610000	1,120000	2020-10-29T19:35:40:941
-2,800000	-1,260000	0,490000	2020-10-29T19:35:40:956
-0,210000	-0,280000	0,630000	2020-10-29T19:35:40:980
-0,420000	-1,120000	0,700000	2020-10-29T19:35:40:996
-0,280000	-1,260000	0,210000	2020-10-29T19:35:41:018
-0,980000	-0,700000	0,280000	2020-10-29T19:35:41:037
-1,540000	-1,960000	1,400000	2020-10-29T19:35:41:061
-1,190000	-2,520000	1,050000	2020-10-29T19:35:41:076
-1,820000	-1,750000	-0,140000	2020-10-29T19:35:41:099
-1,890000	-1,750000	-1,470000	2020-10-29T19:35:41:116
-2,940000	-1,470000	-2,520000	2020-10-29T19:35:41:140
-3,920000	-0,560000	-3,850000	2020-10-29T19:35:41:156
-2,870000	-0,560000	-4,760000	2020-10-29T19:35:41:180
-2,800000	-0,770000	-5,530000	2020-10-29T19:35:41:196
-3,710000	-0,910000	-5,600000	2020-10-29T19:35:41:222
-6,020000	-2,380000	-4,690000	2020-10-29T19:35:41:236
-7,560000	-3,640000	-4,200000	2020-10-29T19:35:41:259
-7,350000	-3,500000	-3,640000	2020-10-29T19:35:41:277
-7,070000	-3,290000	-3,430000	2020-10-29T19:35:41:301
-5,250000	-1,050000	-4,550000	2020-10-29T19:35:41:317
1,120000	2,170000	-5,810000	2020-10-29T19:35:41:339
16,520000	3,780000	-9,730000	2020-10-29T19:35:41:357
33,110001	6,020000	-11,200000	2020-10-29T19:35:41:381
40,389999	1,120000	-7,630000	2020-10-29T19:35:41:397
41,439999	-18,410000	-13,510000	2020-10-29T19:35:41:420
62,439999	-30,940001	-36,610001	2020-10-29T19:35:41:436
112,629997	-19,740000	-26,320000	2020-10-29T19:35:41:461
113,260002	2,380000	-25,969999	2020-10-29T19:35:41:477
76,300003	35,349998	-20,440001	2020-10-29T19:35:41:499
28,559999	57,189999	-15,120000	2020-10-29T19:35:41:517
-3,570000	66,919998	-21,350000	2020-10-29T19:35:41:542
-35,349998	67,760002	-32,200001	2020-10-29T19:35:41:557
-42,209999	71,889999	-36,049999	2020-10-29T19:35:41:579
-34,090000	76,230003	-35,840000	2020-10-29T19:35:41:597
-45,430000	53,970001	-39,689999	2020-10-29T19:35:41:621
7,630000	32,060001	-18,340000	2020-10-29T19:35:41:637
40,599998	26,389999	-16,520000	2020-10-29T19:35:41:661
25,969999	34,439999	-1,610000	2020-10-29T19:35:41:677
-9,310000	53,410000	9,310000	2020-10-29T19:35:41:701
-31,990000	80,080002	22,680000	2020-10-29T19:35:41:717
-39,689999	102,620003	21,980000	2020-10-29T19:35:41:740
-22,750000	119,419998	24,080000	2020-10-29T19:35:41:757
8,190000	133,279999	25,480000	2020-10-29T19:35:41:781
14,420000	147,350006	23,030001	2020-10-29T19:35:41:797
2,450000	144,270004	21,350000	2020-10-29T19:35:41:820
15,680000	62,020000	-0,070000	2020-10-29T19:35:41:837
-2,870000	49,770000	-18,270000	2020-10-29T19:35:41:861
-30,170000	78,050003	-20,580000	2020-10-29T19:35:41:877
-43,750000	91,139999	-15,750000	2020-10-29T19:35:41:901
-39,130001	98,699997	-6,720000	2020-10-29T19:35:41:917
-28,910000	105,559998	7,560000	2020-10-29T19:35:41:942
-22,469999	109,480003	15,400000	2020-10-29T19:35:41:957
-16,100000	110,320000	20,860001	2020-10-29T19:35:41:980
-9,800000	111,930000	24,990000	2020-10-29T19:35:41:997
-9,100000	109,410004	29,820000	2020-10-29T19:35:42:021
-9,170000	105,699997	36,049999	2020-10-29T19:35:42:037
-6,650000	104,090004	45,570000	2020-10-29T19:35:42:060
-8,470000	101,919998	53,830002	2020-10-29T19:35:42:077
-13,230000	99,540001	61,599998	2020-10-29T19:35:42:101
-13,860000	102,269997	68,599998	2020-10-29T19:35:42:117
-18,200001	105,489998	72,660004	2020-10-29T19:35:42:141
-11,270000	107,730003	76,019997	2020-10-29T19:35:42:157
12,950000	112,629997	75,669998	2020-10-29T19:35:42:181
63,700001	114,379997	74,269997	2020-10-29T19:35:42:197
125,370003	123,410004	71,889999	2020-10-29T19:35:42:220
147,070007	107,800003	64,680000	2020-10-29T19:35:42:238
157,710007	48,369999	27,230000	2020-10-29T19:35:42:261
137,970001	-6,930000	-10,850000	2020-10-29T19:35:42:277
114,029999	-69,090004	-25,549999	2020-10-29T19:35:42:301
94,360001	-98,349998	-11,620000	2020-10-29T19:35:42:318
44,310001	-109,480003	-11,690000	2020-10-29T19:35:42:341
-29,469999	-109,410004	-14,490000	2020-10-29T19:35:42:358
-78,820000	-96,459999	-23,870001	2020-10-29T19:35:42:382
-98,559998	-86,660004	-31,010000	2020-10-29T19:35:42:398
-101,430000	-94,709999	-25,620001	2020-10-29T19:35:42:422
-109,760002	-99,400002	-24,430000	2020-10-29T19:35:42:438
-116,620003	-95,830002	-23,240000	2020-10-29T19:35:42:461
-102,830002	-83,650002	-15,470000	2020-10-29T19:35:42:479
-89,949997	-73,290001	-12,390000	2020-10-29T19:35:42:502
-115,080002	-64,610001	-19,600000	2020-10-29T19:35:42:518
-166,740005	-56,630001	-34,790001	2020-10-29T19:35:42:541
-211,820007	-53,130001	-48,720001	2020-10-29T19:35:42:558
-234,220001	-53,900002	-57,889999	2020-10-29T19:35:42:582
-245,350006	-53,830002	-66,150002	2020-10-29T19:35:42:598
-251,020004	-52,849998	-69,510002	2020-10-29T19:35:42:623
-252,490005	-52,570000	-68,949997	2020-10-29T19:35:42:638
-242,270004	-54,459999	-66,500000	2020-10-29T19:35:42:662
-214,479996	-58,520000	-60,270000	2020-10-29T19:35:42:678
-176,259995	-62,930000	-52,709999	2020-10-29T19:35:42:700
-138,669998	-64,820000	-43,820000	2020-10-29T19:35:42:719
-108,220001	-69,230003	-35,209999	2020-10-29T19:35:42:743
-87,080002	-74,620003	-26,809999	2020-10-29T19:35:42:758
-76,790001	-77,840004	-18,620001	2020-10-29T19:35:42:781
-75,669998	-78,889999	-11,340000	2020-10-29T19:35:42:798
-83,160004	-78,959999	-5,110000	2020-10-29T19:35:42:823
-98,559998	-80,919998	0,210000	2020-10-29T19:35:42:839
-119,419998	-80,779999	6,720000	2020-10-29T19:35:42:863
-142,869995	-77,209999	15,050000	2020-10-29T19:35:42:878
-165,199997	-75,599998	23,870001	2020-10-29T19:35:42:902
-176,050003	-73,849998	35,560001	2020-10-29T19:35:42:918
-178,710007	-69,160004	48,299999	2020-10-29T19:35:42:941
-180,460007	-60,060001	61,320000	2020-10-29T19:35:42:959
-193,899994	-48,020000	71,330002	2020-10-29T19:35:42:983
-210,000000	-34,720001	81,129997	2020-10-29T19:35:42:999
-222,949997	-22,260000	89,389999	2020-10-29T19:35:43:022
-229,320007	-13,300000	97,580002	2020-10-29T19:35:43:039
-229,600006	-7,910000	103,180000	2020-10-29T19:35:43:063
-221,690002	1,680000	107,590004	2020-10-29T19:35:43:078
-214,970001	5,040000	108,150002	2020-10-29T19:35:43:101
-200,759995	2,450000	109,059998	2020-10-29T19:35:43:119
-190,190002	-4,970000	108,989998	2020-10-29T19:35:43:143
-197,190002	-6,510000	105,769997	2020-10-29T19:35:43:158
-245,559998	2,660000	94,080002	2020-10-29T19:35:43:181
-305,829987	3,010000	77,070000	2020-10-29T19:35:43:199
-327,040009	-4,620000	60,480000	2020-10-29T19:35:43:222
-288,049988	-17,290001	40,810001	2020-10-29T19:35:43:239
-208,320007	-28,700001	26,180000	2020-10-29T19:35:43:262
-117,320000	-16,799999	22,610001	2020-10-29T19:35:43:278
-52,779999	5,460000	16,170000	2020-10-29T19:35:43:303
-24,850000	10,850000	4,480000	2020-10-29T19:35:43:319
-19,460001	1,540000	-4,270000	2020-10-29T19:35:43:343
-20,230000	-0,210000	-12,250000	2020-10-29T19:35:43:358
-29,469999	10,780000	-21,139999	2020-10-29T19:35:43:383
-43,259998	19,530001	-27,230000	2020-10-29T19:35:43:399
-44,170002	22,260000	-30,520000	2020-10-29T19:35:43:422
-21,840000	24,780001	-34,720001	2020-10-29T19:35:43:439
14,770000	24,710001	-41,580002	2020-10-29T19:35:43:463
54,320000	21,210001	-49,420002	2020-10-29T19:35:43:479
88,340004	19,600000	-57,959999	2020-10-29T19:35:43:502
117,599998	15,750000	-65,239998	2020-10-29T19:35:43:519
134,470001	6,580000	-74,620003	2020-10-29T19:35:43:544
134,889999	-6,020000	-85,330002	2020-10-29T19:35:43:560
124,110001	-15,120000	-95,550003	2020-10-29T19:35:43:583
109,129997	-18,340000	-101,010002	2020-10-29T19:35:43:599
94,849998	-21,770000	-102,830002	2020-10-29T19:35:43:623
73,779999	-31,780001	-107,169998	2020-10-29T19:35:43:639
49,139999	-42,700001	-111,860001	2020-10-29T19:35:43:662
29,680000	-36,820000	-111,790001	2020-10-29T19:35:43:679
22,960001	-26,460001	-107,660004	2020-10-29T19:35:43:703
26,809999	-28,700001	-103,669998	2020-10-29T19:35:43:719
25,059999	-35,910000	-101,500000	2020-10-29T19:35:43:742
16,730000	-35,910000	-95,410004	2020-10-29T19:35:43:759
5,110000	-29,960001	-87,430000	2020-10-29T19:35:43:783
-1,960000	-24,219999	-79,309998	2020-10-29T19:35:43:799
-0,280000	-20,299999	-71,610001	2020-10-29T19:35:43:823
0,140000	-21,139999	-62,510002	2020-10-29T19:35:43:839
-4,830000	-20,440001	-51,099998	2020-10-29T19:35:43:863
-11,200000	-16,379999	-37,310001	2020-10-29T19:35:43:879
-16,870001	-11,550000	-22,120001	2020-10-29T19:35:43:902
-19,740000	-9,380000	-5,670000	2020-10-29T19:35:43:920
-23,799999	-7,840000	12,600000	2020-10-29T19:35:43:944
-31,360001	-4,270000	32,340000	2020-10-29T19:35:43:959
-44,590000	-0,210000	52,990002	2020-10-29T19:35:43:982
-62,510002	3,570000	73,570000	2020-10-29T19:35:43:999
-83,930000	8,960000	94,639999	2020-10-29T19:35:44:023
-104,510002	17,360001	116,480003	2020-10-29T19:35:44:040
-118,650002	25,549999	137,830002	2020-10-29T19:35:44:066
-121,590004	23,660000	155,399994	2020-10-29T19:35:44:078
-119,349998	23,660000	171,009995	2020-10-29T19:35:44:105
-117,599998	40,810001	190,259995	2020-10-29T19:35:44:120
-118,370003	24,639999	184,100006	2020-10-29T19:35:44:143
-114,379997	-4,620000	171,080002	2020-10-29T19:35:44:160
-88,129997	-5,810000	152,740005	2020-10-29T19:35:44:184
-36,959999	-15,750000	130,410004	2020-10-29T19:35:44:200
32,689999	-27,090000	112,559998	2020-10-29T19:35:44:223
88,059998	-14,140000	93,800003	2020-10-29T19:35:44:240
114,029999	19,950001	70,419998	2020-10-29T19:35:44:264
114,449997	41,090000	49,000000	2020-10-29T19:35:44:279
97,510002	27,860001	28,139999	2020-10-29T19:35:44:304
53,970001	2,660000	6,860000	2020-10-29T19:35:44:320
-9,520000	-7,700000	-18,200001	2020-10-29T19:35:44:344
-70,000000	-5,320000	-37,939999	2020-10-29T19:35:44:360
-103,739998	-4,550000	-59,570000	2020-10-29T19:35:44:383
-114,870003	-12,950000	-93,870003	2020-10-29T19:35:44:401
-104,440002	-15,750000	-123,900002	2020-10-29T19:35:44:425
-72,590004	-9,240000	-142,169998	2020-10-29T19:35:44:440
-44,029999	-7,560000	-157,639999	2020-10-29T19:35:44:463
-29,400000	-10,360000	-166,949997	2020-10-29T19:35:44:480
-18,830000	-14,280000	-167,930008	2020-10-29T19:35:44:504
-10,290000	-14,000000	-168,910004	2020-10-29T19:35:44:522
12,670000	-13,230000	-165,199997	2020-10-29T19:35:44:546
46,270000	-15,190001	-158,270004	2020-10-29T19:35:44:560
87,919998	-13,020000	-146,649994	2020-10-29T19:35:44:584
117,459999	-5,250000	-135,589996	2020-10-29T19:35:44:600
119,980003	6,090000	-134,610001	2020-10-29T19:35:44:623
110,180000	19,740000	-129,570007	2020-10-29T19:35:44:640
100,590004	35,840000	-121,099998	2020-10-29T19:35:44:664
89,250000	51,240002	-110,669998	2020-10-29T19:35:44:680
70,629997	58,939999	-97,860001	2020-10-29T19:35:44:703
48,230000	58,590000	-77,209999	2020-10-29T19:35:44:720
29,889999	55,720001	-53,130001	2020-10-29T19:35:44:745
10,640000	55,580002	-26,950001	2020-10-29T19:35:44:760
-7,700000	60,760002	8,400000	2020-10-29T19:35:44:785
-31,500000	63,209999	44,099998	2020-10-29T19:35:44:800
-53,900002	59,080002	78,050003	2020-10-29T19:35:44:824
-70,000000	47,810001	106,260002	2020-10-29T19:35:44:841
-68,809998	34,299999	128,309998	2020-10-29T19:35:44:863
-51,939999	20,860001	139,580002	2020-10-29T19:35:44:881
-27,160000	10,990000	142,169998	2020-10-29T19:35:44:905
-0,560000	8,820000	137,759995	2020-10-29T19:35:44:920
21,420000	7,630000	121,730003	2020-10-29T19:35:44:944
32,759998	4,620000	95,550003	2020-10-29T19:35:44:961
44,170002	-1,750000	68,879997	2020-10-29T19:35:44:984
60,830002	-11,060000	44,730000	2020-10-29T19:35:45:001
71,750000	-16,590000	20,299999	2020-10-29T19:35:45:025
63,630001	-16,730000	-7,420000	2020-10-29T19:35:45:040
35,000000	-16,030001	-34,090000	2020-10-29T19:35:45:065
-1,890000	-17,990000	-50,820000	2020-10-29T19:35:45:080
-30,730000	-17,290001	-58,240002	2020-10-29T19:35:45:103
-47,180000	-9,030000	-55,860001	2020-10-29T19:35:45:121
-55,369999	-1,050000	-43,750000	2020-10-29T19:35:45:145
-63,490002	-11,900000	-30,940001	2020-10-29T19:35:45:161
-68,809998	-27,160000	-17,780001	2020-10-29T19:35:45:183
-72,379997	-28,000000	-2,730000	2020-10-29T19:35:45:201
-72,800003	-21,420000	11,270000	2020-10-29T19:35:45:225
-67,059998	-21,840000	27,299999	2020-10-29T19:35:45:241
-62,299999	-33,810001	31,360001	2020-10-29T19:35:45:265
-63,000000	-35,279999	38,080002	2020-10-29T19:35:45:280
-65,870003	-34,090000	43,259998	2020-10-29T19:35:45:305
-77,769997	-37,869999	47,740002	2020-10-29T19:35:45:321
-101,010002	-44,660000	52,220001	2020-10-29T19:35:45:344
-132,020004	-45,639999	53,410000	2020-10-29T19:35:45:361
-150,570007	-42,630001	59,570000	2020-10-29T19:35:45:385
-151,899994	-45,779999	63,209999	2020-10-29T19:35:45:401
-170,589996	-48,790001	59,010002	2020-10-29T19:35:45:425
-160,160004	-55,650002	67,690002	2020-10-29T19:35:45:441
-154,630005	-54,740002	69,650002	2020-10-29T19:35:45:465
-154,210007	-49,840000	76,440002	2020-10-29T19:35:45:481
-160,020004	-40,529999	83,790001	2020-10-29T19:35:45:504
-165,619995	-47,599998	87,709999	2020-10-29T19:35:45:521
-171,289993	-70,070000	85,470001	2020-10-29T19:35:45:546
-179,339996	-73,849998	83,790001	2020-10-29T19:35:45:561
-190,399994	-71,959999	71,680000	2020-10-29T19:35:45:584
-189,839996	-76,019997	50,820000	2020-10-29T19:35:45:601
-178,220001	-73,010002	31,430000	2020-10-29T19:35:45:626
-160,300003	-43,889999	19,460001	2020-10-29T19:35:45:641
-151,199997	-5,600000	5,600000	2020-10-29T19:35:45:664
-155,119995	-1,820000	-10,640000	2020-10-29T19:35:45:681
-164,009995	-17,710001	-19,600000	2020-10-29T19:35:45:705
-162,889999	-13,790000	-21,840000	2020-10-29T19:35:45:721
-155,190002	2,730000	-20,230000	2020-10-29T19:35:45:746
-150,220001	5,460000	-15,470000	2020-10-29T19:35:45:761
-145,110001	-0,910000	-4,480000	2020-10-29T19:35:45:785
-127,120003	-0,210000	12,250000	2020-10-29T19:35:45:801
-89,949997	8,050000	34,790001	2020-10-29T19:35:45:825
-43,750000	29,960001	59,360001	2020-10-29T19:35:45:841
-5,320000	50,820000	79,660004	2020-10-29T19:35:45:866
17,500000	54,180000	91,769997	2020-10-29T19:35:45:881
26,740000	45,150002	96,110001	2020-10-29T19:35:45:905
30,660000	41,790001	95,059998	2020-10-29T19:35:45:922
39,270000	45,220001	88,900002	2020-10-29T19:35:45:946
53,900002	43,680000	78,260002	2020-10-29T19:35:45:962
68,949997	37,450001	65,239998	2020-10-29T19:35:45:985
76,230003	33,810001	52,779999	2020-10-29T19:35:46:001
68,250000	38,009998	37,590000	2020-10-29T19:35:46:026
44,310001	43,049999	21,910000	2020-10-29T19:35:46:042
13,090000	36,330002	7,980000	2020-10-29T19:35:46:065
-4,550000	22,960001	-2,520000	2020-10-29T19:35:46:082
-2,310000	30,309999	-8,190000	2020-10-29T19:35:46:106
8,540000	21,980000	-19,460001	2020-10-29T19:35:46:123
27,580000	-5,110000	-30,030001	2020-10-29T19:35:46:146
49,139999	-15,330000	-41,230000	2020-10-29T19:35:46:162
66,290001	-29,680000	-54,599998	2020-10-29T19:35:46:186
75,389999	-41,650002	-66,779999	2020-10-29T19:35:46:202
84,139999	-40,180000	-76,019997	2020-10-29T19:35:46:228
111,090004	-36,820000	-75,459999	2020-10-29T19:35:46:242
106,190002	-42,139999	-86,870003	2020-10-29T19:35:46:266
61,599998	-48,369999	-101,500000	2020-10-29T19:35:46:282
29,330000	-43,889999	-103,599998	2020-10-29T19:35:46:305
6,580000	-29,750000	-105,419998	2020-10-29T19:35:46:322
-24,780001	-26,880001	-110,459999	2020-10-29T19:35:46:346
-32,270000	-40,880001	-110,320000	2020-10-29T19:35:46:362
-30,520000	-41,369999	-103,040001	2020-10-29T19:35:46:385
-23,590000	-29,680000	-95,760002	2020-10-29T19:35:46:402
-10,850000	-16,799999	-88,760002	2020-10-29T19:35:46:426
7,280000	-2,660000	-81,620003	2020-10-29T19:35:46:442
21,490000	12,250000	-78,120003	2020-10-29T19:35:46:466
25,620001	27,020000	-76,650002	2020-10-29T19:35:46:482
24,780001	40,529999	-73,639999	2020-10-29T19:35:46:506
29,680000	49,139999	-67,129997	2020-10-29T19:35:46:522
45,849998	53,689999	-58,029999	2020-10-29T19:35:46:546
70,209999	58,240002	-47,040001	2020-10-29T19:35:46:562
94,709999	62,650002	-35,910000	2020-10-29T19:35:46:586
108,220001	66,150002	-27,370001	2020-10-29T19:35:46:602
104,930000	63,980000	-22,260000	2020-10-29T19:35:46:625
91,139999	57,119999	-20,230000	2020-10-29T19:35:46:642
74,410004	50,680000	-20,230000	2020-10-29T19:35:46:666
58,939999	48,860001	-21,770000	2020-10-29T19:35:46:683
49,349998	50,330002	-22,960001	2020-10-29T19:35:46:706
45,080002	52,570000	-24,639999	2020-10-29T19:35:46:722
44,660000	49,420002	-25,620001	2020-10-29T19:35:46:747
48,790001	41,369999	-24,920000	2020-10-29T19:35:46:762
51,170002	34,230000	-23,309999	2020-10-29T19:35:46:785
53,410000	26,460001	-20,790001	2020-10-29T19:35:46:802
52,500000	15,960000	-20,020000	2020-10-29T19:35:46:827
51,310001	6,020000	-18,129999	2020-10-29T19:35:46:843
44,099998	11,270000	-11,550000	2020-10-29T19:35:46:866
23,520000	11,270000	-3,850000	2020-10-29T19:35:46:882
2,240000	-1,470000	3,640000	2020-10-29T19:35:46:907
-14,280000	-10,150000	11,760000	2020-10-29T19:35:46:923
-18,410000	-10,780000	18,549999	2020-10-29T19:35:46:947
-5,530000	-11,270000	20,160000	2020-10-29T19:35:46:962
12,040000	-14,700000	20,860001	2020-10-29T19:35:46:987
16,520000	-17,080000	21,770000	2020-10-29T19:35:47:003
-0,350000	-16,379999	21,700001	2020-10-29T19:35:47:026
-27,930000	-6,720000	25,410000	2020-10-29T19:35:47:043
-57,189999	1,050000	33,040001	2020-10-29T19:35:47:067
-73,570000	1,540000	46,200001	2020-10-29T19:35:47:082
-73,360001	-6,580000	62,860001	2020-10-29T19:35:47:106
-63,139999	-15,400000	77,070000	2020-10-29T19:35:47:123
-47,670002	-12,880000	85,260002	2020-10-29T19:35:47:147
-27,860001	-9,100000	87,919998	2020-10-29T19:35:47:163
-8,610000	-9,450000	84,629997	2020-10-29T19:35:47:187
0,770000	-10,850000	75,389999	2020-10-29T19:35:47:203
-6,020000	-9,310000	66,500000	2020-10-29T19:35:47:227
-23,100000	-0,700000	57,260002	2020-10-29T19:35:47:243
-48,020000	11,480000	50,049999	2020-10-29T19:35:47:266
-68,180000	20,860001	51,939999	2020-10-29T19:35:47:283
-74,550003	23,590000	54,459999	2020-10-29T19:35:47:307
-58,450001	17,500000	55,860001	2020-10-29T19:35:47:323
-22,049999	9,730000	54,810001	2020-10-29T19:35:47:346
19,460001	7,210000	48,439999	2020-10-29T19:35:47:363
55,090000	11,270000	36,889999	2020-10-29T19:35:47:386
72,449997	21,490000	23,660000	2020-10-29T19:35:47:403
84,349998	25,760000	4,270000	2020-10-29T19:35:47:426
86,099998	27,650000	-7,420000	2020-10-29T19:35:47:443
96,180000	37,170002	-11,410000	2020-10-29T19:35:47:467
111,230003	63,910000	-14,630000	2020-10-29T19:35:47:483
130,970001	66,709999	-14,840000	2020-10-29T19:35:47:506
165,690002	42,349998	-14,350000	2020-10-29T19:35:47:523
222,809998	40,459999	-16,590000	2020-10-29T19:35:47:547
299,670013	32,549999	-10,780000	2020-10-29T19:35:47:563
321,019989	7,140000	-14,770000	2020-10-29T19:35:47:586
258,579987	-5,110000	-52,779999	2020-10-29T19:35:47:603
186,970001	-6,370000	-82,459999	2020-10-29T19:35:47:627
150,639999	-7,490000	-98,279999	2020-10-29T19:35:47:643
119,629997	-1,890000	-106,959999	2020-10-29T19:35:47:666
98,349998	8,960000	-102,690002	2020-10-29T19:35:47:682
71,260002	15,890000	-95,059998	2020-10-29T19:35:47:707
51,939999	8,260000	-83,300003	2020-10-29T19:35:47:723
39,549999	3,010000	-60,200001	2020-10-29T19:35:47:746
12,950000	-8,960000	-39,900002	2020-10-29T19:35:47:763
-16,940001	-14,350000	-20,440001	2020-10-29T19:35:47:787
-17,219999	-19,250000	-1,120000	2020-10-29T19:35:47:804
-7,000000	-15,890000	10,290000	2020-10-29T19:35:47:826
-13,650000	-4,760000	12,880000	2020-10-29T19:35:47:844
-24,990000	4,340000	13,930000	2020-10-29T19:35:47:868
-24,500000	8,050000	16,030001	2020-10-29T19:35:47:885
-22,120001	8,190000	12,670000	2020-10-29T19:35:47:906
-27,440001	14,280000	7,560000	2020-10-29T19:35:47:925
-27,510000	25,549999	7,770000	2020-10-29T19:35:47:947
-14,350000	28,559999	12,180000	2020-10-29T19:35:47:964
3,080000	24,430000	22,610001	2020-10-29T19:35:47:988
19,530001	5,670000	34,299999	2020-10-29T19:35:48:005
46,270000	-7,630000	45,150002	2020-10-29T19:35:48:027
80,220001	6,300000	67,620003	2020-10-29T19:35:48:044
92,400002	21,420000	80,500000	2020-10-29T19:35:48:065
92,680000	24,990000	91,139999	2020-10-29T19:35:48:084
79,660004	31,920000	97,160004	2020-10-29T19:35:48:107
51,170002	41,299999	99,330002	2020-10-29T19:35:48:124
10,780000	47,950001	97,580002	2020-10-29T19:35:48:150
-28,280001	46,060001	95,900002	2020-10-29T19:35:48:163
-60,060001	40,250000	91,769997	2020-10-29T19:35:48:187
-77,629997	19,670000	63,770000	2020-10-29T19:35:48:204
-63,139999	-12,880000	7,350000	2020-10-29T19:35:48:226
-27,790001	-27,650000	7,980000	2020-10-29T19:35:48:243
4,900000	-30,100000	17,920000	2020-10-29T19:35:48:267
-39,200001	-18,690001	1,960000	2020-10-29T19:35:48:283
-101,639999	-7,420000	-8,610000	2020-10-29T19:35:48:306
-124,180000	-4,130000	-5,670000	2020-10-29T19:35:48:324
-128,940002	-5,600000	2,170000	2020-10-29T19:35:48:347
-142,240005	-5,250000	2,170000	2020-10-29T19:35:48:364
-161,490005	-6,790000	2,520000	2020-10-29T19:35:48:386
-169,680008	-8,540000	7,420000	2020-10-29T19:35:48:403
-161,070007	-5,110000	12,950000	2020-10-29T19:35:48:427
-142,169998	6,650000	20,299999	2020-10-29T19:35:48:444
-120,190002	17,500000	24,710001	2020-10-29T19:35:48:466
-105,559998	10,360000	20,719999	2020-10-29T19:35:48:484
-84,279999	-16,309999	16,660000	2020-10-29T19:35:48:507
-59,849998	-18,830000	17,920000	2020-10-29T19:35:48:524
-31,570000	-2,310000	15,190001	2020-10-29T19:35:48:547
-7,140000	11,060000	12,530000	2020-10-29T19:35:48:563
13,930000	18,410000	10,850000	2020-10-29T19:35:48:587
30,380001	24,080000	12,390000	2020-10-29T19:35:48:604
44,170002	29,540001	14,350000	2020-10-29T19:35:48:628
60,480000	30,799999	16,100000	2020-10-29T19:35:48:644
80,570000	29,190001	18,549999	2020-10-29T19:35:48:667
101,570000	28,770000	18,270000	2020-10-29T19:35:48:684
121,309998	25,620001	13,580000	2020-10-29T19:35:48:707
141,190002	20,580000	7,420000	2020-10-29T19:35:48:724
154,699997	11,480000	-8,680000	2020-10-29T19:35:48:748
153,580002	-0,840000	-26,250000	2020-10-29T19:35:48:764
147,350006	-7,350000	-41,509998	2020-10-29T19:35:48:786
130,690002	-8,890000	-56,980000	2020-10-29T19:35:48:804
107,239998	-6,650000	-73,150002	2020-10-29T19:35:48:828
89,669998	0,770000	-83,860001	2020-10-29T19:35:48:844
85,680000	9,520000	-85,330002	2020-10-29T19:35:48:867
85,540001	18,480000	-82,040001	2020-10-29T19:35:48:884
91,349998	25,830000	-75,250000	2020-10-29T19:35:48:908
106,470001	33,740002	-66,080002	2020-10-29T19:35:48:924
131,250000	47,250000	-52,430000	2020-10-29T19:35:48:947
161,559998	59,990002	-40,599998	2020-10-29T19:35:48:964
195,649994	66,989998	-33,040001	2020-10-29T19:35:48:988
223,440002	69,300003	-33,599998	2020-10-29T19:35:49:004
235,130005	73,989998	-39,970001	2020-10-29T19:35:49:027
222,529999	80,220001	-50,680000	2020-10-29T19:35:49:044
193,830002	75,809998	-61,740002	2020-10-29T19:35:49:068
162,960007	65,099998	-70,209999	2020-10-29T19:35:49:084
139,300003	61,250000	-74,970001	2020-10-29T19:35:49:109
128,729996	64,330002	-76,930000	2020-10-29T19:35:49:124
128,869995	69,860001	-73,500000	2020-10-29T19:35:49:148
135,800003	72,309998	-68,809998	2020-10-29T19:35:49:164
146,649994	72,800003	-60,830002	2020-10-29T19:35:49:187
149,380005	71,120003	-50,470001	2020-10-29T19:35:49:205
139,160004	70,000000	-42,349998	2020-10-29T19:35:49:228
122,570000	70,070000	-34,160000	2020-10-29T19:35:49:245
104,370003	73,220001	-25,900000	2020-10-29T19:35:49:266
87,010002	80,150002	-15,190001	2020-10-29T19:35:49:284
70,559998	89,320000	-2,310000	2020-10-29T19:35:49:308
63,279999	96,669998	14,630000	2020-10-29T19:35:49:325
69,860001	102,340004	31,920000	2020-10-29T19:35:49:347
82,389999	109,480003	47,880001	2020-10-29T19:35:49:364
100,590004	114,800003	59,360001	2020-10-29T19:35:49:388
118,090004	117,599998	64,120003	2020-10-29T19:35:49:405
137,479996	118,020004	67,269997	2020-10-29T19:35:49:428
156,240005	119,139999	69,580002	2020-10-29T19:35:49:445
170,309998	118,650002	72,099998	2020-10-29T19:35:49:469
176,119995	110,879997	73,290001	2020-10-29T19:35:49:484
176,820007	98,349998	73,849998	2020-10-29T19:35:49:508
163,729996	85,260002	72,730003	2020-10-29T19:35:49:525
137,759995	60,200001	54,599998	2020-10-29T19:35:49:549
95,129997	31,500000	41,650002	2020-10-29T19:35:49:565
81,970001	14,770000	36,330002	2020-10-29T19:35:49:589
122,709999	18,690001	45,150002	2020-10-29T19:35:49:604
126,910004	24,430000	46,900002	2020-10-29T19:35:49:629
100,870003	23,170000	45,709999	2020-10-29T19:35:49:645
71,190002	19,040001	44,099998	2020-10-29T19:35:49:668
61,320000	12,950000	45,990002	2020-10-29T19:35:49:685
58,939999	9,240000	49,560001	2020-10-29T19:35:49:709
51,660000	6,580000	52,709999	2020-10-29T19:35:49:725
42,349998	0,700000	56,770000	2020-10-29T19:35:49:748
41,160000	-5,670000	60,200001	2020-10-29T19:35:49:765
48,020000	-7,910000	63,000000	2020-10-29T19:35:49:789
56,560001	-6,930000	62,790001	2020-10-29T19:35:49:805
65,519997	-7,630000	59,779999	2020-10-29T19:35:49:829
76,230003	-10,850000	54,040001	2020-10-29T19:35:49:845
90,720001	-13,510000	46,410000	2020-10-29T19:35:49:869
104,860001	-16,590000	36,470001	2020-10-29T19:35:49:885
108,709999	-14,420000	26,320000	2020-10-29T19:35:49:908
93,660004	-5,670000	17,219999	2020-10-29T19:35:49:925
64,750000	-15,750000	7,000000	2020-10-29T19:35:49:949
32,689999	-32,200001	-5,250000	2020-10-29T19:35:49:965
1,190000	-32,130001	-16,170000	2020-10-29T19:35:49:988
-27,230000	-22,960001	-28,280001	2020-10-29T19:35:50:005
-51,939999	-16,450001	-40,599998	2020-10-29T19:35:50:029
-66,150002	-12,950000	-49,770000	2020-10-29T19:35:50:046
-71,610001	-5,250000	-55,650002	2020-10-29T19:35:50:069
-69,650002	6,020000	-56,070000	2020-10-29T19:35:50:085
-59,920002	13,160000	-53,270000	2020-10-29T19:35:50:109
-44,170002	15,680000	-48,580002	2020-10-29T19:35:50:125
-19,740000	21,840000	-40,250000	2020-10-29T19:35:50:148
14,630000	25,059999	-31,290001	2020-10-29T19:35:50:165
55,720001	21,000000	-24,150000	2020-10-29T19:35:50:189
96,250000	17,780001	-18,969999	2020-10-29T19:35:50:205
104,300003	16,309999	-19,950001	2020-10-29T19:35:50:228
76,300003	-15,050000	-27,230000	2020-10-29T19:35:50:246
56,980000	-41,650002	-51,099998	2020-10-29T19:35:50:270
59,150002	-40,389999	-67,340004	2020-10-29T19:35:50:286
59,779999	-23,870001	-69,230003	2020-10-29T19:35:50:308
40,180000	-5,950000	-62,720001	2020-10-29T19:35:50:326
8,190000	2,380000	-56,700001	2020-10-29T19:35:50:350
-19,389999	-0,490000	-49,349998	2020-10-29T19:35:50:365
-38,779999	-1,120000	-37,170002	2020-10-29T19:35:50:388
-45,080002	4,200000	-19,530001	2020-10-29T19:35:50:406
-33,320000	10,290000	1,400000	2020-10-29T19:35:50:430
-6,930000	14,000000	23,730000	2020-10-29T19:35:50:446
26,389999	16,660000	43,820000	2020-10-29T19:35:50:469
53,970001	21,700001	62,720001	2020-10-29T19:35:50:485
68,669998	30,380001	78,680000	2020-10-29T19:35:50:509
75,180000	40,389999	90,160004	2020-10-29T19:35:50:526
78,750000	46,759998	98,349998	2020-10-29T19:35:50:551
80,220001	49,980000	101,290001	2020-10-29T19:35:50:565
78,400002	53,549999	100,590004	2020-10-29T19:35:50:589
76,510002	56,910000	96,529999	2020-10-29T19:35:50:606
75,739998	57,750000	88,199997	2020-10-29T19:35:50:629
74,830002	56,910000	77,769997	2020-10-29T19:35:50:646
45,709999	51,869999	60,060001	2020-10-29T19:35:50:670
-13,160000	45,220001	34,160000	2020-10-29T19:35:50:685
-19,320000	39,970001	20,370001	2020-10-29T19:35:50:709
-8,960000	45,920002	14,280000	2020-10-29T19:35:50:726
-6,370000	47,250000	7,210000	2020-10-29T19:35:50:750
-2,100000	21,000000	7,210000	2020-10-29T19:35:50:766
29,049999	4,550000	-1,050000	2020-10-29T19:35:50:790
86,449997	-2,170000	3,640000	2020-10-29T19:35:50:806
153,300003	-4,830000	14,000000	2020-10-29T19:35:50:830
203,070007	-8,890000	20,930000	2020-10-29T19:35:50:846
208,600006	-17,710001	19,250000	2020-10-29T19:35:50:869
170,589996	-28,770000	6,930000	2020-10-29T19:35:50:886
102,199997	-36,470001	-14,280000	2020-10-29T19:35:50:910
27,370001	-45,430000	-37,799999	2020-10-29T19:35:50:926
-33,740002	-57,540001	-62,790001	2020-10-29T19:35:50:949
-80,080002	-64,260002	-83,510002	2020-10-29T19:35:50:966
-114,239998	-60,830002	-103,669998	2020-10-29T19:35:50:990
-140,210007	-52,709999	-119,699997	2020-10-29T19:35:51:007
-155,330002	-48,439999	-132,580002	2020-10-29T19:35:51:029
-153,580002	-47,110001	-140,139999	2020-10-29T19:35:51:047
-136,500000	-44,660000	-139,300003	2020-10-29T19:35:51:070
-103,949997	-39,970001	-130,410004	2020-10-29T19:35:51:086
-59,290001	-33,250000	-114,520004	2020-10-29T19:35:51:109
-9,520000	-27,930000	-96,669998	2020-10-29T19:35:51:127
36,820000	-22,330000	-78,120003	2020-10-29T19:35:51:150
68,949997	-13,720000	-62,299999	2020-10-29T19:35:51:166
88,480003	-2,800000	-48,160000	2020-10-29T19:35:51:189
97,440002	8,820000	-35,910000	2020-10-29T19:35:51:206
99,330002	20,020000	-22,330000	2020-10-29T19:35:51:231
99,889999	24,150000	-10,150000	2020-10-29T19:35:51:247
96,529999	18,059999	1,960000	2020-10-29T19:35:51:269
84,769997	8,820000	13,230000	2020-10-29T19:35:51:286
56,770000	3,710000	22,610001	2020-10-29T19:35:51:310
15,750000	2,240000	35,139999	2020-10-29T19:35:51:327
-23,520000	0,070000	44,099998	2020-10-29T19:35:51:350
-52,220001	-5,460000	54,810001	2020-10-29T19:35:51:366
-68,529999	-14,420000	66,010002	2020-10-29T19:35:51:390
-83,019997	-17,080000	79,169998	2020-10-29T19:35:51:406
-100,099998	-13,020000	92,190002	2020-10-29T19:35:51:429
-123,620003	-9,100000	103,110001	2020-10-29T19:35:51:447
-150,009995	-12,950000	109,059998	2020-10-29T19:35:51:469
-166,600006	-24,850000	111,230003	2020-10-29T19:35:51:487
-167,020004	-37,660000	108,779999	2020-10-29T19:35:51:511
-156,520004	-47,320000	101,360001	2020-10-29T19:35:51:526
-139,089996	-55,580002	90,230003	2020-10-29T19:35:51:551
-116,199997	-62,439999	81,269997	2020-10-29T19:35:51:566
-99,820000	-50,540001	74,970001	2020-10-29T19:35:51:589
-105,629997	-43,330002	61,950001	2020-10-29T19:35:51:607
-129,430008	-52,500000	44,380001	2020-10-29T19:35:51:631
-162,119995	-51,029999	31,710001	2020-10-29T19:35:51:647
-194,039993	-46,900002	22,190001	2020-10-29T19:35:51:669
-222,740005	-43,470001	17,639999	2020-10-29T19:35:51:687
-240,380005	-39,410000	17,219999	2020-10-29T19:35:51:710
-241,360001	-35,420002	20,510000	2020-10-29T19:35:51:727
-227,990005	-32,900002	25,690001	2020-10-29T19:35:51:751
-188,440002	-32,549999	36,189999	2020-10-29T19:35:51:766
-151,899994	-32,130001	44,170002	2020-10-29T19:35:51:791
-110,879997	-21,000000	54,459999	2020-10-29T19:35:51:807
-72,029999	-3,780000	62,860001	2020-10-29T19:35:51:830
-45,009998	2,730000	64,540001	2020-10-29T19:35:51:847
-31,639999	2,030000	60,689999	2020-10-29T19:35:51:871
-26,880001	9,940000	54,810001	2020-10-29T19:35:51:887
-26,530001	25,200001	41,509998	2020-10-29T19:35:51:910
-31,639999	30,520000	29,190001	2020-10-29T19:35:51:927
-38,990002	31,850000	15,820000	2020-10-29T19:35:51:950
-49,980000	35,700001	4,130000	2020-10-29T19:35:51:971
-56,770000	40,250000	-0,350000	2020-10-29T19:35:51:992
-59,570000	44,240002	-0,630000	2020-10-29T19:35:52:008
-58,939999	48,580002	3,220000	2020-10-29T19:35:52:030
-50,470001	52,080002	9,870000	2020-10-29T19:35:52:047
-31,570000	51,869999	18,480000	2020-10-29T19:35:52:070
-4,690000	49,279999	27,370001	2020-10-29T19:35:52:088
27,370001	44,029999	34,230000	2020-10-29T19:35:52:110
62,369999	37,590000	38,220001	2020-10-29T19:35:52:127
92,889999	30,590000	38,849998	2020-10-29T19:35:52:150
105,769997	21,559999	36,049999	2020-10-29T19:35:52:167
99,470001	10,500000	31,430000	2020-10-29T19:35:52:191
79,379997	2,590000	27,090000	2020-10-29T19:35:52:209
54,599998	-2,030000	22,260000	2020-10-29T19:35:52:232
36,330002	-10,220000	17,219999	2020-10-29T19:35:52:247
31,780001	-21,350000	11,620000	2020-10-29T19:35:52:271
35,840000	-31,990000	5,110000	2020-10-29T19:35:52:287
33,040001	-37,520000	-5,040000	2020-10-29T19:35:52:310
14,490000	-31,920000	-16,520000	2020-10-29T19:35:52:328
-20,510000	-14,420000	-32,549999	2020-10-29T19:35:52:352
-69,580002	-34,160000	-63,560001	2020-10-29T19:35:52:367
-109,480003	-57,820000	-96,389999	2020-10-29T19:35:52:390
-124,320000	-49,070000	-122,989998	2020-10-29T19:35:52:407
-100,590004	-29,960001	-147,699997	2020-10-29T19:35:52:431
-68,879997	-21,420000	-175,419998	2020-10-29T19:35:52:448
-44,310001	-12,740000	-202,930008	2020-10-29T19:35:52:472
-26,110001	2,170000	-220,080002	2020-10-29T19:35:52:487
-5,250000	18,620001	-231,279999	2020-10-29T19:35:52:511
12,250000	32,060001	-246,820007	2020-10-29T19:35:52:528
39,549999	40,529999	-254,380005	2020-10-29T19:35:52:551
74,199997	49,700001	-266,140015	2020-10-29T19:35:52:567
94,570000	62,720001	-283,920013	2020-10-29T19:35:52:590
102,830002	80,360001	-302,260010	2020-10-29T19:35:52:607
105,980003	102,340004	-321,369995	2020-10-29T19:35:52:631
95,410004	122,220001	-338,100006	2020-10-29T19:35:52:648
67,900002	135,169998	-350,350006	2020-10-29T19:35:52:671
40,180000	152,740005	-357,839996	2020-10-29T19:35:52:688
18,340000	179,410004	-363,089996	2020-10-29T19:35:52:711
7,770000	205,869995	-367,429993	2020-10-29T19:35:52:728
2,450000	220,779999	-370,089996	2020-10-29T19:35:52:752
5,600000	234,990005	-372,399994	2020-10-29T19:35:52:767
14,350000	249,130005	-366,239990	2020-10-29T19:35:52:790
4,410000	253,470001	-358,959991	2020-10-29T19:35:52:808
-19,180000	247,380005	-344,679993	2020-10-29T19:35:52:832
-43,049999	235,899994	-312,899994	2020-10-29T19:35:52:848
-85,820000	205,029999	-283,779999	2020-10-29T19:35:52:872
-118,720001	175,139999	-247,029999	2020-10-29T19:35:52:888
-163,100006	150,779999	-204,330002	2020-10-29T19:35:52:912
-191,169998	123,129997	-163,869995	2020-10-29T19:35:52:928
-156,100006	94,570000	-124,110001	2020-10-29T19:35:52:950
-71,680000	66,570000	-98,629997	2020-10-29T19:35:52:968
-22,469999	36,119999	-80,360001	2020-10-29T19:35:52:992
-50,189999	-0,840000	-65,099998	2020-10-29T19:35:53:009
-107,590004	-13,090000	-48,790001	2020-10-29T19:35:53:031
-158,479996	-9,660000	-36,119999	2020-10-29T19:35:53:049
-167,089996	8,470000	-33,459999	2020-10-29T19:35:53:071
-126,419998	39,130001	-33,670002	2020-10-29T19:35:53:088
-86,169998	54,740002	-35,630001	2020-10-29T19:35:53:111
-73,430000	60,410000	-35,420002	2020-10-29T19:35:53:129
-73,430000	73,080002	-30,309999	2020-10-29T19:35:53:152
-79,449997	81,900002	-26,040001	2020-10-29T19:35:53:168
-89,879997	80,150002	-19,530001	2020-10-29T19:35:53:192
-114,660004	81,269997	-17,780001	2020-10-29T19:35:53:208
-111,510002	85,680000	-16,730000	2020-10-29T19:35:53:233
-91,419998	87,639999	-20,440001	2020-10-29T19:35:53:249
-97,930000	97,370003	-19,040001	2020-10-29T19:35:53:271
-102,269997	102,269997	-15,680000	2020-10-29T19:35:53:288
-84,489998	108,150002	-23,940001	2020-10-29T19:35:53:312
-69,019997	108,919998	-32,830002	2020-10-29T19:35:53:329
-38,220001	94,709999	-41,230000	2020-10-29T19:35:53:352
-9,170000	82,110001	-51,310001	2020-10-29T19:35:53:368
-3,990000	72,449997	-62,860001	2020-10-29T19:35:53:392
-4,270000	65,590004	-73,080002	2020-10-29T19:35:53:408
5,040000	60,200001	-80,360001	2020-10-29T19:35:53:433
21,700001	54,880001	-86,519997	2020-10-29T19:35:53:448
43,889999	48,090000	-92,470001	2020-10-29T19:35:53:474
85,820000	31,500000	-96,879997	2020-10-29T19:35:53:489
138,600006	10,570000	-103,180000	2020-10-29T19:35:53:512
206,220001	-13,300000	-113,190002	2020-10-29T19:35:53:529
254,380005	-26,950001	-124,809998	2020-10-29T19:35:53:553
229,180008	-19,180000	-122,709999	2020-10-29T19:35:53:568
149,029999	-16,240000	-100,940002	2020-10-29T19:35:53:592
107,730003	-31,570000	-86,660004	2020-10-29T19:35:53:609
156,100006	-49,980000	-82,949997	2020-10-29T19:35:53:632
209,580002	-49,630001	-81,690002	2020-10-29T19:35:53:649
154,979996	-8,400000	-68,180000	2020-10-29T19:35:53:672
54,389999	-6,860000	-22,049999	2020-10-29T19:35:53:688
20,160000	-31,360001	-18,410000	2020-10-29T19:35:53:713
47,810001	-29,680000	-23,030001	2020-10-29T19:35:53:729
111,930000	-18,620001	-19,040001	2020-10-29T19:35:53:751
128,940002	-11,690000	-35,490002	2020-10-29T19:35:53:769
48,439999	-23,590000	-32,549999	2020-10-29T19:35:53:793
-43,750000	-49,070000	-17,150000	2020-10-29T19:35:53:809
-48,020000	-62,510002	-19,879999	2020-10-29T19:35:53:832
-17,500000	-56,630001	-24,010000	2020-10-29T19:35:53:849
16,170000	-58,450001	-17,080000	2020-10-29T19:35:53:873
26,180000	-57,610001	18,200001	2020-10-29T19:35:53:889
13,510000	-66,639999	56,279999	2020-10-29T19:35:53:913
3,080000	-61,880001	69,160004	2020-10-29T19:35:53:929
-45,570000	-35,279999	71,400002	2020-10-29T19:35:53:953
-81,620003	-37,099998	74,480003	2020-10-29T19:35:53:969
-98,559998	-28,350000	66,919998	2020-10-29T19:35:53:992
-110,180000	-30,450001	62,650002	2020-10-29T19:35:54:009
-123,199997	-34,580002	74,550003	2020-10-29T19:35:54:033
-170,380005	-26,320000	91,419998	2020-10-29T19:35:54:049
-265,230011	-26,110001	120,400002	2020-10-29T19:35:54:091
-355,529999	-55,090000	170,029999	2020-10-29T19:35:54:092
-366,239990	-91,000000	201,250000	2020-10-29T19:35:54:114
-287,769989	-119,699997	212,520004	2020-10-29T19:35:54:130
-225,119995	-122,010002	239,680008	2020-10-29T19:35:54:153
-215,320007	-89,669998	274,959991	2020-10-29T19:35:54:169
-204,259995	-67,760002	295,049988	2020-10-29T19:35:54:193
-158,899994	-63,490002	302,119995	2020-10-29T19:35:54:209
-72,099998	-58,450001	297,290009	2020-10-29T19:35:54:232
47,389999	-37,869999	279,440002	2020-10-29T19:35:54:249
189,839996	-19,670000	258,440002	2020-10-29T19:35:54:274
388,149994	1,050000	254,309998	2020-10-29T19:35:54:289
588,770020	53,549999	223,089996	2020-10-29T19:35:54:312
782,460022	122,290001	175,630005	2020-10-29T19:35:54:330
927,640015	178,430008	112,629997	2020-10-29T19:35:54:354
1046,430054	215,600006	49,490002	2020-10-29T19:35:54:369
1164,589966	213,570007	-4,620000	2020-10-29T19:35:54:393
1029,140015	206,080002	-32,689999	2020-10-29T19:35:54:409
599,830017	135,869995	-125,790001	2020-10-29T19:35:54:434
113,750000	92,190002	-125,510002	2020-10-29T19:35:54:450
-153,930008	90,650002	-125,160004	2020-10-29T19:35:54:472
-212,380005	70,980003	-92,400002	2020-10-29T19:35:54:489
-34,369999	29,540001	-39,410000	2020-10-29T19:35:54:513
157,360001	28,840000	-16,309999	2020-10-29T19:35:54:529
201,880005	42,910000	-32,619999	2020-10-29T19:35:54:553
137,619995	14,420000	-6,790000	2020-10-29T19:35:54:570
87,430000	2,380000	4,620000	2020-10-29T19:35:54:594
46,830002	-0,630000	12,600000	2020-10-29T19:35:55:093
-5,250000	-3,430000	18,620001	2020-10-29T19:35:55:093
-53,200001	-9,730000	15,470000	2020-10-29T19:35:55:094
-67,340004	-18,620001	7,910000	2020-10-29T19:35:55:094
-42,420002	-19,250000	0,840000	2020-10-29T19:35:55:096
-7,840000	-16,520000	-5,460000	2020-10-29T19:35:55:096
20,299999	-22,260000	-6,790000	2020-10-29T19:35:55:097
27,719999	-28,139999	-8,890000	2020-10-29T19:35:55:097
15,610000	-29,820000	-9,310000	2020-10-29T19:35:55:098
-3,710000	-25,969999	-6,090000	2020-10-29T19:35:55:098
-27,930000	-13,580000	0,350000	2020-10-29T19:35:55:099
-61,180000	0,070000	10,710000	2020-10-29T19:35:55:102
-82,320000	4,690000	20,930000	2020-10-29T19:35:55:102
-87,150002	4,480000	25,200001	2020-10-29T19:35:55:102
-84,699997	5,600000	25,480000	2020-10-29T19:35:55:103
-74,760002	5,180000	26,110001	2020-10-29T19:35:55:103
-66,709999	5,530000	26,040001	2020-10-29T19:35:55:104
-52,709999	3,500000	22,960001	2020-10-29T19:35:55:104
-35,630001	-2,310000	14,140000	2020-10-29T19:35:55:105
-20,160000	-7,490000	4,130000	2020-10-29T19:35:55:105
-11,550000	-9,520000	-4,270000	2020-10-29T19:35:55:105
-4,200000	-11,480000	-13,510000	2020-10-29T19:35:55:106
-1,400000	-16,799999	-19,670000	2020-10-29T19:35:55:109
-0,350000	-20,650000	-24,500000	2020-10-29T19:35:55:109
-0,980000	-21,910000	-29,120001	2020-10-29T19:35:55:110
-1,610000	-22,049999	-34,160000	2020-10-29T19:35:55:111
-1,960000	-24,850000	-39,200001	2020-10-29T19:35:55:128
-4,480000	-28,630001	-45,500000	2020-10-29T19:35:55:153
-8,470000	-31,010000	-52,080002	2020-10-29T19:35:55:178
-10,010000	-31,850000	-57,540001	2020-10-29T19:35:55:239
-6,720000	-34,020000	-63,420002	2020-10-29T19:35:55:242
-1,470000	-36,959999	-70,209999	2020-10-29T19:35:55:243
0,630000	-40,040001	-76,440002	2020-10-29T19:35:55:254
2,310000	-43,330002	-80,080002	2020-10-29T19:35:55:271
3,640000	-43,750000	-82,110001	2020-10-29T19:35:55:289
7,280000	-41,720001	-80,849998	2020-10-29T19:35:55:323
10,920000	-35,700001	-76,720001	2020-10-29T19:35:55:333
7,910000	-24,500000	-69,019997	2020-10-29T19:35:55:358
-2,520000	-9,100000	-56,560001	2020-10-29T19:35:55:375
-16,309999	3,990000	-44,029999	2020-10-29T19:35:55:392
-22,400000	4,270000	-43,119999	2020-10-29T19:35:55:409
-29,610001	-1,330000	-52,220001	2020-10-29T19:35:55:438
-45,430000	-2,730000	-60,270000	2020-10-29T19:35:55:448
-49,910000	-2,520000	-63,560001	2020-10-29T19:35:55:475
-40,740002	-3,430000	-63,070000	2020-10-29T19:35:55:489
-29,190001	-4,760000	-59,430000	2020-10-29T19:35:55:515
-22,469999	-3,220000	-52,360001	2020-10-29T19:35:55:542
-25,480000	0,280000	-44,099998	2020-10-29T19:35:55:554
-41,230000	7,140000	-36,959999	2020-10-29T19:35:55:574
-60,760002	16,799999	-31,080000	2020-10-29T19:35:55:592
-79,590004	29,469999	-23,799999	2020-10-29T19:35:55:608
-102,690002	47,529999	-16,309999	2020-10-29T19:35:55:635
-128,940002	70,070000	-5,950000	2020-10-29T19:35:55:649
-157,149994	96,599998	9,100000	2020-10-29T19:35:55:744
-182,839996	120,959999	26,389999	2020-10-29T19:35:55:745
-193,690002	137,550003	40,670002	2020-10-29T19:35:55:746
-200,759995	151,619995	54,320000	2020-10-29T19:35:55:746
-208,600006	170,729996	70,419998	2020-10-29T19:35:56:082
-196,279999	190,119995	82,599998	2020-10-29T19:35:56:083
-173,740005	208,529999	87,290001	2020-10-29T19:35:56:084
-148,119995	220,009995	91,769997	2020-10-29T19:35:56:084
-116,550003	224,070007	96,949997	2020-10-29T19:35:56:084
-101,500000	236,880005	94,360001	2020-10-29T19:35:56:085
-121,379997	259,070007	90,440002	2020-10-29T19:35:56:085
-161,559998	276,989990	99,330002	2020-10-29T19:35:56:086
-208,110001	285,179993	114,940002	2020-10-29T19:35:56:086
-253,259995	281,820007	132,509995	2020-10-29T19:35:56:089
-276,290009	258,369995	154,070007	2020-10-29T19:35:56:089
-260,049988	204,399994	166,809998	2020-10-29T19:35:56:092
-201,529999	141,680008	159,039993	2020-10-29T19:35:56:092
-104,580002	92,330002	137,619995	2020-10-29T19:35:56:093
19,600000	64,050003	111,300003	2020-10-29T19:35:56:093
153,089996	59,360001	90,580002	2020-10-29T19:35:56:094
243,949997	58,730000	62,790001	2020-10-29T19:35:56:094
251,580002	42,770000	17,080000	2020-10-29T19:35:56:096
196,559998	28,350000	-33,950001	2020-10-29T19:35:56:113
85,610001	19,389999	-41,369999	2020-10-29T19:35:56:130
15,190001	17,990000	-50,959999	2020-10-29T19:35:56:169
-34,509998	19,040001	-65,029999	2020-10-29T19:35:56:169
-45,639999	17,780001	-70,279999	2020-10-29T19:35:56:193
