x	y	z	ts
-0,001813	0,283286	-0,401095	2020-10-29T19:34:46:748
0,046043	0,694851	-0,645164	2020-10-29T19:34:46:748
0,030647	1,013250	-0,654930	2020-10-29T19:34:46:804
-0,207237	0,176895	-0,809108	2020-10-29T19:34:46:808
-0,194629	0,171421	-0,804065	2020-10-29T19:34:46:809
0,304157	0,109182	-0,556015	2020-10-29T19:34:46:812
0,074446	0,269501	-0,498588	2020-10-29T19:34:46:814
0,080343	0,468650	-0,645290	2020-10-29T19:34:46:836
0,030674	0,604046	-0,832118	2020-10-29T19:34:46:855
-0,026663	0,750858	-0,837899	2020-10-29T19:34:46:875
0,031805	0,683629	-0,785655	2020-10-29T19:34:46:895
0,369080	0,151909	-0,346925	2020-10-29T19:34:46:915
0,735316	-0,328517	-0,035421	2020-10-29T19:34:46:935
0,223797	0,066831	-0,300632	2020-10-29T19:34:46:957
0,025192	-0,208343	-0,401131	2020-10-29T19:34:46:975
0,141325	-0,061025	-0,108033	2020-10-29T19:34:46:995
0,491020	-0,104491	-0,063214	2020-10-29T19:34:47:015
0,974212	-0,175519	-0,036498	2020-10-29T19:34:47:037
1,198621	-0,230841	0,272761	2020-10-29T19:34:47:055
1,371927	-0,540675	0,311729	2020-10-29T19:34:47:075
1,627916	-0,518043	0,312263	2020-10-29T19:34:47:095
1,943663	-0,317971	0,334922	2020-10-29T19:34:47:115
2,010148	0,025539	0,244906	2020-10-29T19:34:47:136
2,203334	0,392691	0,169691	2020-10-29T19:34:47:155
2,352033	0,621213	-0,005160	2020-10-29T19:34:47:176
2,106062	0,330595	0,508834	2020-10-29T19:34:47:196
1,282259	-0,603081	1,117606	2020-10-29T19:34:47:215
0,454334	-1,566754	1,468141	2020-10-29T19:34:47:237
-0,172136	-1,877514	1,453308	2020-10-29T19:34:47:255
-0,341069	-1,933071	1,200555	2020-10-29T19:34:47:284
-0,455985	-2,041030	1,084562	2020-10-29T19:34:47:295
-0,384371	-2,119843	0,916234	2020-10-29T19:34:47:316
-0,315415	-2,415610	0,615713	2020-10-29T19:34:47:342
-0,114569	-2,402465	0,338575	2020-10-29T19:34:47:368
-0,080141	-2,188961	-0,120406	2020-10-29T19:34:47:484
-0,165033	-2,156134	-0,107628	2020-10-29T19:34:47:484
-0,344705	-2,086632	-0,135675	2020-10-29T19:34:47:485
-0,767403	-0,163131	0,163705	2020-10-29T19:34:47:486
-1,090432	-0,388057	-0,312466	2020-10-29T19:34:47:486
-1,416994	-0,373362	0,196474	2020-10-29T19:34:47:486
-1,799846	-0,935676	0,036155	2020-10-29T19:34:47:495
-2,312717	-0,696235	0,273425	2020-10-29T19:34:47:516
-2,016007	-1,126943	0,175319	2020-10-29T19:34:47:536
-1,612941	-1,000269	0,336239	2020-10-29T19:34:47:556
-1,146752	-0,937665	0,823838	2020-10-29T19:34:47:576
-0,809391	-0,505812	1,084165	2020-10-29T19:34:47:596
-0,483031	0,117680	0,869493	2020-10-29T19:34:47:615
-0,162891	0,787169	0,511390	2020-10-29T19:34:47:637
-0,066657	1,089650	0,406602	2020-10-29T19:34:47:655
-0,122712	1,088604	0,465110	2020-10-29T19:34:47:678
-0,007938	0,595639	0,356336	2020-10-29T19:34:47:695
0,205241	0,222196	0,389566	2020-10-29T19:34:47:717
0,245255	0,073507	0,758465	2020-10-29T19:34:47:736
0,352395	0,017936	1,024233	2020-10-29T19:34:47:758
0,296443	-0,026961	1,385140	2020-10-29T19:34:47:775
0,207059	-0,262769	1,373520	2020-10-29T19:34:47:799
-0,134146	0,128576	1,675822	2020-10-29T19:34:47:816
-0,283134	0,430480	1,550481	2020-10-29T19:34:47:839
-0,304735	0,528125	1,599598	2020-10-29T19:34:47:855
-0,251706	0,515764	1,683212	2020-10-29T19:34:47:879
-0,492925	0,406175	1,610668	2020-10-29T19:34:47:896
-0,991444	-0,021113	1,838355	2020-10-29T19:34:47:919
-1,416859	-0,057303	2,125110	2020-10-29T19:34:47:944
-1,358652	-0,269953	0,313803	2020-10-29T19:34:47:971
-0,942301	-0,262774	0,234840	2020-10-29T19:34:47:976
-0,761486	-0,212972	0,127594	2020-10-29T19:34:47:999
-0,551901	0,012376	-0,028126	2020-10-29T19:34:48:016
-0,355666	0,277530	-0,304976	2020-10-29T19:34:48:039
-0,265371	0,433547	-0,406343	2020-10-29T19:34:48:058
-0,372740	0,706309	-0,788300	2020-10-29T19:34:48:080
-0,199050	0,914861	-1,043004	2020-10-29T19:34:48:098
-0,235127	0,551918	-1,320762	2020-10-29T19:34:48:120
-0,244914	0,449794	-1,534702	2020-10-29T19:34:48:138
-0,054029	0,450568	-1,706051	2020-10-29T19:34:48:162
-0,106817	0,388585	-1,856408	2020-10-29T19:34:48:178
-0,380400	0,232940	-1,921323	2020-10-29T19:34:48:200
-0,465344	-0,004655	-2,490648	2020-10-29T19:34:48:218
0,118784	-0,806988	-4,240171	2020-10-29T19:34:48:243
0,100965	-2,447925	-4,447040	2020-10-29T19:34:48:258
0,199751	-3,880224	-3,101017	2020-10-29T19:34:48:285
0,790210	0,295013	-3,332069	2020-10-29T19:34:56:116
0,303722	-0,001161	-3,272471	2020-10-29T19:34:56:123
-0,330991	-0,114801	-3,165821	2020-10-29T19:34:56:145
-0,714148	-0,464555	-2,815676	2020-10-29T19:34:56:149
-0,777555	-0,862996	-2,546750	2020-10-29T19:34:56:156
-0,745935	-0,686805	-2,228634	2020-10-29T19:34:56:170
-0,584656	-0,152313	-0,072300	2020-10-29T19:34:56:195
-0,144377	0,122861	0,284230	2020-10-29T19:34:56:212
0,382185	0,111002	0,020187	2020-10-29T19:34:56:236
0,556861	0,505818	0,517894	2020-10-29T19:34:56:253
0,503119	0,089103	-0,047031	2020-10-29T19:34:56:277
0,041304	0,395384	-0,477739	2020-10-29T19:34:56:292
-0,830523	0,614334	-0,715116	2020-10-29T19:34:56:314
-1,822768	0,693822	-0,382957	2020-10-29T19:34:56:330
-2,000952	0,601599	-0,305142	2020-10-29T19:34:56:356
-1,497294	0,240254	-0,333653	2020-10-29T19:34:56:372
-1,043363	-0,261576	-0,114296	2020-10-29T19:34:56:393
-0,579142	-0,754205	0,098156	2020-10-29T19:34:56:412
0,164486	-1,149405	0,193942	2020-10-29T19:34:56:435
0,824756	-1,169622	-0,099104	2020-10-29T19:34:56:452
1,162358	-1,209209	-0,056158	2020-10-29T19:34:56:474
1,053740	-1,005200	-0,204637	2020-10-29T19:34:56:492
0,644319	-0,829516	-0,081046	2020-10-29T19:34:56:516
0,511078	-0,776098	-0,509226	2020-10-29T19:34:56:532
0,668239	-0,476982	-0,796083	2020-10-29T19:34:56:556
0,608809	-0,230266	-0,630159	2020-10-29T19:34:56:572
0,583465	-0,051664	-0,398758	2020-10-29T19:34:56:595
0,550849	-0,021135	-0,392896	2020-10-29T19:34:56:612
0,570382	0,117754	-0,904590	2020-10-29T19:34:56:634
0,249934	-0,050773	-1,092701	2020-10-29T19:34:56:652
-0,515803	-0,272338	-0,792986	2020-10-29T19:34:56:675
-1,435028	-0,860771	-0,408512	2020-10-29T19:34:56:693
-2,216613	-1,374718	-0,020754	2020-10-29T19:34:56:714
-2,401710	-1,668869	0,325630	2020-10-29T19:34:56:732
-1,531049	-2,150668	0,268434	2020-10-29T19:34:56:758
-0,679054	-2,131906	0,017127	2020-10-29T19:34:56:771
-0,074828	-1,911693	0,166737	2020-10-29T19:34:56:794
0,360909	-1,494244	0,209996	2020-10-29T19:34:56:812
0,897093	-1,164791	-0,232220	2020-10-29T19:34:56:835
1,314108	-0,758020	-0,444056	2020-10-29T19:34:56:853
1,365209	-0,519234	-0,489180	2020-10-29T19:34:56:874
0,969661	-0,493147	-0,153731	2020-10-29T19:34:56:891
0,625210	-0,702008	-0,176263	2020-10-29T19:34:56:915
0,060252	1,377449	-0,995298	2020-10-29T19:34:56:931
0,193393	1,330104	-1,350439	2020-10-29T19:34:56:955
-0,188195	1,375856	-1,496370	2020-10-29T19:34:56:972
-0,743741	1,312533	-1,424536	2020-10-29T19:34:56:997
-1,199553	1,419224	-1,734462	2020-10-29T19:34:57:011
-1,606541	1,722345	-1,943036	2020-10-29T19:34:57:034
-1,433467	2,056428	-2,335861	2020-10-29T19:34:57:052
-1,166202	2,302430	-2,369217	2020-10-29T19:34:57:075
-1,126668	2,669194	-2,736123	2020-10-29T19:34:57:092
-1,309371	2,869341	-3,176061	2020-10-29T19:34:57:115
-1,881501	2,985748	-3,148844	2020-10-29T19:34:57:132
-2,302915	3,254340	-2,889168	2020-10-29T19:34:57:156
-2,347032	3,681074	-2,790701	2020-10-29T19:34:57:172
-2,736948	4,352097	-2,985043	2020-10-29T19:34:57:195
-2,820131	4,677006	-3,581793	2020-10-29T19:34:57:212
-2,494411	4,825045	-3,698397	2020-10-29T19:34:57:237
-2,506429	4,561780	-3,301552	2020-10-29T19:34:57:252
-0,720372	-0,183052	-0,087254	2020-10-29T19:34:57:276
-0,830442	-0,805186	-0,013076	2020-10-29T19:34:57:292
-0,653964	-0,506747	-0,127062	2020-10-29T19:34:57:316
-0,432054	-0,192174	-0,325531	2020-10-29T19:34:57:332
-0,243011	0,214427	-0,346305	2020-10-29T19:34:57:356
-0,446994	0,392278	-0,481455	2020-10-29T19:34:57:372
-0,927218	0,504112	-0,357983	2020-10-29T19:34:57:396
-1,221401	0,038760	-0,080758	2020-10-29T19:34:57:412
-2,580383	-0,769317	0,187862	2020-10-29T19:34:57:435
-4,367408	-1,518826	0,069356	2020-10-29T19:34:57:452
-5,196169	-1,697567	0,036687	2020-10-29T19:34:57:477
-5,062383	-0,602273	-0,470333	2020-10-29T19:34:57:492
-5,297915	0,954250	-0,831434	2020-10-29T19:34:57:515
-5,564519	2,284727	-0,415990	2020-10-29T19:34:57:532
-5,405289	2,912755	0,074380	2020-10-29T19:34:57:556
-4,875091	2,747759	0,541075	2020-10-29T19:34:57:572
-4,400153	2,424330	0,681068	2020-10-29T19:34:57:595
-4,186589	3,111264	1,263487	2020-10-29T19:34:57:612
-3,826461	3,163824	0,844957	2020-10-29T19:34:57:636
-3,885376	2,928494	0,553995	2020-10-29T19:34:57:653
-4,273824	2,955070	0,701407	2020-10-29T19:34:57:675
-4,201405	3,345538	0,256873	2020-10-29T19:34:57:692
-4,072619	3,518113	-0,246021	2020-10-29T19:34:57:717
-4,583185	2,829189	-0,158280	2020-10-29T19:34:57:732
-4,837970	2,521897	-0,134722	2020-10-29T19:34:57:756
-5,166119	3,384258	0,151413	2020-10-29T19:34:57:772
-5,700517	3,370298	0,511736	2020-10-29T19:34:57:796
-5,799233	3,729962	0,703004	2020-10-29T19:34:57:812
-5,501673	3,740630	0,698837	2020-10-29T19:34:57:835
-5,233813	2,886612	1,292720	2020-10-29T19:34:57:853
-5,003280	1,804230	1,279422	2020-10-29T19:34:57:877
-4,811611	2,869868	-0,288786	2020-10-29T19:34:57:892
-4,682883	4,492064	-1,532227	2020-10-29T19:34:57:916
-4,103551	5,657642	-2,760551	2020-10-29T19:34:57:932
-3,614897	5,191417	-3,934622	2020-10-29T19:34:57:958
-3,238770	3,895781	-4,642858	2020-10-29T19:34:57:972
0,998460	1,143465	0,765984	2020-10-29T19:34:57:996
0,713715	1,918739	-0,107396	2020-10-29T19:34:58:013
1,033856	0,786537	0,026464	2020-10-29T19:34:58:037
0,432532	-1,094223	-0,574738	2020-10-29T19:34:58:053
-0,209476	-3,501714	-1,604294	2020-10-29T19:34:58:076
-0,458876	-4,940374	-1,590618	2020-10-29T19:34:58:092
-0,801023	-5,658021	-1,262119	2020-10-29T19:34:58:116
-1,317340	-5,905463	0,366980	2020-10-29T19:34:58:133
-0,750946	-6,259172	2,534050	2020-10-29T19:34:58:157
-1,441110	-5,542547	2,781770	2020-10-29T19:34:58:173
-2,124839	-3,991148	3,155159	2020-10-29T19:34:58:198
-2,093893	-2,980971	3,149840	2020-10-29T19:34:58:212
-2,654068	-3,011442	3,048594	2020-10-29T19:34:58:236
-2,909916	-3,239985	2,138084	2020-10-29T19:34:58:254
-2,556230	-2,676880	2,010192	2020-10-29T19:34:58:276
-2,328856	-1,704699	1,127779	2020-10-29T19:34:58:293
-2,846870	-0,596499	0,638763	2020-10-29T19:34:58:316
-2,813399	-0,267950	-0,301397	2020-10-29T19:34:58:333
-2,574044	-0,119601	0,254772	2020-10-29T19:34:58:357
-2,934239	-0,052068	1,568447	2020-10-29T19:34:58:373
-4,209209	0,193184	2,211283	2020-10-29T19:34:58:396
-4,320886	0,662816	1,979193	2020-10-29T19:34:58:414
-3,860090	0,365198	2,447890	2020-10-29T19:34:58:438
-2,876512	0,043189	2,327742	2020-10-29T19:34:58:453
-2,225150	-0,673808	2,354890	2020-10-29T19:34:58:476
-1,520283	-1,212622	2,171591	2020-10-29T19:34:58:493
-0,703892	-0,505447	1,965415	2020-10-29T19:34:58:516
-0,124761	0,153954	1,853566	2020-10-29T19:34:58:533
0,577613	0,196495	1,301097	2020-10-29T19:34:58:557
0,410116	0,194102	0,494717	2020-10-29T19:34:58:572
-0,325473	-0,628620	-0,352482	2020-10-29T19:34:58:597
-1,174052	-1,214360	0,110047	2020-10-29T19:34:58:613
-1,742991	-1,118095	1,048893	2020-10-29T19:34:58:636
-2,171468	-1,203797	1,752451	2020-10-29T19:34:58:656
-2,267264	-1,190818	1,331336	2020-10-29T19:34:58:678
-2,067831	-1,749034	1,065192	2020-10-29T19:34:58:693
-0,497045	-2,272379	1,281248	2020-10-29T19:34:58:716
-0,293085	-2,001949	1,060215	2020-10-29T19:34:58:733
-0,056969	-0,040971	-0,160085	2020-10-29T19:34:58:758
0,189492	0,942479	0,122269	2020-10-29T19:34:58:773
-0,057214	0,089643	0,883854	2020-10-29T19:34:58:796
-0,566321	-0,124866	1,292470	2020-10-29T19:34:58:813
-0,951180	-0,180347	1,110075	2020-10-29T19:34:58:837
-1,601787	-0,468958	0,532975	2020-10-29T19:34:58:854
-1,753986	-0,112370	0,481458	2020-10-29T19:34:58:876
-1,501735	0,333234	0,416124	2020-10-29T19:34:58:893
-0,871557	0,722518	0,121684	2020-10-29T19:34:58:918
-0,232423	0,400562	0,079814	2020-10-29T19:34:58:933
0,078704	0,535474	0,094232	2020-10-29T19:34:58:956
0,078031	0,756905	-0,024632	2020-10-29T19:34:58:974
-0,080260	0,851425	-0,199371	2020-10-29T19:34:58:997
-0,143749	1,345056	-0,308510	2020-10-29T19:34:59:014
-0,101570	0,832141	-0,389632	2020-10-29T19:34:59:036
0,082582	0,405668	-1,142397	2020-10-29T19:34:59:054
-0,349307	-0,001093	-2,345880	2020-10-29T19:34:59:077
-0,847761	0,103349	-2,418471	2020-10-29T19:34:59:093
-1,134235	0,881607	-1,404442	2020-10-29T19:34:59:116
-1,102973	0,974021	-0,487502	2020-10-29T19:34:59:133
-0,603216	0,422320	-0,199472	2020-10-29T19:34:59:158
-0,145010	-0,040014	-0,475616	2020-10-29T19:34:59:174
0,154881	-0,277575	-0,837636	2020-10-29T19:34:59:196
0,549469	0,009926	-0,607921	2020-10-29T19:34:59:214
0,780692	0,486744	-0,099560	2020-10-29T19:34:59:237
0,737503	0,553242	-0,026426	2020-10-29T19:34:59:254
0,498545	0,329172	-0,016688	2020-10-29T19:34:59:276
0,515391	0,278052	0,099422	2020-10-29T19:34:59:294
0,442980	0,492250	0,226434	2020-10-29T19:34:59:317
0,573440	0,807556	0,199016	2020-10-29T19:34:59:334
0,666468	1,157356	-0,017650	2020-10-29T19:34:59:357
0,761729	1,193943	-0,256151	2020-10-29T19:34:59:374
0,788207	0,991129	-0,547719	2020-10-29T19:34:59:398
0,719798	0,711326	-0,540111	2020-10-29T19:34:59:413
0,650533	0,564969	-0,313198	2020-10-29T19:34:59:438
0,757648	0,726770	-0,046791	2020-10-29T19:34:59:454
0,956798	0,900351	-0,021692	2020-10-29T19:34:59:477
1,289458	0,985710	-0,290607	2020-10-29T19:34:59:493
1,752567	0,937391	-0,691652	2020-10-29T19:34:59:517
1,727877	1,022244	-0,812278	2020-10-29T19:34:59:534
1,613960	1,042877	-0,962317	2020-10-29T19:34:59:558
1,378892	0,817644	-1,074316	2020-10-29T19:34:59:574
1,143974	0,534967	-1,000750	2020-10-29T19:34:59:596
0,900784	0,129931	-0,619918	2020-10-29T19:34:59:614
0,748545	-0,109547	-0,282226	2020-10-29T19:34:59:638
1,142514	-0,541098	-0,379951	2020-10-29T19:34:59:655
1,593125	-0,590777	-0,467454	2020-10-29T19:34:59:677
2,135152	-0,708956	-0,506315	2020-10-29T19:34:59:694
2,268490	-0,542421	-0,502994	2020-10-29T19:34:59:717
2,180427	-0,172685	-0,481820	2020-10-29T19:34:59:734
1,800156	0,457546	-0,549589	2020-10-29T19:34:59:757
1,634900	0,608404	-0,661876	2020-10-29T19:34:59:774
1,342814	0,707199	-0,668756	2020-10-29T19:34:59:797
1,297445	0,755891	-0,765532	2020-10-29T19:34:59:814
1,633285	0,440599	-0,958173	2020-10-29T19:34:59:837
2,144128	-0,110152	-1,397405	2020-10-29T19:34:59:855
-0,029132	-0,020441	-0,101989	2020-10-29T19:34:59:880
-0,282771	-0,309973	0,161222	2020-10-29T19:34:59:894
-0,265681	-0,050192	0,154504	2020-10-29T19:34:59:917
-0,175369	-0,196227	0,123808	2020-10-29T19:34:59:934
0,082815	-0,518547	0,144630	2020-10-29T19:34:59:958
0,081329	-0,759901	-0,386492	2020-10-29T19:34:59:974
-0,506453	-0,800548	-0,667469	2020-10-29T19:34:59:997
-1,198889	-1,250370	-0,830139	2020-10-29T19:35:00:014
-1,500005	-1,117548	-1,205578	2020-10-29T19:35:00:038
-1,207686	-0,252110	-1,808883	2020-10-29T19:35:00:055
-1,050131	0,390741	-2,486393	2020-10-29T19:35:00:077
-0,819100	1,155092	-2,239923	2020-10-29T19:35:00:094
-0,669206	2,357028	-1,605040	2020-10-29T19:35:00:119
-0,922920	2,661745	-0,616139	2020-10-29T19:35:00:134
-1,091088	2,449399	0,487774	2020-10-29T19:35:00:159
-1,262345	2,120734	1,252255	2020-10-29T19:35:00:174
-0,689736	1,597129	1,643481	2020-10-29T19:35:00:198
-0,387356	1,424463	1,919550	2020-10-29T19:35:00:214
0,085751	1,007932	1,942079	2020-10-29T19:35:00:238
0,095874	0,637490	1,725091	2020-10-29T19:35:00:255
0,255575	0,110478	0,839301	2020-10-29T19:35:00:278
-0,153538	0,026175	-0,495656	2020-10-29T19:35:00:294
-0,692306	0,188292	-1,494044	2020-10-29T19:35:00:318
-1,017871	0,453601	-1,592721	2020-10-29T19:35:00:335
-1,019422	-0,160592	-1,291960	2020-10-29T19:35:00:361
-0,849532	0,073905	-0,399437	2020-10-29T19:35:00:374
-0,024597	-0,223241	-0,216862	2020-10-29T19:35:00:397
0,984923	-0,532459	-0,350908	2020-10-29T19:35:00:415
1,976094	-0,881416	-0,715752	2020-10-29T19:35:00:438
2,563113	-0,833374	-0,951974	2020-10-29T19:35:00:455
2,644560	-0,800598	-1,124142	2020-10-29T19:35:00:477
2,361069	-0,761704	-1,280471	2020-10-29T19:35:00:494
0,178883	0,046227	0,239346	2020-10-29T19:35:00:518
-0,199183	0,211332	0,213025	2020-10-29T19:35:00:535
0,035354	0,076170	0,066621	2020-10-29T19:35:00:558
0,348051	0,040789	-0,119144	2020-10-29T19:35:00:575
0,633822	-0,021268	-0,193969	2020-10-29T19:35:00:599
0,927482	-0,215913	-0,227649	2020-10-29T19:35:00:615
1,177500	-0,190045	-0,310912	2020-10-29T19:35:00:638
1,360962	-0,375458	-0,399569	2020-10-29T19:35:00:655
1,470226	-0,314311	-0,915463	2020-10-29T19:35:00:678
1,495845	-0,021056	-1,170326	2020-10-29T19:35:00:695
1,636709	0,330236	-1,416578	2020-10-29T19:35:00:718
1,579339	0,498044	-1,566944	2020-10-29T19:35:00:735
1,459077	0,572305	-1,598384	2020-10-29T19:35:00:760
1,520076	0,478889	-1,549329	2020-10-29T19:35:00:775
1,720802	0,280702	-1,657003	2020-10-29T19:35:00:798
1,786151	0,119236	-1,744989	2020-10-29T19:35:00:815
1,908267	-0,140842	-1,703388	2020-10-29T19:35:00:839
2,191693	-0,498406	-1,961682	2020-10-29T19:35:00:856
2,221797	-0,174996	-3,694286	2020-10-29T19:35:00:878
1,766281	0,918959	-4,360871	2020-10-29T19:35:00:895
1,237333	2,019181	-3,835001	2020-10-29T19:35:00:919
1,432572	2,003014	-2,893628	2020-10-29T19:35:00:935
2,194560	1,604595	-3,330549	2020-10-29T19:35:00:959
2,909799	1,099716	-3,905283	2020-10-29T19:35:00:975
3,011515	0,529703	-3,839833	2020-10-29T19:35:00:999
3,018762	0,218742	-3,510828	2020-10-29T19:35:01:015
3,010604	-0,033963	-3,487160	2020-10-29T19:35:01:038
3,063755	-0,270982	-3,701801	2020-10-29T19:35:01:056
3,218307	-0,341560	-4,008791	2020-10-29T19:35:01:080
3,327820	-0,123075	-4,168125	2020-10-29T19:35:01:095
3,500191	0,293906	-3,888849	2020-10-29T19:35:01:124
3,726854	0,696111	-3,365333	2020-10-29T19:35:01:137
3,950962	1,059466	-3,189297	2020-10-29T19:35:01:164
4,156171	1,152522	-3,175802	2020-10-29T19:35:01:187
0,094035	-0,026101	0,145575	2020-10-29T19:35:01:259
0,290246	-0,282133	-0,053030	2020-10-29T19:35:01:262
0,126471	-0,429314	-0,069168	2020-10-29T19:35:01:265
-0,180028	-0,710395	-0,079168	2020-10-29T19:35:01:268
-0,075258	-0,009112	-0,189575	2020-10-29T19:35:01:301
-0,147043	-0,736530	-0,077112	2020-10-29T19:35:01:303
0,050255	-0,541259	-0,064967	2020-10-29T19:35:01:323
0,269716	-0,651927	-0,106858	2020-10-29T19:35:01:342
0,467697	-0,677801	-0,131680	2020-10-29T19:35:01:358
0,681730	-0,422488	-0,181737	2020-10-29T19:35:01:375
0,700994	-0,105325	-0,182921	2020-10-29T19:35:01:398
0,750307	0,306444	-0,274763	2020-10-29T19:35:01:416
0,597515	0,627306	-0,413202	2020-10-29T19:35:01:439
0,426421	0,739871	-0,385915	2020-10-29T19:35:01:457
-0,052393	-0,006454	-0,188043	2020-10-29T19:35:01:480
-0,217498	-0,391698	-0,003796	2020-10-29T19:35:01:496
0,029687	-0,368549	-0,143437	2020-10-29T19:35:01:519
0,060294	-0,725850	-0,003446	2020-10-29T19:35:01:536
-0,038239	-1,096715	0,119811	2020-10-29T19:35:01:561
0,121555	-1,466383	0,066630	2020-10-29T19:35:01:576
0,265654	-1,658902	-0,022532	2020-10-29T19:35:01:598
0,449162	-1,662336	-0,160197	2020-10-29T19:35:01:616
0,512880	-1,487810	-0,090920	2020-10-29T19:35:01:639
0,636117	-1,084715	0,279373	2020-10-29T19:35:01:657
0,567759	-0,786767	0,288522	2020-10-29T19:35:01:679
0,620587	-0,665394	0,327374	2020-10-29T19:35:01:696
0,648890	-0,527469	0,280292	2020-10-29T19:35:01:720
0,688624	-0,549031	0,132747	2020-10-29T19:35:01:736
0,662150	-0,701687	-0,079282	2020-10-29T19:35:01:760
0,549035	-1,274287	-0,582683	2020-10-29T19:35:01:777
-0,016605	-1,578343	-1,302456	2020-10-29T19:35:01:801
-0,591973	-1,886598	-0,980712	2020-10-29T19:35:01:816
-1,991059	-1,579630	-0,199806	2020-10-29T19:35:01:840
-2,776269	-1,128403	0,210567	2020-10-29T19:35:01:857
-2,797485	-0,552895	-0,528591	2020-10-29T19:35:01:880
-2,110496	-0,027224	-1,090242	2020-10-29T19:35:01:897
-0,643229	-0,169001	-1,291979	2020-10-29T19:35:01:920
-0,370447	0,307171	-0,576525	2020-10-29T19:35:01:936
-0,578932	0,215411	0,381488	2020-10-29T19:35:01:961
-0,737623	0,398130	1,199171	2020-10-29T19:35:01:976
-0,918872	0,666351	1,836158	2020-10-29T19:35:01:999
-1,031588	0,651355	2,268141	2020-10-29T19:35:02:017
0,863375	0,061013	1,106328	2020-10-29T19:35:02:043
1,088301	-0,680762	-0,051798	2020-10-29T19:35:02:057
-0,397800	-0,171688	-0,767939	2020-10-29T19:35:02:080
-0,854829	-0,798607	-1,600641	2020-10-29T19:35:02:098
-1,302672	-0,437323	-1,384053	2020-10-29T19:35:02:120
-1,242583	0,058276	-0,309036	2020-10-29T19:35:02:137
-1,072218	0,529479	0,147326	2020-10-29T19:35:02:159
-0,587241	0,804607	0,265823	2020-10-29T19:35:02:177
-0,131752	0,676756	0,303746	2020-10-29T19:35:02:200
0,190969	0,373454	0,266123	2020-10-29T19:35:02:217
0,098966	0,144904	0,426575	2020-10-29T19:35:02:239
0,068834	-0,082262	0,565678	2020-10-29T19:35:02:257
-0,021043	-0,328201	0,624425	2020-10-29T19:35:02:282
-0,209878	-0,531516	0,538823	2020-10-29T19:35:02:296
-0,155557	-0,771421	0,670365	2020-10-29T19:35:02:320
-0,311368	-0,903310	0,817212	2020-10-29T19:35:02:337
-0,378100	-0,884741	0,925345	2020-10-29T19:35:02:361
-0,245625	-0,806349	0,934211	2020-10-29T19:35:02:377
-0,124741	-0,690497	0,814308	2020-10-29T19:35:02:400
0,027311	-0,502128	0,706010	2020-10-29T19:35:02:417
0,028079	-0,370286	0,607265	2020-10-29T19:35:02:440
0,040257	-0,152287	0,460316	2020-10-29T19:35:02:457
0,095913	0,139227	0,445669	2020-10-29T19:35:02:480
0,110342	0,218810	0,249928	2020-10-29T19:35:02:497
0,128979	-0,110095	-0,744969	2020-10-29T19:35:02:522
-0,650808	-0,622623	-3,432802	2020-10-29T19:35:02:537
-1,327736	-0,297035	-2,830394	2020-10-29T19:35:02:561
-1,399520	1,267871	-0,550035	2020-10-29T19:35:02:577
-1,141994	-0,337856	0,530118	2020-10-29T19:35:02:600
0,001369	-1,044750	-0,353654	2020-10-29T19:35:02:617
0,974991	-1,539487	-1,557405	2020-10-29T19:35:02:640
1,646850	-1,672447	-2,399562	2020-10-29T19:35:02:658
2,268389	-0,989519	-2,614481	2020-10-29T19:35:02:681
2,854011	-0,481464	-2,516728	2020-10-29T19:35:02:697
3,099798	-0,261531	-2,832657	2020-10-29T19:35:02:720
3,136274	-0,090028	-3,284685	2020-10-29T19:35:02:737
3,319758	0,276979	-3,285322	2020-10-29T19:35:02:763
3,820951	0,914068	-2,862629	2020-10-29T19:35:02:777
4,356820	0,972196	-2,591394	2020-10-29T19:35:02:800
4,845300	1,416063	-2,567001	2020-10-29T19:35:02:818
4,858008	1,481773	-2,682734	2020-10-29T19:35:02:841
4,432953	1,463062	-3,112080	2020-10-29T19:35:02:858
3,776637	1,036308	-3,033584	2020-10-29T19:35:02:880
3,248266	0,454125	-2,867465	2020-10-29T19:35:02:897
2,879060	-0,097868	-2,745116	2020-10-29T19:35:02:921
2,835140	-0,372758	-2,917464	2020-10-29T19:35:02:938
3,265937	-0,436758	-3,198234	2020-10-29T19:35:02:961
4,035724	-0,525955	-3,676350	2020-10-29T19:35:02:978
4,815111	-0,183065	-3,772548	2020-10-29T19:35:03:003
5,415211	0,167386	-3,814965	2020-10-29T19:35:03:017
5,623087	0,250374	-3,707942	2020-10-29T19:35:03:040
5,196965	0,615558	-3,420652	2020-10-29T19:35:03:058
4,946730	0,566552	-3,508945	2020-10-29T19:35:03:082
4,666339	0,537053	-3,657170	2020-10-29T19:35:03:099
4,511017	0,267995	-3,567134	2020-10-29T19:35:03:121
4,475865	0,122658	-3,557861	2020-10-29T19:35:03:137
-0,181752	-0,006595	0,013055	2020-10-29T19:35:03:162
-0,040576	-0,123844	0,015448	2020-10-29T19:35:03:178
-0,055417	-0,011189	-0,054074	2020-10-29T19:35:03:201
-0,009953	0,036668	-0,195251	2020-10-29T19:35:03:218
0,108833	-0,062380	-0,188920	2020-10-29T19:35:03:243
-0,486756	-0,059600	0,044903	2020-10-29T19:35:03:259
2,898426	0,468098	-1,325701	2020-10-29T19:35:03:280
3,427404	0,714574	-1,628938	2020-10-29T19:35:03:298
3,887571	1,010309	-2,135194	2020-10-29T19:35:03:323
4,229746	1,159650	-2,740525	2020-10-29T19:35:03:356
4,139034	1,027101	-3,069425	2020-10-29T19:35:03:406
3,454605	0,537550	-3,627964	2020-10-29T19:35:03:407
1,617400	0,758771	-2,428005	2020-10-29T19:35:03:410
0,298163	0,230866	-0,296684	2020-10-29T19:35:03:418
0,583502	-0,067445	-0,687279	2020-10-29T19:35:03:442
1,752690	0,075950	-2,384265	2020-10-29T19:35:03:469
2,870286	0,576030	-3,842084	2020-10-29T19:35:03:482
3,264034	0,923751	-4,259135	2020-10-29T19:35:03:498
2,925270	1,403783	-3,455549	2020-10-29T19:35:03:521
2,035943	1,686208	-2,390134	2020-10-29T19:35:03:538
1,869670	1,510874	-1,977190	2020-10-29T19:35:03:562
2,472085	1,262483	-2,498776	2020-10-29T19:35:03:578
3,049835	0,651816	-3,508928	2020-10-29T19:35:03:601
3,262642	-0,240580	-3,870375	2020-10-29T19:35:03:618
3,253928	-0,654232	-3,284398	2020-10-29T19:35:03:642
3,153537	-0,383936	-2,566187	2020-10-29T19:35:03:658
3,191552	0,060979	-2,305700	2020-10-29T19:35:03:681
3,378179	0,277639	-2,453457	2020-10-29T19:35:03:698
3,429490	0,360388	-2,654932	2020-10-29T19:35:03:723
3,528435	0,318195	-2,798207	2020-10-29T19:35:03:738
3,441213	0,279582	-3,307229	2020-10-29T19:35:03:762
3,304169	0,101841	-3,835171	2020-10-29T19:35:03:778
-0,266165	-0,105006	-0,391038	2020-10-29T19:35:03:802
-0,759087	-0,176791	-0,565714	2020-10-29T19:35:03:818
-0,765799	-0,243034	-0,778947	2020-10-29T19:35:03:841
-1,245718	-0,326430	-0,851818	2020-10-29T19:35:03:859
-1,584201	-0,553924	-0,752807	2020-10-29T19:35:03:882
-1,664907	-0,446875	-0,352461	2020-10-29T19:35:03:899
-1,422964	-0,534732	-0,004122	2020-10-29T19:35:03:921
-1,248806	-0,633070	0,193848	2020-10-29T19:35:03:938
-0,148048	-0,071553	-0,157720	2020-10-29T19:35:03:965
-0,377759	-0,363478	0,631911	2020-10-29T19:35:03:978
-0,165383	-0,458388	0,494611	2020-10-29T19:35:04:002
-0,197223	-0,298596	0,349876	2020-10-29T19:35:04:019
0,136152	0,288499	-0,033373	2020-10-29T19:35:04:042
0,612464	0,617025	-0,197878	2020-10-29T19:35:04:060
0,645836	0,850829	-0,345673	2020-10-29T19:35:04:082
0,470484	0,475973	-0,792622	2020-10-29T19:35:04:099
0,405360	0,285302	-0,470577	2020-10-29T19:35:04:122
-0,207061	-0,098991	0,752149	2020-10-29T19:35:04:138
-0,951645	-0,070232	1,590098	2020-10-29T19:35:04:162
-1,483750	-0,092050	2,385696	2020-10-29T19:35:04:179
-1,892075	-0,069997	3,063516	2020-10-29T19:35:04:203
-2,315539	0,219162	4,157178	2020-10-29T19:35:04:219
-2,328090	0,154471	4,385008	2020-10-29T19:35:04:242
-1,979877	0,465065	5,473605	2020-10-29T19:35:04:260
-1,530368	1,255000	6,307099	2020-10-29T19:35:04:282
-0,197412	1,428205	2,681050	2020-10-29T19:35:04:299
1,155779	0,646106	-3,426095	2020-10-29T19:35:04:322
2,766982	-0,833288	-6,896978	2020-10-29T19:35:04:338
3,047837	-4,885377	-6,817197	2020-10-29T19:35:04:363
2,549070	-7,077477	-5,490937	2020-10-29T19:35:04:380
2,799652	-6,793314	-4,424910	2020-10-29T19:35:04:431
3,230281	-5,971426	-5,041445	2020-10-29T19:35:04:432
1,975787	-1,315961	-3,601264	2020-10-29T19:35:04:445
0,271292	2,141819	-2,060741	2020-10-29T19:35:04:460
-0,651637	3,059871	-1,590789	2020-10-29T19:35:04:482
-0,700004	3,534313	-1,598784	2020-10-29T19:35:04:498
-1,255745	4,979684	-1,372772	2020-10-29T19:35:04:523
-1,929561	5,145215	0,479378	2020-10-29T19:35:04:540
-2,930873	3,984269	1,105211	2020-10-29T19:35:04:562
-3,812834	2,779804	1,146228	2020-10-29T19:35:04:579
-3,766828	2,456301	0,949860	2020-10-29T19:35:04:602
-3,255583	0,960747	1,111208	2020-10-29T19:35:04:620
-0,087628	-0,016609	-0,009193	2020-10-29T19:35:04:643
1,857736	2,165645	-0,727040	2020-10-29T19:35:04:660
1,928012	0,830001	0,655965	2020-10-29T19:35:04:684
1,804922	-2,287965	-0,581702	2020-10-29T19:35:04:700
1,476427	-3,545021	-0,626453	2020-10-29T19:35:04:722
0,701767	-3,484270	0,862731	2020-10-29T19:35:04:740
0,642888	-2,351640	-2,283249	2020-10-29T19:35:04:764
-0,440687	-1,823585	-2,239524	2020-10-29T19:35:04:780
-1,542426	-3,508839	-1,140452	2020-10-29T19:35:04:803
-2,669406	-5,620409	3,186436	2020-10-29T19:35:04:819
-6,342975	-0,374286	3,539431	2020-10-29T19:35:08:107
-5,332250	-0,363697	0,244620	2020-10-29T19:35:08:108
-3,386379	-0,791883	-0,993475	2020-10-29T19:35:08:138
-2,779952	-1,396709	-0,375395	2020-10-29T19:35:08:139
-3,401339	-1,639838	0,540608	2020-10-29T19:35:08:168
-3,714504	-1,489648	1,083781	2020-10-29T19:35:08:179
-3,163448	-1,118363	1,441640	2020-10-29T19:35:08:199
-2,433602	-0,769102	1,895505	2020-10-29T19:35:08:236
-2,030759	-0,575888	2,852048	2020-10-29T19:35:08:304
-1,447462	-0,460716	2,774064	2020-10-29T19:35:08:304
-1,107457	-0,595704	2,781866	2020-10-29T19:35:08:305
-0,437872	-0,721232	2,596628	2020-10-29T19:35:08:306
0,130895	-0,572898	2,015688	2020-10-29T19:35:08:323
0,354933	-1,248008	1,500957	2020-10-29T19:35:08:344
0,128361	-1,625502	1,724513	2020-10-29T19:35:08:358
0,307502	-1,720800	1,897466	2020-10-29T19:35:08:377
0,725885	0,214939	0,023582	2020-10-29T19:35:08:399
1,225986	0,057012	-0,067346	2020-10-29T19:35:08:416
1,457812	0,044575	-0,530725	2020-10-29T19:35:08:440
1,313290	-0,257290	0,092656	2020-10-29T19:35:08:457
0,651985	-0,783962	0,567527	2020-10-29T19:35:08:481
-0,342252	-1,280079	0,782059	2020-10-29T19:35:08:497
-1,405444	-1,821494	1,984159	2020-10-29T19:35:08:520
-2,253813	-1,630460	3,010665	2020-10-29T19:35:08:538
-2,576816	-0,757535	2,433717	2020-10-29T19:35:08:564
-4,239757	-0,250675	2,796703	2020-10-29T19:35:08:577
-5,794505	-0,399552	3,165655	2020-10-29T19:35:08:601
-5,013733	-1,292124	3,269278	2020-10-29T19:35:08:617
-3,076064	-2,100760	3,265144	2020-10-29T19:35:08:641
-1,309186	-1,811702	3,708986	2020-10-29T19:35:08:657
0,346295	-1,411699	4,076070	2020-10-29T19:35:08:682
1,823007	-1,301396	3,786636	2020-10-29T19:35:08:700
1,059899	0,581259	-0,436581	2020-10-29T19:35:08:722
-0,399723	3,691928	-1,637778	2020-10-29T19:35:08:737
-1,927985	1,459207	1,168075	2020-10-29T19:35:08:760
-4,364686	0,952883	-1,843834	2020-10-29T19:35:08:778
-5,811080	-1,113547	-4,410872	2020-10-29T19:35:08:802
-6,803062	0,952133	-7,772793	2020-10-29T19:35:08:817
-6,889126	-0,732528	-6,489554	2020-10-29T19:35:08:840
-6,199855	-2,084481	-6,669098	2020-10-29T19:35:08:857
-5,418543	-1,327390	-7,776024	2020-10-29T19:35:08:881
-3,823184	-1,224946	-8,180428	2020-10-29T19:35:08:897
-1,282562	-0,358968	-0,386452	2020-10-29T19:35:08:922
-0,538394	-0,428360	0,101683	2020-10-29T19:35:08:937
-0,237939	-0,721730	0,311409	2020-10-29T19:35:08:961
-0,435353	-0,199163	0,682897	2020-10-29T19:35:08:978
-0,072408	-0,031866	-0,012669	2020-10-29T19:35:09:003
0,092697	0,350985	2,992716	2020-10-29T19:35:24:083
0,200414	-0,068026	0,034102	2020-10-29T19:35:24:106
-0,074325	-0,105536	0,195581	2020-10-29T19:35:24:108
-0,076097	-0,268207	0,279617	2020-10-29T19:35:24:113
-0,224292	-0,408790	0,115321	2020-10-29T19:35:24:154
-0,915209	-0,379790	-0,026335	2020-10-29T19:35:24:157
-1,638622	-0,631037	0,054462	2020-10-29T19:35:24:175
-1,602304	-0,717576	-0,027000	2020-10-29T19:35:24:181
-0,728167	-0,567193	-0,251283	2020-10-29T19:35:24:202
-0,116885	-0,057486	-0,597548	2020-10-29T19:35:24:219
-0,050559	0,255771	-0,634514	2020-10-29T19:35:24:241
-0,058239	0,629231	-0,811961	2020-10-29T19:35:24:259
0,071487	0,026347	-0,005292	2020-10-29T19:35:24:284
0,002095	-0,222507	-0,124933	2020-10-29T19:35:24:300
0,174028	-0,121576	-0,344001	2020-10-29T19:35:24:323
0,350570	0,038800	-0,718524	2020-10-29T19:35:24:341
0,477954	0,030076	-0,936844	2020-10-29T19:35:24:364
0,335996	0,128901	-1,046105	2020-10-29T19:35:24:380
0,544541	0,074690	-1,069269	2020-10-29T19:35:24:403
0,832769	-0,014678	-1,120111	2020-10-29T19:35:24:421
1,200747	-0,116338	-1,097442	2020-10-29T19:35:24:443
1,435088	-0,289847	-1,115586	2020-10-29T19:35:24:460
0,242482	2,813584	-1,107053	2020-10-29T19:35:24:483
-0,390342	3,525502	-1,237490	2020-10-29T19:35:24:500
-1,301693	3,914614	-1,449813	2020-10-29T19:35:24:524
-2,352407	4,162397	-1,326646	2020-10-29T19:35:24:542
-2,851038	4,143329	-1,312674	2020-10-29T19:35:24:564
-3,249302	3,928908	-1,211403	2020-10-29T19:35:24:580
-3,432880	3,745972	-1,153415	2020-10-29T19:35:24:604
-3,665438	3,233167	-1,401653	2020-10-29T19:35:24:620
-1,848626	-0,660006	-0,257616	2020-10-29T19:35:24:644
-1,700271	-0,995001	-0,456220	2020-10-29T19:35:24:661
-1,579435	-0,695246	-0,437278	2020-10-29T19:35:24:683
-1,512970	-0,137620	-0,571225	2020-10-29T19:35:24:701
-1,449418	0,848763	-0,726650	2020-10-29T19:35:24:723
-1,314240	1,704091	-0,767267	2020-10-29T19:35:24:741
-1,207932	2,191963	-0,526505	2020-10-29T19:35:24:763
-1,169522	2,228934	-0,354890	2020-10-29T19:35:24:780
-0,449904	-0,108024	-0,054771	2020-10-29T19:35:24:804
-0,268049	-0,184594	0,036156	2020-10-29T19:35:24:821
-0,376681	-0,158687	-0,026165	2020-10-29T19:35:24:845
-0,475327	-0,173557	-0,054799	2020-10-29T19:35:24:860
-0,460989	-0,089001	-0,051975	2020-10-29T19:35:24:884
-0,400743	0,172987	-0,139320	2020-10-29T19:35:24:901
-0,514380	0,462308	0,005186	2020-10-29T19:35:24:923
-0,554047	0,577266	0,231975	2020-10-29T19:35:24:941
-0,439269	0,825531	0,215015	2020-10-29T19:35:24:963
-0,330502	1,174661	0,311318	2020-10-29T19:35:24:981
-0,269276	1,501283	0,354391	2020-10-29T19:35:25:004
-0,129160	1,722766	0,447340	2020-10-29T19:35:25:021
-0,070221	1,891594	0,481976	2020-10-29T19:35:25:043
0,045917	1,978607	0,460652	2020-10-29T19:35:25:061
0,315062	1,906646	0,453615	2020-10-29T19:35:25:085
0,202559	1,848018	0,535959	2020-10-29T19:35:25:101
-0,464586	1,785989	0,134158	2020-10-29T19:35:25:124
-1,883145	1,670709	0,166048	2020-10-29T19:35:25:141
-2,061027	1,257881	0,445140	2020-10-29T19:35:25:163
-0,063290	1,065576	0,433559	2020-10-29T19:35:25:181
1,525464	0,965050	0,564886	2020-10-29T19:35:25:204
1,390840	0,974958	0,777065	2020-10-29T19:35:25:221
0,299718	0,924258	0,956959	2020-10-29T19:35:25:244
-0,498626	0,871447	0,983605	2020-10-29T19:35:25:261
-1,530048	2,607641	-0,005344	2020-10-29T19:35:25:285
-1,364944	2,554999	0,221975	2020-10-29T19:35:25:301
-0,389302	0,135915	-0,164849	2020-10-29T19:35:25:326
-0,912636	-0,084928	-0,226275	2020-10-29T19:35:25:341
-1,443799	-0,112693	-0,157112	2020-10-29T19:35:25:364
-1,961166	0,069811	-0,072578	2020-10-29T19:35:25:381
-3,415811	3,719821	0,203050	2020-10-29T19:35:25:404
-2,852015	3,994197	1,109507	2020-10-29T19:35:25:421
-1,775718	4,001751	1,931405	2020-10-29T19:35:25:445
0,196776	0,609081	2,827033	2020-10-29T19:35:25:461
0,420610	0,657233	2,512976	2020-10-29T19:35:25:484
0,681981	0,575999	2,164677	2020-10-29T19:35:25:501
0,731135	0,470351	1,945976	2020-10-29T19:35:25:526
0,617332	0,182931	1,518974	2020-10-29T19:35:25:541
0,497862	0,348577	1,018160	2020-10-29T19:35:25:565
0,152023	0,027859	0,713591	2020-10-29T19:35:25:581
0,029135	-0,436977	0,458769	2020-10-29T19:35:25:605
0,220045	-0,579635	-0,299766	2020-10-29T19:35:25:622
0,116675	-0,560152	-0,381674	2020-10-29T19:35:25:644
-0,051507	-0,808527	-0,335245	2020-10-29T19:35:25:661
-0,291708	-1,285612	-0,260633	2020-10-29T19:35:25:685
-0,422743	-1,619087	-0,334143	2020-10-29T19:35:25:701
-0,390894	-1,612345	-0,521326	2020-10-29T19:35:25:725
-0,251917	-1,485871	-0,474574	2020-10-29T19:35:25:742
-0,042130	-1,288973	-0,458447	2020-10-29T19:35:25:765
-0,400787	1,019851	-1,264561	2020-10-29T19:35:25:781
0,492450	-0,956674	-0,410288	2020-10-29T19:35:25:806
0,658784	-0,691710	-0,298764	2020-10-29T19:35:25:821
0,819224	-0,686552	-0,386628	2020-10-29T19:35:25:845
0,969570	-0,808102	-0,257697	2020-10-29T19:35:25:861
0,917626	-0,918292	-0,189900	2020-10-29T19:35:25:884
0,923093	-1,152423	-0,151438	2020-10-29T19:35:25:902
-0,068657	1,250202	-0,906246	2020-10-29T19:35:25:925
-0,456036	1,302877	-1,155735	2020-10-29T19:35:25:941
-1,517624	1,446356	-1,780568	2020-10-29T19:35:25:965
-3,376019	1,405557	-1,426156	2020-10-29T19:35:25:981
-3,397802	1,429630	-1,432672	2020-10-29T19:35:26:006
-2,195894	1,391130	-1,327446	2020-10-29T19:35:26:022
-1,518451	1,418086	-1,392538	2020-10-29T19:35:26:046
-1,411037	1,881472	-1,654389	2020-10-29T19:35:26:062
-1,593835	2,368588	-1,924958	2020-10-29T19:35:26:086
-1,636437	2,804854	-1,998442	2020-10-29T19:35:26:102
-1,635368	2,797071	-2,159536	2020-10-29T19:35:26:125
-1,474944	2,852111	-2,372266	2020-10-29T19:35:26:142
-1,608652	3,293694	-2,422929	2020-10-29T19:35:26:166
-1,688450	3,658154	-2,453587	2020-10-29T19:35:26:182
0,127204	0,020673	0,015866	2020-10-29T19:35:26:207
-0,210184	-0,170753	-0,264094	2020-10-29T19:35:26:222
-0,796170	-0,543280	-0,159418	2020-10-29T19:35:26:246
-1,014619	-0,831162	-0,281174	2020-10-29T19:35:26:262
-0,961728	-0,970007	-0,614794	2020-10-29T19:35:26:286
-1,006823	-0,915926	-0,805280	2020-10-29T19:35:26:302
-1,065082	-0,789821	-0,734847	2020-10-29T19:35:26:327
-0,546214	-0,692267	-0,742605	2020-10-29T19:35:26:342
-0,363946	-0,179022	-0,085827	2020-10-29T19:35:26:366
0,217509	-0,169451	0,093635	2020-10-29T19:35:26:382
0,421900	0,225817	0,188918	2020-10-29T19:35:26:407
0,416668	0,708575	0,267850	2020-10-29T19:35:26:422
0,200630	1,129976	0,500302	2020-10-29T19:35:26:445
-0,081363	1,655814	1,262262	2020-10-29T19:35:26:462
-0,369921	2,084324	2,118842	2020-10-29T19:35:26:486
-0,316903	2,642075	2,541526	2020-10-29T19:35:26:502
1,569984	0,648311	-0,110828	2020-10-29T19:35:26:528
1,928907	0,983306	-0,433859	2020-10-29T19:35:26:542
1,897735	0,593043	-0,067728	2020-10-29T19:35:26:566
1,078877	0,299915	0,562248	2020-10-29T19:35:26:582
-0,026241	0,140665	1,456413	2020-10-29T19:35:26:605
-0,927827	0,343735	2,224015	2020-10-29T19:35:26:622
-0,799944	0,937088	2,382341	2020-10-29T19:35:26:646
-0,016973	0,431816	1,631554	2020-10-29T19:35:26:662
0,421451	0,442216	1,038914	2020-10-29T19:35:26:685
0,171166	0,655470	-0,024601	2020-10-29T19:35:26:703
-1,133237	0,245325	-0,501993	2020-10-29T19:35:26:727
-1,062593	0,030176	-0,778357	2020-10-29T19:35:26:743
-0,577488	-0,416337	-0,048583	2020-10-29T19:35:26:768
-0,333421	-0,406766	-0,086868	2020-10-29T19:35:26:782
-0,678849	0,274902	-0,099335	2020-10-29T19:35:26:807
-0,741379	0,186840	0,128997	2020-10-29T19:35:26:823
-0,544331	0,183356	0,103620	2020-10-29T19:35:26:845
-0,128067	0,271454	0,015090	2020-10-29T19:35:26:863
-0,035098	0,392107	0,161852	2020-10-29T19:35:26:886
-0,036160	0,048159	0,288476	2020-10-29T19:35:26:903
-0,177401	-0,717418	0,180804	2020-10-29T19:35:26:926
-0,886259	-1,247397	-0,181445	2020-10-29T19:35:26:942
-1,469910	-1,130818	-0,275835	2020-10-29T19:35:26:966
-1,543933	-1,207551	-0,348241	2020-10-29T19:35:26:983
-1,161499	-1,084024	0,136693	2020-10-29T19:35:27:007
-3,746010	3,415943	1,281916	2020-10-29T19:35:27:023
-1,044019	-0,334755	0,064919	2020-10-29T19:35:27:047
-0,350099	-0,124186	-0,167185	2020-10-29T19:35:27:063
0,397103	0,160114	-0,289277	2020-10-29T19:35:27:086
0,571811	0,976261	-0,459235	2020-10-29T19:35:27:103
0,518006	1,710810	-0,538397	2020-10-29T19:35:27:127
0,112245	2,555702	-0,169104	2020-10-29T19:35:27:143
-0,500251	2,987812	0,272579	2020-10-29T19:35:27:166
-0,932873	2,998942	0,311017	2020-10-29T19:35:27:183
-1,647388	3,145871	0,302267	2020-10-29T19:35:27:207
-2,198878	2,985783	0,418559	2020-10-29T19:35:27:223
-2,590747	2,747773	0,758723	2020-10-29T19:35:27:247
-2,746307	2,495739	1,035823	2020-10-29T19:35:27:262
-2,527258	2,423954	1,140706	2020-10-29T19:35:27:287
-2,096837	2,449573	1,202329	2020-10-29T19:35:27:303
-1,627877	2,455295	1,146093	2020-10-29T19:35:27:327
-1,435395	2,468250	0,867200	2020-10-29T19:35:27:343
-1,629820	2,315598	0,642023	2020-10-29T19:35:27:367
-2,061287	2,197691	0,488808	2020-10-29T19:35:27:383
-2,206711	1,873806	0,490558	2020-10-29T19:35:27:406
-2,001200	1,839501	0,438593	2020-10-29T19:35:27:423
-0,053822	0,033883	0,009447	2020-10-29T19:35:27:447
-1,575657	0,053026	0,200873	2020-10-29T19:35:27:463
-2,459034	-0,820059	0,091805	2020-10-29T19:35:27:487
-2,242901	-1,520967	-0,202994	2020-10-29T19:35:27:503
-5,556875	2,643814	-0,215543	2020-10-29T19:35:27:538
-5,578692	2,959131	-0,186751	2020-10-29T19:35:27:543
-4,789044	3,361506	-0,149376	2020-10-29T19:35:27:567
-3,522305	3,281327	0,025203	2020-10-29T19:35:27:584
0,614226	-1,120310	0,122326	2020-10-29T19:35:27:607
0,904998	-0,229891	-0,015653	2020-10-29T19:35:27:623
0,818058	0,268957	-0,124660	2020-10-29T19:35:27:647
-0,102355	0,603481	-0,046668	2020-10-29T19:35:27:663
-1,335397	0,697158	0,009880	2020-10-29T19:35:27:687
-2,000289	0,758767	-0,564244	2020-10-29T19:35:27:703
-1,788983	1,054019	-1,239974	2020-10-29T19:35:27:728
-1,390308	1,300826	-1,822423	2020-10-29T19:35:27:743
-1,298697	1,752288	-1,815815	2020-10-29T19:35:27:767
-1,171007	2,296471	-1,629784	2020-10-29T19:35:27:783
-1,068872	3,514348	-1,252941	2020-10-29T19:35:27:807
-2,087940	4,944115	-0,698087	2020-10-29T19:35:27:824
-2,375860	5,454366	-0,389038	2020-10-29T19:35:27:848
-2,373317	5,730862	-0,215083	2020-10-29T19:35:27:863
-2,465517	5,820971	-0,086571	2020-10-29T19:35:27:887
-2,511474	5,810503	0,026285	2020-10-29T19:35:27:903
-2,569776	5,687384	0,133103	2020-10-29T19:35:27:927
-2,243458	5,623919	0,040957	2020-10-29T19:35:27:944
-1,991132	5,511045	0,082816	2020-10-29T19:35:27:967
-2,052102	5,378108	0,113591	2020-10-29T19:35:27:983
-2,170481	5,240604	0,124963	2020-10-29T19:35:28:008
-2,352063	4,857952	0,090239	2020-10-29T19:35:28:024
-2,446805	4,535042	0,071006	2020-10-29T19:35:28:047
-2,365298	4,185913	0,015703	2020-10-29T19:35:28:064
-2,070341	3,888975	-0,068942	2020-10-29T19:35:28:088
-1,804605	3,509651	-0,093383	2020-10-29T19:35:28:104
-1,317361	3,035999	-0,039046	2020-10-29T19:35:28:131
-1,136945	2,680366	-0,668138	2020-10-29T19:35:28:144
-2,694554	1,981617	-0,720334	2020-10-29T19:35:28:168
-3,986879	1,132214	-0,375886	2020-10-29T19:35:28:185
-2,413407	0,486723	-1,090166	2020-10-29T19:35:28:208
-1,327807	-0,152627	-1,291977	2020-10-29T19:35:28:224
-2,209091	-0,823714	-0,568029	2020-10-29T19:35:28:248
-2,001470	-1,222127	-0,061309	2020-10-29T19:35:28:264
-0,199243	-1,810183	-0,160937	2020-10-29T19:35:28:287
1,387419	-1,556600	0,054238	2020-10-29T19:35:28:304
2,537441	-0,958082	0,246591	2020-10-29T19:35:28:329
3,223829	-0,438290	0,208163	2020-10-29T19:35:28:344
2,853436	-0,270187	0,158228	2020-10-29T19:35:28:367
1,178005	-0,432874	0,112070	2020-10-29T19:35:28:384
-0,499434	-0,816024	0,464129	2020-10-29T19:35:28:408
-0,943375	-0,931884	1,168238	2020-10-29T19:35:28:425
-0,070992	-1,008544	1,775717	2020-10-29T19:35:28:448
0,455208	-0,593752	2,543354	2020-10-29T19:35:28:464
0,233079	-0,138058	3,056644	2020-10-29T19:35:28:489
0,132663	0,573371	3,151836	2020-10-29T19:35:28:505
0,208516	0,895306	3,499824	2020-10-29T19:35:28:528
0,322108	1,125724	3,593335	2020-10-29T19:35:28:544
0,283596	0,075790	-0,110753	2020-10-29T19:35:28:569
0,278811	0,245681	0,068709	2020-10-29T19:35:28:584
-0,102920	0,325582	-0,192836	2020-10-29T19:35:28:608
-0,317080	0,377762	-0,268986	2020-10-29T19:35:28:624
-0,432198	0,481120	-0,268966	2020-10-29T19:35:28:648
-0,276690	0,496127	-0,257159	2020-10-29T19:35:28:664
-0,016414	0,449388	-0,208805	2020-10-29T19:35:28:688
0,117158	0,088408	-0,256019	2020-10-29T19:35:28:704
0,164774	-0,208389	-0,175925	2020-10-29T19:35:28:729
-0,006797	-0,491500	-0,155838	2020-10-29T19:35:28:744
-0,166098	-0,043603	0,057900	2020-10-29T19:35:28:768
-0,560914	-0,010103	-0,171811	2020-10-29T19:35:28:785
-0,203478	0,059007	-0,241667	2020-10-29T19:35:28:808
-0,825918	0,101169	-1,529681	2020-10-29T19:35:28:825
-3,996798	-0,343697	-0,798275	2020-10-29T19:35:28:848
-5,110702	-0,541763	-0,223498	2020-10-29T19:35:28:865
-2,727655	-0,743143	-0,586399	2020-10-29T19:35:28:888
-2,049517	-0,703824	-0,389764	2020-10-29T19:35:28:905
-0,856750	-0,575847	-0,831054	2020-10-29T19:35:28:928
0,794373	-0,448119	-1,473934	2020-10-29T19:35:28:944
1,339228	-0,441924	-1,544808	2020-10-29T19:35:28:968
0,777026	0,223131	-1,999057	2020-10-29T19:35:28:985
0,478854	0,915248	-2,459821	2020-10-29T19:35:29:007
0,686859	1,413286	-2,603090	2020-10-29T19:35:29:025
1,082535	0,534421	-3,390425	2020-10-29T19:35:29:048
0,412009	0,514642	-3,717449	2020-10-29T19:35:29:064
-0,221582	-0,055855	-0,053545	2020-10-29T19:35:29:123
-0,661863	0,413139	-0,687643	2020-10-29T19:35:29:124
-0,655152	-0,312564	-0,726555	2020-10-29T19:35:29:128
-0,716185	-0,497674	-0,952747	2020-10-29T19:35:29:146
-0,440803	-0,660095	-0,878603	2020-10-29T19:35:29:169
0,039933	-0,975692	-0,479689	2020-10-29T19:35:29:185
0,326134	-1,269641	0,293012	2020-10-29T19:35:29:209
0,703333	-1,156166	0,641059	2020-10-29T19:35:29:225
0,636855	-0,835377	0,426254	2020-10-29T19:35:29:248
0,254889	-0,222780	0,319939	2020-10-29T19:35:29:265
0,093804	-0,006643	0,315718	2020-10-29T19:35:29:289
-0,133883	-0,009936	0,291600	2020-10-29T19:35:29:305
-0,636863	-0,296476	0,558480	2020-10-29T19:35:29:328
-0,941348	-0,525472	0,781501	2020-10-29T19:35:29:345
-0,895282	-0,623805	0,987099	2020-10-29T19:35:29:369
-0,965756	-0,804583	1,714649	2020-10-29T19:35:29:385
-1,049498	-1,016866	2,885784	2020-10-29T19:35:29:409
-0,908019	-0,699221	2,736237	2020-10-29T19:35:29:425
-0,790799	0,259042	2,127209	2020-10-29T19:35:29:449
-0,651127	1,285030	2,013843	2020-10-29T19:35:29:465
-0,708351	1,788814	2,427413	2020-10-29T19:35:29:488
-1,081711	2,268836	3,316616	2020-10-29T19:35:29:505
-1,476323	3,046617	3,676959	2020-10-29T19:35:29:529
-1,383593	4,068234	3,303473	2020-10-29T19:35:29:545
-1,797383	5,403806	2,244230	2020-10-29T19:35:29:569
-3,652298	6,135017	1,609309	2020-10-29T19:35:29:585
-5,264307	5,733256	1,736070	2020-10-29T19:35:29:609
-4,005435	4,750416	1,623317	2020-10-29T19:35:29:625
-1,717455	3,976826	1,981933	2020-10-29T19:35:29:649
-0,631289	3,633380	2,180330	2020-10-29T19:35:29:665
-0,506842	3,619884	1,965277	2020-10-29T19:35:29:689
-0,708076	3,829352	1,125965	2020-10-29T19:35:29:705
0,679167	0,136808	0,003471	2020-10-29T19:35:29:729
-0,555531	-0,155116	-0,061135	2020-10-29T19:35:29:745
-1,997022	-0,681917	0,111246	2020-10-29T19:35:29:769
-2,544919	-1,234908	-0,122664	2020-10-29T19:35:29:785
-2,262630	-1,681427	-0,657425	2020-10-29T19:35:29:809
-3,034930	0,905548	-0,912976	2020-10-29T19:35:29:825
-2,094037	-0,454441	-0,175358	2020-10-29T19:35:29:850
-1,225442	0,299299	-0,024610	2020-10-29T19:35:29:865
-0,147402	0,096604	0,144898	2020-10-29T19:35:29:890
0,472461	-0,024035	0,153575	2020-10-29T19:35:29:905
1,020716	-0,452138	0,063979	2020-10-29T19:35:29:929
1,162266	-0,418406	0,070406	2020-10-29T19:35:29:945
1,114032	-0,260204	0,378556	2020-10-29T19:35:29:968
1,389175	-0,128278	0,555242	2020-10-29T19:35:29:985
1,820899	-0,051751	0,436563	2020-10-29T19:35:30:010
2,003361	0,607763	0,218456	2020-10-29T19:35:30:026
1,695647	0,803751	0,732036	2020-10-29T19:35:30:049
1,302769	0,132825	1,352951	2020-10-29T19:35:30:066
0,942459	-0,531739	1,708486	2020-10-29T19:35:30:089
0,871354	-1,034236	2,109597	2020-10-29T19:35:30:106
0,965282	-0,728213	2,268160	2020-10-29T19:35:30:130
0,991010	-0,360141	2,280586	2020-10-29T19:35:30:146
0,699880	-0,415342	2,361717	2020-10-29T19:35:30:169
0,044775	-0,556184	2,239904	2020-10-29T19:35:30:186
-0,403362	-0,350345	2,322509	2020-10-29T19:35:30:209
-1,065212	0,836976	1,370094	2020-10-29T19:35:30:226
-3,466613	2,335361	0,728510	2020-10-29T19:35:30:251
-5,905028	2,971785	1,483663	2020-10-29T19:35:30:265
-4,504981	3,072021	1,317458	2020-10-29T19:35:30:289
-3,068799	2,958844	1,048859	2020-10-29T19:35:30:306
-3,423506	2,690862	1,154922	2020-10-29T19:35:30:330
-3,479179	2,880334	1,049040	2020-10-29T19:35:30:346
-2,786964	2,778033	1,185300	2020-10-29T19:35:30:369
-1,727001	3,034407	0,891261	2020-10-29T19:35:30:385
-0,448113	3,608164	0,477865	2020-10-29T19:35:30:410
0,680257	4,844913	-0,809347	2020-10-29T19:35:30:427
0,659255	4,950276	-1,332136	2020-10-29T19:35:30:448
-0,333776	4,081252	-1,564221	2020-10-29T19:35:30:467
-1,124657	3,593350	-1,960988	2020-10-29T19:35:30:489
-2,030637	3,683613	-2,382486	2020-10-29T19:35:30:507
-2,995852	3,880121	-2,640392	2020-10-29T19:35:30:529
-3,484043	3,812119	-3,149441	2020-10-29T19:35:30:547
-2,977505	3,518189	-3,322999	2020-10-29T19:35:30:570
-2,246954	3,347827	-3,203678	2020-10-29T19:35:30:587
-1,833456	3,313028	-2,962776	2020-10-29T19:35:30:610
-1,573519	3,749828	-2,680676	2020-10-29T19:35:30:627
-1,622165	3,894935	-2,270393	2020-10-29T19:35:30:650
-1,491857	3,849724	-2,250595	2020-10-29T19:35:30:667
-1,761834	4,011617	-2,301229	2020-10-29T19:35:30:689
-2,205947	4,246866	-2,281766	2020-10-29T19:35:30:707
-2,713593	4,181122	-2,336539	2020-10-29T19:35:30:730
-3,157114	4,040962	-2,383862	2020-10-29T19:35:30:747
-3,296192	4,212070	-2,390150	2020-10-29T19:35:30:769
-3,299754	4,158421	-2,499753	2020-10-29T19:35:30:787
-1,214822	-0,356073	-0,311617	2020-10-29T19:35:30:810
-1,315320	-0,155076	-0,079514	2020-10-29T19:35:30:827
-1,077778	-0,073188	-0,132576	2020-10-29T19:35:30:850
-1,085896	0,321461	0,097900	2020-10-29T19:35:30:866
-1,349228	0,407828	0,308866	2020-10-29T19:35:30:890
-1,353937	0,397141	0,433598	2020-10-29T19:35:30:907
-1,310506	0,581117	0,362911	2020-10-29T19:35:30:930
-1,649044	0,741150	0,348189	2020-10-29T19:35:30:946
-2,030362	0,835779	0,818195	2020-10-29T19:35:30:970
-1,723574	0,610492	1,386077	2020-10-29T19:35:30:987
-1,276426	0,593285	1,984025	2020-10-29T19:35:31:010
-0,750290	0,594065	3,300527	2020-10-29T19:35:31:027
0,016592	-0,012894	0,008699	2020-10-29T19:35:31:050
0,301338	0,207246	-0,048728	2020-10-29T19:35:31:066
-0,038495	0,005297	0,002469	2020-10-29T19:35:31:092
-0,052853	-0,573766	-1,122158	2020-10-29T19:35:31:107
0,393361	0,469731	-0,032815	2020-10-29T19:35:31:130
1,273408	2,337506	0,017021	2020-10-29T19:35:31:146
1,546664	4,369483	-0,493596	2020-10-29T19:35:31:169
0,775047	5,537787	0,477194	2020-10-29T19:35:31:187
-0,587308	5,789114	1,233997	2020-10-29T19:35:31:211
-1,517241	5,654505	1,303659	2020-10-29T19:35:31:226
-1,242181	5,715559	0,718799	2020-10-29T19:35:31:250
-0,781830	5,565783	0,105093	2020-10-29T19:35:31:267
1,497539	0,081301	0,013538	2020-10-29T19:35:31:291
1,698535	-0,083804	-0,563132	2020-10-29T19:35:31:307
1,192845	-0,084956	0,005185	2020-10-29T19:35:31:331
0,278019	-0,979702	-0,441176	2020-10-29T19:35:31:346
-0,689154	-2,240190	-0,008674	2020-10-29T19:35:31:370
-0,488634	-3,921249	0,036749	2020-10-29T19:35:31:387
-1,026758	-0,538675	-0,088204	2020-10-29T19:35:31:411
-1,414394	-0,696601	-0,260487	2020-10-29T19:35:31:428
-1,787766	-0,725998	0,412560	2020-10-29T19:35:31:450
-0,791114	-0,533761	0,140395	2020-10-29T19:35:31:467
-0,214888	0,630202	-0,130339	2020-10-29T19:35:31:490
-0,843302	1,669050	0,295853	2020-10-29T19:35:31:507
-1,656019	2,578548	0,790625	2020-10-29T19:35:31:531
-2,224013	2,712894	1,218507	2020-10-29T19:35:31:547
-3,058213	2,746653	0,901255	2020-10-29T19:35:31:571
-3,902156	3,213067	0,524113	2020-10-29T19:35:31:587
-4,429852	4,962178	-0,042101	2020-10-29T19:35:31:611
-4,004573	5,526276	-0,252040	2020-10-29T19:35:31:627
-3,070846	4,708148	-0,129618	2020-10-29T19:35:31:650
-2,283768	4,839288	-0,314625	2020-10-29T19:35:31:667
-1,083203	6,532713	-1,587439	2020-10-29T19:35:31:691
-1,187018	5,215355	-0,348911	2020-10-29T19:35:31:707
-2,300199	3,196642	2,152729	2020-10-29T19:35:31:730
-2,847973	2,916968	0,822452	2020-10-29T19:35:31:746
-0,919843	-0,210706	0,060691	2020-10-29T19:35:31:771
-0,843271	0,700960	-0,288662	2020-10-29T19:35:31:787
-1,047169	1,052708	0,307643	2020-10-29T19:35:31:812
-1,684106	0,441357	0,494888	2020-10-29T19:35:31:827
-2,227493	-1,704450	2,429152	2020-10-29T19:35:31:852
-1,134321	-2,554396	3,157381	2020-10-29T19:35:31:867
-0,021209	-1,278347	0,763153	2020-10-29T19:35:31:890
-0,471610	-2,706493	0,873643	2020-10-29T19:35:31:907
0,008984	-1,234756	-1,572628	2020-10-29T19:35:31:931
-0,399066	0,154632	-1,570138	2020-10-29T19:35:31:947
0,192133	-0,066173	-1,505454	2020-10-29T19:35:31:970
0,302643	0,903458	-1,702473	2020-10-29T19:35:31:987
0,798221	1,365690	-1,955987	2020-10-29T19:35:32:011
0,969006	0,910451	-2,273202	2020-10-29T19:35:32:027
1,022143	1,210795	-2,469043	2020-10-29T19:35:32:051
1,209414	1,531014	-2,740325	2020-10-29T19:35:32:067
1,170464	1,484395	-2,991512	2020-10-29T19:35:32:092
-0,119549	0,816177	-2,955845	2020-10-29T19:35:32:108
-1,191732	-1,030527	-3,121874	2020-10-29T19:35:32:130
-1,137356	-1,283816	-3,323841	2020-10-29T19:35:32:147
-0,336738	-0,795441	-3,234113	2020-10-29T19:35:32:171
0,409197	-0,308528	-2,636154	2020-10-29T19:35:32:187
0,792376	0,292390	0,133149	2020-10-29T19:35:32:211
0,198956	0,134463	1,130956	2020-10-29T19:35:32:228
-0,220816	0,862190	0,649293	2020-10-29T19:35:32:251
-0,802738	1,962620	0,481834	2020-10-29T19:35:32:267
-1,873137	1,957942	-0,036223	2020-10-29T19:35:32:292
-3,049546	0,889710	0,652701	2020-10-29T19:35:32:307
-3,458938	0,825728	1,181468	2020-10-29T19:35:32:332
-4,034845	2,861882	1,304802	2020-10-29T19:35:32:348
-3,997970	4,428863	1,375428	2020-10-29T19:35:32:370
-4,966301	6,259441	3,633115	2020-10-29T19:35:32:388
-4,671252	7,899513	5,389044	2020-10-29T19:35:32:412
-3,448606	7,188388	4,055151	2020-10-29T19:35:32:428
-3,793400	5,839499	2,382975	2020-10-29T19:35:32:451
-2,624968	4,702525	0,835406	2020-10-29T19:35:32:468
-2,141003	5,215981	-0,387098	2020-10-29T19:35:32:491
-1,808388	6,338114	-1,945801	2020-10-29T19:35:32:508
-1,574205	6,674406	-2,026119	2020-10-29T19:35:32:532
-1,736481	7,151413	-1,595811	2020-10-29T19:35:32:548
-1,769737	6,759690	-1,101701	2020-10-29T19:35:32:572
-1,498222	6,183505	-0,957158	2020-10-29T19:35:32:588
-1,244143	5,274214	-0,961429	2020-10-29T19:35:32:611
-1,306046	3,663820	-0,376774	2020-10-29T19:35:32:628
-1,095166	2,350517	-0,975381	2020-10-29T19:35:32:651
-0,910875	2,815575	-1,495389	2020-10-29T19:35:32:668
-0,810740	3,637212	-2,228715	2020-10-29T19:35:32:691
-1,027058	4,521834	-2,851890	2020-10-29T19:35:32:708
-1,434984	4,483134	-3,129850	2020-10-29T19:35:32:732
-2,013835	3,644158	-2,677002	2020-10-29T19:35:32:749
-2,654235	2,747098	-2,620608	2020-10-29T19:35:32:772
-2,610807	2,905266	-2,933848	2020-10-29T19:35:32:788
-2,472303	3,803835	-2,176386	2020-10-29T19:35:32:812
-2,812814	4,597516	-1,627583	2020-10-29T19:35:32:828
-3,058896	4,693701	-1,118094	2020-10-29T19:35:32:852
-3,362097	4,832478	-0,963628	2020-10-29T19:35:32:868
-1,489885	-0,094767	0,005513	2020-10-29T19:35:32:893
-2,427872	-0,022982	0,208903	2020-10-29T19:35:32:908
-1,985498	-0,688807	1,281215	2020-10-29T19:35:32:931
-3,559772	3,318884	3,486144	2020-10-29T19:35:32:948
-3,464014	4,308049	4,091193	2020-10-29T19:35:32:972
-2,197757	6,892963	3,466697	2020-10-29T19:35:32:989
0,616840	0,004579	-0,103545	2020-10-29T19:35:33:014
0,755624	-1,246868	-0,921890	2020-10-29T19:35:33:028
-0,608575	-0,545446	-1,443622	2020-10-29T19:35:33:052
-1,652925	-2,004118	-0,971127	2020-10-29T19:35:33:070
-2,462008	-0,006503	-2,312763	2020-10-29T19:35:33:091
-1,436519	0,124579	-3,166167	2020-10-29T19:35:33:109
-0,666623	-0,518222	-2,709863	2020-10-29T19:35:33:132
-0,089248	-1,554229	-2,239497	2020-10-29T19:35:33:148
0,910168	-1,702290	-1,943604	2020-10-29T19:35:33:171
1,579089	-0,809981	-1,869936	2020-10-29T19:35:33:188
1,195804	-0,189314	-1,804330	2020-10-29T19:35:33:212
-1,209027	-0,625786	-1,233788	2020-10-29T19:35:33:229
-2,300755	-1,361072	-1,465438	2020-10-29T19:35:33:252
-2,694569	-1,705989	-1,701692	2020-10-29T19:35:33:268
-3,002755	-0,781096	-0,242719	2020-10-29T19:35:33:293
-2,598368	-0,939022	-0,276219	2020-10-29T19:35:33:309
-1,476705	-0,586572	0,013792	2020-10-29T19:35:33:331
-0,013267	-0,046070	-0,009815	2020-10-29T19:35:33:349
0,654330	0,786632	0,382608	2020-10-29T19:35:33:372
0,978500	0,426994	0,313886	2020-10-29T19:35:33:389
-1,516418	4,948183	0,260527	2020-10-29T19:35:33:412
-1,979219	5,141905	-0,135758	2020-10-29T19:35:33:429
-2,169039	5,378640	-0,530419	2020-10-29T19:35:33:452
-2,220676	5,453240	-0,814843	2020-10-29T19:35:33:469
-2,430742	5,572183	-0,612135	2020-10-29T19:35:33:493
-2,572742	5,735415	-0,246003	2020-10-29T19:35:33:509
-2,570638	6,043530	-0,109882	2020-10-29T19:35:33:533
-2,361903	6,179838	-0,046889	2020-10-29T19:35:33:549
-2,067621	6,131422	0,934337	2020-10-29T19:35:33:571
-1,539890	5,911251	2,320471	2020-10-29T19:35:33:589
-0,731188	5,973951	2,975844	2020-10-29T19:35:33:613
0,044990	6,111107	3,296924	2020-10-29T19:35:33:629
3,322927	0,791501	-1,274564	2020-10-29T19:35:33:653
2,547653	1,145639	-1,059210	2020-10-29T19:35:33:669
1,459193	0,592711	-1,200528	2020-10-29T19:35:33:693
0,188527	0,299255	-1,342224	2020-10-29T19:35:33:715
-0,780739	-0,363844	-1,426496	2020-10-29T19:35:33:735
-1,598513	-1,246459	-1,532208	2020-10-29T19:35:33:749
-2,199936	-2,536034	-1,429500	2020-10-29T19:35:33:773
-2,288973	-4,372879	-1,243156	2020-10-29T19:35:33:789
-2,324856	-6,103841	-0,528825	2020-10-29T19:35:33:815
-2,119913	-6,477128	-0,102793	2020-10-29T19:35:33:830
-1,885964	-1,068872	-0,028863	2020-10-29T19:35:33:854
-2,570312	1,300022	-1,067348	2020-10-29T19:35:33:869
-4,207040	0,420405	-0,188573	2020-10-29T19:35:33:892
-4,581818	-0,090859	-0,601788	2020-10-29T19:35:33:912
-3,563574	-2,043150	-0,998787	2020-10-29T19:35:33:933
-2,767839	-2,877566	-0,578972	2020-10-29T19:35:33:949
-0,928883	-3,325800	-0,184314	2020-10-29T19:35:33:973
1,124004	-3,664770	0,598397	2020-10-29T19:35:33:989
3,245121	-3,752107	0,635129	2020-10-29T19:35:34:014
4,675611	-3,824399	0,682459	2020-10-29T19:35:34:030
5,065928	-4,100317	0,429381	2020-10-29T19:35:34:052
4,038689	-4,494194	0,332173	2020-10-29T19:35:34:070
1,829171	-5,119671	0,572500	2020-10-29T19:35:34:094
0,016424	-5,615976	0,840407	2020-10-29T19:35:34:109
-0,404636	-5,923919	0,601166	2020-10-29T19:35:34:133
-0,311410	-5,818992	0,308145	2020-10-29T19:35:34:149
-0,842365	-4,991372	0,303036	2020-10-29T19:35:34:173
-1,342623	-4,088017	0,445881	2020-10-29T19:35:34:190
-1,270516	-2,869395	0,655590	2020-10-29T19:35:34:214
-1,114778	-1,541905	0,679326	2020-10-29T19:35:34:229
-0,421053	-0,375759	0,840019	2020-10-29T19:35:34:254
-0,067636	0,572822	0,750461	2020-10-29T19:35:34:270
0,046926	0,645295	0,570934	2020-10-29T19:35:34:293
0,008975	0,487498	0,447552	2020-10-29T19:35:34:310
-0,504657	0,418327	0,792050	2020-10-29T19:35:34:334
-1,444735	2,295064	2,041072	2020-10-29T19:35:34:350
-0,938147	0,108475	0,790299	2020-10-29T19:35:34:373
-1,546945	3,135108	0,493934	2020-10-29T19:35:34:389
-0,670980	0,058987	-0,034666	2020-10-29T19:35:34:415
-0,398198	0,458588	0,003619	2020-10-29T19:35:34:430
-0,388301	-0,540307	0,440508	2020-10-29T19:35:34:454
-0,635925	-1,722208	0,545637	2020-10-29T19:35:34:469
-0,444323	-1,924437	0,225908	2020-10-29T19:35:34:493
-0,142810	-2,161604	-0,250703	2020-10-29T19:35:34:510
-0,168700	-2,534912	-0,650997	2020-10-29T19:35:34:533
-0,486449	-3,224330	-0,904953	2020-10-29T19:35:34:550
-0,420382	-3,688485	-1,072343	2020-10-29T19:35:34:573
-0,209692	-3,559352	-1,401817	2020-10-29T19:35:34:590
-0,341163	-3,103642	-2,114134	2020-10-29T19:35:34:613
-1,326313	-2,900476	-2,007598	2020-10-29T19:35:34:630
-1,534422	-2,958541	-1,995606	2020-10-29T19:35:34:653
-1,046207	-2,769855	-1,812055	2020-10-29T19:35:34:670
-0,739605	-2,831545	-1,228209	2020-10-29T19:35:34:694
-0,044852	-2,583546	-0,402188	2020-10-29T19:35:34:710
1,388613	-2,286827	-0,056419	2020-10-29T19:35:34:734
2,040145	-1,840885	-0,026635	2020-10-29T19:35:34:750
1,559322	-2,111073	0,109561	2020-10-29T19:35:34:773
0,855632	-2,448438	0,226959	2020-10-29T19:35:34:790
0,940195	-2,552089	0,136049	2020-10-29T19:35:34:814
1,476694	-2,417000	-0,073147	2020-10-29T19:35:34:830
1,892090	-1,940595	-0,714612	2020-10-29T19:35:34:853
1,510987	-1,535273	-1,437671	2020-10-29T19:35:34:870
0,342220	-1,266738	-1,654446	2020-10-29T19:35:34:894
-1,049230	-1,224422	-1,943985	2020-10-29T19:35:34:911
-2,076047	-1,765109	-2,587469	2020-10-29T19:35:34:935
-2,658558	-1,821322	-3,293959	2020-10-29T19:35:34:950
-2,557924	-1,945957	-4,223134	2020-10-29T19:35:34:974
-2,349884	-2,057473	-4,764551	2020-10-29T19:35:34:991
-2,526351	-2,265633	3,236625	2020-10-29T19:35:35:013
-1,034939	-1,916317	2,776657	2020-10-29T19:35:35:031
0,271333	-1,321962	2,301096	2020-10-29T19:35:35:054
1,043043	-0,958548	2,072081	2020-10-29T19:35:35:070
1,345354	-0,571121	2,007445	2020-10-29T19:35:35:095
1,209793	-0,551197	1,886272	2020-10-29T19:35:35:111
1,176921	-0,449992	1,527104	2020-10-29T19:35:35:134
1,015552	-0,404990	1,186924	2020-10-29T19:35:35:151
0,480690	-0,554336	1,044656	2020-10-29T19:35:35:174
-0,272488	-0,994841	1,203985	2020-10-29T19:35:35:190
-0,490012	-1,829508	1,795514	2020-10-29T19:35:35:215
0,207619	-2,238534	1,642749	2020-10-29T19:35:35:231
-0,008587	-0,037363	-0,009104	2020-10-29T19:35:35:254
0,180447	0,740305	-0,090460	2020-10-29T19:35:35:271
0,679008	0,272217	0,061078	2020-10-29T19:35:35:294
0,525119	0,701733	0,294299	2020-10-29T19:35:35:311
-0,022670	1,086994	0,343077	2020-10-29T19:35:35:334
-0,421158	1,812071	0,158929	2020-10-29T19:35:35:351
-0,788256	2,567885	0,046524	2020-10-29T19:35:35:374
-1,188837	3,347423	0,035733	2020-10-29T19:35:35:391
0,218655	0,034322	0,004653	2020-10-29T19:35:35:415
-0,355623	0,213784	-0,050382	2020-10-29T19:35:35:430
-1,255990	0,053916	0,492520	2020-10-29T19:35:35:454
-3,236403	0,633774	1,782780	2020-10-29T19:35:35:471
-4,580991	1,663673	2,874458	2020-10-29T19:35:35:494
-4,332687	0,863776	3,462334	2020-10-29T19:35:35:511
-3,332173	-1,629819	3,071731	2020-10-29T19:35:35:535
-2,216471	-3,373845	2,108029	2020-10-29T19:35:35:551
-0,060660	-2,062508	0,438790	2020-10-29T19:35:35:574
1,369428	-0,210834	-0,456563	2020-10-29T19:35:35:591
1,728948	0,535723	-0,780019	2020-10-29T19:35:35:615
1,682954	0,632255	-0,747703	2020-10-29T19:35:35:632
1,575917	1,356597	-0,977167	2020-10-29T19:35:35:655
0,661179	2,882669	-1,504164	2020-10-29T19:35:35:671
-1,330312	4,555207	-2,205387	2020-10-29T19:35:35:695
-2,364094	4,050688	-2,458500	2020-10-29T19:35:35:711
-2,542538	3,122552	-2,673477	2020-10-29T19:35:35:734
-2,277315	2,072880	-2,905447	2020-10-29T19:35:35:751
-1,487947	-0,445372	-0,447332	2020-10-29T19:35:35:776
-1,456841	-0,818652	-0,019017	2020-10-29T19:35:35:791
-0,890403	-0,258736	0,215483	2020-10-29T19:35:35:814
-0,030297	0,222568	0,426067	2020-10-29T19:35:35:831
0,677712	0,801601	0,459801	2020-10-29T19:35:35:855
1,173824	1,286676	0,556022	2020-10-29T19:35:35:871
1,141840	1,477491	0,636970	2020-10-29T19:35:35:895
1,000154	1,453240	0,516932	2020-10-29T19:35:35:911
0,923506	1,470407	0,603688	2020-10-29T19:35:35:935
0,956767	1,365189	1,098346	2020-10-29T19:35:35:951
1,040410	1,259941	1,317822	2020-10-29T19:35:35:974
1,120780	1,484563	1,834281	2020-10-29T19:35:35:991
1,207886	1,379382	2,652833	2020-10-29T19:35:36:015
1,231928	1,475145	3,924010	2020-10-29T19:35:36:031
1,029594	1,421282	5,261527	2020-10-29T19:35:36:054
0,294702	0,980842	6,052428	2020-10-29T19:35:36:071
-0,710314	0,536958	6,317284	2020-10-29T19:35:36:095
-2,561184	-5,458676	9,277463	2020-10-29T19:35:36:112
-4,265262	-10,283229	8,602095	2020-10-29T19:35:36:135
-2,165491	-2,633564	7,125591	2020-10-29T19:35:36:152
-0,862416	3,226687	5,668001	2020-10-29T19:35:36:175
-0,509157	3,742518	4,059614	2020-10-29T19:35:36:191
-1,609351	2,687415	2,662718	2020-10-29T19:35:36:215
-4,752020	1,460049	2,133241	2020-10-29T19:35:36:232
-6,410630	1,375008	2,044602	2020-10-29T19:35:36:255
-4,242078	2,657925	1,346309	2020-10-29T19:35:36:271
-0,580870	-0,131995	-0,046769	2020-10-29T19:35:36:295
0,024514	-0,265994	-0,494227	2020-10-29T19:35:36:311
-0,716857	-0,693703	0,043198	2020-10-29T19:35:36:336
-1,424422	-0,826388	0,437300	2020-10-29T19:35:36:352
-1,136560	-0,289510	0,602149	2020-10-29T19:35:36:375
-0,206584	-0,142616	0,574117	2020-10-29T19:35:36:391
0,757869	-0,275450	0,615019	2020-10-29T19:35:36:416
1,661985	-0,181779	0,433762	2020-10-29T19:35:36:432
2,057649	0,132518	0,230771	2020-10-29T19:35:36:455
1,849631	0,483583	-0,074996	2020-10-29T19:35:36:472
0,900210	0,580572	-0,287320	2020-10-29T19:35:36:495
0,375522	-0,237299	-0,633074	2020-10-29T19:35:36:512
0,645510	-0,887193	-0,685826	2020-10-29T19:35:36:536
0,944823	-1,702142	-0,918376	2020-10-29T19:35:36:552
0,750041	-2,398363	-1,211715	2020-10-29T19:35:36:575
0,842430	-2,914373	-1,387410	2020-10-29T19:35:36:592
1,142014	-2,982209	-1,363874	2020-10-29T19:35:36:616
1,621772	-2,976857	-1,163328	2020-10-29T19:35:36:632
2,095979	-2,613881	-1,465989	2020-10-29T19:35:36:655
2,245145	-2,595104	-0,292124	2020-10-29T19:35:36:672
2,389550	-2,533666	0,953498	2020-10-29T19:35:36:695
2,728276	-2,469565	1,164806	2020-10-29T19:35:36:713
3,550420	-2,167740	0,726098	2020-10-29T19:35:36:735
4,216254	-1,258475	1,575129	2020-10-29T19:35:36:752
4,332646	-0,950455	2,504191	2020-10-29T19:35:36:775
3,563953	0,047245	3,226631	2020-10-29T19:35:36:792
2,846525	0,677047	2,661081	2020-10-29T19:35:36:816
2,227709	1,280756	2,474867	2020-10-29T19:35:36:834
1,157236	0,427941	-0,433738	2020-10-29T19:35:36:857
1,389338	0,057054	-0,249490	2020-10-29T19:35:36:871
2,565275	0,741384	-1,409399	2020-10-29T19:35:36:896
3,738473	0,621007	-2,824133	2020-10-29T19:35:36:912
3,809575	-0,167724	-2,844994	2020-10-29T19:35:36:935
2,503777	-0,249841	-2,353285	2020-10-29T19:35:36:952
1,050363	0,420995	-3,274756	2020-10-29T19:35:36:976
-0,076344	1,243845	-3,965360	2020-10-29T19:35:36:992
-0,967458	2,078106	-4,557642	2020-10-29T19:35:37:016
-1,838956	2,633798	-5,817023	2020-10-29T19:35:37:032
-2,316237	3,030936	-5,523173	2020-10-29T19:35:37:056
-2,837459	5,046183	-4,275144	2020-10-29T19:35:37:072
-1,789368	0,503675	-0,213703	2020-10-29T19:35:37:097
-3,100635	3,597594	-4,353286	2020-10-29T19:35:37:112
-7,324249	-10,031344	-6,006920	2020-10-29T19:35:37:136
-12,494601	-13,929633	-0,654818	2020-10-29T19:35:37:152
-8,528964	-6,111286	-3,374346	2020-10-29T19:35:37:175
-7,235376	-6,058304	-1,212350	2020-10-29T19:35:37:192
-6,562442	-2,600283	-3,300375	2020-10-29T19:35:37:217
-4,337116	-0,788916	-4,111542	2020-10-29T19:35:37:233
-2,347986	-0,587580	-0,977905	2020-10-29T19:35:37:256
-0,091555	-2,901440	1,575237	2020-10-29T19:35:37:272
0,073348	-0,269539	1,323890	2020-10-29T19:35:37:296
-0,248106	1,401793	1,851265	2020-10-29T19:35:37:313
-1,264092	2,012740	1,678030	2020-10-29T19:35:37:337
-1,693534	1,152513	1,226980	2020-10-29T19:35:37:352
-1,276244	0,994669	0,428811	2020-10-29T19:35:37:376
-1,007223	1,208415	-1,161168	2020-10-29T19:35:37:392
-0,601858	1,522198	-1,676162	2020-10-29T19:35:37:416
-0,366293	1,070281	-0,580614	2020-10-29T19:35:37:433
0,337900	1,192167	-0,104538	2020-10-29T19:35:37:456
0,865276	2,579845	-1,286485	2020-10-29T19:35:37:472
-0,007403	2,124462	-0,741402	2020-10-29T19:35:37:496
-0,580705	2,037807	0,271231	2020-10-29T19:35:37:513
-0,256671	2,220005	-1,146694	2020-10-29T19:35:37:537
-1,037588	1,061245	-1,704145	2020-10-29T19:35:37:553
-0,855741	-0,192794	-0,308700	2020-10-29T19:35:37:577
-0,707385	-0,168865	-0,933226	2020-10-29T19:35:37:593
-0,776237	0,714548	-0,997552	2020-10-29T19:35:37:617
-0,041146	-0,298454	0,361268	2020-10-29T19:35:37:633
-0,320659	-1,511170	1,775529	2020-10-29T19:35:37:655
-0,365341	-0,066073	0,228047	2020-10-29T19:35:37:673
-0,047716	0,492708	-1,030750	2020-10-29T19:35:37:696
-0,455399	-1,279443	1,000064	2020-10-29T19:35:37:713
-0,887819	-0,353294	0,505139	2020-10-29T19:35:37:736
0,083528	1,094525	-2,154452	2020-10-29T19:35:37:753
1,659058	1,328505	-2,864491	2020-10-29T19:35:37:776
0,557321	-2,027955	3,245957	2020-10-29T19:35:37:793
-0,791857	-1,034410	2,064075	2020-10-29T19:35:37:817
-0,370199	-0,052169	0,169261	2020-10-29T19:35:37:833
-0,329365	-0,331589	0,098094	2020-10-29T19:35:37:857
0,059131	-1,081319	2,089125	2020-10-29T19:35:37:873
0,484583	-2,802390	4,343554	2020-10-29T19:35:37:896
2,009212	-2,221202	16,324116	2020-10-29T19:35:37:913
4,403558	-6,599423	7,602334	2020-10-29T19:35:37:937
-3,819036	2,798905	-8,067015	2020-10-29T19:35:37:953
-4,864738	6,308794	-4,138806	2020-10-29T19:35:37:977
2,571155	-3,161247	0,297073	2020-10-29T19:35:37:993
-0,247028	-5,396556	0,459169	2020-10-29T19:35:38:017
-4,656311	8,319006	-1,302262	2020-10-29T19:35:38:033
-5,095051	2,402216	0,173942	2020-10-29T19:35:38:057
-6,936914	2,103830	4,072442	2020-10-29T19:35:38:073
-6,521030	2,804414	6,115993	2020-10-29T19:35:38:097
-6,294991	2,669502	6,980013	2020-10-29T19:35:38:114
-5,477269	2,517688	7,833774	2020-10-29T19:35:38:140
-4,774889	1,501606	8,070468	2020-10-29T19:35:38:153
-5,282501	0,829672	10,222967	2020-10-29T19:35:38:177
-5,693857	1,354068	11,122106	2020-10-29T19:35:38:193
-6,293449	1,741963	11,377062	2020-10-29T19:35:38:217
-6,564293	1,764276	8,675085	2020-10-29T19:35:38:234
-5,569739	0,560298	2,975049	2020-10-29T19:35:38:257
-5,545809	8,473288	7,231703	2020-10-29T19:35:38:273
-5,253067	11,007558	8,488894	2020-10-29T19:35:38:297
-5,224059	9,502814	5,352265	2020-10-29T19:35:38:314
-4,132432	7,973217	4,916302	2020-10-29T19:35:38:338
-2,200792	7,294634	5,288775	2020-10-29T19:35:38:353
0,244062	0,109860	-0,137805	2020-10-29T19:35:38:377
-1,344771	-1,249263	0,333580	2020-10-29T19:35:38:394
-1,183644	0,060428	-0,027657	2020-10-29T19:35:38:417
0,600065	1,663395	-1,197301	2020-10-29T19:35:38:434
2,005774	2,502359	-2,042960	2020-10-29T19:35:38:457
2,509994	2,535562	-3,814239	2020-10-29T19:35:38:474
2,878195	2,169549	-4,825338	2020-10-29T19:35:38:497
3,691760	2,312127	-5,258959	2020-10-29T19:35:38:515
4,443990	2,422182	-5,334347	2020-10-29T19:35:38:538
3,838106	1,080921	-5,669621	2020-10-29T19:35:38:553
3,072194	-1,971572	-5,637931	2020-10-29T19:35:38:577
3,428471	-4,347314	-5,113503	2020-10-29T19:35:38:594
4,207067	-6,050752	-4,344417	2020-10-29T19:35:38:617
5,123292	-6,910522	-4,760515	2020-10-29T19:35:38:636
-0,262342	-3,901339	0,568107	2020-10-29T19:35:38:658
-1,765035	-10,586885	0,917459	2020-10-29T19:35:38:673
1,095356	1,030134	1,202137	2020-10-29T19:35:38:697
3,090822	6,148984	1,448686	2020-10-29T19:35:38:714
3,076006	1,926315	1,515822	2020-10-29T19:35:38:738
2,384386	-2,638425	2,053638	2020-10-29T19:35:38:754
3,361628	-2,616801	2,895849	2020-10-29T19:35:38:778
4,384948	-0,736786	3,364608	2020-10-29T19:35:38:793
3,174918	-0,471758	3,791391	2020-10-29T19:35:38:818
2,245264	0,455593	5,605945	2020-10-29T19:35:38:834
2,178585	-4,511652	9,091625	2020-10-29T19:35:38:858
2,990679	-2,547382	8,165593	2020-10-29T19:35:38:874
2,524014	4,334403	8,188496	2020-10-29T19:35:38:898
0,424577	6,119792	7,227591	2020-10-29T19:35:38:914
-0,469255	4,476005	6,065976	2020-10-29T19:35:38:938
-0,516223	5,038938	5,218129	2020-10-29T19:35:38:954
-0,961776	6,421916	3,898397	2020-10-29T19:35:38:978
-1,600395	7,100179	2,868000	2020-10-29T19:35:38:994
-1,816503	6,200564	2,411257	2020-10-29T19:35:39:018
-1,687906	3,809230	2,147528	2020-10-29T19:35:39:034
-1,504201	2,351334	2,180851	2020-10-29T19:35:39:058
-1,518918	2,316454	1,995204	2020-10-29T19:35:39:074
-0,211828	-0,114612	0,307215	2020-10-29T19:35:39:099
0,123167	0,040922	-0,075636	2020-10-29T19:35:39:115
0,065748	-0,332246	-0,324784	2020-10-29T19:35:39:139
-0,059948	-0,017496	0,123634	2020-10-29T19:35:39:154
0,489970	-0,544414	-0,299656	2020-10-29T19:35:39:179
0,442369	-0,814089	-0,252800	2020-10-29T19:35:39:194
0,534977	0,231661	-0,287580	2020-10-29T19:35:39:219
0,494166	0,610056	-0,120952	2020-10-29T19:35:39:234
0,549630	0,373242	-0,124265	2020-10-29T19:35:39:259
0,595604	0,000009	-0,174385	2020-10-29T19:35:39:274
0,405573	-0,253382	-0,334353	2020-10-29T19:35:39:299
0,249950	-0,465387	-0,563924	2020-10-29T19:35:39:314
-0,010144	-0,437480	-0,232360	2020-10-29T19:35:39:338
-0,619418	-0,393286	0,003675	2020-10-29T19:35:39:354
-1,368931	-0,009257	0,193383	2020-10-29T19:35:39:379
-1,840680	0,763846	0,005731	2020-10-29T19:35:39:394
-1,722135	1,468997	-0,567751	2020-10-29T19:35:39:418
-1,170522	1,481236	-0,660226	2020-10-29T19:35:39:435
0,106603	0,027927	-0,133153	2020-10-29T19:35:39:459
0,192744	-0,108464	0,149199	2020-10-29T19:35:39:474
0,056701	0,013909	-0,043118	2020-10-29T19:35:39:501
0,769762	-0,945612	-0,076618	2020-10-29T19:35:39:514
0,221431	-0,026176	-0,167063	2020-10-29T19:35:39:539
0,153651	-0,069519	-0,066434	2020-10-29T19:35:39:554
0,195123	-0,006511	-0,197504	2020-10-29T19:35:39:577
0,113944	0,019901	-0,416987	2020-10-29T19:35:39:595
0,001087	-0,103516	-0,489772	2020-10-29T19:35:39:619
0,033230	-0,090772	-0,487873	2020-10-29T19:35:39:635
0,087937	-0,113684	-0,198241	2020-10-29T19:35:39:658
-0,005749	0,035808	-0,319293	2020-10-29T19:35:39:675
-0,158982	0,257289	-0,374593	2020-10-29T19:35:39:699
-0,386508	0,705057	-0,429608	2020-10-29T19:35:39:715
-0,976423	0,707910	-0,335906	2020-10-29T19:35:39:739
-0,768425	0,622323	-0,317374	2020-10-29T19:35:39:754
-0,327828	-0,246159	0,192277	2020-10-29T19:35:39:779
-0,160921	-0,327058	0,427567	2020-10-29T19:35:39:795
0,168252	-0,039829	0,336171	2020-10-29T19:35:39:818
-0,029315	0,251436	0,253455	2020-10-29T19:35:39:835
0,134151	0,411858	0,065964	2020-10-29T19:35:39:859
0,140438	0,481118	0,064228	2020-10-29T19:35:39:875
0,163453	0,055432	-0,151249	2020-10-29T19:35:39:899
0,101239	0,067395	-0,091428	2020-10-29T19:35:39:915
0,146813	-0,301417	-0,090685	2020-10-29T19:35:39:939
0,087037	-0,236314	-0,264617	2020-10-29T19:35:39:955
-0,009037	-0,194108	-0,269153	2020-10-29T19:35:39:979
-0,043382	-0,226255	-0,285953	2020-10-29T19:35:39:995
-0,079971	-0,224170	-0,267869	2020-10-29T19:35:40:019
-0,137704	-0,160207	-0,366547	2020-10-29T19:35:40:035
-0,218257	-0,025022	-0,182505	2020-10-29T19:35:40:058
-0,223963	-0,068036	-0,196176	2020-10-29T19:35:40:075
-0,168530	0,154855	-0,303282	2020-10-29T19:35:40:099
-0,007168	0,101408	-0,318505	2020-10-29T19:35:40:117
-0,034549	-0,140416	-0,222949	2020-10-29T19:35:40:139
-0,058014	-0,189784	-0,053298	2020-10-29T19:35:40:155
0,197796	-0,630453	-0,272017	2020-10-29T19:35:40:179
-0,080821	0,189588	-0,128345	2020-10-29T19:35:40:195
-0,045577	0,272536	-0,239946	2020-10-29T19:35:40:219
-0,102355	0,387407	-0,125849	2020-10-29T19:35:40:235
-0,203693	-0,025023	0,011051	2020-10-29T19:35:40:259
-0,383681	0,098150	0,161208	2020-10-29T19:35:40:275
-0,089391	-0,023885	0,074862	2020-10-29T19:35:40:299
0,068536	0,062256	0,048540	2020-10-29T19:35:40:315
0,167945	0,347659	-0,117385	2020-10-29T19:35:40:340
0,123549	0,174632	-0,139540	2020-10-29T19:35:40:355
0,058281	0,216701	-0,089023	2020-10-29T19:35:40:379
0,372554	-0,020450	0,377923	2020-10-29T19:35:40:395
0,532754	0,165101	-0,507007	2020-10-29T19:35:40:421
-0,122880	0,078960	0,002665	2020-10-29T19:35:40:436
0,038459	-0,426054	-0,120778	2020-10-29T19:35:40:459
-0,049592	0,400521	-0,171379	2020-10-29T19:35:40:475
-0,209753	0,188091	-0,358735	2020-10-29T19:35:40:499
-0,236875	0,333413	-0,624279	2020-10-29T19:35:40:516
-0,103541	0,520047	-0,637057	2020-10-29T19:35:40:539
-0,470779	0,273790	-0,729378	2020-10-29T19:35:40:555
-0,395172	0,189240	-0,165366	2020-10-29T19:35:40:579
0,208078	-0,212660	-0,226907	2020-10-29T19:35:40:595
0,200224	-0,238297	-0,122860	2020-10-29T19:35:40:619
-0,092769	-0,192134	0,020906	2020-10-29T19:35:40:636
-0,068091	-0,098188	-0,081771	2020-10-29T19:35:40:659
0,000178	0,062624	-0,211032	2020-10-29T19:35:40:676
0,100860	0,036310	-0,102631	2020-10-29T19:35:40:701
0,074538	0,062631	-0,030846	2020-10-29T19:35:40:716
0,075427	-0,127404	-0,012843	2020-10-29T19:35:40:740
0,123484	-0,164763	-0,053182	2020-10-29T19:35:40:756
0,155958	-0,204212	0,071229	2020-10-29T19:35:40:778
0,076437	-0,331375	0,164641	2020-10-29T19:35:40:796
-0,018174	-0,017095	0,012776	2020-10-29T19:35:40:821
0,020112	0,116903	-0,006367	2020-10-29T19:35:40:836
0,079713	-0,049188	-0,060448	2020-10-29T19:35:40:859
-0,000567	0,061663	0,017876	2020-10-29T19:35:40:876
0,001358	-0,019006	-0,068160	2020-10-29T19:35:40:900
0,074392	0,048990	-0,019590	2020-10-29T19:35:40:916
0,193468	-0,075346	0,006509	2020-10-29T19:35:40:941
0,107337	-0,103377	0,047274	2020-10-29T19:35:40:955
0,030266	0,071535	-0,013212	2020-10-29T19:35:40:980
0,126926	0,091950	0,020104	2020-10-29T19:35:40:996
0,092157	0,024237	-0,052141	2020-10-29T19:35:41:020
0,020372	0,084057	-0,013856	2020-10-29T19:35:41:037
0,113237	-0,047768	-0,012884	2020-10-29T19:35:41:061
0,178377	-0,214604	-0,121652	2020-10-29T19:35:41:076
0,088638	0,040342	-0,087996	2020-10-29T19:35:41:100
0,069496	0,054698	-0,099959	2020-10-29T19:35:41:116
0,169831	0,100173	-0,163387	2020-10-29T19:35:41:140
0,176978	-0,079446	-0,083048	2020-10-29T19:35:41:156
0,128313	0,033341	-0,126938	2020-10-29T19:35:41:180
0,078045	0,079110	-0,083181	2020-10-29T19:35:41:195
-0,008936	0,218594	-0,136813	2020-10-29T19:35:41:221
0,038014	0,115652	-0,024485	2020-10-29T19:35:41:236
0,050623	0,003980	-0,035701	2020-10-29T19:35:41:259
0,110298	0,030161	-0,088470	2020-10-29T19:35:41:277
0,232960	0,028884	-0,052236	2020-10-29T19:35:41:301
0,203844	-0,129881	0,245937	2020-10-29T19:35:41:316
-0,248497	-0,094493	0,248682	2020-10-29T19:35:41:341
-0,147998	0,156754	0,480786	2020-10-29T19:35:41:356
-0,088675	0,143722	0,257423	2020-10-29T19:35:41:380
-0,274706	0,637478	1,722938	2020-10-29T19:35:41:396
-1,389448	-0,373470	2,744642	2020-10-29T19:35:41:422
0,218529	0,990439	3,809450	2020-10-29T19:35:41:436
-0,110614	-0,191046	-0,129764	2020-10-29T19:35:41:461
3,226953	-0,037565	-1,465062	2020-10-29T19:35:41:476
2,095941	0,082996	-3,986170	2020-10-29T19:35:41:499
1,073963	0,108271	-4,795729	2020-10-29T19:35:41:517
0,379068	-1,522517	-5,214880	2020-10-29T19:35:41:541
0,073682	-3,901209	-4,479499	2020-10-29T19:35:41:556
-1,247078	-0,842258	0,355138	2020-10-29T19:35:41:580
-3,577688	-1,521819	1,606584	2020-10-29T19:35:41:597
-3,296447	0,622905	3,337160	2020-10-29T19:35:41:621
-0,966570	0,834244	4,833464	2020-10-29T19:35:41:637
-0,144431	3,369401	3,176033	2020-10-29T19:35:41:661
1,684449	3,994431	2,039251	2020-10-29T19:35:41:676
3,912203	4,347782	1,185664	2020-10-29T19:35:41:701
3,484235	2,924744	3,480224	2020-10-29T19:35:41:717
3,207974	1,316038	3,174471	2020-10-29T19:35:41:740
3,736283	1,205347	0,651084	2020-10-29T19:35:41:757
2,530209	2,221611	0,078504	2020-10-29T19:35:41:781
-0,655540	2,054204	1,348083	2020-10-29T19:35:41:797
-3,605149	-0,952990	1,160402	2020-10-29T19:35:41:821
-8,074944	0,284100	-1,306598	2020-10-29T19:35:41:837
-3,432138	-1,781036	4,377208	2020-10-29T19:35:41:861
-0,781421	-1,336609	3,042242	2020-10-29T19:35:41:877
-0,630371	-0,172318	0,182509	2020-10-29T19:35:41:902
-1,250112	-0,356565	-0,748299	2020-10-29T19:35:41:917
-0,578125	0,253286	-0,826086	2020-10-29T19:35:41:941
-0,824107	-0,483832	-1,109885	2020-10-29T19:35:41:957
-0,194607	-0,333907	-0,989927	2020-10-29T19:35:41:980
-0,455262	-0,931346	-0,411017	2020-10-29T19:35:41:997
0,111009	0,034816	0,007497	2020-10-29T19:35:42:022
-0,238343	-0,400677	-0,253321	2020-10-29T19:35:42:037
-0,787143	-0,207650	-0,047826	2020-10-29T19:35:42:061
-1,050354	0,268522	-0,368464	2020-10-29T19:35:42:077
-1,473077	-0,568292	0,066813	2020-10-29T19:35:42:101
-1,896706	-0,106141	0,639886	2020-10-29T19:35:42:117
-1,823132	0,698442	0,656131	2020-10-29T19:35:42:141
-1,905326	1,159799	0,946733	2020-10-29T19:35:42:157
-1,721073	1,821082	1,145584	2020-10-29T19:35:42:181
-1,003175	1,823761	2,123497	2020-10-29T19:35:42:197
-2,344805	-0,188261	0,123170	2020-10-29T19:35:42:222
-5,654079	-1,348780	2,860559	2020-10-29T19:35:42:238
-6,875730	-2,533387	1,116548	2020-10-29T19:35:42:261
-6,405326	-2,622357	-0,814052	2020-10-29T19:35:42:277
-5,102707	-1,647888	-4,665902	2020-10-29T19:35:42:301
-2,712767	1,142689	-10,821878	2020-10-29T19:35:42:318
-3,183304	0,666669	-3,371516	2020-10-29T19:35:42:343
-2,309924	0,460886	-2,146392	2020-10-29T19:35:42:358
-2,614199	-0,463259	-0,196926	2020-10-29T19:35:42:381
-3,621657	-1,205100	0,953268	2020-10-29T19:35:42:397
-3,557974	-1,278263	1,006354	2020-10-29T19:35:42:422
-2,684596	-2,110844	1,162803	2020-10-29T19:35:42:438
-2,293114	-2,921043	1,239292	2020-10-29T19:35:42:461
-2,206434	-3,057977	0,063780	2020-10-29T19:35:42:479
-2,011179	-1,762415	-0,511758	2020-10-29T19:35:42:502
-1,597180	-0,588111	-0,607201	2020-10-29T19:35:42:518
-1,165572	0,098630	-0,462179	2020-10-29T19:35:42:542
-0,804255	-0,356006	0,047493	2020-10-29T19:35:42:558
-0,248495	-0,398581	-0,277405	2020-10-29T19:35:42:582
0,594927	-0,365895	-1,038396	2020-10-29T19:35:42:598
1,040622	-0,426081	-1,270490	2020-10-29T19:35:42:623
1,226523	-0,708338	-1,316716	2020-10-29T19:35:42:638
1,534840	-0,947218	-1,307644	2020-10-29T19:35:42:662
1,817585	-1,245240	-1,043031	2020-10-29T19:35:42:678
1,706186	0,346048	0,508869	2020-10-29T19:35:42:702
1,900004	0,142658	0,824721	2020-10-29T19:35:42:719
2,290383	0,379871	0,650091	2020-10-29T19:35:42:743
2,585823	0,507174	0,957852	2020-10-29T19:35:42:758
2,955044	0,813297	1,144742	2020-10-29T19:35:42:781
3,170848	0,988896	1,181465	2020-10-29T19:35:42:798
3,263336	1,032514	1,152693	2020-10-29T19:35:42:822
3,338020	1,103628	1,040146	2020-10-29T19:35:42:839
3,338503	1,051397	0,861370	2020-10-29T19:35:42:863
3,107265	0,816492	0,730763	2020-10-29T19:35:42:878
2,952641	0,509896	0,328833	2020-10-29T19:35:42:902
2,803174	0,136565	0,029448	2020-10-29T19:35:42:918
0,936837	2,200519	2,398745	2020-10-29T19:35:42:941
0,530209	1,682585	2,499474	2020-10-29T19:35:42:959
-0,194080	1,285067	2,927606	2020-10-29T19:35:42:983
-0,950179	0,452243	3,537288	2020-10-29T19:35:42:999
-1,688835	-0,194240	4,559016	2020-10-29T19:35:43:022
-2,097467	-0,878702	5,415997	2020-10-29T19:35:43:039
-1,988816	-1,180194	5,623372	2020-10-29T19:35:43:062
-1,531343	-1,633642	6,050875	2020-10-29T19:35:43:078
-0,645099	-0,138203	0,118773	2020-10-29T19:35:43:104
-1,075806	0,371468	0,422661	2020-10-29T19:35:43:118
-1,125762	0,710496	-1,530336	2020-10-29T19:35:43:143
-1,153026	0,682362	-3,473723	2020-10-29T19:35:43:158
-1,581093	-0,407895	-4,026843	2020-10-29T19:35:43:181
-1,858077	-2,638994	-2,858521	2020-10-29T19:35:43:199
-4,022237	-0,798123	0,007124	2020-10-29T19:35:43:223
-3,220643	-2,164425	1,165250	2020-10-29T19:35:43:239
-1,582141	-0,984159	0,713950	2020-10-29T19:35:43:261
-1,772535	1,710567	0,863386	2020-10-29T19:35:43:278
-2,770101	3,124552	0,560839	2020-10-29T19:35:43:302
-2,955078	3,380885	0,488719	2020-10-29T19:35:43:319
-2,100211	3,175333	0,182098	2020-10-29T19:35:43:343
-1,297050	3,129573	-0,443954	2020-10-29T19:35:43:358
-1,705274	3,298311	-0,150852	2020-10-29T19:35:43:383
-2,498402	3,132637	0,237538	2020-10-29T19:35:43:399
-3,389892	2,724210	0,665583	2020-10-29T19:35:43:422
-4,447281	2,373154	1,088079	2020-10-29T19:35:43:439
-5,054310	2,542867	1,349638	2020-10-29T19:35:43:463
-4,933820	2,543242	0,751793	2020-10-29T19:35:43:478
-4,516187	2,275320	0,837524	2020-10-29T19:35:43:502
-4,350563	2,171080	0,613071	2020-10-29T19:35:43:519
-4,104756	2,425773	0,362695	2020-10-29T19:35:43:543
-3,643640	2,741155	-0,331917	2020-10-29T19:35:43:559
-3,105930	3,028940	-0,894240	2020-10-29T19:35:43:583
-3,412578	3,465801	-0,741714	2020-10-29T19:35:43:598
-3,796535	3,757235	-1,244898	2020-10-29T19:35:43:623
-3,359529	3,966791	-1,641207	2020-10-29T19:35:43:639
-2,196886	3,966051	-2,087927	2020-10-29T19:35:43:662
-1,763700	3,854876	-1,832546	2020-10-29T19:35:43:679
-2,279844	3,819539	-0,860963	2020-10-29T19:35:43:703
-2,306594	4,004138	-1,269104	2020-10-29T19:35:43:719
-1,694417	4,384334	-1,839060	2020-10-29T19:35:43:742
-1,109975	4,696339	-2,082124	2020-10-29T19:35:43:759
-0,983091	4,658559	-1,663301	2020-10-29T19:35:43:783
-1,175588	4,818155	-1,349084	2020-10-29T19:35:43:799
-1,383931	5,130586	-1,352258	2020-10-29T19:35:43:823
-1,229435	5,459755	-1,686883	2020-10-29T19:35:43:839
1,611983	0,228303	0,155736	2020-10-29T19:35:43:864
1,954157	0,276160	0,332805	2020-10-29T19:35:43:879
2,139640	0,109996	0,628661	2020-10-29T19:35:43:902
2,413196	0,145133	1,082446	2020-10-29T19:35:43:919
2,565965	0,570099	1,492507	2020-10-29T19:35:43:943
2,595203	0,531580	1,617316	2020-10-29T19:35:43:959
2,306230	0,181833	-0,284351	2020-10-29T19:35:43:983
1,978414	0,107656	-0,779666	2020-10-29T19:35:43:999
1,383809	0,075171	-0,407817	2020-10-29T19:35:44:023
0,333786	-0,516481	-0,446049	2020-10-29T19:35:44:039
-1,107480	-1,181356	0,098780	2020-10-29T19:35:44:066
-2,407057	-0,278309	0,015033	2020-10-29T19:35:44:079
-4,192102	-0,364450	-0,638207	2020-10-29T19:35:44:105
-7,518007	-1,977159	-0,322124	2020-10-29T19:35:44:120
-6,123853	-3,352453	-0,462660	2020-10-29T19:35:44:142
-3,989240	-5,558465	0,326204	2020-10-29T19:35:44:159
-2,754923	-7,297681	1,294401	2020-10-29T19:35:44:184
-0,708056	-6,659063	1,404241	2020-10-29T19:35:44:199
1,721598	-4,938452	0,423980	2020-10-29T19:35:44:223
3,141045	-3,750391	-0,121958	2020-10-29T19:35:44:240
2,239749	-3,456352	0,414546	2020-10-29T19:35:44:263
0,162137	-3,123138	0,607914	2020-10-29T19:35:44:279
-0,830775	-3,268604	0,155051	2020-10-29T19:35:44:303
-0,383052	-3,053224	-0,032014	2020-10-29T19:35:44:320
0,155021	-3,168428	0,483556	2020-10-29T19:35:44:344
-0,195465	-3,772895	1,007261	2020-10-29T19:35:44:360
-0,728323	-4,822528	0,751882	2020-10-29T19:35:44:383
-0,591980	-5,837838	0,359584	2020-10-29T19:35:44:400
-0,592426	-5,975926	0,199804	2020-10-29T19:35:44:425
-1,057746	-5,270706	0,128335	2020-10-29T19:35:44:440
-1,486020	-4,288771	-0,264292	2020-10-29T19:35:44:463
-1,065856	-3,673002	-0,044445	2020-10-29T19:35:44:479
-0,243439	-3,805688	0,380634	2020-10-29T19:35:44:504
0,142962	-3,864140	0,912530	2020-10-29T19:35:44:522
-1,862624	0,283323	1,942520	2020-10-29T19:35:44:545
-2,052241	1,179641	2,310995	2020-10-29T19:35:44:560
-1,951535	2,763788	2,563637	2020-10-29T19:35:44:584
-2,034972	3,911037	2,595870	2020-10-29T19:35:44:600
-1,949317	4,643831	2,454921	2020-10-29T19:35:44:623
-1,483393	5,052480	2,583375	2020-10-29T19:35:44:640
0,265654	4,400052	2,466309	2020-10-29T19:35:44:664
1,213232	3,058157	2,276008	2020-10-29T19:35:44:680
1,221836	2,381200	1,912752	2020-10-29T19:35:44:703
1,015517	2,425853	1,606527	2020-10-29T19:35:44:720
1,085148	2,672078	0,591887	2020-10-29T19:35:44:744
0,752786	3,289864	-0,025627	2020-10-29T19:35:44:760
-6,094196	7,907654	-1,183826	2020-10-29T19:35:44:784
-7,171160	8,061664	-1,577159	2020-10-29T19:35:44:800
-7,834035	7,435604	-1,748871	2020-10-29T19:35:44:824
-7,943564	6,664495	-1,393071	2020-10-29T19:35:44:840
-7,321914	5,553595	-0,772307	2020-10-29T19:35:44:863
-6,469279	4,525672	-0,299239	2020-10-29T19:35:44:881
-5,645341	3,752414	-0,000022	2020-10-29T19:35:44:905
-5,270373	3,205422	-0,406694	2020-10-29T19:35:44:920
-5,072601	2,929555	-0,974684	2020-10-29T19:35:44:944
-4,887971	2,855697	-1,285764	2020-10-29T19:35:44:960
-4,565209	3,255858	-1,257232	2020-10-29T19:35:44:984
-4,013384	4,260928	-1,435801	2020-10-29T19:35:45:001
-3,382553	5,459934	-1,533173	2020-10-29T19:35:45:025
-3,100693	6,053737	-1,248765	2020-10-29T19:35:45:040
-2,445750	5,437743	-0,778630	2020-10-29T19:35:45:065
-1,337124	4,430439	0,014621	2020-10-29T19:35:45:080
-0,362781	3,255717	0,967513	2020-10-29T19:35:45:103
-0,764808	2,969872	1,230114	2020-10-29T19:35:45:121
-1,470797	2,865254	0,903465	2020-10-29T19:35:45:145
-1,166645	2,737064	0,586311	2020-10-29T19:35:45:161
0,539102	-0,024985	-0,007339	2020-10-29T19:35:45:185
0,917167	0,087478	0,389870	2020-10-29T19:35:45:201
-0,210836	0,527173	0,235819	2020-10-29T19:35:45:225
-0,560153	0,656542	0,229489	2020-10-29T19:35:45:241
-0,381944	0,766270	0,168680	2020-10-29T19:35:45:265
-0,479777	0,862378	0,122313	2020-10-29T19:35:45:280
-1,085763	1,187071	-0,082317	2020-10-29T19:35:45:305
-1,275661	1,612170	-0,335090	2020-10-29T19:35:45:321
-1,286436	1,806017	-0,973023	2020-10-29T19:35:45:344
-1,476996	2,198588	-1,595397	2020-10-29T19:35:45:361
-2,280906	3,403932	-1,338832	2020-10-29T19:35:45:385
-2,540121	3,729160	-1,413119	2020-10-29T19:35:45:401
-2,449812	3,265385	-1,215887	2020-10-29T19:35:45:424
-1,524905	2,200733	-1,597675	2020-10-29T19:35:45:441
-1,252534	1,894965	-2,030576	2020-10-29T19:35:45:465
-1,730940	1,183834	-2,648996	2020-10-29T19:35:45:481
-3,379378	-0,629229	-0,836739	2020-10-29T19:35:45:506
-3,623446	-1,275292	-1,133449	2020-10-29T19:35:45:521
-1,894780	-1,193617	-1,074895	2020-10-29T19:35:45:546
-0,108302	-1,988504	-0,600740	2020-10-29T19:35:45:561
1,202307	-2,397870	0,536936	2020-10-29T19:35:45:584
2,782584	-2,490477	1,141639	2020-10-29T19:35:45:601
3,792961	-1,906360	1,114812	2020-10-29T19:35:45:625
3,064592	-1,149040	1,204467	2020-10-29T19:35:45:641
0,894239	-0,624591	1,518838	2020-10-29T19:35:45:664
-0,491246	-0,717647	1,131296	2020-10-29T19:35:45:681
0,176368	-0,993644	0,631743	2020-10-29T19:35:45:705
0,540216	-1,130624	0,507480	2020-10-29T19:35:45:721
-0,100412	-0,832251	0,307689	2020-10-29T19:35:45:746
-0,106460	-0,680847	0,742489	2020-10-29T19:35:45:761
0,854143	-0,775235	2,056398	2020-10-29T19:35:45:785
1,926431	-1,226852	4,309309	2020-10-29T19:35:45:801
2,364533	-1,848615	5,133979	2020-10-29T19:35:45:824
1,994686	-1,967115	5,176363	2020-10-29T19:35:45:841
0,521292	-2,063367	4,703150	2020-10-29T19:35:45:865
-0,562277	-1,999811	3,964397	2020-10-29T19:35:45:881
-0,583989	-2,160534	3,292819	2020-10-29T19:35:45:905
-0,432656	-2,520424	3,149635	2020-10-29T19:35:45:922
-0,659748	-3,000891	3,404574	2020-10-29T19:35:45:946
-0,660350	-3,118170	3,869917	2020-10-29T19:35:45:962
-0,224877	-2,568116	4,029374	2020-10-29T19:35:45:985
0,105564	-1,948428	4,078346	2020-10-29T19:35:46:001
-0,225338	-1,741418	3,814486	2020-10-29T19:35:46:026
-1,072044	-1,926170	3,741388	2020-10-29T19:35:46:042
-1,508363	-2,370880	3,885470	2020-10-29T19:35:46:065
-1,601873	-2,983434	3,278988	2020-10-29T19:35:46:081
-3,098278	-3,632913	3,286864	2020-10-29T19:35:46:105
-4,128086	-3,498297	3,519836	2020-10-29T19:35:46:123
-3,330721	-3,435957	3,022270	2020-10-29T19:35:46:145
-2,469500	-3,044055	2,874770	2020-10-29T19:35:46:161
-1,031955	-2,256396	2,364306	2020-10-29T19:35:46:186
0,417717	-1,619431	1,668560	2020-10-29T19:35:46:202
0,926619	-0,795647	1,382336	2020-10-29T19:35:46:228
0,654922	-0,393184	0,902112	2020-10-29T19:35:46:241
0,438828	0,313928	-0,116961	2020-10-29T19:35:46:266
0,261325	0,591790	-1,902942	2020-10-29T19:35:46:281
-0,903373	0,205991	-3,069042	2020-10-29T19:35:46:304
-3,833642	3,439206	-2,412485	2020-10-29T19:35:46:322
-4,941981	3,456414	-1,909894	2020-10-29T19:35:46:346
-4,561922	3,484720	-1,748622	2020-10-29T19:35:46:361
-3,962534	3,664352	-1,839108	2020-10-29T19:35:46:385
-3,397942	4,065053	-1,607039	2020-10-29T19:35:46:402
-2,842421	4,471326	-1,243661	2020-10-29T19:35:46:426
-2,278024	4,780987	-0,849561	2020-10-29T19:35:46:442
-2,009448	5,161647	-0,770482	2020-10-29T19:35:46:466
1,274122	1,032191	-1,875860	2020-10-29T19:35:46:481
1,045411	0,973222	-1,817257	2020-10-29T19:35:46:506
0,963575	0,788195	-1,358020	2020-10-29T19:35:46:522
0,959946	0,377230	-1,010461	2020-10-29T19:35:46:545
0,779780	-0,049243	-0,737120	2020-10-29T19:35:46:562
0,443259	-0,240889	-0,778264	2020-10-29T19:35:46:586
-0,252540	-0,161374	-0,223265	2020-10-29T19:35:46:602
-0,579876	0,148078	0,878625	2020-10-29T19:35:46:625
-0,464223	0,419345	1,561293	2020-10-29T19:35:46:642
-0,141940	0,768946	1,812773	2020-10-29T19:35:46:666
0,164453	1,080612	2,139624	2020-10-29T19:35:46:682
0,067024	1,166515	2,686491	2020-10-29T19:35:46:706
-0,583035	1,043267	3,013159	2020-10-29T19:35:46:722
-1,246233	1,065699	2,846173	2020-10-29T19:35:46:747
-1,718216	0,996198	2,481139	2020-10-29T19:35:46:762
-2,132973	1,368155	2,370057	2020-10-29T19:35:46:785
-2,378750	1,527925	2,169391	2020-10-29T19:35:46:802
-2,259959	1,876621	2,363615	2020-10-29T19:35:46:827
-2,405385	2,655218	1,883379	2020-10-29T19:35:46:843
-3,538361	3,209906	1,480065	2020-10-29T19:35:46:866
-4,588944	3,510631	1,468778	2020-10-29T19:35:46:882
-4,393329	3,316417	1,297473	2020-10-29T19:35:46:906
-3,434202	3,041150	1,436720	2020-10-29T19:35:46:923
-2,771191	3,141091	1,696741	2020-10-29T19:35:46:947
-2,321465	3,721352	1,633447	2020-10-29T19:35:46:962
-1,833965	4,264102	1,171264	2020-10-29T19:35:46:987
-1,468989	4,780321	0,472684	2020-10-29T19:35:47:003
-1,676103	5,150706	-0,231526	2020-10-29T19:35:47:026
-2,404038	5,176863	-0,706558	2020-10-29T19:35:47:043
-3,947995	4,972594	-0,191552	2020-10-29T19:35:47:067
-5,353462	4,567204	-0,238810	2020-10-29T19:35:47:082
-5,589993	4,280001	-0,430148	2020-10-29T19:35:47:105
-4,966856	4,004879	-0,923926	2020-10-29T19:35:47:123
-3,756391	3,170510	-0,764292	2020-10-29T19:35:47:147
-2,913290	1,713480	0,035055	2020-10-29T19:35:47:163
-2,028284	1,012499	0,355368	2020-10-29T19:35:47:187
-0,793209	1,199334	0,347523	2020-10-29T19:35:47:202
0,414106	1,247395	0,535834	2020-10-29T19:35:47:227
1,215769	0,521037	0,799562	2020-10-29T19:35:47:243
1,366291	-0,303774	1,541987	2020-10-29T19:35:47:266
1,018696	-1,234650	1,425193	2020-10-29T19:35:47:282
-0,370572	-0,214588	0,010557	2020-10-29T19:35:47:308
-0,478249	-1,286572	-1,037499	2020-10-29T19:35:47:323
-0,323759	-1,303969	-0,581957	2020-10-29T19:35:47:346
-0,002779	-1,315537	-0,616013	2020-10-29T19:35:47:363
-0,386857	-0,310405	-0,071970	2020-10-29T19:35:47:387
-1,126239	-0,114193	0,136205	2020-10-29T19:35:47:403
-1,039997	-0,735484	-0,115049	2020-10-29T19:35:47:428
-1,157246	-0,713949	-0,081549	2020-10-29T19:35:47:442
-1,475088	-0,488706	-0,889590	2020-10-29T19:35:47:466
-4,334312	-0,239853	-0,904527	2020-10-29T19:35:47:483
-6,497131	0,032105	-0,879860	2020-10-29T19:35:47:505
-6,175376	1,188669	-1,264564	2020-10-29T19:35:47:523
-6,317968	2,751146	-1,805856	2020-10-29T19:35:47:547
-6,964624	5,671651	-0,832551	2020-10-29T19:35:47:563
-6,577114	7,257964	-1,318888	2020-10-29T19:35:47:586
-5,881559	6,579654	-1,043495	2020-10-29T19:35:47:603
-4,778255	5,556640	-0,434478	2020-10-29T19:35:47:627
-3,488842	5,663325	-1,033610	2020-10-29T19:35:47:643
2,452722	0,698377	0,061407	2020-10-29T19:35:47:669
1,938265	1,112336	-0,237696	2020-10-29T19:35:47:682
0,920248	0,402469	0,350594	2020-10-29T19:35:47:707
0,079326	0,612840	-0,332432	2020-10-29T19:35:47:723
-0,312757	1,643797	-0,612604	2020-10-29T19:35:47:746
-0,437088	1,646583	-1,182359	2020-10-29T19:35:47:763
-0,029659	0,659338	-1,210271	2020-10-29T19:35:47:787
0,472557	0,749596	-1,184759	2020-10-29T19:35:47:804
0,583471	1,144743	-1,285728	2020-10-29T19:35:47:826
-0,069288	0,660186	-1,237829	2020-10-29T19:35:47:844
-0,714465	-0,009020	-0,734918	2020-10-29T19:35:47:867
-0,589932	0,047815	-0,333352	2020-10-29T19:35:47:885
0,398332	0,098727	0,042360	2020-10-29T19:35:47:908
0,584972	0,079585	0,205072	2020-10-29T19:35:47:925
0,249522	-0,029098	0,453043	2020-10-29T19:35:47:947
-0,249177	-0,108068	0,736978	2020-10-29T19:35:47:964
-0,588766	0,296247	0,412248	2020-10-29T19:35:47:987
-0,232690	0,194774	0,710991	2020-10-29T19:35:48:005
0,302306	0,604918	1,166106	2020-10-29T19:35:48:027
0,015852	0,758980	0,571018	2020-10-29T19:35:48:043
-0,502000	-0,058639	-0,007874	2020-10-29T19:35:48:066
-0,080863	-0,125638	0,544868	2020-10-29T19:35:48:083
0,385487	0,165493	0,459268	2020-10-29T19:35:48:106
0,467726	-0,252870	0,281391	2020-10-29T19:35:48:123
0,097516	-0,704940	0,100084	2020-10-29T19:35:48:150
-0,741469	0,360716	0,012440	2020-10-29T19:35:48:163
-1,347276	-0,783397	1,213244	2020-10-29T19:35:48:187
-2,037393	-5,894772	2,320104	2020-10-29T19:35:48:204
-2,262459	-9,012215	3,093790	2020-10-29T19:35:48:226
-0,964111	-3,477756	3,233936	2020-10-29T19:35:48:243
0,888798	-0,462805	1,664928	2020-10-29T19:35:48:267
1,876162	-0,831923	0,855751	2020-10-29T19:35:48:283
1,868346	-1,781362	0,711057	2020-10-29T19:35:48:306
1,429409	-1,374685	1,136734	2020-10-29T19:35:48:323
1,134232	0,168195	0,655975	2020-10-29T19:35:48:347
0,949398	1,763858	-0,071215	2020-10-29T19:35:48:363
1,338319	0,268685	0,092398	2020-10-29T19:35:48:389
1,491460	-0,312771	-0,319167	2020-10-29T19:35:48:403
0,867167	0,125253	-0,520338	2020-10-29T19:35:48:427
-1,781900	-0,535501	-1,318096	2020-10-29T19:35:48:443
-3,811560	-1,706519	-1,181677	2020-10-29T19:35:48:466
-3,051093	-2,431346	-0,875181	2020-10-29T19:35:48:484
-0,658337	-2,761003	-0,159388	2020-10-29T19:35:48:507
0,891338	-2,353590	0,485899	2020-10-29T19:35:48:523
1,331241	-1,746137	0,998752	2020-10-29T19:35:48:547
1,348053	-1,180677	1,363700	2020-10-29T19:35:48:563
1,313624	-1,013038	1,590128	2020-10-29T19:35:48:587
1,183784	-0,842244	1,739928	2020-10-29T19:35:48:604
0,801038	-1,037455	1,770647	2020-10-29T19:35:48:628
0,435756	-1,334843	1,567618	2020-10-29T19:35:48:644
-0,122477	-1,730203	0,969693	2020-10-29T19:35:48:667
-0,869046	-2,036331	1,039869	2020-10-29T19:35:48:683
-1,876817	-1,740937	0,994548	2020-10-29T19:35:48:706
-2,826211	-1,265437	0,977285	2020-10-29T19:35:48:724
-3,320499	-0,090389	1,071322	2020-10-29T19:35:48:748
-3,077916	1,152905	1,304199	2020-10-29T19:35:48:764
-1,639775	-0,238174	0,038803	2020-10-29T19:35:48:787
-0,704180	0,113571	-0,025803	2020-10-29T19:35:48:804
0,182789	-0,169764	-0,399259	2020-10-29T19:35:48:827
0,634329	-0,304415	-0,736470	2020-10-29T19:35:48:844
0,948052	-0,079535	-0,874986	2020-10-29T19:35:48:867
1,202094	-0,011533	-1,086314	2020-10-29T19:35:48:883
1,475339	-0,423765	-1,047668	2020-10-29T19:35:48:908
1,623834	-1,131654	-1,444470	2020-10-29T19:35:48:924
-0,575557	1,844302	-2,722879	2020-10-29T19:35:48:947
-1,989531	1,602017	-3,223922	2020-10-29T19:35:48:964
-3,232690	1,733657	-3,481717	2020-10-29T19:35:48:987
-3,830455	2,357948	-3,757198	2020-10-29T19:35:49:004
-4,222488	2,864494	-4,360806	2020-10-29T19:35:49:027
-4,768296	3,197671	-4,697620	2020-10-29T19:35:49:044
-4,477648	3,199219	-4,717649	2020-10-29T19:35:49:068
-3,441359	3,648462	-4,878723	2020-10-29T19:35:49:084
-2,525086	3,924498	-4,858212	2020-10-29T19:35:49:109
-2,232325	4,193769	-4,738367	2020-10-29T19:35:49:124
-2,319680	4,463793	-4,553449	2020-10-29T19:35:49:148
-2,722793	4,067370	-4,258871	2020-10-29T19:35:49:164
-2,906981	4,063072	-4,379621	2020-10-29T19:35:49:187
-2,839218	4,274547	-4,778254	2020-10-29T19:35:49:204
1,371351	0,755505	0,448559	2020-10-29T19:35:49:229
1,687203	0,982823	0,278668	2020-10-29T19:35:49:244
1,696693	0,885586	0,685867	2020-10-29T19:35:49:267
1,507660	0,852087	0,377193	2020-10-29T19:35:49:284
0,925210	0,312290	0,756843	2020-10-29T19:35:49:308
0,321373	-0,169753	0,940571	2020-10-29T19:35:49:324
-0,143392	-0,080255	-0,045485	2020-10-29T19:35:49:349
-0,605207	-0,475071	0,148334	2020-10-29T19:35:49:363
-0,709246	-0,461569	-0,198079	2020-10-29T19:35:49:389
-0,778637	-0,255786	0,022061	2020-10-29T19:35:49:404
-0,784272	-0,204813	-0,132188	2020-10-29T19:35:49:427
-1,444414	0,427423	-0,117350	2020-10-29T19:35:49:445
-2,280690	0,808465	0,105487	2020-10-29T19:35:49:469
-2,933826	1,238053	0,429060	2020-10-29T19:35:49:484
-3,023271	1,484800	0,483163	2020-10-29T19:35:49:507
-3,068501	2,048914	0,832204	2020-10-29T19:35:49:525
-3,656001	2,317846	2,621753	2020-10-29T19:35:49:549
-3,196415	2,090202	2,382535	2020-10-29T19:35:49:565
-2,508066	2,301664	1,386603	2020-10-29T19:35:49:588
-2,310652	3,203396	0,555223	2020-10-29T19:35:49:604
-2,375201	4,185021	-0,142598	2020-10-29T19:35:49:629
-2,393060	4,202125	-0,185645	2020-10-29T19:35:49:645
-2,306357	3,800901	0,031693	2020-10-29T19:35:49:668
-2,123229	3,649385	-0,061682	2020-10-29T19:35:49:685
-2,058277	3,694155	-0,216309	2020-10-29T19:35:49:709
-2,150727	3,561580	-0,274082	2020-10-29T19:35:49:725
-2,165039	3,245325	-0,094691	2020-10-29T19:35:49:748
-1,989504	2,889251	-0,213924	2020-10-29T19:35:49:765
-1,827644	2,593161	-0,464449	2020-10-29T19:35:49:789
-1,929874	2,301282	-0,484367	2020-10-29T19:35:49:805
-1,981704	2,278432	-0,145243	2020-10-29T19:35:49:829
-1,750673	2,087974	0,064898	2020-10-29T19:35:49:845
-1,424545	2,097923	0,160478	2020-10-29T19:35:49:869
-1,176295	2,501604	-0,044821	2020-10-29T19:35:49:885
-1,596014	3,045336	-0,814751	2020-10-29T19:35:49:908
-2,784754	3,484435	-0,890310	2020-10-29T19:35:49:925
-2,919272	3,574822	-0,698752	2020-10-29T19:35:49:949
-1,718942	3,707387	-0,915784	2020-10-29T19:35:49:965
-1,046557	3,874416	-0,806475	2020-10-29T19:35:49:988
-0,998327	4,073013	-0,679169	2020-10-29T19:35:50:005
-0,966686	4,074099	-0,406336	2020-10-29T19:35:50:029
-0,815726	3,899008	-0,448190	2020-10-29T19:35:50:046
-0,881720	3,602515	-0,191022	2020-10-29T19:35:50:069
-1,313680	3,283917	0,085812	2020-10-29T19:35:50:085
-1,767248	2,961274	0,231872	2020-10-29T19:35:50:109
-1,966624	2,624921	0,390486	2020-10-29T19:35:50:125
-2,309511	2,061487	0,607057	2020-10-29T19:35:50:148
-2,743523	1,864043	0,865157	2020-10-29T19:35:50:165
-2,598305	2,104500	1,042262	2020-10-29T19:35:50:189
-1,996750	2,922881	0,198886	2020-10-29T19:35:50:205
-2,985439	4,590509	2,818004	2020-10-29T19:35:50:228
-4,624039	5,286911	5,079021	2020-10-29T19:35:50:246
-4,342213	4,712788	4,865717	2020-10-29T19:35:50:269
-3,720881	4,786952	4,259776	2020-10-29T19:35:50:286
-0,477828	-0,085794	0,160402	2020-10-29T19:35:50:310
-0,360579	0,521983	-1,052759	2020-10-29T19:35:50:325
0,330981	-0,137384	-1,091736	2020-10-29T19:35:50:350
1,013697	-0,272212	-1,871558	2020-10-29T19:35:50:365
1,731188	-0,244249	-2,202706	2020-10-29T19:35:50:388
2,097210	-0,276350	-2,409389	2020-10-29T19:35:50:405
2,104008	-0,419316	-2,386835	2020-10-29T19:35:50:429
1,997039	-0,642373	-2,366833	2020-10-29T19:35:50:445
2,044570	-0,621573	-2,116427	2020-10-29T19:35:50:468
1,795087	-0,540593	-1,929417	2020-10-29T19:35:50:485
1,448834	-0,710585	-1,683421	2020-10-29T19:35:50:509
0,911961	-1,067485	-1,338944	2020-10-29T19:35:50:526
0,416656	-1,325056	-0,983522	2020-10-29T19:35:50:551
0,130658	-1,718255	-0,802240	2020-10-29T19:35:50:565
-0,147562	-2,091652	-0,495424	2020-10-29T19:35:50:589
-0,507853	-2,591262	-0,202488	2020-10-29T19:35:50:606
-0,767564	-2,892084	0,132865	2020-10-29T19:35:50:629
-1,253284	-2,733198	1,149950	2020-10-29T19:35:50:646
-1,304229	-2,595143	1,431013	2020-10-29T19:35:50:670
-1,156398	-3,571522	1,937011	2020-10-29T19:35:50:685
-1,228484	-3,746392	2,331379	2020-10-29T19:35:50:708
-2,787933	-3,360761	2,465965	2020-10-29T19:35:50:726
-3,837010	-3,416897	2,654227	2020-10-29T19:35:50:750
-2,652757	-3,584544	2,229636	2020-10-29T19:35:50:766
-0,801436	-3,956395	1,504514	2020-10-29T19:35:50:790
0,188638	-3,711949	0,955788	2020-10-29T19:35:50:805
0,613422	-2,810246	0,496199	2020-10-29T19:35:50:830
0,476438	-1,511935	0,108427	2020-10-29T19:35:50:846
0,111547	-0,588568	-0,257757	2020-10-29T19:35:50:868
-0,044668	-0,355059	-0,701038	2020-10-29T19:35:50:886
-0,410054	-0,218989	-0,617221	2020-10-29T19:35:50:909
-0,615282	-0,464993	-0,788506	2020-10-29T19:35:50:926
-0,122704	-0,682710	-0,949295	2020-10-29T19:35:50:949
0,349121	-0,642515	-1,527453	2020-10-29T19:35:50:966
-0,006688	-1,017005	-1,825828	2020-10-29T19:35:50:989
-0,849885	-0,910825	-2,351532	2020-10-29T19:35:51:006
-1,957129	-0,387291	-0,421820	2020-10-29T19:35:51:031
-2,107877	-0,593073	-0,610853	2020-10-29T19:35:51:047
-1,943191	-0,677118	-0,398773	2020-10-29T19:35:51:070
-1,544727	-0,727621	-0,154983	2020-10-29T19:35:51:086
-1,118405	-0,540528	0,141213	2020-10-29T19:35:51:109
-0,417391	-0,140375	0,429262	2020-10-29T19:35:51:126
0,302438	0,411369	0,601167	2020-10-29T19:35:51:150
0,807459	1,070212	0,782092	2020-10-29T19:35:51:166
1,186937	1,459384	0,919977	2020-10-29T19:35:51:189
1,175537	1,646133	1,353565	2020-10-29T19:35:51:206
0,757793	1,870395	2,109561	2020-10-29T19:35:51:231
0,284205	1,925067	2,508482	2020-10-29T19:35:51:246
0,750412	0,077305	-0,047598	2020-10-29T19:35:51:271
0,752806	0,218482	-0,296451	2020-10-29T19:35:51:286
0,704006	0,494500	-0,407527	2020-10-29T19:35:51:310
0,520786	0,614024	-0,273515	2020-10-29T19:35:51:327
0,296651	0,500787	0,440845	2020-10-29T19:35:51:349
0,265678	0,372910	1,597932	2020-10-29T19:35:51:366
0,621712	0,395722	2,293547	2020-10-29T19:35:51:390
0,857439	0,407079	2,378124	2020-10-29T19:35:51:406
0,528730	0,245097	2,028448	2020-10-29T19:35:51:429
-0,355092	-0,394896	1,477281	2020-10-29T19:35:51:446
-1,396673	-0,181274	0,142462	2020-10-29T19:35:51:470
-1,944630	-1,222152	-0,714168	2020-10-29T19:35:51:487
-2,219235	-1,690627	-0,364840	2020-10-29T19:35:51:510
-2,325068	-1,954232	-0,478340	2020-10-29T19:35:51:526
-2,802596	-0,253829	-0,165422	2020-10-29T19:35:51:551
-3,084105	1,610048	-0,531465	2020-10-29T19:35:51:566
-4,135101	2,510071	-0,710916	2020-10-29T19:35:51:589
-4,868196	3,119033	-0,899139	2020-10-29T19:35:51:606
-3,890134	2,777124	-1,398986	2020-10-29T19:35:51:630
-2,549180	2,513537	-1,449087	2020-10-29T19:35:51:647
-1,247962	2,091039	-1,406605	2020-10-29T19:35:51:669
0,033228	1,476273	-1,421096	2020-10-29T19:35:51:687
0,933250	0,970291	-1,327817	2020-10-29T19:35:51:710
1,532531	0,335069	-1,394077	2020-10-29T19:35:51:727
1,757999	-0,120478	-1,489829	2020-10-29T19:35:51:751
2,150878	-0,707190	-1,389524	2020-10-29T19:35:51:766
2,448755	-1,160225	-1,556175	2020-10-29T19:35:51:790
2,049538	-1,459357	-1,628943	2020-10-29T19:35:51:807
0,823448	-1,769820	-1,373791	2020-10-29T19:35:51:830
-0,179296	-2,022602	-1,380497	2020-10-29T19:35:51:847
-0,316956	-2,248922	-1,422363	2020-10-29T19:35:51:870
-0,468246	-2,329837	-1,250345	2020-10-29T19:35:51:887
-0,878992	-2,141315	-0,703993	2020-10-29T19:35:51:910
-0,818358	-1,918424	-0,039691	2020-10-29T19:35:51:927
-0,133341	-0,042529	0,004946	2020-10-29T19:35:51:951
0,562971	0,098648	0,406940	2020-10-29T19:35:51:971
1,051146	0,165841	0,151666	2020-10-29T19:35:51:992
1,276934	0,058354	0,332469	2020-10-29T19:35:52:007
0,842121	0,231062	-0,144078	2020-10-29T19:35:52:031
0,353985	-0,065648	0,322522	2020-10-29T19:35:52:047
-0,321147	-0,256130	0,304016	2020-10-29T19:35:52:070
-0,844827	-0,479549	0,901354	2020-10-29T19:35:52:087
-1,482276	-0,502454	0,526397	2020-10-29T19:35:52:111
-1,783771	-0,322992	1,095890	2020-10-29T19:35:52:127
-1,913623	-0,451213	0,726234	2020-10-29T19:35:52:151
-1,968657	0,113493	0,565914	2020-10-29T19:35:52:167
-1,489197	0,226939	0,312915	2020-10-29T19:35:52:190
-1,200728	0,208337	-0,255514	2020-10-29T19:35:52:208
-1,270706	-0,149625	-0,686163	2020-10-29T19:35:52:232
-1,345144	-0,739480	-1,000610	2020-10-29T19:35:52:247
-1,045980	-0,272282	0,210744	2020-10-29T19:35:52:272
-0,703807	-0,394316	-0,219965	2020-10-29T19:35:52:287
-0,567160	-0,119830	-0,387015	2020-10-29T19:35:52:310
-1,738115	-0,465966	-1,052119	2020-10-29T19:35:52:327
-4,193448	-0,985712	-0,186533	2020-10-29T19:35:52:351
-4,150714	-1,731089	-0,286896	2020-10-29T19:35:52:367
-2,178982	-2,571787	-1,304072	2020-10-29T19:35:52:390
-1,664752	-2,827732	-2,114035	2020-10-29T19:35:52:407
-2,399283	-2,943272	-2,223790	2020-10-29T19:35:52:431
-2,855487	-3,044836	-2,645490	2020-10-29T19:35:52:447
-2,818810	-3,469729	-3,331944	2020-10-29T19:35:52:472
-3,227763	-3,412296	-3,692448	2020-10-29T19:35:52:487
-3,799118	-4,006835	-4,272358	2020-10-29T19:35:52:511
-4,534613	-4,744134	-4,932498	2020-10-29T19:35:52:527
-4,916569	-5,263487	-4,810337	2020-10-29T19:35:52:551
-4,601910	-5,607894	-5,815177	2020-10-29T19:35:52:567
-4,789237	-5,474060	-2,453648	2020-10-29T19:35:52:592
-4,296318	-6,100979	-2,956141	2020-10-29T19:35:52:607
-4,448422	-5,963373	-3,351224	2020-10-29T19:35:52:631
-4,912336	-4,853430	-3,810863	2020-10-29T19:35:52:648
-4,816421	-4,196065	-4,599276	2020-10-29T19:35:52:671
-4,674924	-5,048580	-5,579975	2020-10-29T19:35:52:688
-5,316873	-5,478097	-6,556604	2020-10-29T19:35:52:711
-6,473443	-5,392621	-6,837153	2020-10-29T19:35:52:727
-5,031069	-6,702232	-2,963770	2020-10-29T19:35:52:751
-4,823617	-5,686074	-1,025369	2020-10-29T19:35:52:767
-5,046151	-3,936664	0,755798	2020-10-29T19:35:52:790
-5,278951	-1,618753	3,947398	2020-10-29T19:35:52:807
-4,521181	1,113882	5,956520	2020-10-29T19:35:52:832
-4,300406	2,579121	6,927680	2020-10-29T19:35:52:848
-3,706263	3,504910	8,227820	2020-10-29T19:35:52:871
-2,991152	4,040336	9,550737	2020-10-29T19:35:52:888
-2,666831	3,792148	11,453445	2020-10-29T19:35:52:911
-2,039342	2,406412	12,357437	2020-10-29T19:35:52:928
-0,222189	1,183988	-1,860408	2020-10-29T19:35:52:954
0,732548	1,698445	-2,946749	2020-10-29T19:35:52:967
0,414402	4,382470	-1,875997	2020-10-29T19:35:52:992
2,788877	5,626001	-3,056421	2020-10-29T19:35:53:009
5,061891	3,778564	-4,871269	2020-10-29T19:35:53:031
6,890166	0,302564	-5,926663	2020-10-29T19:35:53:048
3,183771	-1,730145	0,546500	2020-10-29T19:35:53:072
2,805705	-1,155867	0,831246	2020-10-29T19:35:53:088
2,496435	-0,858145	-0,026373	2020-10-29T19:35:53:111
3,253298	-0,488291	-0,261093	2020-10-29T19:35:53:129
3,242827	-0,197052	0,393912	2020-10-29T19:35:53:152
2,761079	1,096344	1,531373	2020-10-29T19:35:53:168
2,380477	1,591057	0,716147	2020-10-29T19:35:53:192
2,478001	0,506465	0,439992	2020-10-29T19:35:53:208
1,923124	-0,395102	0,268426	2020-10-29T19:35:53:232
1,042715	0,449500	-0,586670	2020-10-29T19:35:53:248
-0,018071	1,509696	0,051975	2020-10-29T19:35:53:271
0,696322	0,221100	-0,001133	2020-10-29T19:35:53:288
0,540082	-0,379846	0,004164	2020-10-29T19:35:53:312
0,165943	-0,941217	0,254838	2020-10-29T19:35:53:328
0,495699	-0,843277	-0,298558	2020-10-29T19:35:53:351
0,334742	-0,074319	-0,978582	2020-10-29T19:35:53:368
0,363585	0,213439	-0,809098	2020-10-29T19:35:53:392
0,087543	-0,010046	-0,291438	2020-10-29T19:35:53:408
-0,024987	0,210868	0,178086	2020-10-29T19:35:53:432
-0,581910	0,023125	1,269310	2020-10-29T19:35:53:448
-1,565351	0,309835	2,518530	2020-10-29T19:35:53:474
-2,523693	0,196318	3,594501	2020-10-29T19:35:53:489
-3,313067	-0,673528	2,061815	2020-10-29T19:35:53:512
-3,569465	-0,749332	-1,859620	2020-10-29T19:35:53:529
-3,903325	3,192187	-2,580765	2020-10-29T19:35:53:553
-5,207105	7,582490	-1,194854	2020-10-29T19:35:53:568
-6,543132	6,055540	-1,139145	2020-10-29T19:35:53:591
-5,747148	3,356971	-2,463293	2020-10-29T19:35:53:609
-3,616837	4,511919	-4,442316	2020-10-29T19:35:53:632
-1,550406	8,851925	-3,844326	2020-10-29T19:35:53:649
-2,693230	11,125578	-2,367743	2020-10-29T19:35:53:672
-2,529900	6,749651	-0,769204	2020-10-29T19:35:53:688
-0,620441	3,704988	0,599962	2020-10-29T19:35:53:713
0,048948	3,687943	2,016653	2020-10-29T19:35:53:729
-0,145588	4,485196	2,750137	2020-10-29T19:35:53:751
-0,581442	8,131809	3,577751	2020-10-29T19:35:53:769
-1,606096	8,083858	3,308488	2020-10-29T19:35:53:792
-1,038191	4,384583	3,512518	2020-10-29T19:35:53:809
0,215360	2,470771	2,988688	2020-10-29T19:35:53:832
0,896654	2,971299	3,285834	2020-10-29T19:35:53:849
1,144388	4,668118	2,931386	2020-10-29T19:35:53:872
0,398396	3,270126	2,355150	2020-10-29T19:35:53:889
1,184637	0,082727	2,903857	2020-10-29T19:35:53:912
0,699738	0,112164	2,670494	2020-10-29T19:35:53:929
-0,325429	-0,517410	2,350255	2020-10-29T19:35:53:953
-0,709750	-0,602113	1,416547	2020-10-29T19:35:53:969
-0,970411	-0,085094	1,424355	2020-10-29T19:35:53:992
-0,732458	0,631417	2,182896	2020-10-29T19:35:54:009
-0,607711	0,920053	1,258254	2020-10-29T19:35:54:033
-1,392326	3,213388	0,466816	2020-10-29T19:35:54:049
-2,432167	6,773551	0,017652	2020-10-29T19:35:54:090
-2,790433	5,491005	-0,961375	2020-10-29T19:35:54:092
-1,391963	3,003319	-1,606240	2020-10-29T19:35:54:113
-0,008528	2,946504	-2,872255	2020-10-29T19:35:54:129
0,072798	4,250774	-4,146391	2020-10-29T19:35:54:153
-1,656451	2,904573	-5,013425	2020-10-29T19:35:54:169
-0,520090	1,920121	-5,855799	2020-10-29T19:35:54:193
0,780191	-1,269225	-6,052958	2020-10-29T19:35:54:209
1,146984	-3,099233	-7,625063	2020-10-29T19:35:54:232
1,656838	-6,321711	-9,519682	2020-10-29T19:35:54:249
3,117838	-8,217893	-9,825993	2020-10-29T19:35:54:273
5,455349	-9,284026	-9,830588	2020-10-29T19:35:54:289
7,144541	-7,025136	-9,103353	2020-10-29T19:35:54:312
7,320291	-3,892110	-9,537294	2020-10-29T19:35:54:330
6,307589	-0,140467	-7,514861	2020-10-29T19:35:54:353
4,237422	3,057244	-6,533567	2020-10-29T19:35:54:369
-8,809473	9,066008	-0,888665	2020-10-29T19:35:54:393
-10,943184	25,037045	3,776986	2020-10-29T19:35:54:409
-11,022371	28,511076	8,054016	2020-10-29T19:35:54:434
-8,721864	18,671883	10,869791	2020-10-29T19:35:54:450
-10,088669	11,353994	11,782189	2020-10-29T19:35:54:472
-11,215080	6,096139	12,569147	2020-10-29T19:35:54:489
-10,106152	4,043443	10,456820	2020-10-29T19:35:54:513
-8,494511	9,085720	9,926636	2020-10-29T19:35:54:529
-9,688432	13,675713	8,173126	2020-10-29T19:35:54:553
-9,995213	11,897989	5,906355	2020-10-29T19:35:54:570
-9,812443	11,238200	5,556021	2020-10-29T19:35:54:594
-9,490396	11,541156	6,445726	2020-10-29T19:35:55:093
-9,606424	10,830438	7,123050	2020-10-29T19:35:55:093
-9,675345	9,480906	6,819045	2020-10-29T19:35:55:094
-9,561236	8,838870	6,199884	2020-10-29T19:35:55:094
-9,813916	8,053570	5,802558	2020-10-29T19:35:55:096
-10,303850	7,622317	5,359732	2020-10-29T19:35:55:096
-10,295815	7,684122	4,587283	2020-10-29T19:35:55:097
-10,095113	7,857181	3,566400	2020-10-29T19:35:55:097
-9,906452	7,348868	2,598938	2020-10-29T19:35:55:097
-9,596964	7,036458	2,244915	2020-10-29T19:35:55:098
-9,679666	6,327642	2,574966	2020-10-29T19:35:55:099
-10,083973	5,504104	2,934653	2020-10-29T19:35:55:101
-10,107150	5,047432	3,696519	2020-10-29T19:35:55:102
-9,829464	4,616418	3,671283	2020-10-29T19:35:55:102
-9,445913	4,837088	3,019832	2020-10-29T19:35:55:103
-9,164752	4,295930	2,777313	2020-10-29T19:35:55:103
-9,264529	3,628640	3,072327	2020-10-29T19:35:55:103
-9,171295	3,012679	4,110349	2020-10-29T19:35:55:104
-8,895175	2,990492	4,153418	2020-10-29T19:35:55:104
-8,240120	3,509578	3,803433	2020-10-29T19:35:55:105
-8,087184	3,190078	3,719547	2020-10-29T19:35:55:105
-8,026106	2,748218	3,304904	2020-10-29T19:35:55:106
-7,793744	2,520427	3,173417	2020-10-29T19:35:55:106
-7,446052	2,695908	3,094764	2020-10-29T19:35:55:109
-7,225079	2,631357	2,875331	2020-10-29T19:35:55:110
-7,162241	2,384627	2,735245	2020-10-29T19:35:55:111
-6,992491	2,094782	2,584434	2020-10-29T19:35:55:128
-6,627721	1,948526	2,487854	2020-10-29T19:35:55:153
-6,216576	1,766629	2,421405	2020-10-29T19:35:55:177
-5,928638	1,497963	2,261308	2020-10-29T19:35:55:239
0,002018	0,158231	0,426645	2020-10-29T19:35:55:241
-0,002768	0,222838	0,029436	2020-10-29T19:35:55:242
0,046042	0,208930	-0,165440	2020-10-29T19:35:55:254
-0,007471	-0,078269	-0,290756	2020-10-29T19:35:55:271
0,054742	-0,154840	-0,556359	2020-10-29T19:35:55:289
0,035288	-0,278893	-0,624666	2020-10-29T19:35:55:323
0,255742	-1,060441	-0,139122	2020-10-29T19:35:55:333
0,345897	-1,691214	0,611920	2020-10-29T19:35:55:358
-0,097425	-2,408296	1,853297	2020-10-29T19:35:55:375
-0,674024	-3,331604	2,375692	2020-10-29T19:35:55:392
-0,863053	3,686349	-0,881618	2020-10-29T19:35:55:409
-0,730200	3,441913	-1,042974	2020-10-29T19:35:55:438
-0,670112	2,697212	-1,150644	2020-10-29T19:35:55:448
-0,790655	1,806996	-1,238301	2020-10-29T19:35:55:475
-0,773288	1,201796	-1,671126	2020-10-29T19:35:55:488
-0,676955	1,109669	-2,355808	2020-10-29T19:35:55:514
-0,313169	1,409397	-3,632961	2020-10-29T19:35:55:542
-0,047233	1,203566	-4,258650	2020-10-29T19:35:55:554
0,024799	0,581426	-4,450869	2020-10-29T19:35:55:574
0,298409	0,302737	-4,589488	2020-10-29T19:35:55:591
0,637116	0,181367	-5,036687	2020-10-29T19:35:55:608
0,957914	0,515483	-5,109649	2020-10-29T19:35:55:635
1,016639	0,736115	-5,019003	2020-10-29T19:35:55:649
0,427328	-0,064597	-4,473773	2020-10-29T19:35:55:744
-0,496948	-1,512995	-4,154889	2020-10-29T19:35:55:745
-1,039414	-2,507246	-4,301072	2020-10-29T19:35:55:746
-1,420249	-3,502050	-3,866859	2020-10-29T19:35:55:746
-0,691720	-9,216202	0,239403	2020-10-29T19:35:56:082
-1,773697	-11,592023	1,460305	2020-10-29T19:35:56:083
-2,204669	-12,369074	0,823731	2020-10-29T19:35:56:083
-2,293171	-11,861450	0,677665	2020-10-29T19:35:56:084
-2,377999	-11,755726	1,486821	2020-10-29T19:35:56:084
-2,982613	-11,484308	2,201831	2020-10-29T19:35:56:085
-4,230728	-10,762516	2,457479	2020-10-29T19:35:56:085
-6,051788	-10,487322	2,623124	2020-10-29T19:35:56:085
-8,259079	-10,579385	2,723035	2020-10-29T19:35:56:086
-10,871058	-11,013599	3,020008	2020-10-29T19:35:56:089
-12,917242	-12,512980	3,817544	2020-10-29T19:35:56:089
-12,724312	-15,179747	3,900330	2020-10-29T19:35:56:092
-10,904259	-18,002787	3,243764	2020-10-29T19:35:56:092
-8,545637	-19,908228	2,726180	2020-10-29T19:35:56:093
-6,618755	-17,516842	1,805627	2020-10-29T19:35:56:093
-6,139017	-12,152309	1,045794	2020-10-29T19:35:56:094
-6,357675	-10,871690	1,500386	2020-10-29T19:35:56:094
-5,890642	-9,449321	2,348163	2020-10-29T19:35:56:096
-5,495558	-9,420152	3,587265	2020-10-29T19:35:56:113
-4,913146	-9,332856	4,424129	2020-10-29T19:35:56:130
-4,334157	-9,852925	4,895156	2020-10-29T19:35:56:169
-4,287184	-10,219916	5,490562	2020-10-29T19:35:56:169
-4,491146	-10,211278	5,823756	2020-10-29T19:35:56:193
-4,277770	-9,717545	4,827049	2020-10-29T19:35:56:240
-3,830622	-9,137456	3,650131	2020-10-29T19:35:56:240
-3,678443	-9,208614	2,861269	2020-10-29T19:35:56:250
-3,491116	-9,204002	2,381549	2020-10-29T19:35:56:287
-2,976446	-6,896528	1,978700	2020-10-29T19:35:56:289
-2,618458	-5,494637	1,647477	2020-10-29T19:35:56:313
-2,428657	-5,514389	1,103172	2020-10-29T19:35:56:331
-1,679802	-5,365911	0,779169	2020-10-29T19:35:56:355
-0,664155	-5,385699	0,439635	2020-10-29T19:35:56:369
0,142183	-5,181163	0,215011	2020-10-29T19:35:56:394
0,652935	-4,844598	-0,053264	2020-10-29T19:35:56:411
0,877771	-4,743478	-0,433847	2020-10-29T19:35:56:437
1,103486	-4,652820	-0,681426	2020-10-29T19:35:56:452
1,474850	-4,490878	-0,773495	2020-10-29T19:35:56:477
1,824244	-4,106761	-1,211673	2020-10-29T19:35:56:491
2,146008	-3,876790	-1,506645	2020-10-29T19:35:56:520
1,814889	-3,625501	-1,806436	2020-10-29T19:35:56:533
1,299876	-3,339933	-2,044874	2020-10-29T19:35:56:558
1,223090	-2,883660	-2,390791	2020-10-29T19:35:56:588
1,281683	-2,551446	-2,534023	2020-10-29T19:35:56:596
1,202171	-2,319116	-2,552311	2020-10-29T19:35:56:611
0,768451	-2,320015	-2,456840	2020-10-29T19:35:56:637
0,170452	-2,274933	-2,324573	2020-10-29T19:35:56:652
-0,598655	-2,372334	-2,101692	2020-10-29T19:35:56:678
-1,153807	-2,822433	-1,924857	2020-10-29T19:35:56:697
-1,338148	-3,356799	-1,775839	2020-10-29T19:35:56:714
-0,998170	-4,099583	-1,364961	2020-10-29T19:35:56:730
-0,750229	-4,995866	-0,925065	2020-10-29T19:35:56:756
-0,674230	-5,970941	-0,638088	2020-10-29T19:35:56:772
-0,974451	-0,256273	-0,019174	2020-10-29T19:35:56:797
-0,988809	-0,012205	0,423498	2020-10-29T19:35:56:811
-0,790869	-0,167937	0,319911	2020-10-29T19:35:56:836
-3,045871	3,725228	0,720843	2020-10-29T19:35:56:852
-3,368372	3,483320	3,806599	2020-10-29T19:35:56:875
-4,488388	7,885757	7,772552	2020-10-29T19:35:56:892
-3,034631	8,187779	5,153774	2020-10-29T19:35:56:917
-1,080971	4,679467	2,462328	2020-10-29T19:35:56:931
0,467309	0,251742	1,989064	2020-10-29T19:35:56:955
-2,244866	0,946414	2,536832	2020-10-29T19:35:56:972
-2,329372	-0,928996	-0,192865	2020-10-29T19:35:56:996
-0,516938	0,773109	-1,677601	2020-10-29T19:35:57:012
1,510856	0,425164	0,313099	2020-10-29T19:35:57:036
1,333786	1,937428	0,621773	2020-10-29T19:35:57:052
1,360456	0,127010	0,154277	2020-10-29T19:35:57:076
1,386777	-0,397018	0,410309	2020-10-29T19:35:57:115
1,578302	-0,087861	0,224717	2020-10-29T19:35:57:117
1,306164	-0,497301	0,045017	2020-10-29T19:35:57:138
0,417781	-1,210209	-0,153741	2020-10-29T19:35:57:156
0,056602	-1,748554	-0,305588	2020-10-29T19:35:57:179
-0,268798	-2,064434	-0,877455	2020-10-29T19:35:57:196
-1,642694	-2,188786	-1,372792	2020-10-29T19:35:57:211
-3,254260	-2,262725	-0,867672	2020-10-29T19:35:57:236
-2,843630	-2,412849	-0,489172	2020-10-29T19:35:57:252
-1,616858	-2,421866	-0,310536	2020-10-29T19:35:57:277
-1,408379	-2,072740	0,092134	2020-10-29T19:35:57:291
-1,283138	-1,565503	0,280809	2020-10-29T19:35:57:316
-0,170388	-0,999097	0,376914	2020-10-29T19:35:57:332
1,017828	-0,220850	0,176494	2020-10-29T19:35:57:355
1,380422	0,905549	-0,068970	2020-10-29T19:35:57:372
0,299541	1,923129	-0,839461	2020-10-29T19:35:57:396
-1,643578	2,320540	-1,071902	2020-10-29T19:35:57:412
-3,345627	2,760303	-1,085411	2020-10-29T19:35:57:435
-3,936118	3,496962	-1,592327	2020-10-29T19:35:57:452
-4,050290	3,599673	-2,191381	2020-10-29T19:35:57:476
-4,313756	3,444479	-2,107642	2020-10-29T19:35:57:492
-4,562712	3,249312	-1,600950	2020-10-29T19:35:57:516
-4,106113	3,340240	-1,089851	2020-10-29T19:35:57:532
-3,122111	3,795036	-0,666872	2020-10-29T19:35:57:557
-2,307827	4,132040	-0,563356	2020-10-29T19:35:57:572
-2,223812	4,787913	-0,601181	2020-10-29T19:35:57:595
-2,229131	5,151378	-0,548288	2020-10-29T19:35:57:612
-2,279738	5,328756	-0,438894	2020-10-29T19:35:57:636
-2,139594	5,521784	-0,119071	2020-10-29T19:35:57:652
-2,019775	5,878773	0,369337	2020-10-29T19:35:57:675
-1,746892	6,242430	0,718982	2020-10-29T19:35:57:692
-1,359305	6,478105	1,163826	2020-10-29T19:35:57:716
-1,111080	6,610298	1,736706	2020-10-29T19:35:57:732
-1,084374	6,439636	2,130881	2020-10-29T19:35:57:757
-1,671622	6,163508	2,081922	2020-10-29T19:35:57:772
-2,967107	5,679941	1,861370	2020-10-29T19:35:57:796
-3,479032	4,793063	1,661489	2020-10-29T19:35:57:813
-3,451659	4,601357	1,553471	2020-10-29T19:35:57:835
-3,517385	5,139280	1,253687	2020-10-29T19:35:57:853
-3,618406	5,278573	1,182742	2020-10-29T19:35:57:877
-3,544427	5,021597	1,206980	2020-10-29T19:35:57:892
-3,104533	4,633982	1,134029	2020-10-29T19:35:57:916
-2,131783	4,220981	0,734598	2020-10-29T19:35:57:933
0,291330	1,538708	-0,596670	2020-10-29T19:35:57:957
-3,539109	4,371086	-1,412542	2020-10-29T19:35:57:973
-2,098722	-1,438119	-0,727036	2020-10-29T19:35:57:997
-2,203485	-2,269011	-0,794221	2020-10-29T19:35:58:012
-0,791265	-3,278879	-1,098717	2020-10-29T19:35:58:037
-0,248153	-3,683358	-1,082097	2020-10-29T19:35:58:053
-0,798481	-3,523686	-0,656577	2020-10-29T19:35:58:075
-1,084085	-3,369982	-0,406887	2020-10-29T19:35:58:093
-0,478267	-3,254634	-0,466827	2020-10-29T19:35:58:124
0,237644	-2,817116	-0,330223	2020-10-29T19:35:58:166
-0,379778	-0,156802	-0,017094	2020-10-29T19:35:58:167
-0,508990	0,886468	0,119297	2020-10-29T19:35:58:179
-0,403392	1,006297	-0,425731	2020-10-29T19:35:58:200
-1,208044	2,234623	-0,512936	2020-10-29T19:35:58:212
-1,995461	2,944254	-0,785115	2020-10-29T19:35:58:235
-2,451090	2,827066	-0,169745	2020-10-29T19:35:58:252
-1,662263	-0,117785	0,037208	2020-10-29T19:35:58:278
-1,195662	-0,060357	0,702413	2020-10-29T19:35:58:293
-0,499412	-0,168479	0,393236	2020-10-29T19:35:58:316
0,515118	-0,365877	0,610313	2020-10-29T19:35:58:333
