1603996930.000000, 1603996930.000000, 1603996930.000000
32.000000, 32.000000, 32.000000
-13,54,4
-14,55,3
-16,57,3
-18,57,3
-19,58,3
-21,62,4
-23,64,5
-25,69,6
-26,70,7
-24,69,7
-19,70,8
-16,70,8
-15,68,8
-16,68,6
-15,66,5
-16,61,3
-15,59,2
-16,57,-1
-16,57,-5
-17,58,-6
-19,58,-7
-19,58,-8
-21,58,-7
-20,59,-6
-20,63,-6
-21,62,-5
-20,61,-4
-16,66,-3
-14,69,-2
-15,75,2
-18,77,4
-18,76,5
-14,72,7
-12,71,8
-9,70,10
-4,63,12
-3,63,12
-4,61,10
-5,58,10
-7,52,11
-9,51,12
-10,53,11
-10,58,10
-10,60,10
-10,63,10
-11,60,11
-11,60,11
-10,63,12
-10,67,13
-11,75,15
-12,73,13
-13,73,10
-14,77,10
-13,74,11
-11,64,12
-10,59,12
-9,53,11
-10,60,9
-11,64,7
-15,71,3
-16,71,3
-16,67,5
-12,59,8
-10,58,9
-10,56,8
-9,57,7
-8,58,4
-8,60,3
-9,65,1
-10,70,-1
-10,72,-2
-12,72,-4
-13,71,-5
-14,56,-5
-15,57,-2
-16,59,-2
-18,62,-1
-19,65,0
-28,71,-1
-40,73,6
-38,72,11
-15,68,18
-6,66,21
-1,62,24
-3,59,24
-12,57,20
-25,58,13
-29,61,11
-29,67,12
-25,70,16
-20,68,17
-15,59,17
-15,61,16
-17,65,13
-17,69,12
-16,74,10
-12,71,9
-11,69,9
-9,64,10
-9,65,10
-8,64,7
-10,63,5
-10,61,5
-11,59,5
-11,57,5
-12,56,4
-12,56,4
-11,56,4
-12,56,4
-13,57,5
-15,61,5
-17,63,5
-21,67,8
-23,68,10
-21,67,10
-13,67,12
-9,65,13
-11,65,14
-16,64,13
-19,64,12
-21,64,10
-21,64,9
-18,63,8
-16,63,9
-17,63,8
-16,63,7
-16,63,7
-16,63,7
-15,63,7
-14,63,7
-14,62,7
-14,62,7
-14,62,7
-14,61,7
-14,60,7
-13,60,8
-14,60,8
-14,61,8
-15,60,8
-16,62,8
-17,62,9
-17,62,8
-18,62,8
-18,62,8
-19,62,9
-19,62,9
-19,63,9
-19,63,9
-19,64,9
-18,63,9
-17,63,9
-16,60,9
-14,58,9
-14,58,9
-15,61,7
-16,64,7
-18,68,5
-18,64,6
-17,61,6
-16,58,7
-16,57,7
-16,57,7
-17,58,7
-16,60,7
-18,64,7
-19,66,6
-21,69,5
-20,63,6
-20,62,6
-19,66,8
-19,66,8
-18,65,9
-17,63,10
-14,58,10
-14,60,8
-14,64,8
-14,70,8
-13,71,10
-10,65,14
-8,56,15
-7,53,16
-9,53,14
-10,55,14
-12,58,10
-13,58,9
-13,57,9
-15,60,10
-16,63,11
-17,75,8
-20,79,9
-19,67,8
-15,71,9
-15,69,9
-16,66,8
-15,65,7
-14,65,6
-12,64,4
-12,64,4
-11,67,3
-11,69,1
-10,71,0
-11,68,-1
-11,67,-1
-10,63,2
-9,62,2
-7,60,3
-5,58,4
-5,57,5
-4,58,7
-5,59,7
-5,62,6
-8,67,4
-9,68,3
-11,70,2
-11,71,1
-12,70,0
-13,70,-1
-14,70,-1
-16,69,-1
-17,68,0
-20,68,3
-21,67,4
-24,66,8
-22,63,12
-20,62,14
-15,60,17
-14,59,18
-17,60,21
-18,62,27
-16,63,29
-14,63,30
-11,62,29
-6,61,24
-5,63,22
-15,61,20
-10,60,21
-9,59,21
-10,62,20
-9,65,20
-9,66,18
-8,71,16
-7,70,16
-6,61,15
-6,58,14
-6,57,11
-8,58,9
-10,59,8
-14,60,6
-15,62,6
-15,62,7
-13,60,8
-12,60,8
-14,63,7
-15,65,7
-19,67,7
-20,67,6
-18,66,7
-14,65,8
-14,64,9
-16,62,9
-16,62,9
-18,60,8
-16,63,8
-16,63,8
-15,63,8
-15,63,8
-15,62,9
-15,63,9
-14,62,8
-15,63,8
-15,63,8
-15,64,8
-15,63,7
-15,64,7
-14,64,7
-14,64,8
-14,63,8
-14,63,8
-13,62,8
-12,62,9
-12,62,9
-12,61,8
-12,61,9
-13,61,7
-15,62,6
-15,62,6
-19,60,7
-19,60,8
-20,61,10
-17,62,10
-15,62,10
-12,61,13
-12,62,12
-14,64,13
-15,62,14
-14,60,14
-12,60,12
-12,60,11
-13,61,9
-14,61,8
-13,62,9
-11,63,9
-11,62,7
-13,63,6
-14,64,6
-14,68,5
-13,72,8
-12,73,10
-9,69,14
-8,66,15
-4,66,17
-6,56,16
-6,56,15
-8,57,10
-10,57,8
-10,58,7
-8,65,6
-7,70,5
-3,70,5
-4,71,6
-3,72,9
-5,73,10
-5,72,12
0,70,13
1,68,13
2,64,13
3,62,13
4,60,13
2,60,12
1,60,12
1,61,12
0,61,12
0,61,12
-3,62,12
-3,62,12
-5,63,13
-6,64,14
-6,63,15
-5,63,15
-4,65,16
-5,64,17
-5,64,17
-6,62,18
-6,62,19
-6,61,18
-6,60,19
-6,60,19
-7,59,18
-8,59,17
-9,61,17
-9,66,16
-8,71,17
-6,84,16
-6,85,15
-6,79,12
-4,78,11
-4,76,11
-4,72,10
-5,69,9
-5,58,9
-5,54,9
-6,47,9
-7,45,7
-7,45,6
-9,49,0
-10,53,-3
-15,61,-4
-27,65,-8
-35,67,-13
-57,70,-11
-52,68,-10
-21,65,-3
-12,61,8
-16,64,15
-28,69,26
-26,68,28
-25,66,22
-19,64,20
-16,65,18
-15,65,18
-12,64,17
-14,61,14
-16,60,13
-23,61,8
-33,62,2
-34,62,-1
-31,66,-4
-33,73,-6
-35,77,-1
-37,65,1
-31,56,4
-23,49,8
-27,57,8
-37,61,10
-40,56,11
-40,57,13
-44,51,18
-43,45,18
-43,38,19
-44,36,24
-45,33,24
-48,34,29
-49,37,33
-48,33,34
-47,29,31
-46,30,32
-41,34,31
-39,36,27
-34,48,32
-30,51,32
-16,44,27
-10,42,33
-13,44,34
-13,49,33
-25,52,26
-16,56,41
-13,57,48
-13,61,49
-19,64,55
-24,65,57
-24,59,50
-28,60,52
-22,60,49
-25,55,54
-31,51,52
-30,36,47
-26,33,44
-6,36,59
-36,23,49
-20,21,51
-32,19,51
-29,17,49
-23,16,51
-23,15,52
-25,14,51
-21,17,57
-18,15,59
-20,18,65
-29,16,62
-28,13,56
-42,6,48
-37,-1,47
-27,-5,56
-32,-6,57
10,-12,74
-8,-14,70
-15,-17,57
12,-24,44
18,-7,46
-18,-3,61
2,-10,84
7,-16,69
-7,-18,45
-7,-18,44
-17,-14,54
-13,-16,62
-12,-17,61
-7,-23,55
1,-25,55
1,-16,57
-7,-12,59
-7,-12,59
-8,-14,68
-12,-15,65
-5,-12,71
-11,-13,67
-16,-13,63
-5,-14,66
-2,-14,67
-4,-12,67
-6,-13,69
-10,-13,66
-10,-14,67
-12,-15,64
-8,-5,74
-12,-4,73
-18,-3,63
-13,0,63
-11,1,65
-7,4,61
-14,3,58
-16,1,61
-26,2,59
-35,4,58
-27,2,62
-23,1,59
-29,-2,55
-26,-4,60
-19,0,63
-23,-2,61
-20,0,65
-16,2,67
-16,1,67
-11,-3,68
-8,-5,63
-11,-5,60
-17,-5,49
-23,-7,45
-33,-4,45
-52,8,54
-49,7,55
-53,3,50
-49,5,50
-50,4,50
-51,4,49
-53,7,47
-65,3,34
-64,1,28
-74,-4,2
-78,-7,-5
-86,-12,-20
-77,-16,-22
-67,-18,-24
-65,-22,-30
-56,-23,-29
-49,-22,-27
-45,-16,-21
-40,-17,-19
-32,-20,-9
-32,-19,-6
-30,-27,-14
-37,-31,-20
-42,-32,-24
-45,-41,-28
-51,-39,-29
-53,-37,-29
-48,-41,-28
-45,-38,-23
-50,-34,-23
-48,-38,-30
-45,-41,-40
-46,-41,-37
-42,-34,-26
-42,-31,-25
-46,-31,-27
-49,-34,-32
-51,-35,-35
-46,-36,-31
-47,-31,-23
-50,-31,-24
-53,-32,-35
-55,-33,-36
-41,-35,-24
-46,-35,-28
-47,-34,-27
-52,-32,-25
-50,-30,-23
-47,-25,-19
-52,-26,-22
-54,-27,-27
-52,-31,-30
-55,-30,-30
-56,-29,-30
-52,-29,-28
-55,-27,-28
-52,-26,-27
-53,-26,-27
-54,-29,-29
-52,-28,-29
-54,-28,-27
-54,-26,-23
-54,-26,-24
-55,-23,-23
-56,-24,-24
-56,-22,-23
-56,-26,-25
-51,-28,-25
-55,-31,-26
-55,-32,-24
-54,-28,-20
-56,-26,-20
-51,-23,-17
-53,-24,-22
-56,-24,-25
-57,-26,-28
-53,-25,-21
-53,-23,-10
-60,-24,-13
-61,-26,-15
-68,-26,-15
-70,-27,-17
-69,-28,-15
-67,-30,-15
-62,-30,-14
-60,-28,-13
-52,-31,-12
-52,-29,-6
-57,-31,-12
-58,-30,-11
-63,-28,-7
-62,-27,-4
-60,-29,0
-60,-29,4
-59,-30,5
-45,-34,18
-56,-41,5
-49,-47,8
-48,-48,14
-40,-52,22
-42,-49,25
-42,-51,23
-34,-48,19
-38,-48,18
-43,-45,19
-37,-46,20
-30,-45,20
-4,-40,23
3,-40,24
15,-38,37
23,-45,41
29,-42,49
13,-44,47
10,-44,50
17,-48,55
20,-50,53
20,-50,49
21,-50,49
21,-49,40
17,-45,38
6,-44,47
-24,-48,59
-28,-56,63
-24,-55,59
-24,-57,39
-29,-59,27
-28,-71,8
-27,-62,6
-26,-59,5
-19,-53,1
-16,-52,2
-12,-46,13
-21,-35,17
-19,-36,12
-23,-45,5
-24,-47,8
-22,-56,26
-27,-58,34
-28,-69,30
-20,-67,21
-14,-65,18
-10,-57,13
-4,-57,16
-5,-52,13
-9,-48,17
-12,-47,19
-12,-49,22
-6,-50,24
-14,-46,26
-23,-42,24
-35,-45,19
-46,-33,23
-42,-29,24
-37,-32,17
-30,-26,16
-44,0,-7
-41,8,-11
-29,9,-3
-52,37,26
-73,53,39
-62,56,24
-73,57,0
-85,57,-9
-85,71,11
-52,71,36
6,87,109
-128,67,-13
-128,48,-40
-87,27,-14
-62,32,6
-46,36,29
-56,40,23
-52,43,22
-37,50,30
-35,54,33
-54,66,21
-46,63,19
-28,53,30
-55,34,-6
-58,32,-23
-67,30,-23
-60,35,-18
-46,35,-11
-38,43,13
-42,47,22
-32,41,24
-42,40,22
-54,34,0
-44,29,1
-42,30,3
-42,30,11
-43,31,16
-41,29,20
-41,30,20
-42,30,18
-42,27,11
-38,29,7
-48,49,13
-58,54,14
-56,55,17
-50,57,20
-42,55,19
-28,60,22
-28,65,23
-28,68,25
-30,66,20
-29,62,16
-26,56,16
-22,53,16
-17,58,27
-16,59,27
-19,56,17
-21,49,7
-26,47,4
-32,47,-3
-35,50,-13
-38,53,-16
-38,54,-19
-35,65,-18
-39,73,-13
-38,67,-12
-27,63,-3
-24,63,8
-19,55,12
-5,54,11
-5,62,12
-19,72,12
-26,75,5
-25,75,3
-21,65,2
-19,60,3
-16,56,11
-18,52,8
-17,51,9
-14,50,12
-12,51,11
-11,56,11
-12,62,10
-11,67,10
-12,65,11
-14,60,6
-15,84,10
-16,75,13
-23,66,11
-19,50,14
-16,41,11
-13,54,9
-10,64,11
-18,71,9
-14,69,9
-12,67,11
-12,53,11
-13,51,8
-18,52,3
-17,55,5
-19,57,4
-19,59,10
-21,61,14
-26,70,17
-26,74,19
-23,82,16
-21,86,15
-14,72,12
-8,71,9
-4,58,11
8,43,21
-7,55,9
-11,66,11
-28,79,9
-39,80,-8
-32,83,-10
-21,73,-3
-18,67,-2
-9,62,2
-11,59,-3
-15,52,-14
-21,49,-14
-24,46,-16
-25,49,-15
-20,50,-13
-14,53,-6
-14,57,-3
-16,65,-8
-21,79,-4
-26,72,-3
-16,55,6
-5,60,31
7,71,58
5,81,97
-35,74,74
-58,71,11
-38,59,7
-33,51,-10
-48,46,-30
-45,47,-32
-44,53,-32
-44,56,-31
-31,62,-24
-23,70,-15
-21,71,-10
-10,65,-8
-1,61,-6
10,67,9
17,67,17
16,64,20
2,77,37
5,68,44
-4,70,35
-7,70,29
-8,69,17
0,61,8
1,59,4
2,56,0
-1,59,-3
-13,65,-7
-20,66,-1
-28,65,-4
-34,60,-9
-34,59,-8
-21,57,0
-19,58,1
-10,62,11
-5,62,17
-1,60,17
4,56,17
10,60,26
10,63,25
2,65,17
-5,64,9
-19,85,-3
-28,99,-7
-40,82,-13
-40,66,-7
-33,55,-1
-20,41,3
-15,45,-1
-19,67,-6
-25,63,-14
-27,62,-19
-41,52,-27
-48,45,-22
-44,40,-5
-43,42,-2
-44,49,7
-40,53,10
-46,59,9
-54,93,35
-11,72,26
-33,78,4
-49,68,-23
-44,63,-25
-32,60,-24
-27,55,-23
-22,47,-16
-13,47,-6
-12,52,-3
-19,60,-4
-28,64,-10
-34,67,-16
-29,61,-15
-26,58,-12
-20,54,-6
-17,53,-3
-14,51,2
-15,53,4
-16,55,5
-15,60,3
-16,62,0
-15,62,1
-15,68,2
-17,84,2
-23,76,9
-26,68,14
-22,46,17
-14,37,13
-12,57,6
-22,78,7
-27,74,8
-33,69,11
-33,65,10
-30,55,8
-30,55,7
-30,56,2
-17,57,4
-20,58,3
-20,56,3
-23,57,1
-21,64,1
-21,71,-1
-18,84,0
-24,87,-1
-23,74,-1
-22,64,3
-15,46,4
-12,42,6
-6,47,3
-5,56,4
-7,72,2
-18,69,-5
-19,67,-9
-15,59,-2
-13,55,2
-11,55,4
-15,58,5
-16,59,6
-16,60,6
-16,61,7
-15,64,9
-15,66,10
-15,68,11
-18,65,11
-19,62,12
-22,58,10
-24,60,9
-26,64,8
-30,73,7
-30,75,10
-23,60,13
-20,56,11
-18,56,10
-23,59,7
-25,61,6
-26,64,4
-23,65,4
-14,73,7
-12,79,7
-16,78,5
-12,73,7
-8,68,7
-7,57,5
-8,53,4
-9,50,3
-12,47,2
-13,48,4
-15,52,4
-18,53,4
-26,60,1
-36,86,-5
-38,81,-4
-27,64,0
-19,61,3
-17,57,8
-24,54,4
-27,52,0
-32,51,-7
-32,51,-10
-30,55,-16
-31,56,-18
-33,61,-19
-34,61,-18
-32,62,-19
-31,65,-13
-30,65,-8
-21,63,-7
-21,64,-7
-21,65,-6
-23,65,-8
-24,66,-10
-26,65,-14
-27,59,-13
-26,56,-12
-22,52,-7
-22,51,-6
-23,54,-5
-24,57,-7
-24,58,-7
-24,58,-7
-22,57,-6
-22,57,-4
-22,58,-2
-23,60,3
-23,54,6
-23,55,8
-21,66,14
-19,68,16
-11,71,21
-3,78,25
-5,77,26
-6,69,25
-13,65,24
-16,61,17
-22,59,6
-20,58,4
-16,55,5
-13,56,7
-12,56,11
-15,58,11
-16,58,11
-16,56,10
-15,56,10
-15,57,8
-15,58,7
-19,60,7
-20,63,8
-19,65,10
-17,77,5
-15,92,3
-14,67,4
-11,67,11
-10,70,10
-15,63,7
-9,58,10
-9,57,8
-10,69,5
-12,72,3
-13,72,0
-12,72,-1
-12,67,0
-12,63,4
-11,61,6
-9,60,4
-9,58,4
-10,57,4
-10,56,5
-9,53,4
-9,55,3
-10,57,4
-10,64,3
-12,67,1
-15,66,-2
-17,91,-6
-19,81,-9
-25,84,-5
-26,81,-2
-22,66,2
-15,50,7
-10,47,6
-3,60,5
-4,66,5
-9,64,7
-10,65,7
-13,59,9
-11,54,10
-10,52,10
-11,54,12
-12,56,12
-12,59,12
-14,60,12
-15,58,12
-14,57,15
-14,60,15
-17,72,7
-22,74,9
-19,72,6
-10,88,9
-8,77,10
-5,70,18
-3,62,11
0,66,9
7,72,9
8,61,12
-2,66,11
-6,68,8
-18,68,-8
-19,60,-1
-15,59,0
-17,52,-2
-21,46,-5
-22,49,0
-24,62,2
-23,65,2
-24,67,3
-20,66,1
-5,62,3
-1,64,7
-2,65,7
-7,66,7
-12,83,5
-21,67,3
-24,64,6
-25,67,6
-22,60,11
-21,56,14
-11,52,15
0,69,18
4,71,19
7,67,21
4,64,19
0,57,15
-3,53,13
-9,51,9
-14,52,7
-15,52,6
-15,49,7
-14,49,9
-11,51,11
-14,59,11
-16,64,11
-24,71,11
-28,72,12
-21,72,12
-12,87,16
-6,77,17
-15,80,20
-19,76,21
-25,67,18
-24,61,17
-12,58,15
-7,69,10
-8,75,9
-12,80,6
-14,78,4
-15,70,6
-13,64,7
-13,61,5
-11,59,3
-11,57,2
-10,51,4
-8,46,8
-7,44,12
-4,42,17
-3,44,19
-1,51,13
-3,55,9
-11,69,6
-21,97,-3
-29,111,-1
-36,97,3
-34,90,6
-23,66,7
-17,48,8
-19,48,3
-25,63,-4
-25,63,-4
-27,64,-3
-31,65,-1
-31,65,1
-17,56,2
-16,53,4
-29,48,3
-24,57,10
-23,59,10
-19,62,20
-20,65,22
-14,67,22
-14,69,13
-19,83,5
-23,99,-6
-21,81,-10
-14,71,-3
-15,65,-2
-15,58,-7
-9,71,-18
-7,76,-21
-17,71,-27
-18,72,-30
-21,64,-35
-21,59,-28
-16,56,-22
-19,54,-18
-16,54,-16
-16,55,-10
-14,58,-7
-15,60,-6
-14,64,0
-14,64,2
-10,68,9
-10,63,12
-10,72,10
-13,70,15
-14,65,21
-8,59,27
-5,54,24
-7,55,16
-15,63,8
-17,69,6
-14,76,7
-11,75,8
-11,68,11
-15,59,10
-16,57,8
-18,55,3
-19,55,0
-21,56,-3
-22,57,0
-23,57,2
-24,63,7
-24,70,11
-21,75,16
-17,71,17
-15,84,17
-24,69,14
-27,69,13
-21,62,11
-16,59,10
-9,53,7
-8,65,-5
-8,78,-6
-13,82,-10
-15,85,-11
-17,70,-8
-15,58,-5
-13,54,-6
-13,51,-6
-14,50,-6
-17,51,-4
-17,51,2
-15,53,5
-14,57,4
-13,60,6
-13,62,10
-10,60,14
-6,67,11
-15,79,15
-23,74,20
-32,65,21
-34,57,19
-26,42,10
-25,59,3
-28,66,2
-36,77,6
-34,79,8
-26,77,5
-20,64,4
-18,59,3
-11,56,0
-6,57,4
-20,57,-2
-3,74,-2
1,85,1
-17,72,-5
-13,71,-1
-16,61,-6
-20,55,-10
-19,51,-9
-21,46,-7
-20,50,-8
-20,57,-14
-21,59,-17
-24,58,-17
-20,62,-18
-21,62,-18
-21,65,-22
-22,67,-26
-20,63,-26
-15,66,-19
-14,69,-16
-14,70,-9
-14,69,-6
-13,69,-3
-14,68,-6
-15,68,-7
-11,71,-4
-5,73,-1
1,76,5
2,71,9
-1,67,14
3,66,12
2,63,10
-4,57,5
-4,57,4
-8,62,0
-14,64,-2
-17,65,-1
-20,65,3
-18,62,4
-18,59,5
-15,59,4
-13,59,3
-21,59,1
-22,60,2
-24,63,4
-21,62,6
-20,60,9
-22,59,9
-22,63,7
-25,83,11
-25,77,12
-25,73,11
-19,77,15
-17,76,18
-11,63,15
-4,58,15
-4,64,15
-9,67,8
-11,72,7
-20,72,0
-21,70,-2
-15,62,2
-9,57,2
-8,54,1
-10,53,0
-11,54,-2
-16,51,-3
-17,53,-1
-14,54,3
-12,54,5
-11,54,6
-11,54,10
-11,55,8
-14,86,11
-16,68,12
-16,77,15
-22,70,15
-30,66,18
-44,57,18
-9,65,16
3,66,16
6,65,13
1,69,12
-9,67,12
-21,60,8
-26,56,5
-27,52,5
-24,51,5
-18,52,8
-17,54,10
-16,54,13
-20,57,12
-22,58,12
-26,57,10
-26,59,9
-21,69,10
-21,103,12
-19,98,14
-13,74,16
-12,64,16
-8,49,16
-10,65,14
-12,76,9
-15,72,-1
-17,74,-2
-15,70,-2
-8,66,6
-6,60,8
-8,50,11
-8,49,11
-8,45,9
-8,44,8
-6,55,6
-9,68,2
-11,68,4
-10,74,4
-12,97,3
-14,68,9
-13,77,15
-15,69,13
-18,60,11
-20,63,10
-20,65,4
-13,70,6
-9,68,8
-8,67,8
-9,65,8
-13,60,6
-18,54,2
-20,53,2
-21,52,9
-20,50,16
-20,51,27
-21,55,30
-20,66,31
-22,79,23
-7,79,23
5,68,21
3,61,19
0,54,18
-8,55,13
-13,57,9
-23,58,-1
-25,58,-2
-25,56,-4
-23,59,1
-20,60,4
-16,60,4
-15,61,4
-14,65,7
-14,63,7
-12,61,8
-13,59,7
-15,59,6
-19,59,7
-22,59,7
-24,61,7
-28,62,6
-29,64,6
-28,64,7
-25,62,8
-24,60,9
-28,73,10
-27,74,13
-23,71,15
-25,74,13
-23,75,15
-14,71,14
-10,67,14
-7,62,13
-8,61,9
-9,68,6
-9,75,5
-10,75,6
-11,69,9
-10,62,8
-4,49,9
-5,46,11
-6,43,11
-7,47,9
-8,51,9
-11,57,10
-14,59,9
-17,66,11
-23,76,13
-27,83,15
-22,71,14
-14,68,13
-2,71,19
-1,75,10
-28,69,4
-33,62,6
-29,56,6
-17,48,6
-13,50,6
-12,65,6
-21,76,2
-27,73,-2
-24,68,-4
-15,69,1
-9,60,5
-13,61,3
-13,59,1
-14,54,-3
-11,55,-1
-12,55,0
-13,57,2
-14,58,4
-10,59,7
-11,68,6
-15,66,6
-15,61,9
-15,67,19
-13,68,24
-13,73,25
-12,69,20
-9,63,16
-2,59,13
1,65,14
-1,69,15
-6,71,16
-10,68,14
-15,59,9
-14,49,5
-14,46,5
-14,46,5
-14,48,5
-15,53,5
-19,59,7
-22,61,8
-29,67,10
-30,70,10
-23,84,10
-18,72,13
-17,75,15
-20,76,17
-23,75,19
-22,69,23
-16,61,21
3,59,11
8,66,20
16,71,27
-8,79,11
-16,76,5
-17,71,3
-18,63,-1
-16,60,-1
-15,56,-1
-14,54,-1
-12,48,0
-10,48,1
-8,48,2
-7,52,4
-8,54,5
-9,54,6
-13,74,7
-16,76,7
-22,82,15
-25,81,20
-30,66,24
-25,55,23
5,53,17
13,68,11
8,70,8
-5,73,9
-15,71,9
-27,60,7
-29,51,3
-27,49,3
-20,49,3
-17,51,5
-17,57,8
-17,60,12
-20,64,15
-22,67,16
-22,66,15
-20,85,15
-19,79,14
-19,81,13
-19,70,14
-18,64,10
-9,54,9
-8,54,11
-8,67,12
-19,79,1
-20,81,-3
-21,72,-7
-19,67,-7
-14,60,-2
-11,58,0
-11,59,0
-11,57,-1
-11,57,-1
-12,60,-2
-10,58,-1
-10,57,1
-8,57,4
-8,65,3
-12,61,4
-14,62,8
-14,68,11
-12,68,8
-10,71,9
-5,76,10
-5,73,10
-10,70,5
-12,61,0
-11,61,-1
-12,62,-2
-12,61,-3
-16,66,-4
-16,58,-5
-16,56,-5
-14,58,-1
-14,60,1
-14,69,4
-13,70,6
-12,71,10
-5,68,19
0,73,18
-3,78,15
-5,66,3
-15,76,-11
-17,67,-11
-20,65,-9
-21,56,-4
-17,55,-3
-11,61,-8
-13,65,-17
-15,64,-19
-16,69,-26
-14,71,-30
-12,78,-32
-15,71,-23
-16,75,-19
-15,74,-15
-12,80,-16
-10,67,-15
-13,54,-6
-14,45,-1
-10,52,-3
-10,64,-2
-11,67,3
-7,72,8
-6,67,10
-14,47,4
-18,46,1
-28,60,4
-33,62,5
-35,63,18
-45,59,23
-52,59,22
-55,83,10
-50,105,8
-30,101,4
-21,98,-3
-14,106,-4
-9,113,-6
-16,113,-5
-15,109,-9
-11,106,-12
-13,88,-19
-10,73,-14
-11,67,-14
-10,53,-11
-10,46,-9
-8,45,-6
-4,38,-1
-4,31,3
-4,22,15
-4,23,17
-5,36,6
-13,50,1
-16,66,-1
-23,107,-7
-28,113,-12
-41,118,-4
-47,94,-4
-25,85,-1
32,85,16
32,77,18
29,66,25
7,67,19
-19,65,3
-32,52,-17
-40,45,-21
-38,39,-15
-32,38,-11
-25,53,-2
-20,71,1
-21,88,2
-30,93,5
-34,84,7
-25,63,4
-20,74,1
-20,79,1
-18,87,-2
-16,92,-2
-15,88,0
-9,75,3
-7,68,5
-4,59,7
-5,56,7
-6,50,3
-7,48,-2
-8,55,-5
-12,54,-3
-11,59,-2
-12,73,-3
-15,78,0
-23,68,4
-36,56,10
-46,42,10
-25,46,4
1,58,5
8,75,10
-23,74,21
-38,68,24
-46,51,10
-37,52,5
-24,60,2
-22,60,2
-20,64,8
-27,54,8
-29,55,5
-33,62,2
-29,67,5
-24,61,-1
-24,85,-16
-34,100,-21
-30,79,-14
-26,71,-9
-19,66,-4
-23,79,-15
-22,80,-21
-18,75,-33
-15,71,-33
-16,58,-21
-16,53,-13
-16,45,-10
-14,35,-5
-15,37,-5
-22,52,-9
-22,58,-8
-9,62,3
-8,63,11
-6,64,13
-6,51,21
-19,57,14
-17,76,13
-15,76,19
-15,82,16
-21,84,16
-23,73,19
-5,60,19
-7,65,19
-16,65,12
-21,64,-1
-23,56,-7
-27,48,-6
-18,53,1
-12,55,7
-14,46,7
-14,49,5
-20,55,7
-26,56,8
-25,59,18
-31,70,14
-26,80,20
-24,90,16
-28,100,9
-23,91,5
-16,72,5
-12,66,3
-11,72,0
-12,72,1
-12,71,-2
-12,65,-5
-12,61,-5
-11,57,-4
-11,54,-4
-13,47,-4
-13,42,-3
-12,42,-2
-12,44,2
-12,48,2
-14,57,2
-17,61,2
-23,65,-3
-28,99,-2
-32,95,-2
-34,76,3
-32,64,10
-21,42,10
-30,61,7
-36,65,5
-41,66,0
-40,67,1
-29,68,6
-19,60,8
-19,58,7
-21,59,5
-24,59,5
-26,58,2
-23,61,2
-22,71,-2
-24,86,-3
-25,88,-4
-21,86,-5
-18,76,-5
-15,62,-8
-15,63,-13
-15,63,-17
-17,68,-26
-17,66,-31
-21,57,-41
-17,60,-40
-16,60,-38
-17,59,-35
-18,60,-33
-21,65,-31
-21,72,-27
-20,77,-26
-16,83,-23
-14,82,-20
-12,82,-14
-12,80,-11
-11,75,-6
-10,73,-5
-11,79,-6
-11,69,-4
-11,60,1
-9,51,11
-5,45,21
-4,50,26
-1,59,21
-1,65,15
-6,76,9
-12,76,14
-13,71,16
-11,68,14
-10,68,14
-9,66,16
-14,63,13
-17,63,10
-19,64,8
-20,65,7
-18,64,10
-18,64,11
-19,60,9
-21,61,8
-22,62,9
-23,64,7
-23,76,5
-23,78,3
-25,77,2
-25,73,3
-23,59,6
-19,58,5
-12,68,4
-12,80,5
-14,85,2
-13,77,-1
-13,71,0
-11,62,5
-9,59,7
-5,52,10
-5,47,13
-4,45,13
-3,42,13
-4,45,13
-6,55,13
-8,65,12
-9,65,10
-13,92,4
-18,89,2
-30,82,2
-40,70,3
-31,58,1
-13,65,2
-14,72,3
-21,69,4
-28,59,1
-27,55,-2
-27,53,-5
-28,53,-4
-28,55,-1
-26,55,3
-25,57,9
-37,58,18
-27,59,22
-6,67,35
-11,71,33
-5,71,24
-13,70,11
-13,71,7
-18,94,5
-20,97,5
-22,69,6
-13,47,5
-11,51,4
-12,73,-1
-11,78,-4
-11,78,-10
-8,69,-6
-7,62,-2
-6,49,9
-6,45,12
-6,41,13
-8,43,11
-8,47,12
-7,52,13
-7,58,12
-11,75,10
-16,84,8
-35,90,10
-23,82,7
-5,93,5
-6,90,6
-12,80,5
-21,54,-1
-19,33,-13
-21,45,-14
-27,58,-13
-27,58,-13
-22,58,-9
-17,54,-3
-14,50,0
-17,49,5
-20,49,5
-30,58,3
-37,64,3
-46,72,7
-53,80,8
-48,85,7
-59,104,17
-62,112,19
-78,118,-8
-81,127,-18
-46,127,-21
-17,64,-33
-15,43,-23
-31,39,-34
-27,26,-33
-31,24,-27
-14,40,0
-20,36,8
-32,35,17
-17,33,30
-39,10,58
-54,-4,37
-47,2,38
-57,3,41
-65,0,33
-52,3,42
-56,-1,46
-63,-2,47
-61,6,53
-61,8,51
-51,8,46
-35,10,46
-28,8,43
-23,7,45
-21,5,45
-27,10,49
-37,6,31
-32,2,26
-21,-3,21
-21,0,24
-39,17,34
-50,24,33
-64,24,22
-89,30,32
-89,30,34
-74,19,36
-69,21,37
-57,19,37
-49,19,32
-42,18,27
-25,27,7
-35,46,12
-28,83,26
-29,70,12
-29,64,8
-29,56,6
-27,57,5
-18,69,-1
-22,85,-4
-24,86,-4
-33,82,-10
-39,75,-12
-36,65,-17
-30,64,-10
-19,62,-5
-14,59,2
-9,59,3
-12,60,-1
-14,62,-3
-16,65,-3
-17,80,-5
-17,91,-6
-20,70,-5
-19,67,0
-24,56,4
-20,81,5
-17,86,1
-8,80,0
-3,76,2
5,59,7
-1,44,8
-5,40,8
-10,39,6
-10,40,4
-17,49,4
-25,52,3
-40,53,-4
-39,52,-5
-37,55,0
-30,62,7
-27,64,5
-31,92,9
-26,89,20
-28,77,17
-25,46,6
-16,42,3
-5,62,7
-21,80,2
-27,80,-1
-31,75,-6
-28,70,-7
-18,60,-2
-15,54,-4
-15,56,-4
-14,56,-4
-13,52,-3
-15,51,-5
-16,47,-7
-22,51,-8
-37,59,3
-38,61,2
-15,74,0
-6,78,8
-5,80,28
6,67,35
6,60,33
-5,52,25
-5,55,24
-2,64,25
1,71,22
-1,69,18
-6,62,10
-8,58,7
-14,53,-1
-17,55,-4
-21,56,-6
-25,61,-1
-27,59,3
-31,58,5
-30,61,5
-26,69,11
-16,77,15
-13,90,18
-13,75,12
-13,69,11
-14,64,2
-12,62,-6
-12,60,-9
-13,61,-14
-13,63,-13
-15,62,-17
-14,56,-17
-14,54,-17
-17,52,-15
-18,57,-14
-16,68,-8
-13,73,-4
-7,78,4
-1,64,21
-1,60,19
-4,50,9
-7,50,4
-15,56,-6
-21,59,-12
-22,63,-10
-23,68,-7
-24,71,-6
-25,70,0
-21,66,3
-19,65,4
-19,67,6
-19,66,4
-21,65,3
-22,65,-1
-22,65,-1
-23,66,-1
-23,66,-2
-22,66,-5
-22,65,-7
-22,63,-9
-21,64,-13
-21,69,-15
-22,64,-13
-21,57,-11
-18,54,-5
-17,55,-4
-17,60,-4
-17,65,-6
-17,71,-7
-16,78,-5
-12,73,0
-10,68,2
-11,64,4
-12,63,5
-1,59,16
0,53,17
-4,52,15
-12,52,9
-14,53,8
-11,54,8
-10,55,9
-10,59,10
-11,59,9
-11,60,9
-15,62,8
-17,63,8
-20,77,7
-23,88,10
-22,85,10
-17,83,11
-12,76,15
-3,61,17
3,62,19
2,66,14
-8,69,4
-13,71,-1
-17,69,-4
-17,65,-3
-15,59,1
-9,53,5
-8,51,5
-8,49,5
-8,49,6
-7,54,6
-6,65,6
-7,68,6
-6,72,10
-8,81,8
-7,72,14
-10,81,20
-10,73,19
-8,56,11
-6,49,6
-11,65,6
-8,72,8
-9,74,7
-10,74,1
-11,66,-2
-18,53,-2
-19,48,-2
-15,44,-1
-12,52,1
-11,56,2
-13,56,6
-14,58,6
-17,71,2
-19,76,-3
-21,95,-6
-24,95,-4
-26,74,1
-18,42,4
-1,55,5
0,64,4
31,72,0
26,62,-10
-2,70,-22
10,71,0
15,69,5
-12,66,-19
-19,65,-22
0,59,-13
0,56,-12
-5,56,-12
-14,56,-14
-17,58,-15
-20,61,-15
-21,66,-18
-22,97,-18
-20,68,-5
-21,57,1
-8,47,6
3,59,1
16,59,-5
37,57,11
29,49,8
10,66,5
5,60,5
-12,58,2
-21,59,-3
-25,58,-12
-24,61,-13
-22,64,-10
-19,71,-3
-18,76,-1
-22,79,1
-26,92,3
-26,87,1
-14,70,3
-7,61,3
2,55,-3
-8,71,-21
-11,77,-28
-16,76,-33
-20,73,-41
-16,65,-42
-12,61,-39
-11,58,-38
-11,57,-34
-10,57,-33
-10,58,-30
-10,58,-28
-10,61,-23
-14,66,-17
-15,65,-10
-14,71,9
-12,89,4
-10,69,7
-2,60,23
2,57,29
2,53,29
-2,59,25
-9,63,14
-13,62,8
-14,61,7
-15,62,5
-15,63,5
-14,65,4
-17,63,3
-19,61,3
-22,55,5
-22,53,5
-21,55,4
-21,66,3
-21,67,3
-24,88,-3
-28,92,-2
-29,78,-3
-25,67,-3
-17,62,-5
-9,74,-1
-9,74,0
-18,77,-5
-24,74,-7
-25,67,-5
-20,59,-2
-18,57,-2
-18,52,3
-19,52,5
-19,53,5
-19,53,2
-21,54,0
-22,52,3
-23,50,7
-23,67,5
-26,61,3
-34,56,13
-35,52,32
-30,54,43
-19,60,40
-5,60,34
3,62,19
-7,59,5
-12,56,0
-20,58,8
-28,63,12
-41,60,-2
-29,56,-8
-25,57,-10
-22,60,-6
-23,62,-3
-31,67,5
-43,75,6
-67,102,20
-23,74,21
-11,82,27
-7,66,34
-14,65,30
-52,88,12
-72,103,-14
-71,114,-19
-57,110,-12
-53,107,-8
-52,87,-9
-54,62,-9
-56,52,-7
-45,36,1
-41,27,6
-37,14,14
-38,9,24
-33,8,27
-17,7,39
-17,8,44
-26,11,37
-35,2,32
-38,-4,32
-46,-9,36
-47,-6,39
-38,-3,33
-48,0,30
-52,-2,27
-52,-11,27
-53,-13,27
-50,-16,32
-52,-15,36
-47,-7,45
-56,0,37
-65,-3,31
-59,-6,38
-53,-8,44
-54,-16,41
-50,-23,43
-49,-25,40
-52,-28,30
-60,-28,24
-47,-24,29
-54,-25,29
-53,-22,31
-52,-24,26
-58,-18,25
-57,-16,24
-55,-15,23
-50,-16,33
-62,-17,23
-63,-20,19
-63,-19,16
-60,-21,15
-60,-18,14
-69,-20,17
-61,-30,21
-60,-30,21
-67,-27,20
-51,-28,16
-66,-16,16
-62,-19,20
-56,-7,36
-63,-5,28
-68,-15,-1
-75,-11,0
-72,-5,8
-68,-16,11
-27,-22,31
-56,-30,18
-57,-35,14
-56,-28,32
-50,-24,28
-58,-29,26
-48,-35,29
-32,-45,22
-32,-48,29
-33,-36,48
-29,-43,49
-26,-59,36
-36,-50,35
-37,-55,30
-64,-52,9
-65,-57,15
-62,-55,-10
-68,-57,-25
-4,-93,-33
46,-68,74
24,-52,91
-2,-57,58
-20,-58,36
-3,-31,52
-3,-28,44
-32,-20,43
-14,-11,56
-12,-12,55
-20,-8,54
-22,-6,52
-33,-13,44
-19,-23,52
-10,-22,59
-7,-21,63
-12,-23,61
-14,-26,65
-3,-28,78
2,-31,78
16,-37,75
20,-36,72
6,-29,62
-1,-28,54
-9,-20,46
-10,-19,45
-10,-13,48
-31,-13,40
-21,-28,38
-18,-14,57
-20,-24,78
-6,-28,81
-4,-35,78
2,-35,69
14,-36,69
12,-36,50
12,-35,43
0,-26,42
-7,-19,45
-15,-19,44
-20,-20,39
-43,-11,40
-2,-20,83
9,-24,80
18,-16,79
20,-23,79
8,-26,60
-15,-24,47
-4,-26,48
-11,-30,61
-7,-30,66
1,-23,69
16,-28,60
13,-27,56
-3,-25,56
14,-27,70
15,-27,70
-21,-27,33
-7,-27,46
-16,-32,59
-26,-27,54
-24,-28,48
-22,-27,43
-17,-31,51
-29,-27,58
-29,-24,63
-39,-23,56
-37,-22,50
-16,-21,61
-24,-17,69
-39,-23,52
-38,-32,36
-33,-33,31
-32,-30,32
-42,-26,48
-43,-28,53
-32,-24,46
-33,-26,47
-38,-16,47
-42,-11,32
-27,-12,23
-6,-2,32
-37,-34,28
-55,-23,100
-60,-28,94
-14,-18,82
-34,-19,51
-31,-8,51
-43,-8,52
-31,-11,53
-13,-11,36
-23,-4,45
-10,2,49
-20,-15,75
-3,-28,97
-16,-13,100
-36,-31,29
-12,-25,43
2,-18,62
3,-16,72
-14,-21,68
-10,-22,62
-3,-26,65
-5,-24,66
-10,-20,67
-1,-15,65
-4,-17,61
-11,-23,54
-14,-29,51
-19,-28,51
-32,-20,58
-29,-18,62
-28,-16,63
-14,-13,64
-10,-5,71
-36,-7,63
-22,-14,60
-15,-36,54
-17,-38,49
-23,-37,45
-34,-35,37
-38,-35,35
-49,-32,30
-47,-30,35
-31,-36,36
-23,-45,24
-23,-43,25
-32,-37,21
-39,-33,26
-58,-30,38
-66,-35,39
-65,-34,37
-73,-29,29
-70,-25,32
-63,-19,24
-51,-16,22
-47,-14,24
-50,-10,27
-51,-15,23
-54,-14,27
-64,-8,32
-68,-5,34
-51,-8,43
-39,-10,37
-41,-11,33
-38,-10,30
-40,-10,30
-61,-8,26
-69,-4,30
-77,3,32
-79,3,26
-82,9,24
-68,10,27
-62,11,30
-58,12,33
-54,12,35
-47,10,38
-41,5,40
-35,2,43
-37,-2,37
-40,-1,36
-47,-1,33
-46,-2,30
-60,-2,21
-75,0,21
-70,-3,12
-70,-9,-9
-77,-11,-19
-75,0,-31
-85,1,-44
-78,-2,-50
-51,2,-42
-42,0,-38
-46,-4,-30
-54,-3,-33
-58,-1,-35
-54,2,-33
-54,2,-29
-54,2,-18
-47,-3,-14
-48,-5,-14
-48,-5,-18
-45,-6,-23
-54,-4,-31
-58,0,-23
-55,1,-22
-71,11,-23
-79,15,-23
-86,24,-15
-85,30,-11
-88,23,-18
-56,16,-3
-58,16,-8
-49,15,-16
-46,19,-15
-57,13,-18
-46,6,-9
-41,4,-5
-40,-2,-1
-38,-2,6
-46,3,12
-50,8,10
-45,8,8
-37,7,3
-36,11,1
-70,42,-9
-76,74,-5
-68,80,-1
-27,77,10
-9,77,17
3,82,26
1,83,25
-13,86,19
-34,76,5
-39,69,-2
-38,59,-8
-33,56,-7
-23,52,2
-16,50,10
-15,48,12
-13,50,12
-13,55,11
-15,69,9
-16,78,10
-16,72,10
-15,92,9
-14,87,11
-14,67,24
-12,57,25
-7,61,19
-3,68,14
-4,64,11
-6,59,10
-6,54,10
-7,49,11
-7,45,11
-8,43,10
-8,44,13
-10,48,23
-26,46,17
-38,57,0
-54,67,-7
-56,85,-18
-54,105,-14
-46,75,-4
-21,66,10
-10,58,13
-5,70,19
-11,71,17
-15,70,5
-17,70,2
-22,60,-2
-20,53,1
-16,50,2
-11,47,5
-10,44,8
-6,41,10
-5,46,9
-6,53,7
-9,67,7
-11,71,10
-14,95,11
-18,90,22
-19,85,31
-18,55,31
-19,45,22
-17,54,14
-5,60,11
-4,64,10
-8,65,9
-14,64,15
-30,46,10
-43,45,-1
-68,46,-12
-58,62,-9
-45,67,-7
-23,71,3
-29,75,8
-30,71,4
-34,86,0
-32,78,-1
-26,56,-8
-19,52,-10
-16,57,-13
-19,54,-12
-18,56,-8
-9,54,-4
-14,63,-8
-32,65,-8
-33,64,-2
-36,50,-1
-37,47,-10
-39,48,-18
-31,54,-20
-32,53,-24
-28,57,-30
-37,65,-27
-40,62,-26
-45,54,-25
-47,49,-22
-43,47,-10
-37,54,-6
-39,53,-11
-39,54,-12
-38,55,-10
-39,46,-9
-42,37,-10
-45,34,-12
-48,25,-16
-45,23,-15
-52,21,-15
-47,20,-18
-53,17,-20
-51,18,-24
-44,21,-23
-52,22,-35
-49,24,-32
-49,38,-31
-52,46,-33
-49,46,-29
-47,48,-25
-46,49,-27
-37,53,-22
-35,53,-28
-33,53,-32
-41,48,-35
-38,47,-34
-35,41,-32
-30,40,-27
-30,39,-27
-31,41,-29
-32,41,-27
-31,42,-21
-30,42,-19
-38,41,-19
-54,38,-32
-56,39,-33
-42,36,-20
-39,40,-8
-51,48,2
-42,45,5
-35,45,14
-35,49,31
-36,43,35
-27,26,13
-24,27,19
-19,25,20
-21,35,25
-30,41,22
-27,45,13
-25,51,13
-26,60,15
-27,68,9
-37,69,3
-42,69,-1
-38,68,4
-30,62,3
-33,56,2
-32,53,0
-38,62,-2
-37,61,-4
-33,54,-10
-31,51,-6
-30,51,-3
-37,52,-6
-40,54,-6
-36,62,1
-32,63,0
-29,62,0
-34,67,3
-36,64,7
-33,63,9
-35,61,5
-35,60,11
-33,60,4
-34,59,-2
-39,63,-6
-31,61,-3
-28,60,-1
-29,61,0
-31,61,0
-38,61,3
-38,54,2
-34,58,2
-37,57,3
-32,59,3
-31,62,6
-31,62,4
-29,60,7
-26,60,11
-32,60,7
-25,58,8
-29,57,-3
-18,63,-3
-15,61,3
-22,61,17
-21,58,10
-13,55,11
-2,53,24
7,53,35
11,57,39
3,62,43
-10,62,39
-14,59,24
-10,58,18
-20,61,13
-15,59,13
-9,61,20
-17,63,21
-10,60,20
-16,63,16
-16,63,14
-13,62,12
-19,64,15
-20,63,13
-17,63,14
-18,63,14
-17,61,13
-14,60,11
-16,60,11
-17,59,14
-21,60,13
-18,60,12
-17,60,12
-17,61,13
-19,61,14
-20,61,15
-18,58,16
-19,59,17
-19,58,18
-21,58,15
-21,58,15
-17,58,22
-19,59,23
-18,56,20
-15,58,23
-18,59,19
-15,63,21
-16,62,23
-12,61,21
-9,59,23
-11,60,21
-15,61,17
-11,60,17
-11,59,17
-17,63,18
-16,62,20
-20,60,22
-20,60,24
-19,58,29
-14,59,30
-13,59,28
-17,62,20
-20,63,17
-22,62,13
-19,62,12
-21,62,7
-21,59,8
-24,59,4
-23,59,5
-19,58,12
-17,59,14
-17,63,17
-15,65,21
-16,62,13
-18,64,14
-17,62,16
-21,63,15
-25,63,13
-13,56,3
-17,57,2
-16,62,16
-15,59,16
-17,57,14
-11,60,28
-11,61,34
-5,61,61
-8,54,40
-3,57,6
-20,62,25
-19,58,20
-16,55,22
-19,57,24
-17,59,27
-19,56,20
-11,58,21
-7,58,18
-8,60,25
-8,60,20
-15,65,21
-11,63,16
-14,63,10
-17,63,13
-8,71,13
-11,65,18
-9,61,16
-14,56,13
-14,55,19
-13,59,33
-9,61,35
-10,58,36
-5,57,36
-6,55,32
-6,54,32
-14,54,27
-14,60,33
-9,60,28
-6,60,28
-9,58,20
-19,61,20
-13,60,16
-25,57,12
-21,62,16
-9,61,25
-13,55,32
-10,57,28
-16,53,26
-16,57,30
-11,53,37
-14,58,37
-5,58,31
-4,59,29
-26,74,41
-23,54,17
-29,45,16
-27,55,33
-21,55,28
-15,56,23
-21,56,25
-28,53,15
-12,53,30
-14,57,40
-17,56,35
-23,50,38
-27,50,34
-32,43,28
-35,40,35
-41,43,35
-43,39,33
-36,39,49
-37,35,34
-47,27,22
-48,36,40
-39,34,47
-48,39,38
-36,31,27
-38,35,31
-42,44,29
-42,43,20
-35,46,17
-38,41,7
-35,41,9
-32,41,18
-28,42,15
-27,43,18
-31,49,29
-21,47,28
-50,51,21
-45,54,15
8,57,40
8,55,31
75,82,93
0,77,57
-1,64,59
1,51,44
-8,54,31
-19,56,17
-32,63,15
-24,66,21
-22,53,1
-11,58,15
-12,56,34
-6,52,47
-10,52,49
-12,53,51
-12,51,39
-15,51,29
-19,55,31
-21,55,30
-20,56,27
-23,57,23
-20,57,27
-20,59,29
-22,52,24
-20,56,37
-21,60,41
-15,53,41
-16,49,42
-19,51,44
-31,48,43
-40,45,46
-28,40,46
-34,40,40
-33,41,35
-34,38,24
-29,41,27
-24,43,20
-23,45,16
-16,55,21
-15,57,20
-13,59,23
-4,55,25
-7,53,14
-25,74,48
-27,81,79
-27,55,26
-17,59,29
-28,58,28
-17,52,28
-9,51,28
-16,55,30
-21,57,24
-19,55,24
-9,53,32
-2,55,43
-29,58,23
-29,48,19
-12,52,31
-25,55,28
-26,54,25
-23,56,25
-26,56,22
-22,54,23
-31,55,23
-28,56,24
-28,57,23
-28,58,23
-22,56,26
-18,59,36
-21,58,32
-27,56,24
-25,56,29
-19,59,31
-23,58,31
-17,59,39
-18,63,45
-26,62,29
-44,59,20
-32,51,13
-32,48,13
-17,43,14
-16,39,13
-13,37,10
-14,38,4
-19,45,0
-35,48,1
-37,45,1
-31,61,-6
-54,118,95
-21,56,15
-17,63,-1
-12,71,6
-18,61,11
-22,62,16
-21,62,15
-19,60,3
-23,60,2
-18,62,11
-18,61,13
-20,61,10
-20,62,6
-15,60,5
-25,62,12
-26,65,16
-17,68,8
-18,67,10
-26,61,28
-30,44,12
-48,46,4
-65,58,12
-63,57,22
-53,60,19
-44,57,10
-35,57,7
-13,48,0
-4,48,2
-6,48,2
-15,50,-5
-17,53,-6
-17,60,2
-16,62,12
-21,69,17
-9,70,13
-17,85,51
0,77,40
-6,74,32
-18,64,20
-18,56,17
-27,51,16
-27,53,23
-29,54,24
-35,55,29
-31,54,36
-24,50,56
-34,39,49
-37,43,42
-48,40,41
-51,44,42
-40,48,32
-30,48,15
-28,52,13
-22,59,1
-23,63,-7
-31,70,-11
-26,68,-4
-14,69,10
-24,59,10
-15,60,12
-18,58,14
-23,59,28
-22,61,47
-16,60,42
-20,59,29
-18,53,20
-27,54,14
-32,52,10
-24,56,12
-22,60,15
-28,66,25
-24,67,33
-36,73,43
-37,67,33
-24,54,37
-19,49,19
-10,44,13
-9,45,11
-13,47,10
-19,54,13
-21,55,7
-18,51,8
-19,45,0
-29,53,-15
-44,66,-6
-64,79,18
-69,73,31
-16,66,10
-14,68,2
-23,74,10
-15,69,12
-17,67,10
-19,66,20
-21,65,21
-14,62,36
-2,61,38
-16,64,26
-33,67,11
-32,66,9
-29,65,13
-31,65,15
-32,64,16
-30,70,11
-31,70,11
-40,69,8
-47,66,1
-38,66,12
-34,54,-7
-39,51,-13
-34,45,-13
-29,39,-14
-16,37,-2
-22,38,-11
-24,29,-17
-33,21,-18
-33,22,-27
-24,31,-26
-30,38,-35
-24,42,-36
-39,47,-37
-44,57,-35
-45,74,-37
-60,76,-43
-59,62,-29
-59,56,-34
-58,52,-36
-46,45,-35
-49,42,-32
-44,44,-33
-50,48,-29
-49,49,-29
-45,52,-29
-45,52,-28
-39,51,-32
-39,49,-34
-40,47,-30
-38,43,-31
-40,41,-32
-47,38,-34
-45,35,-32
-41,31,-28
-46,25,-29
-46,23,-25
-44,17,-18
-38,13,-14
-39,10,-9
-43,7,-8
-47,5,-8
-53,4,-7
-58,5,-7
-73,19,-12
-66,33,5
-65,37,1
-62,23,-18
-61,18,-26
-59,16,-21
-57,17,7
-62,14,13
-68,8,4
-71,5,-7
-71,2,-18
-63,0,-15
-43,0,-5
-47,2,1
-55,9,3
-72,23,3
-80,32,2
-79,49,-3
-65,54,-5
-52,53,-1
-31,49,5
-23,47,7
-13,47,15
-15,55,22
-20,59,22
-32,73,15
-33,77,9
-34,68,-3
-29,73,-3
-26,75,-1
-8,73,4
0,72,8
5,70,11
3,71,13
-9,69,19
-19,61,16
-20,58,12
-22,57,9
-25,58,11
-26,60,13
-25,64,14
-23,64,15
-19,62,14
-18,61,15
-20,60,14
-23,59,9
-24,61,8
-24,65,4
-23,65,4
-23,77,3
-22,81,6
-15,64,9
-11,63,8
-12,61,9
-13,58,8
-14,53,6
-14,54,6
-15,55,3
-16,56,1
-18,58,0
-21,59,-1
-27,59,-2
-32,60,-1
-31,61,-1
-25,61,2
-20,62,4
-16,63,7
-15,65,12
-13,66,14
-10,69,17
-8,68,20
-5,64,24
-3,62,25
-1,57,23
-3,54,13
-4,53,15
-18,52,23
-25,51,21
-35,68,16
-41,78,28
-52,75,27
-43,70,25
-28,68,26
-21,77,26
-17,88,25
-13,89,22
-9,79,13
-8,70,10
-10,52,4
-18,37,1
-23,31,-1
-36,26,-6
-40,25,-4
-37,31,5
-36,33,7
-43,42,15
-48,37,18
-45,47,19
-48,54,7
-48,52,3
-41,52,9
-36,48,11
-30,45,13
-19,42,14
-16,42,15
-12,45,14
-9,53,9
-8,59,6
-10,74,0
-12,82,-6
-16,103,-18
-21,104,-18
-30,84,-5
-29,69,-6
-28,63,-7
-24,75,-5
-22,74,-7
-15,68,-1
-10,59,1
-8,55,3
-8,57,7
-12,58,4
-19,56,1
-25,51,1
-27,51,2
-29,52,10
-32,54,12
-40,63,16
-52,82,13
-53,108,13
-26,82,14
-10,74,13
-7,61,6
-11,72,8
-6,81,10
-5,84,10
-11,82,8
-15,74,7
-10,69,6
-7,61,1
-10,58,-3
-11,55,-5
-13,48,-8
-14,47,-9
-13,50,-8
-17,56,-7
-19,57,-6
-42,85,-15
-47,74,-14
-51,58,3
-45,42,18
-45,45,23
-58,60,20
-61,58,15
-52,55,17
-46,53,21
-36,43,26
-32,37,23
-32,36,19
-38,34,13
-40,33,11
-38,28,8
-44,30,2
-47,31,0
-51,35,-5
-46,47,1
-65,61,-15
-63,47,-24
-63,49,-15
-57,52,-9
-50,47,-15
-51,47,-15
-60,45,-10
-45,37,-2
-40,32,-3
-39,29,-1
-37,28,6
-34,28,7
-39,30,3
-42,34,-1
-44,37,0
-46,42,2
-48,45,3
-50,68,-2
-61,71,-11
-61,66,-8
-45,55,1
-34,57,5
-39,69,3
-4,56,7
3,55,19
-7,57,22
-5,56,22
-13,50,21
-15,48,18
-29,44,7
-58,38,2
-56,37,11
-48,42,19
-58,46,16
-62,50,24
-71,68,27
-71,70,27
-61,51,25
-54,49,24
-49,58,20
-43,56,19
-38,58,19
-37,57,13
-33,54,13
-23,45,13
-19,35,9
-18,34,10
-13,32,13
-10,33,14
-5,36,14
-3,45,14
-3,52,16
-1,70,18
-9,96,14
-17,115,12
-21,101,14
-30,88,13
-38,80,15
-30,76,15
-18,70,14
-15,60,12
-13,43,14
-19,41,15
-24,46,11
-36,49,3
-40,46,1
-42,44,2
-44,46,2
-44,46,-1
-47,55,-7
-50,62,-11
-52,98,-19
-48,109,-17
-34,75,-8
-23,65,-3
-18,73,-2
-16,92,-4
-17,99,-8
-8,71,-8
-7,66,-4
-7,63,-3
-8,53,1
-11,51,3
-13,49,8
-18,52,2
-20,58,2
-20,61,6
-21,61,9
-30,54,8
-27,46,15
-29,45,17
-34,39,5
-34,40,2
-41,43,-29
-47,44,-49
-55,40,-67
-42,44,-56
-39,45,-51
-34,47,-48
-40,49,-50
-37,51,-44
-37,50,-41
-37,51,-38
-36,51,-35
-36,47,-34
-40,46,-29
-38,49,-26
-39,50,-23
-61,51,-35
-46,52,-27
-32,45,-22
-7,54,-2
-9,55,5
-24,51,-9
-27,49,-13
-27,49,-15
-23,48,-14
-17,50,-9
-17,58,-9
-19,62,-14
-21,69,-17
-22,74,-16
-28,91,-9
-37,88,-12
-32,83,-17
-29,76,-23
-32,75,-23
-34,72,-18
-34,70,-14
-35,66,-8
-36,65,-8
-39,64,-10
-30,62,-10
-25,60,-9
-19,62,-12
-11,64,-12
-8,65,-11
-9,75,-17
-13,75,-18
-16,57,-17
-10,60,-11
-7,60,-8
-9,74,-11
-13,84,-14
-8,82,-16
-8,73,-8
-8,67,-6
-9,61,-4
-8,59,-5
-9,55,-5
-7,50,-4
-5,50,-2
-7,50,3
-11,52,7
-13,58,11
-12,60,12
-15,60,11
-16,61,6
-19,61,2
-24,67,-3
-26,78,-7
-30,86,-2
-22,80,2
-15,78,4
-7,62,4
-8,63,0
-12,72,-5
-18,82,-8
-22,78,-11
-25,75,-18
-24,70,-19
-19,62,-18
-18,64,-15
-15,63,-13
-12,58,-9
-11,58,-6
-9,61,-5
-9,60,-2
-9,62,1
-9,63,4
-9,61,2
-13,70,0
-12,59,3
-12,49,20
-9,47,20
-9,62,22
-18,84,23
-25,80,16
-27,67,2
3,62,2
2,61,2
1,65,9
-2,64,13
-17,66,10
-24,66,9
-23,61,6
-27,58,2
-28,60,3
-31,67,6
-35,70,7
-31,88,8
-21,78,12
-16,81,15
-7,65,19
-5,61,17
-4,70,11
-13,84,8
-15,94,5
-20,88,-1
-17,82,-2
-13,68,-1
-12,59,-3
-12,55,-4
-15,51,-5
-17,49,-2
-4,46,0
0,46,4
-5,46,4
-5,49,8
-5,47,9
-6,65,4
-7,70,3
-12,86,13
-20,83,15
-27,83,13
-70,84,5
-14,65,3
46,69,51
9,74,11
0,66,-5
-17,57,-17
-27,52,-20
-32,47,-22
-27,49,-13
-24,53,-7
-16,61,0
-15,65,-5
-36,85,11
-53,87,11
-40,96,8
-37,70,11
-37,64,15
-35,53,8
-34,54,3
-22,78,8
-6,92,5
-3,94,8
-7,92,5
-9,88,2
-11,78,0
-13,68,-4
-12,64,-3
-11,57,0
-9,51,2
-7,45,5
-6,43,6
-3,42,7
-3,44,7
-3,52,6
-7,68,6
-8,67,7
-10,67,5
-16,70,5
-21,80,3
-59,97,7
-49,84,1
14,83,18
3,69,22
-3,66,19
-14,59,1
-19,57,-6
-26,57,-11
-33,60,-7
-31,60,0
-30,61,9
-30,63,13
-37,72,14
-39,71,10
-40,90,15
-31,70,14
-26,67,14
-26,62,7
-26,63,7
-15,66,4
-11,70,0
-10,78,-1
-13,93,-11
-14,90,-14
-15,75,-13
-13,61,-8
-12,56,-7
-11,52,-7
-10,51,-7
-10,49,-6
-10,45,-4
-9,44,-3
-8,46,1
-7,49,2
-10,56,3
-12,59,3
-19,82,2
-38,93,7
-48,92,11
-59,65,16
-55,56,17
-42,79,68
-37,77,29
-42,70,11
-45,71,2
-50,68,-3
-50,61,0
-50,59,6
-54,59,9
-52,53,12
-55,50,13
-66,44,26
-57,43,51
-31,25,60
-42,6,58
-34,-5,59
-21,-22,38
-14,-29,28
-9,-25,23
1,-27,13
-6,-28,18
-10,-16,62
-7,-12,66
-4,-15,64
2,-9,57
14,-10,50
18,7,50
24,8,51
44,5,52
48,-2,43
50,-3,41
41,4,46
44,6,49
49,7,50
50,7,49
39,5,45
37,4,43
48,2,51
38,9,56
34,7,57
33,4,56
39,1,54
38,1,53
34,1,51
34,1,49
38,0,49
42,-2,48
38,-5,47
39,-7,48
43,-6,49
34,-6,46
48,-2,52
40,-1,46
47,-1,56
43,-3,47
42,-1,53
36,-2,53
30,0,54
40,-11,47
38,-3,48
40,-4,50
40,-5,50
37,-3,52
36,-1,52
38,-3,51
39,-2,51
40,-3,51
37,-3,50
40,-1,50
38,-1,50
41,-2,52
39,-2,51
38,-2,51
39,-2,53
39,-2,53
39,-2,53
37,0,51
40,-2,51
42,-4,51
44,-6,53
42,-7,49
41,-5,49
40,-6,47
39,-7,47
39,-9,47
