1603996930.00
64.000000
-0.00
-0.00
-0.00
-0.00
-0.00
-0.00
-0.00
-0.00
-0.00
-0.00
0.00
0.01
0.01
-0.00
-0.03
-0.05
-0.05
0.00
0.13
0.36
0.66
1.01
1.37
1.72
2.06
2.40
2.79
3.24
3.80
4.42
5.06
5.66
6.20
6.68
7.15
7.68
8.31
9.14
10.09
11.04
11.88
12.56
13.14
13.76
14.65
15.96
17.91
20.32
22.90
25.38
27.58
29.57
31.68
34.32
37.81
42.54
48.15
54.10
59.83
64.97
69.58
74.14
79.34
85.71
93.76
103.00
112.62
121.73
129.77
136.75
143.30
150.75
157.77
166.64
177.95
191.79
206.97
220.57
228.25
225.36
208.53
176.87
132.76
80.05
23.07
-34.94
-92.44
-149.16
-205.23
-260.37
-313.74
-363.87
-409.83
-450.91
-486.50
-515.74
-537.23
-549.22
-549.96
-538.37
-514.21
-478.67
-433.88
-382.45
-327.02
-269.84
-212.63
-156.66
-102.95
-52.37
-5.90
35.58
71.43
101.35
125.50
144.38
158.69
169.15
176.37
180.75
182.57
182.07
179.51
175.23
169.65
163.18
156.15
148.81
141.30
133.69
126.02
118.33
110.69
103.16
95.80
88.68
81.83
75.25
68.95
62.95
57.25
51.86
46.78
42.03
37.59
33.45
29.61
26.07
22.81
19.83
17.11
14.67
12.48
10.54
8.83
7.35
6.07
4.97
4.05
3.27
2.62
2.09
1.65
1.30
1.01
0.79
0.61
0.48
0.38
0.31
0.26
0.23
0.22
0.22
0.23
0.25
0.28
0.31
0.35
0.39
0.43
0.48
0.52
0.57
0.62
0.67
0.73
0.79
0.86
0.93
1.01
1.10
1.20
1.31
1.44
1.58
1.74
1.91
2.11
2.33
2.57
2.83
3.13
3.45
3.80
4.18
4.61
5.07
5.56
6.09
6.66
7.28
7.93
8.64
9.38
10.17
11.01
11.89
12.82
13.80
14.84
15.93
17.10
18.33
19.62
20.92
22.21
23.40
24.40
25.08
25.32
24.99
23.98
22.24
19.72
16.50
12.64
8.32
3.74
-0.88
-5.29
-9.29
-12.69
-15.38
-17.27
-18.37
-18.72
-18.41
-17.58
-16.37
-14.93
-13.40
-11.88
-10.43
-9.05
-7.68
-6.31
-4.91
-3.45
-1.93
-0.36
1.25
2.93
4.71
6.72
8.90
11.23
13.67
16.15
18.59
20.94
23.21
25.57
28.26
31.26
34.56
38.11
41.75
45.25
48.44
51.30
54.05
57.14
60.58
64.42
68.52
72.55
76.02
78.55
80.03
80.80
81.61
82.55
83.71
84.70
84.67
82.35
76.42
65.66
48.84
29.49
9.16
-11.17
-31.27
-51.50
-72.63
-95.49
-120.81
-149.01
-179.74
-212.30
-244.40
-272.52
-292.85
-302.64
-301.36
-291.00
-275.17
-257.43
-240.29
-223.91
-206.73
-186.81
-163.17
-136.32
-107.91
-79.82
-53.29
-29.11
-7.48
11.46
27.28
39.25
46.77
49.84
49.27
46.56
43.28
40.75
39.62
39.82
40.69
41.44
41.47
40.57
38.94
36.95
34.97
33.17
31.55
29.88
27.88
25.27
21.81
17.27
11.40
4.10
-4.46
-13.56
-21.92
-27.85
-29.73
-26.52
-18.12
-5.48
9.75
25.63
40.40
52.81
62.13
68.10
70.79
70.52
67.82
63.31
57.68
51.60
45.60
40.12
35.43
31.63
28.65
26.26
24.19
22.08
19.67
16.78
13.29
9.16
4.45
-0.70
-6.04
-11.31
-16.35
-21.23
-26.27
-31.81
-37.90
-43.99
-48.82
-50.79
-48.39
-40.88
-28.59
-12.88
4.30
20.93
35.42
46.81
54.74
59.29
60.80
59.79
56.91
52.81
48.07
43.07
37.97
32.86
27.76
22.80
18.18
14.13
10.78
8.14
6.11
4.49
3.09
1.69
0.13
-1.69
-3.74
-5.86
-7.85
-9.59
-11.27
-13.30
-16.28
-20.57
-26.02
-31.71
-36.17
-37.73
-35.20
-28.19
-17.25
-3.63
11.17
25.81
39.19
50.53
59.13
64.35
65.67
62.95
56.68
47.95
38.23
28.92
20.98
14.73
9.91
5.96
2.34
-1.32
-5.21
-9.41
-13.93
-18.70
-23.55
-28.15
-32.14
-35.32
-37.88
-40.38
-43.62
-48.33
-54.76
-62.42
-70.04
-75.79
-77.80
-74.72
-66.17
-52.91
-36.56
-19.21
-2.81
11.20
22.05
29.57
34.00
35.82
35.63
34.07
31.79
29.40
27.44
26.33
26.32
27.52
29.89
33.29
37.40
41.80
45.95
49.35
51.59
52.51
52.22
51.05
49.48
47.96
46.70
45.54
43.96
41.28
36.94
30.88
23.84
17.32
13.35
13.94
20.43
33.08
50.83
71.55
92.54
111.27
125.90
135.55
140.24
140.44
136.71
129.38
118.52
104.09
86.24
65.45
42.68
19.18
-3.58
-24.22
-41.64
-55.28
-65.21
-72.05
-76.65
-79.78
-81.82
-82.88
-82.92
-82.18
-81.17
-80.65
-81.42
-84.02
-88.73
-95.49
-103.86
-112.94
-121.30
-127.07
-128.33
-123.74
-112.98
-97.04
-77.95
-58.26
-40.31
-25.80
-15.47
-9.22
-6.36
-5.87
-6.67
-7.82
-8.61
-8.65
-7.83
-6.28
-4.27
-2.02
0.33
2.81
5.52
8.57
11.86
15.07
17.68
19.12
19.01
17.31
14.36
10.75
7.12
3.85
1.05
-1.56
-4.48
-8.30
-13.48
-20.05
-27.48
-34.58
-39.72
-41.26
-38.06
-29.93
-17.75
-3.17
11.87
25.67
37.10
45.65
51.26
54.12
54.58
53.10
50.27
46.79
43.31
40.29
37.91
36.06
34.48
32.88
31.16
29.39
27.78
26.52
25.70
25.15
24.50
23.32
21.26
18.26
14.59
10.77
7.35
4.70
2.83
1.36
-0.36
-3.01
-6.97
-12.08
-17.59
-22.20
-24.49
-23.27
-18.01
-9.04
2.48
14.91
26.50
35.85
42.19
45.37
45.82
44.24
41.42
38.01
34.39
30.71
26.91
22.90
18.66
14.27
9.95
5.98
2.64
0.12
-1.50
-2.27
-2.37
-2.11
-1.84
-1.88
-2.40
-3.37
-4.63
-5.93
-7.09
-8.00
-8.77
-9.61
-10.87
-12.86
-15.72
-19.16
-22.42
-24.33
-23.69
-19.67
-12.17
-1.99
9.40
20.33
29.40
35.82
39.46
40.68
40.01
37.99
35.03
31.52
27.85
24.53
22.03
20.71
20.67
21.75
23.61
25.88
28.33
30.84
33.34
35.70
37.57
38.48
37.88
35.33
30.63
23.90
15.45
5.81
-4.48
-14.90
-25.08
-34.80
-44.09
-53.11
-62.01
-70.72
-78.80
-85.47
-89.74
-90.74
-87.99
-81.53
-71.89
-59.94
-46.64
-32.94
-19.62
-7.29
3.68
13.14
21.05
27.49
32.55
36.40
39.26
41.50
43.61
46.09
49.31
53.38
58.05
62.87
67.25
70.60
72.45
72.50
70.61
66.86
61.45
54.69
46.96
38.57
29.86
21.12
12.56
4.33
-3.52
-11.02
-18.16
-24.98
-31.44
-37.50
-43.14
-48.24
-52.63
-55.99
-57.87
-57.88
-55.79
-51.75
-46.23
-39.93
-33.48
-27.29
-21.42
-15.73
-10.00
-4.09
1.94
7.90
13.47
18.32
22.14
24.72
25.91
25.56
23.49
19.50
13.47
5.49
-3.91
-13.86
-23.31
-31.44
-38.00
-43.34
-48.27
-53.62
-59.94
-67.27
-75.08
-82.33
-87.40
-88.15
-82.24
-67.85
-44.52
-13.89
20.34
53.12
79.43
95.74
100.81
95.88
83.90
68.62
53.51
41.23
33.35
30.36
31.84
36.53
42.63
48.10
51.22
50.97
47.36
41.34
34.37
27.91
22.93
19.84
18.62
19.22
21.77
26.78
34.87
46.56
61.88
80.26
100.50
121.05
140.42
157.69
172.73
186.26
199.33
212.76
226.75
240.76
254.02
266.07
276.92
286.91
296.04
303.52
307.69
306.66
299.12
285.05
265.89
243.95
221.55
200.30
180.69
162.35
144.43
126.18
107.25
87.81
68.48
49.97
32.89
17.34
2.82
-11.60
-26.98
-44.03
-62.82
-82.69
-102.69
-121.91
-140.01
-157.28
-174.57
-192.91
-213.40
-237.21
-265.37
-298.10
-333.81
-368.30
-395.25
-407.91
-401.73
-376.36
-335.98
-287.69
-238.69
-193.93
-155.41
-123.04
-96.27
-75.31
-61.07
-54.13
-53.92
-58.55
-65.46
-72.50
-78.59
-83.90
-89.54
-96.76
-106.22
-117.58
-129.53
-140.40
-148.92
-154.75
-158.43
-160.82
-162.24
-162.07
-159.16
-152.82
-143.67
-133.83
-126.14
-122.98
-125.18
-131.96
-141.50
-152.01
-162.24
-171.76
-180.53
-188.25
-194.09
-196.84
-195.65
-190.40
-181.82
-170.84
-157.84
-142.35
-123.31
-100.10
-73.28
-44.95
-17.95
5.24
23.64
37.94
49.65
59.91
68.56
74.37
76.08
73.70
69.06
65.34
65.73
71.87
82.97
95.88
106.33
110.48
106.26
93.72
74.59
51.49
27.16
4.30
-14.39
-26.35
-29.56
-23.25
-8.49
11.77
33.43
52.38
65.84
73.00
74.86
73.50
71.00
68.77
67.19
65.91
64.28
61.80
58.45
54.73
51.48
49.46
49.05
49.92
51.19
51.73
50.69
47.94
44.12
40.38
37.89
37.28
38.58
41.33
44.91
48.75
52.40
55.46
57.57
58.53
58.45
57.63
56.68
56.32
56.86
58.09
59.17
59.07
56.94
52.37
45.25
35.82
24.62
12.27
-0.65
-13.60
-26.03
-37.23
-46.32
-52.79
-56.33
-56.95
-55.09
-51.55
-47.13
-42.19
-36.49
-29.56
-22.49
-16.78
-13.83
-14.39
-18.30
-24.44
-30.97
-35.89
-37.85
-39.15
-42.53
-49.91
-61.83
-77.91
-97.29
-118.35
-138.65
-155.10
-168.70
-180.21
-189.77
-197.18
-203.34
-210.61
-221.38
-236.68
-255.09
-278.03
-304.06
-328.94
-347.39
-356.37
-356.91
-352.83
-349.00
-317.53
-246.01
-140.84
-24.17
81.64
164.65
222.95
260.16
281.20
290.87
288.23
273.35
249.02
220.82
194.54
172.48
157.41
150.51
151.70
155.86
158.35
156.76
151.61
144.74
137.87
132.45
129.04
127.75
125.89
121.57
113.46
102.63
91.03
80.44
72.27
67.07
64.76
63.53
61.57
57.73
51.97
44.88
37.25
30.11
24.25
20.21
17.73
16.15
14.66
12.53
9.02
3.56
-3.87
-12.58
-21.08
-27.41
-29.78
-27.13
-19.34
-7.35
7.24
22.67
37.31
49.95
59.84
66.72
70.79
72.69
73.27
73.31
73.27
73.16
72.63
71.23
68.64
64.75
59.62
53.23
45.49
36.22
25.40
13.37
0.77
-11.64
-23.25
-33.94
-43.93
-53.69
-63.49
-73.17
-82.04
-89.10
-93.29
-93.87
-90.53
-83.53
-73.56
-61.63
-48.82
-36.12
-24.31
-13.97
-5.54
0.54
3.85
4.15
1.61
-3.06
-8.78
-14.45
-19.33
-23.38
-27.13
-31.34
-36.60
-42.97
-50.07
-57.22
-63.81
-69.52
-74.37
-78.69
-82.99
-87.95
-94.23
-102.37
-112.57
-124.32
-136.43
-147.00
-153.89
-155.28
-150.26
-139.11
-123.14
-104.14
-83.72
-62.75
-41.38
-19.33
3.46
26.47
48.49
68.03
83.85
95.47
103.24
107.99
110.57
111.55
111.25
109.88
107.80
105.44
103.13
100.83
98.16
94.57
89.54
82.81
74.29
64.00
51.86
37.82
22.01
5.08
-11.66
-26.45
-37.60
-44.04
-45.74
-43.62
-39.14
-33.65
-27.93
-22.07
-15.81
-9.00
-1.82
5.38
12.38
19.52
27.64
37.74
50.53
66.05
83.82
103.13
123.40
144.34
165.78
187.41
208.57
228.22
245.28
258.97
269.14
276.36
281.73
286.41
291.20
296.14
300.31
302.19
300.12
292.96
280.59
264.03
245.27
226.73
210.60
198.29
190.13
185.37
182.45
179.45
174.62
166.72
155.34
140.73
123.57
104.62
84.27
62.40
38.56
12.22
-16.75
-47.92
-80.23
-112.19
-142.18
-168.71
-190.70
-207.67
-219.82
-227.87
-232.87
-235.77
-237.07
-236.60
-233.82
-228.26
-220.14
-210.72
-201.97
-195.88
-193.58
-194.87
-198.20
-201.18
-201.15
-195.71
-183.26
-163.15
-135.95
-103.48
-68.60
-34.60
-4.65
18.71
33.60
38.55
32.36
14.63
-13.07
-46.25
-77.49
-98.17
-101.53
-85.49
-53.89
-15.10
21.19
47.57
60.99
62.44
55.05
41.89
25.22
6.96
-10.40
-23.82
-30.95
-31.85
-29.76
-30.05
-38.00
-56.13
-82.82
-112.60
-137.92
-151.11
-145.96
-119.11
-71.00
-6.45
65.86
135.25
192.04
230.64
250.67
255.87
251.22
240.37
224.60
203.89
178.85
152.11
128.07
110.97
102.74
101.85
104.06
104.69
100.93
92.92
83.27
75.23
70.61
68.76
66.93
61.79
51.22
35.19
15.57
-5.08
-24.98
-44.12
-64.11
-87.10
-114.58
-146.08
-178.60
-206.86
-224.63
-226.55
-210.26
-177.60
-134.11
-87.25
-43.70
-7.49
20.48
41.05
54.87
61.26
58.46
45.19
22.23
-7.07
-37.56
-64.09
-83.17
-93.78
-96.98
-94.94
-90.05
-84.38
-79.60
-77.04
-77.60
-81.60
-88.66
-97.78
-107.71
-117.32
-125.84
-132.72
-137.46
-139.39
-137.68
-131.61
-120.89
-105.88
-87.42
-66.51
-44.07
-20.85
2.30
24.33
43.87
59.70
71.07
77.94
80.90
80.68
77.75
72.17
63.85
53.02
40.53
27.91
16.99
9.36
5.75
5.69
7.45
8.54
6.40
-0.69
-12.95
-28.92
-45.70
-59.75
-67.96
-68.62
-61.95
-50.20
-37.09
-26.82
-22.90
-27.11
-38.92
-55.50
-72.55
-85.59
-91.34
-88.70
-78.94
-65.13
-51.01
-39.70
-32.64
-29.23
-27.16
-23.40
-15.36
-1.93
16.10
36.29
55.35
70.23
78.96
81.11
77.66
70.51
61.76
53.06
45.24
38.31
31.70
24.64
16.50
6.91
-4.36
-17.50
-32.59
-49.37
-66.85
-83.15
-95.71
-101.95
-100.16
-90.05
-72.88
-50.97
-26.93
-2.90
19.73
40.23
58.19
73.24
85.05
93.68
99.67
104.10
108.01
111.98
115.65
117.94
117.56
113.58
105.88
95.08
82.23
68.39
54.48
41.16
28.93
18.03
8.31
-0.81
-10.35
-21.44
-35.03
-51.33
-69.61
-88.07
-104.16
-115.05
-118.39
-112.92
-98.77
-77.28
-50.49
-20.55
10.65
41.38
69.83
94.01
111.84
121.80
123.42
117.57
106.33
92.40
78.41
66.46
57.87
53.20
52.15
53.66
55.95
56.90
54.76
48.77
39.57
28.90
18.99
11.59
7.35
5.66
4.95
3.21
-1.22
-9.24
-20.63
-34.04
-47.24
-57.55
-62.62
-61.21
-53.83
-42.75
-31.40
-23.23
-20.47
-23.21
-29.35
-35.49
-38.25
-35.70
-28.00
-17.03
-5.31
5.13
13.52
20.34
26.95
35.27
47.53
65.92
91.84
124.66
160.72
193.35
214.41
217.33
199.78
164.90
120.00
73.48
31.53
-3.61
-33.02
-58.83
-81.75
-100.07
-110.46
-109.85
-97.25
-74.30
-44.36
-10.84
24.13
60.22
98.29
139.09
182.17
225.46
265.57
298.86
322.61
335.74
338.94
334.04
323.05
307.30
287.00
261.59
230.37
193.24
150.85
104.41
55.12
3.77
-49.14
-102.83
-155.73
-205.38
-249.05
-284.76
-312.15
-332.66
-348.79
-362.99
-376.48
-388.74
-397.72
-400.38
-393.64
-375.17
-344.10
-301.50
-250.46
-195.69
-142.53
-95.77
-58.61
-32.05
-15.05
-5.23
0.18
3.53
6.32
9.08
11.55
13.00
12.58
9.69
4.44
-2.15
-8.23
-11.58
-10.39
-4.08
6.47
19.15
31.47
41.46
48.33
52.32
54.17
54.33
52.52
47.76
38.87
25.01
6.29
-16.12
-39.95
-62.20
-79.67
-89.61
-90.43
-82.20
-66.87
-47.76
-28.77
-13.19
-2.87
2.11
3.15
2.30
1.38
1.41
2.25
2.81
1.58
-2.49
-9.31
-17.43
-24.50
-28.32
-27.73
-23.07
-15.89
-8.00
-0.65
5.78
11.52
16.63
20.50
21.90
19.42
12.22
0.37
-15.18
-32.89
-50.94
-67.35
-80.05
-87.13
-87.11
-79.28
-63.92
-42.40
-16.97
9.52
34.01
53.68
66.57
71.92
70.51
64.42
56.49
49.43
45.03
43.75
44.88
47.09
49.15
50.41
50.97
51.43
52.62
55.21
59.49
65.19
71.49
77.23
81.28
82.92
82.03
78.98
74.39
68.68
61.81
53.18
41.75
26.34
5.98
-19.54
-49.16
-80.30
-109.10
-131.19
-142.99
-142.85
-131.70
-112.75
-90.40
-68.79
-50.68
-37.07
-27.60
-21.35
-17.56
-15.89
-16.24
-18.39
-21.75
-25.44
-28.62
-30.77
-31.77
-31.76
-30.76
-28.55
-24.66
-18.72
-10.77
-1.43
8.16
16.66
22.91
26.34
27.08
25.99
24.29
23.18
23.33
24.64
26.21
26.69
24.87
20.23
13.27
5.42
-1.40
-5.42
-5.63
-2.00
4.61
12.84
21.21
28.49
33.77
36.57
36.81
34.81
31.37
27.56
24.58
23.37
24.39
27.44
31.81
36.61
41.08
44.84
48.01
50.96
53.98
56.97
59.29
59.84
57.49
51.49
41.83
29.27
15.14
0.94
-12.01
-22.84
-31.27
-37.66
-42.92
-48.27
-54.88
-63.42
-73.63
-84.32
-93.61
-99.58
-100.81
-96.81
-87.96
-75.21
-59.70
-42.56
-24.76
-7.21
9.29
24.04
36.56
46.65
54.36
59.81
63.09
64.18
62.98
59.42
53.60
45.88
36.81
27.12
17.54
8.67
0.93
-5.57
-10.99
-15.74
-20.37
-25.43
-31.23
-37.80
-44.92
-52.34
-60.06
-68.32
-77.46
-87.36
-97.12
-105.05
-109.17
-108.04
-101.46
-90.65
-77.83
-65.35
-54.88
-47.03
-41.52
-37.65
-34.80
-32.58
-30.84
-29.43
-28.19
-26.98
-25.71
-24.44
-23.17
-21.78
-19.98
-17.44
-13.94
-9.56
-4.67
0.16
4.40
7.63
9.64
10.41
10.00
8.51
6.08
2.88
-0.94
-5.28
-10.13
-15.54
-21.47
-27.64
-33.38
-37.58
-38.99
-36.47
-29.43
-18.00
-3.10
13.77
31.01
47.23
61.47
73.32
82.70
89.82
95.04
98.88
102.05
105.37
109.59
115.19
122.25
130.36
138.82
146.77
153.47
158.25
160.56
159.85
155.59
147.31
134.72
117.86
97.22
73.86
49.45
26.00
5.41
-11.07
-23.33
-32.19
-38.96
-44.56
-49.05
-51.61
-51.11
-46.89
-39.27
-29.55
-19.47
-10.58
-3.80
0.61
2.74
2.75
0.74
-3.17
-8.62
-15.01
-21.49
-27.29
-31.85
-35.03
-37.10
-38.63
-40.31
-42.66
-45.83
-49.43
-52.61
-54.37
-53.95
-51.23
-46.82
-41.87
-37.62
-34.93
-34.07
-34.81
-36.74
-39.47
-42.80
-46.43
-49.78
-51.92
-51.72
-48.30
-41.32
-31.14
-18.70
-5.17
8.35
21.05
32.33
41.76
48.95
53.68
55.95
56.05
54.51
52.00
49.11
46.27
43.68
41.37
39.27
37.23
35.08
32.64
29.82
26.73
23.58
20.68
18.16
15.88
13.37
10.10
5.62
-0.07
-6.44
-12.53
-17.22
-19.51
-18.78
-14.98
-8.53
-0.23
8.97
18.14
26.57
33.71
39.23
42.89
44.55
44.20
42.05
38.57
34.44
30.40
27.02
24.58
22.96
21.78
20.56
18.99
17.06
15.01
13.25
12.06
11.39
10.89
10.00
8.28
5.52
1.77
-2.85
-8.36
-14.88
-22.43
-30.61
-38.48
-44.62
-47.65
-46.71
-41.62
-32.76
-20.79
-6.40
9.48
25.28
38.52
46.05
45.07
34.47
15.80
-6.84
-28.11
-43.53
-51.10
-51.90
-49.10
-46.14
-45.04
-45.71
-46.62
-46.07
-43.37
-39.17
-34.84
-31.53
-29.46
-28.01
-26.42
-24.51
-22.97
-22.99
-25.38
-29.82
-34.56
-36.96
-34.36
-25.12
-9.36
11.11
33.37
54.30
71.45
83.44
90.04
91.80
89.76
85.13
79.09
72.70
66.70
61.46
56.94
52.95
49.57
47.45
47.89
52.38
61.82
75.73
92.02
107.47
118.67
123.23
120.43
111.35
98.18
83.42
69.06
56.28
45.41
36.12
27.77
19.64
11.14
2.06
-7.33
-16.24
-23.70
-28.75
-30.88
-30.04
-26.60
-21.20
-14.50
-7.02
0.85
8.98
17.41
26.25
35.43
44.40
52.04
56.88
57.51
53.13
43.86
30.77
15.47
-0.38
-15.48
-29.15
-41.26
-52.17
-62.47
-72.70
-83.09
-93.22
-101.94
-107.55
-108.28
-102.92
-91.35
-74.70
-55.11
-35.24
-17.68
-4.47
3.17
4.94
1.38
-6.27
-16.45
-27.52
-38.12
-47.28
-54.47
-59.48
-62.30
-63.05
-61.95
-59.34
-55.68
-51.43
-46.95
-42.41
-37.70
-32.56
-26.77
-20.35
-13.82
-8.12
-4.30
-3.09
-4.44
-7.38
-10.15
-10.74
-7.45
0.61
13.21
29.07
46.00
61.30
72.27
76.89
74.41
65.69
52.95
39.08
26.73
17.49
11.71
8.75
7.67
7.68
8.50
10.06
12.23
14.45
15.79
15.25
12.24
6.99
0.61
-5.22
-8.96
-9.95
-8.81
-7.28
-7.51
-11.11
-18.48
-28.64
-39.63
-49.19
-55.33
-56.73
-52.91
-44.44
-33.10
-21.94
-14.80
-15.34
-25.56
-44.71
-69.15
-93.35
-111.74
-120.55
-118.85
-108.54
-93.23
-76.89
-62.63
-52.18
-45.88
-43.14
-42.86
-43.75
-44.57
-44.23
-41.92
-37.29
-30.55
-22.58
-14.71
-8.54
-5.33
-5.52
-8.43
-12.23
-14.47
-12.82
-5.81
6.67
23.39
42.26
60.97
77.68
91.43
102.19
110.64
117.79
124.65
131.90
139.67
147.37
153.83
157.47
156.89
151.31
141.02
127.49
112.98
99.88
89.85
83.18
78.60
73.76
66.06
53.67
36.23
14.98
-7.85
-29.87
-49.35
-65.63
-78.97
-89.97
-99.00
-105.92
-110.03
-110.42
-106.26
-97.04
-82.68
-63.54
-40.66
-15.71
8.99
30.97
48.15
59.43
64.96
65.89
63.82
60.17
55.93
51.70
47.95
45.11
43.33
42.11
40.12
35.40
26.11
11.39
-7.98
-29.62
-50.26
-66.80
-77.35
-81.83
-81.82
-79.81
-78.23
-78.54
-80.94
-84.49
-87.74
-89.42
-88.89
-86.14
-81.47
-75.17
-67.30
-57.89
-47.10
-35.42
-23.51
-11.88
-0.56
10.93
23.24
36.68
50.86
64.71
76.99
86.85
94.30
100.18
105.65
111.50
117.62
122.93
125.84
124.90
119.28
109.00
94.74
77.62
58.90
40.00
22.43
7.64
-3.43
-10.77
-15.67
-20.38
-27.36
-38.15
-52.70
-69.13
-84.52
-95.90
-101.30
-100.34
-94.11
-84.62
-74.07
-64.21
-55.99
-49.63
-44.92
-41.71
-40.13
-40.56
-43.23
-47.79
-53.10
-57.56
-59.72
-58.96
-55.80
-51.58
-47.85
-45.68
-45.26
-46.08
-47.31
-48.29
-48.79
-48.95
-49.12
-49.50
-50.12
-50.80
-51.19
-50.90
-49.55
-46.87
-42.66
-36.92
-29.79
-21.61
-12.87
-4.10
4.20
11.60
17.79
22.59
25.95
28.01
29.20
30.10
31.36
33.45
36.56
40.52
44.94
49.32
53.17
56.10
57.81
58.19
57.32
55.42
52.81
49.74
46.31
42.46
38.07
33.07
27.51
21.58
15.47
9.34
3.29
-2.52
-7.77
-11.97
-14.54
-15.06
-13.35
-9.55
-4.15
2.24
8.87
15.13
20.61
25.23
29.27
33.25
37.75
43.19
49.59
56.61
63.60
69.78
74.38
76.72
76.43
73.48
68.39
62.17
56.02
50.92
47.19
44.28
41.06
36.41
29.81
21.62
12.90
4.87
-1.57
-6.05
-8.69
-9.74
-9.50
-8.34
-6.78
-5.50
-5.18
-6.16
-8.29
-10.95
-13.37
-15.06
-16.03
-16.79
-18.05
-20.34
-23.75
-27.79
-31.55
-34.03
-34.53
-32.92
-29.73
-25.88
-22.25
-19.22
-16.45
-13.07
-8.08
-1.01
7.84
17.45
26.51
33.95
39.35
42.98
45.65
48.55
53.02
60.51
72.13
87.87
105.85
122.14
131.61
129.83
115.09
89.51
58.42
28.29
4.33
-11.04
-18.17
-18.97
-15.50
-9.28
-1.65
5.53
9.60
7.78
-1.56
-17.92
-38.46
-59.07
-75.86
-86.51
-90.85
-90.40
-87.33
-83.42
-79.41
-75.03
-69.49
-62.11
-52.73
-41.90
-30.71
-20.70
-13.61
-11.01
-13.78
-21.58
-32.55
-43.65
-51.53
-53.70
-49.49
-40.27
-28.82
-18.16
-10.55
-6.91
-7.00
-9.94
-14.74
-20.51
-26.49
-31.93
-36.17
-38.76
-39.66
-39.28
-38.37
-37.73
-37.91
-39.08
-41.01
-43.24
-45.31
-46.99
-48.26
-49.32
-50.33
-51.17
-51.43
-50.42
-47.46
-42.15
-34.52
-24.95
-14.00
-2.29
9.64
21.18
31.65
40.30
46.50
50.01
51.09
50.48
49.14
47.94
47.43
47.76
48.86
50.49
52.54
55.05
58.16
62.02
66.64
71.71
76.57
80.36
82.15
81.33
77.83
72.36
66.48
62.51
63.25
71.24
87.89
112.36
141.07
168.03
186.25
189.61
174.57
141.22
93.05
36.09
-22.53
-75.95
-118.68
-147.27
-160.60
-159.90
-148.26
-130.03
-110.01
-92.56
-80.96
-76.89
-80.21
-89.10
-100.64
-111.73
-120.01
-124.53
-125.73
-124.90
-123.29
-121.53
-119.27
-115.60
-109.46
-100.30
-88.30
-74.36
-59.75
-45.72
-33.12
-22.38
-13.54
-6.52
-1.27
2.25
4.13
4.61
4.16
3.33
2.62
2.30
2.37
2.64
2.95
3.25
3.58
4.02
4.51
4.83
4.69
3.85
2.26
0.10
-2.31
-4.64
-6.65
-8.15
-9.00
-8.97
-7.76
-5.10
-0.81
4.99
11.94
19.39
26.58
32.80
37.56
40.72
42.46
43.22
43.52
43.83
44.42
45.39
46.71
48.33
50.18
52.14
53.97
55.26
55.50
54.22
51.11
46.19
39.77
32.44
24.89
17.99
12.61
9.60
9.47
12.05
16.20
19.85
20.63
16.77
7.93
-4.65
-18.52
-31.00
-40.08
-44.99
-46.09
-44.42
-41.17
-37.30
-33.48
-30.18
-27.72
-26.30
-25.98
-26.68
-28.16
-30.15
-32.33
-34.42
-36.23
-37.74
-39.13
-40.57
-42.05
-43.23
-43.44
-41.88
-37.91
-31.30
-22.42
-12.22
-2.19
5.96
10.66
10.98
7.05
0.16
-7.49
-13.41
-15.72
-13.70
-7.97
-0.15
7.97
15.14
21.01
26.07
31.22
37.33
45.00
54.56
65.89
78.27
89.94
98.17
99.85
92.69
76.53
53.84
29.12
7.29
-8.16
-16.22
-18.15
-16.22
-12.25
-6.82
0.51
10.17
21.64
33.22
42.49
47.41
47.14
42.32
34.62
26.00
17.85
10.76
4.67
-0.63
-5.04
-7.98
-8.63
-6.34
-1.03
6.68
15.53
23.98
30.63
34.64
35.93
35.12
33.16
30.89
28.49
25.36
20.31
12.22
0.70
-13.53
-28.78
-43.06
-54.78
-63.28
-68.63
-71.35
-71.91
-70.64
-67.85
-63.94
-59.42
-54.59
-49.36
-43.28
-35.94
-27.50
-18.96
-11.94
-7.94
-7.78
-11.22
-17.24
-24.48
-31.70
-37.93
-42.28
-43.81
-41.61
-35.12
-24.49
-10.79
4.25
18.75
31.26
41.23
49.00
55.64
62.51
70.98
81.95
95.52
110.47
124.09
132.56
131.97
119.79
96.02
63.36
26.36
-10.19
-42.85
-70.10
-91.90
-108.44
-119.15
-122.70
-117.94
-105.18
-86.86
-67.10
-50.19
-39.03
-34.09
-33.78
-35.50
-37.02
-37.33
-36.53
-35.14
-33.31
-30.49
-25.69
-18.11
-7.70
4.39
16.05
24.70
28.02
24.72
14.85
-0.27
-18.43
-37.18
-54.44
-68.63
-78.81
-84.49
-85.61
-82.61
-76.52
-68.88
-61.53
-56.11
-53.74
-54.59
-57.99
-62.52
-66.41
-68.05
-66.35
-61.09
-52.90
-43.03
-32.93
-23.85
-16.48
-10.92
-6.86
-3.93
-1.83
-0.48
0.10
0.04
-0.31
-0.43
0.22
1.90
4.53
7.71
10.88
13.60
15.66
17.06
17.92
18.35
18.41
18.09
17.38
16.31
14.86
12.94
10.32
6.73
2.06
-3.36
-8.71
-12.79
-14.42
-12.91
-8.43
-2.07
4.56
9.76
12.39
12.14
9.55
5.70
1.78
-1.31
-3.11
-3.66
-3.30
-2.52
-1.74
-1.31
-1.47
-2.34
-3.91
-5.99
-8.22
-10.16
-11.48
-12.10
-12.25
-12.46
-13.39
-15.68
-19.86
-26.22
-34.75
-45.01
-56.04
-66.46
-74.61
-79.01
-78.69
-73.53
-64.32
-52.53
-39.93
-28.11
-18.16
-10.48
-4.87
-0.72
2.75
6.21
10.09
14.50
19.28
24.12
28.69
32.79
36.39
39.60
42.63
45.73
49.13
53.06
57.70
63.06
68.92
74.81
80.04
83.92
85.92
85.82
83.70
79.83
74.46
67.85
60.34
52.57
45.56
40.46
38.17
38.85
41.73
45.35
48.16
49.13
48.07
45.54
42.41
39.29
36.33
33.07
28.61
21.75
11.16
-4.19
-24.56
-48.91
-74.83
-98.94
-117.72
-128.49
-129.97
-122.45
-107.45
-87.13
-63.79
-39.54
-16.11
5.20
23.69
39.19
52.02
62.79
72.14
80.63
88.70
96.71
105.02
114.00
124.00
135.34
148.10
162.00
176.39
190.14
201.89
210.15
213.74
212.23
206.28
197.75
189.26
183.44
182.20
186.17
194.80
206.74
220.39
234.11
246.24
254.81
257.53
252.21
237.30
212.48
178.65
137.79
92.52
46.00
1.81
-36.27
-64.92
-82.36
-89.27
-89.04
-86.81
-87.64
-94.55
-107.54
-123.91
-139.90
-152.49
-160.60
-165.12
-167.80
-170.07
-172.22
-173.48
-172.89
-170.16
-166.19
-162.60
-160.81
-161.08
-162.20
-162.06
-158.80
-151.93
-142.69
-133.44
-126.53
-123.08
-122.57
-123.22
-122.89
-120.11
-114.47
-106.44
-96.88
-86.55
-75.84
-64.95
-53.98
-43.17
-32.84
-23.39
-15.18
-8.47
-3.40
0.13
2.44
4.17
6.17
9.37
14.62
22.44
32.87
45.34
58.82
72.04
83.84
93.48
100.70
105.58
108.27
108.78
107.03
102.91
96.30
86.93
74.34
58.03
38.00
15.39
-7.43
-27.27
-41.36
-48.48
-49.48
-46.80
-43.26
-40.74
-39.59
-38.98
-37.79
-35.45
-32.26
-29.09
-26.90
-26.19
-26.93
-28.69
-30.95
-33.37
-35.99
-39.18
-43.48
-49.29
-56.56
-64.73
-72.85
-80.07
-85.97
-90.77
-95.07
-99.24
-102.98
-105.17
-104.32
-99.33
-90.18
-78.03
-64.74
-52.19
-41.44
-32.60
-25.08
-18.09
-11.09
-4.00
2.98
9.63
15.92
22.15
28.86
36.64
45.91
56.59
68.05
79.18
88.72
95.75
100.07
102.09
102.50
101.66
99.36
94.88
87.57
77.41
65.20
52.30
39.97
28.97
19.53
11.77
6.01
2.74
2.06
3.12
3.95
2.16
-3.99
-14.44
-27.20
-39.09
-47.12
-49.71
-47.22
-41.36
-34.32
-27.72
-22.36
-18.29
-15.32
-13.37
-12.53
-12.84
-14.05
-15.56
-16.55
-16.28
-14.40
-10.97
-6.43
-1.36
3.67
8.27
12.18
15.33
17.63
19.03
19.52
19.15
18.06
16.49
14.73
12.93
11.10
9.07
6.60
3.56
0.07
-3.42
-6.33
-8.16
-8.67
-7.98
-6.47
-4.57
-2.61
-0.76
0.94
2.42
3.62
4.44
4.86
5.00
5.19
5.87
7.49
10.37
14.55
19.83
25.82
32.08
38.15
43.53
47.55
49.38
48.19
43.48
35.51
25.43
15.02
6.06
-0.32
-4.14
-6.31
-8.12
-10.49
-13.60
-16.94
-19.86
-22.01
-23.57
-25.06
-26.90
-29.11
-31.21
-32.44
-32.18
-30.14
-26.47
-21.62
-16.21
-10.78
-5.78
-1.48
1.96
4.36
5.54
5.29
3.43
-0.00
-4.65
-9.90
-14.98
-19.40
-23.08
-26.43
-30.04
-34.26
-38.87
-43.13
-46.15
-47.44
-47.26
-46.53
-46.38
-47.53
-49.97
-52.92
-55.32
-56.25
-55.33
-52.63
-48.47
-43.11
-36.58
-28.73
-19.50
-9.03
2.24
13.72
24.81
35.07
44.34
52.68
60.34
67.51
74.17
80.09
84.82
88.00
89.55
89.78
89.37
89.08
89.45
90.61
92.24
93.78
94.70
94.66
93.45
90.90
86.76
80.80
73.08
64.11
54.83
46.26
39.01
32.96
27.42
21.56
14.98
8.09
1.84
-2.69
-5.01
-5.44
-4.94
-4.66
-5.43
-7.54
-10.73
-14.52
-18.35
-21.84
-24.75
-26.92
-28.28
-28.86
-28.74
-28.06
-26.92
-25.37
-23.45
-21.19
-18.74
-16.46
-14.99
-15.12
-17.58
-22.79
-30.60
-40.20
-50.17
-58.80
-64.43
-65.88
-62.82
-55.83
-46.38
-36.36
-27.60
-21.27
-17.74
-16.47
-16.44
-16.57
-16.02
-14.40
-11.62
-7.83
-3.33
1.44
5.88
9.43
11.66
12.56
12.49
12.13
12.22
13.29
15.49
18.55
21.98
25.22
27.83
29.60
30.54
30.79
30.50
29.76
28.59
26.92
24.60
21.45
17.31
12.17
6.38
0.70
-3.79
-6.07
-5.64
-2.82
1.33
5.39
8.15
9.13
8.65
7.66
7.21
8.09
10.58
14.41
18.95
23.42
27.17
29.89
31.63
32.72
33.57
34.45
35.50
36.76
38.12
39.07
38.53
34.89
26.65
13.29
-3.99
-22.39
-38.52
-49.80
-55.54
-57.10
-56.94
-57.19
-58.69
-60.80
-62.17
-61.75
-59.49
-56.31
-53.59
-52.41
-53.04
-54.84
-56.55
-56.77
-54.52
-49.48
-42.01
-32.79
-22.53
-11.61
-0.17
11.70
23.60
34.70
43.87
50.10
52.91
52.74
50.84
48.92
48.58
50.76
55.44
61.72
68.18
73.19
75.28
73.29
66.55
55.06
39.73
22.36
5.26
-9.46
-20.68
-28.57
-34.34
-39.40
-44.57
-49.65
-53.79
-56.23
-56.98
-56.85
-56.94
-57.84
-59.04
-59.08
-56.25
-49.52
-39.17
-26.70
-14.24
-3.53
4.79
11.40
17.92
26.05
36.66
49.33
62.48
74.03
82.38
87.17
89.45
91.27
94.81
101.58
112.03
125.69
141.39
157.30
170.80
178.60
177.50
166.01
145.79
121.97
101.78
91.76
95.08
110.51
133.57
159.37
184.98
210.18
235.97
262.19
286.00
302.42
306.54
296.07
272.54
240.59
205.80
172.30
141.51
112.27
82.30
49.88
15.03
-20.45
-53.65
-81.83
-103.40
-118.27
-127.51
-132.68
-135.23
-136.12
-136.06
-135.67
-135.69
-136.79
-139.32
-142.99
-146.79
-149.33
-149.15
-145.15
-136.80
-124.26
-108.29
-90.15
-71.25
-52.92
-36.28
-22.27
-11.83
-5.89
-5.08
-9.37
-17.71
-28.40
-39.72
-50.80
-61.91
-74.02
-87.85
-103.20
-118.94
-133.73
-146.83
-158.45
-169.20
-179.25
-187.72
-192.89
-193.08
-187.67
-177.59
-165.04
-152.55
-142.16
-134.89
-130.90
-129.91
-131.59
-135.58
-141.37
-148.04
-154.21
-158.27
-158.72
-154.69
-146.16
-133.98
-119.56
-104.47
-90.08
-77.34
-66.84
-58.93
-53.78
-51.38
-51.40
-53.08
-55.33
-56.91
-56.86
-54.84
-51.34
-47.48
-44.54
-43.34
-43.88
-45.35
-46.48
-46.16
-43.85
-39.71
-34.40
-28.68
-23.17
-18.20
-13.94
-10.48
-7.84
-5.89
-4.12
-1.66
2.49
9.10
18.25
29.04
39.81
48.50
53.38
53.53
49.21
41.70
32.89
24.70
18.59
15.19
14.31
15.03
16.07
16.11
14.25
10.28
4.79
-0.96
-5.43
-7.30
-5.90
-1.36
5.47
13.31
20.91
27.23
31.73
34.27
35.10
34.68
33.52
31.96
30.07
27.63
24.33
20.03
14.94
9.69
5.10
1.86
0.22
-0.18
-0.13
-0.59
-2.25
-5.22
-8.99
-12.56
-14.82
-14.98
-12.82
-8.74
-3.63
1.55
6.05
9.47
11.82
13.45
14.94
17.05
20.65
26.52
35.16
46.64
60.49
75.83
91.63
106.87
120.78
132.74
142.29
149.06
152.82
153.42
150.70
144.36
133.85
118.69
99.09
76.40
53.34
33.34
19.43
13.01
13.25
17.42
22.09
24.56
23.78
20.36
15.78
11.24
6.93
1.95
-5.07
-14.93
-27.28
-40.42
-51.94
-59.69
-62.52
-60.71
-55.52
-48.46
-40.55
-32.04
-22.68
-12.10
-0.42
11.68
22.95
31.79
36.42
35.21
27.11
12.30
-7.49
-29.12
-48.98
-64.29
-74.18
-79.88
-83.97
-88.93
-95.97
-104.53
-112.92
-119.22
-122.31
-122.14
-119.48
-115.27
-110.15
-104.30
-97.53
-89.57
-80.32
-69.97
-58.94
-47.77
-36.98
-26.82
-17.32
-8.33
0.24
8.22
15.05
19.98
22.45
22.41
20.44
17.51
14.53
11.99
9.82
7.69
5.30
2.75
0.45
-1.09
-1.59
-1.17
-0.24
0.64
1.06
0.85
0.01
-1.38
-3.26
-5.70
-8.79
-12.64
-17.25
-22.38
-27.49
-31.75
-34.30
-34.48
-32.10
-27.55
-21.59
-15.17
-8.99
-3.41
1.57
6.02
9.98
13.33
15.94
17.81
19.22
20.69
22.79
25.92
30.23
35.57
41.52
47.60
53.35
58.32
62.15
64.56
65.40
64.67
62.51
59.25
55.27
50.94
46.56
42.26
38.05
33.82
29.53
25.30
21.46
18.56
17.16
17.69
20.28
24.75
30.67
37.50
44.71
51.86
58.61
64.69
69.97
74.41
78.12
81.24
83.89
86.11
87.83
88.99
89.56
89.59
89.21
88.58
87.85
87.16
86.53
85.77
84.33
81.20
75.09
64.70
49.20
28.56
3.67
-23.73
-51.36
-76.72
-97.54
-112.04
-119.27
-119.29
-113.24
-103.14
-91.51
-80.79
-72.72
-68.02
-66.29
-66.28
-66.39
-65.18
-61.78
-56.08
-48.67
-40.48
-32.47
-25.25
-18.95
-13.29
-7.84
-2.31
3.25
8.45
12.76
15.92
18.04
19.64
21.31
23.42
25.89
28.31
30.06
30.50
29.00
24.96
17.95
8.06
-3.77
-15.62
-25.12
-30.25
-30.21
-25.77
-18.85
-11.63
-5.72
-1.77
0.41
1.21
0.89
-0.47
-2.68
-5.21
-7.17
-7.64
-6.17
-3.03
0.84
4.25
6.38
7.07
6.88
6.78
7.59
9.52
12.09
14.38
15.47
14.89
12.69
9.30
5.23
0.79
-3.87
-8.65
-13.41
-18.02
-22.53
-27.31
-32.83
-39.18
-45.66
-50.72
-52.43
-49.40
-41.43
-29.65
-15.95
-2.16
10.57
21.82
31.45
39.11
44.06
45.49
43.07
37.39
29.89
22.43
16.67
13.58
13.36
15.49
19.02
22.89
26.16
28.25
29.15
29.39
29.88
31.55
34.86
39.58
44.73
48.92
50.83
49.53
44.61
36.31
25.49
13.74
3.25
-3.64
-5.22
-1.32
6.40
14.85
20.83
22.31
19.33
13.70
7.88
3.71
1.62
0.85
0.24
-0.83
-2.10
-2.65
-1.57
1.47
6.08
11.37
16.44
20.69
23.81
25.53
25.30
22.30
15.79
5.60
-7.48
-21.87
-35.85
-48.36
-59.30
-69.30
-78.73
-86.96
-92.16
-92.11
-85.41
-72.52
-55.72
-38.19
-22.67
-10.42
-1.10
6.48
13.47
20.33
26.89
32.80
38.00
42.99
48.47
55.08
63.09
72.50
83.24
95.47
109.60
126.00
144.49
163.84
181.68
195.02
201.08
198.31
187.03
169.27
147.97
125.79
104.25
83.46
62.66
41.03
18.44
-4.36
-26.02
-45.15
-60.75
-72.40
-80.14
-84.30
-85.35
-83.91
-80.75
-76.71
-72.57
-68.88
-65.79
-63.13
-60.48
-57.35
-53.40
-48.49
-42.79
-36.83
-31.29
-26.94
-24.29
-23.50
-24.32
-26.22
-28.60
-30.88
-32.59
-33.29
-32.64
-30.57
-27.45
-24.13
-21.72
-21.10
-22.45
-24.97
-27.13
-27.26
-24.20
-17.77
-8.73
1.68
12.21
22.07
30.99
39.08
46.56
53.54
59.90
65.42
69.86
73.18
75.61
77.71
80.18
83.73
88.83
95.52
103.43
111.79
119.74
126.72
132.80
138.88
146.48
157.22
171.88
189.57
207.37
220.87
225.29
216.96
194.38
158.64
113.08
62.58
12.80
-30.74
-63.42
-82.44
-87.54
-81.15
-67.73
-52.38
-39.09
-29.53
-22.96
-17.02
-9.19
2.12
17.18
35.49
56.50
80.13
106.37
134.42
161.75
184.15
196.69
195.55
179.53
150.53
112.64
70.53
27.99
-12.56
-49.59
-81.72
-107.58
-126.40
-139.07
-148.47
-158.68
-173.11
-192.63
-214.86
-235.02
-248.04
-250.61
-242.35
-225.42
-203.15
-178.55
-153.34
-128.02
-102.46
-76.46
-50.12
-23.71
2.67
29.18
56.02
83.10
109.70
134.51
155.82
171.98
181.86
185.31
183.32
178.04
172.47
169.66
171.75
179.03
189.68
200.30
207.19
207.66
200.83
187.53
169.60
148.99
127.28
105.70
85.34
67.23
52.04
39.68
29.09
18.50
6.19
-8.94
-26.99
-47.37
-69.31
-92.55
-117.43
-144.62
-174.37
-205.79
-236.65
-263.78
-284.02
-295.25
-296.99
-290.33
-277.28
-260.02
-240.37
-219.74
-199.28
-180.09
-163.08
-148.90
-137.77
-129.49
-123.72
-120.06
-118.03
-116.98
-115.98
-113.99
-110.23
-104.38
-96.65
-87.61
-77.94
-68.32
-59.37
-51.77
-46.21
-43.24
-42.95
-44.85
-47.73
-50.00
-50.12
-47.11
-40.79
-31.66
-20.70
-8.86
3.12
14.72
25.49
34.81
41.89
46.00
46.95
45.51
43.41
42.87
45.71
52.44
62.05
72.29
80.61
85.26
85.75
82.97
78.64
74.63
72.59
73.83
79.29
89.31
103.08
118.08
130.08
134.14
126.13
104.44
70.51
28.31
-17.44
-63.24
-108.12
-153.69
-202.63
-256.10
-311.50
-362.12
-399.05
-414.81
-406.62
-377.34
-333.38
-281.09
-223.82
-161.56
-93.06
-18.95
56.46
125.86
181.61
218.22
233.69
229.23
208.64
178.07
146.44
125.02
125.00
153.42
209.32
282.75
357.54
416.94
449.62
452.78
431.45
394.92
352.26
309.35
268.59
230.34
194.80
162.85
135.45
112.57
92.37
71.55
46.92
16.88
-17.79
-54.50
-90.30
-123.73
-155.69
-188.86
-225.70
-266.34
-307.41
-342.79
-365.97
-372.69
-362.68
-339.52
-308.90
-276.45
-246.18
-220.06
-198.60
-181.45
-167.63
-155.41
-142.26
-125.58
-104.00
-78.47
-52.26
-29.58
-13.62
-5.12
-2.11
-1.27
0.26
3.55
7.77
11.16
12.30
10.81
7.34
2.78
-2.36
-8.18
-15.06
-23.19
-32.30
-41.82
-51.13
-59.99
-68.61
-77.53
-87.12
-96.95
-105.35
-109.55
-106.30
-93.33
-70.65
-41.34
-11.07
13.60
27.74
30.08
23.50
13.76
6.72
5.78
10.72
18.38
24.86
27.47
25.75
20.87
14.51
7.98
2.00
-2.74
-5.50
-5.74
-3.70
-0.66
1.81
2.77
2.76
3.39
6.10
10.99
16.72
21.44
24.26
25.90
28.06
31.91
36.85
40.43
39.66
32.77
20.29
4.77
-10.57
-23.47
-33.36
-41.16
-48.19
-55.18
-61.80
-66.92
-69.29
-68.13
-63.44
-55.92
-46.78
-37.49
-29.51
-24.20
-22.57
-25.03
-31.13
-39.42
-47.69
-53.47
-54.75
-50.67
-41.76
-29.69
-16.53
-3.89
7.58
18.18
28.58
39.14
49.41
58.24
64.47
67.63
68.34
68.15
68.80
71.51
76.38
82.28
87.27
89.23
86.54
78.63
66.15
50.83
34.92
20.46
8.57
-0.97
-9.62
-19.51
-32.64
-49.99
-70.99
-93.52
-114.38
-130.16
-138.16
-137.25
-128.27
-113.79
-97.21
-81.61
-68.55
-57.86
-48.20
-38.34
-28.27
-19.39
-13.72
-12.60
-15.56
-20.45
-24.48
-25.77
-24.22
-21.28
-18.59
-16.67
-14.44
-9.97
-1.82
9.75
22.67
33.92
40.94
42.70
39.97
34.71
29.08
24.64
22.08
21.40
22.29
24.39
27.37
30.86
34.45
37.72
40.42
42.55
44.28
45.77
46.96
47.42
46.62
44.12
39.87
34.29
28.07
21.76
15.50
8.96
1.54
-7.21
-17.42
-28.70
-40.40
-51.76
-62.27
-71.75
-80.37
-88.46
-96.31
-103.93
-110.77
-115.85
-117.92
-115.96
-109.57
-99.11
-85.55
-70.13
-53.99
-38.06
-23.04
-9.57
1.74
10.32
15.76
17.90
16.96
13.46
8.21
2.21
-3.52
-8.09
-10.99
-12.17
-12.01
-11.13
-10.07
-9.09
-7.99
-6.14
-2.66
3.25
11.97
23.14
35.60
47.63
57.47
63.89
66.74
66.91
66.04
65.83
67.43
71.10
76.28
81.94
87.10
91.19
94.30
96.94
99.79
103.29
107.34
111.32
114.37
115.75
115.20
112.94
109.45
105.15
100.21
94.53
87.92
80.34
72.09
63.85
56.39
50.19
45.05
39.98
33.44
23.98
10.81
-5.79
-24.50
-43.40
-60.43
-73.66
-81.43
-82.52
-76.48
-63.98
-47.10
-28.77
-11.95
1.47
11.01
17.18
20.57
21.01
17.68
9.85
-2.14
-16.68
-31.48
-44.69
-55.88
-65.93
-76.11
-86.91
-97.44
-105.75
-109.99
-109.61
-105.81
-101.07
-98.00
-98.21
-101.71
-107.18
-112.73
-116.81
-118.84
-119.39
-119.87
-121.95
-126.85
-134.72
-144.25
-152.98
-157.77
-155.86
-145.75
-127.72
-103.83
-77.30
-51.71
-30.02
-13.99
-3.81
1.84
5.22
8.71
13.91
21.14
29.49
37.47
43.74
47.68
49.42
49.45
48.29
46.31
43.96
42.06
41.86
44.74
51.56
62.11
75.00
88.05
98.97
106.06
108.56
106.82
102.17
96.64
92.75
93.08
99.60
112.77
131.09
151.15
168.63
179.61
181.72
174.60
159.58
138.84
114.47
88.04
60.45
32.24
3.97
-23.41
-48.25
-68.38
-81.55
-86.25
-82.53
-72.39
-59.39
-47.55
-40.01
-38.05
-41.08
-47.23
-54.37
-60.88
-65.97
-69.52
-71.74
-72.94
-73.42
-73.52
-73.51
-73.46
-73.06
-71.54
-67.86
-61.02
-50.37
-35.72
-17.30
4.39
28.48
53.49
77.19
96.80
109.66
114.17
110.49
100.62
87.75
75.22
65.50
59.68
57.61
58.38
60.76
63.54
65.29
64.33
58.79
47.27
29.54
7.06
-17.14
-39.27
-56.10
-66.00
-69.54
-69.08
-67.79
-68.48
-72.73
-80.54
-90.47
-100.18
-106.99
-108.48
-103.06
-90.39
-71.57
-48.86
-25.18
-3.19
15.37
30.01
41.35
50.56
58.81
66.71
74.33
81.32
87.26
91.92
95.27
97.40
98.31
97.89
96.01
92.82
88.86
85.17
82.96
83.14
85.94
90.66
95.97
100.36
102.79
102.95
101.26
98.45
95.21
92.09
89.49
87.86
87.54
88.47
89.78
89.73
86.17
77.46
63.25
44.88
24.79
5.42
-11.86
-26.96
-40.41
-52.11
-60.58
-63.28
-58.06
-44.91
-26.79
-8.90
3.35
6.67
1.12
-10.34
-23.64
-35.62
-45.13
-52.76
-59.75
-66.76
-73.37
-78.46
-80.98
-80.72
-78.51
-75.74
-73.48
-71.86
-69.73
-65.03
-55.58
-40.11
-19.04
5.36
29.58
50.03
64.30
71.90
74.31
74.12
73.93
75.14
77.53
79.43
78.62
73.38
63.26
49.20
33.08
16.81
1.62
-12.26
-25.32
-38.11
-50.69
-62.39
-72.10
-78.90
-82.52
-83.56
-83.18
-82.65
-82.96
-84.75
-88.29
-93.53
-99.97
-106.42
-111.03
-111.49
-105.75
-92.75
-72.82
-47.69
-20.01
7.47
32.82
55.04
73.93
89.72
102.65
112.85
120.20
124.49
125.42
123.03
117.57
109.40
98.90
86.36
72.01
56.06
38.75
20.37
1.87
-15.68
-31.49
-45.33
-57.50
-68.62
-79.43
-90.54
-102.32
-113.42
-122.21
-127.63
-129.46
-128.11
-123.86
-116.69
-106.46
-93.17
-74.38
-48.15
-14.44
24.39
64.55
102.49
135.76
163.05
183.90
202.91
225.09
253.08
285.90
320.22
352.91
382.48
408.80
432.22
458.39
492.28
534.91
582.76
630.58
675.09
716.20
755.40
755.72
690.50
553.83
366.73
165.01
-20.43
-173.27
-290.21
-375.71
-434.11
-469.70
-482.28
-471.71
-441.87
-400.76
-357.82
-321.25
-296.54
-286.43
-286.38
-288.98
-288.49
-283.37
-275.68
-268.67
-264.70
-264.74
-268.64
-272.90
-273.42
-268.14
-257.81
-244.77
-231.27
-218.47
-206.55
-195.44
-183.87
-170.61
-155.62
-140.17
-126.06
-114.61
-106.16
-100.26
-96.26
-93.18
-90.25
-87.25
-84.33
-81.47
-78.03
-72.86
-64.68
-52.74
-37.09
-18.47
1.83
22.38
41.81
59.02
73.11
83.41
89.44
91.03
88.35
81.89
72.49
61.25
49.40
38.13
28.35
20.46
14.36
9.51
5.31
1.29
-2.64
-6.23
-9.11
-11.02
-11.93
-12.11
-11.96
-11.93
-12.30
-13.19
-14.48
-15.81
-16.66
-16.32
-14.11
-9.55
-2.49
6.75
17.52
28.99
40.43
51.41
61.86
71.98
82.02
91.93
101.20
108.83
113.75
115.23
113.43
109.53
105.50
103.48
105.11
111.13
121.40
135.20
151.63
169.91
189.51
210.05
231.34
253.35
276.25
300.22
325.14
350.17
373.59
392.95
405.73
410.07
405.46
392.86
374.38
352.57
329.69
307.26
286.00
266.02
247.18
229.29
212.14
195.50
179.02
162.32
145.10
127.37
109.37
91.61
74.62
58.74
43.97
29.97
16.27
2.42
-11.71
-25.94
-39.81
-52.84
-64.79
-75.79
-86.32
-96.93
-108.00
-119.51
-131.20
-142.83
-154.54
-166.71
-179.61
-192.82
-204.91
-213.72
-217.09
-213.60
-202.98
-185.88
-163.45
-137.04
-108.29
-79.53
-53.92
-35.00
-25.62
-26.91
-37.82
-55.66
-77.34
-100.58
-124.60
-149.73
-176.58
-205.12
-234.27
-262.17
-287.01
-307.71
-324.37
-338.11
-350.53
-363.12
-376.60
-390.65
-403.95
-414.61
-420.69
-420.89
-414.87
-403.30
-387.42
-368.59
-347.89
-326.01
-303.48
-280.86
-258.69
-237.17
-215.81
-193.37
-168.23
-139.13
-105.81
-69.23
-31.21
6.15
41.16
72.78
100.54
124.17
143.41
157.87
167.22
171.21
169.88
163.49
152.55
137.89
120.70
102.62
85.60
71.52
61.67
56.32
54.53
54.42
53.74
50.64
44.21
34.59
22.82
10.40
-1.15
-10.59
-16.98
-19.70
-18.45
-13.27
-4.56
7.08
21.08
37.21
55.62
76.56
99.89
124.65
149.10
171.22
189.55
203.72
214.37
222.57
229.00
233.44
235.00
232.79
226.72
217.75
207.37
196.76
185.96
173.68
157.88
136.78
109.77
77.79
43.09
8.32
-24.36
-53.85
-80.25
-104.49
-127.76
-150.87
-174.02
-196.67
-217.78
-236.18
-250.96
-261.73
-268.57
-271.91
-272.27
-270.16
-266.13
-260.87
-255.16
-249.78
-245.29
-241.99
-240.01
-239.62
-241.32
-245.71
-252.91
-261.96
-270.60
-275.58
-273.73
-263.11
-243.81
-217.91
-188.55
-158.67
-129.97
-102.62
-75.69
-48.05
-19.20
10.52
40.13
68.52
94.82
118.52
139.31
157.02
171.64
183.37
192.64
199.94
205.57
209.55
211.70
211.92
210.27
206.95
202.13
195.77
187.62
177.52
165.70
153.03
140.87
130.73
123.77
120.53
120.91
124.28
129.79
136.57
143.88
151.16
158.01
164.22
169.94
175.67
182.07
189.45
197.01
202.37
201.82
191.29
167.91
131.26
83.71
29.71
-25.68
-78.19
-125.13
-165.36
-198.74
-225.66
-246.65
-262.17
-272.47
-277.38
-276.26
-268.43
-253.74
-233.22
-209.18
-184.65
-162.35
-143.67
-128.33
-114.78
-101.11
-85.98
-69.01
-50.67
-31.74
-12.85
5.74
24.02
42.03
59.69
76.73
92.74
107.22
119.54
128.84
134.19
135.04
131.66
125.36
118.25
112.32
108.54
106.24
103.18
96.47
83.59
63.42
36.68
5.75
-25.98
-55.13
-79.14
-96.88
-108.66
-115.67
-119.13
-119.46
-116.21
-108.21
-94.44
-74.64
-49.73
-21.64
7.09
33.75
56.04
72.69
83.91
91.62
99.06
109.79
126.46
149.82
178.41
209.21
238.62
263.43
281.46
291.59
293.59
287.88
275.20
256.43
232.58
205.15
176.36
149.24
127.03
112.08
104.74
102.96
103.14
101.90
97.76
91.73
86.48
84.41
86.06
89.60
91.85
90.07
83.53
73.77
63.67
55.98
52.07
51.58
53.04
54.89
56.36
57.85
60.62
66.03
74.92
87.10
101.41
116.03
129.00
138.57
143.58
143.54
138.58
129.21
116.02
99.35
79.29
55.81
29.00
-0.55
-31.86
-63.67
-94.77
-124.31
-151.97
-177.74
-201.72
-223.79
-243.44
-259.72
-271.43
-277.49
-277.43
-271.74
-261.83
-249.45
-235.93
-221.48
-205.19
-185.58
-161.47
-132.78
-100.58
-66.78
-33.81
-4.38
18.76
33.14
37.33
31.75
18.86
2.50
-13.60
-27.31
-38.77
-49.58
-61.34
-74.22
-86.60
-96.15
-101.27
-102.29
-101.42
-101.59
-105.02
-112.10
-121.35
-130.05
-135.64
-136.84
-134.12
-129.26
-124.20
-120.11
-116.88
-113.57
-109.39
-104.45
-99.83
-96.88
-96.14
-96.63
-96.04
-91.62
-81.55
-65.72
-45.88
-24.79
-5.25
10.87
23.05
32.01
39.17
45.93
52.89
59.56
64.52
66.02
62.70
54.24
41.28
25.00
6.33
-14.39
-37.32
-62.66
-90.07
-118.49
-146.33
-171.96
-194.22
-212.84
-228.64
-243.29
-258.69
-276.10
-295.13
-313.41
-326.96
-331.60
-324.74
-306.65
-280.47
-250.95
-222.40
-197.03
-174.36
-152.07
-127.08
-96.75
-59.68
-16.11
31.60
78.50
117.19
139.28
138.16
112.23
66.74
12.99
-35.32
-66.85
-76.24
-64.96
-39.25
-6.65
26.78
57.41
83.38
103.25
115.44
118.76
113.34
101.22
86.01
71.52
60.42
53.44
49.55
46.69
42.98
37.49
30.36
22.42
14.51
7.14
0.46
-5.24
-9.21
-10.35
-7.80
-1.49
7.83
18.83
30.35
41.66
52.35
62.04
70.19
76.47
81.20
85.55
90.91
97.97
105.93
112.63
115.63
113.69
107.63
100.01
93.88
91.22
92.15
95.17
98.12
99.31
98.15
95.13
91.28
87.62
84.84
83.25
82.77
82.87
82.48
80.05
74.05
63.69
49.54
33.62
18.83
7.96
2.64
3.06
8.12
16.24
26.01
36.52
47.15
57.28
66.04
72.42
75.59
75.13
71.19
64.38
55.69
46.44
38.14
32.28
29.97
31.60
36.57
43.45
50.51
56.39
60.72
64.18
67.92
72.86
79.00
85.30
90.06
91.55
88.53
80.36
66.89
48.17
24.51
-3.33
-33.71
-63.87
-90.21
-109.01
-117.50
-114.78
-102.22
-83.12
-61.64
-41.47
-24.74
-11.63
-0.80
9.59
20.76
32.64
43.91
52.57
56.91
56.12
50.59
41.68
31.24
20.97
12.13
5.35
0.67
-2.42
-4.86
-7.79
-12.16
-18.22
-25.33
-32.07
-36.74
-38.03
-35.43
-29.30
-20.59
-10.40
0.14
9.74
16.83
19.55
16.23
6.08
-10.17
-30.06
-49.88
-65.66
-74.23
-74.14
-65.93
-51.73
-34.45
-16.84
-0.83
12.63
23.48
32.16
39.27
45.43
51.16
56.84
62.79
69.22
76.36
84.41
93.44
103.26
113.21
122.19
128.96
132.52
132.56
129.62
124.83
119.39
113.90
107.98
100.29
89.24
73.85
54.51
33.11
12.50
-4.49
-16.07
-21.93
-23.18
-21.59
-18.68
-15.08
-10.31
-3.20
7.44
22.20
40.77
62.13
84.89
107.68
129.41
149.21
166.40
180.47
191.03
197.98
201.43
201.48
198.09
191.05
180.15
165.55
148.00
128.78
109.27
90.48
72.67
55.41
37.80
19.04
-1.15
-22.31
-43.32
-62.80
-79.52
-92.69
-102.16
-108.35
-112.09
-114.44
-116.43
-118.82
-122.01
-125.96
-130.29
-134.39
-137.55
-139.00
-138.00
-133.90
-126.39
-115.64
-102.42
-88.00
-73.75
-60.81
-49.78
-40.75
-33.48
-27.67
-23.14
-19.73
-17.31
-15.57
-14.12
-12.47
-10.19
-6.95
-2.54
3.08
9.77
17.15
24.64
31.52
37.05
40.72
42.39
42.43
41.63
40.91
40.88
41.52
42.03
41.10
37.37
29.95
18.71
4.23
-12.39
-29.75
-46.35
-60.60
-71.00
-76.38
-76.17
-70.44
-59.70
-44.56
-25.47
-2.74
23.21
51.43
80.34
107.88
132.02
151.29
165.20
174.23
179.56
182.66
184.92
187.41
190.78
195.31
201.01
207.80
215.54
224.13
233.46
243.29
253.11
262.04
268.78
271.87
270.07
262.76
250.13
233.10
212.89
190.56
166.85
142.13
116.79
91.39
66.63
43.17
21.13
-0.06
-21.63
-45.28
-72.93
-106.19
-145.76
-190.47
-236.74
-278.73
-309.62
-323.68
-318.25
-294.75
-258.16
-215.23
-172.43
-134.63
-104.86
-84.83
-75.52
-77.18
-88.93
-108.29
-131.33
-153.60
-171.25
-182.05
-185.53
-182.61
-174.83
-163.64
-150.17
-135.31
-120.05
-105.56
-93.18
-84.21
-79.50
-79.26
-82.86
-88.91
-95.54
-100.71
-102.70
-100.41
-93.60
-82.74
-68.87
-53.16
-36.81
-20.83
-6.07
6.85
17.54
25.79
31.40
34.05
33.38
29.18
21.75
12.20
2.21
-6.42
-12.45
-15.56
-16.30
-15.59
-14.11
-11.99
-8.96
-4.80
0.27
5.51
9.96
12.92
14.22
14.19
13.33
11.99
10.14
7.58
4.36
1.12
-0.84
0.15
5.49
15.85
30.89
49.41
69.82
90.48
109.92
127.02
140.95
151.24
157.81
160.95
161.15
158.76
153.67
145.15
132.12
113.56
89.10
59.47
26.69
-6.06
-35.01
-56.64
-68.58
-70.30
-63.26
-50.47
-35.68
-22.33
-12.92
-8.65
-9.60
-15.29
-25.13
-38.86
-56.52
-78.12
-103.28
-130.77
-158.56
-184.03
-204.59
-218.20
-223.82
-221.45
-211.98
-196.90
-177.91
-156.74
-134.82
-113.14
-92.16
-72.01
-52.74
-34.68
-18.51
-5.14
4.61
10.32
12.11
10.50
6.19
-0.13
-7.86
-16.46
-25.37
-33.96
-41.54
-47.34
-50.58
-50.62
-47.28
-41.14
-33.66
-26.76
-22.21
-20.78
-21.88
-23.77
-24.41
-22.35
-17.34
-10.23
-2.30
5.48
12.84
20.08
27.55
35.08
41.85
46.58
48.18
46.27
41.56
35.69
30.71
28.47
30.16
35.99
45.31
56.69
68.20
77.78
83.57
84.40
80.07
71.43
60.23
48.58
38.54
31.52
28.19
28.46
31.86
37.92
46.46
57.75
72.38
90.92
113.53
139.73
168.47
198.47
228.59
257.94
285.66
310.37
329.80
340.98
340.96
327.95
302.20
266.23
224.08
179.96
136.95
96.25
57.33
18.66
-21.39
-64.16
-110.63
-161.37
-216.06
-272.71
-327.08
-373.21
-405.04
-418.70
-414.21
-395.57
-369.16
-341.18
-315.55
-293.24
-273.09
-253.41
-233.29
-212.86
-192.71
-173.21
-154.10
-134.78
-114.94
-95.07
-76.43
-60.58
-48.56
-40.38
-34.93
-30.42
-25.17
-18.36
-10.38
-2.74
2.49
3.53
-0.44
-8.89
-20.13
-31.82
-41.81
-48.78
-52.56
-54.03
-54.44
-54.71
-54.82
-53.83
-50.31
-43.09
-31.81
-17.11
-0.31
17.11
34.02
49.71
63.78
75.81
85.23
91.42
94.04
93.26
89.71
84.19
77.28
69.08
59.37
48.02
35.44
22.84
11.90
4.20
0.41
-0.04
1.21
2.12
1.09
-2.50
-8.17
-14.69
-20.66
-24.93
-26.64
-25.21
-20.18
-11.38
0.84
15.40
30.56
44.49
55.85
64.26
70.33
75.22
80.02
85.31
91.04
96.88
102.64
108.53
115.07
122.72
131.53
141.05
150.32
158.06
162.75
162.80
156.98
144.86
127.19
105.74
82.64
59.55
37.12
15.12
-6.79
-28.29
-48.13
-64.43
-75.52
-80.66
-80.24
-75.49
-68.04
-59.48
-51.26
-44.56
-40.33
-39.03
-40.74
-45.32
-52.59
-62.49
-74.76
-88.53
-102.01
-112.72
-118.23
-117.17
-109.95
-98.66
-86.37
-75.95
-69.16
-66.28
-66.45
-68.35
-70.80
-72.89
-73.79
-72.41
-67.35
-57.29
-41.56
-20.66
3.59
28.46
51.05
69.16
81.85
89.51
93.44
95.20
96.03
96.45
96.31
94.91
91.25
84.20
72.79
56.53
35.80
12.07
-12.27
-34.58
-52.92
-66.70
-76.91
-85.48
-94.26
-103.94
-113.68
-121.40
-124.67
-121.83
-112.50
-97.74
-79.49
-59.85
-40.63
-23.03
-7.80
4.63
14.04
20.54
24.59
27.10
29.14
31.64
35.01
39.00
42.77
45.29
45.69
43.67
39.62
34.53
29.64
26.04
24.26
24.11
24.63
24.53
22.58
18.15
11.68
4.64
-0.70
-2.07
2.09
11.95
26.25
42.81
59.28
74.02
86.33
96.32
104.36
110.59
114.80
116.70
116.29
114.12
111.15
108.29
105.86
103.32
99.55
93.44
84.56
73.57
62.01
51.79
44.43
40.56
40.00
42.05
46.01
51.35
57.52
63.61
68.19
69.61
66.59
58.87
47.38
33.86
20.10
7.21
-4.65
-16.03
-27.65
-39.90
-52.69
-65.62
-78.14
-89.76
-99.97
-108.15
-113.67
-116.09
-115.41
-112.26
-107.72
-102.93
-98.54
-94.38
-89.43
-82.09
-70.81
-54.74
-34.25
-11.19
11.31
29.56
40.34
41.93
34.84
21.72
6.52
-6.89
-16.04
-20.54
-21.74
-21.80
-22.46
-24.30
-26.82
-29.08
-30.63
-31.98
-34.40
-39.25
-47.07
-57.05
-67.23
-75.28
-79.45
-79.31
-75.79
-70.66
-65.63
-61.74
-58.95
-56.37
-52.63
-46.35
-36.54
-22.95
-6.17
12.31
30.42
45.93
57.03
62.79
63.34
59.74
53.56
46.48
39.90
34.74
31.30
29.35
28.24
27.24
25.75
23.55
20.80
18.01
15.88
15.20
16.59
20.46
26.79
35.18
44.82
54.62
63.46
70.39
74.86
76.81
76.62
74.86
72.07
68.58
64.51
59.88
54.83
49.76
45.33
42.27
41.15
42.15
45.00
49.12
53.84
58.63
63.14
67.08
70.10
71.51
70.46
66.15
58.33
47.60
35.54
24.32
16.14
12.60
14.14
19.76
27.12
32.92
33.75
26.91
11.27
-12.38
-41.43
-72.07
-100.21
-122.45
-136.74
-142.87
-142.30
-137.68
-131.97
-127.41
-124.78
-123.26
-120.98
-115.98
-107.15
-94.66
-79.74
-63.92
-48.39
-33.57
-19.23
-4.90
9.78
24.73
39.58
53.87
67.31
79.91
91.90
103.49
114.62
124.86
133.54
140.13
144.51
147.15
148.93
150.84
153.64
157.80
163.72
172.00
183.43
198.55
216.84
236.05
252.25
260.71
257.38
240.15
209.36
167.56
118.62
67.02
17.33
-26.12
-59.76
-81.37
-90.73
-89.85
-82.34
-72.31
-63.15
-56.83
-53.88
-53.84
-55.71
-58.21
-59.99
-59.72
-56.31
-49.14
-38.20
-24.16
-8.45
6.56
17.61
20.92
13.12
-7.42
-39.57
-79.18
-120.18
-156.37
-183.51
-200.28
-208.15
-209.98
-208.35
-204.47
-198.04
-188.15
-174.42
-157.76
-140.27
-124.38
-111.83
-102.97
-96.83
-91.82
-86.55
-80.36
-73.49
-66.57
-60.14
-54.27
-48.45
-41.91
-33.91
-24.10
-12.54
0.28
13.53
26.23
37.37
46.19
52.57
57.21
61.66
68.02
78.33
94.00
114.99
139.31
163.00
180.58
186.14
174.96
145.03
98.27
40.62
-19.23
-72.17
-111.42
-134.47
-143.33
-143.06
-139.22
-135.45
-132.49
-128.76
-122.17
-111.98
-99.59
-87.84
-79.56
-76.07
-76.88
-80.40
-85.19
-90.85
-97.95
-107.01
-117.39
-126.79
-131.90
-129.83
-119.48
-102.16
-81.03
-59.83
-41.61
-27.98
-19.23
-14.92
-14.33
-16.66
-20.95
-25.89
-30.05
-32.18
-31.76
-29.06
-24.87
-20.11
-15.31
-10.51
-5.37
0.46
7.04
13.99
20.59
25.99
29.55
31.05
30.86
29.96
29.70
31.41
35.96
43.38
52.79
62.76
71.90
79.46
85.62
91.30
97.64
105.50
115.09
125.84
136.38
144.45
147.11
141.33
125.09
98.49
64.27
27.40
-6.52
-33.05
-50.22
-58.77
-61.28
-60.79
-59.78
-59.66
-60.92
-63.52
-67.03
-70.76
-73.66
-74.55
-72.47
-67.13
-59.01
-49.34
-39.80
-32.11
-27.60
-26.92
-29.82
-35.14
-41.11
-45.75
-47.54
-45.79
-40.92
-34.21
-27.33
-21.66
-17.99
-16.42
-16.64
-18.36
-21.54
-26.25
-32.39
-39.29
-45.60
-49.65
-49.91
-45.65
-37.25
-26.11
-14.07
-2.73
7.11
15.55
23.33
31.25
39.74
48.68
57.55
65.91
73.61
80.89
88.15
95.51
102.62
108.66
112.69
114.13
113.14
110.71
108.34
107.48
108.99
112.69
117.56
122.06
124.60
123.85
118.84
109.29
95.92
80.75
67.00
58.35
57.71
66.04
81.86
101.86
122.24
140.14
154.43
165.49
174.25
181.20
186.02
187.96
186.52
181.97
175.28
167.33
158.00
145.63
127.30
100.13
63.00
17.83
-30.33
-74.62
-108.45
-127.60
-131.29
-121.84
-103.34
-80.02
-55.02
-30.00
-5.36
18.90
42.50
64.24
82.02
93.32
96.15
90.02
76.36
58.25
39.19
22.04
8.22
-2.38
-10.79
-18.31
-25.99
-34.43
-43.67
-53.30
-62.38
-69.53
-73.28
-72.70
-67.79
-59.63
-50.05
-40.91
-33.55
-28.48
-25.64
-24.76
-25.68
-28.47
-33.15
-39.45
-46.50
-53.01
-57.69
-59.82
-59.67
-58.31
-57.08
-56.85
-57.45
-57.66
-55.87
-50.88
-42.59
-32.10
-21.16
-11.26
-2.83
5.07
14.45
