x	y	z	ts
0,504359	0,077445	9,793365	2020-10-29T19:09:01:211
0,413710	0,038943	9,797842	2020-10-29T19:09:01:212
1,650313	0,022714	9,666764	2020-10-29T19:09:01:212
4,911265	-0,038661	8,488131	2020-10-29T19:09:01:213
1,611876	-0,138709	9,672280	2020-10-29T19:09:01:229
1,070070	-0,260301	9,744617	2020-10-29T19:09:01:269
1,057526	-0,268397	9,745768	2020-10-29T19:09:01:273
0,998785	-0,324586	9,750254	2020-10-29T19:09:01:288
0,946695	-0,394512	9,752872	2020-10-29T19:09:01:309
0,894608	-0,453497	9,755224	2020-10-29T19:09:01:328
0,825267	-0,485170	9,759812	2020-10-29T19:09:01:349
0,743739	-0,500624	9,765583	2020-10-29T19:09:01:368
0,685443	-0,520304	9,768820	2020-10-29T19:09:01:389
0,645546	-0,548909	9,769972	2020-10-29T19:09:01:409
0,614035	-0,584249	9,769954	2020-10-29T19:09:01:429
0,584844	-0,615099	9,769852	2020-10-29T19:09:01:448
0,555889	-0,641287	9,769858	2020-10-29T19:09:01:469
0,524754	-0,658510	9,770434	2020-10-29T19:09:01:488
0,511730	-0,665667	9,770640	2020-10-29T19:09:01:509
0,471734	-0,691455	9,770862	2020-10-29T19:09:01:528
0,444768	-0,710768	9,770741	2020-10-29T19:09:01:549
0,419851	-0,728052	9,770571	2020-10-29T19:09:01:569
0,401504	-0,742379	9,770264	2020-10-29T19:09:01:589
0,378345	-0,748713	9,770704	2020-10-29T19:09:01:608
0,357165	-0,756390	9,770910	2020-10-29T19:09:01:632
0,343907	-0,775813	9,769863	2020-10-29T19:09:01:649
0,332086	-0,797777	9,768503	2020-10-29T19:09:01:669
0,318805	-0,812164	9,767760	2020-10-29T19:09:01:689
0,305745	-0,822052	9,767350	2020-10-29T19:09:01:709
0,291289	-0,831803	9,766967	2020-10-29T19:09:01:729
0,275777	-0,842383	9,766510	2020-10-29T19:09:01:750
0,262598	-0,851536	9,766080	2020-10-29T19:09:01:769
0,247306	-0,855446	9,766137	2020-10-29T19:09:01:789
0,234331	-0,860700	9,765996	2020-10-29T19:09:01:809
0,216103	-0,860742	9,766412	2020-10-29T19:09:01:830
0,201329	-0,862441	9,766578	2020-10-29T19:09:01:849
0,187822	-0,859148	9,767138	2020-10-29T19:09:01:869
0,174095	-0,852520	9,767972	2020-10-29T19:09:01:889
0,160471	-0,850205	9,768408	2020-10-29T19:09:01:909
0,143777	-0,840185	9,769534	2020-10-29T19:09:01:929
0,128597	-0,832358	9,770416	2020-10-29T19:09:01:950
0,119558	-0,833158	9,770463	2020-10-29T19:09:01:969
0,110270	-0,836792	9,770261	2020-10-29T19:09:01:990
0,101976	-0,838693	9,770188	2020-10-29T19:09:02:009
0,092916	-0,841720	9,770019	2020-10-29T19:09:02:030
0,092367	-0,855577	9,768820	2020-10-29T19:09:02:049
0,087044	-0,863551	9,768167	2020-10-29T19:09:02:070
0,080644	-0,865135	9,768082	2020-10-29T19:09:02:089
0,072865	-0,861838	9,768435	2020-10-29T19:09:02:110
0,067478	-0,861259	9,768524	2020-10-29T19:09:02:129
0,061159	-0,857198	9,768923	2020-10-29T19:09:02:150
0,055556	-0,852616	9,769358	2020-10-29T19:09:02:169
0,049801	-0,842892	9,770232	2020-10-29T19:09:02:190
0,043754	-0,826633	9,771650	2020-10-29T19:09:02:209
0,031898	-0,795327	9,774294	2020-10-29T19:09:02:230
0,024851	-0,778907	9,775637	2020-10-29T19:09:02:249
0,020393	-0,765524	9,776704	2020-10-29T19:09:02:271
0,014871	-0,747155	9,778135	2020-10-29T19:09:02:289
0,013588	-0,743879	9,778386	2020-10-29T19:09:02:311
0,004892	-0,718954	9,780259	2020-10-29T19:09:02:329
-0,003500	-0,685800	9,782640	2020-10-29T19:09:02:351
-0,007915	-0,668622	9,783827	2020-10-29T19:09:02:370
-0,020389	-0,614180	9,787377	2020-10-29T19:09:02:391
-0,032763	-0,545578	9,791408	2020-10-29T19:09:02:409
-0,038179	-0,507189	9,793451	2020-10-29T19:09:02:432
-0,053594	-0,360240	9,799885	2020-10-29T19:09:02:449
-0,061180	-0,271130	9,802711	2020-10-29T19:09:02:472
-0,066138	-0,192863	9,804530	2020-10-29T19:09:02:493
-0,067462	-0,164491	9,805038	2020-10-29T19:09:02:514
-0,072341	-0,034757	9,806321	2020-10-29T19:09:02:531
-0,070892	-0,035682	9,806329	2020-10-29T19:09:02:554
-0,071904	0,070790	9,806130	2020-10-29T19:09:02:571
-0,070872	0,095979	9,805924	2020-10-29T19:09:02:594
-0,072580	0,154806	9,805160	2020-10-29T19:09:02:613
-0,073971	0,281465	9,802331	2020-10-29T19:09:02:633
-0,076189	0,444752	9,796264	2020-10-29T19:09:02:652
-0,077482	0,545949	9,791135	2020-10-29T19:09:02:674
-0,079541	0,841350	9,770168	2020-10-29T19:09:02:691
-0,079053	0,938938	9,761277	2020-10-29T19:09:02:713
-0,079235	1,065347	9,748289	2020-10-29T19:09:02:731
-0,081299	1,428838	9,701659	2020-10-29T19:09:02:753
-0,081518	1,786931	9,642127	2020-10-29T19:09:02:771
-0,080805	2,317445	9,528552	2020-10-29T19:09:02:793
-0,079064	2,480439	9,487442	2020-10-29T19:09:02:811
-0,078033	2,595892	9,456513	2020-10-29T19:09:02:833
-0,075667	2,865853	9,378248	2020-10-29T19:09:02:852
-0,066549	-5,255692	8,279110	2020-10-29T19:09:02:873
-0,078960	-4,760022	8,573584	2020-10-29T19:09:02:891
-0,087202	-4,361098	8,783143	2020-10-29T19:09:02:913
-0,097266	-3,844165	9,021271	2020-10-29T19:09:02:931
-0,101991	-3,568295	9,133852	2020-10-29T19:09:02:954
-0,101806	-3,474183	9,170064	2020-10-29T19:09:02:971
-0,105729	-3,267103	9,245823	2020-10-29T19:09:02:993
-0,106059	-3,168381	9,280113	2020-10-29T19:09:03:012
-0,108558	-3,030764	9,325935	2020-10-29T19:09:03:034
-0,108806	-2,969429	9,345643	2020-10-29T19:09:03:052
-0,113433	-2,761650	9,409081	2020-10-29T19:09:03:074
-0,118166	-2,616642	9,450376	2020-10-29T19:09:03:093
-0,117616	-2,592446	9,457048	2020-10-29T19:09:03:113
-0,117207	-2,546449	9,469543	2020-10-29T19:09:03:132
-0,119491	-2,460465	9,492219	2020-10-29T19:09:03:154
-0,119936	-2,401338	9,507343	2020-10-29T19:09:03:172
-0,125119	-2,315428	9,528563	2020-10-29T19:09:03:194
-0,123053	-2,337462	9,523210	2020-10-29T19:09:03:212
-0,122353	-2,330644	9,524889	2020-10-29T19:09:03:233
-0,123463	-2,289815	9,534773	2020-10-29T19:09:03:252
-0,123936	-2,257942	9,542365	2020-10-29T19:09:03:274
-0,122452	-2,265599	9,540568	2020-10-29T19:09:03:291
-0,122189	-2,253278	9,543489	2020-10-29T19:09:03:314
-0,120840	-2,269264	9,539718	2020-10-29T19:09:03:334
-0,122024	-2,250846	9,544065	2020-10-29T19:09:03:354
-0,122157	-2,252001	9,543792	2020-10-29T19:09:03:372
-0,120440	-2,255710	9,542937	2020-10-29T19:09:03:394
-0,123150	-2,204611	9,554837	2020-10-29T19:09:03:412
-0,122884	-2,199097	9,556110	2020-10-29T19:09:03:434
-0,124252	-2,173350	9,561982	2020-10-29T19:09:03:452
-0,124677	-2,182392	9,559916	2020-10-29T19:09:03:474
-0,119366	-2,238685	9,546959	2020-10-29T19:09:03:492
-0,118998	-2,226749	9,549754	2020-10-29T19:09:03:514
-0,121520	-2,177462	9,561081	2020-10-29T19:09:03:532
-0,123297	-2,145580	9,568264	2020-10-29T19:09:03:554
-0,124161	-2,120246	9,573898	2020-10-29T19:09:03:573
-0,121601	-2,145830	9,568230	2020-10-29T19:09:03:594
-0,119255	-2,158366	9,565438	2020-10-29T19:09:03:613
-0,119896	-2,161515	9,564720	2020-10-29T19:09:03:646
-0,123274	-2,124436	9,572981	2020-10-29T19:09:03:660
-0,123487	-2,118055	9,574391	2020-10-29T19:09:03:719
-0,125093	-2,092237	9,580046	2020-10-29T19:09:03:720
-0,125015	-2,080358	9,582634	2020-10-29T19:09:03:722
-0,121723	-2,112660	9,575606	2020-10-29T19:09:03:732
-0,125774	-2,078505	9,583026	2020-10-29T19:09:03:754
-0,125937	-2,071407	9,584560	2020-10-29T19:09:03:773
-0,130213	-2,015830	9,596346	2020-10-29T19:09:03:795
-0,130579	-2,008008	9,597980	2020-10-29T19:09:03:814
-0,132556	-1,971464	9,605527	2020-10-29T19:09:03:834
-0,133405	-1,955148	9,608850	2020-10-29T19:09:03:852
-0,130983	-1,963680	9,607142	2020-10-29T19:09:03:874
-0,131482	-1,948719	9,610182	2020-10-29T19:09:03:892
-0,130941	-1,950058	9,609918	2020-10-29T19:09:03:914
-0,128408	-1,964792	9,606950	2020-10-29T19:09:03:932
-0,125722	-1,970528	9,605810	2020-10-29T19:09:03:954
-0,126808	-1,957524	9,608455	2020-10-29T19:09:03:973
-0,127063	-1,953818	9,609205	2020-10-29T19:09:03:995
-0,128321	-1,958670	9,608201	2020-10-29T19:09:04:012
-0,128570	-1,953380	9,609275	2020-10-29T19:09:04:034
-0,129984	-1,942524	9,611456	2020-10-29T19:09:04:053
-0,128771	-1,951362	9,609682	2020-10-29T19:09:04:074
-0,125813	-1,976996	9,604481	2020-10-29T19:09:04:093
-0,125384	-1,988170	9,602180	2020-10-29T19:09:04:115
-0,126805	-1,984206	9,602981	2020-10-29T19:09:04:133
-0,127226	-1,973236	9,605235	2020-10-29T19:09:04:155
-0,128065	-1,976235	9,604608	2020-10-29T19:09:04:172
-0,129147	-1,968195	9,606243	2020-10-29T19:09:04:195
-0,128129	-1,983159	9,603179	2020-10-29T19:09:04:213
-0,128423	-1,983215	9,603164	2020-10-29T19:09:04:236
-0,126763	-1,984513	9,602918	2020-10-29T19:09:04:253
-0,127934	-1,964116	9,607095	2020-10-29T19:09:04:275
-0,130481	-1,936800	9,612604	2020-10-29T19:09:04:293
-0,129812	-1,934782	9,613020	2020-10-29T19:09:04:315
-0,128459	-1,944665	9,611044	2020-10-29T19:09:04:333
-0,126622	-1,953176	9,609342	2020-10-29T19:09:04:356
-0,128813	-1,942211	9,611535	2020-10-29T19:09:04:373
-0,129927	-1,938897	9,612189	2020-10-29T19:09:04:396
-0,129120	-1,932258	9,613537	2020-10-29T19:09:04:413
-0,125630	-1,946472	9,610715	2020-10-29T19:09:04:435
-0,126190	-1,949278	9,610139	2020-10-29T19:09:04:453
-0,125387	-1,954235	9,609143	2020-10-29T19:09:04:476
-0,126922	-1,951638	9,609651	2020-10-29T19:09:04:493
-0,124260	-1,967338	9,606483	2020-10-29T19:09:04:516
-0,126103	-1,949112	9,610174	2020-10-29T19:09:04:534
-0,126345	-1,951918	9,609601	2020-10-29T19:09:04:555
-0,126808	-1,951155	9,609750	2020-10-29T19:09:04:573
-0,128660	-1,948395	9,610286	2020-10-29T19:09:04:596
-0,124965	-1,965276	9,606896	2020-10-29T19:09:04:613
-0,124096	-1,962563	9,607462	2020-10-29T19:09:04:636
-0,120946	-1,986291	9,602625	2020-10-29T19:09:04:654
-0,120047	-2,000053	9,599779	2020-10-29T19:09:04:676
-0,120901	-1,985236	9,602843	2020-10-29T19:09:04:693
-0,121098	-1,977994	9,604336	2020-10-29T19:09:04:716
-0,122774	-1,948056	9,610431	2020-10-29T19:09:04:733
-0,121194	-1,946976	9,610670	2020-10-29T19:09:04:756
-0,120615	-1,955984	9,608848	2020-10-29T19:09:04:775
-0,122716	-1,941881	9,611682	2020-10-29T19:09:04:796
-0,122559	-1,934652	9,613141	2020-10-29T19:09:04:814
-0,122933	-1,927853	9,614502	2020-10-29T19:09:04:836
-0,122467	-1,925575	9,614964	2020-10-29T19:09:04:853
-0,122848	-1,926685	9,614738	2020-10-29T19:09:04:877
-0,121376	-1,949095	9,610238	2020-10-29T19:09:04:894
-0,124128	-1,937387	9,612570	2020-10-29T19:09:04:916
-0,124098	-1,941065	9,611829	2020-10-29T19:09:04:933
-0,124118	-1,940831	9,611876	2020-10-29T19:09:04:957
-0,126054	-1,935407	9,612945	2020-10-29T19:09:04:973
-0,124652	-1,940997	9,611835	2020-10-29T19:09:04:997
-0,123492	-1,951730	9,609676	2020-10-29T19:09:05:016
-0,118171	-2,000522	9,599705	2020-10-29T19:09:05:036
-0,120640	-2,006033	9,598524	2020-10-29T19:09:05:054
-0,121153	-2,007165	9,598281	2020-10-29T19:09:05:106
-0,123432	-1,990075	9,601810	2020-10-29T19:09:05:107
-0,120105	-2,012279	9,597223	2020-10-29T19:09:05:120
-0,121086	-2,005796	9,598568	2020-10-29T19:09:05:145
-0,122523	-2,001615	9,599422	2020-10-29T19:09:05:156
-0,122015	-1,998104	9,600161	2020-10-29T19:09:05:174
-0,120163	-2,011534	9,597379	2020-10-29T19:09:05:196
-0,116156	-2,040087	9,591399	2020-10-29T19:09:05:213
-0,113717	-2,058756	9,587439	2020-10-29T19:09:05:237
-0,110921	-2,081500	9,582560	2020-10-29T19:09:05:255
-0,110730	-2,087642	9,581225	2020-10-29T19:09:05:276
-0,109367	-2,096974	9,579203	2020-10-29T19:09:05:294
-0,108729	-2,107130	9,576981	2020-10-29T19:09:05:317
-0,107839	-2,114622	9,575339	2020-10-29T19:09:05:333
-0,107514	-2,127403	9,572512	2020-10-29T19:09:05:357
-0,110453	-2,113102	9,575645	2020-10-29T19:09:05:374
-0,109690	-2,130458	9,571808	2020-10-29T19:09:05:398
-0,106017	-2,199862	9,556137	2020-10-29T19:09:05:414
-0,106106	-2,203936	9,555197	2020-10-29T19:09:05:437
-0,106831	-2,198515	9,556437	2020-10-29T19:09:05:454
-0,104406	-2,233855	9,548265	2020-10-29T19:09:05:477
-0,100676	-2,278679	9,537707	2020-10-29T19:09:05:495
-0,100039	-2,283568	9,536545	2020-10-29T19:09:05:516
-0,101932	-2,275820	9,538377	2020-10-29T19:09:05:534
-0,103541	-2,274991	9,538558	2020-10-29T19:09:05:557
-0,107418	-2,225437	9,550198	2020-10-29T19:09:05:574
-0,106839	-2,207697	9,554320	2020-10-29T19:09:05:597
-0,103890	-2,243090	9,546106	2020-10-29T19:09:05:614
-0,102860	-2,256339	9,542994	2020-10-29T19:09:05:641
-0,097621	-2,354747	9,519245	2020-10-29T19:09:05:654
-0,096659	-2,384968	9,511728	2020-10-29T19:09:05:677
-0,095500	-2,427665	9,500932	2020-10-29T19:09:05:694
-0,096179	-2,443350	9,496903	2020-10-29T19:09:05:717
-0,100903	-2,385663	9,511510	2020-10-29T19:09:05:735
-0,105640	-2,338765	9,523098	2020-10-29T19:09:05:757
-0,106479	-2,335958	9,523778	2020-10-29T19:09:05:774
-0,108106	-2,328218	9,525655	2020-10-29T19:09:05:797
-0,108191	-2,322668	9,527009	2020-10-29T19:09:05:814
-0,108075	-2,323926	9,526703	2020-10-29T19:09:05:837
-0,108083	-2,323123	9,526898	2020-10-29T19:09:05:854
-0,111831	-2,278450	9,537639	2020-10-29T19:09:05:877
-0,116024	-2,243846	9,545789	2020-10-29T19:09:05:896
-0,116743	-2,224949	9,550202	2020-10-29T19:09:05:917
-0,113562	-2,245454	9,545440	2020-10-29T19:09:05:934
-0,112688	-2,237529	9,547311	2020-10-29T19:09:05:957
-0,110063	-2,272995	9,538960	2020-10-29T19:09:05:976
-0,107824	-2,305862	9,531095	2020-10-29T19:09:05:997
-0,108053	-2,310572	9,529951	2020-10-29T19:09:06:016
-0,108455	-2,304420	9,531436	2020-10-29T19:09:06:038
-0,111038	-2,275039	9,538462	2020-10-29T19:09:06:056
-0,108767	-2,298985	9,532744	2020-10-29T19:09:06:077
-0,105233	-2,344788	9,521622	2020-10-29T19:09:06:095
-0,105917	-2,325700	9,526295	2020-10-29T19:09:06:117
-0,106544	-2,328854	9,525517	2020-10-29T19:09:06:135
-0,109243	-2,300093	9,532472	2020-10-29T19:09:06:157
-0,109328	-2,299281	9,532667	2020-10-29T19:09:06:175
-0,109620	-2,302786	9,531817	2020-10-29T19:09:06:198
-0,106557	-2,356916	9,518612	2020-10-29T19:09:06:217
-0,112798	-2,283388	9,536446	2020-10-29T19:09:06:238
-0,112561	-2,308702	9,530352	2020-10-29T19:09:06:255
-0,113596	-2,316931	9,528342	2020-10-29T19:09:06:277
-0,114095	-2,315170	9,528765	2020-10-29T19:09:06:294
-0,117584	-2,267169	9,540257	2020-10-29T19:09:06:317
-0,116731	-2,277589	9,537786	2020-10-29T19:09:06:336
-0,116040	-2,293888	9,533887	2020-10-29T19:09:06:358
-0,117726	-2,282179	9,536675	2020-10-29T19:09:06:375
-0,121818	-2,237789	9,547138	2020-10-29T19:09:06:398
-0,122107	-2,216729	9,552046	2020-10-29T19:09:06:415
-0,121976	-2,202589	9,555318	2020-10-29T19:09:06:438
-0,119274	-2,216980	9,552024	2020-10-29T19:09:06:456
-0,115742	-2,240368	9,546609	2020-10-29T19:09:06:478
-0,116024	-2,227169	9,549693	2020-10-29T19:09:06:495
-0,115865	-2,217894	9,551853	2020-10-29T19:09:06:518
-0,116559	-2,217333	9,551975	2020-10-29T19:09:06:535
-0,119542	-2,190652	9,558093	2020-10-29T19:09:06:558
-0,121330	-2,167201	9,563415	2020-10-29T19:09:06:575
-0,124644	-2,138983	9,569723	2020-10-29T19:09:06:598
-0,124639	-2,140603	9,569361	2020-10-29T19:09:06:615
-0,124352	-2,142784	9,568876	2020-10-29T19:09:06:638
-0,126541	-2,134563	9,570685	2020-10-29T19:09:06:655
-0,127589	-2,125506	9,572687	2020-10-29T19:09:06:679
-0,125652	-2,134240	9,570769	2020-10-29T19:09:06:697
-0,124210	-2,154942	9,566148	2020-10-29T19:09:06:718
-0,125403	-2,145278	9,568304	2020-10-29T19:09:06:737
-0,125824	-2,141888	9,569057	2020-10-29T19:09:06:758
-0,125878	-2,143733	9,568644	2020-10-29T19:09:06:776
-0,125697	-2,147116	9,567888	2020-10-29T19:09:06:798
-0,125040	-2,156769	9,565725	2020-10-29T19:09:06:815
-0,125036	-2,138728	9,569775	2020-10-29T19:09:06:838
-0,125978	-2,114392	9,575169	2020-10-29T19:09:06:855
-0,125296	-2,110106	9,576123	2020-10-29T19:09:06:878
-0,125885	-2,104046	9,577449	2020-10-29T19:09:06:895
-0,130367	-2,074590	9,583813	2020-10-29T19:09:06:918
-0,131080	-2,072423	9,584271	2020-10-29T19:09:06:936
-0,131000	-2,074160	9,583898	2020-10-29T19:09:06:958
-0,131012	-2,071929	9,584379	2020-10-29T19:09:06:975
-0,134227	-2,047907	9,589497	2020-10-29T19:09:06:999
-0,132682	-2,056113	9,587762	2020-10-29T19:09:07:015
-0,132732	-2,063078	9,586265	2020-10-29T19:09:07:038
-0,133115	-2,056332	9,587709	2020-10-29T19:09:07:056
-0,135346	-2,043422	9,590438	2020-10-29T19:09:07:078
-0,133582	-2,057102	9,587537	2020-10-29T19:09:07:096
-0,134261	-2,059168	9,587085	2020-10-29T19:09:07:119
-0,134517	-2,067772	9,585229	2020-10-29T19:09:07:136
-0,134909	-2,071632	9,584390	2020-10-29T19:09:07:159
-0,133705	-2,085046	9,581497	2020-10-29T19:09:07:178
-0,134464	-2,075706	9,583514	2020-10-29T19:09:07:199
-0,132218	-2,083215	9,581916	2020-10-29T19:09:07:215
-0,132065	-2,080296	9,582553	2020-10-29T19:09:07:238
-0,132189	-2,083003	9,581963	2020-10-29T19:09:07:256
-0,130420	-2,096082	9,579134	2020-10-29T19:09:07:279
-0,130528	-2,090387	9,580378	2020-10-29T19:09:07:295
-0,130856	-2,070677	9,584652	2020-10-29T19:09:07:318
-0,131329	-2,063994	9,586087	2020-10-29T19:09:07:335
-0,129179	-2,073055	9,584161	2020-10-29T19:09:07:359
-0,126578	-2,096252	9,579148	2020-10-29T19:09:07:375
-0,125295	-2,101844	9,577940	2020-10-29T19:09:07:399
-0,121522	-2,125879	9,572682	2020-10-29T19:09:07:416
-0,121664	-2,125362	9,572796	2020-10-29T19:09:07:439
-0,125435	-2,080930	9,582503	2020-10-29T19:09:07:455
-0,127141	-2,065269	9,585869	2020-10-29T19:09:07:478
-0,123428	-2,101746	9,577986	2020-10-29T19:09:07:495
-0,120485	-2,124359	9,573033	2020-10-29T19:09:07:519
-0,124113	-2,094659	9,579530	2020-10-29T19:09:07:535
-0,127883	-2,076308	9,583474	2020-10-29T19:09:07:558
-0,130231	-2,064249	9,586047	2020-10-29T19:09:07:575
-0,127086	-2,081503	9,582357	2020-10-29T19:09:07:599
-0,127187	-2,078282	9,583055	2020-10-29T19:09:07:615
-0,129098	-2,065041	9,585892	2020-10-29T19:09:07:638
-0,128136	-2,078331	9,583033	2020-10-29T19:09:07:657
-0,127466	-2,083553	9,581907	2020-10-29T19:09:07:678
-0,127977	-2,066860	9,585515	2020-10-29T19:09:07:696
-0,128099	-2,052917	9,588510	2020-10-29T19:09:07:718
-0,127805	-2,045192	9,590164	2020-10-29T19:09:07:736
-0,126875	-2,044463	9,590332	2020-10-29T19:09:07:760
-0,127222	-2,042123	9,590825	2020-10-29T19:09:07:775
-0,126454	-2,042982	9,590652	2020-10-29T19:09:07:799
-0,128660	-2,040518	9,591147	2020-10-29T19:09:07:815
-0,125957	-2,060170	9,586982	2020-10-29T19:09:07:839
-0,128464	-2,051361	9,588838	2020-10-29T19:09:07:856
-0,123892	-2,083010	9,582072	2020-10-29T19:09:07:878
-0,121922	-2,100480	9,578283	2020-10-29T19:09:07:897
-0,121855	-2,102642	9,577809	2020-10-29T19:09:07:919
-0,119859	-2,117549	9,574550	2020-10-29T19:09:07:936
-0,114865	-2,157823	9,565615	2020-10-29T19:09:07:959
-0,117986	-2,135570	9,570570	2020-10-29T19:09:07:975
-0,118997	-2,138705	9,569858	2020-10-29T19:09:07:999
-0,118502	-2,141348	9,569272	2020-10-29T19:09:08:016
-0,119909	-2,135875	9,570477	2020-10-29T19:09:08:038
-0,118138	-2,154944	9,566224	2020-10-29T19:09:08:056
-0,119285	-2,138437	9,569914	2020-10-29T19:09:08:079
-0,117624	-2,164961	9,563969	2020-10-29T19:09:08:096
-0,118949	-2,157784	9,565574	2020-10-29T19:09:08:119
-0,123378	-2,127710	9,572252	2020-10-29T19:09:08:136
-0,121682	-2,126403	9,572564	2020-10-29T19:09:08:159
-0,120662	-2,134019	9,570882	2020-10-29T19:09:08:176
-0,121544	-2,130761	9,571597	2020-10-29T19:09:08:200
-0,118017	-2,170351	9,562742	2020-10-29T19:09:08:215
-0,115625	-2,187724	9,558811	2020-10-29T19:09:08:239
-0,116122	-2,172412	9,562297	2020-10-29T19:09:08:256
-0,116170	-2,158960	9,565343	2020-10-29T19:09:08:278
-0,113939	-2,171730	9,562478	2020-10-29T19:09:08:296
-0,111827	-2,188533	9,558672	2020-10-29T19:09:08:319
-0,108209	-2,218941	9,551701	2020-10-29T19:09:08:336
-0,108779	-2,218865	9,551711	2020-10-29T19:09:08:360
-0,106364	-2,271169	9,539437	2020-10-29T19:09:08:377
-0,108041	-2,272552	9,539089	2020-10-29T19:09:08:400
-0,109490	-2,268564	9,540022	2020-10-29T19:09:08:416
-0,110208	-2,264343	9,541017	2020-10-29T19:09:08:439
-0,107990	-2,292607	9,534289	2020-10-29T19:09:08:456
-0,108619	-2,290842	9,534706	2020-10-29T19:09:08:480
-0,110529	-2,272005	9,539191	2020-10-29T19:09:08:496
-0,109052	-2,284193	9,536297	2020-10-29T19:09:08:519
-0,107235	-2,318611	9,528008	2020-10-29T19:09:08:536
-0,105941	-2,344386	9,521712	2020-10-29T19:09:08:560
-0,105170	-2,358609	9,518209	2020-10-29T19:09:08:576
-0,107371	-2,344144	9,521756	2020-10-29T19:09:08:599
-0,106216	-2,366233	9,516304	2020-10-29T19:09:08:617
-0,103962	-2,406864	9,506134	2020-10-29T19:09:08:639
-0,104924	-2,404254	9,506783	2020-10-29T19:09:08:657
-0,104924	-2,404150	9,506810	2020-10-29T19:09:08:680
-0,106946	-2,383479	9,511991	2020-10-29T19:09:08:696
-0,106863	-2,385680	9,511440	2020-10-29T19:09:08:720
-0,106211	-2,401253	9,507528	2020-10-29T19:09:08:737
-0,108283	-2,397409	9,508474	2020-10-29T19:09:08:759
-0,110549	-2,386642	9,511157	2020-10-29T19:09:08:776
-0,110942	-2,394571	9,509159	2020-10-29T19:09:08:800
-0,107753	-2,428833	9,500503	2020-10-29T19:09:08:816
-0,106463	-2,429556	9,500332	2020-10-29T19:09:08:839
-0,108164	-2,413521	9,504399	2020-10-29T19:09:08:857
-0,105303	-2,456023	9,493537	2020-10-29T19:09:08:880
-0,109748	-2,414888	9,504034	2020-10-29T19:09:08:897
-0,107035	-2,443058	9,496862	2020-10-29T19:09:08:919
-0,104475	-2,476647	9,488187	2020-10-29T19:09:08:936
-0,104074	-2,499274	9,482256	2020-10-29T19:09:08:960
-0,104464	-2,521995	9,476234	2020-10-29T19:09:08:976
-0,108067	-2,485678	9,485785	2020-10-29T19:09:08:999
-0,105071	-2,520359	9,476663	2020-10-29T19:09:09:016
-0,107427	-2,497391	9,482715	2020-10-29T19:09:09:057
-0,107911	-2,499396	9,482182	2020-10-29T19:09:09:059
-0,107663	-2,511010	9,479115	2020-10-29T19:09:09:080
-0,114513	-2,417132	9,503407	2020-10-29T19:09:09:098
-0,117749	-2,392825	9,509517	2020-10-29T19:09:09:120
-0,116403	-2,408530	9,505568	2020-10-29T19:09:09:137
-0,116658	-2,404109	9,506683	2020-10-29T19:09:09:160
-0,115617	-2,413084	9,504422	2020-10-29T19:09:09:177
-0,115425	-2,411906	9,504724	2020-10-29T19:09:09:201
-0,114447	-2,421103	9,502397	2020-10-29T19:09:09:218
-0,114253	-2,427868	9,500673	2020-10-29T19:09:09:245
-0,114700	-2,451475	9,494604	2020-10-29T19:09:09:280
-0,113743	-2,477659	9,487816	2020-10-29T19:09:09:286
-0,117989	-2,429360	9,500246	2020-10-29T19:09:09:297
-0,120571	-2,411286	9,504817	2020-10-29T19:09:09:319
-0,118550	-2,422616	9,501961	2020-10-29T19:09:09:338
-0,120222	-2,391505	9,509818	2020-10-29T19:09:09:361
-0,122251	-2,362416	9,517060	2020-10-29T19:09:09:377
-0,124816	-2,338116	9,523026	2020-10-29T19:09:09:400
-0,123404	-2,345799	9,521154	2020-10-29T19:09:09:417
-0,121931	-2,375270	9,513865	2020-10-29T19:09:09:441
-0,120044	-2,399801	9,507730	2020-10-29T19:09:09:457
-0,122844	-2,369817	9,515212	2020-10-29T19:09:09:480
-0,122167	-2,373165	9,514386	2020-10-29T19:09:09:498
-0,122223	-2,366535	9,516037	2020-10-29T19:09:09:522
-0,119007	-2,395437	9,508843	2020-10-29T19:09:09:537
-0,121376	-2,361726	9,517242	2020-10-29T19:09:09:561
-0,122407	-2,352531	9,519506	2020-10-29T19:09:09:579
-0,121912	-2,348650	9,520471	2020-10-29T19:09:09:601
-0,121213	-2,343441	9,521763	2020-10-29T19:09:09:618
-0,123517	-2,308331	9,530306	2020-10-29T19:09:09:641
-0,122239	-2,330898	9,524828	2020-10-29T19:09:09:657
-0,121510	-2,345453	9,521264	2020-10-29T19:09:09:682
-0,124472	-2,314287	9,528849	2020-10-29T19:09:09:698
-0,125007	-2,306434	9,530746	2020-10-29T19:09:09:721
-0,129331	-2,273447	9,538610	2020-10-29T19:09:09:737
-0,129838	-2,273694	9,538545	2020-10-29T19:09:09:761
-0,131216	-2,260253	9,541720	2020-10-29T19:09:09:777
-0,135756	-2,232987	9,548075	2020-10-29T19:09:09:800
-0,136690	-2,228829	9,549032	2020-10-29T19:09:09:820
-0,132957	-2,267979	9,539863	2020-10-29T19:09:09:839
-0,135553	-2,255014	9,542899	2020-10-29T19:09:09:858
-0,134930	-2,254804	9,542957	2020-10-29T19:09:09:881
-0,134468	-2,259620	9,541825	2020-10-29T19:09:09:897
-0,133612	-2,262875	9,541065	2020-10-29T19:09:09:921
-0,132595	-2,272864	9,538705	2020-10-29T19:09:09:938
-0,135241	-2,250231	9,544032	2020-10-29T19:09:09:961
-0,134210	-2,253055	9,543381	2020-10-29T19:09:09:977
-0,133469	-2,255025	9,542926	2020-10-29T19:09:10:001
-0,131572	-2,259944	9,541788	2020-10-29T19:09:10:018
-0,130750	-2,263505	9,540956	2020-10-29T19:09:10:041
-0,128035	-2,285681	9,535704	2020-10-29T19:09:10:059
-0,128576	-2,280810	9,536863	2020-10-29T19:09:10:081
-0,129042	-2,268367	9,539824	2020-10-29T19:09:10:098
-0,128218	-2,275678	9,538094	2020-10-29T19:09:10:121
-0,130144	-2,289951	9,534651	2020-10-29T19:09:10:137
-0,129529	-2,295395	9,533350	2020-10-29T19:09:10:161
-0,133017	-2,267874	9,539886	2020-10-29T19:09:10:178
-0,132188	-2,292808	9,533937	2020-10-29T19:09:10:201
-0,132179	-2,299635	9,532292	2020-10-29T19:09:10:218
-0,130904	-2,313119	9,529046	2020-10-29T19:09:10:241
-0,127286	-2,339271	9,522710	2020-10-29T19:09:10:258
-0,127997	-2,337265	9,523192	2020-10-29T19:09:10:280
-0,129449	-2,354803	9,518851	2020-10-29T19:09:10:299
-0,130466	-2,350911	9,519799	2020-10-29T19:09:10:320
-0,130749	-2,341413	9,522136	2020-10-29T19:09:10:338
-0,133096	-2,324680	9,526202	2020-10-29T19:09:10:361
-0,132626	-2,313497	9,528931	2020-10-29T19:09:10:378
-0,132694	-2,297744	9,532741	2020-10-29T19:09:10:401
-0,131119	-2,297800	9,532749	2020-10-29T19:09:10:418
-0,133381	-2,277371	9,537619	2020-10-29T19:09:10:441
-0,132957	-2,283334	9,536200	2020-10-29T19:09:10:458
-0,132189	-2,277681	9,537561	2020-10-29T19:09:10:481
-0,129238	-2,292733	9,533995	2020-10-29T19:09:10:498
-0,127763	-2,304920	9,531075	2020-10-29T19:09:10:521
-0,128501	-2,298762	9,532553	2020-10-29T19:09:10:541
-0,132370	-2,282743	9,536348	2020-10-29T19:09:10:561
-0,132235	-2,282897	9,536314	2020-10-29T19:09:10:579
-0,137976	-2,229286	9,548907	2020-10-29T19:09:10:601
-0,133915	-2,251605	9,543727	2020-10-29T19:09:10:618
-0,133836	-2,254360	9,543077	2020-10-29T19:09:10:641
-0,134392	-2,244112	9,545485	2020-10-29T19:09:10:659
-0,132521	-2,246682	9,544907	2020-10-29T19:09:10:680
-0,130431	-2,270265	9,539353	2020-10-29T19:09:10:698
-0,130497	-2,276412	9,537888	2020-10-29T19:09:10:720
-0,130058	-2,286255	9,535540	2020-10-29T19:09:10:738
-0,131232	-2,279176	9,537218	2020-10-29T19:09:10:761
-0,134467	-2,251452	9,543756	2020-10-29T19:09:10:779
-0,131536	-2,253018	9,543427	2020-10-29T19:09:10:801
-0,128093	-2,275777	9,538072	2020-10-29T19:09:10:818
-0,121740	-2,374597	9,514034	2020-10-29T19:09:10:841
-0,128545	-2,329403	9,525111	2020-10-29T19:09:10:858
-0,126013	-2,340236	9,522490	2020-10-29T19:09:10:881
-0,129335	-2,301671	9,531839	2020-10-29T19:09:10:899
-0,128332	-2,301662	9,531856	2020-10-29T19:09:10:922
-0,128445	-2,288717	9,534970	2020-10-29T19:09:10:939
-0,127275	-2,293669	9,533796	2020-10-29T19:09:10:962
-0,129942	-2,275385	9,538140	2020-10-29T19:09:10:979
-0,130414	-2,255496	9,542857	2020-10-29T19:09:11:001
-0,129949	-2,258334	9,542192	2020-10-29T19:09:11:019
-0,134136	-2,241796	9,546033	2020-10-29T19:09:11:041
-0,134601	-2,249344	9,544250	2020-10-29T19:09:11:059
-0,134875	-2,252578	9,543484	2020-10-29T19:09:11:081
-0,132742	-2,269991	9,539387	2020-10-29T19:09:11:099
-0,132289	-2,275429	9,538097	2020-10-29T19:09:11:121
-0,132211	-2,288073	9,535073	2020-10-29T19:09:11:139
-0,131736	-2,290819	9,534421	2020-10-29T19:09:11:161
-0,126371	-2,328546	9,525350	2020-10-29T19:09:11:179
-0,126396	-2,329374	9,525147	2020-10-29T19:09:11:201
-0,126510	-2,334774	9,523824	2020-10-29T19:09:11:218
-0,126206	-2,341906	9,522077	2020-10-29T19:09:11:242
-0,124782	-2,353195	9,519311	2020-10-29T19:09:11:260
-0,124645	-2,338849	9,522848	2020-10-29T19:09:11:281
-0,123718	-2,337210	9,523262	2020-10-29T19:09:11:299
-0,125060	-2,333125	9,524246	2020-10-29T19:09:11:322
-0,125967	-2,330544	9,524866	2020-10-29T19:09:11:339
-0,125306	-2,329884	9,525037	2020-10-29T19:09:11:362
-0,125409	-2,328272	9,525430	2020-10-29T19:09:11:378
-0,121922	-2,358126	9,518128	2020-10-29T19:09:11:401
-0,122565	-2,350948	9,519896	2020-10-29T19:09:11:419
-0,121947	-2,347083	9,520857	2020-10-29T19:09:11:441
-0,123312	-2,334875	9,523840	2020-10-29T19:09:11:458
-0,123824	-2,327069	9,525744	2020-10-29T19:09:11:481
-0,125386	-2,327354	9,525654	2020-10-29T19:09:11:500
-0,121779	-2,358205	9,518110	2020-10-29T19:09:11:521
-0,122265	-2,358269	9,518088	2020-10-29T19:09:11:539
-0,125526	-2,340456	9,522442	2020-10-29T19:09:11:562
-0,124118	-2,351613	9,519711	2020-10-29T19:09:11:579
-0,123165	-2,359103	9,517870	2020-10-29T19:09:11:603
-0,124616	-2,365218	9,516334	2020-10-29T19:09:11:619
-0,124030	-2,375055	9,513890	2020-10-29T19:09:11:642
-0,123361	-2,385509	9,511284	2020-10-29T19:09:11:663
-0,125033	-2,378065	9,513125	2020-10-29T19:09:11:682
-0,121232	-2,397987	9,508173	2020-10-29T19:09:11:699
-0,121424	-2,395961	9,508681	2020-10-29T19:09:11:733
-0,121821	-2,416840	9,503390	2020-10-29T19:09:11:740
-0,121599	-2,434164	9,498971	2020-10-29T19:09:11:762
-0,121135	-2,437708	9,498068	2020-10-29T19:09:11:780
-0,121896	-2,424914	9,501332	2020-10-29T19:09:11:802
-0,120602	-2,443111	9,496686	2020-10-29T19:09:11:819
-0,120159	-2,473707	9,488769	2020-10-29T19:09:11:842
-0,170507	-2,299720	9,531663	2020-10-29T19:09:11:861
-0,120588	-2,606194	9,453232	2020-10-29T19:09:11:882
-0,143455	-2,491457	9,483799	2020-10-29T19:09:11:900
-0,136518	-2,520708	9,476169	2020-10-29T19:09:11:925
-0,136902	-2,514316	9,477861	2020-10-29T19:09:11:940
-0,139177	-2,496878	9,482437	2020-10-29T19:09:11:964
-0,137785	-2,523588	9,475384	2020-10-29T19:09:11:981
-0,144491	-2,482144	9,486225	2020-10-29T19:09:12:002
-0,148084	-2,454404	9,493384	2020-10-29T19:09:12:020
-0,149014	-2,434549	9,498482	2020-10-29T19:09:12:042
-0,147247	-2,453262	9,493693	2020-10-29T19:09:12:060
-0,136276	-2,490845	9,484066	2020-10-29T19:09:12:082
-0,142105	-2,459904	9,492053	2020-10-29T19:09:12:100
-0,140909	-2,443382	9,496337	2020-10-29T19:09:12:122
-0,145530	-2,412323	9,504205	2020-10-29T19:09:12:140
-0,147164	-2,385988	9,510824	2020-10-29T19:09:12:163
-0,147514	-2,374305	9,513742	2020-10-29T19:09:12:180
-0,151961	-2,333956	9,523651	2020-10-29T19:09:12:205
-0,151086	-2,338806	9,522475	2020-10-29T19:09:12:222
-0,154575	-2,311373	9,529116	2020-10-29T19:09:12:242
-0,156169	-2,298793	9,532132	2020-10-29T19:09:12:261
-0,157263	-2,283892	9,535696	2020-10-29T19:09:12:283
-0,155729	-2,302359	9,531279	2020-10-29T19:09:12:301
-0,156151	-2,301803	9,531406	2020-10-29T19:09:12:323
-0,160581	-2,273163	9,538203	2020-10-29T19:09:12:340
-0,163568	-2,264269	9,540268	2020-10-29T19:09:12:363
-0,165262	-2,263240	9,540483	2020-10-29T19:09:12:381
-0,161100	-2,312999	9,528613	2020-10-29T19:09:12:403
-0,160089	-2,318174	9,527372	2020-10-29T19:09:12:420
-0,160678	-2,302271	9,531218	2020-10-29T19:09:12:443
-0,162198	-2,291344	9,533825	2020-10-29T19:09:12:462
-0,161719	-2,299088	9,531969	2020-10-29T19:09:12:483
-0,162864	-2,307164	9,529998	2020-10-29T19:09:12:501
-0,163701	-2,305162	9,530468	2020-10-29T19:09:12:523
-0,163099	-2,295781	9,532743	2020-10-29T19:09:12:540
-0,164173	-2,280143	9,536476	2020-10-29T19:09:12:563
-0,166692	-2,252185	9,543074	2020-10-29T19:09:12:581
-0,166566	-2,255919	9,542194	2020-10-29T19:09:12:603
-0,164741	-2,292253	9,533563	2020-10-29T19:09:12:621
-0,167702	-2,261751	9,540793	2020-10-29T19:09:12:643
-0,159210	-2,301185	9,531505	2020-10-29T19:09:12:661
-0,165558	-2,269221	9,539057	2020-10-29T19:09:12:683
-0,165996	-2,256530	9,542060	2020-10-29T19:09:12:701
-0,167149	-2,251132	9,543314	2020-10-29T19:09:12:723
-0,165962	-2,255476	9,542310	2020-10-29T19:09:12:741
-0,165849	-2,251505	9,543249	2020-10-29T19:09:12:763
-0,169304	-2,237266	9,546536	2020-10-29T19:09:12:781
-0,171560	-2,237822	9,546366	2020-10-29T19:09:12:803
-0,173121	-2,238564	9,546164	2020-10-29T19:09:12:821
-0,176737	-2,242868	9,545087	2020-10-29T19:09:12:843
-0,176822	-2,252338	9,542855	2020-10-29T19:09:12:861
-0,177825	-2,241752	9,545329	2020-10-29T19:09:12:883
-0,178171	-2,215245	9,551509	2020-10-29T19:09:12:901
-0,177769	-2,203673	9,554193	2020-10-29T19:09:12:923
-0,176679	-2,200480	9,554950	2020-10-29T19:09:12:942
-0,179260	-2,193623	9,556478	2020-10-29T19:09:12:964
-0,179439	-2,194618	9,556246	2020-10-29T19:09:12:981
-0,178700	-2,196185	9,555900	2020-10-29T19:09:13:004
-0,180044	-2,185512	9,558321	2020-10-29T19:09:13:021
-0,181053	-2,181774	9,559156	2020-10-29T19:09:13:044
-0,179744	-2,178805	9,559858	2020-10-29T19:09:13:062
-0,179508	-2,170851	9,561671	2020-10-29T19:09:13:084
-0,178313	-2,170572	9,561757	2020-10-29T19:09:13:102
-0,178675	-2,167752	9,562390	2020-10-29T19:09:13:124
-0,175200	-2,179810	9,559713	2020-10-29T19:09:13:141
-0,177701	-2,167697	9,562421	2020-10-29T19:09:13:164
-0,177878	-2,162167	9,563669	2020-10-29T19:09:13:183
-0,177220	-2,156652	9,564927	2020-10-29T19:09:13:204
-0,176642	-2,152845	9,565795	2020-10-29T19:09:13:221
-0,174997	-2,161835	9,563798	2020-10-29T19:09:13:244
-0,181542	-2,148795	9,566614	2020-10-29T19:09:13:262
-0,181470	-2,152443	9,565795	2020-10-29T19:09:13:284
-0,182395	-2,147454	9,566899	2020-10-29T19:09:13:302
-0,180116	-2,149648	9,566449	2020-10-29T19:09:13:324
-0,181440	-2,147613	9,566881	2020-10-29T19:09:13:342
-0,180068	-2,151677	9,565994	2020-10-29T19:09:13:364
-0,182151	-2,151270	9,566047	2020-10-29T19:09:13:381
-0,180329	-2,153194	9,565648	2020-10-29T19:09:13:405
-0,177647	-2,155910	9,565086	2020-10-29T19:09:13:423
-0,176534	-2,155914	9,565106	2020-10-29T19:09:13:445
-0,177196	-2,157736	9,564683	2020-10-29T19:09:13:462
-0,177551	-2,155712	9,565133	2020-10-29T19:09:13:485
-0,173874	-2,159791	9,564281	2020-10-29T19:09:13:502
-0,172962	-2,155740	9,565210	2020-10-29T19:09:13:524
-0,172819	-2,152423	9,565960	2020-10-29T19:09:13:542
-0,185641	-2,149210	9,566442	2020-10-29T19:09:13:565
-0,175226	-2,157772	9,564712	2020-10-29T19:09:13:582
-0,174693	-2,157718	9,564734	2020-10-29T19:09:13:605
-0,169355	-2,151992	9,566119	2020-10-29T19:09:13:622
-0,170605	-2,148643	9,566850	2020-10-29T19:09:13:647
-0,171824	-2,148881	9,566774	2020-10-29T19:09:13:663
-0,172574	-2,153841	9,565645	2020-10-29T19:09:13:719
-0,171439	-2,160205	9,564231	2020-10-29T19:09:13:726
-0,172098	-2,167928	9,562471	2020-10-29T19:09:13:732
-0,171093	-2,173500	9,561224	2020-10-29T19:09:13:742
-0,171343	-2,176269	9,560590	2020-10-29T19:09:13:765
-0,172920	-2,173863	9,561109	2020-10-29T19:09:13:782
-0,171414	-2,182328	9,559208	2020-10-29T19:09:13:805
-0,170947	-2,189090	9,557670	2020-10-29T19:09:13:822
-0,169580	-2,197242	9,555823	2020-10-29T19:09:13:845
-0,169742	-2,195563	9,556206	2020-10-29T19:09:13:863
-0,170639	-2,183792	9,558887	2020-10-29T19:09:13:885
-0,171609	-2,171767	9,561608	2020-10-29T19:09:13:904
-0,174041	-2,167510	9,562531	2020-10-29T19:09:13:924
-0,174554	-2,169226	9,562132	2020-10-29T19:09:13:942
-0,171987	-2,170455	9,561900	2020-10-29T19:09:13:965
-0,173214	-2,162691	9,563637	2020-10-29T19:09:13:982
-0,172722	-2,149319	9,566660	2020-10-29T19:09:14:005
-0,172275	-2,149759	9,566569	2020-10-29T19:09:14:023
-0,173308	-2,153781	9,565645	2020-10-29T19:09:14:045
-0,175080	-2,160631	9,564069	2020-10-29T19:09:14:063
-0,172789	-2,162453	9,563698	2020-10-29T19:09:14:085
-0,173046	-2,161207	9,563975	2020-10-29T19:09:14:103
-0,172943	-2,163286	9,563507	2020-10-29T19:09:14:127
-0,175893	-2,172184	9,561437	2020-10-29T19:09:14:144
-0,176713	-2,180598	9,559505	2020-10-29T19:09:14:165
-0,173747	-2,194262	9,556433	2020-10-29T19:09:14:182
-0,173909	-2,198195	9,555526	2020-10-29T19:09:14:205
-0,171034	-2,211209	9,552575	2020-10-29T19:09:14:223
-0,171681	-2,210300	9,552773	2020-10-29T19:09:14:246
-0,175362	-2,205362	9,553848	2020-10-29T19:09:14:263
-0,172029	-2,214936	9,551694	2020-10-29T19:09:14:285
-0,170844	-2,219654	9,550619	2020-10-29T19:09:14:303
-0,170211	-2,233544	9,547392	2020-10-29T19:09:14:325
-0,170401	-2,243038	9,545162	2020-10-29T19:09:14:342
-0,172536	-2,231579	9,547810	2020-10-29T19:09:14:365
-0,170574	-2,234189	9,547235	2020-10-29T19:09:14:384
-0,166961	-2,244452	9,544890	2020-10-29T19:09:14:405
-0,163752	-2,258059	9,541737	2020-10-29T19:09:14:424
-0,165494	-2,253083	9,542883	2020-10-29T19:09:14:445
-0,165729	-2,259334	9,541401	2020-10-29T19:09:14:463
-0,163697	-2,279263	9,536695	2020-10-29T19:09:14:485
-0,166929	-2,277302	9,537107	2020-10-29T19:09:14:504
-0,167180	-2,279916	9,536478	2020-10-29T19:09:14:527
-0,168232	-2,286013	9,535000	2020-10-29T19:09:14:543
-0,166419	-2,299754	9,531727	2020-10-29T19:09:14:565
-0,166104	-2,304749	9,530526	2020-10-29T19:09:14:583
-0,163419	-2,307723	9,529853	2020-10-29T19:09:14:606
-0,164070	-2,311297	9,528975	2020-10-29T19:09:14:624
-0,165698	-2,315058	9,528034	2020-10-29T19:09:14:645
-0,165136	-2,328944	9,524659	2020-10-29T19:09:14:663
-0,165582	-2,332061	9,523889	2020-10-29T19:09:14:686
-0,168159	-2,314213	9,528196	2020-10-29T19:09:14:703
-0,167097	-2,312133	9,528720	2020-10-29T19:09:14:725
-0,165598	-2,306972	9,529997	2020-10-29T19:09:14:743
-0,161405	-2,307885	9,529848	2020-10-29T19:09:14:765
-0,162395	-2,299327	9,531899	2020-10-29T19:09:14:783
-0,163298	-2,296470	9,532573	2020-10-29T19:09:14:806
-0,161875	-2,298613	9,532081	2020-10-29T19:09:14:823
-0,160185	-2,294074	9,533202	2020-10-29T19:09:14:846
-0,156660	-2,290767	9,534057	2020-10-29T19:09:14:865
-0,156871	-2,284013	9,535673	2020-10-29T19:09:14:885
-0,156371	-2,281087	9,536382	2020-10-29T19:09:14:904
-0,154787	-2,291832	9,533831	2020-10-29T19:09:14:925
-0,155471	-2,305334	9,530564	2020-10-29T19:09:14:943
-0,157892	-2,324513	9,525865	2020-10-29T19:09:14:967
-0,158783	-2,337516	9,522667	2020-10-29T19:09:14:983
-0,156070	-2,353097	9,518874	2020-10-29T19:09:15:007
-0,158047	-2,347360	9,520258	2020-10-29T19:09:15:023
-0,161187	-2,331570	9,524084	2020-10-29T19:09:15:047
-0,161895	-2,325994	9,525435	2020-10-29T19:09:15:064
-0,163727	-2,323928	9,525908	2020-10-29T19:09:15:087
-0,163065	-2,328290	9,524855	2020-10-29T19:09:15:105
-0,164344	-2,335739	9,523009	2020-10-29T19:09:15:126
-0,165863	-2,332093	9,523876	2020-10-29T19:09:15:143
-0,166542	-2,325812	9,525400	2020-10-29T19:09:15:169
-0,163952	-2,317811	9,527395	2020-10-29T19:09:15:183
-0,166199	-2,298203	9,532104	2020-10-29T19:09:15:370
-0,167479	-2,293811	9,533140	2020-10-29T19:09:15:372
-0,170572	-2,281628	9,536009	2020-10-29T19:09:15:373
-0,172155	-2,278471	9,536736	2020-10-29T19:09:15:374
-0,170740	-2,275229	9,537535	2020-10-29T19:09:15:375
-0,169792	-2,268588	9,539133	2020-10-29T19:09:15:386
-0,172674	-2,252812	9,542820	2020-10-29T19:09:15:386
-0,173465	-2,254824	9,542330	2020-10-29T19:09:15:393
-0,172759	-2,260867	9,540913	2020-10-29T19:09:15:394
-0,171751	-2,270134	9,538731	2020-10-29T19:09:15:395
-0,173359	-2,269972	9,538740	2020-10-29T19:09:15:406
-0,170051	-2,278818	9,536690	2020-10-29T19:09:15:423
-0,168084	-2,286294	9,534935	2020-10-29T19:09:15:445
-0,168270	-2,279700	9,536510	2020-10-29T19:09:15:463
-0,168400	-2,276319	9,537316	2020-10-29T19:09:15:486
-0,169861	-2,273007	9,538080	2020-10-29T19:09:15:507
-0,172064	-2,272219	9,538228	2020-10-29T19:09:15:526
-0,172462	-2,277032	9,537073	2020-10-29T19:09:15:543
-0,169320	-2,276488	9,537259	2020-10-29T19:09:15:566
-0,166063	-2,272171	9,538346	2020-10-29T19:09:15:585
-0,162516	-2,270101	9,538900	2020-10-29T19:09:15:606
-0,161949	-2,259202	9,541497	2020-10-29T19:09:15:625
-0,162701	-2,272565	9,538310	2020-10-29T19:09:15:648
-0,165604	-2,283461	9,535658	2020-10-29T19:09:15:664
-0,165327	-2,295708	9,532722	2020-10-29T19:09:15:687
-0,166796	-2,282048	9,535975	2020-10-29T19:09:15:704
-0,165743	-2,297558	9,532269	2020-10-29T19:09:15:727
-0,166731	-2,323076	9,526065	2020-10-29T19:09:15:744
-0,166890	-2,322520	9,526197	2020-10-29T19:09:15:771
-0,170243	-2,308814	9,529469	2020-10-29T19:09:15:785
-0,171290	-2,303992	9,530617	2020-10-29T19:09:15:809
-0,176355	-2,291581	9,533517	2020-10-29T19:09:15:843
-0,175695	-2,286396	9,534774	2020-10-29T19:09:15:847
-0,175774	-2,271991	9,538215	2020-10-29T19:09:15:869
-0,172599	-2,282425	9,535782	2020-10-29T19:09:15:968
-0,173709	-2,291703	9,533536	2020-10-29T19:09:15:986
-0,179887	-2,290865	9,533623	2020-10-29T19:09:16:005
-0,182287	-2,308644	9,529287	2020-10-29T19:09:16:023
-0,184307	-2,303260	9,530551	2020-10-29T19:09:16:047
-0,181557	-2,363948	9,515733	2020-10-29T19:09:16:067
-0,183275	-2,366319	9,515111	2020-10-29T19:09:16:086
-0,183874	-2,356302	9,517585	2020-10-29T19:09:16:105
-0,183045	-2,346413	9,520043	2020-10-29T19:09:16:127
-0,187604	-2,314046	9,527874	2020-10-29T19:09:16:144
-0,186605	-2,315743	9,527481	2020-10-29T19:09:16:168
-0,190684	-2,313226	9,528012	2020-10-29T19:09:16:184
-0,196864	-2,291734	9,533078	2020-10-29T19:09:16:207
-0,199043	-2,280303	9,535774	2020-10-29T19:09:16:225
-0,200553	-2,274505	9,537127	2020-10-29T19:09:16:256
-0,212276	-2,255870	9,541298	2020-10-29T19:09:25:137
-0,221166	-2,242618	9,544220	2020-10-29T19:09:25:139
-0,231507	-2,230222	9,546879	2020-10-29T19:09:25:140
-0,237120	-2,221020	9,548886	2020-10-29T19:09:25:140
-0,244472	-2,207023	9,551946	2020-10-29T19:09:25:147
-0,251313	-2,199441	9,553517	2020-10-29T19:09:25:165
-0,260090	-2,195947	9,554086	2020-10-29T19:09:25:181
-0,266316	-2,194592	9,554226	2020-10-29T19:09:25:198
-0,269984	-2,187434	9,555764	2020-10-29T19:09:25:221
-0,273345	-2,184252	9,556396	2020-10-29T19:09:25:239
-0,277314	-2,184391	9,556250	2020-10-29T19:09:25:263
-0,281809	-2,180369	9,557037	2020-10-29T19:09:25:278
-0,286259	-2,181524	9,556642	2020-10-29T19:09:25:301
-0,293522	-2,171722	9,558654	2020-10-29T19:09:25:319
-0,298594	-2,170074	9,558870	2020-10-29T19:09:25:342
-0,303922	-2,166942	9,559413	2020-10-29T19:09:25:359
-0,310989	-2,169381	9,558633	2020-10-29T19:09:25:381
-0,312976	-2,169007	9,558653	2020-10-29T19:09:25:400
-0,315274	-2,165643	9,559340	2020-10-29T19:09:25:422
-0,316652	-2,164704	9,559506	2020-10-29T19:09:25:439
-0,318631	-2,163042	9,559817	2020-10-29T19:09:25:461
-0,322840	-2,159838	9,560401	2020-10-29T19:09:25:479
-0,325318	-2,164428	9,559278	2020-10-29T19:09:25:503
-0,325525	-2,162576	9,559690	2020-10-29T19:09:25:519
-0,326800	-2,155250	9,561301	2020-10-29T19:09:25:542
-0,327049	-2,157954	9,560683	2020-10-29T19:09:25:559
-0,328297	-2,161591	9,559818	2020-10-29T19:09:25:582
-0,334863	-2,158216	9,560353	2020-10-29T19:09:25:599
-0,337908	-2,154111	9,561172	2020-10-29T19:09:25:621
-0,342248	-2,151091	9,561698	2020-10-29T19:09:25:641
-0,345666	-2,156160	9,560432	2020-10-29T19:09:25:662
-0,350801	-2,156824	9,560096	2020-10-29T19:09:25:679
-0,352504	-2,156604	9,560082	2020-10-29T19:09:25:703
-0,356774	-2,142931	9,562999	2020-10-29T19:09:25:719
-0,356976	-2,144331	9,562677	2020-10-29T19:09:25:745
-0,358958	-2,143243	9,562847	2020-10-29T19:09:25:760
-0,364136	-2,137995	9,563826	2020-10-29T19:09:25:782
-0,366324	-2,133018	9,564854	2020-10-29T19:09:25:799
-0,368769	-2,133608	9,564628	2020-10-29T19:09:25:823
-0,368383	-2,132564	9,564876	2020-10-29T19:09:25:839
-0,370333	-2,134273	9,564420	2020-10-29T19:09:25:862
-0,369140	-2,134122	9,564499	2020-10-29T19:09:25:880
-0,366982	-2,129933	9,565516	2020-10-29T19:09:25:902
-0,367735	-2,130193	9,565429	2020-10-29T19:09:25:919
-0,369130	-2,132346	9,564896	2020-10-29T19:09:25:942
-0,369201	-2,129790	9,565462	2020-10-29T19:09:25:959
-0,368604	-2,133904	9,564569	2020-10-29T19:09:25:983
-0,369727	-2,140524	9,563046	2020-10-29T19:09:25:999
-0,368806	-2,143054	9,562514	2020-10-29T19:09:26:022
-0,368339	-2,137346	9,563810	2020-10-29T19:09:26:040
-0,366904	-2,141265	9,562988	2020-10-29T19:09:26:062
-0,370979	-2,150535	9,560751	2020-10-29T19:09:26:079
-0,374380	-2,156446	9,559287	2020-10-29T19:09:26:102
-0,376755	-2,152129	9,560166	2020-10-29T19:09:26:120
-0,376146	-2,156703	9,559159	2020-10-29T19:09:26:143
-0,374189	-2,162881	9,557840	2020-10-29T19:09:26:159
-0,373075	-2,157065	9,559198	2020-10-29T19:09:26:182
-0,372339	-2,160986	9,558341	2020-10-29T19:09:26:199
-0,371571	-2,164199	9,557644	2020-10-29T19:09:26:224
-0,372420	-2,158642	9,558867	2020-10-29T19:09:26:239
-0,373178	-2,154908	9,559681	2020-10-29T19:09:26:261
-0,375260	-2,156198	9,559308	2020-10-29T19:09:26:280
-0,378427	-2,156739	9,559061	2020-10-29T19:09:26:303
-0,379161	-2,160700	9,558138	2020-10-29T19:09:26:320
-0,380281	-2,159150	9,558443	2020-10-29T19:09:26:342
-0,379237	-2,156717	9,559034	2020-10-29T19:09:26:360
-0,377308	-2,155982	9,559277	2020-10-29T19:09:26:383
-0,376755	-2,160973	9,558171	2020-10-29T19:09:26:400
-0,375703	-2,163582	9,557622	2020-10-29T19:09:26:422
-0,374883	-2,161747	9,558069	2020-10-29T19:09:26:440
-0,374976	-2,159734	9,558521	2020-10-29T19:09:26:463
-0,374994	-2,164903	9,557351	2020-10-29T19:09:26:480
-0,372273	-2,170897	9,556098	2020-10-29T19:09:26:502
-0,370345	-2,172443	9,555821	2020-10-29T19:09:26:520
-0,370996	-2,172920	9,555688	2020-10-29T19:09:26:544
-0,370261	-2,177035	9,554779	2020-10-29T19:09:26:560
-0,370332	-2,176126	9,554984	2020-10-29T19:09:26:582
-0,371468	-2,172096	9,555857	2020-10-29T19:09:26:601
-0,373111	-2,165266	9,557343	2020-10-29T19:09:26:623
-0,370813	-2,165686	9,557337	2020-10-29T19:09:26:640
-0,369932	-2,167732	9,556907	2020-10-29T19:09:26:662
-0,370370	-2,167163	9,557019	2020-10-29T19:09:26:680
-0,369551	-2,162570	9,558091	2020-10-29T19:09:26:704
-0,369669	-2,158333	9,559045	2020-10-29T19:09:26:720
-0,371391	-2,155916	9,559523	2020-10-29T19:09:26:742
-0,370704	-2,157031	9,559298	2020-10-29T19:09:26:760
-0,367969	-2,163794	9,557876	2020-10-29T19:09:26:783
-0,365748	-2,165194	9,557643	2020-10-29T19:09:26:800
-0,362352	-2,164073	9,558026	2020-10-29T19:09:26:822
-0,366172	-2,164941	9,557685	2020-10-29T19:09:26:841
-0,365360	-2,166248	9,557420	2020-10-29T19:09:26:863
-0,364361	-2,169004	9,556832	2020-10-29T19:09:26:880
-0,365008	-2,166742	9,557321	2020-10-29T19:09:26:903
-0,365308	-2,167557	9,557124	2020-10-29T19:09:26:920
-0,362563	-2,169035	9,556893	2020-10-29T19:09:26:944
-0,361658	-2,168613	9,557024	2020-10-29T19:09:26:960
-0,358944	-2,171210	9,556537	2020-10-29T19:09:26:983
-0,357248	-2,180569	9,554469	2020-10-29T19:09:27:000
-0,354815	-2,179407	9,554825	2020-10-29T19:09:27:024
-0,353668	-2,175099	9,555849	2020-10-29T19:09:27:040
-0,353176	-2,174982	9,555894	2020-10-29T19:09:27:062
-0,354156	-2,176517	9,555508	2020-10-29T19:09:27:083
-0,356424	-2,171577	9,556547	2020-10-29T19:09:27:104
-0,357261	-2,174732	9,555799	2020-10-29T19:09:27:120
-0,356149	-2,176485	9,555441	2020-10-29T19:09:27:144
-0,354709	-2,175960	9,555614	2020-10-29T19:09:27:160
-0,355209	-2,175993	9,555588	2020-10-29T19:09:27:185
-0,358466	-2,178134	9,554978	2020-10-29T19:09:27:200
-0,359553	-2,176272	9,555363	2020-10-29T19:09:27:222
-0,359506	-2,175976	9,555431	2020-10-29T19:09:27:241
-0,356784	-2,182927	9,553948	2020-10-29T19:09:27:264
-0,352430	-2,187019	9,553173	2020-10-29T19:09:27:280
-0,349290	-2,186248	9,553466	2020-10-29T19:09:27:303
-0,349323	-2,188935	9,552849	2020-10-29T19:09:27:322
-0,349222	-2,185177	9,553713	2020-10-29T19:09:27:344
-0,350032	-2,182510	9,554293	2020-10-29T19:09:27:361
-0,348679	-2,185820	9,553586	2020-10-29T19:09:27:384
-0,346366	-2,189150	9,552907	2020-10-29T19:09:27:401
-0,346430	-2,193779	9,551843	2020-10-29T19:09:27:424
-0,347303	-2,192939	9,552004	2020-10-29T19:09:27:441
-0,344688	-2,187554	9,553333	2020-10-29T19:09:27:463
-0,346321	-2,185266	9,553798	2020-10-29T19:09:27:480
-0,345053	-2,191259	9,552471	2020-10-29T19:09:27:504
-0,347199	-2,197141	9,551043	2020-10-29T19:09:27:520
-0,344708	-2,200629	9,550329	2020-10-29T19:09:27:543
-0,344017	-2,194657	9,551728	2020-10-29T19:09:27:561
-0,343077	-2,190334	9,552754	2020-10-29T19:09:27:584
-0,340915	-2,192193	9,552405	2020-10-29T19:09:27:601
-0,337927	-2,197536	9,551284	2020-10-29T19:09:27:623
-0,336954	-2,195346	9,551822	2020-10-29T19:09:27:641
-0,333642	-2,191374	9,552850	2020-10-29T19:09:27:664
-0,335524	-2,187480	9,553677	2020-10-29T19:09:27:681
-0,336967	-2,189942	9,553061	2020-10-29T19:09:27:703
-0,334996	-2,194844	9,552007	2020-10-29T19:09:27:721
-0,336458	-2,197776	9,551281	2020-10-29T19:09:27:745
-0,334138	-2,202672	9,550234	2020-10-29T19:09:27:760
-0,333043	-2,205078	9,549717	2020-10-29T19:09:27:784
-0,327193	-2,210298	9,548713	2020-10-29T19:09:27:802
-0,329967	-2,210621	9,548542	2020-10-29T19:09:27:824
-0,326598	-2,215630	9,547497	2020-10-29T19:09:27:841
-0,328859	-2,214916	9,547585	2020-10-29T19:09:27:864
-0,330761	-2,220687	9,546179	2020-10-29T19:09:27:881
-0,329708	-2,222867	9,545708	2020-10-29T19:09:27:905
-0,330586	-2,229705	9,544083	2020-10-29T19:09:27:921
-0,330644	-2,229387	9,544155	2020-10-29T19:09:27:944
-0,331377	-2,229106	9,544195	2020-10-29T19:09:27:961
-0,329301	-2,227803	9,544571	2020-10-29T19:09:27:984
-0,331571	-2,215073	9,547455	2020-10-29T19:09:28:001
-0,337623	-2,212538	9,547831	2020-10-29T19:09:28:024
-0,340607	-2,210639	9,548164	2020-10-29T19:09:28:043
-0,337070	-2,215652	9,547128	2020-10-29T19:09:28:064
-0,334882	-2,216515	9,547005	2020-10-29T19:09:28:081
-0,330921	-2,218281	9,546733	2020-10-29T19:09:28:104
-0,331316	-2,216211	9,547199	2020-10-29T19:09:28:121
-0,325369	-2,214500	9,547801	2020-10-29T19:09:28:145
-0,328534	-2,222591	9,545813	2020-10-29T19:09:28:161
-0,324104	-2,221734	9,546164	2020-10-29T19:09:28:183
-0,324822	-2,234162	9,543238	2020-10-29T19:09:28:201
-0,321872	-2,239178	9,542163	2020-10-29T19:09:28:225
-0,325608	-2,256902	9,537859	2020-10-29T19:09:28:241
-0,329982	-2,250548	9,539210	2020-10-29T19:09:28:264
-0,334648	-2,232965	9,543179	2020-10-29T19:09:28:282
-0,328591	-2,232971	9,543387	2020-10-29T19:09:28:305
-0,329807	-2,238721	9,541999	2020-10-29T19:09:28:322
-0,327165	-2,254054	9,538480	2020-10-29T19:09:28:344
-0,326728	-2,258155	9,537524	2020-10-29T19:09:28:361
-0,325073	-2,253650	9,538646	2020-10-29T19:09:28:385
-0,326597	-2,250761	9,539276	2020-10-29T19:09:28:402
-0,325785	-2,248580	9,539819	2020-10-29T19:09:28:424
-0,326574	-2,251668	9,539063	2020-10-29T19:09:28:442
-0,325508	-2,252634	9,538872	2020-10-29T19:09:28:465
-0,321972	-2,253323	9,538829	2020-10-29T19:09:28:481
-0,322937	-2,259891	9,537242	2020-10-29T19:09:28:504
-0,323821	-2,267524	9,535400	2020-10-29T19:09:28:522
-0,324869	-2,273790	9,533873	2020-10-29T19:09:28:545
-0,323544	-2,279903	9,532457	2020-10-29T19:09:28:561
-0,320954	-2,285528	9,531198	2020-10-29T19:09:28:584
-0,316792	-2,292195	9,529737	2020-10-29T19:09:28:601
-0,320207	-2,292645	9,529513	2020-10-29T19:09:28:625
-0,318783	-2,292240	9,529659	2020-10-29T19:09:28:642
-0,317365	-2,291483	9,529888	2020-10-29T19:09:28:664
-0,316244	-2,294584	9,529180	2020-10-29T19:09:28:682
-0,317015	-2,301311	9,527532	2020-10-29T19:09:28:706
-0,319455	-2,302477	9,527168	2020-10-29T19:09:28:722
-0,323436	-2,308397	9,525601	2020-10-29T19:09:28:746
-0,327877	-2,317544	9,523228	2020-10-29T19:09:28:763
-0,328464	-2,324458	9,521523	2020-10-29T19:09:28:785
-0,323345	-2,327446	9,520967	2020-10-29T19:09:28:802
-0,317432	-2,330338	9,520459	2020-10-29T19:09:28:824
-0,317632	-2,335833	9,519106	2020-10-29T19:09:28:842
-0,315485	-2,339159	9,518360	2020-10-29T19:09:28:866
-0,314757	-2,339568	9,518284	2020-10-29T19:09:28:882
-0,310714	-2,345508	9,516955	2020-10-29T19:09:28:904
-0,313588	-2,342778	9,517533	2020-10-29T19:09:28:922
-0,313572	-2,341391	9,517875	2020-10-29T19:09:28:946
-0,313209	-2,349856	9,515800	2020-10-29T19:09:28:962
-0,309882	-2,357005	9,514141	2020-10-29T19:09:28:985
-0,310414	-2,355684	9,514451	2020-10-29T19:09:29:004
-0,311661	-2,356075	9,514314	2020-10-29T19:09:29:025
-0,312570	-2,364634	9,512160	2020-10-29T19:09:29:042
-0,315333	-2,370013	9,510730	2020-10-29T19:09:29:064
-0,315355	-2,371263	9,510418	2020-10-29T19:09:29:082
-0,315661	-2,371562	9,510333	2020-10-29T19:09:29:106
-0,315690	-2,371304	9,510397	2020-10-29T19:09:29:122
-0,314939	-2,367893	9,511271	2020-10-29T19:09:29:145
-0,316512	-2,367288	9,511370	2020-10-29T19:09:29:162
-0,315882	-2,370342	9,510630	2020-10-29T19:09:29:186
-0,316490	-2,370000	9,510695	2020-10-29T19:09:29:202
-0,318818	-2,364250	9,512048	2020-10-29T19:09:29:225
-0,318214	-2,362609	9,512476	2020-10-29T19:09:29:244
-0,318237	-2,359130	9,513339	2020-10-29T19:09:29:266
-0,319550	-2,352275	9,514992	2020-10-29T19:09:29:282
-0,310414	-2,355783	9,514426	2020-10-29T19:09:29:305
-0,314167	-2,358542	9,513620	2020-10-29T19:09:29:322
-0,313332	-2,359049	9,513522	2020-10-29T19:09:29:346
-0,312658	-2,362319	9,512733	2020-10-29T19:09:29:363
-0,312563	-2,364120	9,512288	2020-10-29T19:09:29:386
-0,312938	-2,371788	9,510366	2020-10-29T19:09:29:403
-0,311538	-2,375835	9,509402	2020-10-29T19:09:29:426
-0,313716	-2,375590	9,509392	2020-10-29T19:09:29:443
-0,315721	-2,368619	9,511065	2020-10-29T19:09:29:465
-0,314451	-2,366104	9,511733	2020-10-29T19:09:29:483
-0,317199	-2,366385	9,511571	2020-10-29T19:09:29:506
-0,319179	-2,363897	9,512124	2020-10-29T19:09:29:524
-0,319334	-2,365854	9,511632	2020-10-29T19:09:29:545
-0,322355	-2,361722	9,512557	2020-10-29T19:09:29:563
-0,322172	-2,359597	9,513090	2020-10-29T19:09:29:586
-0,321737	-2,362850	9,512298	2020-10-29T19:09:29:603
-0,318479	-2,364791	9,511925	2020-10-29T19:09:29:625
-0,312955	-2,363686	9,512383	2020-10-29T19:09:29:643
-0,312272	-2,363243	9,512516	2020-10-29T19:09:29:667
-0,317878	-2,373281	9,509830	2020-10-29T19:09:29:683
-0,318884	-2,383599	9,507215	2020-10-29T19:09:29:705
-0,319985	-2,381514	9,507702	2020-10-29T19:09:29:724
-0,318624	-2,389240	9,505809	2020-10-29T19:09:29:749
-0,321540	-2,395324	9,504179	2020-10-29T19:09:29:778
-0,321420	-2,397662	9,503593	2020-10-29T19:09:29:785
-0,319977	-2,396266	9,503994	2020-10-29T19:09:29:803
-0,321491	-2,398080	9,503486	2020-10-29T19:09:29:826
-0,323256	-2,394402	9,504354	2020-10-29T19:09:29:843
-0,321037	-2,396191	9,503978	2020-10-29T19:09:29:865
-0,319841	-2,397713	9,503634	2020-10-29T19:09:29:883
-0,319685	-2,396079	9,504051	2020-10-29T19:09:29:906
-0,320390	-2,392060	9,505040	2020-10-29T19:09:29:923
-0,320975	-2,392322	9,504954	2020-10-29T19:09:29:947
-0,322150	-2,397791	9,503536	2020-10-29T19:09:29:964
-0,322462	-2,392817	9,504779	2020-10-29T19:09:29:986
-0,324941	-2,389971	9,505411	2020-10-29T19:09:30:003
-0,326029	-2,393332	9,504528	2020-10-29T19:09:30:026
-0,323285	-2,393985	9,504457	2020-10-29T19:09:30:043
-0,322955	-2,392713	9,504788	2020-10-29T19:09:30:069
-0,320223	-2,398386	9,503451	2020-10-29T19:09:30:083
-0,319381	-2,397295	9,503755	2020-10-29T19:09:30:106
-0,317932	-2,394805	9,504431	2020-10-29T19:09:30:124
-0,319684	-2,396687	9,503899	2020-10-29T19:09:30:147
-0,318566	-2,399624	9,503195	2020-10-29T19:09:30:173
-0,321148	-2,394310	9,504448	2020-10-29T19:09:30:185
-0,319281	-2,396568	9,503942	2020-10-29T19:09:30:204
-0,320018	-2,396860	9,503843	2020-10-29T19:09:30:226
-0,318494	-2,396814	9,503906	2020-10-29T19:09:30:244
-0,318969	-2,398002	9,503591	2020-10-29T19:09:30:266
-0,322406	-2,400193	9,502921	2020-10-29T19:09:30:284
-0,325515	-2,393930	9,504395	2020-10-29T19:09:30:307
-0,327227	-2,391695	9,504899	2020-10-29T19:09:30:324
-0,326563	-2,400558	9,502687	2020-10-29T19:09:30:346
-0,326004	-2,408933	9,500587	2020-10-29T19:09:30:364
-0,320693	-2,404634	9,501857	2020-10-29T19:09:30:387
-0,325306	-2,402857	9,502150	2020-10-29T19:09:30:404
-0,329222	-2,398419	9,503136	2020-10-29T19:09:30:426
-0,327738	-2,398806	9,503089	2020-10-29T19:09:30:445
-0,327317	-2,399947	9,502815	2020-10-29T19:09:30:467
-0,327235	-2,405767	9,501347	2020-10-29T19:09:30:484
-0,328603	-2,408099	9,500709	2020-10-29T19:09:30:507
-0,327221	-2,413221	9,499456	2020-10-29T19:09:30:524
-0,327967	-2,410934	9,500011	2020-10-29T19:09:30:548
-0,328827	-2,402292	9,502171	2020-10-29T19:09:30:564
-0,329536	-2,400659	9,502559	2020-10-29T19:09:30:586
-0,329995	-2,400676	9,502539	2020-10-29T19:09:30:604
-0,329819	-2,400897	9,502489	2020-10-29T19:09:30:628
-0,336835	-2,389953	9,505001	2020-10-29T19:09:30:644
-0,337351	-2,396589	9,503312	2020-10-29T19:09:30:667
-0,338215	-2,405188	9,501108	2020-10-29T19:09:30:686
-0,340028	-2,399097	9,502584	2020-10-29T19:09:30:708
-0,338497	-2,388844	9,505221	2020-10-29T19:09:30:724
-0,335315	-2,382119	9,507021	2020-10-29T19:09:30:747
-0,337906	-2,376589	9,508314	2020-10-29T19:09:30:764
-0,342541	-2,380026	9,507288	2020-10-29T19:09:30:788
-0,344267	-2,378827	9,507525	2020-10-29T19:09:30:804
-0,344180	-2,375398	9,508387	2020-10-29T19:09:30:826
-0,344485	-2,373053	9,508961	2020-10-29T19:09:30:844
-0,343835	-2,377660	9,507833	2020-10-29T19:09:30:868
-0,345430	-2,385133	9,505903	2020-10-29T19:09:30:884
-0,341910	-2,387975	9,505318	2020-10-29T19:09:30:907
-0,340831	-2,388098	9,505325	2020-10-29T19:09:30:926
-0,345238	-2,385157	9,505904	2020-10-29T19:09:30:948
-0,347003	-2,389631	9,504717	2020-10-29T19:09:30:964
-0,344558	-2,388817	9,505010	2020-10-29T19:09:30:988
-0,344266	-2,386021	9,505723	2020-10-29T19:09:31:004
-0,344308	-2,388084	9,505203	2020-10-29T19:09:31:029
-0,346542	-2,383347	9,506311	2020-10-29T19:09:31:044
-0,345648	-2,384807	9,505978	2020-10-29T19:09:31:077
-0,345691	-2,389386	9,504826	2020-10-29T19:09:31:084
-0,348446	-2,392804	9,503865	2020-10-29T19:09:31:108
-0,351320	-2,386324	9,505389	2020-10-29T19:09:31:124
-0,350274	-2,393222	9,503693	2020-10-29T19:09:31:147
-0,353015	-2,394919	9,503164	2020-10-29T19:09:31:165
-0,352973	-2,397247	9,502579	2020-10-29T19:09:31:188
-0,352768	-2,393158	9,503617	2020-10-29T19:09:31:204
-0,354055	-2,392141	9,503825	2020-10-29T19:09:31:227
-0,354376	-2,389077	9,504583	2020-10-29T19:09:31:244
-0,357259	-2,389858	9,504279	2020-10-29T19:09:31:268
-0,358862	-2,390504	9,504057	2020-10-29T19:09:31:284
-0,362638	-2,387712	9,504615	2020-10-29T19:09:31:307
-0,360893	-2,378998	9,506866	2020-10-29T19:09:31:325
-0,362446	-2,366872	9,509833	2020-10-29T19:09:31:348
-0,363293	-2,357291	9,512180	2020-10-29T19:09:31:364
-0,364555	-2,348498	9,514307	2020-10-29T19:09:31:387
-0,365442	-2,350641	9,513744	2020-10-29T19:09:31:406
-0,367252	-2,350384	9,513738	2020-10-29T19:09:31:428
-0,366233	-2,349862	9,513906	2020-10-29T19:09:31:445
-0,365795	-2,345087	9,515100	2020-10-29T19:09:31:467
-0,366865	-2,343640	9,515416	2020-10-29T19:09:31:484
-0,367333	-2,350326	9,513749	2020-10-29T19:09:31:509
-0,368650	-2,353729	9,512856	2020-10-29T19:09:31:525
-0,368472	-2,349447	9,513922	2020-10-29T19:09:31:548
-0,367892	-2,342762	9,515593	2020-10-29T19:09:31:565
-0,366805	-2,345056	9,515070	2020-10-29T19:09:31:588
-0,365166	-2,351183	9,513620	2020-10-29T19:09:31:605
-0,364618	-2,354954	9,512709	2020-10-29T19:09:31:627
-0,365885	-2,353397	9,513045	2020-10-29T19:09:31:646
-0,366044	-2,349238	9,514068	2020-10-29T19:09:31:668
-0,366438	-2,334027	9,517796	2020-10-29T19:09:31:685
-0,363959	-2,323492	9,520468	2020-10-29T19:09:31:707
-0,363755	-2,318881	9,521600	2020-10-29T19:09:31:725
-0,362618	-2,319491	9,521494	2020-10-29T19:09:31:752
-0,364605	-2,324555	9,520184	2020-10-29T19:09:31:766
-0,368207	-2,323192	9,520377	2020-10-29T19:09:31:788
-0,371950	-2,322238	9,520465	2020-10-29T19:09:31:805
-0,375709	-2,319727	9,520929	2020-10-29T19:09:31:828
-0,378646	-2,318375	9,521142	2020-10-29T19:09:31:845
-0,378540	-2,314710	9,522038	2020-10-29T19:09:31:867
-0,377751	-2,311786	9,522779	2020-10-29T19:09:31:886
-0,381866	-2,313290	9,522250	2020-10-29T19:09:31:908
-0,380677	-2,322744	9,519997	2020-10-29T19:09:31:925
-0,382269	-2,321290	9,520288	2020-10-29T19:09:31:948
-0,383931	-2,316401	9,521411	2020-10-29T19:09:31:965
-0,385444	-2,313738	9,521997	2020-10-29T19:09:31:989
-0,391369	-2,306993	9,523392	2020-10-29T19:09:32:005
-0,393288	-2,306818	9,523355	2020-10-29T19:09:32:028
-0,394175	-2,308468	9,522919	2020-10-29T19:09:32:045
-0,393876	-2,306600	9,523384	2020-10-29T19:09:32:069
-0,393388	-2,300570	9,524862	2020-10-29T19:09:32:085
-0,391332	-2,297081	9,525789	2020-10-29T19:09:32:108
-0,392589	-2,287945	9,527936	2020-10-29T19:09:32:126
-0,391886	-2,288033	9,527944	2020-10-29T19:09:32:149
-0,392728	-2,287256	9,528095	2020-10-29T19:09:32:165
-0,395442	-2,282754	9,529063	2020-10-29T19:09:32:188
-0,395036	-2,283683	9,528857	2020-10-29T19:09:32:205
-0,396193	-2,290096	9,527270	2020-10-29T19:09:32:228
-0,397036	-2,284811	9,528504	2020-10-29T19:09:32:246
-0,394904	-2,274856	9,530974	2020-10-29T19:09:32:268
-0,395394	-2,267763	9,532644	2020-10-29T19:09:32:285
-0,395380	-2,264384	9,533447	2020-10-29T19:09:32:309
-0,396939	-2,263685	9,533549	2020-10-29T19:09:32:325
-0,398853	-2,265242	9,533099	2020-10-29T19:09:32:348
-0,399493	-2,264755	9,533188	2020-10-29T19:09:32:367
-0,399556	-2,255860	9,535295	2020-10-29T19:09:32:388
-0,398030	-2,245752	9,537744	2020-10-29T19:09:32:407
-0,395843	-2,245698	9,537848	2020-10-29T19:09:32:428
-0,392610	-2,247633	9,537525	2020-10-29T19:09:32:446
-0,398166	-2,248526	9,537085	2020-10-29T19:09:32:469
-0,397761	-2,232435	9,540880	2020-10-29T19:09:32:486
-0,401950	-2,215593	9,544630	2020-10-29T19:09:32:508
-0,396710	-2,209214	9,546329	2020-10-29T19:09:32:526
-0,399532	-2,208773	9,546312	2020-10-29T19:09:32:551
-0,396174	-2,225893	9,542475	2020-10-29T19:09:32:565
-0,394852	-2,224623	9,542826	2020-10-29T19:09:32:588
-0,393625	-2,220289	9,543886	2020-10-29T19:09:32:609
-0,391316	-2,201423	9,548350	2020-10-29T19:09:32:630
-0,394747	-2,198645	9,548849	2020-10-29T19:09:32:646
-0,398447	-2,203580	9,547558	2020-10-29T19:09:32:669
-0,399228	-2,210706	9,545877	2020-10-29T19:09:32:686
-0,399741	-2,205937	9,546960	2020-10-29T19:09:32:711
-0,399317	-2,201917	9,547905	2020-10-29T19:09:32:726
-0,397569	-2,199364	9,548567	2020-10-29T19:09:32:749
-0,393178	-2,201488	9,548259	2020-10-29T19:09:32:766
-0,388432	-2,205270	9,547581	2020-10-29T19:09:32:790
-0,387935	-2,208777	9,546789	2020-10-29T19:09:32:806
-0,389322	-2,202440	9,548198	2020-10-29T19:09:32:829
-0,391351	-2,198051	9,549126	2020-10-29T19:09:32:847
-0,393437	-2,207255	9,546917	2020-10-29T19:09:32:870
-0,392573	-2,210302	9,546247	2020-10-29T19:09:32:886
-0,390685	-2,199179	9,548893	2020-10-29T19:09:32:909
-0,391975	-2,191560	9,550591	2020-10-29T19:09:32:925
-0,392591	-2,182942	9,552540	2020-10-29T19:09:32:950
-0,394524	-2,176851	9,553850	2020-10-29T19:09:32:966
-0,393525	-2,174431	9,554442	2020-10-29T19:09:32:989
-0,392828	-2,172691	9,554867	2020-10-29T19:09:33:007
-0,393464	-2,173391	9,554682	2020-10-29T19:09:33:031
-0,392637	-2,173187	9,554762	2020-10-29T19:09:33:046
-0,391710	-2,168851	9,555785	2020-10-29T19:09:33:070
-0,391208	-2,169812	9,555588	2020-10-29T19:09:33:087
-0,392256	-2,171555	9,555149	2020-10-29T19:09:33:110
-0,397878	-2,171082	9,555024	2020-10-29T19:09:33:126
-0,400459	-2,175210	9,553977	2020-10-29T19:09:33:149
-0,398733	-2,167273	9,555853	2020-10-29T19:09:33:166
-0,397115	-2,165233	9,556383	2020-10-29T19:09:33:190
-0,396281	-2,164481	9,556588	2020-10-29T19:09:33:206
-0,396981	-2,163502	9,556781	2020-10-29T19:09:33:228
-0,397972	-2,162770	9,556905	2020-10-29T19:09:33:246
-0,397434	-2,162476	9,556993	2020-10-29T19:09:33:270
-0,396715	-2,161024	9,557352	2020-10-29T19:09:33:286
-0,394213	-2,167128	9,556073	2020-10-29T19:09:33:310
-0,395324	-2,167245	9,556001	2020-10-29T19:09:33:327
-0,396652	-2,164538	9,556560	2020-10-29T19:09:33:350
-0,393022	-2,163406	9,556966	2020-10-29T19:09:33:366
-0,391819	-2,162308	9,557263	2020-10-29T19:09:33:389
-0,394197	-2,162970	9,557016	2020-10-29T19:09:33:407
-0,397379	-2,167266	9,555911	2020-10-29T19:09:33:431
-0,397076	-2,175041	9,554157	2020-10-29T19:09:33:447
-0,395483	-2,181844	9,552671	2020-10-29T19:09:33:470
-0,394487	-2,184911	9,552011	2020-10-29T19:09:33:487
-0,394445	-2,176441	9,553946	2020-10-29T19:09:33:511
-0,396042	-2,180337	9,552993	2020-10-29T19:09:33:526
-0,394823	-2,191439	9,550503	2020-10-29T19:09:33:550
-0,394717	-2,190922	9,550625	2020-10-29T19:09:33:569
-0,398204	-2,182362	9,552441	2020-10-29T19:09:33:590
-0,399885	-2,178092	9,553345	2020-10-29T19:09:33:607
-0,401502	-2,178136	9,553267	2020-10-29T19:09:33:629
-0,401748	-2,180217	9,552781	2020-10-29T19:09:33:647
-0,402461	-2,181567	9,552444	2020-10-29T19:09:33:671
-0,398943	-2,174483	9,554206	2020-10-29T19:09:33:687
-0,398553	-2,177510	9,553533	2020-10-29T19:09:33:710
-0,398977	-2,185792	9,551623	2020-10-29T19:09:33:727
-0,398446	-2,192091	9,550202	2020-10-29T19:09:33:752
-0,395857	-2,188642	9,551101	2020-10-29T19:09:33:766
-0,394028	-2,182516	9,552578	2020-10-29T19:09:33:790
-0,391198	-2,190874	9,550781	2020-10-29T19:09:33:808
-0,392815	-2,195070	9,549751	2020-10-29T19:09:33:830
-0,390877	-2,195010	9,549845	2020-10-29T19:09:33:848
-0,391436	-2,192315	9,550441	2020-10-29T19:09:33:870
-0,393063	-2,187059	9,551579	2020-10-29T19:09:33:887
-0,397525	-2,186620	9,551495	2020-10-29T19:09:33:910
-0,400268	-2,188395	9,550974	2020-10-29T19:09:33:926
-0,400006	-2,185852	9,551567	2020-10-29T19:09:33:950
-0,397887	-2,180472	9,552885	2020-10-29T19:09:33:967
-0,396177	-2,182263	9,552547	2020-10-29T19:09:33:991
-0,398805	-2,186733	9,551415	2020-10-29T19:09:34:007
-0,399314	-2,189826	9,550686	2020-10-29T19:09:34:030
-0,398722	-2,188130	9,551099	2020-10-29T19:09:34:048
-0,396361	-2,190846	9,550574	2020-10-29T19:09:34:070
-0,395033	-2,194871	9,549706	2020-10-29T19:09:34:087
-0,400361	-2,193866	9,549714	2020-10-29T19:09:34:110
-0,400939	-2,189462	9,550701	2020-10-29T19:09:34:127
-0,397342	-2,189833	9,550766	2020-10-29T19:09:34:151
-0,399025	-2,187630	9,551201	2020-10-29T19:09:34:167
-0,398220	-2,195102	9,549520	2020-10-29T19:09:34:190
-0,395604	-2,202109	9,548016	2020-10-29T19:09:34:208
-0,395582	-2,199754	9,548559	2020-10-29T19:09:34:231
-0,395109	-2,193356	9,550051	2020-10-29T19:09:34:247
-0,396124	-2,195946	9,549413	2020-10-29T19:09:34:270
-0,395286	-2,200728	9,548347	2020-10-29T19:09:34:288
-0,399177	-2,205199	9,547153	2020-10-29T19:09:34:311
-0,403822	-2,201635	9,547781	2020-10-29T19:09:34:328
-0,404041	-2,200108	9,548123	2020-10-29T19:09:34:350
-0,404141	-2,199893	9,548169	2020-10-29T19:09:34:367
-0,404444	-2,199940	9,548145	2020-10-29T19:09:34:391
-0,404775	-2,200597	9,547979	2020-10-29T19:09:34:407
-0,404005	-2,201317	9,547846	2020-10-29T19:09:34:430
-0,404899	-2,196548	9,548906	2020-10-29T19:09:34:448
-0,402156	-2,197372	9,548833	2020-10-29T19:09:34:471
-0,406461	-2,193602	9,549518	2020-10-29T19:09:34:487
-0,407976	-2,190461	9,550174	2020-10-29T19:09:34:511
-0,409564	-2,187429	9,550800	2020-10-29T19:09:34:528
-0,408807	-2,192486	9,549674	2020-10-29T19:09:34:551
-0,410847	-2,192020	9,549693	2020-10-29T19:09:34:568
-0,410115	-2,192126	9,549700	2020-10-29T19:09:34:590
-0,410735	-2,194016	9,549239	2020-10-29T19:09:34:608
-0,411608	-2,189730	9,550185	2020-10-29T19:09:34:631
-0,416138	-2,193047	9,549228	2020-10-29T19:09:34:648
-0,411082	-2,197448	9,548435	2020-10-29T19:09:34:670
-0,410185	-2,195255	9,548979	2020-10-29T19:09:34:688
-0,407670	-2,195868	9,548945	2020-10-29T19:09:34:712
-0,405673	-2,196143	9,548967	2020-10-29T19:09:34:727
-0,403771	-2,195565	9,549180	2020-10-29T19:09:34:752
-0,401558	-2,201590	9,547887	2020-10-29T19:09:34:771
-0,401797	-2,203671	9,547397	2020-10-29T19:09:34:792
-0,401374	-2,202358	9,547717	2020-10-29T19:09:34:808
-0,398467	-2,204268	9,547398	2020-10-29T19:09:34:830
-0,399335	-2,202375	9,547799	2020-10-29T19:09:34:848
-0,400498	-2,200369	9,548213	2020-10-29T19:09:34:872
-0,398690	-2,201442	9,548040	2020-10-29T19:09:34:888
-0,395094	-2,203793	9,547647	2020-10-29T19:09:34:911
-0,395131	-2,205559	9,547238	2020-10-29T19:09:34:928
-0,393269	-2,199667	9,548675	2020-10-29T19:09:34:952
-0,392263	-2,195473	9,549682	2020-10-29T19:09:34:968
-0,391868	-2,197539	9,549222	2020-10-29T19:09:34:991
-0,392490	-2,204729	9,547539	2020-10-29T19:09:35:009
-0,391266	-2,206068	9,547280	2020-10-29T19:09:35:031
-0,389573	-2,206403	9,547272	2020-10-29T19:09:35:049
-0,389809	-2,203390	9,547958	2020-10-29T19:09:35:071
-0,389330	-2,202728	9,548130	2020-10-29T19:09:35:088
-0,387719	-2,204718	9,547737	2020-10-29T19:09:35:112
-0,388070	-2,203883	9,547915	2020-10-29T19:09:35:128
-0,390916	-2,194188	9,550032	2020-10-29T19:09:35:151
-0,388244	-2,191092	9,550852	2020-10-29T19:09:35:176
-0,389597	-2,194675	9,549973	2020-10-29T19:09:35:191
-0,388419	-2,199502	9,548911	2020-10-29T19:09:35:208
-0,387592	-2,202641	9,548222	2020-10-29T19:09:35:230
-0,385893	-2,201625	9,548525	2020-10-29T19:09:35:249
-0,386403	-2,203726	9,548019	2020-10-29T19:09:35:272
-0,387037	-2,205313	9,547627	2020-10-29T19:09:35:288
-0,385799	-2,206266	9,547457	2020-10-29T19:09:35:311
-0,382875	-2,200306	9,548950	2020-10-29T19:09:35:328
-0,381719	-2,202192	9,548561	2020-10-29T19:09:35:352
-0,381843	-2,203294	9,548303	2020-10-29T19:09:35:368
-0,380607	-2,200281	9,549047	2020-10-29T19:09:35:391
-0,380837	-2,199334	9,549255	2020-10-29T19:09:35:409
-0,379909	-2,201813	9,548721	2020-10-29T19:09:35:432
-0,379470	-2,201111	9,548901	2020-10-29T19:09:35:448
-0,378868	-2,200454	9,549076	2020-10-29T19:09:35:471
-0,378781	-2,207448	9,547464	2020-10-29T19:09:35:489
-0,379037	-2,210189	9,546821	2020-10-29T19:09:35:512
-0,375844	-2,203689	9,548450	2020-10-29T19:09:35:529
-0,373651	-2,202023	9,548920	2020-10-29T19:09:35:552
-0,374321	-2,206896	9,547769	2020-10-29T19:09:35:568
-0,374941	-2,213332	9,546254	2020-10-29T19:09:35:592
-0,377445	-2,211570	9,546564	2020-10-29T19:09:35:609
-0,379658	-2,214451	9,545808	2020-10-29T19:09:35:632
-0,377100	-2,214963	9,545791	2020-10-29T19:09:35:649
-0,376719	-2,210806	9,546769	2020-10-29T19:09:35:673
-0,375307	-2,212635	9,546401	2020-10-29T19:09:35:688
-0,375483	-2,215364	9,545761	2020-10-29T19:09:35:711
-0,378553	-2,218556	9,544899	2020-10-29T19:09:35:730
-0,377888	-2,217717	9,545120	2020-10-29T19:09:35:753
-0,383430	-2,216997	9,545066	2020-10-29T19:09:35:769
-0,383953	-2,222072	9,543865	2020-10-29T19:09:35:791
-0,384252	-2,221334	9,544024	2020-10-29T19:09:35:809
-0,384551	-2,221839	9,543895	2020-10-29T19:09:35:832
-0,383899	-2,232412	9,541454	2020-10-29T19:09:35:850
-0,383647	-2,233511	9,541206	2020-10-29T19:09:35:872
-0,385057	-2,221797	9,543884	2020-10-29T19:09:35:888
-0,384024	-2,218215	9,544759	2020-10-29T19:09:35:913
-0,377492	-2,227351	9,542892	2020-10-29T19:09:35:928
-0,374209	-2,233127	9,541672	2020-10-29T19:09:35:952
-0,370350	-2,235151	9,541348	2020-10-29T19:09:35:970
-0,367659	-2,235463	9,541379	2020-10-29T19:09:35:993
-0,363525	-2,239970	9,540481	2020-10-29T19:09:36:009
-0,363129	-2,245143	9,539280	2020-10-29T19:09:36:032
-0,363239	-2,244757	9,539367	2020-10-29T19:09:36:060
-0,359217	-2,248692	9,538591	2020-10-29T19:09:36:074
-0,355271	-2,252523	9,537835	2020-10-29T19:09:36:089
-0,354873	-2,246110	9,539363	2020-10-29T19:09:36:113
-0,355341	-2,246742	9,539196	2020-10-29T19:09:36:131
-0,357050	-2,252720	9,537723	2020-10-29T19:09:36:194
-0,354993	-2,260290	9,536008	2020-10-29T19:09:36:195
-0,355534	-2,260741	9,535881	2020-10-29T19:09:36:197
-0,353038	-2,261600	9,535770	2020-10-29T19:09:36:211
-0,353805	-2,265728	9,534761	2020-10-29T19:09:36:233
-0,354049	-2,265146	9,534891	2020-10-29T19:09:36:268
-0,353322	-2,268117	9,534212	2020-10-29T19:09:36:281
-0,352613	-2,270250	9,533731	2020-10-29T19:09:36:306
-0,355214	-2,268168	9,534129	2020-10-29T19:09:36:312
-0,355584	-2,271826	9,533244	2020-10-29T19:09:36:328
-0,358490	-2,273301	9,532784	2020-10-29T19:09:36:351
-0,358605	-2,275983	9,532140	2020-10-29T19:09:36:368
-0,358439	-2,273135	9,532825	2020-10-29T19:09:36:393
-0,353411	-2,276208	9,532280	2020-10-29T19:09:36:409
-0,353973	-2,276648	9,532154	2020-10-29T19:09:36:432
-0,351175	-2,276477	9,532298	2020-10-29T19:09:36:451
-0,352661	-2,277308	9,532045	2020-10-29T19:09:36:473
-0,353865	-2,282929	9,530656	2020-10-29T19:09:36:489
-0,352439	-2,287477	9,529618	2020-10-29T19:09:36:512
-0,354905	-2,286221	9,529828	2020-10-29T19:09:36:530
-0,356328	-2,286781	9,529640	2020-10-29T19:09:36:554
-0,361352	-2,285564	9,529743	2020-10-29T19:09:36:569
-0,361181	-2,284797	9,529934	2020-10-29T19:09:36:592
-0,359400	-2,283637	9,530279	2020-10-29T19:09:36:611
-0,358677	-2,287342	9,529418	2020-10-29T19:09:36:641
-0,358107	-2,292102	9,528296	2020-10-29T19:09:36:649
-0,356653	-2,292303	9,528301	2020-10-29T19:09:36:672
-0,357258	-2,291564	9,528457	2020-10-29T19:09:36:690
-0,355564	-2,292677	9,528253	2020-10-29T19:09:36:714
-0,355160	-2,298208	9,526935	2020-10-29T19:09:36:729
-0,356269	-2,300850	9,526256	2020-10-29T19:09:36:752
-0,351860	-2,304858	9,525451	2020-10-29T19:09:36:769
-0,351623	-2,308498	9,524578	2020-10-29T19:09:36:793
-0,351781	-2,310411	9,524108	2020-10-29T19:09:36:811
-0,353339	-2,309858	9,524184	2020-10-29T19:09:36:833
-0,351871	-2,317335	9,522423	2020-10-29T19:09:36:850
-0,349812	-2,320508	9,521726	2020-10-29T19:09:36:873
-0,349656	-2,321882	9,521397	2020-10-29T19:09:36:890
-0,349988	-2,323788	9,520919	2020-10-29T19:09:36:913
-0,347745	-2,324860	9,520740	2020-10-29T19:09:36:936
-0,348870	-2,320602	9,521737	2020-10-29T19:09:36:956
-0,359054	-2,355880	9,512691	2020-10-29T19:11:02:288
-0,365059	-2,372350	9,508368	2020-10-29T19:11:02:296
-0,370648	-2,393706	9,502798	2020-10-29T19:11:02:300
-0,373995	-2,413783	9,497587	2020-10-29T19:11:02:347
-0,381261	-2,433797	9,492189	2020-10-29T19:11:02:347
-0,385190	-2,449468	9,487999	2020-10-29T19:11:02:348
-0,393576	-2,465546	9,483489	2020-10-29T19:11:02:349
-0,401999	-2,479721	9,479439	2020-10-29T19:11:02:349
-0,410631	-2,494997	9,475060	2020-10-29T19:11:02:349
-0,420379	-2,514320	9,469522	2020-10-29T19:11:02:350
-0,426109	-2,533344	9,464195	2020-10-29T19:11:02:365
-0,430376	-2,546101	9,460578	2020-10-29T19:11:02:435
-0,436111	-2,557401	9,457267	2020-10-29T19:11:02:443
-0,439912	-2,572947	9,452873	2020-10-29T19:11:02:444
-0,443463	-2,589762	9,448113	2020-10-29T19:11:02:445
-0,445455	-2,605094	9,443805	2020-10-29T19:11:02:446
-0,446918	-2,611439	9,441982	2020-10-29T19:11:02:451
-0,451345	-2,621081	9,439100	2020-10-29T19:11:02:925
-0,453392	-2,624706	9,437994	2020-10-29T19:11:02:940
-0,455669	-2,646215	9,431876	2020-10-29T19:11:02:962
-0,459222	-2,655935	9,428971	2020-10-29T19:11:02:979
-0,461067	-2,675208	9,423431	2020-10-29T19:11:03:003
-0,466608	-2,686979	9,419809	2020-10-29T19:11:03:018
-0,467537	-2,692534	9,418177	2020-10-29T19:11:03:042
-0,473055	-2,702100	9,415161	2020-10-29T19:11:03:059
-0,473897	-2,705559	9,414125	2020-10-29T19:11:03:082
-0,479041	-2,722491	9,408982	2020-10-29T19:11:03:099
-0,483291	-2,727640	9,407273	2020-10-29T19:11:03:121
-0,487806	-2,736025	9,404605	2020-10-29T19:11:03:138
-0,490424	-2,744869	9,401892	2020-10-29T19:11:03:160
-0,494466	-2,753786	9,399072	2020-10-29T19:11:03:178
-0,496676	-2,757632	9,397827	2020-10-29T19:11:03:202
-0,502550	-2,763320	9,395844	2020-10-29T19:11:03:217
-0,507620	-2,767488	9,394345	2020-10-29T19:11:03:240
-0,508581	-2,771236	9,393188	2020-10-29T19:11:03:258
-0,509220	-2,773094	9,392605	2020-10-29T19:11:03:283
-0,507661	-2,776287	9,391747	2020-10-29T19:11:03:299
-0,510619	-2,783536	9,389440	2020-10-29T19:11:03:321
-0,511216	-2,790818	9,387245	2020-10-29T19:11:03:339
-0,510682	-2,793159	9,386579	2020-10-29T19:11:03:361
-0,512846	-2,797767	9,385088	2020-10-29T19:11:03:378
-0,513761	-2,807121	9,382244	2020-10-29T19:11:03:401
-0,514120	-2,821880	9,377796	2020-10-29T19:11:03:418
-0,514720	-2,826495	9,376373	2020-10-29T19:11:03:442
-0,515347	-2,823687	9,377185	2020-10-29T19:11:03:458
-0,517262	-2,828326	9,375681	2020-10-29T19:11:03:481
-0,517808	-2,838728	9,372507	2020-10-29T19:11:03:499
-0,518634	-2,843436	9,371034	2020-10-29T19:11:03:523
-0,519852	-2,839366	9,372200	2020-10-29T19:11:03:538
-0,516488	-2,838803	9,372557	2020-10-29T19:11:03:561
-0,516790	-2,843630	9,371077	2020-10-29T19:11:03:580
-0,518199	-2,856764	9,367003	2020-10-29T19:11:03:602
-0,519950	-2,866039	9,364073	2020-10-29T19:11:03:618
-0,519560	-2,860438	9,365807	2020-10-29T19:11:03:641
-0,519987	-2,861563	9,365439	2020-10-29T19:11:03:658
-0,521231	-2,870842	9,362530	2020-10-29T19:11:03:683
-0,522709	-2,875257	9,361093	2020-10-29T19:11:03:698
-0,521350	-2,875002	9,361247	2020-10-29T19:11:03:722
-0,517344	-2,867989	9,363620	2020-10-29T19:11:03:738
-0,516338	-2,871027	9,362744	2020-10-29T19:11:03:762
-0,515448	-2,874981	9,361580	2020-10-29T19:11:03:778
-0,512622	-2,879770	9,360263	2020-10-29T19:11:03:801
-0,511864	-2,883169	9,359259	2020-10-29T19:11:03:820
-0,509950	-2,884407	9,358981	2020-10-29T19:11:03:842
-0,509581	-2,886284	9,358423	2020-10-29T19:11:03:858
-0,508750	-2,890497	9,357167	2020-10-29T19:11:03:881
-0,508331	-2,896697	9,355273	2020-10-29T19:11:03:898
-0,510699	-2,898767	9,354503	2020-10-29T19:11:03:923
-0,507464	-2,909500	9,351346	2020-10-29T19:11:03:938
-0,511408	-2,917683	9,348581	2020-10-29T19:11:03:961
-0,510547	-2,922800	9,347030	2020-10-29T19:11:03:979
-0,509052	-2,919229	9,348228	2020-10-29T19:11:04:003
-0,506367	-2,922389	9,347385	2020-10-29T19:11:04:018
-0,505473	-2,925167	9,346565	2020-10-29T19:11:04:043
-0,512294	-2,930681	9,344466	2020-10-29T19:11:04:059
-0,515176	-2,924713	9,346177	2020-10-29T19:11:04:082
-0,516006	-2,924579	9,346173	2020-10-29T19:11:04:099
-0,515457	-2,926842	9,345495	2020-10-29T19:11:04:121
-0,513202	-2,926482	9,345732	2020-10-29T19:11:04:138
-0,512938	-2,926051	9,345881	2020-10-29T19:11:04:163
-0,510970	-2,933142	9,343766	2020-10-29T19:11:04:179
-0,508163	-2,934821	9,343392	2020-10-29T19:11:04:223
-0,508042	-2,937180	9,342657	2020-10-29T19:11:04:225
-0,506320	-2,939497	9,342022	2020-10-29T19:11:04:244
-0,503271	-2,940557	9,341854	2020-10-29T19:11:04:258
-0,499987	-2,945991	9,340318	2020-10-29T19:11:04:281
-0,503179	-2,946620	9,339948	2020-10-29T19:11:04:299
-0,505071	-2,946315	9,339942	2020-10-29T19:11:04:322
-0,505590	-2,945441	9,340190	2020-10-29T19:11:04:338
-0,508824	-2,941374	9,341295	2020-10-29T19:11:04:361
-0,506877	-2,944847	9,340307	2020-10-29T19:11:04:379
-0,505853	-2,946415	9,339868	2020-10-29T19:11:04:403
-0,505691	-2,949229	9,338989	2020-10-29T19:11:04:418
-0,505093	-2,949779	9,338847	2020-10-29T19:11:04:441
-0,507471	-2,946754	9,339673	2020-10-29T19:11:04:458
-0,503086	-2,948105	9,339484	2020-10-29T19:11:04:483
-0,499696	-2,949847	9,339116	2020-10-29T19:11:04:498
-0,498810	-2,950019	9,339109	2020-10-29T19:11:04:522
-0,499100	-2,951027	9,338776	2020-10-29T19:11:04:540
-0,498293	-2,952113	9,338475	2020-10-29T19:11:04:562
-0,494967	-2,948564	9,339773	2020-10-29T19:11:04:579
-0,493315	-2,949035	9,339712	2020-10-29T19:11:04:602
-0,493701	-2,952521	9,338590	2020-10-29T19:11:04:618
-0,494157	-2,950955	9,339061	2020-10-29T19:11:04:643
-0,490824	-2,949919	9,339563	2020-10-29T19:11:04:658
-0,488245	-2,953356	9,338613	2020-10-29T19:11:04:681
-0,490172	-2,956279	9,337586	2020-10-29T19:11:04:699
-0,492388	-2,953914	9,338219	2020-10-29T19:11:04:722
-0,496395	-2,945147	9,340775	2020-10-29T19:11:04:738
-0,496396	-2,947932	9,339897	2020-10-29T19:11:04:761
-0,499990	-2,954990	9,337475	2020-10-29T19:11:04:780
-0,498371	-2,954366	9,337758	2020-10-29T19:11:04:802
-0,497360	-2,953239	9,338169	2020-10-29T19:11:04:819
-0,496628	-2,946178	9,340438	2020-10-29T19:11:04:841
-0,497415	-2,949480	9,339354	2020-10-29T19:11:04:859
-0,495200	-2,954269	9,337957	2020-10-29T19:11:04:883
-0,496023	-2,953341	9,338207	2020-10-29T19:11:04:899
-0,496320	-2,951933	9,338637	2020-10-29T19:11:04:921
-0,495931	-2,958061	9,336719	2020-10-29T19:11:04:939
-0,497550	-2,963749	9,334828	2020-10-29T19:11:04:962
-0,498984	-2,968007	9,333399	2020-10-29T19:11:04:979
-0,497476	-2,965508	9,334273	2020-10-29T19:11:05:002
-0,497997	-2,962799	9,335106	2020-10-29T19:11:05:020
-0,497468	-2,966314	9,334018	2020-10-29T19:11:05:042
-0,498073	-2,969672	9,332917	2020-10-29T19:11:05:060
-0,497431	-2,968557	9,333307	2020-10-29T19:11:05:083
-0,498769	-2,962175	9,335263	2020-10-29T19:11:05:099
-0,494469	-2,966483	9,334124	2020-10-29T19:11:05:123
-0,493401	-2,971455	9,332599	2020-10-29T19:11:05:139
-0,493102	-2,975270	9,331399	2020-10-29T19:11:05:161
-0,493762	-2,973743	9,331851	2020-10-29T19:11:05:179
-0,498300	-2,968132	9,333396	2020-10-29T19:11:05:203
-0,496890	-2,968734	9,333280	2020-10-29T19:11:05:219
-0,496486	-2,969998	9,332899	2020-10-29T19:11:05:243
-0,496601	-2,970882	9,332611	2020-10-29T19:11:05:261
-0,496630	-2,967717	9,333616	2020-10-29T19:11:05:283
-0,495636	-2,967761	9,333655	2020-10-29T19:11:05:300
-0,496629	-2,966290	9,334070	2020-10-29T19:11:05:322
-0,495314	-2,968457	9,333451	2020-10-29T19:11:05:339
-0,495388	-2,968300	9,333497	2020-10-29T19:11:05:364
-0,498372	-2,968634	9,333232	2020-10-29T19:11:05:380
-0,497547	-2,970948	9,332540	2020-10-29T19:11:05:402
-0,499315	-2,974340	9,331365	2020-10-29T19:11:05:419
-0,499225	-2,973612	9,331602	2020-10-29T19:11:05:443
-0,499345	-2,972432	9,331971	2020-10-29T19:11:05:459
-0,500069	-2,971245	9,332311	2020-10-29T19:11:05:483
-0,498869	-2,965604	9,334168	2020-10-29T19:11:05:500
-0,496928	-2,969090	9,333164	2020-10-29T19:11:05:522
-0,494744	-2,974452	9,331573	2020-10-29T19:11:05:540
-0,494070	-2,973118	9,332033	2020-10-29T19:11:05:562
-0,495340	-2,971277	9,332553	2020-10-29T19:11:05:580
-0,494285	-2,971053	9,332680	2020-10-29T19:11:05:604
-0,495346	-2,967961	9,333608	2020-10-29T19:11:05:620
-0,494105	-2,967919	9,333687	2020-10-29T19:11:05:642
-0,493990	-2,970169	9,332976	2020-10-29T19:11:05:660
-0,494963	-2,970426	9,332844	2020-10-29T19:11:05:684
-0,492866	-2,972021	9,332446	2020-10-29T19:11:05:700
-0,493374	-2,976408	9,331021	2020-10-29T19:11:05:724
-0,492422	-2,981514	9,329442	2020-10-29T19:11:05:741
-0,493595	-2,983888	9,328621	2020-10-29T19:11:05:763
-0,495167	-2,982431	9,329003	2020-10-29T19:11:05:780
-0,494760	-2,985495	9,328045	2020-10-29T19:11:05:803
-0,498619	-2,988105	9,327003	2020-10-29T19:11:05:820
-0,499563	-2,985877	9,327666	2020-10-29T19:11:05:843
-0,502628	-2,984511	9,327939	2020-10-29T19:11:05:860
-0,504721	-2,984455	9,327844	2020-10-29T19:11:05:883
-0,503618	-2,980031	9,329318	2020-10-29T19:11:05:900
-0,502234	-2,982955	9,328458	2020-10-29T19:11:05:924
-0,503435	-2,981996	9,328700	2020-10-29T19:11:05:940
-0,504689	-2,971679	9,331923	2020-10-29T19:11:05:963
-0,508662	-2,968765	9,332635	2020-10-29T19:11:05:981
-0,509423	-2,968932	9,332541	2020-10-29T19:11:06:004
-0,507472	-2,971669	9,331776	2020-10-29T19:11:06:020
-0,506568	-2,970982	9,332044	2020-10-29T19:11:06:043
-0,505119	-2,974075	9,331137	2020-10-29T19:11:06:060
-0,504727	-2,970490	9,332300	2020-10-29T19:11:06:084
-0,504443	-2,973814	9,331257	2020-10-29T19:11:06:101
-0,504927	-2,972281	9,331719	2020-10-29T19:11:06:123
-0,502094	-2,971801	9,332025	2020-10-29T19:11:06:140
-0,502378	-2,970395	9,332458	2020-10-29T19:11:06:164
-0,503874	-2,969172	9,332766	2020-10-29T19:11:06:180
-0,505285	-2,970801	9,332170	2020-10-29T19:11:06:205
-0,509102	-2,971485	9,331746	2020-10-29T19:11:06:221
-0,510342	-2,969722	9,332239	2020-10-29T19:11:06:244
-0,512969	-2,964628	9,333714	2020-10-29T19:11:06:260
-0,516218	-2,961538	9,334517	2020-10-29T19:11:06:283
-0,516168	-2,966483	9,332949	2020-10-29T19:11:06:300
-0,514091	-2,966416	9,333085	2020-10-29T19:11:06:324
-0,515138	-2,962703	9,334207	2020-10-29T19:11:06:340
-0,516605	-2,962927	9,334054	2020-10-29T19:11:06:363
-0,517101	-2,962119	9,334283	2020-10-29T19:11:06:381
-0,519809	-2,958793	9,335187	2020-10-29T19:11:06:405
-0,519636	-2,956298	9,335988	2020-10-29T19:11:06:420
-0,519506	-2,958742	9,335220	2020-10-29T19:11:06:443
-0,522441	-2,960991	9,334344	2020-10-29T19:11:06:461
-0,517048	-2,956922	9,335934	2020-10-29T19:11:06:484
-0,518672	-2,957266	9,335734	2020-10-29T19:11:06:501
-0,518012	-2,958118	9,335502	2020-10-29T19:11:06:524
-0,521163	-2,963656	9,333570	2020-10-29T19:11:06:540
-0,524197	-2,967447	9,332195	2020-10-29T19:11:06:564
-0,523527	-2,972532	9,330614	2020-10-29T19:11:06:581
-0,523063	-2,968885	9,331801	2020-10-29T19:11:06:603
-0,523560	-2,967105	9,332339	2020-10-29T19:11:06:621
-0,523091	-2,967300	9,332304	2020-10-29T19:11:06:645
-0,527044	-2,968526	9,331691	2020-10-29T19:11:06:661
-0,528752	-2,968146	9,331716	2020-10-29T19:11:06:685
-0,528044	-2,963680	9,333175	2020-10-29T19:11:06:702
-0,530084	-2,962527	9,333426	2020-10-29T19:11:06:725
-0,533788	-2,956777	9,335037	2020-10-29T19:11:06:741
-0,535769	-2,953976	9,335811	2020-10-29T19:11:06:763
-0,536675	-2,952793	9,336133	2020-10-29T19:11:06:781
-0,534159	-2,947763	9,337867	2020-10-29T19:11:06:805
-0,538356	-2,942688	9,339226	2020-10-29T19:11:06:821
-0,536501	-2,944211	9,338853	2020-10-29T19:11:06:843
-0,537229	-2,946592	9,338060	2020-10-29T19:11:06:861
-0,532557	-2,938171	9,340981	2020-10-29T19:11:06:885
-0,533463	-2,930336	9,343390	2020-10-29T19:11:06:901
-0,534935	-2,929670	9,343514	2020-10-29T19:11:06:924
-0,533214	-2,932680	9,342669	2020-10-29T19:11:06:941
-0,534348	-2,931784	9,342885	2020-10-29T19:11:06:964
-0,532167	-2,931890	9,342977	2020-10-29T19:11:06:981
-0,532844	-2,930197	9,343469	2020-10-29T19:11:07:004
-0,534966	-2,929039	9,343711	2020-10-29T19:11:07:021
-0,536819	-2,926935	9,344263	2020-10-29T19:11:07:045
-0,535249	-2,924954	9,344974	2020-10-29T19:11:07:062
-0,535950	-2,921399	9,346045	2020-10-29T19:11:07:084
-0,537357	-2,919943	9,346419	2020-10-29T19:11:07:101
-0,541213	-2,919792	9,346245	2020-10-29T19:11:07:125
-0,542969	-2,919038	9,346378	2020-10-29T19:11:07:142
-0,543444	-2,914995	9,347612	2020-10-29T19:11:07:164
-0,540745	-2,911839	9,348752	2020-10-29T19:11:07:182
-0,541777	-2,912234	9,348570	2020-10-29T19:11:07:205
-0,543402	-2,917569	9,346812	2020-10-29T19:11:07:221
-0,544233	-2,914386	9,347756	2020-10-29T19:11:07:244
-0,545422	-2,911478	9,348593	2020-10-29T19:11:07:261
-0,543634	-2,909370	9,349354	2020-10-29T19:11:07:285
-0,541497	-2,911139	9,348927	2020-10-29T19:11:07:301
-0,542859	-2,910292	9,349112	2020-10-29T19:11:07:324
-0,546231	-2,903970	9,350881	2020-10-29T19:11:07:341
-0,545442	-2,901901	9,351569	2020-10-29T19:11:07:365
-0,544955	-2,900779	9,351946	2020-10-29T19:11:07:381
-0,545481	-2,896916	9,353112	2020-10-29T19:11:07:404
-0,544680	-2,898135	9,352781	2020-10-29T19:11:07:422
-0,545413	-2,896655	9,353197	2020-10-29T19:11:07:445
-0,546496	-2,895807	9,353396	2020-10-29T19:11:07:461
-0,545812	-2,892365	9,354502	2020-10-29T19:11:07:484
-0,545901	-2,887482	9,356005	2020-10-29T19:11:07:501
-0,544660	-2,887405	9,356101	2020-10-29T19:11:07:525
-0,544935	-2,888548	9,355732	2020-10-29T19:11:07:541
-0,543174	-2,885196	9,356869	2020-10-29T19:11:07:564
-0,546495	-2,881305	9,357874	2020-10-29T19:11:07:581
-0,544281	-2,882047	9,357775	2020-10-29T19:11:07:605
-0,544266	-2,883938	9,357193	2020-10-29T19:11:07:621
-0,545456	-2,885248	9,356720	2020-10-29T19:11:07:644
-0,544774	-2,879061	9,358665	2020-10-29T19:11:07:662
-0,544763	-2,877031	9,359290	2020-10-29T19:11:07:685
-0,540982	-2,880337	9,358493	2020-10-29T19:11:07:702
-0,542578	-2,881183	9,358139	2020-10-29T19:11:07:725
-0,544210	-2,876260	9,359559	2020-10-29T19:11:07:741
-0,549341	-2,867095	9,362071	2020-10-29T19:11:07:765
-0,549820	-2,862251	9,363525	2020-10-29T19:11:07:782
-0,543133	-2,861266	9,364217	2020-10-29T19:11:07:804
-0,539996	-2,863595	9,363686	2020-10-29T19:11:07:821
-0,538098	-2,863664	9,363774	2020-10-29T19:11:07:846
-0,537473	-2,862025	9,364311	2020-10-29T19:11:07:861
-0,539566	-2,856170	9,365978	2020-10-29T19:11:07:885
-0,539400	-2,856553	9,365870	2020-10-29T19:11:07:903
-0,543043	-2,862203	9,363935	2020-10-29T19:11:07:930
-0,540739	-2,862084	9,364105	2020-10-29T19:11:07:941
-0,540062	-2,860046	9,364766	2020-10-29T19:11:07:964
-0,539270	-2,857161	9,365693	2020-10-29T19:11:07:982
-0,539212	-2,856473	9,365906	2020-10-29T19:11:08:006
-0,540871	-2,857343	9,365545	2020-10-29T19:11:08:022
-0,545249	-2,852186	9,366863	2020-10-29T19:11:08:045
-0,544435	-2,853872	9,366397	2020-10-29T19:11:08:062
-0,546041	-2,856075	9,365632	2020-10-29T19:11:08:086
-0,549005	-2,856822	9,365231	2020-10-29T19:11:08:102
-0,548365	-2,854729	9,365907	2020-10-29T19:11:08:125
-0,548151	-2,856283	9,365445	2020-10-29T19:11:08:143
-0,544459	-2,852395	9,366845	2020-10-29T19:11:08:165
-0,544817	-2,848201	9,368100	2020-10-29T19:11:08:182
-0,545533	-2,848905	9,367845	2020-10-29T19:11:08:205
-0,549712	-2,854114	9,366014	2020-10-29T19:11:08:222
-0,546127	-2,856797	9,365406	2020-10-29T19:11:08:246
-0,548315	-2,851743	9,366819	2020-10-29T19:11:08:262
-0,547478	-2,850238	9,367326	2020-10-29T19:11:08:286
-0,547059	-2,851542	9,366954	2020-10-29T19:11:08:302
-0,546322	-2,856060	9,365620	2020-10-29T19:11:08:327
-0,547031	-2,856562	9,365425	2020-10-29T19:11:08:342
-0,547171	-2,855821	9,365644	2020-10-29T19:11:08:365
-0,546078	-2,854981	9,365963	2020-10-29T19:11:08:383
-0,547746	-2,856486	9,365407	2020-10-29T19:11:08:406
-0,545866	-2,861097	9,364109	2020-10-29T19:11:08:422
-0,548622	-2,860865	9,364019	2020-10-29T19:11:08:446
-0,551361	-2,853088	9,366231	2020-10-29T19:11:08:462
-0,549860	-2,855056	9,365719	2020-10-29T19:11:08:486
-0,550877	-2,857252	9,364989	2020-10-29T19:11:08:502
-0,550579	-2,857189	9,365026	2020-10-29T19:11:08:526
-0,555476	-2,849457	9,367093	2020-10-29T19:11:08:542
-0,553905	-2,851396	9,366596	2020-10-29T19:11:08:566
-0,555977	-2,847791	9,367570	2020-10-29T19:11:08:582
-0,557536	-2,841735	9,369316	2020-10-29T19:11:08:605
-0,559450	-2,843407	9,368694	2020-10-29T19:11:08:623
-0,559930	-2,846353	9,367771	2020-10-29T19:11:08:646
-0,561290	-2,846164	9,367747	2020-10-29T19:11:08:662
-0,562041	-2,844643	9,368164	2020-10-29T19:11:08:686
-0,564779	-2,845633	9,367699	2020-10-29T19:11:08:702
-0,565400	-2,851032	9,366019	2020-10-29T19:11:08:726
-0,568266	-2,853090	9,365219	2020-10-29T19:11:08:742
-0,568167	-2,847975	9,366782	2020-10-29T19:11:08:765
-0,566420	-2,842066	9,368683	2020-10-29T19:11:08:783
-0,565054	-2,838421	9,369870	2020-10-29T19:11:08:807
-0,566583	-2,838263	9,369825	2020-10-29T19:11:08:822
-0,568161	-2,840001	9,369204	2020-10-29T19:11:08:845
-0,568030	-2,840098	9,369182	2020-10-29T19:11:08:865
-0,570066	-2,842248	9,368406	2020-10-29T19:11:08:886
-0,569920	-2,847189	9,366915	2020-10-29T19:11:08:903
-0,568633	-2,846701	9,367142	2020-10-29T19:11:08:926
-0,565963	-2,846701	9,367303	2020-10-29T19:11:08:943
-0,567306	-2,847888	9,366861	2020-10-29T19:11:08:966
-0,567845	-2,840788	9,368984	2020-10-29T19:11:08:983
-0,570340	-2,837110	9,369946	2020-10-29T19:11:09:006
-0,570742	-2,840155	9,368999	2020-10-29T19:11:09:023
-0,572022	-2,841003	9,368665	2020-10-29T19:11:09:047
-0,568382	-2,835829	9,370454	2020-10-29T19:11:09:064
-0,565153	-2,828418	9,372889	2020-10-29T19:11:09:086
-0,567293	-2,826867	9,373227	2020-10-29T19:11:09:104
-0,567180	-2,828665	9,372692	2020-10-29T19:11:09:127
-0,568049	-2,831495	9,371784	2020-10-29T19:11:09:143
-0,567028	-2,832375	9,371580	2020-10-29T19:11:09:166
-0,570811	-2,831156	9,371719	2020-10-29T19:11:09:183
-0,571353	-2,830186	9,371979	2020-10-29T19:11:09:207
-0,571301	-2,830067	9,372018	2020-10-29T19:11:09:223
-0,570283	-2,833157	9,371146	2020-10-29T19:11:09:246
-0,570558	-2,829756	9,372157	2020-10-29T19:11:09:264
-0,569251	-2,827084	9,373043	2020-10-29T19:11:09:288
-0,570590	-2,827693	9,372778	2020-10-29T19:11:09:303
-0,570998	-2,834967	9,370556	2020-10-29T19:11:09:326
-0,571956	-2,835140	9,370444	2020-10-29T19:11:09:344
-0,571534	-2,833411	9,370994	2020-10-29T19:11:09:367
-0,570388	-2,835120	9,370546	2020-10-29T19:11:09:384
-0,568909	-2,835949	9,370385	2020-10-29T19:11:09:406
-0,565458	-2,835035	9,370871	2020-10-29T19:11:09:424
-0,565996	-2,834070	9,371130	2020-10-29T19:11:09:447
-0,567481	-2,833981	9,371067	2020-10-29T19:11:09:464
-0,570806	-2,832274	9,371382	2020-10-29T19:11:09:486
-0,570076	-2,833657	9,371008	2020-10-29T19:11:09:504
-0,568033	-2,834188	9,370971	2020-10-29T19:11:09:528
-0,572252	-2,834877	9,370506	2020-10-29T19:11:09:544
-0,568863	-2,836908	9,370098	2020-10-29T19:11:09:567
-0,566726	-2,833264	9,371329	2020-10-29T19:11:09:585
-0,564627	-2,837197	9,370267	2020-10-29T19:11:09:607
-0,561706	-2,839584	9,369719	2020-10-29T19:11:09:624
-0,559126	-2,838778	9,370117	2020-10-29T19:11:09:646
-0,558276	-2,841334	9,369393	2020-10-29T19:11:09:664
-0,558935	-2,844952	9,368257	2020-10-29T19:11:09:688
-0,558818	-2,843809	9,368610	2020-10-29T19:11:09:704
-0,556800	-2,839892	9,369919	2020-10-29T19:11:09:726
-0,559179	-2,838569	9,370177	2020-10-29T19:11:09:744
-0,558611	-2,840587	9,369600	2020-10-29T19:11:09:768
-0,558463	-2,838524	9,370234	2020-10-29T19:11:09:784
-0,556725	-2,836280	9,371017	2020-10-29T19:11:09:807
-0,556569	-2,835566	9,371243	2020-10-29T19:11:09:825
-0,557921	-2,833991	9,371638	2020-10-29T19:11:09:847
-0,557356	-2,831663	9,372375	2020-10-29T19:11:09:864
-0,557599	-2,824424	9,374545	2020-10-29T19:11:09:887
-0,556085	-2,819724	9,376050	2020-10-29T19:11:09:904
-0,553383	-2,818424	9,376600	2020-10-29T19:11:09:929
-0,555277	-2,817602	9,376736	2020-10-29T19:11:09:944
-0,556937	-2,815080	9,377395	2020-10-29T19:11:09:966
-0,556886	-2,811286	9,378536	2020-10-29T19:11:09:985
-0,556837	-2,808026	9,379516	2020-10-29T19:11:10:008
-0,554710	-2,814186	9,377795	2020-10-29T19:11:10:024
-0,555090	-2,812023	9,378422	2020-10-29T19:11:10:047
-0,555387	-2,806997	9,379910	2020-10-29T19:11:10:065
-0,557293	-2,806098	9,380065	2020-10-29T19:11:10:088
-0,559973	-2,808743	9,379114	2020-10-29T19:11:10:106
-0,560436	-2,808481	9,379165	2020-10-29T19:11:10:127
-0,557314	-2,811337	9,378495	2020-10-29T19:11:10:144
-0,558114	-2,814808	9,377406	2020-10-29T19:11:10:168
-0,561290	-2,809879	9,378695	2020-10-29T19:11:10:184
-0,562945	-2,807041	9,379445	2020-10-29T19:11:10:207
-0,559058	-2,809479	9,378948	2020-10-29T19:11:10:224
-0,557064	-2,813758	9,377784	2020-10-29T19:11:10:248
-0,554462	-2,810727	9,378847	2020-10-29T19:11:10:264
-0,552877	-2,810004	9,379157	2020-10-29T19:11:10:287
-0,554911	-2,810868	9,378778	2020-10-29T19:11:10:305
-0,553500	-2,809128	9,379383	2020-10-29T19:11:10:328
-0,552618	-2,807438	9,379941	2020-10-29T19:11:10:345
-0,552627	-2,810232	9,379104	2020-10-29T19:11:10:367
-0,555871	-2,807420	9,379754	2020-10-29T19:11:10:386
-0,555099	-2,805892	9,380257	2020-10-29T19:11:10:409
-0,552858	-2,808645	9,379565	2020-10-29T19:11:10:424
-0,554174	-2,810684	9,378877	2020-10-29T19:11:10:447
-0,550893	-2,809132	9,379535	2020-10-29T19:11:10:464
-0,551694	-2,803042	9,381310	2020-10-29T19:11:10:488
-0,550398	-2,804924	9,380823	2020-10-29T19:11:10:506
-0,548349	-2,803465	9,381379	2020-10-29T19:11:10:528
-0,545427	-2,801169	9,382236	2020-10-29T19:11:10:547
-0,544911	-2,800119	9,382579	2020-10-29T19:11:10:568
-0,544274	-2,799261	9,382872	2020-10-29T19:11:10:586
-0,543828	-2,797493	9,383425	2020-10-29T19:11:10:607
-0,543363	-2,793710	9,384579	2020-10-29T19:11:10:626
-0,544604	-2,794947	9,384139	2020-10-29T19:11:10:648
-0,544452	-2,793345	9,384624	2020-10-29T19:11:10:665
-0,547297	-2,796726	9,383452	2020-10-29T19:11:10:687
-0,546768	-2,801697	9,382000	2020-10-29T19:11:10:706
-0,546893	-2,799768	9,382568	2020-10-29T19:11:10:728
-0,545818	-2,793977	9,384357	2020-10-29T19:11:10:745
-0,544768	-2,791705	9,385095	2020-10-29T19:11:10:767
-0,542627	-2,785618	9,387027	2020-10-29T19:11:10:786
-0,543459	-2,787595	9,386392	2020-10-29T19:11:10:808
-0,545020	-2,785938	9,386793	2020-10-29T19:11:10:825
-0,543993	-2,788877	9,385980	2020-10-29T19:11:10:848
-0,542881	-2,791606	9,385233	2020-10-29T19:11:10:865
-0,541562	-2,794113	9,384563	2020-10-29T19:11:10:889
-0,543136	-2,797111	9,383579	2020-10-29T19:11:10:905
-0,542899	-2,796264	9,383845	2020-10-29T19:11:10:927
-0,541521	-2,798757	9,383182	2020-10-29T19:11:10:945
-0,542895	-2,798857	9,383073	2020-10-29T19:11:10:969
-0,542235	-2,802320	9,382077	2020-10-29T19:11:10:985
-0,539497	-2,803727	9,381814	2020-10-29T19:11:11:008
-0,537981	-2,804276	9,381738	2020-10-29T19:11:11:026
-0,537100	-2,803143	9,382127	2020-10-29T19:11:11:048
-0,537878	-2,802901	9,382154	2020-10-29T19:11:11:065
-0,537210	-2,805314	9,381472	2020-10-29T19:11:11:088
-0,536572	-2,806046	9,381289	2020-10-29T19:11:11:105
-0,536486	-2,809751	9,380185	2020-10-29T19:11:11:129
-0,535024	-2,813237	9,379223	2020-10-29T19:11:11:145
-0,532360	-2,813349	9,379341	2020-10-29T19:11:11:167
-0,534566	-2,814701	9,378810	2020-10-29T19:11:11:185
-0,535807	-2,815026	9,378642	2020-10-29T19:11:11:209
-0,535066	-2,812184	9,379537	2020-10-29T19:11:11:225
-0,535484	-2,817533	9,377908	2020-10-29T19:11:11:248
-0,531111	-2,824058	9,376193	2020-10-29T19:11:11:266
-0,532921	-2,824957	9,375820	2020-10-29T19:11:11:289
-0,532238	-2,826573	9,375372	2020-10-29T19:11:11:306
-0,531679	-2,825441	9,375745	2020-10-29T19:11:11:328
-0,531456	-2,827832	9,375036	2020-10-29T19:11:11:345
-0,529932	-2,830898	9,374197	2020-10-29T19:11:11:369
-0,527834	-2,832125	9,373945	2020-10-29T19:11:11:386
-0,525224	-2,832862	9,373869	2020-10-29T19:11:11:408
-0,523550	-2,836947	9,372726	2020-10-29T19:11:11:426
-0,524271	-2,838162	9,372318	2020-10-29T19:11:11:449
-0,522048	-2,837658	9,372596	2020-10-29T19:11:11:465
-0,523025	-2,838642	9,372243	2020-10-29T19:11:11:489
-0,522101	-2,836990	9,372795	2020-10-29T19:11:11:506
-0,521796	-2,842223	9,371226	2020-10-29T19:11:11:529
-0,522244	-2,844790	9,370422	2020-10-29T19:11:11:546
-0,518092	-2,849675	9,369168	2020-10-29T19:11:11:568
-0,518565	-2,847335	9,369854	2020-10-29T19:11:11:586
-0,516588	-2,846489	9,370220	2020-10-29T19:11:11:610
-0,516042	-2,849438	9,369353	2020-10-29T19:11:11:625
-0,513908	-2,852951	9,368402	2020-10-29T19:11:11:648
-0,512137	-2,854160	9,368131	2020-10-29T19:11:11:666
-0,514050	-2,852108	9,368650	2020-10-29T19:11:11:689
-0,518157	-2,849793	9,369129	2020-10-29T19:11:11:706
-0,515383	-2,846324	9,370337	2020-10-29T19:11:11:729
-0,513590	-2,845626	9,370646	2020-10-29T19:11:11:746
-0,513857	-2,845869	9,370559	2020-10-29T19:11:11:769
-0,517386	-2,843358	9,371126	2020-10-29T19:11:11:786
-0,520787	-2,839028	9,372251	2020-10-29T19:11:11:809
-0,520521	-2,845291	9,370366	2020-10-29T19:11:11:826
-0,520414	-2,849650	9,369047	2020-10-29T19:11:11:849
-0,517639	-2,851241	9,368717	2020-10-29T19:11:11:866
-0,518950	-2,852095	9,368384	2020-10-29T19:11:11:889
-0,516010	-2,856584	9,367179	2020-10-29T19:11:11:906
-0,516778	-2,858962	9,366411	2020-10-29T19:11:11:929
-0,516023	-2,858891	9,366474	2020-10-29T19:11:11:946
-0,515988	-2,858685	9,366539	2020-10-29T19:11:11:969
-0,514390	-2,862568	9,365441	2020-10-29T19:11:11:989
-0,515253	-2,863338	9,365158	2020-10-29T19:11:12:009
-0,513308	-2,864971	9,364766	2020-10-29T19:11:12:026
-0,513253	-2,868798	9,363597	2020-10-29T19:11:12:048
-0,512039	-2,871193	9,362929	2020-10-29T19:11:12:066
-0,512074	-2,872298	9,362589	2020-10-29T19:11:12:090
-0,509471	-2,877943	9,360997	2020-10-29T19:11:12:106
-0,507398	-2,888052	9,357996	2020-10-29T19:11:12:128
-0,508112	-2,890222	9,357287	2020-10-29T19:11:12:146
-0,509673	-2,887887	9,357924	2020-10-29T19:11:12:169
-0,508088	-2,893233	9,356358	2020-10-29T19:11:12:187
-0,507299	-2,896042	9,355532	2020-10-29T19:11:12:209
-0,506120	-2,893543	9,356369	2020-10-29T19:11:12:227
-0,506085	-2,893434	9,356404	2020-10-29T19:11:12:250
-0,504302	-2,900980	9,354164	2020-10-29T19:11:12:267
-0,502578	-2,901099	9,354219	2020-10-29T19:11:12:289
-0,503620	-2,896545	9,355575	2020-10-29T19:11:12:306
-0,505486	-2,894420	9,356132	2020-10-29T19:11:12:330
-0,506070	-2,902452	9,353611	2020-10-29T19:11:12:346
-0,506620	-2,909832	9,351289	2020-10-29T19:11:12:369
-0,507053	-2,911559	9,350728	2020-10-29T19:11:12:387
-0,507654	-2,909681	9,351279	2020-10-29T19:11:12:411
-0,506137	-2,906979	9,352202	2020-10-29T19:11:12:427
-0,504458	-2,905992	9,352599	2020-10-29T19:11:12:449
-0,506447	-2,905973	9,352498	2020-10-29T19:11:12:467
-0,505258	-2,905592	9,352680	2020-10-29T19:11:12:490
-0,504827	-2,906911	9,352294	2020-10-29T19:11:12:507
-0,503702	-2,908342	9,351910	2020-10-29T19:11:12:529
-0,502912	-2,904081	9,353276	2020-10-29T19:11:12:547
-0,501338	-2,904300	9,353292	2020-10-29T19:11:12:570
-0,501085	-2,911102	9,351192	2020-10-29T19:11:12:587
-0,502315	-2,912173	9,350792	2020-10-29T19:11:12:609
-0,501705	-2,911715	9,350967	2020-10-29T19:11:12:627
-0,502970	-2,908439	9,351919	2020-10-29T19:11:12:650
-0,505313	-2,907665	9,352034	2020-10-29T19:11:12:666
-0,504237	-2,912499	9,350587	2020-10-29T19:11:12:689
-0,503206	-2,922618	9,347485	2020-10-29T19:11:12:708
-0,502895	-2,926020	9,346437	2020-10-29T19:11:12:730
-0,499881	-2,926200	9,346542	2020-10-29T19:11:12:747
-0,501007	-2,931368	9,344863	2020-10-29T19:11:12:770
-0,502318	-2,932328	9,344491	2020-10-29T19:11:12:788
-0,503851	-2,931446	9,344686	2020-10-29T19:11:12:812
-0,503685	-2,924288	9,346937	2020-10-29T19:11:12:827
-0,502813	-2,917274	9,349175	2020-10-29T19:11:12:849
-0,499353	-2,914965	9,350080	2020-10-29T19:11:12:867
-0,503481	-2,919262	9,348518	2020-10-29T19:11:12:891
-0,500175	-2,925086	9,346875	2020-10-29T19:11:12:907
-0,498942	-2,922866	9,347636	2020-10-29T19:11:12:935
-0,494494	-2,923212	9,347764	2020-10-29T19:11:12:947
-0,494629	-2,921268	9,348365	2020-10-29T19:11:12:970
-0,494120	-2,922857	9,347895	2020-10-29T19:11:12:987
-0,494134	-2,925327	9,347121	2020-10-29T19:11:13:009
-0,491152	-2,926899	9,346786	2020-10-29T19:11:13:027
-0,488063	-2,925388	9,347422	2020-10-29T19:11:13:051
-0,490435	-2,921492	9,348516	2020-10-29T19:11:13:067
-0,488839	-2,919992	9,349068	2020-10-29T19:11:13:090
-0,490225	-2,920839	9,348731	2020-10-29T19:11:13:107
-0,489793	-2,925634	9,347254	2020-10-29T19:11:13:130
-0,488847	-2,927570	9,346697	2020-10-29T19:11:13:147
-0,487522	-2,929199	9,346256	2020-10-29T19:11:13:170
-0,486742	-2,929061	9,346340	2020-10-29T19:11:13:188
-0,487133	-2,926005	9,347277	2020-10-29T19:11:13:211
-0,486405	-2,930368	9,345947	2020-10-29T19:11:13:227
-0,485514	-2,934028	9,344846	2020-10-29T19:11:13:249
-0,485379	-2,937655	9,343713	2020-10-29T19:11:13:267
-0,484152	-2,939961	9,343052	2020-10-29T19:11:13:292
-0,481617	-2,938633	9,343600	2020-10-29T19:11:13:307
-0,479844	-2,939863	9,343305	2020-10-29T19:11:13:329
-0,479839	-2,944159	9,341952	2020-10-29T19:11:13:347
-0,476548	-2,946922	9,341249	2020-10-29T19:11:13:371
-0,476045	-2,950783	9,340055	2020-10-29T19:11:13:387
-0,474878	-2,951508	9,339887	2020-10-29T19:11:13:410
-0,473280	-2,956796	9,338295	2020-10-29T19:11:13:428
-0,474081	-2,962148	9,336557	2020-10-29T19:11:13:450
-0,472979	-2,963384	9,336222	2020-10-29T19:11:13:467
-0,473045	-2,962878	9,336379	2020-10-29T19:11:13:490
-0,471041	-2,963975	9,336132	2020-10-29T19:11:13:508
-0,470665	-2,967076	9,335166	2020-10-29T19:11:13:531
-0,469407	-2,968828	9,334672	2020-10-29T19:11:13:548
-0,468968	-2,969527	9,334472	2020-10-29T19:11:13:570
-0,468882	-2,969490	9,334488	2020-10-29T19:11:13:588
-0,465048	-2,973125	9,333523	2020-10-29T19:11:13:611
-0,461736	-2,976723	9,332541	2020-10-29T19:11:13:627
-0,463815	-2,977493	9,332191	2020-10-29T19:11:13:650
-0,468130	-2,968117	9,334962	2020-10-29T19:11:13:668
-0,467933	-2,969355	9,334579	2020-10-29T19:11:13:691
-0,471103	-2,967378	9,335048	2020-10-29T19:11:13:708
-0,470176	-2,965205	9,335785	2020-10-29T19:11:13:730
-0,468461	-2,966045	9,335605	2020-10-29T19:11:13:747
-0,468773	-2,968177	9,334911	2020-10-29T19:11:13:771
-0,467011	-2,968219	9,334986	2020-10-29T19:11:13:788
-0,466302	-2,967362	9,335294	2020-10-29T19:11:13:810
-0,465987	-2,969911	9,334499	2020-10-29T19:11:13:828
-0,465402	-2,971972	9,333872	2020-10-29T19:11:13:851
-0,468805	-2,970753	9,334090	2020-10-29T19:11:13:868
-0,465975	-2,970864	9,334196	2020-10-29T19:11:13:891
-0,466677	-2,973654	9,333273	2020-10-29T19:11:13:909
-0,470323	-2,973047	9,333283	2020-10-29T19:11:13:931
-0,468790	-2,971873	9,333734	2020-10-29T19:11:13:948
-0,470537	-2,972553	9,333429	2020-10-29T19:11:13:970
-0,470942	-2,974913	9,332657	2020-10-29T19:11:13:988
-0,469985	-2,977154	9,331991	2020-10-29T19:11:14:012
-0,474402	-2,974541	9,332601	2020-10-29T19:11:14:028
-0,474931	-2,975745	9,332190	2020-10-29T19:11:14:050
-0,477679	-2,978446	9,331187	2020-10-29T19:11:14:068
-0,475890	-2,979249	9,331023	2020-10-29T19:11:14:092
-0,473511	-2,980883	9,330622	2020-10-29T19:11:14:108
-0,472338	-2,985375	9,329246	2020-10-29T19:11:14:131
-0,472515	-2,983413	9,329864	2020-10-29T19:11:14:149
-0,470269	-2,982322	9,330326	2020-10-29T19:11:14:171
-0,470933	-2,990462	9,327687	2020-10-29T19:11:14:189
-0,471460	-2,994473	9,326373	2020-10-29T19:11:14:213
-0,470367	-2,996495	9,325779	2020-10-29T19:11:14:228
-0,470142	-2,996859	9,325673	2020-10-29T19:11:14:252
-0,470254	-2,999568	9,324797	2020-10-29T19:11:14:268
-0,471705	-2,997180	9,325492	2020-10-29T19:11:14:290
-0,472259	-2,996288	9,325750	2020-10-29T19:11:14:308
-0,472206	-2,993359	9,326694	2020-10-29T19:11:14:331
-0,473734	-2,994797	9,326155	2020-10-29T19:11:14:348
-0,475447	-2,993369	9,326526	2020-10-29T19:11:14:371
-0,473145	-2,996834	9,325530	2020-10-29T19:11:14:390
-0,476894	-2,996510	9,325443	2020-10-29T19:11:14:412
-0,479226	-2,989410	9,327601	2020-10-29T19:11:14:429
-0,481821	-2,982633	9,329638	2020-10-29T19:11:14:451
-0,480894	-2,982121	9,329848	2020-10-29T19:11:14:468
-0,481811	-2,980720	9,330249	2020-10-29T19:11:14:493
-0,484312	-2,976756	9,331386	2020-10-29T19:11:14:508
-0,484352	-2,979695	9,330445	2020-10-29T19:11:14:531
-0,484073	-2,979910	9,330391	2020-10-29T19:11:14:548
-0,482989	-2,981761	9,329856	2020-10-29T19:11:14:572
-0,482581	-2,977726	9,331165	2020-10-29T19:11:14:588
-0,483472	-2,978255	9,330951	2020-10-29T19:11:14:611
-0,483153	-2,978923	9,330753	2020-10-29T19:11:14:629
-0,485416	-2,976390	9,331445	2020-10-29T19:11:14:652
-0,484627	-2,978766	9,330728	2020-10-29T19:11:14:668
-0,484925	-2,980477	9,330166	2020-10-29T19:11:14:691
-0,488743	-2,980643	9,329913	2020-10-29T19:11:14:708
-0,490425	-2,978760	9,330426	2020-10-29T19:11:14:732
-0,492996	-2,978647	9,330327	2020-10-29T19:11:14:748
-0,495479	-2,981711	9,329217	2020-10-29T19:11:14:771
-0,494908	-2,980820	9,329532	2020-10-29T19:11:14:789
-0,498263	-2,980216	9,329546	2020-10-29T19:11:14:812
-0,497992	-2,984146	9,328304	2020-10-29T19:11:14:828
-0,500042	-2,980909	9,329229	2020-10-29T19:11:14:851
-0,499314	-2,978007	9,330195	2020-10-29T19:11:14:869
-0,500432	-2,975814	9,330835	2020-10-29T19:11:14:892
-0,501905	-2,976661	9,330486	2020-10-29T19:11:14:909
-0,500996	-2,973902	9,331414	2020-10-29T19:11:14:932
-0,501846	-2,969881	9,332649	2020-10-29T19:11:14:948
-0,502484	-2,971531	9,332089	2020-10-29T19:11:14:973
-0,500360	-2,974490	9,331262	2020-10-29T19:11:14:989
-0,501921	-2,974009	9,331330	2020-10-29T19:11:15:012
-0,504552	-2,974207	9,331125	2020-10-29T19:11:15:029
-0,508258	-2,975647	9,330465	2020-10-29T19:11:15:052
-0,507156	-2,973348	9,331258	2020-10-29T19:11:15:069
-0,507406	-2,970990	9,331996	2020-10-29T19:11:15:093
-0,506828	-2,968709	9,332753	2020-10-29T19:11:15:110
-0,510857	-2,971028	9,331795	2020-10-29T19:11:15:132
-0,510716	-2,974015	9,330852	2020-10-29T19:11:15:149
-0,511205	-2,973679	9,330932	2020-10-29T19:11:15:171
-0,512576	-2,976483	9,329963	2020-10-29T19:11:15:189
-0,512917	-2,971984	9,331378	2020-10-29T19:11:15:213
-0,519421	-2,964683	9,333341	2020-10-29T19:11:15:229
-0,520345	-2,966710	9,332644	2020-10-29T19:11:15:251
-0,518240	-2,975947	9,329821	2020-10-29T19:11:15:269
-0,519829	-2,988442	9,325737	2020-10-29T19:11:15:293
-0,516640	-3,015042	9,317348	2020-10-29T19:11:15:309
-0,520960	-3,004862	9,320396	2020-10-29T19:11:15:332
-0,519332	-2,996946	9,323035	2020-10-29T19:11:15:350
-0,517955	-2,993231	9,324306	2020-10-29T19:11:15:372
-0,516303	-2,986047	9,326700	2020-10-29T19:11:15:389
-0,515810	-2,990624	9,325261	2020-10-29T19:11:15:412
-0,517774	-2,988733	9,325759	2020-10-29T19:11:15:429
-0,518284	-2,992119	9,324644	2020-10-29T19:11:15:453
-0,518700	-2,990156	9,325251	2020-10-29T19:11:15:469
-0,515942	-2,989042	9,325761	2020-10-29T19:11:15:492
-0,514676	-2,989838	9,325576	2020-10-29T19:11:15:510
-0,516680	-2,987696	9,326152	2020-10-29T19:11:15:533
-0,516483	-2,982275	9,327897	2020-10-29T19:11:15:549
-0,516413	-2,982344	9,327879	2020-10-29T19:11:15:572
-0,515108	-2,982795	9,327806	2020-10-29T19:11:15:591
-0,517228	-2,985084	9,326958	2020-10-29T19:11:15:613
-0,514815	-2,979741	9,328799	2020-10-29T19:11:15:629
-0,514126	-2,976341	9,329923	2020-10-29T19:11:15:652
-0,514965	-2,976198	9,329922	2020-10-29T19:11:15:669
-0,516939	-2,975566	9,330014	2020-10-29T19:11:15:694
-0,517206	-2,967824	9,332465	2020-10-29T19:11:15:709
-0,519875	-2,962480	9,334015	2020-10-29T19:11:15:732
-0,519686	-2,960897	9,334527	2020-10-29T19:11:15:749
-0,519391	-2,964241	9,333483	2020-10-29T19:11:15:774
-0,522449	-2,964729	9,333157	2020-10-29T19:11:15:789
-0,524559	-2,961305	9,334126	2020-10-29T19:11:15:812
-0,525213	-2,959797	9,334567	2020-10-29T19:11:15:831
-0,525273	-2,956923	9,335474	2020-10-29T19:11:15:853
-0,524977	-2,953613	9,336538	2020-10-29T19:11:15:869
-0,525517	-2,952504	9,336859	2020-10-29T19:11:15:892
-0,528028	-2,949107	9,337790	2020-10-29T19:11:15:910
-0,527238	-2,946441	9,338677	2020-10-29T19:11:15:933
-0,528363	-2,947546	9,338264	2020-10-29T19:11:15:950
-0,528700	-2,947780	9,338172	2020-10-29T19:11:15:972
-0,530987	-2,947575	9,338107	2020-10-29T19:11:15:990
-0,531863	-2,944772	9,338942	2020-10-29T19:11:16:013
-0,529640	-2,945629	9,338798	2020-10-29T19:11:16:030
-0,532130	-2,935906	9,341717	2020-10-29T19:11:16:052
-0,533506	-2,933896	9,342270	2020-10-29T19:11:16:071
-0,534449	-2,930239	9,343364	2020-10-29T19:11:16:093
-0,534099	-2,931711	9,342922	2020-10-29T19:11:16:110
-0,537344	-2,933068	9,342310	2020-10-29T19:11:16:132
-0,538408	-2,933701	9,342050	2020-10-29T19:11:16:150
-0,538223	-2,927848	9,343897	2020-10-29T19:11:16:174
-0,538393	-2,926302	9,344372	2020-10-29T19:11:16:190
-0,538259	-2,925804	9,344535	2020-10-29T19:11:16:212
-0,536714	-2,924890	9,344910	2020-10-29T19:11:16:230
-0,537642	-2,925204	9,344758	2020-10-29T19:11:16:254
-0,539219	-2,925754	9,344495	2020-10-29T19:11:16:269
-0,539513	-2,925374	9,344597	2020-10-29T19:11:16:293
-0,535711	-2,927151	9,344259	2020-10-29T19:11:16:311
-0,533294	-2,926759	9,344521	2020-10-29T19:11:16:333
-0,532622	-2,929020	9,343850	2020-10-29T19:11:16:350
-0,531530	-2,924282	9,345396	2020-10-29T19:11:16:373
-0,530853	-2,921889	9,346184	2020-10-29T19:11:16:390
-0,531794	-2,923081	9,345757	2020-10-29T19:11:16:415
-0,534556	-2,920062	9,346543	2020-10-29T19:11:16:430
-0,537401	-2,918159	9,346974	2020-10-29T19:11:16:452
-0,537087	-2,920260	9,346336	2020-10-29T19:11:16:470
-0,537381	-2,920013	9,346396	2020-10-29T19:11:16:494
-0,536099	-2,919333	9,346683	2020-10-29T19:11:16:510
-0,535926	-2,912633	9,348783	2020-10-29T19:11:16:533
-0,536921	-2,907344	9,350371	2020-10-29T19:11:16:551
-0,539972	-2,905694	9,350709	2020-10-29T19:11:16:573
-0,541789	-2,911594	9,348768	2020-10-29T19:11:16:591
-0,541068	-2,911188	9,348937	2020-10-29T19:11:16:613
-0,540921	-2,907232	9,350176	2020-10-29T19:11:16:630
-0,541480	-2,907390	9,350095	2020-10-29T19:11:16:654
-0,541193	-2,907431	9,350099	2020-10-29T19:11:16:670
-0,545244	-2,905704	9,350400	2020-10-29T19:11:16:693
-0,544998	-2,901712	9,351654	2020-10-29T19:11:16:712
-0,547060	-2,900962	9,351766	2020-10-29T19:11:16:735
-0,548572	-2,898026	9,352588	2020-10-29T19:11:16:751
-0,550234	-2,902592	9,351074	2020-10-29T19:11:16:773
-0,549768	-2,903831	9,350717	2020-10-29T19:11:16:794
-0,546793	-2,894674	9,353730	2020-10-29T19:11:16:814
-0,550519	-2,888601	9,355389	2020-10-29T19:11:16:831
-0,550582	-2,890399	9,354830	2020-10-29T19:11:16:855
-0,552940	-2,895773	9,353028	2020-10-29T19:11:16:871
-0,552217	-2,897748	9,352459	2020-10-29T19:11:16:895
-0,548599	-2,894110	9,353799	2020-10-29T19:11:16:911
-0,547722	-2,889515	9,355270	2020-10-29T19:11:16:933
-0,548602	-2,888876	9,355416	2020-10-29T19:11:16:951
-0,552347	-2,888269	9,355383	2020-10-29T19:11:16:974
-0,552793	-2,887989	9,355444	2020-10-29T19:11:16:991
-0,552123	-2,887177	9,355734	2020-10-29T19:11:17:014
-0,548543	-2,883775	9,356994	2020-10-29T19:11:17:031
-0,547821	-2,883280	9,357188	2020-10-29T19:11:17:054
-0,550424	-2,881471	9,357593	2020-10-29T19:11:17:072
-0,551270	-2,880937	9,357707	2020-10-29T19:11:17:094
-0,550199	-2,879119	9,358330	2020-10-29T19:11:17:111
-0,549131	-2,877222	9,358976	2020-10-29T19:11:17:135
-0,548616	-2,875341	9,359584	2020-10-29T19:11:17:151
-0,550142	-2,875985	9,359297	2020-10-29T19:11:17:173
-0,550993	-2,878605	9,358441	2020-10-29T19:11:17:191
-0,551675	-2,878498	9,358434	2020-10-29T19:11:17:216
-0,553260	-2,878953	9,358200	2020-10-29T19:11:17:231
-0,553402	-2,872585	9,360148	2020-10-29T19:11:17:254
-0,555282	-2,868681	9,361235	2020-10-29T19:11:17:273
-0,556006	-2,866604	9,361828	2020-10-29T19:11:17:295
-0,557406	-2,868422	9,361188	2020-10-29T19:11:17:312
-0,556491	-2,868532	9,361209	2020-10-29T19:11:17:334
-0,555058	-2,872669	9,360024	2020-10-29T19:11:17:351
-0,553950	-2,872783	9,360056	2020-10-29T19:11:17:375
-0,548085	-2,872038	9,360629	2020-10-29T19:11:17:392
-0,547807	-2,868957	9,361590	2020-10-29T19:11:17:414
-0,549585	-2,869398	9,361351	2020-10-29T19:11:17:431
-0,552069	-2,866979	9,361946	2020-10-29T19:11:17:455
-0,551741	-2,866231	9,362194	2020-10-29T19:11:17:471
-0,550130	-2,869130	9,361402	2020-10-29T19:11:17:494
-0,553755	-2,870528	9,360759	2020-10-29T19:11:17:512
-0,555554	-2,872690	9,359989	2020-10-29T19:11:17:535
-0,557517	-2,871791	9,360148	2020-10-29T19:11:17:551
-0,559580	-2,872024	9,359954	2020-10-29T19:11:17:574
-0,559342	-2,871917	9,360001	2020-10-29T19:11:17:591
-0,557991	-2,869229	9,360906	2020-10-29T19:11:17:615
-0,560662	-2,867526	9,361268	2020-10-29T19:11:17:631
-0,560253	-2,870348	9,360428	2020-10-29T19:11:17:653
-0,560068	-2,874601	9,359134	2020-10-29T19:11:17:672
-0,559253	-2,875338	9,358955	2020-10-29T19:11:17:695
-0,560397	-2,876553	9,358514	2020-10-29T19:11:17:711
-0,561832	-2,876726	9,358375	2020-10-29T19:11:17:734
-0,561339	-2,875105	9,358902	2020-10-29T19:11:17:753
-0,561127	-2,876657	9,358438	2020-10-29T19:11:17:775
-0,559919	-2,879400	9,357667	2020-10-29T19:11:17:793
-0,558215	-2,878170	9,358147	2020-10-29T19:11:17:814
-0,559329	-2,875031	9,359045	2020-10-29T19:11:17:832
-0,559711	-2,873254	9,359569	2020-10-29T19:11:17:856
-0,559901	-2,873279	9,359550	2020-10-29T19:11:17:871
-0,561031	-2,872788	9,359632	2020-10-29T19:11:17:894
-0,559314	-2,868413	9,361076	2020-10-29T19:11:17:912
-0,557820	-2,862019	9,363123	2020-10-29T19:11:17:935
-0,558834	-2,856617	9,364712	2020-10-29T19:11:17:951
-0,560203	-2,857554	9,364345	2020-10-29T19:11:17:974
-0,557298	-2,862255	9,363082	2020-10-29T19:11:17:993
-0,557977	-2,860920	9,363449	2020-10-29T19:11:18:015
-0,555754	-2,862217	9,363185	2020-10-29T19:11:18:032
-0,556222	-2,864263	9,362532	2020-10-29T19:11:18:055
-0,556141	-2,869286	9,360998	2020-10-29T19:11:18:072
-0,555959	-2,868183	9,361347	2020-10-29T19:11:18:096
-0,557709	-2,865120	9,362181	2020-10-29T19:11:18:112
-0,559233	-2,860144	9,363611	2020-10-29T19:11:18:134
-0,560015	-2,859892	9,363642	2020-10-29T19:11:18:152
-0,561280	-2,858481	9,363997	2020-10-29T19:11:18:179
-0,560012	-2,860859	9,363346	2020-10-29T19:11:18:192
-0,561298	-2,861531	9,363064	2020-10-29T19:11:18:214
-0,563207	-2,861588	9,362932	2020-10-29T19:11:18:233
-0,563738	-2,857876	9,364034	2020-10-29T19:11:18:256
-0,562690	-2,858420	9,363931	2020-10-29T19:11:18:272
-0,560969	-2,863867	9,362370	2020-10-29T19:11:18:295
-0,561170	-2,863492	9,362473	2020-10-29T19:11:18:312
-0,563470	-2,861987	9,362794	2020-10-29T19:11:18:336
-0,560498	-2,862081	9,362944	2020-10-29T19:11:18:352
-0,561785	-2,861562	9,363026	2020-10-29T19:11:18:374
-0,564329	-2,859530	9,363493	2020-10-29T19:11:18:392
-0,562214	-2,858877	9,363820	2020-10-29T19:11:18:416
-0,560558	-2,855490	9,364952	2020-10-29T19:11:18:432
-0,560206	-2,854737	9,365203	2020-10-29T19:11:18:455
-0,564446	-2,854575	9,364998	2020-10-29T19:11:18:473
-0,562110	-2,851782	9,365990	2020-10-29T19:11:18:496
-0,561649	-2,851349	9,366149	2020-10-29T19:11:18:513
-0,559968	-2,848149	9,367223	2020-10-29T19:11:18:535
-0,561010	-2,839063	9,369919	2020-10-29T19:11:18:552
-0,560409	-2,834783	9,371250	2020-10-29T19:11:18:576
-0,560174	-2,830238	9,372638	2020-10-29T19:11:18:593
-0,557557	-2,832472	9,372119	2020-10-29T19:11:18:615
-0,560913	-2,829471	9,372826	2020-10-29T19:11:18:632
-0,558697	-2,830836	9,372545	2020-10-29T19:11:18:656
-0,558858	-2,827123	9,373656	2020-10-29T19:11:18:672
-0,557994	-2,830126	9,372802	2020-10-29T19:11:18:695
-0,557577	-2,832406	9,372138	2020-10-29T19:11:18:715
-0,558606	-2,827609	9,373525	2020-10-29T19:11:18:737
-0,557110	-2,830259	9,372814	2020-10-29T19:11:18:753
-0,558142	-2,831441	9,372396	2020-10-29T19:11:18:776
-0,561312	-2,830255	9,372565	2020-10-29T19:11:18:793
-0,561060	-2,826834	9,373612	2020-10-29T19:11:18:816
-0,562477	-2,826298	9,373689	2020-10-29T19:11:18:833
-0,561790	-2,826412	9,373695	2020-10-29T19:11:18:856
-0,564387	-2,831851	9,371898	2020-10-29T19:11:18:873
-0,564634	-2,833711	9,371321	2020-10-29T19:11:18:897
-0,562871	-2,832713	9,371729	2020-10-29T19:11:18:913
-0,562971	-2,834281	9,371248	2020-10-29T19:11:18:936
-0,559201	-2,838403	9,370227	2020-10-29T19:11:18:953
-0,560755	-2,834234	9,371395	2020-10-29T19:11:18:976
-0,560669	-2,832484	9,371930	2020-10-29T19:11:18:993
-0,559250	-2,835417	9,371128	2020-10-29T19:11:19:015
-0,561220	-2,837668	9,370328	2020-10-29T19:11:19:033
-0,561345	-2,837145	9,370480	2020-10-29T19:11:19:057
-0,558347	-2,837863	9,370441	2020-10-29T19:11:19:073
-0,557841	-2,834368	9,371529	2020-10-29T19:11:19:097
-0,557669	-2,828994	9,373163	2020-10-29T19:11:19:113
-0,558784	-2,829200	9,373034	2020-10-29T19:11:19:139
-0,559429	-2,832299	9,372060	2020-10-29T19:11:19:153
-0,558844	-2,832849	9,371928	2020-10-29T19:11:19:178
-0,557976	-2,834155	9,371585	2020-10-29T19:11:19:194
-0,553905	-2,835612	9,371387	2020-10-29T19:11:19:218
-0,552209	-2,837954	9,370777	2020-10-29T19:11:19:233
-0,550529	-2,838636	9,370669	2020-10-29T19:11:19:257
-0,552439	-2,841585	9,369663	2020-10-29T19:11:19:273
-0,552350	-2,845047	9,368618	2020-10-29T19:11:19:298
-0,553295	-2,841573	9,369617	2020-10-29T19:11:19:313
-0,552126	-2,838755	9,370540	2020-10-29T19:11:19:336
-0,548469	-2,843163	9,369418	2020-10-29T19:11:19:353
-0,551617	-2,848143	9,367721	2020-10-29T19:11:19:377
-0,554549	-2,849322	9,367188	2020-10-29T19:11:19:393
-0,552025	-2,847095	9,368015	2020-10-29T19:11:19:417
-0,550260	-2,847287	9,368060	2020-10-29T19:11:19:434
-0,546309	-2,851483	9,367015	2020-10-29T19:11:19:457
-0,546547	-2,857638	9,365126	2020-10-29T19:11:19:473
-0,547015	-2,858092	9,364960	2020-10-29T19:11:19:496
-0,547856	-2,857647	9,365047	2020-10-29T19:11:19:513
-0,543261	-2,857101	9,365480	2020-10-29T19:11:19:537
-0,544137	-2,860897	9,364271	2020-10-29T19:11:19:553
-0,545200	-2,863101	9,363535	2020-10-29T19:11:19:576
-0,543977	-2,869105	9,361769	2020-10-29T19:11:19:593
-0,546654	-2,864423	9,363047	2020-10-29T19:11:19:617
-0,549669	-2,860732	9,363998	2020-10-29T19:11:19:633
-0,547911	-2,862217	9,363647	2020-10-29T19:11:19:657
-0,550819	-2,866896	9,362045	2020-10-29T19:11:19:674
-0,549189	-2,871633	9,360689	2020-10-29T19:11:19:697
-0,549272	-2,869117	9,361456	2020-10-29T19:11:19:714
-0,548475	-2,869779	9,361300	2020-10-29T19:11:19:736
-0,545614	-2,874060	9,360153	2020-10-29T19:11:19:753
-0,544896	-2,869917	9,361466	2020-10-29T19:11:19:777
-0,543596	-2,870418	9,361388	2020-10-29T19:11:19:794
-0,542457	-2,874852	9,360093	2020-10-29T19:11:19:816
-0,542089	-2,872595	9,360807	2020-10-29T19:11:19:834
-0,543209	-2,873016	9,360614	2020-10-29T19:11:19:857
-0,542509	-2,874247	9,360276	2020-10-29T19:11:19:873
-0,542450	-2,877218	9,359367	2020-10-29T19:11:19:896
-0,539861	-2,875624	9,360006	2020-10-29T19:11:19:914
-0,538709	-2,873601	9,360694	2020-10-29T19:11:19:937
-0,536587	-2,876553	9,359909	2020-10-29T19:11:19:953
-0,536997	-2,877875	9,359479	2020-10-29T19:11:19:976
-0,537898	-2,882491	9,358007	2020-10-29T19:11:19:994
-0,536987	-2,884090	9,357567	2020-10-29T19:11:20:019
-0,536571	-2,887294	9,356603	2020-10-29T19:11:20:033
-0,535269	-2,887655	9,356565	2020-10-29T19:11:20:057
-0,533674	-2,887252	9,356781	2020-10-29T19:11:20:074
-0,532202	-2,892536	9,355233	2020-10-29T19:11:20:098
-0,531109	-2,896774	9,353984	2020-10-29T19:11:20:114
-0,530376	-2,900242	9,352950	2020-10-29T19:11:20:137
-0,530011	-2,902788	9,352181	2020-10-29T19:11:20:154
-0,529029	-2,905966	9,351250	2020-10-29T19:11:20:177
-0,528478	-2,908160	9,350599	2020-10-29T19:11:20:194
-0,529735	-2,911392	9,349522	2020-10-29T19:11:20:217
-0,527564	-2,914027	9,348824	2020-10-29T19:11:20:233
-0,528999	-2,915637	9,348241	2020-10-29T19:11:20:258
-0,530391	-2,916987	9,347741	2020-10-29T19:11:20:274
-0,525490	-2,922075	9,346429	2020-10-29T19:11:20:297
-0,525424	-2,925292	9,345426	2020-10-29T19:11:20:314
-0,529526	-2,922019	9,346218	2020-10-29T19:11:20:337
-0,530912	-2,917870	9,347436	2020-10-29T19:11:20:354
-0,532621	-2,915802	9,347983	2020-10-29T19:11:20:377
-0,532140	-2,917528	9,347472	2020-10-29T19:11:20:395
-0,530544	-2,920281	9,346704	2020-10-29T19:11:20:418
-0,528721	-2,926271	9,344934	2020-10-29T19:11:20:434
-0,529590	-2,926624	9,344773	2020-10-29T19:11:20:457
-0,531259	-2,922692	9,345909	2020-10-29T19:11:20:473
-0,533041	-2,922665	9,345817	2020-10-29T19:11:20:498
-0,530135	-2,929167	9,343946	2020-10-29T19:11:20:514
-0,529683	-2,929315	9,343925	2020-10-29T19:11:20:537
-0,528992	-2,930794	9,343500	2020-10-29T19:11:20:554
-0,524939	-2,930735	9,343747	2020-10-29T19:11:20:578
-0,524593	-2,932893	9,343090	2020-10-29T19:11:20:594
-0,524322	-2,933055	9,343054	2020-10-29T19:11:20:618
-0,523726	-2,932545	9,343247	2020-10-29T19:11:20:635
-0,525117	-2,934692	9,342495	2020-10-29T19:11:20:658
-0,527031	-2,940577	9,340537	2020-10-29T19:11:20:674
-0,529098	-2,945549	9,338853	2020-10-29T19:11:20:697
-0,526485	-2,947120	9,338506	2020-10-29T19:11:20:714
-0,525733	-2,940900	9,340508	2020-10-29T19:11:20:738
-0,524312	-2,937508	9,341656	2020-10-29T19:11:20:755
-0,526133	-2,921205	9,346664	2020-10-29T19:11:20:777
-0,522372	-2,903106	9,352512	2020-10-29T19:11:20:795
-0,517366	-2,897096	9,354654	2020-10-29T19:11:20:818
-0,515258	-2,899984	9,353875	2020-10-29T19:11:20:834
-0,515629	-2,910579	9,350564	2020-10-29T19:11:20:857
-0,516557	-2,912898	9,349791	2020-10-29T19:11:20:875
-0,517489	-2,916915	9,348486	2020-10-29T19:11:20:898
-0,520621	-2,926584	9,345290	2020-10-29T19:11:20:915
-0,521306	-2,941374	9,340608	2020-10-29T19:11:20:937
-0,519670	-2,949753	9,338056	2020-10-29T19:11:20:954
