x	y	z	ts
0,433101	0,057428	9,657433	2020-10-29T19:09:01:210
-0,330210	-0,964308	9,722038	2020-10-29T19:09:01:212
-0,378066	-0,411566	9,590433	2020-10-29T19:09:01:212
0,179462	-0,533599	9,609575	2020-10-29T19:09:01:212
0,258425	-1,351945	9,805787	2020-10-29T19:09:01:229
0,016750	-0,899701	9,702895	2020-10-29T19:09:01:269
-0,129212	-1,038485	9,750752	2020-10-29T19:09:01:273
0,117248	-1,083949	9,815358	2020-10-29T19:09:01:288
-0,217747	-1,607977	9,669396	2020-10-29T19:09:01:308
-0,098106	-1,763510	9,621540	2020-10-29T19:09:01:328
0,090927	-1,299303	9,568897	2020-10-29T19:09:01:349
-0,100499	-1,009771	9,635897	2020-10-29T19:09:01:368
-0,004786	-0,961915	9,530612	2020-10-29T19:09:01:388
-0,028714	-1,155733	9,600004	2020-10-29T19:09:01:408
-0,069392	-1,414158	9,750752	2020-10-29T19:09:01:428
-0,021535	-1,366302	9,547362	2020-10-29T19:09:01:448
-0,023928	-1,392623	9,619147	2020-10-29T19:09:01:469
0,007178	-1,225125	9,616754	2020-10-29T19:09:01:488
0,040678	-1,186840	9,597611	2020-10-29T19:09:01:509
0,028714	-1,239482	9,631111	2020-10-29T19:09:01:528
-0,055035	-1,339981	9,609575	2020-10-29T19:09:01:549
-0,059821	-1,380659	9,690931	2020-10-29T19:09:01:568
0,071785	-1,330409	9,602397	2020-10-29T19:09:01:589
-0,007178	-1,158126	9,542577	2020-10-29T19:09:01:608
-0,011964	-1,069592	9,578469	2020-10-29T19:09:01:632
0,014357	-1,342373	9,571291	2020-10-29T19:09:01:649
0,007178	-1,464408	9,566505	2020-10-29T19:09:01:669
0,011964	-1,371087	9,643075	2020-10-29T19:09:01:689
0,047856	-1,292124	9,559326	2020-10-29T19:09:01:709
0,016750	-1,304088	9,590433	2020-10-29T19:09:01:728
-0,009571	-1,375873	9,604790	2020-10-29T19:09:01:749
0,028714	-1,406980	9,667004	2020-10-29T19:09:01:769
0,004786	-1,284946	9,559326	2020-10-29T19:09:01:789
0,055035	-1,373480	9,580862	2020-10-29T19:09:01:808
-0,023928	-1,366302	9,626326	2020-10-29T19:09:01:830
-0,033500	-1,502693	9,609575	2020-10-29T19:09:01:848
-0,004786	-1,308874	9,509077	2020-10-29T19:09:01:869
0,007178	-1,232304	9,578469	2020-10-29T19:09:01:889
-0,007178	-1,409373	9,652647	2020-10-29T19:09:01:909
-0,069392	-1,241875	9,571291	2020-10-29T19:09:01:928
-0,071785	-1,272982	9,681360	2020-10-29T19:09:01:949
0,011964	-1,325624	9,669396	2020-10-29T19:09:01:968
-0,021535	-1,406980	9,566505	2020-10-29T19:09:01:990
-0,038285	-1,289732	9,540184	2020-10-29T19:09:02:009
-0,069392	-1,380659	9,583255	2020-10-29T19:09:02:029
0,074178	-1,356731	9,559326	2020-10-29T19:09:02:049
-0,007178	-1,476372	9,590433	2020-10-29T19:09:02:069
-0,004786	-1,430908	9,645468	2020-10-29T19:09:02:088
-0,026321	-1,459622	9,592826	2020-10-29T19:09:02:109
0,011964	-1,466800	9,628718	2020-10-29T19:09:02:129
-0,007178	-1,466800	9,590433	2020-10-29T19:09:02:149
0,007178	-1,529014	9,616754	2020-10-29T19:09:02:169
0,021535	-1,440479	9,537791	2020-10-29T19:09:02:189
0,028714	-1,306481	9,633504	2020-10-29T19:09:02:208
-0,086142	-1,304088	9,671788	2020-10-29T19:09:02:230
-0,033500	-1,430908	9,647861	2020-10-29T19:09:02:249
-0,004786	-1,301696	9,578469	2020-10-29T19:09:02:271
-0,014357	-1,292124	9,616754	2020-10-29T19:09:02:289
0,047856	-1,361516	9,564112	2020-10-29T19:09:02:311
0,014357	-1,438086	9,552148	2020-10-29T19:09:02:329
-0,007178	-1,253839	9,413363	2020-10-29T19:09:02:351
-0,023928	-1,428515	9,829715	2020-10-29T19:09:02:370
-0,011964	-1,500300	9,698111	2020-10-29T19:09:02:391
-0,124427	-1,540978	9,556933	2020-10-29T19:09:02:409
-0,133998	-1,387837	9,595219	2020-10-29T19:09:02:431
-0,122034	-1,107877	9,578469	2020-10-29T19:09:02:449
-0,114855	-1,256232	9,635897	2020-10-29T19:09:02:472
-0,100499	-1,304088	9,621540	2020-10-29T19:09:02:492
-0,078963	-1,397408	9,614362	2020-10-29T19:09:02:514
-0,105284	-1,433301	9,623933	2020-10-29T19:09:02:530
0,009571	-1,349552	9,609575	2020-10-29T19:09:02:554
-0,062213	-1,332802	9,556933	2020-10-29T19:09:02:570
-0,007178	-1,385444	9,564112	2020-10-29T19:09:02:593
-0,090927	-1,473979	9,695717	2020-10-29T19:09:02:613
-0,050249	-1,531406	9,616754	2020-10-29T19:09:02:632
-0,081356	-1,392623	9,595219	2020-10-29T19:09:02:651
-0,095713	-1,359123	9,564112	2020-10-29T19:09:02:674
-0,066999	-1,344766	9,597611	2020-10-29T19:09:02:691
-0,023928	-1,380659	9,535398	2020-10-29T19:09:02:713
-0,031107	-1,507478	9,631111	2020-10-29T19:09:02:731
-0,093320	-1,481157	9,600004	2020-10-29T19:09:02:753
-0,076570	-1,375873	9,600004	2020-10-29T19:09:02:771
-0,102891	-1,404587	9,635897	2020-10-29T19:09:02:793
-0,028714	-1,356731	9,564112	2020-10-29T19:09:02:810
-0,019143	-1,426122	9,602397	2020-10-29T19:09:02:833
-0,052642	-1,378266	9,549755	2020-10-29T19:09:02:852
-0,126820	-1,349552	9,566505	2020-10-29T19:09:02:873
-0,105284	-1,308874	9,638289	2020-10-29T19:09:02:891
-0,105284	-1,481157	9,583255	2020-10-29T19:09:02:913
-0,143569	-1,387837	9,647861	2020-10-29T19:09:02:931
-0,093320	-1,337588	9,609575	2020-10-29T19:09:02:953
-0,040678	-1,270589	9,566505	2020-10-29T19:09:02:971
-0,098106	-1,402194	9,588040	2020-10-29T19:09:02:993
-0,062213	-1,442872	9,657433	2020-10-29T19:09:03:011
-0,081356	-1,325624	9,631111	2020-10-29T19:09:03:033
-0,050249	-1,325624	9,585647	2020-10-29T19:09:03:051
-0,138784	-1,330409	9,614362	2020-10-29T19:09:03:074
-0,138784	-1,383051	9,657433	2020-10-29T19:09:03:092
-0,055035	-1,433301	9,609575	2020-10-29T19:09:03:113
-0,074178	-1,490728	9,583255	2020-10-29T19:09:03:131
-0,117248	-1,430908	9,585647	2020-10-29T19:09:03:153
-0,083749	-1,296910	9,578469	2020-10-29T19:09:03:171
-0,136391	-1,253839	9,614362	2020-10-29T19:09:03:193
-0,019143	-1,344766	9,602397	2020-10-29T19:09:03:211
-0,055035	-1,411765	9,573684	2020-10-29T19:09:03:233
-0,088534	-1,328017	9,609575	2020-10-29T19:09:03:251
-0,090927	-1,452443	9,611969	2020-10-29T19:09:03:273
-0,038285	-1,423729	9,554541	2020-10-29T19:09:03:291
-0,057428	-1,311267	9,564112	2020-10-29T19:09:03:314
-0,033500	-1,466800	9,559326	2020-10-29T19:09:03:333
-0,078963	-1,380659	9,607183	2020-10-29T19:09:03:353
-0,057428	-1,399801	9,585647	2020-10-29T19:09:03:371
-0,035892	-1,361516	9,580862	2020-10-29T19:09:03:394
-0,122034	-1,380659	9,623933	2020-10-29T19:09:03:411
-0,062213	-1,433301	9,609575	2020-10-29T19:09:03:433
-0,090927	-1,351945	9,561719	2020-10-29T19:09:03:452
-0,057428	-1,414158	9,580862	2020-10-29T19:09:03:474
0,038285	-1,387837	9,571291	2020-10-29T19:09:03:492
-0,062213	-1,426122	9,604790	2020-10-29T19:09:03:514
-0,114855	-1,332802	9,533006	2020-10-29T19:09:03:532
-0,100499	-1,361516	9,597611	2020-10-29T19:09:03:554
-0,093320	-1,397408	9,580862	2020-10-29T19:09:03:572
-0,011964	-1,380659	9,578469	2020-10-29T19:09:03:594
-0,021535	-1,313660	9,626326	2020-10-29T19:09:03:613
-0,062213	-1,406980	9,602397	2020-10-29T19:09:03:646
-0,122034	-1,359123	9,568897	2020-10-29T19:09:03:660
-0,069392	-1,387837	9,645468	2020-10-29T19:09:03:718
-0,105284	-1,414158	9,571291	2020-10-29T19:09:03:720
-0,076570	-1,411765	9,571291	2020-10-29T19:09:03:722
0,002393	-1,383051	9,638289	2020-10-29T19:09:03:732
-0,138784	-1,416551	9,619147	2020-10-29T19:09:03:754
-0,076570	-1,421337	9,611969	2020-10-29T19:09:03:772
-0,157926	-1,301696	9,604790	2020-10-29T19:09:03:794
-0,095713	-1,347159	9,597611	2020-10-29T19:09:03:814
-0,105284	-1,289732	9,619147	2020-10-29T19:09:03:834
-0,098106	-1,308874	9,683753	2020-10-29T19:09:03:852
-0,040678	-1,423729	9,597611	2020-10-29T19:09:03:874
-0,098106	-1,373480	9,554541	2020-10-29T19:09:03:892
-0,069392	-1,421337	9,619147	2020-10-29T19:09:03:914
-0,028714	-1,418944	9,623933	2020-10-29T19:09:03:932
-0,028714	-1,268196	9,638289	2020-10-29T19:09:03:954
-0,098106	-1,375873	9,592826	2020-10-29T19:09:03:972
-0,074178	-1,249053	9,590433	2020-10-29T19:09:03:995
-0,086142	-1,483550	9,652647	2020-10-29T19:09:04:012
-0,076570	-1,339981	9,576077	2020-10-29T19:09:04:034
-0,093320	-1,299303	9,552148	2020-10-29T19:09:04:053
-0,045464	-1,337588	9,621540	2020-10-29T19:09:04:074
-0,009571	-1,387837	9,578469	2020-10-29T19:09:04:093
-0,033500	-1,445265	9,621540	2020-10-29T19:09:04:115
-0,076570	-1,335195	9,554541	2020-10-29T19:09:04:132
-0,078963	-1,306481	9,602397	2020-10-29T19:09:04:155
-0,074178	-1,366302	9,607183	2020-10-29T19:09:04:172
-0,093320	-1,395016	9,566505	2020-10-29T19:09:04:194
-0,043071	-1,406980	9,631111	2020-10-29T19:09:04:213
-0,071785	-1,359123	9,597611	2020-10-29T19:09:04:235
-0,047856	-1,349552	9,628718	2020-10-29T19:09:04:252
-0,102891	-1,342373	9,614362	2020-10-29T19:09:04:275
-0,133998	-1,373480	9,578469	2020-10-29T19:09:04:293
-0,074178	-1,426122	9,533006	2020-10-29T19:09:04:315
-0,045464	-1,383051	9,643075	2020-10-29T19:09:04:332
-0,038285	-1,313660	9,592826	2020-10-29T19:09:04:355
-0,114855	-1,406980	9,573684	2020-10-29T19:09:04:372
-0,100499	-1,478764	9,600004	2020-10-29T19:09:04:395
-0,074178	-1,387837	9,607183	2020-10-29T19:09:04:413
-0,011964	-1,284946	9,552148	2020-10-29T19:09:04:435
-0,071785	-1,349552	9,635897	2020-10-29T19:09:04:453
-0,052642	-1,332802	9,554541	2020-10-29T19:09:04:475
-0,093320	-1,395016	9,592826	2020-10-29T19:09:04:492
-0,021535	-1,387837	9,635897	2020-10-29T19:09:04:515
-0,107677	-1,342373	9,595219	2020-10-29T19:09:04:533
-0,071785	-1,404587	9,638289	2020-10-29T19:09:04:555
-0,076570	-1,366302	9,638289	2020-10-29T19:09:04:573
-0,105284	-1,471586	9,597611	2020-10-29T19:09:04:595
-0,009571	-1,459622	9,592826	2020-10-29T19:09:04:613
-0,057428	-1,318445	9,602397	2020-10-29T19:09:04:635
-0,004786	-1,332802	9,614362	2020-10-29T19:09:04:653
-0,043071	-1,395016	9,643075	2020-10-29T19:09:04:675
-0,090927	-1,351945	9,597611	2020-10-29T19:09:04:693
-0,078963	-1,383051	9,611969	2020-10-29T19:09:04:715
-0,124427	-1,387837	9,652647	2020-10-29T19:09:04:733
-0,057428	-1,416551	9,614362	2020-10-29T19:09:04:756
-0,055035	-1,433301	9,573684	2020-10-29T19:09:04:774
-0,112463	-1,414158	9,597611	2020-10-29T19:09:04:795
-0,071785	-1,330409	9,623933	2020-10-29T19:09:04:813
-0,081356	-1,354338	9,564112	2020-10-29T19:09:04:835
-0,064606	-1,323231	9,556933	2020-10-29T19:09:04:853
-0,081356	-1,404587	9,580862	2020-10-29T19:09:04:877
-0,045464	-1,430908	9,607183	2020-10-29T19:09:04:893
-0,117248	-1,378266	9,607183	2020-10-29T19:09:04:916
-0,069392	-1,411765	9,647861	2020-10-29T19:09:04:933
-0,076570	-1,428515	9,583255	2020-10-29T19:09:04:957
-0,100499	-1,481157	9,568897	2020-10-29T19:09:04:973
-0,047856	-1,375873	9,623933	2020-10-29T19:09:04:997
-0,011964	-1,421337	9,590433	2020-10-29T19:09:05:015
0,009571	-1,328017	9,611969	2020-10-29T19:09:05:035
-0,090927	-1,435694	9,571291	2020-10-29T19:09:05:053
-0,071785	-1,414158	9,573684	2020-10-29T19:09:05:105
-0,117248	-1,440479	9,638289	2020-10-29T19:09:05:106
-0,007178	-1,445265	9,566505	2020-10-29T19:09:05:119
-0,086142	-1,411765	9,602397	2020-10-29T19:09:05:145
-0,093320	-1,457229	9,595219	2020-10-29T19:09:05:155
-0,069392	-1,435694	9,518648	2020-10-29T19:09:05:173
0,004786	-1,418944	9,643075	2020-10-29T19:09:05:196
-0,019143	-1,476372	9,542577	2020-10-29T19:09:05:212
-0,016750	-1,399801	9,614362	2020-10-29T19:09:05:236
-0,011964	-1,488336	9,595219	2020-10-29T19:09:05:255
-0,062213	-1,574477	9,604790	2020-10-29T19:09:05:276
-0,035892	-1,430908	9,544970	2020-10-29T19:09:05:294
-0,040678	-1,423729	9,583255	2020-10-29T19:09:05:316
-0,040678	-1,438086	9,549755	2020-10-29T19:09:05:333
-0,043071	-1,469193	9,578469	2020-10-29T19:09:05:357
-0,100499	-1,421337	9,645468	2020-10-29T19:09:05:373
-0,009571	-1,454836	9,633504	2020-10-29T19:09:05:398
0,009571	-1,452443	9,643075	2020-10-29T19:09:05:414
-0,050249	-1,445265	9,621540	2020-10-29T19:09:05:436
-0,062213	-1,406980	9,573684	2020-10-29T19:09:05:454
-0,002393	-1,507478	9,611969	2020-10-29T19:09:05:477
0,016750	-1,529014	9,614362	2020-10-29T19:09:05:494
-0,038285	-1,435694	9,544970	2020-10-29T19:09:05:516
-0,071785	-1,447658	9,609575	2020-10-29T19:09:05:533
-0,064606	-1,445265	9,623933	2020-10-29T19:09:05:557
-0,126820	-1,454836	9,628718	2020-10-29T19:09:05:574
-0,057428	-1,390230	9,607183	2020-10-29T19:09:05:597
0,004786	-1,445265	9,631111	2020-10-29T19:09:05:613
-0,009571	-1,464408	9,590433	2020-10-29T19:09:05:641
0,028714	-1,485943	9,678967	2020-10-29T19:09:05:653
-0,016750	-1,445265	9,542577	2020-10-29T19:09:05:676
-0,007178	-1,411765	9,564112	2020-10-29T19:09:05:694
-0,035892	-1,395016	9,556933	2020-10-29T19:09:05:716
-0,114855	-1,440479	9,580862	2020-10-29T19:09:05:735
-0,119641	-1,478764	9,590433	2020-10-29T19:09:05:757
-0,059821	-1,473979	9,561719	2020-10-29T19:09:05:773
-0,066999	-1,418944	9,638289	2020-10-29T19:09:05:797
-0,055035	-1,469193	9,595219	2020-10-29T19:09:05:813
-0,045464	-1,411765	9,607183	2020-10-29T19:09:05:837
-0,047856	-1,395016	9,590433	2020-10-29T19:09:05:854
-0,112463	-1,387837	9,552148	2020-10-29T19:09:05:877
-0,114855	-1,421337	9,607183	2020-10-29T19:09:05:895
-0,078963	-1,404587	9,588040	2020-10-29T19:09:05:916
-0,009571	-1,433301	9,602397	2020-10-29T19:09:05:933
-0,052642	-1,418944	9,595219	2020-10-29T19:09:05:957
-0,004786	-1,426122	9,580862	2020-10-29T19:09:05:976
-0,004786	-1,473979	9,604790	2020-10-29T19:09:05:997
-0,045464	-1,387837	9,597611	2020-10-29T19:09:06:015
-0,071785	-1,473979	9,566505	2020-10-29T19:09:06:038
-0,083749	-1,490728	9,623933	2020-10-29T19:09:06:055
-0,009571	-1,433301	9,530612	2020-10-29T19:09:06:077
0,011964	-1,361516	9,597611	2020-10-29T19:09:06:095
-0,066999	-1,430908	9,607183	2020-10-29T19:09:06:117
-0,057428	-1,548156	9,626326	2020-10-29T19:09:06:135
-0,098106	-1,459622	9,559326	2020-10-29T19:09:06:157
-0,052642	-1,462015	9,604790	2020-10-29T19:09:06:175
-0,050249	-1,435694	9,576077	2020-10-29T19:09:06:198
0,014357	-1,380659	9,595219	2020-10-29T19:09:06:217
-0,117248	-1,380659	9,549755	2020-10-29T19:09:06:237
-0,033500	-1,457229	9,564112	2020-10-29T19:09:06:255
-0,057428	-1,466800	9,611969	2020-10-29T19:09:06:277
-0,057428	-1,438086	9,595219	2020-10-29T19:09:06:294
-0,122034	-1,421337	9,647861	2020-10-29T19:09:06:317
-0,038285	-1,423729	9,695717	2020-10-29T19:09:06:335
-0,033500	-1,371087	9,597611	2020-10-29T19:09:06:357
-0,078963	-1,416551	9,564112	2020-10-29T19:09:06:374
-0,131605	-1,430908	9,578469	2020-10-29T19:09:06:397
-0,078963	-1,406980	9,597611	2020-10-29T19:09:06:414
-0,074178	-1,454836	9,623933	2020-10-29T19:09:06:437
-0,023928	-1,473979	9,597611	2020-10-29T19:09:06:456
-0,004786	-1,505085	9,600004	2020-10-29T19:09:06:477
-0,071785	-1,478764	9,607183	2020-10-29T19:09:06:495
-0,059821	-1,399801	9,542577	2020-10-29T19:09:06:517
-0,062213	-1,416551	9,583255	2020-10-29T19:09:06:534
-0,114855	-1,478764	9,631111	2020-10-29T19:09:06:557
-0,098106	-1,414158	9,559326	2020-10-29T19:09:06:575
-0,122034	-1,414158	9,614362	2020-10-29T19:09:06:598
-0,062213	-1,423729	9,645468	2020-10-29T19:09:06:615
-0,062213	-1,462015	9,580862	2020-10-29T19:09:06:637
-0,100499	-1,481157	9,626326	2020-10-29T19:09:06:655
-0,117248	-1,488336	9,611969	2020-10-29T19:09:06:678
-0,043071	-1,371087	9,559326	2020-10-29T19:09:06:696
-0,026321	-1,395016	9,600004	2020-10-29T19:09:06:717
-0,086142	-1,438086	9,585647	2020-10-29T19:09:06:736
-0,071785	-1,428515	9,544970	2020-10-29T19:09:06:758
-0,062213	-1,416551	9,576077	2020-10-29T19:09:06:775
-0,057428	-1,397408	9,611969	2020-10-29T19:09:06:798
-0,050249	-1,462015	9,580862	2020-10-29T19:09:06:814
-0,076570	-1,366302	9,583255	2020-10-29T19:09:06:838
-0,098106	-1,423729	9,571291	2020-10-29T19:09:06:855
-0,064606	-1,450050	9,619147	2020-10-29T19:09:06:878
-0,074178	-1,380659	9,580862	2020-10-29T19:09:06:895
-0,153141	-1,452443	9,568897	2020-10-29T19:09:06:918
-0,078963	-1,406980	9,607183	2020-10-29T19:09:06:936
-0,069392	-1,438086	9,609575	2020-10-29T19:09:06:958
-0,074178	-1,435694	9,583255	2020-10-29T19:09:06:975
-0,136391	-1,442872	9,638289	2020-10-29T19:09:06:998
-0,040678	-1,335195	9,547362	2020-10-29T19:09:07:015
-0,071785	-1,517050	9,597611	2020-10-29T19:09:07:038
-0,086142	-1,442872	9,547362	2020-10-29T19:09:07:056
-0,117248	-1,433301	9,592826	2020-10-29T19:09:07:078
-0,038285	-1,418944	9,623933	2020-10-29T19:09:07:096
-0,086142	-1,521835	9,602397	2020-10-29T19:09:07:118
-0,071785	-1,507478	9,597611	2020-10-29T19:09:07:135
-0,074178	-1,445265	9,549755	2020-10-29T19:09:07:159
-0,045464	-1,469193	9,580862	2020-10-29T19:09:07:177
-0,112463	-1,445265	9,611969	2020-10-29T19:09:07:199
-0,045464	-1,373480	9,635897	2020-10-29T19:09:07:214
-0,074178	-1,409373	9,583255	2020-10-29T19:09:07:238
-0,074178	-1,466800	9,643075	2020-10-29T19:09:07:255
-0,035892	-1,418944	9,604790	2020-10-29T19:09:07:278
-0,081356	-1,476372	9,609575	2020-10-29T19:09:07:295
-0,095713	-1,402194	9,504292	2020-10-29T19:09:07:317
-0,098106	-1,552942	9,573684	2020-10-29T19:09:07:334
-0,043071	-1,505085	9,604790	2020-10-29T19:09:07:358
-0,016750	-1,538585	9,597611	2020-10-29T19:09:07:374
-0,021535	-1,371087	9,576077	2020-10-29T19:09:07:399
-0,021535	-1,430908	9,556933	2020-10-29T19:09:07:415
-0,071785	-1,483550	9,590433	2020-10-29T19:09:07:439
-0,117248	-1,385444	9,580862	2020-10-29T19:09:07:455
-0,107677	-1,452443	9,655040	2020-10-29T19:09:07:477
0,007178	-1,540978	9,554541	2020-10-29T19:09:07:495
-0,011964	-1,505085	9,647861	2020-10-29T19:09:07:518
-0,143569	-1,509871	9,588040	2020-10-29T19:09:07:535
-0,138784	-1,521835	9,568897	2020-10-29T19:09:07:558
-0,117248	-1,514657	9,592826	2020-10-29T19:09:07:575
-0,014357	-1,428515	9,611969	2020-10-29T19:09:07:599
-0,078963	-1,512264	9,592826	2020-10-29T19:09:07:614
-0,110070	-1,478764	9,607183	2020-10-29T19:09:07:638
-0,047856	-1,481157	9,571291	2020-10-29T19:09:07:656
-0,057428	-1,459622	9,542577	2020-10-29T19:09:07:678
-0,095713	-1,464408	9,611969	2020-10-29T19:09:07:695
-0,090927	-1,454836	9,533006	2020-10-29T19:09:07:718
-0,076570	-1,426122	9,597611	2020-10-29T19:09:07:735
-0,066999	-1,505085	9,652647	2020-10-29T19:09:07:759
-0,086142	-1,526621	9,602397	2020-10-29T19:09:07:775
-0,052642	-1,457229	9,609575	2020-10-29T19:09:07:799
-0,102891	-1,555335	9,595219	2020-10-29T19:09:07:815
-0,021535	-1,521835	9,482756	2020-10-29T19:09:07:839
-0,112463	-1,466800	9,528220	2020-10-29T19:09:07:855
0,019143	-1,493121	9,609575	2020-10-29T19:09:07:878
-0,031107	-1,533799	9,657433	2020-10-29T19:09:07:896
-0,066999	-1,500300	9,628718	2020-10-29T19:09:07:918
-0,031107	-1,524228	9,619147	2020-10-29T19:09:07:935
0,031107	-1,540978	9,561719	2020-10-29T19:09:07:958
-0,114855	-1,430908	9,566505	2020-10-29T19:09:07:974
-0,078963	-1,552942	9,566505	2020-10-29T19:09:07:999
-0,055035	-1,442872	9,621540	2020-10-29T19:09:08:015
-0,090927	-1,529014	9,604790	2020-10-29T19:09:08:038
-0,028714	-1,543371	9,623933	2020-10-29T19:09:08:055
-0,090927	-1,447658	9,628718	2020-10-29T19:09:08:079
-0,021535	-1,509871	9,556933	2020-10-29T19:09:08:095
-0,117248	-1,512264	9,600004	2020-10-29T19:09:08:119
-0,124427	-1,521835	9,566505	2020-10-29T19:09:08:136
-0,050249	-1,466800	9,561719	2020-10-29T19:09:08:159
-0,052642	-1,540978	9,525827	2020-10-29T19:09:08:175
-0,100499	-1,519442	9,592826	2020-10-29T19:09:08:199
-0,016750	-1,540978	9,576077	2020-10-29T19:09:08:215
-0,021535	-1,517050	9,597611	2020-10-29T19:09:08:239
-0,088534	-1,548156	9,568897	2020-10-29T19:09:08:255
-0,083749	-1,545763	9,623933	2020-10-29T19:09:08:278
-0,035892	-1,629512	9,556933	2020-10-29T19:09:08:296
-0,026321	-1,596013	9,623933	2020-10-29T19:09:08:319
0,007178	-1,560120	9,600004	2020-10-29T19:09:08:335
-0,076570	-1,596013	9,542577	2020-10-29T19:09:08:360
-0,014357	-1,665405	9,600004	2020-10-29T19:09:08:376
-0,078963	-1,619941	9,578469	2020-10-29T19:09:08:400
-0,078963	-1,572084	9,561719	2020-10-29T19:09:08:416
-0,071785	-1,564906	9,614362	2020-10-29T19:09:08:438
-0,014357	-1,639083	9,631111	2020-10-29T19:09:08:455
-0,069392	-1,617548	9,619147	2020-10-29T19:09:08:479
-0,090927	-1,517050	9,623933	2020-10-29T19:09:08:496
-0,031107	-1,545763	9,547362	2020-10-29T19:09:08:518
-0,011964	-1,648655	9,576077	2020-10-29T19:09:08:536
-0,021535	-1,567299	9,580862	2020-10-29T19:09:08:559
-0,033500	-1,536192	9,552148	2020-10-29T19:09:08:576
-0,086142	-1,545763	9,611969	2020-10-29T19:09:08:599
-0,023928	-1,512264	9,516255	2020-10-29T19:09:08:616
-0,002393	-1,698904	9,499505	2020-10-29T19:09:08:639
-0,062213	-1,552942	9,513863	2020-10-29T19:09:08:656
-0,050249	-1,531406	9,600004	2020-10-29T19:09:08:680
-0,076570	-1,588834	9,583255	2020-10-29T19:09:08:696
-0,050249	-1,567299	9,554541	2020-10-29T19:09:08:719
-0,033500	-1,540978	9,552148	2020-10-29T19:09:08:736
-0,078963	-1,615155	9,621540	2020-10-29T19:09:08:759
-0,090927	-1,648655	9,525827	2020-10-29T19:09:08:776
-0,052642	-1,588834	9,590433	2020-10-29T19:09:08:800
0,004786	-1,579263	9,590433	2020-10-29T19:09:08:815
-0,038285	-1,581656	9,554541	2020-10-29T19:09:08:838
-0,078963	-1,564906	9,554541	2020-10-29T19:09:08:857
0,007178	-1,572084	9,609575	2020-10-29T19:09:08:879
-0,126820	-1,636691	9,604790	2020-10-29T19:09:08:896
-0,002393	-1,579263	9,578469	2020-10-29T19:09:08:919
-0,002393	-1,598405	9,621540	2020-10-29T19:09:08:936
-0,031107	-1,603191	9,533006	2020-10-29T19:09:08:960
-0,038285	-1,607977	9,535398	2020-10-29T19:09:08:976
-0,102891	-1,548156	9,556933	2020-10-29T19:09:08:999
0,002393	-1,507478	9,559326	2020-10-29T19:09:09:016
-0,086142	-1,576870	9,528220	2020-10-29T19:09:09:057
-0,047856	-1,457229	9,549755	2020-10-29T19:09:09:058
-0,028714	-1,562513	9,523434	2020-10-29T19:09:09:080
-0,141177	-1,586441	9,509077	2020-10-29T19:09:09:098
-0,114855	-1,627119	9,643075	2020-10-29T19:09:09:120
-0,035892	-1,617548	9,583255	2020-10-29T19:09:09:136
-0,066999	-1,598405	9,578469	2020-10-29T19:09:09:159
-0,040678	-1,619941	9,552148	2020-10-29T19:09:09:176
-0,055035	-1,567299	9,585647	2020-10-29T19:09:09:201
-0,035892	-1,483550	9,578469	2020-10-29T19:09:09:218
-0,040678	-1,552942	9,588040	2020-10-29T19:09:09:244
-0,043071	-1,517050	9,607183	2020-10-29T19:09:09:280
-0,023928	-1,531406	9,576077	2020-10-29T19:09:09:285
-0,129212	-1,555335	9,559326	2020-10-29T19:09:09:296
-0,105284	-1,636691	9,573684	2020-10-29T19:09:09:319
-0,028714	-1,524228	9,600004	2020-10-29T19:09:09:337
-0,095713	-1,514657	9,566505	2020-10-29T19:09:09:360
-0,102891	-1,531406	9,588040	2020-10-29T19:09:09:377
-0,102891	-1,495514	9,597611	2020-10-29T19:09:09:400
-0,040678	-1,536192	9,525827	2020-10-29T19:09:09:416
-0,021535	-1,591227	9,611969	2020-10-29T19:09:09:440
-0,021535	-1,555335	9,604790	2020-10-29T19:09:09:457
-0,119641	-1,612763	9,556933	2020-10-29T19:09:09:479
-0,055035	-1,615155	9,607183	2020-10-29T19:09:09:497
-0,071785	-1,521835	9,573684	2020-10-29T19:09:09:522
-0,021535	-1,536192	9,643075	2020-10-29T19:09:09:537
-0,112463	-1,567299	9,528220	2020-10-29T19:09:09:560
-0,083749	-1,612763	9,623933	2020-10-29T19:09:09:579
-0,062213	-1,598405	9,547362	2020-10-29T19:09:09:600
-0,055035	-1,514657	9,568897	2020-10-29T19:09:09:617
-0,110070	-1,481157	9,540184	2020-10-29T19:09:09:640
-0,031107	-1,574477	9,571291	2020-10-29T19:09:09:657
-0,043071	-1,593620	9,559326	2020-10-29T19:09:09:681
-0,122034	-1,574477	9,628718	2020-10-29T19:09:09:697
-0,095713	-1,581656	9,607183	2020-10-29T19:09:09:721
-0,122034	-1,605584	9,564112	2020-10-29T19:09:09:737
-0,078963	-1,643869	9,631111	2020-10-29T19:09:09:760
-0,095713	-1,531406	9,580862	2020-10-29T19:09:09:777
-0,157926	-1,607977	9,535398	2020-10-29T19:09:09:799
-0,112463	-1,615155	9,607183	2020-10-29T19:09:09:819
-0,019143	-1,605584	9,564112	2020-10-29T19:09:09:839
-0,114855	-1,579263	9,583255	2020-10-29T19:09:09:857
-0,057428	-1,538585	9,511470	2020-10-29T19:09:09:881
-0,064606	-1,540978	9,626326	2020-10-29T19:09:09:897
-0,043071	-1,531406	9,554541	2020-10-29T19:09:09:921
-0,057428	-1,552942	9,554541	2020-10-29T19:09:09:937
-0,122034	-1,529014	9,549755	2020-10-29T19:09:09:960
-0,059821	-1,560120	9,528220	2020-10-29T19:09:09:977
-0,055035	-1,603191	9,628718	2020-10-29T19:09:10:001
-0,059821	-1,619941	9,568897	2020-10-29T19:09:10:017
-0,062213	-1,605584	9,590433	2020-10-29T19:09:10:041
-0,021535	-1,639083	9,554541	2020-10-29T19:09:10:058
-0,090927	-1,569692	9,609575	2020-10-29T19:09:10:080
-0,078963	-1,548156	9,547362	2020-10-29T19:09:10:097
-0,031107	-1,521835	9,564112	2020-10-29T19:09:10:121
-0,081356	-1,677369	9,561719	2020-10-29T19:09:10:137
-0,043071	-1,581656	9,533006	2020-10-29T19:09:10:161
-0,114855	-1,581656	9,568897	2020-10-29T19:09:10:177
-0,043071	-1,679761	9,554541	2020-10-29T19:09:10:201
-0,074178	-1,715654	9,571291	2020-10-29T19:09:10:218
-0,011964	-1,629512	9,647861	2020-10-29T19:09:10:241
-0,023928	-1,540978	9,573684	2020-10-29T19:09:10:257
-0,074178	-1,557728	9,564112	2020-10-29T19:09:10:280
-0,081356	-1,548156	9,535398	2020-10-29T19:09:10:299
-0,081356	-1,562513	9,609575	2020-10-29T19:09:10:319
-0,076570	-1,529014	9,537791	2020-10-29T19:09:10:337
-0,117248	-1,653440	9,616754	2020-10-29T19:09:10:361
-0,078963	-1,612763	9,537791	2020-10-29T19:09:10:377
-0,086142	-1,576870	9,542577	2020-10-29T19:09:10:401
-0,050249	-1,514657	9,564112	2020-10-29T19:09:10:417
-0,117248	-1,569692	9,604790	2020-10-29T19:09:10:441
-0,062213	-1,569692	9,576077	2020-10-29T19:09:10:458
-0,069392	-1,564906	9,588040	2020-10-29T19:09:10:480
-0,023928	-1,567299	9,542577	2020-10-29T19:09:10:497
-0,043071	-1,629512	9,523434	2020-10-29T19:09:10:520
-0,093320	-1,529014	9,561719	2020-10-29T19:09:10:540
-0,110070	-1,596013	9,590433	2020-10-29T19:09:10:561
-0,064606	-1,531406	9,600004	2020-10-29T19:09:10:578
-0,155533	-1,572084	9,590433	2020-10-29T19:09:10:601
-0,004786	-1,574477	9,561719	2020-10-29T19:09:10:617
-0,078963	-1,698904	9,518648	2020-10-29T19:09:10:641
-0,090927	-1,574477	9,509077	2020-10-29T19:09:10:658
-0,045464	-1,512264	9,523434	2020-10-29T19:09:10:680
-0,026321	-1,629512	9,554541	2020-10-29T19:09:10:698
-0,064606	-1,579263	9,621540	2020-10-29T19:09:10:720
-0,057428	-1,600798	9,576077	2020-10-29T19:09:10:738
-0,088534	-1,548156	9,530612	2020-10-29T19:09:10:761
-0,141177	-1,586441	9,554541	2020-10-29T19:09:10:779
-0,043071	-1,603191	9,559326	2020-10-29T19:09:10:800
-0,011964	-1,574477	9,518648	2020-10-29T19:09:10:818
0,074178	-1,694118	9,477970	2020-10-29T19:09:10:840
-0,172283	-1,545763	9,568897	2020-10-29T19:09:10:858
-0,031107	-1,598405	9,552148	2020-10-29T19:09:10:880
-0,145962	-1,617548	9,583255	2020-10-29T19:09:10:899
-0,047856	-1,607977	9,631111	2020-10-29T19:09:10:921
-0,088534	-1,689333	9,585647	2020-10-29T19:09:10:938
-0,055035	-1,660619	9,571291	2020-10-29T19:09:10:961
-0,119641	-1,588834	9,544970	2020-10-29T19:09:10:978
-0,093320	-1,526621	9,533006	2020-10-29T19:09:11:001
-0,064606	-1,598405	9,535398	2020-10-29T19:09:11:019
-0,148355	-1,646262	9,635897	2020-10-29T19:09:11:040
-0,081356	-1,696511	9,590433	2020-10-29T19:09:11:058
-0,083749	-1,691726	9,549755	2020-10-29T19:09:11:081
-0,031107	-1,586441	9,671788	2020-10-29T19:09:11:098
-0,066999	-1,622334	9,552148	2020-10-29T19:09:11:121
-0,069392	-1,749153	9,571291	2020-10-29T19:09:11:138
-0,064606	-1,610370	9,597611	2020-10-29T19:09:11:161
0,028714	-1,607977	9,588040	2020-10-29T19:09:11:178
-0,071785	-1,663012	9,619147	2020-10-29T19:09:11:201
-0,066999	-1,634298	9,528220	2020-10-29T19:09:11:218
-0,062213	-1,672583	9,631111	2020-10-29T19:09:11:242
-0,045464	-1,684547	9,588040	2020-10-29T19:09:11:259
-0,083749	-1,648655	9,580862	2020-10-29T19:09:11:280
-0,059821	-1,596013	9,568897	2020-10-29T19:09:11:299
-0,126820	-1,655833	9,552148	2020-10-29T19:09:11:322
-0,081356	-1,677369	9,566505	2020-10-29T19:09:11:338
-0,059821	-1,588834	9,623933	2020-10-29T19:09:11:361
-0,074178	-1,653440	9,585647	2020-10-29T19:09:11:378
-0,002393	-1,660619	9,554541	2020-10-29T19:09:11:401
-0,090927	-1,758725	9,533006	2020-10-29T19:09:11:418
-0,059821	-1,574477	9,585647	2020-10-29T19:09:11:441
-0,095713	-1,651048	9,537791	2020-10-29T19:09:11:458
-0,083749	-1,651048	9,609575	2020-10-29T19:09:11:481
-0,093320	-1,715654	9,547362	2020-10-29T19:09:11:500
0,002393	-1,708475	9,554541	2020-10-29T19:09:11:521
-0,078963	-1,720440	9,540184	2020-10-29T19:09:11:539
-0,126820	-1,682154	9,571291	2020-10-29T19:09:11:561
-0,047856	-1,761117	9,573684	2020-10-29T19:09:11:579
-0,028714	-1,655833	9,533006	2020-10-29T19:09:11:602
-0,076570	-1,691726	9,583255	2020-10-29T19:09:11:619
-0,038285	-1,782653	9,542577	2020-10-29T19:09:11:642
-0,059821	-1,732404	9,523434	2020-10-29T19:09:11:661
-0,100499	-1,749153	9,578469	2020-10-29T19:09:11:681
-0,007178	-1,612763	9,564112	2020-10-29T19:09:11:699
-0,074178	-1,636691	9,583255	2020-10-29T19:09:11:732
-0,057428	-1,694118	9,602397	2020-10-29T19:09:11:740
-0,045464	-1,648655	9,571291	2020-10-29T19:09:11:761
-0,059821	-1,744368	9,494720	2020-10-29T19:09:11:779
-0,083749	-1,674976	9,528220	2020-10-29T19:09:11:802
-0,035892	-1,703690	9,571291	2020-10-29T19:09:11:818
-0,031107	-1,725225	9,547362	2020-10-29T19:09:11:841
-1,708475	-1,069592	8,051848	2020-10-29T19:09:11:860
0,782453	-1,390230	9,434900	2020-10-29T19:09:11:881
-0,409173	-1,780260	9,700503	2020-10-29T19:09:11:899
0,026321	-1,686940	9,523434	2020-10-29T19:09:11:922
-0,071785	-1,639083	9,576077	2020-10-29T19:09:11:939
-0,138784	-1,548156	9,542577	2020-10-29T19:09:11:963
-0,035892	-1,725225	9,602397	2020-10-29T19:09:11:981
-0,153141	-1,758725	9,571291	2020-10-29T19:09:12:002
-0,153141	-1,761117	9,535398	2020-10-29T19:09:12:019
-0,105284	-1,603191	9,638289	2020-10-29T19:09:12:042
-0,045464	-1,629512	9,655040	2020-10-29T19:09:12:060
0,076570	-1,600798	9,506684	2020-10-29T19:09:12:082
-0,153141	-1,603191	9,609575	2020-10-29T19:09:12:100
-0,076570	-1,617548	9,580862	2020-10-29T19:09:12:122
-0,162712	-1,703690	9,626326	2020-10-29T19:09:12:140
-0,122034	-1,624727	9,576077	2020-10-29T19:09:12:162
-0,095713	-1,634298	9,566505	2020-10-29T19:09:12:180
-0,172283	-1,600798	9,504292	2020-10-29T19:09:12:204
-0,052642	-1,677369	9,585647	2020-10-29T19:09:12:222
-0,136391	-1,665405	9,533006	2020-10-29T19:09:12:242
-0,122034	-1,641476	9,597611	2020-10-29T19:09:12:260
-0,119641	-1,605584	9,628718	2020-10-29T19:09:12:282
-0,055035	-1,722832	9,489935	2020-10-29T19:09:12:300
-0,100499	-1,703690	9,590433	2020-10-29T19:09:12:323
-0,184247	-1,663012	9,571291	2020-10-29T19:09:12:340
-0,141177	-1,615155	9,552148	2020-10-29T19:09:12:362
-0,131605	-1,725225	9,556933	2020-10-29T19:09:12:380
0,002393	-1,777867	9,556933	2020-10-29T19:09:12:402
-0,076570	-1,713261	9,576077	2020-10-29T19:09:12:420
-0,110070	-1,569692	9,578469	2020-10-29T19:09:12:442
-0,119641	-1,605584	9,583255	2020-10-29T19:09:12:461
-0,081356	-1,672583	9,518648	2020-10-29T19:09:12:482
-0,105284	-1,744368	9,504292	2020-10-29T19:09:12:501
-0,107677	-1,682154	9,628718	2020-10-29T19:09:12:523
-0,098106	-1,631905	9,554541	2020-10-29T19:09:12:540
-0,124427	-1,600798	9,540184	2020-10-29T19:09:12:563
-0,169890	-1,643869	9,561719	2020-10-29T19:09:12:581
-0,093320	-1,622334	9,509077	2020-10-29T19:09:12:602
-0,031107	-1,665405	9,509077	2020-10-29T19:09:12:620
-0,186640	-1,710868	9,501899	2020-10-29T19:09:12:642
0,059821	-1,663012	9,552148	2020-10-29T19:09:12:660
-0,224925	-1,698904	9,583255	2020-10-29T19:09:12:683
-0,119641	-1,627119	9,475577	2020-10-29T19:09:12:701
-0,129212	-1,718047	9,544970	2020-10-29T19:09:12:722
-0,078963	-1,667797	9,580862	2020-10-29T19:09:12:740
-0,110070	-1,710868	9,492328	2020-10-29T19:09:12:763
-0,165105	-1,651048	9,571291	2020-10-29T19:09:12:780
-0,136391	-1,691726	9,506684	2020-10-29T19:09:12:803
-0,117248	-1,576870	9,559326	2020-10-29T19:09:12:820
-0,160319	-1,741975	9,616754	2020-10-29T19:09:12:843
-0,107677	-1,775474	9,516255	2020-10-29T19:09:12:861
-0,153141	-1,792224	9,528220	2020-10-29T19:09:12:883
-0,157926	-1,670190	9,521042	2020-10-29T19:09:12:900
-0,129212	-1,708475	9,540184	2020-10-29T19:09:12:923
-0,102891	-1,682154	9,528220	2020-10-29T19:09:12:942
-0,155533	-1,667797	9,535398	2020-10-29T19:09:12:963
-0,114855	-1,682154	9,504292	2020-10-29T19:09:12:981
-0,107677	-1,746760	9,537791	2020-10-29T19:09:13:004
-0,155533	-1,706082	9,533006	2020-10-29T19:09:13:021
-0,141177	-1,710868	9,516255	2020-10-29T19:09:13:043
-0,107677	-1,715654	9,607183	2020-10-29T19:09:13:061
-0,124427	-1,670190	9,576077	2020-10-29T19:09:13:083
-0,093320	-1,615155	9,549755	2020-10-29T19:09:13:101
-0,129212	-1,703690	9,552148	2020-10-29T19:09:13:123
-0,045464	-1,670190	9,547362	2020-10-29T19:09:13:140
-0,165105	-1,646262	9,542577	2020-10-29T19:09:13:164
-0,126820	-1,667797	9,544970	2020-10-29T19:09:13:182
-0,122034	-1,710868	9,585647	2020-10-29T19:09:13:203
-0,119641	-1,694118	9,583255	2020-10-29T19:09:13:221
-0,081356	-1,713261	9,477970	2020-10-29T19:09:13:243
-0,234497	-1,706082	9,547362	2020-10-29T19:09:13:261
-0,117248	-1,725225	9,552148	2020-10-29T19:09:13:283
-0,143569	-1,708475	9,549755	2020-10-29T19:09:13:301
-0,083749	-1,694118	9,511470	2020-10-29T19:09:13:323
-0,150748	-1,758725	9,549755	2020-10-29T19:09:13:341
-0,090927	-1,670190	9,573684	2020-10-29T19:09:13:364
-0,157926	-1,753939	9,564112	2020-10-29T19:09:13:381
-0,090927	-1,672583	9,588040	2020-10-29T19:09:13:404
-0,078963	-1,684547	9,559326	2020-10-29T19:09:13:423
-0,114855	-1,770689	9,523434	2020-10-29T19:09:13:444
-0,131605	-1,744368	9,489935	2020-10-29T19:09:13:461
-0,138784	-1,696511	9,607183	2020-10-29T19:09:13:485
-0,081356	-1,689333	9,518648	2020-10-29T19:09:13:501
-0,114855	-1,710868	9,501899	2020-10-29T19:09:13:524
-0,126820	-1,722832	9,518648	2020-10-29T19:09:13:542
-0,373280	-1,928615	9,049655	2020-10-29T19:09:13:564
0,028714	-1,878366	9,509077	2020-10-29T19:09:13:582
-0,110070	-1,804188	9,556933	2020-10-29T19:09:13:605
-0,071785	-1,677369	9,559326	2020-10-29T19:09:13:621
-0,145962	-1,732404	9,523434	2020-10-29T19:09:13:646
-0,138784	-1,744368	9,506684	2020-10-29T19:09:13:663
-0,119641	-1,715654	9,554541	2020-10-29T19:09:13:683
-0,071785	-1,837688	9,556933	2020-10-29T19:09:13:726
-0,124427	-1,806581	9,499505	2020-10-29T19:09:13:731
-0,100499	-1,773082	9,568897	2020-10-29T19:09:13:742
-0,122034	-1,756332	9,501899	2020-10-29T19:09:13:764
-0,143569	-1,701297	9,571291	2020-10-29T19:09:13:781
-0,086142	-1,763510	9,549755	2020-10-29T19:09:13:804
-0,107677	-1,835295	9,552148	2020-10-29T19:09:13:822
-0,088534	-1,847259	9,580862	2020-10-29T19:09:13:844
-0,119641	-1,751546	9,449257	2020-10-29T19:09:13:862
-0,148355	-1,730011	9,571291	2020-10-29T19:09:13:885
-0,148355	-1,696511	9,525827	2020-10-29T19:09:13:903
-0,169890	-1,777867	9,556933	2020-10-29T19:09:13:924
-0,138784	-1,837688	9,540184	2020-10-29T19:09:13:942
-0,086142	-1,799403	9,533006	2020-10-29T19:09:13:965
-0,148355	-1,734797	9,540184	2020-10-29T19:09:13:982
-0,122034	-1,612763	9,547362	2020-10-29T19:09:14:005
-0,110070	-1,708475	9,530612	2020-10-29T19:09:14:022
-0,131605	-1,765903	9,580862	2020-10-29T19:09:14:044
-0,148355	-1,854438	9,573684	2020-10-29T19:09:14:062
-0,078963	-1,715654	9,533006	2020-10-29T19:09:14:084
-0,122034	-1,710868	9,487542	2020-10-29T19:09:14:102
-0,122034	-1,840081	9,511470	2020-10-29T19:09:14:126
-0,155533	-1,866402	9,492328	2020-10-29T19:09:14:143
-0,126820	-1,854438	9,568897	2020-10-29T19:09:14:165
-0,057428	-1,871187	9,516255	2020-10-29T19:09:14:182
-0,114855	-1,780260	9,533006	2020-10-29T19:09:14:205
-0,052642	-1,785046	9,487542	2020-10-29T19:09:14:222
-0,143569	-1,797010	9,523434	2020-10-29T19:09:14:246
-0,155533	-1,749153	9,516255	2020-10-29T19:09:14:262
-0,050249	-1,713261	9,533006	2020-10-29T19:09:14:285
-0,088534	-1,718047	9,523434	2020-10-29T19:09:14:302
-0,083749	-1,801795	9,544970	2020-10-29T19:09:14:324
-0,112463	-1,897508	9,592826	2020-10-29T19:09:14:342
-0,165105	-1,761117	9,542577	2020-10-29T19:09:14:365
-0,093320	-1,864009	9,552148	2020-10-29T19:09:14:383
-0,047856	-1,799403	9,525827	2020-10-29T19:09:14:405
-0,043071	-1,816152	9,518648	2020-10-29T19:09:14:424
-0,136391	-1,758725	9,556933	2020-10-29T19:09:14:445
-0,100499	-1,782653	9,468399	2020-10-29T19:09:14:462
-0,047856	-1,854438	9,609575	2020-10-29T19:09:14:485
-0,155533	-1,797010	9,525827	2020-10-29T19:09:14:503
-0,105284	-1,765903	9,571291	2020-10-29T19:09:14:526
-0,107677	-1,739582	9,590433	2020-10-29T19:09:14:542
-0,069392	-1,866402	9,547362	2020-10-29T19:09:14:565
-0,095713	-1,811367	9,530612	2020-10-29T19:09:14:583
-0,062213	-1,768296	9,552148	2020-10-29T19:09:14:605
-0,110070	-1,820938	9,576077	2020-10-29T19:09:14:623
-0,117248	-1,749153	9,492328	2020-10-29T19:09:14:645
-0,083749	-1,868794	9,573684	2020-10-29T19:09:14:663
-0,110070	-1,825724	9,540184	2020-10-29T19:09:14:685
-0,160319	-1,739582	9,549755	2020-10-29T19:09:14:703
-0,098106	-1,782653	9,509077	2020-10-29T19:09:14:725
-0,100499	-1,801795	9,513863	2020-10-29T19:09:14:743
-0,050249	-1,768296	9,499505	2020-10-29T19:09:14:765
-0,131605	-1,775474	9,568897	2020-10-29T19:09:14:783
-0,124427	-1,792224	9,544970	2020-10-29T19:09:14:805
-0,081356	-1,765903	9,566505	2020-10-29T19:09:14:822
-0,090927	-1,780260	9,501899	2020-10-29T19:09:14:845
-0,064606	-1,773082	9,552148	2020-10-29T19:09:14:864
-0,122034	-1,811367	9,544970	2020-10-29T19:09:14:885
-0,102891	-1,799403	9,552148	2020-10-29T19:09:14:903
-0,062213	-1,773082	9,533006	2020-10-29T19:09:14:925
-0,093320	-1,842474	9,528220	2020-10-29T19:09:14:943
-0,110070	-1,880759	9,564112	2020-10-29T19:09:14:966
-0,095713	-1,868794	9,511470	2020-10-29T19:09:14:982
-0,035892	-1,725225	9,549755	2020-10-29T19:09:15:006
-0,124427	-1,741975	9,549755	2020-10-29T19:09:15:023
-0,157926	-1,775474	9,513863	2020-10-29T19:09:15:047
-0,112463	-1,725225	9,516255	2020-10-29T19:09:15:063
-0,133998	-1,823331	9,516255	2020-10-29T19:09:15:086
-0,086142	-1,753939	9,511470	2020-10-29T19:09:15:105
-0,110070	-1,787439	9,506684	2020-10-29T19:09:15:126
-0,129212	-1,768296	9,482756	2020-10-29T19:09:15:143
-0,131605	-1,708475	9,499505	2020-10-29T19:09:15:169
-0,088534	-1,751546	9,583255	2020-10-29T19:09:15:183
-0,160319	-1,749153	9,564112	2020-10-29T19:09:15:370
-0,133998	-1,785046	9,528220	2020-10-29T19:09:15:372
-0,169890	-1,775474	9,592826	2020-10-29T19:09:15:373
-0,141177	-1,789831	9,511470	2020-10-29T19:09:15:374
-0,098106	-1,768296	9,609575	2020-10-29T19:09:15:375
-0,102891	-1,710868	9,588040	2020-10-29T19:09:15:385
-0,169890	-1,708475	9,561719	2020-10-29T19:09:15:386
-0,126820	-1,799403	9,597611	2020-10-29T19:09:15:393
-0,093320	-1,763510	9,626326	2020-10-29T19:09:15:394
-0,088534	-1,828116	9,506684	2020-10-29T19:09:15:394
-0,138784	-1,813759	9,513863	2020-10-29T19:09:15:406
-0,052642	-1,816152	9,609575	2020-10-29T19:09:15:422
-0,076570	-1,871187	9,525827	2020-10-29T19:09:15:445
-0,112463	-1,741975	9,547362	2020-10-29T19:09:15:462
-0,105284	-1,720440	9,573684	2020-10-29T19:09:15:486
-0,117248	-1,634298	9,494720	2020-10-29T19:09:15:507
-0,141177	-1,739582	9,561719	2020-10-29T19:09:15:526
-0,126820	-1,902294	9,549755	2020-10-29T19:09:15:542
-0,078963	-1,823331	9,556933	2020-10-29T19:09:15:566
-0,076570	-1,780260	9,564112	2020-10-29T19:09:15:584
-0,064606	-1,751546	9,499505	2020-10-29T19:09:15:606
-0,107677	-1,646262	9,535398	2020-10-29T19:09:15:624
-0,102891	-1,828116	9,609575	2020-10-29T19:09:15:647
-0,136391	-1,830509	9,537791	2020-10-29T19:09:15:664
-0,086142	-1,847259	9,521042	2020-10-29T19:09:15:686
-0,136391	-1,682154	9,547362	2020-10-29T19:09:15:704
-0,066999	-1,660619	9,559326	2020-10-29T19:09:15:726
-0,100499	-1,923829	9,540184	2020-10-29T19:09:15:744
-0,110070	-1,808974	9,525827	2020-10-29T19:09:15:767
-0,131605	-1,665405	9,518648	2020-10-29T19:09:15:785
-0,148355	-1,741975	9,509077	2020-10-29T19:09:15:809
-0,212961	-1,832902	9,561719	2020-10-29T19:09:15:842
-0,122034	-1,844866	9,556933	2020-10-29T19:09:15:847
-0,131605	-1,797010	9,523434	2020-10-29T19:09:15:868
-0,055035	-1,739582	9,516255	2020-10-29T19:09:15:968
-0,112463	-1,777867	9,576077	2020-10-29T19:09:15:985
-0,198604	-1,758725	9,542577	2020-10-29T19:09:16:005
-0,136391	-1,909473	9,463614	2020-10-29T19:09:16:022
-0,145962	-1,727618	9,566505	2020-10-29T19:09:16:046
0,064606	-1,679761	9,396614	2020-10-29T19:09:16:067
-0,145962	-1,878366	9,528220	2020-10-29T19:09:16:086
-0,133998	-1,730011	9,592826	2020-10-29T19:09:16:104
-0,122034	-1,835295	9,540184	2020-10-29T19:09:16:127
-0,208176	-1,663012	9,528220	2020-10-29T19:09:16:143
-0,083749	-1,727618	9,497113	2020-10-29T19:09:16:168
-0,169890	-1,854438	9,556933	2020-10-29T19:09:16:184
-0,244068	-1,799403	9,568897	2020-10-29T19:09:16:207
-0,177069	-1,785046	9,521042	2020-10-29T19:09:16:225
-0,157926	-1,756332	9,521042	2020-10-29T19:09:16:255
-0,387637	-1,950150	9,499505	2020-10-29T19:09:25:136
-0,337388	-1,933401	9,454042	2020-10-29T19:09:25:139
-0,370888	-1,964507	9,571291	2020-10-29T19:09:25:140
-0,289532	-1,895115	9,533006	2020-10-29T19:09:25:140
-0,330210	-1,885544	9,454042	2020-10-29T19:09:25:147
-0,325424	-1,899901	9,537791	2020-10-29T19:09:25:165
-0,373280	-1,966900	9,509077	2020-10-29T19:09:25:180
-0,325424	-1,981257	9,487542	2020-10-29T19:09:25:197
-0,287139	-1,887937	9,506684	2020-10-29T19:09:25:221
-0,275175	-1,890330	9,542577	2020-10-29T19:09:25:239
-0,294317	-1,950150	9,501899	2020-10-29T19:09:25:263
-0,306281	-1,890330	9,509077	2020-10-29T19:09:25:278
-0,311067	-1,971686	9,504292	2020-10-29T19:09:25:300
-0,380459	-1,887937	9,466006	2020-10-29T19:09:25:318
-0,334995	-1,940579	9,494720	2020-10-29T19:09:25:341
-0,342174	-1,902294	9,494720	2020-10-29T19:09:25:358
-0,370888	-1,950150	9,468399	2020-10-29T19:09:25:381
-0,287139	-1,892723	9,492328	2020-10-29T19:09:25:399
-0,308674	-1,919044	9,461221	2020-10-29T19:09:25:421
-0,296710	-1,986043	9,547362	2020-10-29T19:09:25:439
-0,306281	-1,923829	9,439686	2020-10-29T19:09:25:461
-0,342174	-1,875973	9,458827	2020-10-29T19:09:25:479
-0,306281	-1,978864	9,504292	2020-10-29T19:09:25:503
-0,272782	-1,919044	9,492328	2020-10-29T19:09:25:518
-0,299103	-1,854438	9,489935	2020-10-29T19:09:25:541
-0,267996	-1,921437	9,434900	2020-10-29T19:09:25:558
-0,279960	-1,928615	9,461221	2020-10-29T19:09:25:581
-0,397209	-1,914258	9,533006	2020-10-29T19:09:25:598
-0,339781	-1,892723	9,480364	2020-10-29T19:09:25:621
-0,358923	-1,890330	9,477970	2020-10-29T19:09:25:640
-0,346959	-2,000400	9,458827	2020-10-29T19:09:25:662
-0,380459	-1,954936	9,489935	2020-10-29T19:09:25:679
-0,368495	-1,990828	9,422935	2020-10-29T19:09:25:702
-0,358923	-1,852045	9,487542	2020-10-29T19:09:25:719
-0,301496	-1,938186	9,501899	2020-10-29T19:09:25:742
-0,339781	-1,919044	9,533006	2020-10-29T19:09:25:759
-0,406780	-1,909473	9,463614	2020-10-29T19:09:25:781
-0,354138	-1,883151	9,454042	2020-10-29T19:09:25:799
-0,356531	-1,942972	9,504292	2020-10-29T19:09:25:822
-0,301496	-1,873580	9,516255	2020-10-29T19:09:25:839
-0,351745	-1,952543	9,523434	2020-10-29T19:09:25:861
-0,289532	-1,911865	9,477970	2020-10-29T19:09:25:880
-0,279960	-1,861616	9,451650	2020-10-29T19:09:25:902
-0,327817	-1,931008	9,576077	2020-10-29T19:09:25:919
-0,334995	-1,950150	9,449257	2020-10-29T19:09:25:942
-0,313460	-1,878366	9,468399	2020-10-29T19:09:25:958
-0,301496	-1,974079	9,580862	2020-10-29T19:09:25:983
-0,334995	-2,024328	9,537791	2020-10-29T19:09:25:999
-0,291924	-2,000400	9,473185	2020-10-29T19:09:26:021
-0,306281	-1,856830	9,470792	2020-10-29T19:09:26:039
-0,275175	-1,933401	9,521042	2020-10-29T19:09:26:062
-0,378066	-2,038685	9,497113	2020-10-29T19:09:26:079
-0,370888	-2,026721	9,470792	2020-10-29T19:09:26:101
-0,361316	-1,866402	9,449257	2020-10-29T19:09:26:120
-0,306281	-2,012364	9,561719	2020-10-29T19:09:26:142
-0,275175	-2,048256	9,418150	2020-10-29T19:09:26:159
-0,294317	-1,849652	9,458827	2020-10-29T19:09:26:181
-0,299103	-1,988436	9,554541	2020-10-29T19:09:26:199
-0,275175	-2,045863	9,540184	2020-10-29T19:09:26:224
-0,325424	-1,899901	9,408579	2020-10-29T19:09:26:239
-0,339781	-1,916651	9,482756	2020-10-29T19:09:26:261
-0,356531	-1,959722	9,497113	2020-10-29T19:09:26:279
-0,373280	-1,931008	9,477970	2020-10-29T19:09:26:303
-0,337388	-2,014757	9,549755	2020-10-29T19:09:26:319
-0,358923	-1,969293	9,451650	2020-10-29T19:09:26:342
-0,323031	-1,990828	9,499505	2020-10-29T19:09:26:360
-0,287139	-1,935793	9,401401	2020-10-29T19:09:26:383
-0,303888	-2,000400	9,468399	2020-10-29T19:09:26:399
-0,299103	-1,988436	9,446864	2020-10-29T19:09:26:421
-0,303888	-1,935793	9,466006	2020-10-29T19:09:26:439
-0,325424	-1,914258	9,468399	2020-10-29T19:09:26:463
-0,318245	-2,031506	9,552148	2020-10-29T19:09:26:479
-0,267996	-2,069792	9,494720	2020-10-29T19:09:26:502
-0,272782	-1,988436	9,473185	2020-10-29T19:09:26:520
-0,344566	-2,021935	9,533006	2020-10-29T19:09:26:544
-0,299103	-2,007578	9,456435	2020-10-29T19:09:26:559
-0,315853	-1,974079	9,482756	2020-10-29T19:09:26:581
-0,339781	-1,940579	9,499505	2020-10-29T19:09:26:601
-0,354138	-1,892723	9,489935	2020-10-29T19:09:26:622
-0,277567	-1,974079	9,501899	2020-10-29T19:09:26:640
-0,296710	-1,986043	9,451650	2020-10-29T19:09:26:662
-0,330210	-1,981257	9,501899	2020-10-29T19:09:26:679
-0,315853	-1,959722	9,530612	2020-10-29T19:09:26:703
-0,318245	-1,892723	9,466006	2020-10-29T19:09:26:719
-0,346959	-1,899901	9,492328	2020-10-29T19:09:26:742
-0,299103	-1,916651	9,466006	2020-10-29T19:09:26:759
-0,263210	-2,048256	9,477970	2020-10-29T19:09:26:783
-0,272782	-1,974079	9,494720	2020-10-29T19:09:26:799
-0,241675	-1,890330	9,442079	2020-10-29T19:09:26:822
-0,385244	-1,986043	9,497113	2020-10-29T19:09:26:841
-0,299103	-1,969293	9,523434	2020-10-29T19:09:26:863
-0,294317	-2,005185	9,434900	2020-10-29T19:09:26:879
-0,332602	-1,950150	9,542577	2020-10-29T19:09:26:902
-0,327817	-2,005185	9,540184	2020-10-29T19:09:26:920
-0,260818	-1,990828	9,528220	2020-10-29T19:09:26:944
-0,291924	-1,945365	9,468399	2020-10-29T19:09:26:960
-0,260818	-1,998007	9,494720	2020-10-29T19:09:26:983
-0,270389	-2,117648	9,523434	2020-10-29T19:09:27:000
-0,256032	-1,942972	9,485149	2020-10-29T19:09:27:023
-0,282353	-1,897508	9,499505	2020-10-29T19:09:27:040
-0,291924	-1,928615	9,530612	2020-10-29T19:09:27:062
-0,334995	-1,986043	9,432507	2020-10-29T19:09:27:082
-0,330210	-1,909473	9,485149	2020-10-29T19:09:27:103
-0,325424	-2,029114	9,542577	2020-10-29T19:09:27:120
-0,253639	-2,007578	9,422935	2020-10-29T19:09:27:144
-0,282353	-1,974079	9,518648	2020-10-29T19:09:27:160
-0,318245	-1,950150	9,480364	2020-10-29T19:09:27:184
-0,351745	-2,017149	9,523434	2020-10-29T19:09:27:200
-0,342174	-1,988436	9,499505	2020-10-29T19:09:27:222
-0,315853	-1,969293	9,437292	2020-10-29T19:09:27:240
-0,251246	-2,072184	9,494720	2020-10-29T19:09:27:263
-0,217747	-2,017149	9,454042	2020-10-29T19:09:27:280
-0,244068	-1,959722	9,537791	2020-10-29T19:09:27:303
-0,296710	-2,024328	9,516255	2020-10-29T19:09:27:322
-0,294317	-1,909473	9,511470	2020-10-29T19:09:27:343
-0,315853	-1,916651	9,501899	2020-10-29T19:09:27:360
-0,227318	-2,026721	9,521042	2020-10-29T19:09:27:384
-0,256032	-1,962115	9,454042	2020-10-29T19:09:27:400
-0,291924	-2,055435	9,537791	2020-10-29T19:09:27:424
-0,311067	-1,990828	9,506684	2020-10-29T19:09:27:440
-0,246461	-1,911865	9,477970	2020-10-29T19:09:27:462
-0,327817	-1,959722	9,473185	2020-10-29T19:09:27:480
-0,263210	-2,036292	9,449257	2020-10-29T19:09:27:504
-0,318245	-2,026721	9,434900	2020-10-29T19:09:27:520
-0,246461	-2,048256	9,470792	2020-10-29T19:09:27:543
-0,284746	-1,887937	9,444471	2020-10-29T19:09:27:561
-0,279960	-1,899901	9,473185	2020-10-29T19:09:27:583
-0,251246	-1,966900	9,480364	2020-10-29T19:09:27:600
-0,232104	-2,045863	9,480364	2020-10-29T19:09:27:623
-0,277567	-1,990828	9,561719	2020-10-29T19:09:27:640
-0,229711	-1,938186	9,501899	2020-10-29T19:09:27:664
-0,323031	-1,916651	9,509077	2020-10-29T19:09:27:680
-0,303888	-1,959722	9,578469	2020-10-29T19:09:27:703
-0,229711	-1,957329	9,449257	2020-10-29T19:09:27:720
-0,301496	-1,988436	9,533006	2020-10-29T19:09:27:744
-0,229711	-2,033899	9,537791	2020-10-29T19:09:27:760
-0,248854	-1,993221	9,475577	2020-10-29T19:09:27:784
-0,155533	-1,988436	9,477970	2020-10-29T19:09:27:801
-0,320638	-1,969293	9,523434	2020-10-29T19:09:27:823
-0,203390	-2,014757	9,537791	2020-10-29T19:09:27:841
-0,315853	-1,981257	9,535398	2020-10-29T19:09:27:863
-0,308674	-2,086541	9,475577	2020-10-29T19:09:27:880
-0,256032	-2,012364	9,470792	2020-10-29T19:09:27:904
-0,284746	-2,096112	9,504292	2020-10-29T19:09:27:921
-0,284746	-2,014757	9,497113	2020-10-29T19:09:27:943
-0,308674	-2,069792	9,456435	2020-10-29T19:09:27:961
-0,256032	-2,033899	9,458827	2020-10-29T19:09:27:984
-0,344566	-1,887937	9,540184	2020-10-29T19:09:28:001
-0,413958	-1,990828	9,466006	2020-10-29T19:09:28:024
-0,349352	-1,928615	9,245867	2020-10-29T19:09:28:042
-0,222532	-2,067399	9,482756	2020-10-29T19:09:28:064
-0,246461	-2,017149	9,492328	2020-10-29T19:09:28:081
-0,222532	-2,062613	9,439686	2020-10-29T19:09:28:103
-0,303888	-2,007578	9,573684	2020-10-29T19:09:28:120
-0,193819	-1,988436	9,547362	2020-10-29T19:09:28:145
-0,315853	-2,076970	9,643075	2020-10-29T19:09:28:161
-0,212961	-1,974079	9,497113	2020-10-29T19:09:28:183
-0,267996	-2,124826	9,430114	2020-10-29T19:09:28:201
-0,212961	-2,060220	9,602397	2020-10-29T19:09:28:224
-0,291924	-2,366502	9,678967	2020-10-29T19:09:28:241
-0,327817	-2,060220	9,317651	2020-10-29T19:09:28:263
-0,356531	-1,919044	9,391829	2020-10-29T19:09:28:282
-0,145962	-1,974079	9,343972	2020-10-29T19:09:28:304
-0,258425	-1,914258	9,480364	2020-10-29T19:09:28:321
-0,196211	-2,079363	9,454042	2020-10-29T19:09:28:344
-0,244068	-1,971686	9,444471	2020-10-29T19:09:28:361
-0,244068	-1,942972	9,487542	2020-10-29T19:09:28:384
-0,311067	-2,021935	9,576077	2020-10-29T19:09:28:401
-0,253639	-1,981257	9,544970	2020-10-29T19:09:28:423
-0,272782	-2,021935	9,466006	2020-10-29T19:09:28:442
-0,251246	-2,017149	9,504292	2020-10-29T19:09:28:464
-0,200997	-1,950150	9,485149	2020-10-29T19:09:28:481
-0,279960	-2,043471	9,528220	2020-10-29T19:09:28:504
-0,284746	-2,084148	9,513863	2020-10-29T19:09:28:522
-0,284746	-2,053042	9,463614	2020-10-29T19:09:28:544
-0,241675	-2,076970	9,528220	2020-10-29T19:09:28:561
-0,215354	-2,079363	9,494720	2020-10-29T19:09:28:584
-0,184247	-2,127219	9,480364	2020-10-29T19:09:28:601
-0,325424	-2,067399	9,451650	2020-10-29T19:09:28:625
-0,239282	-2,038685	9,446864	2020-10-29T19:09:28:641
-0,234497	-2,012364	9,525827	2020-10-29T19:09:28:664
-0,229711	-2,029114	9,571291	2020-10-29T19:09:28:682
-0,256032	-2,053042	9,454042	2020-10-29T19:09:28:706
-0,296710	-1,990828	9,482756	2020-10-29T19:09:28:721
-0,339781	-2,091327	9,492328	2020-10-29T19:09:28:745
-0,318245	-2,076970	9,418150	2020-10-29T19:09:28:763
-0,284746	-2,172683	9,415757	2020-10-29T19:09:28:784
-0,203390	-2,163112	9,559326	2020-10-29T19:09:28:802
-0,177069	-2,124826	9,466006	2020-10-29T19:09:28:824
-0,260818	-2,129612	9,444471	2020-10-29T19:09:28:841
-0,212961	-2,081756	9,492328	2020-10-29T19:09:28:865
-0,246461	-2,084148	9,485149	2020-10-29T19:09:28:881
-0,179462	-2,167897	9,408579	2020-10-29T19:09:28:904
-0,296710	-2,036292	9,456435	2020-10-29T19:09:28:921
-0,244068	-2,038685	9,497113	2020-10-29T19:09:28:945
-0,234497	-2,184647	9,485149	2020-10-29T19:09:28:962
-0,174676	-2,153540	9,473185	2020-10-29T19:09:28:984
-0,263210	-2,050649	9,482756	2020-10-29T19:09:29:004
-0,244068	-2,029114	9,509077	2020-10-29T19:09:29:025
-0,246461	-2,139183	9,475577	2020-10-29T19:09:29:042
-0,294317	-2,148755	9,451650	2020-10-29T19:09:29:064
-0,256032	-2,093720	9,415757	2020-10-29T19:09:29:082
-0,272782	-2,115255	9,499505	2020-10-29T19:09:29:105
-0,265603	-2,103291	9,403792	2020-10-29T19:09:29:122
-0,244068	-2,038685	9,422935	2020-10-29T19:09:29:144
-0,294317	-2,117648	9,427721	2020-10-29T19:09:29:162
-0,251246	-2,136791	9,473185	2020-10-29T19:09:29:185
-0,277567	-2,100898	9,446864	2020-10-29T19:09:29:202
-0,325424	-2,079363	9,492328	2020-10-29T19:09:29:224
-0,267996	-2,103291	9,437292	2020-10-29T19:09:29:243
-0,284746	-2,084148	9,430114	2020-10-29T19:09:29:265
-0,284746	-1,971686	9,669396	2020-10-29T19:09:29:282
-0,119641	-2,167897	9,463614	2020-10-29T19:09:29:304
-0,325424	-2,148755	9,446864	2020-10-29T19:09:29:322
-0,251246	-2,132005	9,466006	2020-10-29T19:09:29:346
-0,244068	-2,158326	9,499505	2020-10-29T19:09:29:362
-0,241675	-2,122434	9,446864	2020-10-29T19:09:29:385
-0,241675	-2,136791	9,446864	2020-10-29T19:09:29:402
-0,222532	-2,160719	9,504292	2020-10-29T19:09:29:425
-0,299103	-2,124826	9,446864	2020-10-29T19:09:29:442
-0,306281	-2,069792	9,489935	2020-10-29T19:09:29:464
-0,239282	-2,088934	9,444471	2020-10-29T19:09:29:483
-0,301496	-2,096112	9,442079	2020-10-29T19:09:29:506
-0,282353	-2,012364	9,530612	2020-10-29T19:09:29:523
-0,251246	-2,091327	9,461221	2020-10-29T19:09:29:545
-0,330210	-2,103291	9,509077	2020-10-29T19:09:29:562
-0,272782	-2,091327	9,442079	2020-10-29T19:09:29:586
-0,270389	-2,194218	9,497113	2020-10-29T19:09:29:603
-0,200997	-2,100898	9,432507	2020-10-29T19:09:29:624
-0,155533	-2,026721	9,497113	2020-10-29T19:09:29:643
-0,224925	-2,060220	9,437292	2020-10-29T19:09:29:667
-0,327817	-2,218147	9,518648	2020-10-29T19:09:29:682
-0,263210	-2,232504	9,477970	2020-10-29T19:09:29:705
-0,277567	-2,093720	9,492328	2020-10-29T19:09:29:724
-0,215354	-2,141576	9,454042	2020-10-29T19:09:29:749
-0,303888	-2,179861	9,466006	2020-10-29T19:09:29:764
-0,246461	-2,112862	9,473185	2020-10-29T19:09:29:785
-0,217747	-2,021935	9,489935	2020-10-29T19:09:29:803
-0,284746	-2,148755	9,451650	2020-10-29T19:09:29:826
-0,291924	-2,053042	9,475577	2020-10-29T19:09:29:843
-0,220140	-2,112862	9,509077	2020-10-29T19:09:29:864
-0,239282	-2,136791	9,516255	2020-10-29T19:09:29:883
-0,260818	-2,103291	9,422935	2020-10-29T19:09:29:906
-0,282353	-2,093720	9,535398	2020-10-29T19:09:29:923
-0,267996	-2,098505	9,449257	2020-10-29T19:09:29:946
-0,282353	-2,218147	9,427721	2020-10-29T19:09:29:963
-0,277567	-2,079363	9,511470	2020-10-29T19:09:29:986
-0,306281	-2,060220	9,458827	2020-10-29T19:09:30:003
-0,287139	-2,167897	9,442079	2020-10-29T19:09:30:025
-0,217747	-2,088934	9,470792	2020-10-29T19:09:30:043
-0,260818	-2,086541	9,504292	2020-10-29T19:09:30:067
-0,205783	-2,170290	9,501899	2020-10-29T19:09:30:083
-0,239282	-2,069792	9,473185	2020-10-29T19:09:30:105
-0,234497	-2,065006	9,454042	2020-10-29T19:09:30:123
-0,284746	-2,134398	9,458827	2020-10-29T19:09:30:147
-0,224925	-2,105684	9,470792	2020-10-29T19:09:30:172
-0,301496	-2,029114	9,470792	2020-10-29T19:09:30:185
-0,220140	-2,117648	9,480364	2020-10-29T19:09:30:204
-0,275175	-2,155933	9,463614	2020-10-29T19:09:30:226
-0,236889	-2,146362	9,480364	2020-10-29T19:09:30:244
-0,260818	-2,134398	9,516255	2020-10-29T19:09:30:265
-0,308674	-2,151148	9,451650	2020-10-29T19:09:30:283
-0,311067	-2,026721	9,511470	2020-10-29T19:09:30:307
-0,291924	-2,065006	9,530612	2020-10-29T19:09:30:323
-0,239282	-2,160719	9,403792	2020-10-29T19:09:30:346
-0,239282	-2,201397	9,509077	2020-10-29T19:09:30:363
-0,184247	-2,045863	9,559326	2020-10-29T19:09:30:386
-0,346959	-2,117648	9,468399	2020-10-29T19:09:30:403
-0,346959	-2,127219	9,442079	2020-10-29T19:09:30:425
-0,241675	-2,120041	9,497113	2020-10-29T19:09:30:444
-0,258425	-2,148755	9,482756	2020-10-29T19:09:30:466
-0,248854	-2,163112	9,382257	2020-10-29T19:09:30:484
-0,279960	-2,122434	9,439686	2020-10-29T19:09:30:506
-0,224925	-2,139183	9,482756	2020-10-29T19:09:30:523
-0,267996	-2,081756	9,516255	2020-10-29T19:09:30:547
-0,282353	-2,019542	9,501899	2020-10-29T19:09:30:563
-0,277567	-2,093720	9,456435	2020-10-29T19:09:30:586
-0,270389	-2,108077	9,513863	2020-10-29T19:09:30:604
-0,253639	-2,110470	9,403792	2020-10-29T19:09:30:628
-0,354138	-2,055435	9,475577	2020-10-29T19:09:30:643
-0,275175	-2,177469	9,521042	2020-10-29T19:09:30:666
-0,284746	-2,251646	9,442079	2020-10-29T19:09:30:686
-0,311067	-2,093720	9,396614	2020-10-29T19:09:30:707
-0,260818	-2,017149	9,444471	2020-10-29T19:09:30:723
-0,224925	-2,038685	9,466006	2020-10-29T19:09:30:747
-0,327817	-2,055435	9,504292	2020-10-29T19:09:30:763
-0,361316	-2,153540	9,427721	2020-10-29T19:09:30:787
-0,320638	-2,132005	9,487542	2020-10-29T19:09:30:804
-0,287139	-2,086541	9,461221	2020-10-29T19:09:30:826
-0,289532	-2,081756	9,516255	2020-10-29T19:09:30:844
-0,267996	-2,158326	9,494720	2020-10-29T19:09:30:867
-0,315853	-2,261217	9,506684	2020-10-29T19:09:30:883
-0,208176	-2,127219	9,434900	2020-10-29T19:09:30:906
-0,227318	-2,072184	9,391829	2020-10-29T19:09:30:926
-0,332602	-2,081756	9,499505	2020-10-29T19:09:30:947
-0,303888	-2,158326	9,504292	2020-10-29T19:09:30:964
-0,239282	-2,103291	9,480364	2020-10-29T19:09:30:988
-0,275175	-2,065006	9,506684	2020-10-29T19:09:31:004
-0,267996	-2,110470	9,463614	2020-10-29T19:09:31:028
-0,318245	-2,055435	9,468399	2020-10-29T19:09:31:044
-0,239282	-2,122434	9,499505	2020-10-29T19:09:31:067
-0,275175	-2,117648	9,475577	2020-10-29T19:09:31:084
-0,323031	-2,165504	9,387043	2020-10-29T19:09:31:108
-0,332602	-2,026721	9,468399	2020-10-29T19:09:31:124
-0,253639	-2,172683	9,501899	2020-10-29T19:09:31:147
-0,337388	-2,170290	9,451650	2020-10-29T19:09:31:165
-0,287139	-2,167897	9,437292	2020-10-29T19:09:31:187
-0,282353	-2,045863	9,518648	2020-10-29T19:09:31:204
-0,306281	-2,108077	9,537791	2020-10-29T19:09:31:226
-0,284746	-2,050649	9,442079	2020-10-29T19:09:31:244
-0,339781	-2,139183	9,549755	2020-10-29T19:09:31:268
-0,313460	-2,122434	9,482756	2020-10-29T19:09:31:284
-0,370888	-2,172683	9,492328	2020-10-29T19:09:31:306
-0,277567	-2,069792	9,432507	2020-10-29T19:09:31:324
-0,339781	-2,057827	9,439686	2020-10-29T19:09:31:348
-0,330210	-2,060220	9,449257	2020-10-29T19:09:31:364
-0,334995	-2,012364	9,439686	2020-10-29T19:09:31:387
-0,318245	-2,132005	9,504292	2020-10-29T19:09:31:405
-0,337388	-2,115255	9,540184	2020-10-29T19:09:31:427
-0,275175	-2,084148	9,422935	2020-10-29T19:09:31:444
-0,284746	-1,990828	9,461221	2020-10-29T19:09:31:467
-0,313460	-2,014757	9,456435	2020-10-29T19:09:31:484
-0,291924	-2,091327	9,494720	2020-10-29T19:09:31:508
-0,325424	-2,136791	9,485149	2020-10-29T19:09:31:525
-0,299103	-1,959722	9,485149	2020-10-29T19:09:31:548
-0,296710	-2,038685	9,434900	2020-10-29T19:09:31:564
-0,275175	-2,086541	9,497113	2020-10-29T19:09:31:588
-0,263210	-2,120041	9,480364	2020-10-29T19:09:31:604
-0,277567	-2,086541	9,466006	2020-10-29T19:09:31:627
-0,325424	-2,093720	9,513863	2020-10-29T19:09:31:645
-0,313460	-2,112862	9,499505	2020-10-29T19:09:31:668
-0,325424	-1,976472	9,466006	2020-10-29T19:09:31:684
-0,265603	-1,969293	9,473185	2020-10-29T19:09:31:707
-0,282353	-1,947758	9,444471	2020-10-29T19:09:31:724
-0,263210	-1,978864	9,530612	2020-10-29T19:09:31:751
-0,323031	-2,091327	9,489935	2020-10-29T19:09:31:765
-0,349352	-1,998007	9,477970	2020-10-29T19:09:31:788
-0,366102	-2,033899	9,549755	2020-10-29T19:09:31:805
-0,385244	-2,062613	9,509077	2020-10-29T19:09:31:828
-0,358923	-2,048256	9,482756	2020-10-29T19:09:31:844
-0,306281	-1,988436	9,521042	2020-10-29T19:09:31:867
-0,287139	-1,990828	9,454042	2020-10-29T19:09:31:885
-0,370888	-2,019542	9,475577	2020-10-29T19:09:31:908
-0,275175	-2,117648	9,499505	2020-10-29T19:09:31:924
-0,346959	-2,074577	9,494720	2020-10-29T19:09:31:947
-0,346959	-2,017149	9,463614	2020-10-29T19:09:31:964
-0,339781	-1,995614	9,468399	2020-10-29T19:09:31:988
-0,425922	-1,959722	9,525827	2020-10-29T19:09:32:005
-0,356531	-2,026721	9,477970	2020-10-29T19:09:32:027
-0,342174	-2,091327	9,473185	2020-10-29T19:09:32:045
-0,318245	-2,017149	9,492328	2020-10-29T19:09:32:069
-0,327817	-2,024328	9,525827	2020-10-29T19:09:32:084
-0,294317	-2,017149	9,487542	2020-10-29T19:09:32:108
-0,356531	-1,933401	9,489935	2020-10-29T19:09:32:126
-0,311067	-2,031506	9,499505	2020-10-29T19:09:32:148
-0,337388	-2,036292	9,482756	2020-10-29T19:09:32:165
-0,373280	-1,969293	9,403792	2020-10-29T19:09:32:187
-0,313460	-1,995614	9,528220	2020-10-29T19:09:32:205
-0,339781	-2,134398	9,578469	2020-10-29T19:09:32:228
-0,354138	-2,041078	9,475577	2020-10-29T19:09:32:245
-0,291924	-1,902294	9,470792	2020-10-29T19:09:32:267
-0,344566	-1,993221	9,533006	2020-10-29T19:09:32:285
-0,332602	-2,026721	9,430114	2020-10-29T19:09:32:308
-0,363709	-2,045863	9,444471	2020-10-29T19:09:32:325
-0,373280	-2,076970	9,554541	2020-10-29T19:09:32:348
-0,349352	-2,002793	9,463614	2020-10-29T19:09:32:367
-0,330210	-1,962115	9,410972	2020-10-29T19:09:32:388
-0,313460	-1,873580	9,444471	2020-10-29T19:09:32:406
-0,291924	-1,990828	9,544970	2020-10-29T19:09:32:428
-0,263210	-1,995614	9,542577	2020-10-29T19:09:32:445
-0,445065	-2,139183	9,511470	2020-10-29T19:09:32:469
-0,356531	-1,945365	9,461221	2020-10-29T19:09:32:485
-0,445065	-1,931008	9,537791	2020-10-29T19:09:32:508
-0,236889	-1,835295	9,382257	2020-10-29T19:09:32:525
-0,435494	-1,950150	9,511470	2020-10-29T19:09:32:551
-0,287139	-2,132005	9,477970	2020-10-29T19:09:32:565
-0,320638	-2,033899	9,463614	2020-10-29T19:09:32:588
-0,303888	-1,945365	9,506684	2020-10-29T19:09:32:608
-0,315853	-1,840081	9,434900	2020-10-29T19:09:32:629
-0,394816	-1,914258	9,432507	2020-10-29T19:09:32:645
-0,397209	-2,007578	9,516255	2020-10-29T19:09:32:669
-0,339781	-2,053042	9,432507	2020-10-29T19:09:32:685
-0,346959	-1,921437	9,434900	2020-10-29T19:09:32:711
-0,337388	-1,923829	9,516255	2020-10-29T19:09:32:725
-0,313460	-1,952543	9,477970	2020-10-29T19:09:32:749
-0,244068	-1,978864	9,494720	2020-10-29T19:09:32:765
-0,239282	-1,998007	9,530612	2020-10-29T19:09:32:790
-0,308674	-2,017149	9,497113	2020-10-29T19:09:32:805
-0,337388	-1,864009	9,437292	2020-10-29T19:09:32:829
-0,366102	-1,902294	9,506684	2020-10-29T19:09:32:846
-0,356531	-2,091327	9,516255	2020-10-29T19:09:32:870
-0,303888	-2,055435	9,470792	2020-10-29T19:09:32:885
-0,301496	-1,871187	9,516255	2020-10-29T19:09:32:909
-0,351745	-1,895115	9,427721	2020-10-29T19:09:32:925
-0,349352	-1,914258	9,463614	2020-10-29T19:09:32:950
-0,375673	-1,887937	9,470792	2020-10-29T19:09:32:966
-0,318245	-1,923829	9,501899	2020-10-29T19:09:32:988
-0,320638	-1,931008	9,504292	2020-10-29T19:09:33:006
-0,366102	-2,009971	9,552148	2020-10-29T19:09:33:030
-0,323031	-1,969293	9,511470	2020-10-29T19:09:33:046
-0,315853	-1,902294	9,492328	2020-10-29T19:09:33:069
-0,311067	-1,909473	9,540184	2020-10-29T19:09:33:087
-0,337388	-1,911865	9,530612	2020-10-29T19:09:33:109
-0,442672	-1,945365	9,564112	2020-10-29T19:09:33:126
-0,394816	-2,088934	9,487542	2020-10-29T19:09:33:149
-0,311067	-1,861616	9,470792	2020-10-29T19:09:33:166
-0,308674	-1,909473	9,571291	2020-10-29T19:09:33:189
-0,327817	-1,940579	9,485149	2020-10-29T19:09:33:206
-0,354138	-1,947758	9,446864	2020-10-29T19:09:33:228
-0,363709	-1,947758	9,475577	2020-10-29T19:09:33:246
-0,327817	-1,935793	9,415757	2020-10-29T19:09:33:270
-0,325424	-1,904687	9,480364	2020-10-29T19:09:33:286
-0,289532	-2,031506	9,525827	2020-10-29T19:09:33:309
-0,349352	-1,919044	9,470792	2020-10-29T19:09:33:327
-0,361316	-1,909473	9,513863	2020-10-29T19:09:33:350
-0,267996	-1,919044	9,466006	2020-10-29T19:09:33:366
-0,308674	-1,931008	9,499505	2020-10-29T19:09:33:388
-0,375673	-1,957329	9,473185	2020-10-29T19:09:33:406
-0,392423	-1,983650	9,463614	2020-10-29T19:09:33:431
-0,327817	-2,053042	9,521042	2020-10-29T19:09:33:447
-0,306281	-2,081756	9,477970	2020-10-29T19:09:33:469
-0,313460	-2,041078	9,444471	2020-10-29T19:09:33:486
-0,342174	-1,866402	9,537791	2020-10-29T19:09:33:510
-0,363709	-2,002793	9,489935	2020-10-29T19:09:33:526
-0,301496	-2,110470	9,468399	2020-10-29T19:09:33:549
-0,325424	-1,957329	9,477970	2020-10-29T19:09:33:569
-0,385244	-1,928615	9,513863	2020-10-29T19:09:33:589
-0,363709	-1,887937	9,504292	2020-10-29T19:09:33:607
-0,375673	-1,978864	9,482756	2020-10-29T19:09:33:629
-0,351745	-1,995614	9,518648	2020-10-29T19:09:33:646
-0,358923	-2,014757	9,470792	2020-10-29T19:09:33:670
-0,282353	-1,861616	9,413363	2020-10-29T19:09:33:687
-0,332602	-1,976472	9,513863	2020-10-29T19:09:33:709
-0,330210	-2,026721	9,525827	2020-10-29T19:09:33:726
-0,325424	-2,081756	9,396614	2020-10-29T19:09:33:751
-0,284746	-1,914258	9,420543	2020-10-29T19:09:33:766
-0,291924	-1,820938	9,583255	2020-10-29T19:09:33:789
-0,267996	-2,033899	9,523434	2020-10-29T19:09:33:808
-0,356531	-2,026721	9,422935	2020-10-29T19:09:33:830
-0,299103	-1,993221	9,528220	2020-10-29T19:09:33:847
-0,344566	-1,950150	9,578469	2020-10-29T19:09:33:870
-0,361316	-1,897508	9,477970	2020-10-29T19:09:33:886
-0,418744	-1,971686	9,444471	2020-10-29T19:09:33:910
-0,390030	-1,986043	9,513863	2020-10-29T19:09:33:926
-0,334995	-1,931008	9,475577	2020-10-29T19:09:33:949
-0,301496	-1,899901	9,444471	2020-10-29T19:09:33:966
-0,299103	-1,966900	9,480364	2020-10-29T19:09:33:990
-0,375673	-2,009971	9,477970	2020-10-29T19:09:34:007
-0,344566	-2,033899	9,516255	2020-10-29T19:09:34:029
-0,334995	-1,983650	9,518648	2020-10-29T19:09:34:048
-0,287139	-2,000400	9,566505	2020-10-29T19:09:34:069
-0,299103	-2,005185	9,458827	2020-10-29T19:09:34:086
-0,425922	-1,954936	9,439686	2020-10-29T19:09:34:110
-0,354138	-1,902294	9,489935	2020-10-29T19:09:34:127
-0,275175	-1,981257	9,466006	2020-10-29T19:09:34:150
-0,378066	-1,983650	9,470792	2020-10-29T19:09:34:167
-0,323031	-2,084148	9,477970	2020-10-29T19:09:34:189
-0,275175	-2,024328	9,477970	2020-10-29T19:09:34:207
-0,323031	-1,892723	9,449257	2020-10-29T19:09:34:230
-0,320638	-1,837688	9,504292	2020-10-29T19:09:34:247
-0,354138	-1,993221	9,463614	2020-10-29T19:09:34:269
-0,306281	-1,971686	9,552148	2020-10-29T19:09:34:288
-0,404387	-2,036292	9,561719	2020-10-29T19:09:34:310
-0,437887	-1,986043	9,489935	2020-10-29T19:09:34:327
-0,354138	-2,024328	9,523434	2020-10-29T19:09:34:350
-0,349352	-2,017149	9,489935	2020-10-29T19:09:34:367
-0,349352	-2,007578	9,456435	2020-10-29T19:09:34:390
-0,354138	-2,048256	9,528220	2020-10-29T19:09:34:407
-0,330210	-2,033899	9,494720	2020-10-29T19:09:34:429
-0,363709	-1,931008	9,482756	2020-10-29T19:09:34:447
-0,289532	-1,998007	9,466006	2020-10-29T19:09:34:470
-0,425922	-1,950150	9,480364	2020-10-29T19:09:34:487
-0,373280	-1,947758	9,542577	2020-10-29T19:09:34:510
-0,373280	-1,895115	9,489935	2020-10-29T19:09:34:528
-0,327817	-1,998007	9,485149	2020-10-29T19:09:34:550
-0,392423	-1,952543	9,516255	2020-10-29T19:09:34:568
-0,337388	-1,966900	9,540184	2020-10-29T19:09:34:590
-0,358923	-2,005185	9,528220	2020-10-29T19:09:34:607
-0,361316	-1,878366	9,482756	2020-10-29T19:09:34:630
-0,440279	-2,038685	9,504292	2020-10-29T19:09:34:647
-0,253639	-2,041078	9,501899	2020-10-29T19:09:34:670
-0,342174	-1,981257	9,513863	2020-10-29T19:09:34:687
-0,303888	-2,014757	9,547362	2020-10-29T19:09:34:712
-0,306281	-2,002793	9,468399	2020-10-29T19:09:34:727
-0,303888	-1,950150	9,499505	2020-10-29T19:09:34:751
-0,294317	-2,065006	9,487542	2020-10-29T19:09:34:770
-0,354138	-2,067399	9,516255	2020-10-29T19:09:34:791
-0,344566	-2,024328	9,463614	2020-10-29T19:09:34:808
-0,287139	-2,050649	9,509077	2020-10-29T19:09:34:830
-0,346959	-1,959722	9,528220	2020-10-29T19:09:34:848
-0,361316	-1,974079	9,468399	2020-10-29T19:09:34:871
-0,308674	-2,005185	9,475577	2020-10-29T19:09:34:887
-0,277567	-2,038685	9,506684	2020-10-29T19:09:34:910
-0,344566	-2,065006	9,521042	2020-10-29T19:09:34:927
-0,313460	-1,978864	9,477970	2020-10-29T19:09:34:951
-0,313460	-1,919044	9,451650	2020-10-29T19:09:34:967
-0,311067	-1,938186	9,492328	2020-10-29T19:09:34:990
-0,337388	-2,065006	9,530612	2020-10-29T19:09:35:009
-0,315853	-2,026721	9,463614	2020-10-29T19:09:35:031
-0,323031	-2,084148	9,480364	2020-10-29T19:09:35:049
-0,368495	-1,976472	9,497113	2020-10-29T19:09:35:071
-0,344566	-2,041078	9,399008	2020-10-29T19:09:35:087
-0,315853	-2,055435	9,552148	2020-10-29T19:09:35:111
-0,346959	-2,021935	9,576077	2020-10-29T19:09:35:128
-0,404387	-1,942972	9,451650	2020-10-29T19:09:35:150
-0,289532	-1,950150	9,454042	2020-10-29T19:09:35:176
-0,358923	-2,031506	9,547362	2020-10-29T19:09:35:191
-0,303888	-2,048256	9,456435	2020-10-29T19:09:35:207
-0,308674	-2,033899	9,463614	2020-10-29T19:09:35:230
-0,299103	-1,974079	9,461221	2020-10-29T19:09:35:249
-0,334995	-2,026721	9,552148	2020-10-29T19:09:35:271
-0,337388	-2,012364	9,482756	2020-10-29T19:09:35:288
-0,306281	-2,041078	9,511470	2020-10-29T19:09:35:311
-0,279960	-1,928615	9,528220	2020-10-29T19:09:35:328
-0,306281	-2,045863	9,540184	2020-10-29T19:09:35:352
-0,330210	-2,024328	9,489935	2020-10-29T19:09:35:368
-0,311067	-1,983650	9,523434	2020-10-29T19:09:35:390
-0,332602	-1,990828	9,518648	2020-10-29T19:09:35:408
-0,299103	-2,031506	9,530612	2020-10-29T19:09:35:431
-0,306281	-1,959722	9,439686	2020-10-29T19:09:35:448
-0,313460	-1,950150	9,470792	2020-10-29T19:09:35:470
-0,320638	-2,074577	9,530612	2020-10-29T19:09:35:488
-0,339781	-2,108077	9,518648	2020-10-29T19:09:35:512
-0,272782	-1,945365	9,528220	2020-10-29T19:09:35:528
-0,277567	-1,962115	9,533006	2020-10-29T19:09:35:551
-0,318245	-2,012364	9,430114	2020-10-29T19:09:35:568
-0,323031	-2,084148	9,492328	2020-10-29T19:09:35:592
-0,373280	-2,009971	9,487542	2020-10-29T19:09:35:609
-0,366102	-2,069792	9,535398	2020-10-29T19:09:35:631
-0,275175	-2,029114	9,451650	2020-10-29T19:09:35:648
-0,315853	-1,964507	9,401401	2020-10-29T19:09:35:673
-0,294317	-2,048256	9,494720	2020-10-29T19:09:35:688
-0,327817	-2,069792	9,482756	2020-10-29T19:09:35:711
-0,385244	-2,079363	9,475577	2020-10-29T19:09:35:729
-0,294317	-1,974079	9,523434	2020-10-29T19:09:35:753
-0,397209	-2,024328	9,523434	2020-10-29T19:09:35:768
-0,339781	-2,110470	9,485149	2020-10-29T19:09:35:791
-0,327817	-1,986043	9,458827	2020-10-29T19:09:35:808
-0,325424	-1,964507	9,451650	2020-10-29T19:09:35:832
-0,303888	-2,129612	9,470792	2020-10-29T19:09:35:849
-0,313460	-2,053042	9,458827	2020-10-29T19:09:35:872
-0,358923	-1,964507	9,473185	2020-10-29T19:09:35:888
-0,299103	-1,921437	9,501899	2020-10-29T19:09:35:913
-0,246461	-2,124826	9,504292	2020-10-29T19:09:35:928
-0,263210	-2,117648	9,556933	2020-10-29T19:09:35:951
-0,251246	-2,105684	9,446864	2020-10-29T19:09:35:969
-0,270389	-2,069792	9,501899	2020-10-29T19:09:35:993
-0,217747	-2,019542	9,475577	2020-10-29T19:09:36:009
-0,294317	-2,093720	9,528220	2020-10-29T19:09:36:032
-0,306281	-2,014757	9,418150	2020-10-29T19:09:36:060
-0,222532	-2,053042	9,509077	2020-10-29T19:09:36:074
-0,222532	-2,093720	9,468399	2020-10-29T19:09:36:088
-0,291924	-1,935793	9,444471	2020-10-29T19:09:36:112
-0,303888	-2,007578	9,504292	2020-10-29T19:09:36:131
-0,318245	-2,055435	9,480364	2020-10-29T19:09:36:193
-0,256032	-2,115255	9,437292	2020-10-29T19:09:36:194
-0,311067	-2,050649	9,487542	2020-10-29T19:09:36:197
-0,258425	-2,084148	9,549755	2020-10-29T19:09:36:211
-0,313460	-2,129612	9,403792	2020-10-29T19:09:36:233
-0,306281	-2,029114	9,430114	2020-10-29T19:09:36:266
-0,289532	-2,096112	9,544970	2020-10-29T19:09:36:281
-0,287139	-2,084148	9,463614	2020-10-29T19:09:36:305
-0,346959	-2,005185	9,511470	2020-10-29T19:09:36:312
-0,301496	-2,065006	9,499505	2020-10-29T19:09:36:328
-0,354138	-2,045863	9,506684	2020-10-29T19:09:36:350
-0,311067	-2,105684	9,482756	2020-10-29T19:09:36:368
-0,306281	-2,012364	9,480364	2020-10-29T19:09:36:392
-0,212961	-2,084148	9,518648	2020-10-29T19:09:36:409
-0,311067	-2,065006	9,437292	2020-10-29T19:09:36:431
-0,239282	-2,012364	9,499505	2020-10-29T19:09:36:450
-0,320638	-2,053042	9,513863	2020-10-29T19:09:36:472
-0,315853	-2,124826	9,449257	2020-10-29T19:09:36:488
-0,270389	-2,122434	9,473185	2020-10-29T19:09:36:512
-0,349352	-2,053042	9,470792	2020-10-29T19:09:36:529
-0,325424	-2,067399	9,533006	2020-10-29T19:09:36:554
-0,399601	-2,048256	9,437292	2020-10-29T19:09:36:569
-0,306281	-2,062613	9,497113	2020-10-29T19:09:36:592
-0,270389	-2,009971	9,434900	2020-10-29T19:09:36:611
-0,270389	-2,177469	9,533006	2020-10-29T19:09:36:640
-0,296710	-2,096112	9,394222	2020-10-29T19:09:36:649
-0,277567	-2,065006	9,463614	2020-10-29T19:09:36:672
-0,337388	-2,108077	9,544970	2020-10-29T19:09:36:690
-0,279960	-2,088934	9,535398	2020-10-29T19:09:36:714
-0,296710	-2,196611	9,427721	2020-10-29T19:09:36:729
-0,327817	-2,153540	9,466006	2020-10-29T19:09:36:752
-0,210568	-2,117648	9,482756	2020-10-29T19:09:36:769
-0,287139	-2,117648	9,446864	2020-10-29T19:09:36:793
-0,301496	-2,117648	9,458827	2020-10-29T19:09:36:810
-0,366102	-2,081756	9,425328	2020-10-29T19:09:36:832
-0,277567	-2,167897	9,501899	2020-10-29T19:09:36:850
-0,253639	-2,129612	9,477970	2020-10-29T19:09:36:873
-0,289532	-2,117648	9,492328	2020-10-29T19:09:36:889
-0,296710	-2,132005	9,463614	2020-10-29T19:09:36:912
-0,246461	-2,103291	9,480364	2020-10-29T19:09:36:934
-0,315853	-2,065006	9,473185	2020-10-29T19:09:36:956
-0,471386	-2,684747	9,355937	2020-10-29T19:11:02:288
-0,497707	-2,641676	9,355937	2020-10-29T19:11:02:296
-0,435494	-2,620141	9,320045	2020-10-29T19:11:02:299
-0,394816	-2,617748	9,336794	2020-10-29T19:11:02:331
-0,468993	-2,593820	9,346365	2020-10-29T19:11:02:347
-0,416351	-2,572284	9,339187	2020-10-29T19:11:02:348
-0,507278	-2,579463	9,401401	2020-10-29T19:11:02:348
-0,516850	-2,548356	9,377472	2020-10-29T19:11:02:349
-0,521635	-2,569891	9,329616	2020-10-29T19:11:02:349
-0,559920	-2,651247	9,341579	2020-10-29T19:11:02:350
-0,488136	-2,687140	9,317651	2020-10-29T19:11:02:364
-0,461815	-2,617748	9,279366	2020-10-29T19:11:02:435
-0,492921	-2,581856	9,308081	2020-10-29T19:11:02:443
-0,457029	-2,641676	9,334401	2020-10-29T19:11:02:444
-0,459422	-2,694318	9,327222	2020-10-29T19:11:02:445
-0,425922	-2,682354	9,226725	2020-10-29T19:11:02:446
-0,428315	-2,565106	9,274581	2020-10-29T19:11:02:451
-0,495314	-2,665605	9,396614	2020-10-29T19:11:02:925
-0,492921	-2,612962	9,300901	2020-10-29T19:11:02:939
-0,437887	-2,734996	9,241080	2020-10-29T19:11:02:961
-0,478565	-2,641676	9,370294	2020-10-29T19:11:02:978
-0,430708	-2,787638	9,322437	2020-10-29T19:11:03:003
-0,519243	-2,718246	9,276974	2020-10-29T19:11:03:018
-0,433101	-2,627320	9,346365	2020-10-29T19:11:03:041
-0,521635	-2,687140	9,286544	2020-10-29T19:11:03:058
-0,445065	-2,624927	9,329616	2020-10-29T19:11:03:081
-0,468993	-2,701497	9,353544	2020-10-29T19:11:03:099
-0,492921	-2,589034	9,291330	2020-10-29T19:11:03:121
-0,512064	-2,670390	9,293723	2020-10-29T19:11:03:137
-0,485743	-2,715853	9,281759	2020-10-29T19:11:03:160
-0,516850	-2,737389	9,382257	2020-10-29T19:11:03:177
-0,488136	-2,651247	9,332008	2020-10-29T19:11:03:201
-0,574277	-2,730211	9,298509	2020-10-29T19:11:03:217
-0,555135	-2,672783	9,293723	2020-10-29T19:11:03:240
-0,480957	-2,672783	9,334401	2020-10-29T19:11:03:257
-0,480957	-2,665605	9,308081	2020-10-29T19:11:03:282
-0,433101	-2,672783	9,334401	2020-10-29T19:11:03:298
-0,524028	-2,761317	9,399008	2020-10-29T19:11:03:320
-0,466600	-2,732604	9,286544	2020-10-29T19:11:03:338
-0,445065	-2,632105	9,320045	2020-10-29T19:11:03:361
-0,492921	-2,644069	9,276974	2020-10-29T19:11:03:378
-0,461815	-2,679961	9,358330	2020-10-29T19:11:03:401
-0,447458	-2,778067	9,353544	2020-10-29T19:11:03:417
-0,466600	-2,746960	9,322437	2020-10-29T19:11:03:441
-0,476172	-2,641676	9,312866	2020-10-29T19:11:03:457
-0,495314	-2,723032	9,317651	2020-10-29T19:11:03:480
-0,466600	-2,799603	9,399008	2020-10-29T19:11:03:498
-0,483350	-2,782853	9,279366	2020-10-29T19:11:03:523
-0,476172	-2,627320	9,241080	2020-10-29T19:11:03:537
-0,397209	-2,646462	9,367901	2020-10-29T19:11:03:561
-0,452243	-2,641676	9,324830	2020-10-29T19:11:03:579
-0,473779	-2,785245	9,403792	2020-10-29T19:11:03:601
-0,488136	-2,801995	9,341579	2020-10-29T19:11:03:617
-0,466600	-2,634498	9,262616	2020-10-29T19:11:03:640
-0,478565	-2,694318	9,348758	2020-10-29T19:11:03:657
-0,490529	-2,823531	9,365508	2020-10-29T19:11:03:683
-0,497707	-2,763710	9,291330	2020-10-29T19:11:03:698
-0,430708	-2,758924	9,236296	2020-10-29T19:11:03:721
-0,430708	-2,636890	9,248260	2020-10-29T19:11:03:738
-0,440279	-2,708675	9,269794	2020-10-29T19:11:03:761
-0,435494	-2,713461	9,310472	2020-10-29T19:11:03:778
-0,406780	-2,754139	9,324830	2020-10-29T19:11:03:801
-0,447458	-2,768496	9,298509	2020-10-29T19:11:03:819
-0,425922	-2,744568	9,276974	2020-10-29T19:11:03:841
-0,454636	-2,758924	9,308081	2020-10-29T19:11:03:858
-0,433101	-2,732604	9,291330	2020-10-29T19:11:03:881
-0,433101	-2,744568	9,281759	2020-10-29T19:11:03:898
-0,540778	-2,720639	9,298509	2020-10-29T19:11:03:923
-0,394816	-2,737389	9,312866	2020-10-29T19:11:03:938
-0,516850	-2,794817	9,353544	2020-10-29T19:11:03:961
-0,435494	-2,794817	9,351151	2020-10-29T19:11:03:978
-0,437887	-2,715853	9,296116	2020-10-29T19:11:04:002
-0,401994	-2,787638	9,343972	2020-10-29T19:11:04:018
-0,416351	-2,816352	9,327222	2020-10-29T19:11:04:042
-0,543171	-2,809174	9,308081	2020-10-29T19:11:04:059
-0,528814	-2,701497	9,267403	2020-10-29T19:11:04:082
-0,490529	-2,778067	9,300901	2020-10-29T19:11:04:098
-0,459422	-2,787638	9,303294	2020-10-29T19:11:04:121
-0,421137	-2,703890	9,209974	2020-10-29T19:11:04:138
-0,459422	-2,701497	9,317651	2020-10-29T19:11:04:162
-0,423530	-2,835495	9,303294	2020-10-29T19:11:04:178
-0,406780	-2,756532	9,341579	2020-10-29T19:11:04:222
-0,452243	-2,763710	9,324830	2020-10-29T19:11:04:224
-0,423530	-2,778067	9,341579	2020-10-29T19:11:04:243
-0,390030	-2,732604	9,284152	2020-10-29T19:11:04:258
-0,385244	-2,830709	9,310472	2020-10-29T19:11:04:281
-0,509671	-2,754139	9,327222	2020-10-29T19:11:04:299
-0,488136	-2,737389	9,329616	2020-10-29T19:11:04:321
-0,461815	-2,723032	9,279366	2020-10-29T19:11:04:338
-0,524028	-2,713461	9,382257	2020-10-29T19:11:04:360
-0,416351	-2,787638	9,339187	2020-10-29T19:11:04:378
-0,401994	-2,749353	9,265009	2020-10-29T19:11:04:403
-0,452243	-2,782853	9,310472	2020-10-29T19:11:04:418
-0,452243	-2,792424	9,312866	2020-10-29T19:11:04:440
-0,509671	-2,737389	9,334401	2020-10-29T19:11:04:458
-0,385244	-2,811567	9,293723	2020-10-29T19:11:04:482
-0,387637	-2,792424	9,312866	2020-10-29T19:11:04:498
-0,416351	-2,751746	9,288938	2020-10-29T19:11:04:522
-0,449851	-2,742175	9,348758	2020-10-29T19:11:04:539
-0,425922	-2,739782	9,300901	2020-10-29T19:11:04:561
-0,387637	-2,723032	9,303294	2020-10-29T19:11:04:578
-0,413958	-2,737389	9,312866	2020-10-29T19:11:04:602
-0,452243	-2,825923	9,348758	2020-10-29T19:11:04:618
-0,459422	-2,701497	9,262616	2020-10-29T19:11:04:643
-0,399601	-2,718246	9,324830	2020-10-29T19:11:04:658
-0,382852	-2,761317	9,291330	2020-10-29T19:11:04:681
-0,473779	-2,823531	9,387043	2020-10-29T19:11:04:698
-0,480957	-2,766103	9,317651	2020-10-29T19:11:04:722
-0,521635	-2,629712	9,303294	2020-10-29T19:11:04:738
-0,435494	-2,739782	9,343972	2020-10-29T19:11:04:761
-0,514457	-2,880959	9,320045	2020-10-29T19:11:04:780
-0,416351	-2,782853	9,315259	2020-10-29T19:11:04:802
-0,425922	-2,751746	9,293723	2020-10-29T19:11:04:818
-0,425922	-2,600998	9,353544	2020-10-29T19:11:04:841
-0,447458	-2,730211	9,267403	2020-10-29T19:11:04:858
-0,390030	-2,787638	9,300901	2020-10-29T19:11:04:882
-0,454636	-2,744568	9,334401	2020-10-29T19:11:04:899
-0,435494	-2,687140	9,300901	2020-10-29T19:11:04:921
-0,418744	-2,785245	9,255438	2020-10-29T19:11:04:939
-0,464208	-2,821138	9,334401	2020-10-29T19:11:04:962
-0,471386	-2,852244	9,363115	2020-10-29T19:11:04:978
-0,411566	-2,739782	9,310472	2020-10-29T19:11:05:001
-0,449851	-2,730211	9,363115	2020-10-29T19:11:05:020
-0,423530	-2,775674	9,351151	2020-10-29T19:11:05:042
-0,447458	-2,792424	9,291330	2020-10-29T19:11:05:059
-0,416351	-2,727818	9,265009	2020-10-29T19:11:05:082
-0,454636	-2,689533	9,355937	2020-10-29T19:11:05:099
-0,342174	-2,775674	9,296116	2020-10-29T19:11:05:123
-0,399601	-2,782853	9,298509	2020-10-29T19:11:05:139
-0,416351	-2,787638	9,312866	2020-10-29T19:11:05:161
-0,452243	-2,756532	9,269794	2020-10-29T19:11:05:179
-0,533599	-2,701497	9,343972	2020-10-29T19:11:05:202
-0,411566	-2,742175	9,272188	2020-10-29T19:11:05:218
-0,418744	-2,780460	9,312866	2020-10-29T19:11:05:243
-0,442672	-2,770889	9,248260	2020-10-29T19:11:05:260
-0,442672	-2,725425	9,353544	2020-10-29T19:11:05:283
-0,413958	-2,742175	9,320045	2020-10-29T19:11:05:300
-0,471386	-2,682354	9,281759	2020-10-29T19:11:05:322
-0,418744	-2,782853	9,298509	2020-10-29T19:11:05:339
-0,440279	-2,756532	9,339187	2020-10-29T19:11:05:364
-0,476172	-2,766103	9,379865	2020-10-29T19:11:05:379
-0,416351	-2,768496	9,274581	2020-10-29T19:11:05:401
-0,473779	-2,828316	9,348758	2020-10-29T19:11:05:419
-0,437887	-2,746960	9,406186	2020-10-29T19:11:05:442
-0,440279	-2,746960	9,327222	2020-10-29T19:11:05:459
-0,473779	-2,751746	9,320045	2020-10-29T19:11:05:483
-0,428315	-2,687140	9,312866	2020-10-29T19:11:05:500
-0,401994	-2,797210	9,317651	2020-10-29T19:11:05:522
-0,392423	-2,854637	9,332008	2020-10-29T19:11:05:539
-0,416351	-2,701497	9,286544	2020-10-29T19:11:05:562
-0,461815	-2,713461	9,317651	2020-10-29T19:11:05:579
-0,416351	-2,749353	9,332008	2020-10-29T19:11:05:603
-0,466600	-2,737389	9,269794	2020-10-29T19:11:05:619
-0,411566	-2,718246	9,363115	2020-10-29T19:11:05:642
-0,430708	-2,761317	9,351151	2020-10-29T19:11:05:659
-0,445065	-2,732604	9,312866	2020-10-29T19:11:05:683
-0,392423	-2,778067	9,315259	2020-10-29T19:11:05:700
-0,428315	-2,775674	9,315259	2020-10-29T19:11:05:723
-0,404387	-2,811567	9,327222	2020-10-29T19:11:05:740
-0,452243	-2,806781	9,332008	2020-10-29T19:11:05:762
-0,459422	-2,727818	9,320045	2020-10-29T19:11:05:780
-0,421137	-2,804388	9,308081	2020-10-29T19:11:05:802
-0,512064	-2,840281	9,286544	2020-10-29T19:11:05:819
-0,449851	-2,737389	9,353544	2020-10-29T19:11:05:843
-0,502493	-2,780460	9,370294	2020-10-29T19:11:05:860
-0,483350	-2,785245	9,288938	2020-10-29T19:11:05:882
-0,421137	-2,687140	9,255438	2020-10-29T19:11:05:900
-0,401994	-2,766103	9,370294	2020-10-29T19:11:05:923
-0,461815	-2,758924	9,339187	2020-10-29T19:11:05:939
-0,473779	-2,632105	9,322437	2020-10-29T19:11:05:962
-0,528814	-2,727818	9,255438	2020-10-29T19:11:05:981
-0,466600	-2,751746	9,315259	2020-10-29T19:11:06:003
-0,416351	-2,825923	9,332008	2020-10-29T19:11:06:020
-0,416351	-2,758924	9,315259	2020-10-29T19:11:06:043
-0,423530	-2,792424	9,346365	2020-10-29T19:11:06:060
-0,428315	-2,660819	9,334401	2020-10-29T19:11:06:084
-0,428315	-2,773281	9,272188	2020-10-29T19:11:06:100
-0,466600	-2,715853	9,315259	2020-10-29T19:11:06:123
-0,399601	-2,725425	9,372685	2020-10-29T19:11:06:140
-0,440279	-2,711068	9,339187	2020-10-29T19:11:06:163
-0,468993	-2,739782	9,358330	2020-10-29T19:11:06:180
-0,464208	-2,763710	9,303294	2020-10-29T19:11:06:204
-0,516850	-2,773281	9,370294	2020-10-29T19:11:06:221
-0,459422	-2,701497	9,253045	2020-10-29T19:11:06:244
-0,500100	-2,687140	9,329616	2020-10-29T19:11:06:260
-0,521635	-2,718246	9,317651	2020-10-29T19:11:06:283
-0,449851	-2,828316	9,310472	2020-10-29T19:11:06:300
-0,413958	-2,758924	9,293723	2020-10-29T19:11:06:324
-0,473779	-2,703890	9,298509	2020-10-29T19:11:06:340
-0,483350	-2,749353	9,339187	2020-10-29T19:11:06:363
-0,464208	-2,730211	9,308081	2020-10-29T19:11:06:380
-0,516850	-2,725425	9,329616	2020-10-29T19:11:06:405
-0,461815	-2,718246	9,382257	2020-10-29T19:11:06:420
-0,452243	-2,763710	9,298509	2020-10-29T19:11:06:443
-0,509671	-2,782853	9,291330	2020-10-29T19:11:06:461
-0,351745	-2,627320	9,284152	2020-10-29T19:11:06:484
-0,483350	-2,727818	9,336794	2020-10-29T19:11:06:500
-0,413958	-2,689533	9,315259	2020-10-29T19:11:06:524
-0,488136	-2,749353	9,265009	2020-10-29T19:11:06:540
-0,502493	-2,744568	9,257831	2020-10-29T19:11:06:564
-0,452243	-2,866602	9,286544	2020-10-29T19:11:06:581
-0,457029	-2,718246	9,399008	2020-10-29T19:11:06:603
-0,471386	-2,737389	9,324830	2020-10-29T19:11:06:621
-0,435494	-2,737389	9,339187	2020-10-29T19:11:06:645
-0,507278	-2,758924	9,334401	2020-10-29T19:11:06:660
-0,502493	-2,778067	9,324830	2020-10-29T19:11:06:684
-0,454636	-2,667997	9,296116	2020-10-29T19:11:06:701
-0,504886	-2,732604	9,377472	2020-10-29T19:11:06:724
-0,547956	-2,675175	9,360723	2020-10-29T19:11:06:740
-0,514457	-2,696711	9,363115	2020-10-29T19:11:06:763
-0,495314	-2,749353	9,332008	2020-10-29T19:11:06:780
-0,433101	-2,689533	9,384650	2020-10-29T19:11:06:804
-0,552742	-2,651247	9,255438	2020-10-29T19:11:06:820
-0,440279	-2,763710	9,308081	2020-10-29T19:11:06:843
-0,507278	-2,868994	9,375079	2020-10-29T19:11:06:860
-0,406780	-2,703890	9,322437	2020-10-29T19:11:06:884
-0,488136	-2,612962	9,305687	2020-10-29T19:11:06:900
-0,492921	-2,670390	9,348758	2020-10-29T19:11:06:923
-0,433101	-2,723032	9,286544	2020-10-29T19:11:06:941
-0,497707	-2,739782	9,300901	2020-10-29T19:11:06:964
-0,428315	-2,739782	9,322437	2020-10-29T19:11:06:981
-0,480957	-2,689533	9,288938	2020-10-29T19:11:07:003
-0,504886	-2,675175	9,284152	2020-10-29T19:11:07:020
-0,504886	-2,675175	9,308081	2020-10-29T19:11:07:045
-0,452243	-2,742175	9,377472	2020-10-29T19:11:07:061
-0,483350	-2,677568	9,305687	2020-10-29T19:11:07:083
-0,497707	-2,701497	9,296116	2020-10-29T19:11:07:101
-0,550349	-2,720639	9,320045	2020-10-29T19:11:07:124
-0,519243	-2,742175	9,348758	2020-10-29T19:11:07:141
-0,488136	-2,665605	9,315259	2020-10-29T19:11:07:163
-0,430708	-2,672783	9,370294	2020-10-29T19:11:07:181
-0,514457	-2,708675	9,324830	2020-10-29T19:11:07:205
-0,497707	-2,744568	9,291330	2020-10-29T19:11:07:221
-0,502493	-2,689533	9,367901	2020-10-29T19:11:07:244
-0,519243	-2,720639	9,300901	2020-10-29T19:11:07:261
-0,452243	-2,665605	9,384650	2020-10-29T19:11:07:285
-0,440279	-2,720639	9,310472	2020-10-29T19:11:07:301
-0,533599	-2,672783	9,308081	2020-10-29T19:11:07:324
-0,533599	-2,677568	9,454042	2020-10-29T19:11:07:341
-0,466600	-2,646462	9,341579	2020-10-29T19:11:07:364
-0,468993	-2,663212	9,303294	2020-10-29T19:11:07:381
-0,490529	-2,627320	9,336794	2020-10-29T19:11:07:404
-0,466600	-2,732604	9,394222	2020-10-29T19:11:07:422
-0,492921	-2,670390	9,370294	2020-10-29T19:11:07:444
-0,500100	-2,675175	9,296116	2020-10-29T19:11:07:461
-0,471386	-2,648855	9,341579	2020-10-29T19:11:07:484
-0,483350	-2,615355	9,403792	2020-10-29T19:11:07:501
-0,454636	-2,667997	9,336794	2020-10-29T19:11:07:525
-0,480957	-2,701497	9,276974	2020-10-29T19:11:07:541
-0,452243	-2,656033	9,343972	2020-10-29T19:11:07:564
-0,547956	-2,644069	9,332008	2020-10-29T19:11:07:581
-0,437887	-2,687140	9,327222	2020-10-29T19:11:07:605
-0,480957	-2,689533	9,288938	2020-10-29T19:11:07:621
-0,502493	-2,708675	9,332008	2020-10-29T19:11:07:644
-0,464208	-2,562713	9,274581	2020-10-29T19:11:07:662
-0,478565	-2,624927	9,324830	2020-10-29T19:11:07:685
-0,404387	-2,701497	9,343972	2020-10-29T19:11:07:701
-0,502493	-2,667997	9,288938	2020-10-29T19:11:07:725
-0,519243	-2,612962	9,286544	2020-10-29T19:11:07:741
-0,593420	-2,560320	9,351151	2020-10-29T19:11:07:764
-0,514457	-2,603391	9,322437	2020-10-29T19:11:07:781
-0,370888	-2,641676	9,276974	2020-10-29T19:11:07:804
-0,435494	-2,737389	9,329616	2020-10-29T19:11:07:821
-0,411566	-2,689533	9,401401	2020-10-29T19:11:07:846
-0,468993	-2,648855	9,324830	2020-10-29T19:11:07:861
-0,509671	-2,553142	9,281759	2020-10-29T19:11:07:884
-0,464208	-2,612962	9,387043	2020-10-29T19:11:07:903
-0,521635	-2,696711	9,296116	2020-10-29T19:11:07:929
-0,442672	-2,684747	9,308081	2020-10-29T19:11:07:941
-0,471386	-2,648855	9,310472	2020-10-29T19:11:07:964
-0,464208	-2,617748	9,372685	2020-10-29T19:11:07:981
-0,471386	-2,627320	9,286544	2020-10-29T19:11:08:005
-0,504886	-2,670390	9,329616	2020-10-29T19:11:08:021
-0,562313	-2,569891	9,332008	2020-10-29T19:11:08:044
-0,464208	-2,646462	9,305687	2020-10-29T19:11:08:062
-0,514457	-2,708675	9,346365	2020-10-29T19:11:08:085
-0,543171	-2,701497	9,293723	2020-10-29T19:11:08:101
-0,454636	-2,555535	9,377472	2020-10-29T19:11:08:125
-0,483350	-2,677568	9,375079	2020-10-29T19:11:08:142
-0,423530	-2,612962	9,334401	2020-10-29T19:11:08:165
-0,490529	-2,579463	9,293723	2020-10-29T19:11:08:182
-0,516850	-2,675175	9,413363	2020-10-29T19:11:08:205
-0,526421	-2,663212	9,298509	2020-10-29T19:11:08:221
-0,409173	-2,679961	9,303294	2020-10-29T19:11:08:246
-0,526421	-2,577070	9,324830	2020-10-29T19:11:08:261
-0,464208	-2,603391	9,341579	2020-10-29T19:11:08:285
-0,468993	-2,641676	9,370294	2020-10-29T19:11:08:302
-0,459422	-2,701497	9,353544	2020-10-29T19:11:08:326
-0,488136	-2,653640	9,387043	2020-10-29T19:11:08:341
-0,483350	-2,653640	9,375079	2020-10-29T19:11:08:364
-0,459422	-2,641676	9,317651	2020-10-29T19:11:08:383
-0,507278	-2,644069	9,322437	2020-10-29T19:11:08:405
-0,445065	-2,715853	9,360723	2020-10-29T19:11:08:422
-0,543171	-2,699104	9,358330	2020-10-29T19:11:08:445
-0,545564	-2,560320	9,372685	2020-10-29T19:11:08:461
-0,452243	-2,656033	9,308081	2020-10-29T19:11:08:486
-0,507278	-2,694318	9,312866	2020-10-29T19:11:08:502
-0,476172	-2,646462	9,322437	2020-10-29T19:11:08:525
-0,550349	-2,553142	9,355937	2020-10-29T19:11:08:542
-0,449851	-2,646462	9,360723	2020-10-29T19:11:08:565
-0,526421	-2,581856	9,298509	2020-10-29T19:11:08:582
-0,528814	-2,555535	9,353544	2020-10-29T19:11:08:605
-0,531207	-2,646462	9,360723	2020-10-29T19:11:08:623
-0,495314	-2,667997	9,399008	2020-10-29T19:11:08:645
-0,531207	-2,684747	9,320045	2020-10-29T19:11:08:662
-0,521635	-2,660819	9,317651	2020-10-29T19:11:08:686
-0,567099	-2,689533	9,303294	2020-10-29T19:11:08:702
-0,516850	-2,739782	9,343972	2020-10-29T19:11:08:726
-0,567099	-2,715853	9,351151	2020-10-29T19:11:08:742
-0,516850	-2,612962	9,360723	2020-10-29T19:11:08:764
-0,480957	-2,584249	9,336794	2020-10-29T19:11:08:782
-0,473779	-2,567499	9,341579	2020-10-29T19:11:08:806
-0,528814	-2,586641	9,327222	2020-10-29T19:11:08:822
-0,540778	-2,675175	9,367901	2020-10-29T19:11:08:845
-0,512064	-2,679961	9,286544	2020-10-29T19:11:08:865
-0,540778	-2,696711	9,312866	2020-10-29T19:11:08:886
-0,500100	-2,744568	9,396614	2020-10-29T19:11:08:902
-0,483350	-2,648855	9,341579	2020-10-29T19:11:08:926
-0,459422	-2,653640	9,336794	2020-10-29T19:11:08:942
-0,540778	-2,720639	9,410972	2020-10-29T19:11:08:966
-0,531207	-2,591427	9,341579	2020-10-29T19:11:08:983
-0,562313	-2,636890	9,348758	2020-10-29T19:11:09:005
-0,514457	-2,682354	9,334401	2020-10-29T19:11:09:023
-0,564706	-2,689533	9,336794	2020-10-29T19:11:09:047
-0,471386	-2,620141	9,336794	2020-10-29T19:11:09:064
-0,447458	-2,529213	9,365508	2020-10-29T19:11:09:086
-0,540778	-2,593820	9,245867	2020-10-29T19:11:09:104
-0,500100	-2,679961	9,315259	2020-10-29T19:11:09:127
-0,524028	-2,672783	9,324830	2020-10-29T19:11:09:143
-0,492921	-2,677568	9,355937	2020-10-29T19:11:09:166
-0,581456	-2,639283	9,358330	2020-10-29T19:11:09:183
-0,516850	-2,620141	9,329616	2020-10-29T19:11:09:206
-0,504886	-2,605784	9,370294	2020-10-29T19:11:09:222
-0,485743	-2,667997	9,365508	2020-10-29T19:11:09:245
-0,519243	-2,610569	9,329616	2020-10-29T19:11:09:263
-0,452243	-2,529213	9,339187	2020-10-29T19:11:09:288
-0,528814	-2,636890	9,363115	2020-10-29T19:11:09:303
-0,500100	-2,706282	9,279366	2020-10-29T19:11:09:325
-0,524028	-2,634498	9,279366	2020-10-29T19:11:09:344
-0,500100	-2,608176	9,284152	2020-10-29T19:11:09:367
-0,485743	-2,667997	9,396614	2020-10-29T19:11:09:383
-0,476172	-2,641676	9,286544	2020-10-29T19:11:09:406
-0,435494	-2,605784	9,305687	2020-10-29T19:11:09:423
-0,514457	-2,620141	9,403792	2020-10-29T19:11:09:447
-0,538385	-2,660819	9,391829	2020-10-29T19:11:09:463
-0,567099	-2,617748	9,334401	2020-10-29T19:11:09:486
-0,495314	-2,679961	9,351151	2020-10-29T19:11:09:503
-0,416351	-2,622534	9,300901	2020-10-29T19:11:09:528
-0,555135	-2,627320	9,353544	2020-10-29T19:11:09:543
-0,445065	-2,670390	9,336794	2020-10-29T19:11:09:566
-0,478565	-2,605784	9,353544	2020-10-29T19:11:09:585
-0,464208	-2,720639	9,317651	2020-10-29T19:11:09:607
-0,447458	-2,711068	9,296116	2020-10-29T19:11:09:623
-0,449851	-2,620141	9,312866	2020-10-29T19:11:09:646
-0,473779	-2,660819	9,394222	2020-10-29T19:11:09:663
-0,516850	-2,734996	9,387043	2020-10-29T19:11:09:687
-0,500100	-2,658426	9,274581	2020-10-29T19:11:09:704
-0,457029	-2,569891	9,324830	2020-10-29T19:11:09:725
-0,545564	-2,632105	9,387043	2020-10-29T19:11:09:744
-0,480957	-2,660819	9,310472	2020-10-29T19:11:09:767
-0,492921	-2,617748	9,336794	2020-10-29T19:11:09:783
-0,466600	-2,615355	9,387043	2020-10-29T19:11:09:806
-0,492921	-2,636890	9,336794	2020-10-29T19:11:09:824
-0,526421	-2,636890	9,317651	2020-10-29T19:11:09:847
-0,500100	-2,658426	9,353544	2020-10-29T19:11:09:863
-0,514457	-2,581856	9,387043	2020-10-29T19:11:09:886
-0,473779	-2,569891	9,348758	2020-10-29T19:11:09:904
-0,445065	-2,603391	9,372685	2020-10-29T19:11:09:928
-0,540778	-2,644069	9,399008	2020-10-29T19:11:09:944
-0,528814	-2,591427	9,276974	2020-10-29T19:11:09:966
-0,497707	-2,577070	9,324830	2020-10-29T19:11:09:984
-0,502493	-2,569891	9,396614	2020-10-29T19:11:10:007
-0,459422	-2,737389	9,332008	2020-10-29T19:11:10:023
-0,516850	-2,565106	9,296116	2020-10-29T19:11:10:047
-0,504886	-2,581856	9,365508	2020-10-29T19:11:10:065
-0,533599	-2,603391	9,375079	2020-10-29T19:11:10:087
-0,550349	-2,656033	9,336794	2020-10-29T19:11:10:105
-0,509671	-2,624927	9,355937	2020-10-29T19:11:10:126
-0,442672	-2,679961	9,372685	2020-10-29T19:11:10:143
-0,514457	-2,696711	9,308081	2020-10-29T19:11:10:167
-0,569492	-2,577070	9,327222	2020-10-29T19:11:10:184
-0,535992	-2,569891	9,363115	2020-10-29T19:11:10:206
-0,423530	-2,639283	9,370294	2020-10-29T19:11:10:224
-0,464208	-2,711068	9,298509	2020-10-29T19:11:10:247
-0,454636	-2,586641	9,279366	2020-10-29T19:11:10:264
-0,468993	-2,622534	9,387043	2020-10-29T19:11:10:287
-0,535992	-2,644069	9,348758	2020-10-29T19:11:10:305
-0,476172	-2,608176	9,363115	2020-10-29T19:11:10:327
-0,478565	-2,577070	9,284152	2020-10-29T19:11:10:344
-0,497707	-2,679961	9,355937	2020-10-29T19:11:10:366
-0,557528	-2,603391	9,310472	2020-10-29T19:11:10:385
-0,461815	-2,560320	9,296116	2020-10-29T19:11:10:409
-0,459422	-2,629712	9,367901	2020-10-29T19:11:10:424
-0,516850	-2,651247	9,399008	2020-10-29T19:11:10:446
-0,442672	-2,629712	9,339187	2020-10-29T19:11:10:464
-0,524028	-2,569891	9,353544	2020-10-29T19:11:10:488
-0,476172	-2,677568	9,394222	2020-10-29T19:11:10:506
-0,454636	-2,608176	9,312866	2020-10-29T19:11:10:527
-0,445065	-2,600998	9,320045	2020-10-29T19:11:10:546
-0,483350	-2,610569	9,375079	2020-10-29T19:11:10:567
-0,478565	-2,600998	9,324830	2020-10-29T19:11:10:585
-0,490529	-2,622534	9,327222	2020-10-29T19:11:10:607
-0,485743	-2,569891	9,389436	2020-10-29T19:11:10:625
-0,509671	-2,632105	9,339187	2020-10-29T19:11:10:648
-0,478565	-2,562713	9,336794	2020-10-29T19:11:10:665
-0,545564	-2,675175	9,317651	2020-10-29T19:11:10:687
-0,480957	-2,701497	9,367901	2020-10-29T19:11:10:705
-0,492921	-2,593820	9,353544	2020-10-29T19:11:10:728
-0,480957	-2,562713	9,332008	2020-10-29T19:11:10:745
-0,471386	-2,586641	9,324830	2020-10-29T19:11:10:767
-0,449851	-2,502892	9,353544	2020-10-29T19:11:10:786
-0,504886	-2,660819	9,372685	2020-10-29T19:11:10:808
-0,524028	-2,586641	9,370294	2020-10-29T19:11:10:825
-0,468993	-2,656033	9,353544	2020-10-29T19:11:10:847
-0,473779	-2,672783	9,348758	2020-10-29T19:11:10:865
-0,466600	-2,656033	9,276974	2020-10-29T19:11:10:888
-0,524028	-2,672783	9,334401	2020-10-29T19:11:10:905
-0,488136	-2,593820	9,320045	2020-10-29T19:11:10:927
-0,464208	-2,675175	9,339187	2020-10-29T19:11:10:945
-0,526421	-2,665605	9,363115	2020-10-29T19:11:10:968
-0,480957	-2,689533	9,305687	2020-10-29T19:11:10:985
-0,430708	-2,620141	9,339187	2020-10-29T19:11:11:007
-0,461815	-2,651247	9,346365	2020-10-29T19:11:11:025
-0,466600	-2,603391	9,348758	2020-10-29T19:11:11:048
-0,497707	-2,622534	9,360723	2020-10-29T19:11:11:065
-0,468993	-2,653640	9,293723	2020-10-29T19:11:11:087
-0,471386	-2,632105	9,363115	2020-10-29T19:11:11:105
-0,483350	-2,701497	9,370294	2020-10-29T19:11:11:128
-0,452243	-2,675175	9,334401	2020-10-29T19:11:11:144
-0,423530	-2,617748	9,327222	2020-10-29T19:11:11:167
-0,528814	-2,699104	9,365508	2020-10-29T19:11:11:185
-0,509671	-2,653640	9,329616	2020-10-29T19:11:11:208
-0,476172	-2,593820	9,343972	2020-10-29T19:11:11:224
-0,488136	-2,708675	9,346365	2020-10-29T19:11:11:247
-0,390030	-2,715853	9,315259	2020-10-29T19:11:11:265
-0,514457	-2,663212	9,332008	2020-10-29T19:11:11:288
-0,466600	-2,677568	9,418150	2020-10-29T19:11:11:305
-0,473779	-2,646462	9,396614	2020-10-29T19:11:11:328
-0,483350	-2,708675	9,286544	2020-10-29T19:11:11:345
-0,449851	-2,687140	9,334401	2020-10-29T19:11:11:369
-0,435494	-2,651247	9,341579	2020-10-29T19:11:11:385
-0,418744	-2,636890	9,322437	2020-10-29T19:11:11:407
-0,435494	-2,701497	9,308081	2020-10-29T19:11:11:425
-0,483350	-2,667997	9,267403	2020-10-29T19:11:11:448
-0,430708	-2,646462	9,367901	2020-10-29T19:11:11:465
-0,490529	-2,675175	9,372685	2020-10-29T19:11:11:489
-0,445065	-2,574677	9,332008	2020-10-29T19:11:11:506
-0,452243	-2,715853	9,312866	2020-10-29T19:11:11:528
-0,476172	-2,694318	9,341579	2020-10-29T19:11:11:545
-0,380459	-2,754139	9,396614	2020-10-29T19:11:11:568
-0,471386	-2,624927	9,300901	2020-10-29T19:11:11:585
-0,423530	-2,622534	9,355937	2020-10-29T19:11:11:609
-0,452243	-2,672783	9,308081	2020-10-29T19:11:11:625
-0,418744	-2,665605	9,320045	2020-10-29T19:11:11:647
-0,437887	-2,653640	9,327222	2020-10-29T19:11:11:666
-0,514457	-2,639283	9,382257	2020-10-29T19:11:11:689
-0,552742	-2,634498	9,315259	2020-10-29T19:11:11:705
-0,418744	-2,603391	9,377472	2020-10-29T19:11:11:729
-0,428315	-2,634498	9,312866	2020-10-29T19:11:11:746
-0,454636	-2,617748	9,367901	2020-10-29T19:11:11:768
-0,526421	-2,615355	9,372685	2020-10-29T19:11:11:786
-0,533599	-2,565106	9,322437	2020-10-29T19:11:11:808
-0,466600	-2,734996	9,375079	2020-10-29T19:11:11:825
-0,466600	-2,730211	9,336794	2020-10-29T19:11:11:849
-0,411566	-2,694318	9,308081	2020-10-29T19:11:11:865
-0,483350	-2,653640	9,308081	2020-10-29T19:11:11:888
-0,401994	-2,713461	9,353544	2020-10-29T19:11:11:906
-0,476172	-2,696711	9,343972	2020-10-29T19:11:11:929
-0,445065	-2,656033	9,298509	2020-10-29T19:11:11:945
-0,464208	-2,679961	9,353544	2020-10-29T19:11:11:969
-0,425922	-2,734996	9,324830	2020-10-29T19:11:11:988
-0,471386	-2,684747	9,315259	2020-10-29T19:11:12:009
-0,418744	-2,670390	9,293723	2020-10-29T19:11:12:026
-0,454636	-2,734996	9,367901	2020-10-29T19:11:12:048
-0,433101	-2,718246	9,322437	2020-10-29T19:11:12:065
-0,452243	-2,670390	9,284152	2020-10-29T19:11:12:089
-0,392423	-2,711068	9,320045	2020-10-29T19:11:12:106
-0,404387	-2,842674	9,288938	2020-10-29T19:11:12:128
-0,466600	-2,744568	9,284152	2020-10-29T19:11:12:146
-0,497707	-2,689533	9,379865	2020-10-29T19:11:12:169
-0,435494	-2,804388	9,363115	2020-10-29T19:11:12:186
-0,445065	-2,768496	9,305687	2020-10-29T19:11:12:208
-0,433101	-2,672783	9,358330	2020-10-29T19:11:12:227
-0,447458	-2,672783	9,269794	2020-10-29T19:11:12:249
-0,406780	-2,773281	9,279366	2020-10-29T19:11:12:267
-0,413958	-2,677568	9,341579	2020-10-29T19:11:12:288
-0,476172	-2,648855	9,334401	2020-10-29T19:11:12:306
-0,483350	-2,644069	9,298509	2020-10-29T19:11:12:329
-0,454636	-2,813959	9,310472	2020-10-29T19:11:12:346
-0,454636	-2,797210	9,260223	2020-10-29T19:11:12:368
-0,459422	-2,754139	9,322437	2020-10-29T19:11:12:386
-0,485743	-2,689533	9,343972	2020-10-29T19:11:12:411
-0,430708	-2,663212	9,308081	2020-10-29T19:11:12:427
-0,406780	-2,644069	9,310472	2020-10-29T19:11:12:449
-0,480957	-2,696711	9,355937	2020-10-29T19:11:12:467
-0,423530	-2,679961	9,334401	2020-10-29T19:11:12:489
-0,442672	-2,737389	9,365508	2020-10-29T19:11:12:506
-0,425922	-2,732604	9,317651	2020-10-29T19:11:12:529
-0,433101	-2,620141	9,379865	2020-10-29T19:11:12:546
-0,416351	-2,672783	9,329616	2020-10-29T19:11:12:570
-0,440279	-2,816352	9,300901	2020-10-29T19:11:12:586
-0,480957	-2,754139	9,343972	2020-10-29T19:11:12:609
-0,437887	-2,703890	9,339187	2020-10-29T19:11:12:626
-0,464208	-2,629712	9,343972	2020-10-29T19:11:12:649
-0,483350	-2,646462	9,286544	2020-10-29T19:11:12:666
-0,416351	-2,694318	9,327222	2020-10-29T19:11:12:689
-0,421137	-2,849852	9,279366	2020-10-29T19:11:12:708
-0,442672	-2,797210	9,293723	2020-10-29T19:11:12:729
-0,390030	-2,711068	9,355937	2020-10-29T19:11:12:746
-0,464208	-2,782853	9,298509	2020-10-29T19:11:12:770
-0,471386	-2,703890	9,253045	2020-10-29T19:11:12:787
-0,497707	-2,763710	9,365508	2020-10-29T19:11:12:811
-0,464208	-2,665605	9,332008	2020-10-29T19:11:12:826
-0,437887	-2,627320	9,355937	2020-10-29T19:11:12:849
-0,373280	-2,603391	9,274581	2020-10-29T19:11:12:866
-0,519243	-2,737389	9,358330	2020-10-29T19:11:12:890
-0,382852	-2,790031	9,308081	2020-10-29T19:11:12:907
-0,409173	-2,672783	9,303294	2020-10-29T19:11:12:935
-0,397209	-2,744568	9,255438	2020-10-29T19:11:12:947
-0,454636	-2,715853	9,284152	2020-10-29T19:11:12:969
-0,435494	-2,758924	9,322437	2020-10-29T19:11:12:987
-0,442672	-2,754139	9,317651	2020-10-29T19:11:13:009
-0,382852	-2,732604	9,334401	2020-10-29T19:11:13:026
-0,385244	-2,708675	9,274581	2020-10-29T19:11:13:050
-0,495314	-2,713461	9,370294	2020-10-29T19:11:13:067
-0,406780	-2,679961	9,327222	2020-10-29T19:11:13:090
-0,464208	-2,730211	9,334401	2020-10-29T19:11:13:107
-0,430708	-2,799603	9,315259	2020-10-29T19:11:13:130
-0,416351	-2,737389	9,288938	2020-10-29T19:11:13:146
-0,380459	-2,787638	9,265009	2020-10-29T19:11:13:170
-0,423530	-2,720639	9,329616	2020-10-29T19:11:13:188
-0,442672	-2,663212	9,363115	2020-10-29T19:11:13:210
-0,416351	-2,778067	9,336794	2020-10-29T19:11:13:227
-0,421137	-2,792424	9,315259	2020-10-29T19:11:13:249
-0,435494	-2,794817	9,332008	2020-10-29T19:11:13:266
-0,406780	-2,768496	9,281759	2020-10-29T19:11:13:291
-0,385244	-2,708675	9,310472	2020-10-29T19:11:13:307
-0,387637	-2,691926	9,320045	2020-10-29T19:11:13:329
-0,418744	-2,768496	9,317651	2020-10-29T19:11:13:347
-0,356531	-2,770889	9,305687	2020-10-29T19:11:13:370
-0,409173	-2,797210	9,298509	2020-10-29T19:11:13:387
-0,392423	-2,708675	9,382257	2020-10-29T19:11:13:410
-0,378066	-2,766103	9,262616	2020-10-29T19:11:13:428
-0,428315	-2,828316	9,260223	2020-10-29T19:11:13:450
-0,392423	-2,761317	9,339187	2020-10-29T19:11:13:467
-0,411566	-2,720639	9,329616	2020-10-29T19:11:13:489
-0,378066	-2,763710	9,310472	2020-10-29T19:11:13:507
-0,406780	-2,792424	9,320045	2020-10-29T19:11:13:531
-0,382852	-2,744568	9,329616	2020-10-29T19:11:13:547
-0,397209	-2,754139	9,336794	2020-10-29T19:11:13:570
-0,411566	-2,763710	9,372685	2020-10-29T19:11:13:587
-0,332602	-2,778067	9,298509	2020-10-29T19:11:13:611
-0,332602	-2,758924	9,269794	2020-10-29T19:11:13:627
-0,447458	-2,780460	9,324830	2020-10-29T19:11:13:649
-0,512064	-2,656033	9,367901	2020-10-29T19:11:13:668
-0,418744	-2,801995	9,305687	2020-10-29T19:11:13:691
-0,488136	-2,775674	9,303294	2020-10-29T19:11:13:707
-0,404387	-2,739782	9,351151	2020-10-29T19:11:13:729
-0,380459	-2,749353	9,315259	2020-10-29T19:11:13:747
-0,411566	-2,758924	9,298509	2020-10-29T19:11:13:771
-0,378066	-2,749353	9,348758	2020-10-29T19:11:13:788
-0,390030	-2,689533	9,286544	2020-10-29T19:11:13:810
-0,401994	-2,775674	9,382257	2020-10-29T19:11:13:827
-0,392423	-2,778067	9,341579	2020-10-29T19:11:13:851
-0,473779	-2,754139	9,303294	2020-10-29T19:11:13:867
-0,349352	-2,730211	9,324830	2020-10-29T19:11:13:890
-0,413958	-2,775674	9,355937	2020-10-29T19:11:13:908
-0,478565	-2,754139	9,363115	2020-10-29T19:11:13:930
-0,380459	-2,723032	9,329616	2020-10-29T19:11:13:948
-0,442672	-2,744568	9,257831	2020-10-29T19:11:13:970
-0,413958	-2,768496	9,336794	2020-10-29T19:11:13:988
-0,387637	-2,763710	9,288938	2020-10-29T19:11:14:012
-0,502493	-2,730211	9,322437	2020-10-29T19:11:14:028
-0,428315	-2,775674	9,308081	2020-10-29T19:11:14:050
-0,473779	-2,828316	9,329616	2020-10-29T19:11:14:068
-0,390030	-2,778067	9,303294	2020-10-29T19:11:14:091
-0,366102	-2,725425	9,315259	2020-10-29T19:11:14:108
-0,382852	-2,778067	9,279366	2020-10-29T19:11:14:130
-0,416351	-2,715853	9,336794	2020-10-29T19:11:14:148
-0,366102	-2,696711	9,296116	2020-10-29T19:11:14:171
-0,416351	-2,842674	9,303294	2020-10-29T19:11:14:188
-0,413958	-2,768496	9,317651	2020-10-29T19:11:14:212
-0,382852	-2,766103	9,341579	2020-10-29T19:11:14:227
-0,404387	-2,775674	9,339187	2020-10-29T19:11:14:252
-0,409173	-2,818745	9,315259	2020-10-29T19:11:14:268
-0,433101	-2,718246	9,281759	2020-10-29T19:11:14:290
-0,413958	-2,734996	9,339187	2020-10-29T19:11:14:308
-0,401994	-2,675175	9,308081	2020-10-29T19:11:14:331
-0,433101	-2,768496	9,308081	2020-10-29T19:11:14:347
-0,437887	-2,711068	9,226725	2020-10-29T19:11:14:370
-0,356531	-2,770889	9,360723	2020-10-29T19:11:14:389
-0,485743	-2,782853	9,267403	2020-10-29T19:11:14:411
-0,459422	-2,658426	9,274581	2020-10-29T19:11:14:428
-0,480957	-2,682354	9,346365	2020-10-29T19:11:14:451
-0,406780	-2,758924	9,351151	2020-10-29T19:11:14:468
-0,461815	-2,727818	9,288938	2020-10-29T19:11:14:493
-0,459422	-2,737389	9,315259	2020-10-29T19:11:14:508
-0,423530	-2,809174	9,308081	2020-10-29T19:11:14:530
-0,413958	-2,744568	9,329616	2020-10-29T19:11:14:548
-0,390030	-2,744568	9,293723	2020-10-29T19:11:14:571
-0,409173	-2,656033	9,355937	2020-10-29T19:11:14:588
-0,433101	-2,744568	9,346365	2020-10-29T19:11:14:611
-0,404387	-2,713461	9,233903	2020-10-29T19:11:14:629
-0,457029	-2,687140	9,291330	2020-10-29T19:11:14:651
-0,397209	-2,746960	9,332008	2020-10-29T19:11:14:668
-0,416351	-2,739782	9,305687	2020-10-29T19:11:14:691
-0,492921	-2,754139	9,250652	2020-10-29T19:11:14:708
-0,454636	-2,701497	9,274581	2020-10-29T19:11:14:732
-0,476172	-2,758924	9,341579	2020-10-29T19:11:14:748
-0,468993	-2,780460	9,284152	2020-10-29T19:11:14:770
-0,413958	-2,701497	9,293723	2020-10-29T19:11:14:788
-0,497707	-2,734996	9,286544	2020-10-29T19:11:14:812
-0,433101	-2,821138	9,317651	2020-10-29T19:11:14:828
-0,480957	-2,730211	9,322437	2020-10-29T19:11:14:851
-0,423530	-2,694318	9,315259	2020-10-29T19:11:14:869
-0,457029	-2,708675	9,286544	2020-10-29T19:11:14:892
-0,466600	-2,761317	9,286544	2020-10-29T19:11:14:908
-0,416351	-2,665605	9,286544	2020-10-29T19:11:14:931
-0,449851	-2,648855	9,365508	2020-10-29T19:11:14:948
-0,447458	-2,756532	9,298509	2020-10-29T19:11:14:972
-0,392423	-2,782853	9,257831	2020-10-29T19:11:14:988
-0,471386	-2,778067	9,377472	2020-10-29T19:11:15:012
-0,490529	-2,754139	9,332008	2020-10-29T19:11:15:029
-0,516850	-2,790031	9,291330	2020-10-29T19:11:15:052
-0,425922	-2,732604	9,341579	2020-10-29T19:11:15:068
-0,447458	-2,639283	9,320045	2020-10-29T19:11:15:092
-0,423530	-2,670390	9,327222	2020-10-29T19:11:15:110
-0,509671	-2,746960	9,308081	2020-10-29T19:11:15:132
-0,437887	-2,780460	9,288938	2020-10-29T19:11:15:149
-0,449851	-2,713461	9,308081	2020-10-29T19:11:15:171
-0,464208	-2,751746	9,308081	2020-10-29T19:11:15:188
-0,454636	-2,660819	9,327222	2020-10-29T19:11:15:212
-0,579063	-2,629712	9,298509	2020-10-29T19:11:15:228
-0,461815	-2,670390	9,284152	2020-10-29T19:11:15:251
-0,392423	-2,691926	9,209974	2020-10-29T19:11:15:268
-0,480957	-2,744568	9,458827	2020-10-29T19:11:15:292
-0,378066	-3,117848	9,410972	2020-10-29T19:11:15:308
-0,545564	-2,737389	9,233903	2020-10-29T19:11:15:331
-0,449851	-2,744568	9,339187	2020-10-29T19:11:15:349
-0,433101	-2,770889	9,279366	2020-10-29T19:11:15:372
-0,425922	-2,670390	9,279366	2020-10-29T19:11:15:389
-0,442672	-2,857030	9,336794	2020-10-29T19:11:15:412
-0,497707	-2,792424	9,324830	2020-10-29T19:11:15:428
-0,464208	-2,861816	9,351151	2020-10-29T19:11:15:452
-0,461815	-2,754139	9,286544	2020-10-29T19:11:15:469
-0,404387	-2,775674	9,305687	2020-10-29T19:11:15:491
-0,423530	-2,785245	9,339187	2020-10-29T19:11:15:509
-0,492921	-2,768496	9,286544	2020-10-29T19:11:15:532
-0,457029	-2,718246	9,298509	2020-10-29T19:11:15:549
-0,457029	-2,790031	9,320045	2020-10-29T19:11:15:572
-0,423530	-2,744568	9,372685	2020-10-29T19:11:15:590
-0,492921	-2,821138	9,300901	2020-10-29T19:11:15:612
-0,409173	-2,682354	9,322437	2020-10-29T19:11:15:629
-0,442672	-2,713461	9,334401	2020-10-29T19:11:15:651
-0,459422	-2,718246	9,317651	2020-10-29T19:11:15:669
-0,528814	-2,737389	9,317651	2020-10-29T19:11:15:694
-0,459422	-2,679961	9,255438	2020-10-29T19:11:15:709
-0,512064	-2,679961	9,341579	2020-10-29T19:11:15:731
-0,449851	-2,689533	9,372685	2020-10-29T19:11:15:749
-0,425922	-2,828316	9,358330	2020-10-29T19:11:15:773
-0,488136	-2,746960	9,317651	2020-10-29T19:11:15:789
-0,495314	-2,675175	9,332008	2020-10-29T19:11:15:812
-0,471386	-2,723032	9,336794	2020-10-29T19:11:15:830
-0,457029	-2,689533	9,310472	2020-10-29T19:11:15:852
-0,454636	-2,682354	9,315259	2020-10-29T19:11:15:869
-0,476172	-2,746960	9,353544	2020-10-29T19:11:15:892
-0,512064	-2,687140	9,322437	2020-10-29T19:11:15:909
-0,445065	-2,663212	9,312866	2020-10-29T19:11:15:933
-0,480957	-2,744568	9,339187	2020-10-29T19:11:15:949
-0,476172	-2,763710	9,355937	2020-10-29T19:11:15:972
-0,504886	-2,730211	9,253045	2020-10-29T19:11:15:989
-0,485743	-2,684747	9,300901	2020-10-29T19:11:16:013
-0,428315	-2,758924	9,360723	2020-10-29T19:11:16:029
-0,516850	-2,579463	9,360723	2020-10-29T19:11:16:052
-0,495314	-2,687140	9,236296	2020-10-29T19:11:16:071
-0,502493	-2,694318	9,370294	2020-10-29T19:11:16:093
-0,473779	-2,778067	9,353544	2020-10-29T19:11:16:110
-0,540778	-2,770889	9,296116	2020-10-29T19:11:16:132
-0,502493	-2,778067	9,312866	2020-10-29T19:11:16:149
-0,480957	-2,660819	9,365508	2020-10-29T19:11:16:174
-0,478565	-2,694318	9,322437	2020-10-29T19:11:16:190
-0,471386	-2,703890	9,293723	2020-10-29T19:11:16:212
-0,440279	-2,684747	9,358330	2020-10-29T19:11:16:229
-0,492921	-2,715853	9,300901	2020-10-29T19:11:16:253
-0,509671	-2,742175	9,334401	2020-10-29T19:11:16:269
-0,488136	-2,725425	9,320045	2020-10-29T19:11:16:293
-0,416351	-2,720639	9,281759	2020-10-29T19:11:16:311
-0,416351	-2,660819	9,372685	2020-10-29T19:11:16:333
-0,452243	-2,734996	9,336794	2020-10-29T19:11:16:350
-0,457029	-2,675175	9,332008	2020-10-29T19:11:16:373
-0,452243	-2,667997	9,250652	2020-10-29T19:11:16:390
-0,478565	-2,727818	9,384650	2020-10-29T19:11:16:414
-0,516850	-2,644069	9,346365	2020-10-29T19:11:16:429
-0,507278	-2,598605	9,248260	2020-10-29T19:11:16:452
-0,457029	-2,703890	9,332008	2020-10-29T19:11:16:470
-0,476172	-2,699104	9,324830	2020-10-29T19:11:16:493
-0,449851	-2,701497	9,312866	2020-10-29T19:11:16:510
-0,466600	-2,605784	9,315259	2020-10-29T19:11:16:533
-0,490529	-2,634498	9,284152	2020-10-29T19:11:16:551
-0,535992	-2,689533	9,372685	2020-10-29T19:11:16:573
-0,504886	-2,790031	9,243474	2020-10-29T19:11:16:591
-0,457029	-2,691926	9,269794	2020-10-29T19:11:16:612
-0,478565	-2,656033	9,339187	2020-10-29T19:11:16:630
-0,483350	-2,694318	9,305687	2020-10-29T19:11:16:653
-0,466600	-2,684747	9,324830	2020-10-29T19:11:16:670
-0,557528	-2,699104	9,329616	2020-10-29T19:11:16:693
-0,473779	-2,629712	9,291330	2020-10-29T19:11:16:711
-0,524028	-2,701497	9,334401	2020-10-29T19:11:16:734
-0,512064	-2,636890	9,322437	2020-10-29T19:11:16:751
-0,521635	-2,787638	9,310472	2020-10-29T19:11:16:773
-0,466600	-2,751746	9,355937	2020-10-29T19:11:16:793
-0,449851	-2,615355	9,293723	2020-10-29T19:11:16:814
-0,557528	-2,603391	9,317651	2020-10-29T19:11:16:830
-0,476172	-2,684747	9,332008	2020-10-29T19:11:16:854
-0,516850	-2,725425	9,360723	2020-10-29T19:11:16:870
-0,473779	-2,720639	9,303294	2020-10-29T19:11:16:895
-0,425922	-2,641676	9,310472	2020-10-29T19:11:16:910
-0,476172	-2,634498	9,327222	2020-10-29T19:11:16:932
-0,512064	-2,703890	9,267403	2020-10-29T19:11:16:950
-0,564706	-2,670390	9,286544	2020-10-29T19:11:16:974
-0,500100	-2,672783	9,341579	2020-10-29T19:11:16:991
-0,480957	-2,701497	9,281759	2020-10-29T19:11:17:013
-0,421137	-2,624927	9,312866	2020-10-29T19:11:17:031
-0,471386	-2,663212	9,284152	2020-10-29T19:11:17:053
-0,550349	-2,694318	9,384650	2020-10-29T19:11:17:071
-0,509671	-2,675175	9,358330	2020-10-29T19:11:17:093
-0,473779	-2,672783	9,358330	2020-10-29T19:11:17:111
-0,459422	-2,624927	9,291330	2020-10-29T19:11:17:134
-0,464208	-2,596212	9,317651	2020-10-29T19:11:17:151
-0,516850	-2,670390	9,324830	2020-10-29T19:11:17:173
-0,502493	-2,706282	9,336794	2020-10-29T19:11:17:191
-0,526421	-2,696711	9,343972	2020-10-29T19:11:17:215
-0,516850	-2,730211	9,367901	2020-10-29T19:11:17:230
-0,507278	-2,629712	9,358330	2020-10-29T19:11:17:253
-0,533599	-2,622534	9,363115	2020-10-29T19:11:17:272
-0,512064	-2,644069	9,377472	2020-10-29T19:11:17:294
-0,528814	-2,725425	9,312866	2020-10-29T19:11:17:311
-0,483350	-2,696711	9,336794	2020-10-29T19:11:17:333
-0,471386	-2,768496	9,310472	2020-10-29T19:11:17:351
-0,473779	-2,684747	9,339187	2020-10-29T19:11:17:374
-0,382852	-2,653640	9,353544	2020-10-29T19:11:17:391
-0,476172	-2,584249	9,284152	2020-10-29T19:11:17:413
-0,521635	-2,675175	9,396614	2020-10-29T19:11:17:431
-0,535992	-2,627320	9,343972	2020-10-29T19:11:17:454
-0,483350	-2,639283	9,296116	2020-10-29T19:11:17:471
-0,454636	-2,682354	9,322437	2020-10-29T19:11:17:494
-0,555135	-2,689533	9,348758	2020-10-29T19:11:17:512
-0,526421	-2,723032	9,348758	2020-10-29T19:11:17:534
-0,545564	-2,703890	9,401401	2020-10-29T19:11:17:551
-0,543171	-2,696711	9,332008	2020-10-29T19:11:17:573
-0,492921	-2,653640	9,351151	2020-10-29T19:11:17:591
-0,464208	-2,612962	9,293723	2020-10-29T19:11:17:615
-0,557528	-2,687140	9,310472	2020-10-29T19:11:17:631
-0,488136	-2,696711	9,310472	2020-10-29T19:11:17:653
-0,492921	-2,744568	9,375079	2020-10-29T19:11:17:671
-0,485743	-2,699104	9,367901	2020-10-29T19:11:17:695
-0,531207	-2,758924	9,343972	2020-10-29T19:11:17:711
-0,524028	-2,703890	9,317651	2020-10-29T19:11:17:733
-0,485743	-2,644069	9,334401	2020-10-29T19:11:17:752
-0,488136	-2,663212	9,276974	2020-10-29T19:11:17:774
-0,471386	-2,679961	9,327222	2020-10-29T19:11:17:793
-0,466600	-2,651247	9,377472	2020-10-29T19:11:17:814
-0,533599	-2,672783	9,346365	2020-10-29T19:11:17:831
-0,524028	-2,644069	9,327222	2020-10-29T19:11:17:856
-0,504886	-2,677568	9,310472	2020-10-29T19:11:17:871
-0,526421	-2,665605	9,288938	2020-10-29T19:11:17:894
-0,471386	-2,622534	9,339187	2020-10-29T19:11:17:912
-0,473779	-2,567499	9,312866	2020-10-29T19:11:17:935
-0,516850	-2,555535	9,334401	2020-10-29T19:11:17:951
-0,521635	-2,656033	9,379865	2020-10-29T19:11:17:974
-0,440279	-2,742175	9,324830	2020-10-29T19:11:17:993
-0,516850	-2,691926	9,322437	2020-10-29T19:11:18:015
-0,452243	-2,696711	9,334401	2020-10-29T19:11:18:032
-0,512064	-2,744568	9,332008	2020-10-29T19:11:18:055
-0,492921	-2,744568	9,343972	2020-10-29T19:11:18:071
-0,485743	-2,632105	9,358330	2020-10-29T19:11:18:096
-0,521635	-2,658426	9,317651	2020-10-29T19:11:18:112
-0,535992	-2,608176	9,329616	2020-10-29T19:11:18:133
-0,516850	-2,677568	9,329616	2020-10-29T19:11:18:152
-0,552742	-2,620141	9,320045	2020-10-29T19:11:18:179
-0,473779	-2,663212	9,243474	2020-10-29T19:11:18:192
-0,528814	-2,677568	9,363115	2020-10-29T19:11:18:214
-0,543171	-2,687140	9,353544	2020-10-29T19:11:18:232
-0,516850	-2,615355	9,305687	2020-10-29T19:11:18:255
-0,480957	-2,663212	9,296116	2020-10-29T19:11:18:272
-0,461815	-2,734996	9,332008	2020-10-29T19:11:18:294
-0,500100	-2,636890	9,312866	2020-10-29T19:11:18:312
-0,552742	-2,663212	9,394222	2020-10-29T19:11:18:336
-0,445065	-2,658426	9,324830	2020-10-29T19:11:18:352
-0,524028	-2,670390	9,341579	2020-10-29T19:11:18:374
-0,545564	-2,615355	9,236296	2020-10-29T19:11:18:392
-0,459422	-2,651247	9,312866	2020-10-29T19:11:18:416
-0,473779	-2,617748	9,300901	2020-10-29T19:11:18:432
-0,485743	-2,639283	9,401401	2020-10-29T19:11:18:455
-0,564706	-2,701497	9,341579	2020-10-29T19:11:18:473
-0,466600	-2,656033	9,370294	2020-10-29T19:11:18:496
-0,495314	-2,677568	9,353544	2020-10-29T19:11:18:512
-0,473779	-2,641676	9,315259	2020-10-29T19:11:18:534
-0,533599	-2,579463	9,351151	2020-10-29T19:11:18:552
-0,492921	-2,615355	9,320045	2020-10-29T19:11:18:575
-0,492921	-2,557927	9,334401	2020-10-29T19:11:18:592
-0,445065	-2,653640	9,262616	2020-10-29T19:11:18:614
-0,559920	-2,581856	9,310472	2020-10-29T19:11:18:632
-0,457029	-2,648855	9,305687	2020-10-29T19:11:18:656
-0,500100	-2,560320	9,370294	2020-10-29T19:11:18:672
-0,473779	-2,660819	9,358330	2020-10-29T19:11:18:695
-0,485743	-2,656033	9,255438	2020-10-29T19:11:18:714
-0,555135	-2,510071	9,379865	2020-10-29T19:11:18:736
-0,480957	-2,665605	9,341579	2020-10-29T19:11:18:752
-0,550349	-2,701497	9,315259	2020-10-29T19:11:18:776
-0,550349	-2,651247	9,348758	2020-10-29T19:11:18:792
-0,500100	-2,589034	9,324830	2020-10-29T19:11:18:816
-0,535992	-2,632105	9,339187	2020-10-29T19:11:18:832
-0,473779	-2,615355	9,372685	2020-10-29T19:11:18:856
-0,540778	-2,727818	9,360723	2020-10-29T19:11:18:872
-0,516850	-2,708675	9,310472	2020-10-29T19:11:18:896
-0,473779	-2,639283	9,370294	2020-10-29T19:11:18:912
-0,502493	-2,677568	9,296116	2020-10-29T19:11:18:936
-0,454636	-2,718246	9,312866	2020-10-29T19:11:18:953
-0,535992	-2,608176	9,365508	2020-10-29T19:11:18:976
-0,509671	-2,648855	9,341579	2020-10-29T19:11:18:993
-0,476172	-2,699104	9,260223	2020-10-29T19:11:19:015
-0,543171	-2,699104	9,286544	2020-10-29T19:11:19:033
-0,514457	-2,672783	9,375079	2020-10-29T19:11:19:057
-0,449851	-2,677568	9,298509	2020-10-29T19:11:19:073
-0,497707	-2,608176	9,312866	2020-10-29T19:11:19:096
-0,502493	-2,567499	9,355937	2020-10-29T19:11:19:112
-0,550349	-2,675175	9,334401	2020-10-29T19:11:19:139
-0,514457	-2,677568	9,315259	2020-10-29T19:11:19:152
-0,480957	-2,644069	9,343972	2020-10-29T19:11:19:177
-0,500100	-2,677568	9,336794	2020-10-29T19:11:19:194
-0,423530	-2,639283	9,286544	2020-10-29T19:11:19:217
-0,454636	-2,670390	9,358330	2020-10-29T19:11:19:232
-0,457029	-2,629712	9,351151	2020-10-29T19:11:19:256
-0,535992	-2,701497	9,384650	2020-10-29T19:11:19:273
-0,497707	-2,723032	9,327222	2020-10-29T19:11:19:297
-0,524028	-2,620141	9,312866	2020-10-29T19:11:19:313
-0,476172	-2,603391	9,348758	2020-10-29T19:11:19:336
-0,413958	-2,694318	9,324830	2020-10-29T19:11:19:353
-0,552742	-2,739782	9,298509	2020-10-29T19:11:19:377
-0,555135	-2,706282	9,327222	2020-10-29T19:11:19:393
-0,452243	-2,629712	9,336794	2020-10-29T19:11:19:416
-0,461815	-2,656033	9,341579	2020-10-29T19:11:19:433
-0,409173	-2,679961	9,322437	2020-10-29T19:11:19:457
-0,492921	-2,766103	9,305687	2020-10-29T19:11:19:473
-0,500100	-2,675175	9,284152	2020-10-29T19:11:19:496
-0,509671	-2,682354	9,293723	2020-10-29T19:11:19:513
-0,397209	-2,632105	9,324830	2020-10-29T19:11:19:537
-0,495314	-2,691926	9,291330	2020-10-29T19:11:19:553
-0,502493	-2,648855	9,341579	2020-10-29T19:11:19:576
-0,461815	-2,751746	9,317651	2020-10-29T19:11:19:593
-0,550349	-2,646462	9,339187	2020-10-29T19:11:19:617
-0,567099	-2,665605	9,317651	2020-10-29T19:11:19:633
-0,468993	-2,711068	9,355937	2020-10-29T19:11:19:656
-0,550349	-2,763710	9,265009	2020-10-29T19:11:19:674
-0,466600	-2,809174	9,343972	2020-10-29T19:11:19:697
-0,500100	-2,665605	9,363115	2020-10-29T19:11:19:713
-0,478565	-2,689533	9,305687	2020-10-29T19:11:19:736
-0,433101	-2,739782	9,332008	2020-10-29T19:11:19:753
-0,480957	-2,608176	9,360723	2020-10-29T19:11:19:777
-0,459422	-2,665605	9,291330	2020-10-29T19:11:19:793
-0,457029	-2,734996	9,320045	2020-10-29T19:11:19:816
-0,478565	-2,660819	9,322437	2020-10-29T19:11:19:833
-0,516850	-2,742175	9,341579	2020-10-29T19:11:19:857
-0,468993	-2,679961	9,336794	2020-10-29T19:11:19:873
-0,480957	-2,720639	9,312866	2020-10-29T19:11:19:896
-0,442672	-2,665605	9,312866	2020-10-29T19:11:19:914
-0,464208	-2,656033	9,343972	2020-10-29T19:11:19:936
-0,440279	-2,744568	9,322437	2020-10-29T19:11:19:953
-0,492921	-2,715853	9,293723	2020-10-29T19:11:19:976
-0,504886	-2,770889	9,343972	2020-10-29T19:11:19:994
-0,440279	-2,703890	9,360723	2020-10-29T19:11:20:018
-0,478565	-2,734996	9,329616	2020-10-29T19:11:20:033
-0,425922	-2,689533	9,310472	2020-10-29T19:11:20:057
-0,454636	-2,644069	9,274581	2020-10-29T19:11:20:073
-0,449851	-2,785245	9,336794	2020-10-29T19:11:20:097
-0,452243	-2,763710	9,310472	2020-10-29T19:11:20:113
-0,454636	-2,732604	9,308081	2020-10-29T19:11:20:136
-0,461815	-2,739782	9,336794	2020-10-29T19:11:20:154
-0,447458	-2,763710	9,327222	2020-10-29T19:11:20:177
-0,461815	-2,730211	9,358330	2020-10-29T19:11:20:194
-0,495314	-2,766103	9,315259	2020-10-29T19:11:20:216
-0,421137	-2,732604	9,293723	2020-10-29T19:11:20:233
-0,490529	-2,720639	9,332008	2020-10-29T19:11:20:257
-0,502493	-2,758924	9,303294	2020-10-29T19:11:20:273
-0,370888	-2,766103	9,298509	2020-10-29T19:11:20:296
-0,464208	-2,770889	9,286544	2020-10-29T19:11:20:314
-0,555135	-2,696711	9,310472	2020-10-29T19:11:20:337
-0,502493	-2,663212	9,324830	2020-10-29T19:11:20:353
-0,502493	-2,665605	9,310472	2020-10-29T19:11:20:376
-0,461815	-2,730211	9,334401	2020-10-29T19:11:20:395
-0,430708	-2,706282	9,274581	2020-10-29T19:11:20:417
-0,430708	-2,801995	9,351151	2020-10-29T19:11:20:433
-0,490529	-2,732604	9,336794	2020-10-29T19:11:20:456
-0,512064	-2,670390	9,303294	2020-10-29T19:11:20:473
-0,519243	-2,742175	9,332008	2020-10-29T19:11:20:497
-0,421137	-2,840281	9,339187	2020-10-29T19:11:20:514
-0,461815	-2,715853	9,315259	2020-10-29T19:11:20:536
-0,461815	-2,763710	9,265009	2020-10-29T19:11:20:553
-0,394816	-2,715853	9,320045	2020-10-29T19:11:20:577
-0,464208	-2,761317	9,315259	2020-10-29T19:11:20:594
-0,464208	-2,742175	9,305687	2020-10-29T19:11:20:617
-0,452243	-2,708675	9,269794	2020-10-29T19:11:20:634
-0,485743	-2,727818	9,329616	2020-10-29T19:11:20:657
-0,490529	-2,763710	9,288938	2020-10-29T19:11:20:674
-0,504886	-2,799603	9,346365	2020-10-29T19:11:20:697
-0,425922	-2,813959	9,353544	2020-10-29T19:11:20:714
-0,471386	-2,737389	9,367901	2020-10-29T19:11:20:738
-0,464208	-2,849852	9,305687	2020-10-29T19:11:20:754
-0,533599	-2,670390	9,236296	2020-10-29T19:11:20:776
-0,437887	-2,608176	9,269794	2020-10-29T19:11:20:794
-0,397209	-2,691926	9,305687	2020-10-29T19:11:20:818
-0,421137	-2,730211	9,320045	2020-10-29T19:11:20:834
-0,459422	-2,854637	9,315259	2020-10-29T19:11:20:857
-0,464208	-2,672783	9,231510	2020-10-29T19:11:20:875
-0,466600	-2,699104	9,291330	2020-10-29T19:11:20:898
-0,514457	-2,806781	9,351151	2020-10-29T19:11:20:915
-0,464208	-2,916851	9,329616	2020-10-29T19:11:20:937
-0,418744	-2,816352	9,291330	2020-10-29T19:11:20:954
