v1	v2	v3	v4	ts
1002,422913	90,532234	29,230000	1002,389404	2020-10-29T19:41:47:154
1002,416260	90,587715	29,230000	1002,356201	2020-10-29T19:41:47:308
1002,413269	90,614143	29,240000	1002,385986	2020-10-29T19:41:47:549
1002,412781	90,619423	29,230000	1002,408447	2020-10-29T19:41:47:789
1002,414246	90,606216	29,230000	1002,427246	2020-10-29T19:41:48:028
1002,416504	90,587715	29,240000	1002,436768	2020-10-29T19:41:48:268
1002,418213	90,571861	29,230000	1002,433594	2020-10-29T19:41:48:511
1002,416260	90,587715	29,240000	1002,398682	2020-10-29T19:41:48:753
1002,415710	90,593002	29,230000	1002,410889	2020-10-29T19:41:48:991
1002,412598	90,619423	29,240000	1002,384521	2020-10-29T19:41:49:232
1002,411682	90,627350	29,230000	1002,403320	2020-10-29T19:41:49:473
1002,410950	90,632637	29,240000	1002,404297	2020-10-29T19:41:49:713
1002,410217	90,640564	29,240000	1002,403076	2020-10-29T19:41:49:953
1002,409424	90,645851	29,230000	1002,402100	2020-10-29T19:41:50:193
1002,411194	90,632637	29,240000	1002,427002	2020-10-29T19:41:50:434
1002,412720	90,619423	29,240000	1002,426758	2020-10-29T19:41:50:675
1002,413940	90,608856	29,250000	1002,424805	2020-10-29T19:41:50:914
1002,418396	90,571861	29,240000	1002,458252	2020-10-29T19:41:51:153
1002,417664	90,577148	29,240000	1002,411133	2020-10-29T19:41:51:394
1002,416138	90,590363	29,240000	1002,402344	2020-10-29T19:41:51:636
1002,416687	90,585075	29,240000	1002,421387	2020-10-29T19:41:51:875
1002,415588	90,595642	29,250000	1002,405762	2020-10-29T19:41:52:115
1002,415222	90,598289	29,250000	1002,411621	2020-10-29T19:41:52:356
1002,415283	90,595642	29,250000	1002,415527	2020-10-29T19:41:52:596
1002,413757	90,608856	29,250000	1002,400391	2020-10-29T19:41:52:837
1002,411316	90,629997	29,250000	1002,389404	2020-10-29T19:41:53:076
1002,409668	90,643204	29,250000	1002,394531	2020-10-29T19:41:53:316
1002,407166	90,664345	29,260000	1002,384521	2020-10-29T19:41:53:556
1002,407532	90,661705	29,250000	1002,410400	2020-10-29T19:41:53:795
1002,411865	90,624710	29,250000	1002,451172	2020-10-29T19:41:54:039
1002,412354	90,622070	29,260000	1002,416992	2020-10-29T19:41:54:276
1002,412354	90,622070	29,260000	1002,412598	2020-10-29T19:41:54:517
1002,408997	90,648491	29,250000	1002,378906	2020-10-29T19:41:54:756
1002,409912	90,643204	29,260000	1002,417969	2020-10-29T19:41:54:997
1002,408264	90,656418	29,260000	1002,393311	2020-10-29T19:41:55:256
1002,404968	90,682838	29,260000	1002,375000	2020-10-29T19:41:55:477
1002,406250	90,672272	29,260000	1002,417725	2020-10-29T19:41:55:733
1002,404602	90,685486	29,260000	1002,389893	2020-10-29T19:41:55:959
1002,402405	90,706619	29,269999	1002,382568	2020-10-29T19:42:16:239
1002,399963	90,725113	29,260000	1002,377441	2020-10-29T19:42:16:240
1002,397644	90,746254	29,269999	1002,376221	2020-10-29T19:42:16:240
1002,397949	90,743614	29,269999	1002,401123	2020-10-29T19:42:16:241
1002,399902	90,725113	29,269999	1002,417480	2020-10-29T19:42:16:242
1002,401672	90,711906	29,269999	1002,417236	2020-10-29T19:42:16:243
1002,401855	90,709267	29,269999	1002,403076	2020-10-29T19:42:16:243
1002,400146	90,725113	29,260000	1002,385010	2020-10-29T19:42:16:244
1002,399536	90,730400	29,269999	1002,394043	2020-10-29T19:42:16:244
1002,401001	90,717194	29,269999	1002,414062	2020-10-29T19:42:16:244
1002,402893	90,701340	29,260000	1002,419922	2020-10-29T19:42:16:244
1002,402832	90,701340	29,269999	1002,402100	2020-10-29T19:42:16:244
1002,400696	90,719833	29,269999	1002,381592	2020-10-29T19:42:16:244
1002,401672	90,711906	29,269999	1002,410889	2020-10-29T19:42:16:245
1002,406921	90,666985	29,269999	1002,454102	2020-10-29T19:42:16:245
1002,410767	90,635277	29,269999	1002,445312	2020-10-29T19:42:16:245
1002,410950	90,632637	29,269999	1002,412598	2020-10-29T19:42:16:245
1002,407654	90,661705	29,269999	1002,377686	2020-10-29T19:42:16:245
1002,406433	90,672272	29,269999	1002,395264	2020-10-29T19:42:16:245
1002,403931	90,693413	29,269999	1002,381348	2020-10-29T19:42:16:245
1002,402832	90,701340	29,269999	1002,393066	2020-10-29T19:42:16:245
1002,400452	90,722473	29,269999	1002,379150	2020-10-29T19:42:16:245
1002,398926	90,733040	29,260000	1002,384766	2020-10-29T19:42:16:246
1002,401550	90,711906	29,260000	1002,425049	2020-10-29T19:42:16:246
1002,403748	90,693413	29,260000	1002,423584	2020-10-29T19:42:16:246
1002,402100	90,709267	29,260000	1002,387695	2020-10-29T19:42:16:246
1002,402222	90,706619	29,250000	1002,403076	2020-10-29T19:42:16:246
1002,399414	90,730400	29,260000	1002,374268	2020-10-29T19:42:16:246
1002,397705	90,743614	29,260000	1002,382812	2020-10-29T19:42:16:246
1002,395508	90,762108	29,250000	1002,375977	2020-10-29T19:42:16:247
1002,393677	90,777962	29,250000	1002,376953	2020-10-29T19:42:16:247
1002,390198	90,807030	29,250000	1002,358643	2020-10-29T19:42:16:247
1002,388062	90,825523	29,250000	1002,368408	2020-10-29T19:42:16:247
1002,387756	90,828163	29,240000	1002,385010	2020-10-29T19:42:16:247
1002,389160	90,817596	29,250000	1002,401367	2020-10-29T19:42:16:247
1002,390442	90,807030	29,250000	1002,402100	2020-10-29T19:42:16:247
1002,388611	90,820236	29,240000	1002,372314	2020-10-29T19:42:16:247
1002,387268	90,833450	29,250000	1002,375488	2020-10-29T19:42:16:248
1002,389343	90,814957	29,240000	1002,407959	2020-10-29T19:42:16:248
1002,388916	90,817596	29,240000	1002,385010	2020-10-29T19:42:16:248
1002,386841	90,836090	29,240000	1002,367676	2020-10-29T19:42:16:248
1002,385254	90,849304	29,240000	1002,371094	2020-10-29T19:42:16:248
1002,385986	90,844017	29,230000	1002,392334	2020-10-29T19:42:16:248
1002,388123	90,825523	29,230000	1002,407715	2020-10-29T19:42:16:248
1002,391602	90,796455	29,230000	1002,422607	2020-10-29T19:42:16:248
1002,391541	90,796455	29,230000	1002,391357	2020-10-29T19:42:16:248
1002,395447	90,764748	29,219999	1002,430908	2020-10-29T19:42:16:249
1002,395142	90,767395	29,219999	1002,392090	2020-10-29T19:42:16:249
1002,392029	90,791176	29,230000	1002,364014	2020-10-29T19:42:16:249
1002,392822	90,785889	29,219999	1002,399902	2020-10-29T19:42:16:250
1002,391296	90,799103	29,219999	1002,377930	2020-10-29T19:42:16:250
1002,393433	90,780602	29,209999	1002,412354	2020-10-29T19:42:16:250
1002,397339	90,746254	29,209999	1002,432617	2020-10-29T19:42:16:250
1002,401123	90,717194	29,209999	1002,435303	2020-10-29T19:42:16:250
1002,405518	90,680199	29,209999	1002,444824	2020-10-29T19:42:16:250
1002,405640	90,677559	29,209999	1002,407227	2020-10-29T19:42:16:250
1002,405823	90,677559	29,209999	1002,407471	2020-10-29T19:42:16:251
1002,406006	90,674911	29,209999	1002,407471	2020-10-29T19:42:16:251
1002,407471	90,661705	29,209999	1002,420410	2020-10-29T19:42:16:251
1002,408691	90,651131	29,209999	1002,419922	2020-10-29T19:42:16:251
1002,407349	90,664345	29,199999	1002,395264	2020-10-29T19:42:16:251
1002,407471	90,661705	29,189999	1002,408936	2020-10-29T19:42:16:251
1002,406311	90,672272	29,199999	1002,396240	2020-10-29T19:42:16:251
1002,403320	90,696053	29,189999	1002,376465	2020-10-29T19:42:16:251
1002,398743	90,735687	29,189999	1002,357422	2020-10-29T19:42:16:251
1002,396057	90,759468	29,189999	1002,371338	2020-10-29T19:42:16:252
1002,394653	90,770035	29,189999	1002,382080	2020-10-29T19:42:16:252
1002,392334	90,788528	29,189999	1002,371582	2020-10-29T19:42:16:252
1002,390686	90,804382	29,189999	1002,375977	2020-10-29T19:42:16:252
1002,388611	90,820236	29,189999	1002,369873	2020-10-29T19:42:16:252
1002,385803	90,844017	29,179998	1002,360596	2020-10-29T19:42:16:252
1002,383240	90,865158	29,170000	1002,359863	2020-10-29T19:42:16:252
1002,383667	90,862518	29,179998	1002,387695	2020-10-29T19:42:16:252
1002,385681	90,846664	29,170000	1002,404053	2020-10-29T19:42:16:252
1002,388184	90,825523	29,170000	1002,410400	2020-10-29T19:42:16:253
1002,390869	90,801743	29,170000	1002,414795	2020-10-29T19:42:16:253
1002,390808	90,801743	29,170000	1002,390625	2020-10-29T19:42:16:253
1002,388306	90,822884	29,170000	1002,365234	2020-10-29T19:42:16:253
1002,388489	90,822884	29,170000	1002,389648	2020-10-29T19:42:16:253
1002,388672	90,820236	29,170000	1002,390625	2020-10-29T19:42:16:253
1002,388733	90,820236	29,160000	1002,389160	2020-10-29T19:42:16:253
1002,390564	90,804382	29,160000	1002,406982	2020-10-29T19:42:16:254
1002,391968	90,793816	29,150000	1002,404785	2020-10-29T19:42:16:257
1002,393311	90,780602	29,160000	1002,405273	2020-10-29T19:42:16:417
1002,395020	90,767395	29,150000	1002,410400	2020-10-29T19:42:16:638
1002,397461	90,746254	29,150000	1002,418945	2020-10-29T19:42:16:879
1002,397705	90,743614	29,139999	1002,399414	2020-10-29T19:42:41:117
1002,400330	90,722473	29,150000	1002,424316	2020-10-29T19:42:41:119
1002,402039	90,709267	29,139999	1002,417236	2020-10-29T19:42:41:120
1002,401733	90,711906	29,139999	1002,398926	2020-10-29T19:42:41:120
1002,400146	90,725113	29,139999	1002,385498	2020-10-29T19:42:41:121
1002,400330	90,722473	29,139999	1002,401855	2020-10-29T19:42:41:121
1002,401672	90,711906	29,139999	1002,413574	2020-10-29T19:42:41:121
1002,403809	90,693413	29,129999	1002,422852	2020-10-29T19:42:41:121
1002,404846	90,685486	29,139999	1002,414551	2020-10-29T19:42:41:121
1002,407288	90,664345	29,139999	1002,428955	2020-10-29T19:42:41:122
1002,406677	90,669632	29,129999	1002,401123	2020-10-29T19:42:41:122
1002,403320	90,696053	29,129999	1002,373047	2020-10-29T19:42:41:122
1002,401855	90,709267	29,129999	1002,388916	2020-10-29T19:42:41:122
1002,401245	90,714546	29,129999	1002,396240	2020-10-29T19:42:41:123
1002,402527	90,703979	29,129999	1002,414062	2020-10-29T19:42:41:123
1002,403687	90,693413	29,129999	1002,414551	2020-10-29T19:42:41:123
1002,403259	90,698692	29,129999	1002,399902	2020-10-29T19:42:41:123
1002,403992	90,690765	29,129999	1002,410400	2020-10-29T19:42:41:124
1002,402466	90,703979	29,129999	1002,388428	2020-10-29T19:42:41:124
1002,401794	90,709267	29,119999	1002,395996	2020-10-29T19:42:41:124
1002,404602	90,685486	29,119999	1002,429443	2020-10-29T19:42:41:124
1002,409180	90,648491	29,119999	1002,450195	2020-10-29T19:42:41:124
1002,407227	90,664345	29,119999	1002,389893	2020-10-29T19:42:41:124
1002,401550	90,711906	29,109999	1002,350098	2020-10-29T19:42:41:124
1002,400024	90,725113	29,119999	1002,386475	2020-10-29T19:42:41:125
1002,397278	90,748894	29,119999	1002,372559	2020-10-29T19:42:41:125
1002,394348	90,772675	29,109999	1002,367676	2020-10-29T19:42:41:125
1002,394287	90,772675	29,119999	1002,393555	2020-10-29T19:42:41:125
1002,396667	90,754181	29,119999	1002,418213	2020-10-29T19:42:41:163
1002,396484	90,754181	29,109999	1002,394775	2020-10-29T19:42:41:164
1002,393494	90,780602	29,109999	1002,366455	2020-10-29T19:42:41:165
1002,391113	90,799103	29,109999	1002,369873	2020-10-29T19:42:41:167
1002,387573	90,830811	29,109999	1002,355469	2020-10-29T19:42:41:167
1002,383545	90,862518	29,109999	1002,347412	2020-10-29T19:42:41:167
1002,381287	90,883652	29,109999	1002,361328	2020-10-29T19:42:41:168
1002,380676	90,886299	29,109999	1002,375488	2020-10-29T19:42:41:168
1002,380127	90,891579	29,099998	1002,375244	2020-10-29T19:42:41:168
1002,375061	90,933853	29,099998	1002,329346	2020-10-29T19:42:41:168
1002,371582	90,962921	29,099998	1002,340332	2020-10-29T19:42:41:168
1002,370544	90,973488	29,099998	1002,361084	2020-10-29T19:42:41:168
1002,371521	90,965561	29,099998	1002,379883	2020-10-29T19:42:41:169
1002,373840	90,944427	29,099998	1002,395020	2020-10-29T19:42:41:169
1002,379395	90,899506	29,090000	1002,429688	2020-10-29T19:42:41:169
1002,383484	90,865158	29,090000	1002,420410	2020-10-29T19:42:41:170
1002,387512	90,830811	29,090000	1002,423584	2020-10-29T19:42:41:171
1002,390930	90,801743	29,090000	1002,421387	2020-10-29T19:42:41:171
1002,396423	90,756821	29,090000	1002,445801	2020-10-29T19:42:41:171
1002,398315	90,738327	29,080000	1002,415527	2020-10-29T19:42:41:173
1002,400635	90,719833	29,080000	1002,421631	2020-10-29T19:42:41:174
1002,401306	90,714546	29,090000	1002,407715	2020-10-29T19:42:41:175
1002,403381	90,696053	29,080000	1002,422119	2020-10-29T19:42:41:175
1002,404724	90,685486	29,080000	1002,416992	2020-10-29T19:42:41:175
1002,407410	90,664345	29,080000	1002,431641	2020-10-29T19:42:41:176
1002,410217	90,640564	29,080000	1002,435791	2020-10-29T19:42:41:176
1002,410889	90,632637	29,070000	1002,416748	2020-10-29T19:42:41:177
1002,411560	90,627350	29,080000	1002,417480	2020-10-29T19:42:41:177
1002,409851	90,643204	29,080000	1002,394287	2020-10-29T19:42:41:178
1002,406006	90,674911	29,070000	1002,371582	2020-10-29T19:42:41:179
1002,402466	90,703979	29,070000	1002,370117	2020-10-29T19:42:41:180
1002,398743	90,735687	29,070000	1002,365479	2020-10-29T19:42:41:181
1002,399353	90,730400	29,059999	1002,404785	2020-10-29T19:42:41:181
1002,398926	90,733040	29,059999	1002,394775	2020-10-29T19:42:41:181
1002,394348	90,772675	29,070000	1002,353027	2020-10-29T19:42:41:181
1002,391296	90,799103	29,070000	1002,363770	2020-10-29T19:42:41:183
1002,388916	90,817596	29,059999	1002,367432	2020-10-29T19:42:41:195
1002,389648	90,812309	29,059999	1002,395996	2020-10-29T19:42:41:197
1002,389954	90,809669	29,049999	1002,392822	2020-10-29T19:42:41:197
1002,389709	90,812309	29,059999	1002,387207	2020-10-29T19:42:41:198
1002,386597	90,838737	29,059999	1002,358887	2020-10-29T19:42:41:198
1002,382874	90,870445	29,049999	1002,349854	2020-10-29T19:42:41:198
1002,382812	90,870445	29,049999	1002,381836	2020-10-29T19:42:41:198
1002,381287	90,883652	29,049999	1002,367432	2020-10-29T19:42:41:198
1002,382446	90,873085	29,049999	1002,393066	2020-10-29T19:42:41:199
1002,380493	90,888939	29,039999	1002,362793	2020-10-29T19:42:41:199
1002,379639	90,896866	29,049999	1002,372070	2020-10-29T19:42:41:199
1002,378357	90,907433	29,039999	1002,366699	2020-10-29T19:42:41:200
1002,380554	90,888939	29,039999	1002,400146	2020-10-29T19:42:41:200
1002,382690	90,870445	29,039999	1002,402100	2020-10-29T19:42:41:201
1002,383484	90,865158	29,029999	1002,390381	2020-10-29T19:42:41:202
1002,381958	90,875725	29,029999	1002,367920	2020-10-29T19:42:41:203
1002,377075	90,917999	29,029999	1002,333252	2020-10-29T19:42:41:203
1002,375549	90,931213	29,029999	1002,361572	2020-10-29T19:42:41:204
1002,375549	90,931213	29,019999	1002,375000	2020-10-29T19:42:41:205
1002,376404	90,923286	29,019999	1002,383789	2020-10-29T19:42:41:205
1002,374512	90,939140	29,019999	1002,357666	2020-10-29T19:42:41:208
1002,371765	90,962921	29,019999	1002,347412	2020-10-29T19:42:41:208
1002,369873	90,978775	29,019999	1002,352783	2020-10-29T19:42:41:209
1002,370300	90,973488	29,019999	1002,374268	2020-10-29T19:42:41:235
1002,373291	90,949707	29,019999	1002,400146	2020-10-29T19:42:41:240
1002,377014	90,917999	29,010000	1002,410400	2020-10-29T19:42:41:241
1002,379700	90,896866	29,010000	1002,403809	2020-10-29T19:42:41:241
1002,378601	90,904793	29,010000	1002,368408	2020-10-29T19:42:41:241
1002,377197	90,917999	29,010000	1002,364258	2020-10-29T19:42:41:241
1002,379150	90,899506	29,010000	1002,396484	2020-10-29T19:42:41:241
1002,380066	90,891579	29,010000	1002,387939	2020-10-29T19:42:41:242
1002,381653	90,878372	29,010000	1002,396240	2020-10-29T19:42:41:242
1002,384888	90,851944	29,000000	1002,413574	2020-10-29T19:42:41:242
1002,385376	90,849304	29,000000	1002,389893	2020-10-29T19:42:41:242
1002,385132	90,849304	29,010000	1002,383301	2020-10-29T19:42:41:242
1002,383423	90,865158	29,000000	1002,367920	2020-10-29T19:42:41:242
1002,384216	90,857231	29,000000	1002,391113	2020-10-29T19:42:41:242
1002,385010	90,851944	28,990000	1002,392578	2020-10-29T19:42:41:243
1002,382690	90,870445	28,990000	1002,362061	2020-10-29T19:42:41:243
1002,384155	90,859871	29,000000	1002,396973	2020-10-29T19:42:41:243
1002,385681	90,846664	29,000000	1002,399658	2020-10-29T19:42:41:282
1002,385498	90,846664	28,990000	1002,383789	2020-10-29T19:42:41:523
1002,384766	90,854591	28,980000	1002,378174	2020-10-29T19:42:41:763
1002,383606	90,862518	28,990000	1002,373291	2020-10-29T19:42:42:003
1002,384949	90,851944	28,980000	1002,397217	2020-10-29T19:42:42:243
1002,386963	90,836090	28,980000	1002,405273	2020-10-29T19:42:42:485
1002,390808	90,801743	28,980000	1002,425049	2020-10-29T19:42:42:724
1002,392822	90,785889	28,980000	1002,410400	2020-10-29T19:42:42:964
1002,395386	90,764748	28,980000	1002,418701	2020-10-29T19:42:43:204
1002,395752	90,762108	28,980000	1002,399170	2020-10-29T19:42:43:445
1002,393494	90,780602	28,990000	1002,373291	2020-10-29T19:42:43:684
1002,391357	90,799103	28,969999	1002,372314	2020-10-29T19:42:43:925
1002,391541	90,796455	28,980000	1002,392822	2020-10-29T19:42:44:165
1002,392578	90,788528	28,980000	1002,401855	2020-10-29T19:42:44:406
1002,392944	90,783249	28,980000	1002,395996	2020-10-29T19:42:44:645
1002,395630	90,762108	28,980000	1002,419922	2020-10-29T19:42:44:887
1002,399170	90,733040	28,980000	1002,430908	2020-10-29T19:42:45:126
1002,400818	90,719833	28,980000	1002,415527	2020-10-29T19:42:45:366
1002,406311	90,672272	28,980000	1002,455566	2020-10-29T19:42:45:608
1002,408936	90,651131	28,980000	1002,432861	2020-10-29T19:42:45:847
1002,409790	90,643204	28,980000	1002,417480	2020-10-29T19:42:46:097
1002,408386	90,656418	28,980000	1002,395752	2020-10-29T19:42:46:327
1002,401550	90,711906	28,990000	1002,339600	2020-10-29T19:42:46:567
1002,398926	90,733040	28,980000	1002,375244	2020-10-29T19:42:46:807
1002,395813	90,759468	28,980000	1002,368164	2020-10-29T19:42:47:047
1002,392883	90,785889	28,980000	1002,366455	2020-10-29T19:42:47:289
1002,391663	90,796455	28,980000	1002,380859	2020-10-29T19:42:47:529
1002,390320	90,807030	28,980000	1002,378418	2020-10-29T19:42:47:769
1002,388428	90,822884	28,980000	1002,371582	2020-10-29T19:42:48:009
1002,387878	90,828163	28,980000	1002,383057	2020-10-29T19:42:48:248
1002,387207	90,833450	28,990000	1002,381348	2020-10-29T19:42:48:490
1002,388855	90,820236	28,980000	1002,404053	2020-10-29T19:42:48:730
1002,387146	90,833450	28,980000	1002,371582	2020-10-29T19:42:48:969
1002,386841	90,836090	28,980000	1002,383789	2020-10-29T19:42:49:210
1002,385315	90,849304	28,980000	1002,371338	2020-10-29T19:42:49:449
1002,383789	90,862518	28,980000	1002,369873	2020-10-29T19:42:49:690
1002,380432	90,888939	28,980000	1002,350098	2020-10-29T19:42:49:931
1002,378845	90,902145	28,980000	1002,364014	2020-10-29T19:42:50:171
1002,376160	90,925926	28,969999	1002,352051	2020-10-29T19:42:50:411
1002,375610	90,931213	28,969999	1002,370117	2020-10-29T19:42:50:652
1002,373962	90,944427	28,980000	1002,359375	2020-10-29T19:42:50:892
1002,374512	90,939140	28,969999	1002,379639	2020-10-29T19:42:51:133
1002,377258	90,915359	28,980000	1002,402100	2020-10-29T19:42:51:372
1002,380554	90,888939	28,969999	1002,409912	2020-10-29T19:42:51:611
1002,384766	90,854591	28,980000	1002,422852	2020-10-29T19:42:51:853
1002,386230	90,841377	28,980000	1002,399414	2020-10-29T19:42:52:092
1002,387939	90,825523	28,980000	1002,403564	2020-10-29T19:42:52:333
1002,390015	90,809669	28,969999	1002,408691	2020-10-29T19:42:52:573
1002,391174	90,799103	28,969999	1002,401367	2020-10-29T19:42:52:814
1002,393127	90,783249	28,969999	1002,410645	2020-10-29T19:42:53:053
1002,393555	90,780602	28,969999	1002,397461	2020-10-29T19:42:53:294
1002,394653	90,770035	28,969999	1002,404785	2020-10-29T19:42:53:534
1002,395203	90,764748	28,969999	1002,400146	2020-10-29T19:42:53:775
1002,393921	90,775322	28,969999	1002,382324	2020-10-29T19:42:54:015
1002,395264	90,764748	28,969999	1002,407715	2020-10-29T19:42:54:255
1002,396118	90,759468	28,959999	1002,404053	2020-10-29T19:42:54:495
1002,394470	90,772675	28,969999	1002,379395	2020-10-29T19:42:54:735
1002,390747	90,804382	28,959999	1002,356934	2020-10-29T19:42:54:975
1002,387939	90,825523	28,969999	1002,362549	2020-10-29T19:42:55:216
1002,385681	90,846664	28,959999	1002,365234	2020-10-29T19:42:55:455
1002,385925	90,844017	28,969999	1002,388184	2020-10-29T19:42:55:696
1002,384033	90,859871	28,969999	1002,366699	2020-10-29T19:42:55:936
1002,383057	90,867798	28,969999	1002,374023	2020-10-29T19:42:56:177
1002,381531	90,881012	28,969999	1002,367676	2020-10-29T19:42:56:416
1002,381775	90,878372	28,969999	1002,383545	2020-10-29T19:42:56:658
1002,379028	90,902145	28,969999	1002,354736	2020-10-29T19:42:56:898
1002,381592	90,881012	28,969999	1002,404297	2020-10-29T19:42:57:138
1002,386902	90,836090	28,969999	1002,434570	2020-10-29T19:42:57:377
1002,384521	90,854591	28,969999	1002,363037	2020-10-29T19:42:57:618
1002,381592	90,881012	28,969999	1002,355225	2020-10-29T19:42:57:858
1002,378296	90,907433	28,969999	1002,348633	2020-10-29T19:42:58:099
1002,379578	90,896866	28,969999	1002,391357	2020-10-29T19:42:58:339
1002,380493	90,888939	28,959999	1002,388672	2020-10-29T19:42:58:579
1002,381653	90,878372	28,959999	1002,392334	2020-10-29T19:42:58:820
1002,381775	90,878372	28,969999	1002,382324	2020-10-29T19:42:59:061
1002,381226	90,883652	28,969999	1002,376221	2020-10-29T19:42:59:299
1002,383484	90,865158	28,969999	1002,403809	2020-10-29T19:42:59:540
1002,381409	90,881012	28,969999	1002,362549	2020-10-29T19:42:59:780
1002,383789	90,862518	28,959999	1002,405029	2020-10-29T19:43:00:021
1002,384583	90,854591	28,969999	1002,391602	2020-10-29T19:43:00:260
1002,386108	90,841377	28,969999	1002,399414	2020-10-29T19:43:00:501
1002,388184	90,825523	28,969999	1002,406982	2020-10-29T19:43:00:742
1002,388245	90,822884	28,969999	1002,388428	2020-10-29T19:43:00:983
1002,385437	90,846664	28,969999	1002,360107	2020-10-29T19:43:01:222
1002,382080	90,875725	28,969999	1002,352295	2020-10-29T19:43:01:463
1002,378174	90,910072	28,959999	1002,342773	2020-10-29T19:43:01:702
1002,381592	90,881012	28,969999	1002,412598	2020-10-29T19:43:01:943
1002,384033	90,859871	28,969999	1002,405518	2020-10-29T19:43:02:183
1002,383301	90,865158	28,980000	1002,376221	2020-10-29T19:43:02:423
1002,384216	90,857231	28,969999	1002,392090	2020-10-29T19:43:02:662
1002,383240	90,865158	28,969999	1002,374756	2020-10-29T19:43:02:904
1002,380432	90,888939	28,969999	1002,354980	2020-10-29T19:43:03:143
1002,379456	90,899506	28,959999	1002,370361	2020-10-29T19:43:03:383
1002,383240	90,865158	28,969999	1002,417236	2020-10-29T19:43:03:624
1002,387146	90,833450	28,969999	1002,422363	2020-10-29T19:43:03:864
1002,390564	90,804382	28,969999	1002,420898	2020-10-29T19:43:04:106
1002,391968	90,793816	28,969999	1002,404785	2020-10-29T19:43:04:345
1002,394714	90,770035	28,969999	1002,418945	2020-10-29T19:43:04:585
1002,394714	90,770035	28,969999	1002,395020	2020-10-29T19:43:04:827
1002,393982	90,775322	28,969999	1002,387207	2020-10-29T19:43:05:066
1002,391479	90,796455	28,959999	1002,369385	2020-10-29T19:43:05:307
1002,389465	90,814957	28,969999	1002,371582	2020-10-29T19:43:05:547
1002,392883	90,785889	28,969999	1002,423340	2020-10-29T19:43:05:787
1002,396118	90,759468	28,959999	1002,425049	2020-10-29T19:43:06:026
1002,396729	90,754181	28,959999	1002,401855	2020-10-29T19:43:06:267
1002,393738	90,777962	28,959999	1002,366943	2020-10-29T19:43:06:507
1002,393372	90,780602	28,959999	1002,389893	2020-10-29T19:43:06:747
1002,393738	90,777962	28,959999	1002,397461	2020-10-29T19:43:06:987
1002,391357	90,799103	28,959999	1002,369629	2020-10-29T19:43:07:229
1002,390503	90,804382	28,959999	1002,382568	2020-10-29T19:43:07:467
1002,389099	90,817596	28,959999	1002,376465	2020-10-29T19:43:07:707
1002,389404	90,814957	28,959999	1002,392578	2020-10-29T19:43:07:948
1002,389832	90,809669	28,949999	1002,393311	2020-10-29T19:43:08:188
1002,391174	90,799103	28,949999	1002,403564	2020-10-29T19:43:08:430
1002,392639	90,785889	28,949999	1002,405518	2020-10-29T19:43:08:679
1002,391968	90,793816	28,949999	1002,385742	2020-10-29T19:43:08:909
1002,392578	90,788528	28,949999	1002,397705	2020-10-29T19:43:09:149
1002,392822	90,785889	28,949999	1002,395020	2020-10-29T19:43:09:389
1002,392029	90,791176	28,949999	1002,385254	2020-10-29T19:43:09:631
1002,392456	90,788528	28,949999	1002,395996	2020-10-29T19:43:09:870
1002,391418	90,796455	28,949999	1002,381836	2020-10-29T19:43:10:111
1002,392639	90,785889	28,939999	1002,403564	2020-10-29T19:43:10:351
1002,394714	90,770035	28,949999	1002,413330	2020-10-29T19:43:10:591
1002,393677	90,777962	28,949999	1002,384521	2020-10-29T19:43:10:831
1002,391296	90,799103	28,939999	1002,369629	2020-10-29T19:43:11:076
1002,390930	90,801743	28,939999	1002,387207	2020-10-29T19:43:11:312
1002,395081	90,767395	28,949999	1002,432373	2020-10-29T19:43:11:551
1002,396912	90,751541	28,939999	1002,413330	2020-10-29T19:43:11:792
1002,395813	90,759468	28,939999	1002,385498	2020-10-29T19:43:12:033
1002,395630	90,762108	28,939999	1002,394287	2020-10-29T19:43:12:273
1002,392578	90,788528	28,939999	1002,364746	2020-10-29T19:43:12:513
1002,392334	90,788528	28,939999	1002,389893	2020-10-29T19:43:12:753
1002,390015	90,809669	28,939999	1002,369385	2020-10-29T19:43:12:993
1002,389099	90,817596	28,939999	1002,380859	2020-10-29T19:43:13:235
1002,390076	90,809669	28,939999	1002,399170	2020-10-29T19:43:13:474
1002,392883	90,785889	28,949999	1002,417725	2020-10-29T19:43:13:713
1002,394897	90,767395	28,939999	1002,413330	2020-10-29T19:43:13:955
1002,395325	90,764748	28,939999	1002,399170	2020-10-29T19:43:14:195
1002,394836	90,770035	28,939999	1002,390381	2020-10-29T19:43:14:435
1002,393921	90,775322	28,949999	1002,385498	2020-10-29T19:43:14:675
1002,391174	90,799103	28,939999	1002,366699	2020-10-29T19:43:14:916
1002,392700	90,785889	28,949999	1002,406494	2020-10-29T19:43:15:156
1002,393127	90,783249	28,939999	1002,397217	2020-10-29T19:43:15:395
1002,390503	90,804382	28,939999	1002,366455	2020-10-29T19:43:15:635
1002,389160	90,817596	28,939999	1002,377197	2020-10-29T19:43:15:878
1002,387390	90,830811	28,939999	1002,371338	2020-10-29T19:43:16:116
1002,385803	90,844017	28,939999	1002,371582	2020-10-29T19:43:16:356
1002,384827	90,851944	28,939999	1002,375732	2020-10-29T19:43:16:596
1002,384094	90,859871	28,939999	1002,377441	2020-10-29T19:43:16:837
1002,384460	90,857231	28,939999	1002,387207	2020-10-29T19:43:17:077
1002,384460	90,857231	28,930000	1002,384277	2020-10-29T19:43:17:318
1002,386475	90,838737	28,930000	1002,404297	2020-10-29T19:43:17:559
1002,386169	90,841377	28,939999	1002,383057	2020-10-29T19:43:17:799
1002,387024	90,833450	28,930000	1002,394775	2020-10-29T19:43:18:039
1002,388062	90,825523	28,930000	1002,397217	2020-10-29T19:43:18:278
1002,384827	90,851944	28,930000	1002,355957	2020-10-29T19:43:18:519
1002,384338	90,857231	28,930000	1002,380371	2020-10-29T19:43:18:759
1002,384399	90,857231	28,930000	1002,384766	2020-10-29T19:43:18:999
1002,385132	90,849304	28,930000	1002,391602	2020-10-29T19:43:19:240
1002,384766	90,854591	28,930000	1002,381348	2020-10-29T19:43:19:480
1002,383179	90,867798	28,930000	1002,369385	2020-10-29T19:43:19:720
1002,382385	90,873085	28,930000	1002,375244	2020-10-29T19:43:19:959
1002,378601	90,904793	28,920000	1002,344971	2020-10-29T19:43:20:201
1002,375488	90,931213	28,930000	1002,346924	2020-10-29T19:43:20:441
1002,373535	90,947067	28,920000	1002,355957	2020-10-29T19:43:20:680
1002,369812	90,978775	28,920000	1002,336182	2020-10-29T19:43:20:921
1002,371216	90,968208	28,930000	1002,383545	2020-10-29T19:43:21:163
1002,370483	90,973488	28,920000	1002,363770	2020-10-29T19:43:21:402
1002,373291	90,949707	28,920000	1002,398682	2020-10-29T19:43:21:643
1002,376282	90,923286	28,930000	1002,403564	2020-10-29T19:43:21:882
1002,379211	90,899506	28,920000	1002,405518	2020-10-29T19:43:22:123
1002,376221	90,925926	28,930000	1002,349121	2020-10-29T19:43:22:363
1002,373596	90,947067	28,930000	1002,350098	2020-10-29T19:43:22:604
1002,374329	90,941780	28,930000	1002,380859	2020-10-29T19:43:22:843
1002,375793	90,928574	28,920000	1002,388916	2020-10-29T19:43:23:083
1002,378906	90,902145	28,920000	1002,406738	2020-10-29T19:43:23:323
1002,380737	90,886299	28,930000	1002,396973	2020-10-29T19:43:23:564
1002,381592	90,881012	28,920000	1002,389404	2020-10-29T19:43:23:804
1002,382324	90,873085	28,920000	1002,388428	2020-10-29T19:43:24:044
1002,383606	90,862518	28,920000	1002,395264	2020-10-29T19:43:24:286
1002,382629	90,870445	28,920000	1002,374268	2020-10-29T19:43:24:524
1002,382507	90,873085	28,920000	1002,381348	2020-10-29T19:43:24:764
1002,381042	90,883652	28,930000	1002,367920	2020-10-29T19:43:25:005
1002,376343	90,923286	28,920000	1002,333496	2020-10-29T19:43:25:245
1002,374023	90,944427	28,920000	1002,353027	2020-10-29T19:43:25:485
1002,372375	90,957634	28,920000	1002,357422	2020-10-29T19:43:25:725
1002,371521	90,965561	28,920000	1002,363770	2020-10-29T19:43:25:967
1002,374268	90,941780	28,920000	1002,399170	2020-10-29T19:43:26:206
1002,373901	90,944427	28,920000	1002,370605	2020-10-29T19:43:26:447
1002,374756	90,936501	28,930000	1002,382812	2020-10-29T19:43:26:687
1002,378967	90,902145	28,920000	1002,416992	2020-10-29T19:43:26:926
1002,379395	90,899506	28,920000	1002,383301	2020-10-29T19:43:27:167
1002,378418	90,907433	28,920000	1002,369873	2020-10-29T19:43:27:407
1002,377747	90,912720	28,920000	1002,371826	2020-10-29T19:43:27:648
1002,376770	90,920647	28,920000	1002,367676	2020-10-29T19:43:27:888
1002,378723	90,904793	28,920000	1002,396240	2020-10-29T19:43:28:128
1002,378479	90,907433	28,920000	1002,376709	2020-10-29T19:43:28:369
1002,376099	90,925926	28,920000	1002,354492	2020-10-29T19:43:28:609
1002,376770	90,920647	28,920000	1002,382812	2020-10-29T19:43:28:850
1002,375488	90,931213	28,920000	1002,363770	2020-10-29T19:43:29:089
1002,376831	90,920647	28,920000	1002,388672	2020-10-29T19:43:29:329
1002,380249	90,891579	28,920000	1002,411133	2020-10-29T19:43:29:569
1002,379578	90,896866	28,920000	1002,373291	2020-10-29T19:43:29:810
1002,380127	90,891579	28,910000	1002,385010	2020-10-29T19:43:30:051
1002,376343	90,923286	28,910000	1002,342529	2020-10-29T19:43:30:291
1002,376038	90,925926	28,910000	1002,373291	2020-10-29T19:43:30:531
1002,379028	90,902145	28,920000	1002,405762	2020-10-29T19:43:30:771
1002,380859	90,886299	28,920000	1002,397461	2020-10-29T19:43:31:010
1002,382507	90,873085	28,910000	1002,396973	2020-10-29T19:43:31:251
1002,384827	90,851944	28,920000	1002,406006	2020-10-29T19:43:31:491
1002,387146	90,833450	28,910000	1002,408447	2020-10-29T19:43:31:731
1002,388611	90,820236	28,920000	1002,401611	2020-10-29T19:43:31:972
1002,391296	90,799103	28,920000	1002,415527	2020-10-29T19:43:32:213
1002,396423	90,756821	28,920000	1002,442627	2020-10-29T19:43:32:452
1002,402100	90,709267	28,910000	1002,453125	2020-10-29T19:43:32:693
1002,405029	90,682838	28,910000	1002,431641	2020-10-29T19:43:32:933
1002,410034	90,640564	28,910000	1002,455322	2020-10-29T19:43:33:173
1002,414001	90,608856	28,910000	1002,449707	2020-10-29T19:43:33:413
1002,420105	90,556015	28,920000	1002,474609	2020-10-29T19:43:33:654
1002,426086	90,505806	28,910000	1002,479492	2020-10-29T19:43:33:893
1002,430603	90,468819	28,910000	1002,471191	2020-10-29T19:43:34:133
1002,441406	90,378983	28,910000	1002,539062	2020-10-29T19:43:34:374
1002,446228	90,336700	28,910000	1002,489502	2020-10-29T19:43:34:615
1002,448730	90,315567	28,910000	1002,471191	2020-10-29T19:43:34:855
1002,450867	90,297066	28,910000	1002,469971	2020-10-29T19:43:35:094
1002,452637	90,283859	28,900000	1002,468750	2020-10-29T19:43:35:335
1002,457214	90,244225	28,900000	1002,498291	2020-10-29T19:43:35:575
1002,463501	90,191376	28,900000	1002,520020	2020-10-29T19:43:35:816
1002,469055	90,146461	28,900000	1002,519531	2020-10-29T19:43:36:056
1002,475647	90,090973	28,889999	1002,535400	2020-10-29T19:43:36:296
1002,478821	90,064545	28,900000	1002,507080	2020-10-29T19:43:36:536
1002,480408	90,051338	28,889999	1002,495117	2020-10-29T19:43:36:777
1002,479614	90,056618	28,889999	1002,472168	2020-10-29T19:43:37:017
1002,477966	90,069832	28,889999	1002,463135	2020-10-29T19:43:37:257
1002,478088	90,069832	28,889999	1002,479248	2020-10-29T19:43:37:497
1002,478516	90,064545	28,889999	1002,481934	2020-10-29T19:43:37:737
1002,478271	90,067192	28,879999	1002,475830	2020-10-29T19:43:37:979
1002,479919	90,053978	28,889999	1002,495117	2020-10-29T19:43:38:218
1002,480774	90,046051	28,879999	1002,488281	2020-10-29T19:43:38:457
1002,478882	90,061905	28,879999	1002,461670	2020-10-29T19:43:38:700
1002,479492	90,056618	28,879999	1002,485352	2020-10-29T19:43:38:939
1002,477722	90,072472	28,869999	1002,462158	2020-10-29T19:43:39:179
1002,477356	90,075119	28,869999	1002,474121	2020-10-29T19:43:39:419
1002,479187	90,059265	28,869999	1002,495605	2020-10-29T19:43:39:659
1002,479736	90,056618	28,869999	1002,484375	2020-10-29T19:43:39:899
1002,482483	90,032845	28,879999	1002,507080	2020-10-29T19:43:40:140
1002,484741	90,014343	28,859999	1002,505371	2020-10-29T19:43:40:381
1002,485535	90,006416	28,859999	1002,492432	2020-10-29T19:43:40:620
1002,485046	90,011703	28,869999	1002,480957	2020-10-29T19:43:40:861
1002,488220	89,985283	28,869999	1002,517090	2020-10-29T19:43:41:116
1002,492249	89,950928	28,869999	1002,528564	2020-10-29T19:43:41:340
1002,494812	89,929794	28,869999	1002,518311	2020-10-29T19:44:02:150
1002,496277	89,916580	28,859999	1002,509521	2020-10-29T19:44:02:152
1002,496216	89,916580	28,859999	1002,495361	2020-10-29T19:44:02:153
1002,496460	89,913940	28,859999	1002,498779	2020-10-29T19:44:02:153
1002,495728	89,921867	28,859999	1002,489502	2020-10-29T19:44:02:153
1002,494568	89,932434	28,859999	1002,483643	2020-10-29T19:44:02:153
1002,496216	89,916580	28,859999	1002,510742	2020-10-29T19:44:02:153
1002,497131	89,908653	28,859999	1002,505371	2020-10-29T19:44:02:154
1002,498352	89,900726	28,859999	1002,509521	2020-10-29T19:44:02:154
1002,498718	89,895439	28,849998	1002,502197	2020-10-29T19:44:02:154
1002,498413	89,898087	28,849998	1002,495605	2020-10-29T19:44:02:155
1002,495544	89,921867	28,849998	1002,469727	2020-10-29T19:44:02:155
1002,497437	89,906013	28,849998	1002,514160	2020-10-29T19:44:02:155
1002,500610	89,879593	28,849998	1002,529053	2020-10-29T19:44:02:155
1002,499695	89,887512	28,849998	1002,490967	2020-10-29T19:44:02:155
1002,497375	89,908653	28,849998	1002,476562	2020-10-29T19:44:02:155
1002,497070	89,911293	28,849998	1002,494385	2020-10-29T19:44:02:156
1002,494202	89,935074	28,849998	1002,468506	2020-10-29T19:44:02:156
1002,489685	89,972069	28,849998	1002,449219	2020-10-29T19:44:02:156
1002,486145	90,001137	28,840000	1002,454102	2020-10-29T19:44:02:156
1002,479919	90,053978	28,840000	1002,424316	2020-10-29T19:44:02:156
1002,471497	90,125320	28,849998	1002,395264	2020-10-29T19:44:02:156
1002,468872	90,146461	28,840000	1002,445312	2020-10-29T19:44:02:156
1002,464111	90,186096	28,840000	1002,420898	2020-10-29T19:44:02:156
1002,456238	90,252151	28,840000	1002,385742	2020-10-29T19:44:02:157
1002,446655	90,334061	28,830000	1002,360840	2020-10-29T19:44:02:157
1002,438721	90,400116	28,830000	1002,367432	2020-10-29T19:44:02:157
1002,431763	90,458244	28,830000	1002,369385	2020-10-29T19:44:02:157
1002,424683	90,519020	28,830000	1002,361328	2020-10-29T19:44:02:157
1002,421265	90,545441	28,830000	1002,390381	2020-10-29T19:44:02:157
1002,415710	90,593002	28,840000	1002,365234	2020-10-29T19:44:02:157
1002,409180	90,648491	28,830000	1002,350342	2020-10-29T19:44:02:157
1002,403809	90,693413	28,820000	1002,355713	2020-10-29T19:44:02:158
1002,401672	90,711906	28,820000	1002,382324	2020-10-29T19:44:02:158
1002,401489	90,711906	28,820000	1002,399658	2020-10-29T19:44:02:159
1002,399170	90,733040	28,809999	1002,378174	2020-10-29T19:44:02:468
1002,393982	90,775322	28,820000	1002,347168	2020-10-29T19:44:02:470
1002,390137	90,809669	28,809999	1002,355469	2020-10-29T19:44:02:471
1002,388550	90,822884	28,820000	1002,373779	2020-10-29T19:44:02:472
1002,389343	90,814957	28,809999	1002,396484	2020-10-29T19:44:02:475
1002,389954	90,809669	28,809999	1002,395508	2020-10-29T19:44:02:486
1002,391541	90,796455	28,809999	1002,405762	2020-10-29T19:44:02:486
1002,387695	90,828163	28,809999	1002,353516	2020-10-29T19:44:02:486
1002,383179	90,867798	28,799999	1002,342529	2020-10-29T19:44:02:487
1002,380798	90,886299	28,809999	1002,359619	2020-10-29T19:44:02:487
1002,382568	90,873085	28,799999	1002,398193	2020-10-29T19:44:02:487
1002,383972	90,859871	28,799999	1002,396484	2020-10-29T19:44:02:487
1002,383545	90,862518	28,799999	1002,379639	2020-10-29T19:44:02:487
1002,382141	90,875725	28,789999	1002,369873	2020-10-29T19:44:02:488
1002,381836	90,878372	28,789999	1002,379150	2020-10-29T19:44:02:488
1002,382812	90,870445	28,789999	1002,391846	2020-10-29T19:44:02:488
1002,383301	90,865158	28,799999	1002,387207	2020-10-29T19:44:02:488
1002,385132	90,849304	28,799999	1002,401367	2020-10-29T19:44:02:489
1002,385132	90,849304	28,789999	1002,384766	2020-10-29T19:44:02:489
1002,388306	90,822884	28,779999	1002,416748	2020-10-29T19:44:02:489
1002,389160	90,817596	28,779999	1002,396729	2020-10-29T19:44:02:490
1002,389587	90,812309	28,779999	1002,393311	2020-10-29T19:44:02:490
1002,391113	90,799103	28,779999	1002,404297	2020-10-29T19:44:02:490
1002,396545	90,754181	28,779999	1002,445557	2020-10-29T19:44:02:491
1002,398193	90,740967	28,769999	1002,412842	2020-10-29T19:44:02:491
1002,396545	90,754181	28,769999	1002,382080	2020-10-29T19:44:02:493
1002,396606	90,754181	28,769999	1002,396973	2020-10-29T19:44:02:493
1002,396851	90,751541	28,769999	1002,399170	2020-10-29T19:44:02:493
1002,399353	90,730400	28,760000	1002,421875	2020-10-29T19:44:02:493
1002,400574	90,719833	28,760000	1002,411377	2020-10-29T19:44:02:493
1002,398682	90,735687	28,760000	1002,381104	2020-10-29T19:44:02:493
1002,395508	90,762108	28,760000	1002,366455	2020-10-29T19:44:02:493
1002,397400	90,746254	28,760000	1002,414062	2020-10-29T19:44:02:493
1002,400757	90,719833	28,750000	1002,430908	2020-10-29T19:44:02:493
1002,401184	90,714546	28,760000	1002,405029	2020-10-29T19:44:02:493
1002,401184	90,714546	28,750000	1002,400635	2020-10-29T19:44:02:494
1002,399536	90,730400	28,750000	1002,384277	2020-10-29T19:44:02:494
1002,401306	90,714546	28,740000	1002,417480	2020-10-29T19:44:02:494
1002,400818	90,719833	28,740000	1002,396729	2020-10-29T19:44:02:495
1002,398376	90,738327	28,740000	1002,376465	2020-10-29T19:44:02:495
1002,397644	90,746254	28,740000	1002,390869	2020-10-29T19:44:02:495
1002,398682	90,735687	28,730000	1002,407959	2020-10-29T19:44:02:495
1002,398926	90,733040	28,730000	1002,400879	2020-10-29T19:44:02:495
1002,400146	90,725113	28,730000	1002,411133	2020-10-29T19:44:02:495
1002,399719	90,727760	28,730000	1002,395996	2020-10-29T19:44:02:495
1002,398315	90,738327	28,730000	1002,385498	2020-10-29T19:44:02:495
1002,397217	90,748894	28,730000	1002,387695	2020-10-29T19:44:02:495
1002,394104	90,775322	28,719999	1002,365967	2020-10-29T19:44:02:495
1002,392517	90,788528	28,709999	1002,378174	2020-10-29T19:44:02:495
1002,391846	90,793816	28,719999	1002,385742	2020-10-29T19:44:02:497
1002,390869	90,801743	28,719999	1002,382080	2020-10-29T19:44:02:589
1002,388672	90,820236	28,709999	1002,369141	2020-10-29T19:44:02:815
1002,386841	90,836090	28,709999	1002,370605	2020-10-29T19:44:03:064
1002,382874	90,870445	28,709999	1002,346924	2020-10-29T19:44:03:306
1002,382141	90,875725	28,709999	1002,375488	2020-10-29T19:44:03:538
1002,382446	90,873085	28,699999	1002,385254	2020-10-29T19:44:03:778
1002,384338	90,857231	28,699999	1002,401367	2020-10-29T19:44:04:019
1002,387817	90,828163	28,689999	1002,418945	2020-10-29T19:44:04:260
1002,388306	90,822884	28,699999	1002,393066	2020-10-29T19:44:04:499
1002,385681	90,846664	28,689999	1002,362061	2020-10-29T19:44:04:737
1002,388489	90,822884	28,699999	1002,413818	2020-10-29T19:44:05:053
1002,388000	90,825523	28,689999	1002,383789	2020-10-29T19:44:05:219
1002,384888	90,851944	28,689999	1002,356689	2020-10-29T19:44:05:460
1002,379822	90,894226	28,689999	1002,334229	2020-10-29T19:44:05:700
1002,376343	90,923286	28,689999	1002,344727	2020-10-29T19:44:05:961
1002,376465	90,923286	28,689999	1002,377686	2020-10-29T19:44:06:184
1002,376282	90,923286	28,689999	1002,374512	2020-10-29T19:44:06:423
1002,378479	90,907433	28,689999	1002,398193	2020-10-29T19:44:06:663
1002,380249	90,891579	28,689999	1002,396240	2020-10-29T19:44:07:100
1002,381958	90,875725	28,689999	1002,397461	2020-10-29T19:44:07:167
1002,382141	90,875725	28,689999	1002,383545	2020-10-29T19:44:07:503
1002,381653	90,878372	28,689999	1002,377197	2020-10-29T19:44:07:633
1002,380310	90,891579	28,689999	1002,367920	2020-10-29T19:44:07:863
1002,379639	90,896866	28,699999	1002,373535	2020-10-29T19:44:08:103
1002,381226	90,883652	28,699999	1002,395264	2020-10-29T19:44:08:343
1002,383179	90,867798	28,699999	1002,400635	2020-10-29T19:44:08:583
1002,386536	90,838737	28,699999	1002,416992	2020-10-29T19:44:08:831
1002,385559	90,846664	28,699999	1002,376709	2020-10-29T19:44:09:063
1002,382141	90,875725	28,699999	1002,351562	2020-10-29T19:44:09:301
1002,377991	90,910072	28,699999	1002,340576	2020-10-29T19:44:09:544
1002,374939	90,936501	28,699999	1002,346924	2020-10-29T19:44:09:827
1002,371216	90,968208	28,709999	1002,337646	2020-10-29T19:44:10:025
1002,371216	90,968208	28,709999	1002,370850	2020-10-29T19:44:10:265
1002,373047	90,952354	28,719999	1002,389404	2020-10-29T19:44:10:506
1002,373291	90,949707	28,709999	1002,375000	2020-10-29T19:44:10:748
