x	y	z	ts
-0,641276	1,643869	9,078369	2020-10-29T19:41:47:105
-0,327817	1,708475	9,300901	2020-10-29T19:41:47:105
-0,234497	1,883151	9,176475	2020-10-29T19:41:47:153
0,162712	1,529014	9,049655	2020-10-29T19:41:47:156
0,162712	1,529014	9,049655	2020-10-29T19:41:47:169
0,162712	1,529014	9,049655	2020-10-29T19:41:47:169
0,162712	1,529014	9,049655	2020-10-29T19:41:47:170
0,165105	1,416551	8,963513	2020-10-29T19:41:47:170
-0,162712	1,067199	9,523434	2020-10-29T19:41:47:186
-0,179462	1,050449	9,803394	2020-10-29T19:41:47:206
0,284746	1,098306	9,449257	2020-10-29T19:41:47:226
0,327817	0,873380	9,104690	2020-10-29T19:41:47:246
0,064606	0,253639	9,142976	2020-10-29T19:41:47:266
-0,088534	0,562313	9,456435	2020-10-29T19:41:47:286
0,361316	0,502493	9,556933	2020-10-29T19:41:47:307
0,122034	0,334995	9,454042	2020-10-29T19:41:47:326
0,567099	-0,129212	9,492328	2020-10-29T19:41:47:346
0,674776	0,282353	9,224331	2020-10-29T19:41:47:366
1,103091	0,284746	9,269794	2020-10-29T19:41:47:386
1,550549	-0,315853	9,126225	2020-10-29T19:41:47:406
1,399801	-0,564706	9,030513	2020-10-29T19:41:47:426
0,937986	-0,327817	9,181261	2020-10-29T19:41:47:446
1,127020	-0,177069	9,209974	2020-10-29T19:41:47:466
1,471586	-0,390030	8,903693	2020-10-29T19:41:47:486
1,701297	-0,856631	9,016156	2020-10-29T19:41:47:508
1,873580	-0,784846	9,248260	2020-10-29T19:41:47:526
2,019542	-0,516850	8,819944	2020-10-29T19:41:47:548
2,244468	-0,641276	8,085347	2020-10-29T19:41:47:566
2,151148	-1,217947	8,405986	2020-10-29T19:41:47:587
2,318645	-1,861616	8,606983	2020-10-29T19:41:47:606
2,572284	-2,002793	9,054441	2020-10-29T19:41:47:628
2,703890	-2,225325	9,224331	2020-10-29T19:41:47:646
3,160919	-2,220540	9,049655	2020-10-29T19:41:47:668
3,285345	-2,488536	9,133404	2020-10-29T19:41:47:686
3,510271	-2,490928	9,561719	2020-10-29T19:41:47:708
3,481557	-2,483750	9,107083	2020-10-29T19:41:47:726
3,170490	-2,799603	8,994620	2020-10-29T19:41:47:747
3,464807	-3,058028	9,549755	2020-10-29T19:41:47:766
3,629912	-2,598605	9,138189	2020-10-29T19:41:47:788
3,620341	-2,703890	8,748159	2020-10-29T19:41:47:807
3,414558	-2,943172	8,274381	2020-10-29T19:41:47:827
3,613162	-3,483950	8,822337	2020-10-29T19:41:47:846
3,940979	-3,029313	8,659625	2020-10-29T19:41:47:867
4,424329	-2,672783	8,851050	2020-10-29T19:41:47:886
4,512863	-2,758924	9,042477	2020-10-29T19:41:47:908
4,967500	-3,208775	9,023334	2020-10-29T19:41:47:926
5,350351	-3,431308	9,150154	2020-10-29T19:41:47:947
5,764310	-3,043670	9,291330	2020-10-29T19:41:47:967
6,034698	-3,337988	9,121440	2020-10-29T19:41:47:987
6,046663	-3,366701	9,097511	2020-10-29T19:41:48:006
6,065805	-3,328416	8,807980	2020-10-29T19:41:48:027
5,857630	-3,452843	8,650054	2020-10-29T19:41:48:046
5,716454	-3,543770	8,757731	2020-10-29T19:41:48:067
5,663811	-3,397808	8,841480	2020-10-29T19:41:48:086
5,393422	-3,352344	8,764909	2020-10-29T19:41:48:107
5,295317	-3,278167	8,169096	2020-10-29T19:41:48:127
4,991428	-3,522235	8,233703	2020-10-29T19:41:48:148
4,804788	-3,550949	8,417950	2020-10-29T19:41:48:168
4,680361	-3,445665	8,331808	2020-10-29T19:41:48:187
4,481757	-3,467200	8,504091	2020-10-29T19:41:48:208
4,780859	-3,704089	8,126025	2020-10-29T19:41:48:227
4,845466	-2,833102	8,315059	2020-10-29T19:41:48:248
4,876573	-3,629912	8,023134	2020-10-29T19:41:48:268
4,912465	-3,596412	7,707282	2020-10-29T19:41:48:288
4,840680	-4,388437	7,456036	2020-10-29T19:41:48:307
4,857430	-4,917251	7,044470	2020-10-29T19:41:48:331
4,948357	-4,438686	6,934400	2020-10-29T19:41:48:349
5,046463	-4,474578	6,960721	2020-10-29T19:41:48:370
5,015356	-4,395615	7,355537	2020-10-29T19:41:48:388
4,919643	-4,151547	7,647461	2020-10-29T19:41:48:410
4,723432	-4,340580	7,573284	2020-10-29T19:41:48:428
4,658825	-4,534399	7,700103	2020-10-29T19:41:48:450
4,503292	-4,491328	7,738388	2020-10-29T19:41:48:469
4,417150	-4,362115	7,700103	2020-10-29T19:41:48:490
4,527221	-4,443472	7,621140	2020-10-29T19:41:48:510
4,421937	-4,383651	7,472785	2020-10-29T19:41:48:530
4,405186	-4,342973	7,475177	2020-10-29T19:41:48:551
4,527221	-3,711268	7,724032	2020-10-29T19:41:48:570
4,752146	-3,842873	8,204988	2020-10-29T19:41:48:589
4,929214	-4,292724	8,331808	2020-10-29T19:41:48:611
4,814359	-4,390830	7,958528	2020-10-29T19:41:48:629
4,682754	-4,433900	7,872386	2020-10-29T19:41:48:651
4,883751	-4,230510	8,059027	2020-10-29T19:41:48:670
5,422136	-2,581856	9,588040	2020-10-29T19:41:48:690
4,625326	-3,850052	7,652246	2020-10-29T19:41:48:709
4,773681	-4,424329	7,623533	2020-10-29T19:41:48:730
4,725825	-4,197011	7,633104	2020-10-29T19:41:48:750
4,766503	-4,189832	7,570890	2020-10-29T19:41:48:770
4,768896	-4,084548	7,022934	2020-10-29T19:41:48:790
4,687540	-3,536592	7,568498	2020-10-29T19:41:48:810
4,864608	-5,283352	7,733603	2020-10-29T19:41:48:829
4,752146	-3,955336	7,786245	2020-10-29T19:41:48:850
4,637290	-4,213760	7,680960	2020-10-29T19:41:48:869
4,749753	-3,969693	7,747960	2020-10-29T19:41:48:890
4,809574	-3,991228	7,795816	2020-10-29T19:41:48:909
4,821537	-4,113262	7,812566	2020-10-29T19:41:48:931
4,898108	-3,981657	7,601997	2020-10-29T19:41:48:949
4,838287	-3,596412	7,477571	2020-10-29T19:41:48:970
4,881358	-3,814159	7,460821	2020-10-29T19:41:48:990
4,819145	-4,058227	7,726424	2020-10-29T19:41:49:010
4,955536	-3,818945	7,649854	2020-10-29T19:41:49:029
5,168497	-3,802195	7,879565	2020-10-29T19:41:49:050
4,874180	-3,512664	7,807780	2020-10-29T19:41:49:070
4,974678	-3,594020	7,960921	2020-10-29T19:41:49:090
4,993821	-3,622734	7,865208	2020-10-29T19:41:49:110
5,003392	-3,658626	7,597212	2020-10-29T19:41:49:131
5,067998	-3,596412	7,348359	2020-10-29T19:41:49:149
4,981857	-3,538985	7,336394	2020-10-29T19:41:49:171
4,910072	-3,543770	7,353144	2020-10-29T19:41:49:190
4,878965	-3,696911	7,410572	2020-10-29T19:41:49:211
4,709075	-3,823731	7,477571	2020-10-29T19:41:49:230
4,584648	-3,594020	7,532606	2020-10-29T19:41:49:251
4,744967	-3,639483	7,563712	2020-10-29T19:41:49:270
4,673182	-3,577270	7,779066	2020-10-29T19:41:49:292
4,567898	-3,644269	7,869993	2020-10-29T19:41:49:310
4,558327	-3,601198	8,226524	2020-10-29T19:41:49:331
4,744967	-3,371487	8,434700	2020-10-29T19:41:49:350
4,974678	-3,778267	8,118847	2020-10-29T19:41:49:371
4,697111	-3,388237	7,980063	2020-10-29T19:41:49:390
5,149354	-3,524628	7,963314	2020-10-29T19:41:49:411
5,151747	-3,661019	8,006385	2020-10-29T19:41:49:430
5,020142	-3,785445	7,372287	2020-10-29T19:41:49:451
4,996214	-3,053242	7,161718	2020-10-29T19:41:49:472
5,187639	-2,617748	7,496714	2020-10-29T19:41:49:491
5,146961	-3,180061	8,008778	2020-10-29T19:41:49:511
5,111069	-4,022335	7,791030	2020-10-29T19:41:49:535
4,984250	-4,060620	8,118847	2020-10-29T19:41:49:554
4,936393	-3,637090	7,812566	2020-10-29T19:41:49:571
5,206782	-3,728018	7,429714	2020-10-29T19:41:49:590
4,821537	-3,541377	7,791030	2020-10-29T19:41:49:611
4,852644	-3,498307	7,657032	2020-10-29T19:41:49:630
4,936393	-3,467200	7,700103	2020-10-29T19:41:49:651
5,034499	-3,814159	7,558927	2020-10-29T19:41:49:671
5,127820	-3,340380	7,020542	2020-10-29T19:41:49:691
5,123034	-3,268596	7,267002	2020-10-29T19:41:49:711
5,082355	-3,728018	7,372287	2020-10-29T19:41:49:731
5,044070	-3,792624	7,379465	2020-10-29T19:41:49:750
5,225924	-3,991228	7,745567	2020-10-29T19:41:49:772
5,185246	-3,751946	7,657032	2020-10-29T19:41:49:790
5,084748	-3,744767	7,530212	2020-10-29T19:41:49:811
5,089533	-3,364309	7,664211	2020-10-29T19:41:49:830
4,974678	-2,988636	7,807780	2020-10-29T19:41:49:852
5,056034	-2,871387	7,800602	2020-10-29T19:41:49:870
5,228317	-2,897708	7,671390	2020-10-29T19:41:49:891
5,391029	-3,244668	7,654640	2020-10-29T19:41:49:911
5,410172	-3,280560	7,625926	2020-10-29T19:41:49:931
5,359922	-3,519842	7,403394	2020-10-29T19:41:49:952
5,245068	-3,629912	7,456036	2020-10-29T19:41:49:971
5,139783	-3,515057	7,302894	2020-10-29T19:41:49:990
4,981857	-3,708875	7,556533	2020-10-29T19:41:50:012
5,221139	-4,491328	7,764710	2020-10-29T19:41:50:030
5,000999	-4,352544	7,692925	2020-10-29T19:41:50:051
4,814359	-4,180261	7,640282	2020-10-29T19:41:50:071
4,713861	-3,763910	7,673782	2020-10-29T19:41:50:092
4,733003	-3,828516	7,424929	2020-10-29T19:41:50:110
4,771288	-3,926622	7,590034	2020-10-29T19:41:50:132
4,792823	-3,302095	7,587641	2020-10-29T19:41:50:150
5,034499	-3,751946	7,702496	2020-10-29T19:41:50:172
5,161318	-3,656233	7,824530	2020-10-29T19:41:50:192
4,991428	-3,261417	7,604390	2020-10-29T19:41:50:212
5,103891	-3,586841	7,843673	2020-10-29T19:41:50:230
4,984250	-3,538985	8,032705	2020-10-29T19:41:50:252
4,924429	-3,297310	8,023134	2020-10-29T19:41:50:272
4,634897	-2,780460	7,585248	2020-10-29T19:41:50:292
4,759324	-2,861816	8,066205	2020-10-29T19:41:50:311
4,728218	-3,105884	8,080563	2020-10-29T19:41:50:333
4,534399	-3,034099	7,733603	2020-10-29T19:41:50:350
4,610970	-2,732604	8,508877	2020-10-29T19:41:50:372
4,766503	-3,024528	8,925228	2020-10-29T19:41:50:391
4,797609	-3,165704	8,896514	2020-10-29T19:41:50:412
4,689932	-3,282953	8,709875	2020-10-29T19:41:50:432
4,689932	-2,897708	8,472985	2020-10-29T19:41:50:452
4,649254	-2,835495	8,377272	2020-10-29T19:41:50:471
4,728218	-2,175076	8,212167	2020-10-29T19:41:50:492
4,807181	-1,871187	7,913064	2020-10-29T19:41:50:511
5,056034	-1,356731	7,747960	2020-10-29T19:41:50:532
5,383851	-2,242075	7,702496	2020-10-29T19:41:50:551
5,718846	-2,541178	7,838887	2020-10-29T19:41:50:573
5,826523	-3,086741	7,920243	2020-10-29T19:41:50:591
5,795416	-2,897708	7,841280	2020-10-29T19:41:50:613
5,766702	-3,318845	7,664211	2020-10-29T19:41:50:631
5,630312	-3,156133	7,420143	2020-10-29T19:41:50:652
5,560920	-3,227918	7,353144	2020-10-29T19:41:50:674
5,503492	-3,304488	7,319644	2020-10-29T19:41:50:692
5,412565	-3,141776	7,326823	2020-10-29T19:41:50:711
5,405386	-3,089134	7,329216	2020-10-29T19:41:50:733
5,431707	-3,187240	7,384251	2020-10-29T19:41:50:751
5,367101	-3,215954	7,511070	2020-10-29T19:41:50:773
5,343173	-3,263810	7,477571	2020-10-29T19:41:50:791
5,321638	-3,230310	7,499106	2020-10-29T19:41:50:813
5,374279	-3,352344	7,551748	2020-10-29T19:41:50:831
5,276174	-3,381058	7,611568	2020-10-29T19:41:50:853
5,180461	-3,007778	7,489535	2020-10-29T19:41:50:871
5,316852	-3,605984	7,465607	2020-10-29T19:41:50:892
5,297709	-3,495914	7,221539	2020-10-29T19:41:50:912
5,441278	-3,586841	7,161718	2020-10-29T19:41:50:934
5,599205	-3,495914	7,420143	2020-10-29T19:41:50:951
5,558527	-3,275774	7,341179	2020-10-29T19:41:50:973
5,730811	-3,419343	7,336394	2020-10-29T19:41:50:991
5,637490	-3,594020	7,508677	2020-10-29T19:41:51:013
5,479564	-3,192025	7,886744	2020-10-29T19:41:51:031
5,560920	-2,955136	8,092526	2020-10-29T19:41:51:053
5,395815	-3,002992	8,212167	2020-10-29T19:41:51:071
5,558527	-3,457629	8,080563	2020-10-29T19:41:51:093
5,364708	-3,273381	7,913064	2020-10-29T19:41:51:111
5,393422	-3,175276	7,944171	2020-10-29T19:41:51:133
5,271388	-3,098706	8,090133	2020-10-29T19:41:51:154
5,233103	-3,144169	8,049455	2020-10-29T19:41:51:174
4,984250	-3,397808	7,625926	2020-10-29T19:41:51:191
4,914857	-3,309274	7,570890	2020-10-29T19:41:51:214
4,898108	-3,175276	7,896315	2020-10-29T19:41:51:231
4,941179	-3,203990	7,791030	2020-10-29T19:41:51:253
4,972286	-3,448057	7,599605	2020-10-29T19:41:51:272
4,850252	-3,747160	7,523034	2020-10-29T19:41:51:294
4,850252	-3,457629	7,630712	2020-10-29T19:41:51:312
4,957928	-3,292524	7,795816	2020-10-29T19:41:51:334
5,089533	-3,412165	7,810174	2020-10-29T19:41:51:351
5,020142	-3,352344	7,762317	2020-10-29T19:41:51:373
5,106283	-3,431308	7,759924	2020-10-29T19:41:51:392
5,096712	-3,275774	7,908278	2020-10-29T19:41:51:414
5,201996	-3,187240	7,867601	2020-10-29T19:41:51:431
5,240282	-3,273381	7,843673	2020-10-29T19:41:51:454
5,084748	-3,292524	7,805387	2020-10-29T19:41:51:472
5,166104	-3,299703	7,936993	2020-10-29T19:41:51:494
5,197211	-3,110669	7,893922	2020-10-29T19:41:51:512
5,180461	-3,187240	7,788638	2020-10-29T19:41:51:534
5,225924	-3,251846	7,585248	2020-10-29T19:41:51:552
5,230711	-3,273381	7,561320	2020-10-29T19:41:51:574
5,249853	-3,488736	7,695317	2020-10-29T19:41:51:591
5,185246	-3,364309	7,697710	2020-10-29T19:41:51:614
5,166104	-3,337988	7,652246	2020-10-29T19:41:51:632
5,228317	-3,613162	7,757531	2020-10-29T19:41:51:656
5,237889	-3,510271	7,759924	2020-10-29T19:41:51:672
5,240282	-3,524628	7,759924	2020-10-29T19:41:51:694
5,163712	-3,605984	7,707282	2020-10-29T19:41:51:712
5,139783	-3,500700	7,712067	2020-10-29T19:41:51:734
5,125426	-3,603590	7,623533	2020-10-29T19:41:51:752
4,955536	-3,471986	7,575676	2020-10-29T19:41:51:774
4,943572	-3,347559	7,594819	2020-10-29T19:41:51:792
4,898108	-3,416951	7,645068	2020-10-29T19:41:51:815
4,847858	-3,347559	7,523034	2020-10-29T19:41:51:833
4,744967	-3,328416	7,410572	2020-10-29T19:41:51:854
4,838287	-3,220739	7,489535	2020-10-29T19:41:51:873
4,807181	-3,177669	7,563712	2020-10-29T19:41:51:895
4,790431	-3,110669	7,503892	2020-10-29T19:41:51:913
4,809574	-3,187240	7,585248	2020-10-29T19:41:51:935
4,821537	-3,208775	7,668997	2020-10-29T19:41:51:952
4,924429	-3,235096	7,771888	2020-10-29T19:41:51:974
4,936393	-3,165704	7,805387	2020-10-29T19:41:51:993
5,022535	-3,335595	8,015956	2020-10-29T19:41:52:016
4,931608	-3,249453	8,025528	2020-10-29T19:41:52:032
4,945964	-3,184847	7,807780	2020-10-29T19:41:52:055
4,900501	-3,180061	7,853244	2020-10-29T19:41:52:073
4,957928	-3,407379	7,858029	2020-10-29T19:41:52:095
4,926822	-3,345166	7,901100	2020-10-29T19:41:52:114
4,876573	-3,431308	7,884350	2020-10-29T19:41:52:135
4,804788	-3,397808	7,743174	2020-10-29T19:41:52:153
4,883751	-3,488736	7,865208	2020-10-29T19:41:52:175
4,876573	-3,366701	7,908278	2020-10-29T19:41:52:192
4,886144	-3,515057	7,860423	2020-10-29T19:41:52:215
4,907679	-3,505485	7,858029	2020-10-29T19:41:52:233
4,883751	-3,491128	7,829315	2020-10-29T19:41:52:255
4,876573	-3,512664	7,800602	2020-10-29T19:41:52:273
4,900501	-3,512664	7,692925	2020-10-29T19:41:52:295
4,833502	-3,531806	7,719246	2020-10-29T19:41:52:313
4,840680	-3,483950	7,745567	2020-10-29T19:41:52:335
4,816752	-3,634698	7,630712	2020-10-29T19:41:52:354
4,912465	-3,617948	7,716853	2020-10-29T19:41:52:374
4,919643	-3,550949	7,791030	2020-10-29T19:41:52:392
4,993821	-3,649055	7,759924	2020-10-29T19:41:52:415
5,091926	-3,601198	7,745567	2020-10-29T19:41:52:433
5,211568	-3,565305	7,716853	2020-10-29T19:41:52:454
5,254639	-3,601198	7,752745	2020-10-29T19:41:52:473
5,283352	-3,584448	7,769495	2020-10-29T19:41:52:495
5,357530	-3,493521	7,798209	2020-10-29T19:41:52:513
5,414958	-3,574877	7,812566	2020-10-29T19:41:52:535
5,369494	-3,505485	7,692925	2020-10-29T19:41:52:553
5,307281	-3,424129	7,685746	2020-10-29T19:41:52:575
5,288138	-3,402594	7,680960	2020-10-29T19:41:52:593
5,276174	-3,263810	7,601997	2020-10-29T19:41:52:615
5,247460	-3,170490	7,554141	2020-10-29T19:41:52:633
5,166104	-3,218346	7,532606	2020-10-29T19:41:52:655
5,237889	-3,158526	7,479963	2020-10-29T19:41:52:674
5,151747	-3,158526	7,460821	2020-10-29T19:41:52:695
5,261817	-3,316452	7,429714	2020-10-29T19:41:52:713
5,247460	-3,242275	7,441679	2020-10-29T19:41:52:735
5,264209	-3,438486	7,566105	2020-10-29T19:41:52:753
5,302495	-3,304488	7,601997	2020-10-29T19:41:52:776
5,324030	-3,400201	7,582855	2020-10-29T19:41:52:793
5,324030	-3,512664	7,566105	2020-10-29T19:41:52:816
5,367101	-3,570091	7,587641	2020-10-29T19:41:52:836
5,319244	-3,469593	7,568498	2020-10-29T19:41:52:855
5,292924	-3,460021	7,587641	2020-10-29T19:41:52:873
5,388636	-3,577270	7,546963	2020-10-29T19:41:52:896
5,400600	-3,529413	7,601997	2020-10-29T19:41:52:914
5,278566	-3,601198	7,563712	2020-10-29T19:41:52:935
5,271388	-3,567699	7,558927	2020-10-29T19:41:52:953
5,288138	-3,653840	7,575676	2020-10-29T19:41:52:977
5,242674	-3,519842	7,534998	2020-10-29T19:41:52:993
5,324030	-3,565305	7,546963	2020-10-29T19:41:53:016
5,273781	-3,610770	7,506285	2020-10-29T19:41:53:034
5,268995	-3,529413	7,472785	2020-10-29T19:41:53:055
5,273781	-3,515057	7,518249	2020-10-29T19:41:53:075
5,283352	-3,491128	7,573284	2020-10-29T19:41:53:095
5,292924	-3,524628	7,523034	2020-10-29T19:41:53:114
5,211568	-3,486342	7,613962	2020-10-29T19:41:53:136
5,249853	-3,541377	7,570890	2020-10-29T19:41:53:154
5,240282	-3,519842	7,573284	2020-10-29T19:41:53:176
5,288138	-3,553342	7,647461	2020-10-29T19:41:53:194
5,245068	-3,479164	7,444071	2020-10-29T19:41:53:216
5,345565	-3,558127	7,587641	2020-10-29T19:41:53:233
5,247460	-3,584448	7,456036	2020-10-29T19:41:53:256
5,178068	-3,460021	7,453642	2020-10-29T19:41:53:274
5,209175	-3,615555	7,530212	2020-10-29T19:41:53:295
5,223531	-3,481557	7,511070	2020-10-29T19:41:53:315
5,233103	-3,531806	7,544570	2020-10-29T19:41:53:336
5,146961	-3,529413	7,494320	2020-10-29T19:41:53:354
5,216353	-3,529413	7,558927	2020-10-29T19:41:53:376
5,213961	-3,505485	7,489535	2020-10-29T19:41:53:394
5,206782	-3,538985	7,601997	2020-10-29T19:41:53:417
5,194818	-3,558127	7,573284	2020-10-29T19:41:53:434
5,292924	-3,553342	7,609176	2020-10-29T19:41:53:456
5,166104	-3,577270	7,556533	2020-10-29T19:41:53:474
5,190032	-3,567699	7,616355	2020-10-29T19:41:53:497
5,178068	-3,567699	7,563712	2020-10-29T19:41:53:514
5,168497	-3,515057	7,683353	2020-10-29T19:41:53:536
5,144568	-3,603590	7,618747	2020-10-29T19:41:53:555
5,175675	-3,572484	7,601997	2020-10-29T19:41:53:577
5,190032	-3,591627	7,625926	2020-10-29T19:41:53:594
5,247460	-3,639483	7,661818	2020-10-29T19:41:53:617
5,190032	-3,572484	7,606783	2020-10-29T19:41:53:634
5,175675	-3,706482	7,676175	2020-10-29T19:41:53:657
5,187639	-3,706482	7,668997	2020-10-29T19:41:53:675
5,161318	-3,675375	7,566105	2020-10-29T19:41:53:696
5,161318	-3,661019	7,549356	2020-10-29T19:41:53:714
5,235496	-3,462414	7,594819	2020-10-29T19:41:53:737
5,192425	-3,586841	7,592427	2020-10-29T19:41:53:754
5,209175	-3,558127	7,530212	2020-10-29T19:41:53:776
5,199604	-3,524628	7,499106	2020-10-29T19:41:53:797
5,103891	-3,579663	7,532606	2020-10-29T19:41:53:817
5,132604	-3,419343	7,561320	2020-10-29T19:41:53:834
5,137390	-3,541377	7,508677	2020-10-29T19:41:53:856
5,166104	-3,570091	7,637890	2020-10-29T19:41:53:874
5,199604	-3,512664	7,506285	2020-10-29T19:41:53:897
5,113462	-3,677768	7,580462	2020-10-29T19:41:53:914
5,233103	-3,639483	7,628319	2020-10-29T19:41:53:936
5,223531	-3,594020	7,601997	2020-10-29T19:41:53:954
5,201996	-3,656233	7,542177	2020-10-29T19:41:53:978
5,175675	-3,541377	7,537392	2020-10-29T19:41:53:996
5,225924	-3,558127	7,566105	2020-10-29T19:41:54:021
5,314459	-3,541377	7,515855	2020-10-29T19:41:54:037
5,335995	-3,620341	7,503892	2020-10-29T19:41:54:058
5,369494	-3,605984	7,470392	2020-10-29T19:41:54:074
5,324030	-3,704089	7,396214	2020-10-29T19:41:54:096
5,429315	-3,594020	7,453642	2020-10-29T19:41:54:115
5,465207	-3,730411	7,386643	2020-10-29T19:41:54:137
5,448457	-3,562913	7,463214	2020-10-29T19:41:54:154
5,577669	-3,522235	7,420143	2020-10-29T19:41:54:177
5,644669	-3,598805	7,518249	2020-10-29T19:41:54:194
5,560920	-3,522235	7,432107	2020-10-29T19:41:54:218
5,678168	-3,594020	7,336394	2020-10-29T19:41:54:234
5,783452	-3,835695	7,286145	2020-10-29T19:41:54:257
5,812167	-3,505485	7,357929	2020-10-29T19:41:54:278
5,726025	-3,747160	7,164111	2020-10-29T19:41:54:297
5,781059	-3,921836	7,235896	2020-10-29T19:41:54:314
5,718846	-3,857230	7,293324	2020-10-29T19:41:54:337
5,764310	-3,952943	7,192825	2020-10-29T19:41:54:354
5,694918	-4,127619	7,056434	2020-10-29T19:41:54:377
5,611169	-4,134798	7,116255	2020-10-29T19:41:54:395
5,601598	-4,223332	7,133004	2020-10-29T19:41:54:417
5,477170	-4,158726	7,099504	2020-10-29T19:41:54:435
5,484349	-4,146761	7,123433	2020-10-29T19:41:54:458
5,376673	-4,182654	7,025328	2020-10-29T19:41:54:475
5,333601	-4,103691	6,900900	2020-10-29T19:41:54:497
5,371887	-4,206582	6,879365	2020-10-29T19:41:54:516
5,376673	-4,101298	6,891330	2020-10-29T19:41:54:538
5,766702	-4,500899	6,987042	2020-10-29T19:41:54:561
5,919843	-4,381258	6,915257	2020-10-29T19:41:54:577
6,259624	-4,340580	6,608976	2020-10-29T19:41:54:595
6,448657	-4,706682	6,262017	2020-10-29T19:41:54:618
6,510870	-4,517649	5,364708	2020-10-29T19:41:54:635
6,642475	-4,766503	5,276174	2020-10-29T19:41:54:657
6,443871	-4,319045	5,422136	2020-10-29T19:41:54:675
6,431907	-4,481757	5,536992	2020-10-29T19:41:54:698
6,209375	-4,268795	5,331209	2020-10-29T19:41:54:715
5,871986	-3,840480	5,493921	2020-10-29T19:41:54:737
6,032306	-3,376273	5,790630	2020-10-29T19:41:54:757
5,883951	-3,175276	5,960521	2020-10-29T19:41:54:779
5,953342	-3,622734	5,986843	2020-10-29T19:41:54:795
6,101698	-4,086941	5,869594	2020-10-29T19:41:54:818
6,116055	-4,441079	5,541777	2020-10-29T19:41:54:836
6,010770	-4,393222	5,067998	2020-10-29T19:41:54:858
5,819345	-4,094120	4,232903	2020-10-29T19:41:54:875
6,080163	-3,955336	3,290131	2020-10-29T19:41:54:897
6,482157	-4,070191	2,787638	2020-10-29T19:41:54:915
7,056434	-3,871587	2,335395	2020-10-29T19:41:54:938
7,728817	-3,775874	1,942972	2020-10-29T19:41:54:955
8,671589	-3,802195	1,493121	2020-10-29T19:41:54:977
9,442079	-3,476771	1,012164	2020-10-29T19:41:54:996
10,047462	-3,199204	0,545564	2020-10-29T19:41:55:028
10,372886	-2,883351	0,267996	2020-10-29T19:41:55:037
10,636096	-2,411965	0,155533	2020-10-29T19:41:55:253
10,609775	-2,084148	0,172283	2020-10-29T19:41:55:257
10,774881	-2,251646	0,351745	2020-10-29T19:41:55:258
10,995021	-2,560320	0,488136	2020-10-29T19:41:55:259
11,100305	-2,828316	0,430708	2020-10-29T19:41:55:259
11,129018	-3,239882	0,320638	2020-10-29T19:41:55:260
11,207980	-3,541377	0,169890	2020-10-29T19:41:55:261
11,196017	-3,670590	-0,009571	2020-10-29T19:41:55:261
10,925629	-3,536592	-0,571885	2020-10-29T19:41:55:262
10,724631	-3,433701	-0,993021	2020-10-29T19:41:55:262
10,504492	-3,139383	-1,354338	2020-10-29T19:41:55:263
10,389636	-3,069991	-1,847259	2020-10-29T19:41:55:274
10,341780	-2,907279	-2,172683	2020-10-29T19:41:55:297
10,590633	-3,096312	-2,416751	2020-10-29T19:41:55:319
10,607382	-3,275774	-2,155933	2020-10-29T19:41:55:339
10,157533	-2,644069	-2,577070	2020-10-29T19:41:55:355
9,990034	-2,270789	-2,730211	2020-10-29T19:41:55:377
10,085747	-2,268396	-3,354738	2020-10-29T19:41:55:395
8,879765	-1,009771	-4,474578	2020-10-29T19:41:55:419
8,133204	-1,127020	-5,005785	2020-10-29T19:41:55:435
8,913264	-4,589434	-3,637090	2020-10-29T19:41:55:458
9,133404	-6,032306	-3,000600	2020-10-29T19:41:55:476
8,085347	-1,794617	-3,809374	2020-10-29T19:41:55:499
8,374879	-1,277767	-4,118048	2020-10-29T19:41:55:516
8,319844	-0,842274	-4,278367	2020-10-29T19:41:55:538
8,551948	-0,272782	-3,754339	2020-10-29T19:41:55:556
9,322437	0,224925	-2,876173	2020-10-29T19:41:55:579
9,585647	-0,624527	-1,600798	2020-10-29T19:41:55:604
9,564112	-1,392623	-1,840081	2020-10-29T19:41:55:619
9,571291	-1,552942	-2,311467	2020-10-29T19:41:55:637
9,501899	-1,995614	-2,651247	2020-10-29T19:41:55:672
9,401401	-2,072184	-2,861816	2020-10-29T19:41:55:701
9,473185	-1,837688	-3,239882	2020-10-29T19:41:55:702
9,736395	-1,366302	-3,517449	2020-10-29T19:41:55:732
9,604790	-1,332802	-3,615555	2020-10-29T19:41:55:742
9,425328	-1,646262	-3,534199	2020-10-29T19:41:55:755
9,044869	-2,053042	-3,608376	2020-10-29T19:41:55:778
8,922836	-2,366502	-3,869194	2020-10-29T19:41:55:795
8,903693	-2,409572	-4,187439	2020-10-29T19:41:55:818
8,968300	-2,615355	-4,206582	2020-10-29T19:41:55:837
8,953942	-2,627320	-4,125226	2020-10-29T19:41:55:858
8,997013	-2,569891	-4,007978	2020-10-29T19:41:55:876
9,090333	-2,531606	-3,866802	2020-10-29T19:41:55:899
9,126225	-2,565106	-3,797409	2020-10-29T19:41:55:916
9,248260	-2,488536	-3,713661	2020-10-29T19:41:55:938
9,250652	-2,376073	-3,723232	2020-10-29T19:41:55:958
9,166903	-2,333002	-3,668197	2020-10-29T19:41:55:979
9,181261	-2,146362	-3,680161	2020-10-29T19:41:55:997
9,288938	-1,935793	-3,680161	2020-10-29T19:41:56:022
10,810772	-2,555535	1,112662	2020-10-29T19:42:16:238
10,973484	-2,624927	1,014557	2020-10-29T19:42:16:239
11,040483	-2,617748	1,004985	2020-10-29T19:42:16:240
10,987842	-2,620141	0,983450	2020-10-29T19:42:16:241
10,432706	-2,366502	0,995414	2020-10-29T19:42:16:242
9,611969	-2,053042	0,856631	2020-10-29T19:42:16:242
8,930015	-1,727618	0,849452	2020-10-29T19:42:16:243
8,683553	-1,579263	0,772882	2020-10-29T19:42:16:243
9,286544	-1,651048	0,555135	2020-10-29T19:42:16:249
9,896714	-1,840081	0,483350	2020-10-29T19:42:16:257
10,459028	-2,100898	0,404387	2020-10-29T19:42:16:259
10,908878	-2,294717	0,308674	2020-10-29T19:42:16:316
11,164910	-2,337788	0,019143	2020-10-29T19:42:16:384
10,681561	-1,931008	0,002393	2020-10-29T19:42:16:384
10,095319	-1,655833	-0,057428	2020-10-29T19:42:16:385
9,597611	-1,450050	-0,019143	2020-10-29T19:42:16:388
9,114261	-1,426122	0,153141	2020-10-29T19:42:16:388
8,685946	-1,545763	0,167498	2020-10-29T19:42:16:413
8,422735	-1,562513	0,153141	2020-10-29T19:42:16:430
8,346166	-1,574477	0,287139	2020-10-29T19:42:16:434
8,386844	-1,643869	0,409173	2020-10-29T19:42:16:456
8,449057	-1,780260	0,466600	2020-10-29T19:42:16:474
8,487342	-1,792224	0,497707	2020-10-29T19:42:16:496
8,630912	-1,837688	0,591027	2020-10-29T19:42:16:515
8,834301	-2,007578	0,686740	2020-10-29T19:42:16:538
9,178867	-1,964507	0,662812	2020-10-29T19:42:16:556
9,566505	-1,952543	0,789631	2020-10-29T19:42:16:577
10,037891	-2,086541	0,859023	2020-10-29T19:42:16:596
10,724631	-2,196611	0,784846	2020-10-29T19:42:16:617
11,830115	-2,388037	0,540778	2020-10-29T19:42:16:636
13,292130	-2,455036	0,366102	2020-10-29T19:42:16:657
12,729815	-2,553142	0,811167	2020-10-29T19:42:16:676
10,985448	-2,313859	1,328017	2020-10-29T19:42:16:699
10,303494	-2,117648	1,536192	2020-10-29T19:42:16:723
10,415956	-2,146362	1,715654	2020-10-29T19:42:16:737
10,317852	-2,244468	1,957329	2020-10-29T19:42:16:756
9,985250	-2,498107	1,983650	2020-10-29T19:42:16:778
9,827322	-2,835495	1,799403	2020-10-29T19:42:16:796
9,631111	-2,919244	1,483550	2020-10-29T19:42:16:818
9,410972	-2,938386	1,282553	2020-10-29T19:42:16:836
9,387043	-2,821138	1,162912	2020-10-29T19:42:16:857
9,059227	-2,945565	1,184447	2020-10-29T19:42:16:879
8,772088	-3,000600	1,217947	2020-10-29T19:42:16:898
8,664411	-2,916851	1,208375	2020-10-29T19:42:16:916
8,719445	-2,907279	1,318445	2020-10-29T19:42:16:937
8,855836	-2,847459	1,186840	2020-10-29T19:42:16:956
9,123833	-2,861816	1,012164	2020-10-29T19:42:16:978
9,391829	-2,775674	0,758525	2020-10-29T19:42:17:000
9,604790	-2,806781	0,595813	2020-10-29T19:42:17:020
9,920642	-2,787638	0,433101	2020-10-29T19:42:17:038
12,452249	-1,732404	0,653241	2020-10-29T19:42:41:116
11,411370	-2,038685	1,086342	2020-10-29T19:42:41:117
10,901700	-2,622534	0,983450	2020-10-29T19:42:41:119
10,490135	-3,402594	0,935594	2020-10-29T19:42:41:162
9,870394	-4,077370	1,081556	2020-10-29T19:42:41:164
8,965906	-4,522435	1,129412	2020-10-29T19:42:41:169
7,881958	-4,828716	0,971486	2020-10-29T19:42:41:193
7,159326	-4,618148	0,705883	2020-10-29T19:42:41:201
6,872187	-4,529613	0,612563	2020-10-29T19:42:41:236
7,367501	-4,189832	0,217747	2020-10-29T19:42:41:243
8,379664	-4,122833	0,019143	2020-10-29T19:42:41:262
9,556933	-4,153940	-0,066999	2020-10-29T19:42:41:281
10,377672	-3,826123	-0,246461	2020-10-29T19:42:41:301
10,413565	-3,230310	-0,366102	2020-10-29T19:42:41:319
10,241282	-2,589034	-0,318245	2020-10-29T19:42:41:343
10,387242	-2,053042	-0,167498	2020-10-29T19:42:41:360
10,164711	-1,713261	-0,133998	2020-10-29T19:42:41:381
9,578469	-1,789831	-0,136391	2020-10-29T19:42:41:400
9,262616	-1,923829	-0,155533	2020-10-29T19:42:41:424
9,169296	-2,179861	-0,167498	2020-10-29T19:42:41:440
9,054441	-2,577070	-0,105284	2020-10-29T19:42:41:462
9,035298	-2,744568	-0,141177	2020-10-29T19:42:41:480
9,011370	-3,012564	-0,212961	2020-10-29T19:42:41:504
8,956335	-3,304488	-0,126820	2020-10-29T19:42:41:521
9,008978	-3,452843	-0,014357	2020-10-29T19:42:41:543
8,843873	-3,397808	0,119641	2020-10-29T19:42:41:560
8,678767	-3,141776	0,277567	2020-10-29T19:42:41:583
8,769694	-2,885744	0,256032	2020-10-29T19:42:41:600
8,705089	-2,816352	0,308674	2020-10-29T19:42:41:622
8,884550	-3,036492	0,392423	2020-10-29T19:42:41:640
9,286544	-3,316452	0,468993	2020-10-29T19:42:41:663
9,853643	-3,577270	0,404387	2020-10-29T19:42:41:680
10,277173	-3,684947	0,203390	2020-10-29T19:42:41:702
10,217353	-3,493521	-0,081356	2020-10-29T19:42:41:720
9,537791	-3,670590	-0,112463	2020-10-29T19:42:41:743
10,018748	-4,357330	0,059821	2020-10-29T19:42:41:762
11,413764	-4,132405	0,043071	2020-10-29T19:42:41:782
11,385050	-3,945765	0,198604	2020-10-29T19:42:41:801
10,526026	-4,225725	0,117248	2020-10-29T19:42:41:824
10,918450	-4,185047	-0,141177	2020-10-29T19:42:41:840
10,944772	-3,847659	-0,323031	2020-10-29T19:42:41:862
10,487741	-3,424129	-0,251246	2020-10-29T19:42:41:881
9,702895	-3,314059	-0,272782	2020-10-29T19:42:41:904
8,733803	-3,357130	-0,413958	2020-10-29T19:42:41:921
7,654640	-3,132205	-0,433101	2020-10-29T19:42:41:942
6,798009	-3,012564	-0,361316	2020-10-29T19:42:41:960
6,809973	-3,060420	-0,641276	2020-10-29T19:42:41:983
7,826923	-3,282953	-1,091127	2020-10-29T19:42:42:001
9,377472	-4,144369	-1,328017	2020-10-29T19:42:42:022
10,614561	-4,608576	-1,818545	2020-10-29T19:42:42:040
11,023734	-5,039285	-2,402394	2020-10-29T19:42:42:063
10,808380	-5,374279	-2,962314	2020-10-29T19:42:42:080
10,492528	-5,400600	-3,266203	2020-10-29T19:42:42:103
10,313066	-5,426922	-3,117848	2020-10-29T19:42:42:121
9,961320	-4,551149	-2,608176	2020-10-29T19:42:42:144
9,494720	-3,732803	-2,321038	2020-10-29T19:42:42:161
9,035298	-3,431308	-2,194218	2020-10-29T19:42:42:183
8,752945	-3,598805	-2,239682	2020-10-29T19:42:42:201
8,729016	-4,067799	-2,017149	2020-10-29T19:42:42:224
8,688338	-5,149354	-1,775474	2020-10-29T19:42:42:241
8,458629	-5,836094	-1,337588	2020-10-29T19:42:42:262
8,511270	-6,135197	-0,830309	2020-10-29T19:42:42:281
8,963513	-6,295516	-0,686740	2020-10-29T19:42:42:304
9,422935	-6,269196	-0,524028	2020-10-29T19:42:42:321
9,332008	-6,211767	-0,236889	2020-10-29T19:42:42:342
9,413363	-5,544170	-0,090927	2020-10-29T19:42:42:361
9,913465	-4,680361	0,131605	2020-10-29T19:42:42:383
10,698310	-3,696911	0,473779	2020-10-29T19:42:42:401
10,858629	-2,766103	0,411566	2020-10-29T19:42:42:423
10,392029	-2,134398	0,598206	2020-10-29T19:42:42:441
9,549755	-2,033899	1,416551	2020-10-29T19:42:42:463
9,152546	-1,954936	1,787439	2020-10-29T19:42:42:482
9,279366	-1,873580	0,792024	2020-10-29T19:42:42:503
10,298709	-2,026721	0,358923	2020-10-29T19:42:42:521
10,006784	-2,431108	0,775275	2020-10-29T19:42:42:544
8,934800	-2,739782	1,493121	2020-10-29T19:42:42:562
8,626125	-2,878566	1,244268	2020-10-29T19:42:42:583
8,516055	-2,842674	0,337388	2020-10-29T19:42:42:601
8,446664	-3,132205	-0,133998	2020-10-29T19:42:42:624
8,465806	-3,613162	-0,382852	2020-10-29T19:42:42:641
8,709875	-4,733003	-0,354138	2020-10-29T19:42:42:663
8,750552	-6,348158	-0,442672	2020-10-29T19:42:42:681
8,303094	-7,580462	-0,495314	2020-10-29T19:42:42:704
8,214561	-8,001599	-0,768096	2020-10-29T19:42:42:724
8,755339	-7,214360	-1,325624	2020-10-29T19:42:42:743
9,042477	-5,592027	-1,631905	2020-10-29T19:42:42:761
9,030513	-3,617948	-1,342373	2020-10-29T19:42:42:785
9,281759	-2,352145	-0,567099	2020-10-29T19:42:42:802
9,820145	-1,423729	0,265603	2020-10-29T19:42:42:824
10,164711	-0,567099	0,765703	2020-10-29T19:42:42:842
9,542577	-0,105284	1,710868	2020-10-29T19:42:42:864
8,793623	-0,045464	2,117648	2020-10-29T19:42:42:881
8,231310	-0,555135	2,337788	2020-10-29T19:42:42:904
8,429914	-1,435694	2,242075	2020-10-29T19:42:42:921
8,520842	-1,969293	2,242075	2020-10-29T19:42:42:944
8,384450	-2,835495	2,132005	2020-10-29T19:42:42:963
8,353344	-3,720839	2,132005	2020-10-29T19:42:42:983
8,724231	-4,019942	2,026721	2020-10-29T19:42:43:001
8,863015	-3,749553	2,045863	2020-10-29T19:42:43:024
8,702696	-3,354738	2,282753	2020-10-29T19:42:43:041
8,714661	-2,821138	1,974079	2020-10-29T19:42:43:063
8,769694	-2,194218	1,751546	2020-10-29T19:42:43:081
8,774480	-1,737189	1,574477	2020-10-29T19:42:43:105
8,616554	-1,567299	1,459622	2020-10-29T19:42:43:122
8,690732	-1,586441	1,450050	2020-10-29T19:42:43:144
9,245867	-2,007578	1,452443	2020-10-29T19:42:43:162
10,121639	-2,512464	1,368695	2020-10-29T19:42:43:184
10,336994	-2,663212	1,356731	2020-10-29T19:42:43:203
10,310673	-2,933600	0,768096	2020-10-29T19:42:43:224
12,279965	-3,381058	0,459422	2020-10-29T19:42:43:242
14,555541	-3,531806	0,272782	2020-10-29T19:42:43:264
12,327823	-3,747160	0,993021	2020-10-29T19:42:43:281
10,061819	-3,692125	1,263410	2020-10-29T19:42:43:304
10,456635	-3,330809	1,088734	2020-10-29T19:42:43:322
11,167303	-2,885744	0,847059	2020-10-29T19:42:43:344
10,614561	-2,632105	1,091127	2020-10-29T19:42:43:361
9,865608	-2,641676	1,359123	2020-10-29T19:42:43:384
8,796017	-2,696711	1,593620	2020-10-29T19:42:43:402
7,472785	-2,548356	1,284946	2020-10-29T19:42:43:425
7,250252	-2,490928	0,825524	2020-10-29T19:42:43:443
8,949157	-2,684747	0,179462	2020-10-29T19:42:43:464
10,930414	-3,144169	-0,028714	2020-10-29T19:42:43:482
11,765509	-3,555735	0,081356	2020-10-29T19:42:43:505
11,200804	-3,562913	0,107677	2020-10-29T19:42:43:522
10,796415	-3,493521	-0,301496	2020-10-29T19:42:43:544
10,628918	-2,943172	-0,512064	2020-10-29T19:42:43:562
10,078569	-2,170290	-0,342174	2020-10-29T19:42:43:585
9,571291	-1,887937	-0,069392	2020-10-29T19:42:43:602
9,358330	-1,878366	0,052642	2020-10-29T19:42:43:625
9,212367	-2,009971	-0,076570	2020-10-29T19:42:43:642
9,217153	-2,361716	-0,131605	2020-10-29T19:42:43:665
9,348758	-2,627320	-0,143569	2020-10-29T19:42:43:683
9,370294	-2,871387	-0,287139	2020-10-29T19:42:43:704
9,202796	-2,986243	-0,153141	2020-10-29T19:42:43:722
9,162118	-3,046063	-0,038285	2020-10-29T19:42:43:745
9,370294	-3,053242	0,093320	2020-10-29T19:42:43:763
9,705289	-2,723032	0,217747	2020-10-29T19:42:43:784
9,954143	-2,670390	0,478565	2020-10-29T19:42:43:802
10,028319	-2,486143	0,729811	2020-10-29T19:42:43:825
9,655040	-2,065006	1,110270	2020-10-29T19:42:43:842
9,705289	-1,765903	1,016950	2020-10-29T19:42:43:865
10,033106	-1,409373	0,971486	2020-10-29T19:42:43:883
10,028319	-1,055235	0,945165	2020-10-29T19:42:43:906
9,762716	-0,806381	1,143769	2020-10-29T19:42:43:925
9,607183	-0,763310	1,421337	2020-10-29T19:42:43:944
9,659825	-0,904487	1,234696	2020-10-29T19:42:43:962
11,129018	-1,170090	0,691526	2020-10-29T19:42:43:986
11,976077	-1,313660	0,538385	2020-10-29T19:42:44:003
10,715059	-1,703690	1,028914	2020-10-29T19:42:44:025
10,360922	-1,911865	1,095913	2020-10-29T19:42:44:042
10,851451	-2,060220	0,658026	2020-10-29T19:42:44:065
10,415956	-2,232504	0,514457	2020-10-29T19:42:44:082
9,638289	-2,421536	0,803988	2020-10-29T19:42:44:105
9,047262	-2,892922	1,146162	2020-10-29T19:42:44:123
8,403593	-3,464807	1,450050	2020-10-29T19:42:44:145
7,747960	-3,909872	1,584049	2020-10-29T19:42:44:164
7,513463	-4,043870	1,462015	2020-10-29T19:42:44:184
8,145168	-3,436093	1,076770	2020-10-29T19:42:44:202
9,071191	-2,560320	0,509671	2020-10-29T19:42:44:225
9,580862	-1,971686	0,236889	2020-10-29T19:42:44:242
9,753145	-1,820938	0,385244	2020-10-29T19:42:44:264
10,049855	-1,931008	0,763310	2020-10-29T19:42:44:282
9,956534	-2,368894	1,208375	2020-10-29T19:42:44:305
9,743573	-2,533999	1,502693	2020-10-29T19:42:44:324
9,384650	-2,670390	1,686940	2020-10-29T19:42:44:345
9,085547	-2,852244	1,816152	2020-10-29T19:42:44:362
8,760124	-2,957529	1,773082	2020-10-29T19:42:44:386
8,819944	-3,036492	1,526621	2020-10-29T19:42:44:405
9,178867	-3,263810	1,462015	2020-10-29T19:42:44:425
9,348758	-3,294917	1,296910	2020-10-29T19:42:44:443
9,322437	-3,168097	1,244268	2020-10-29T19:42:44:465
9,410972	-3,199204	1,261017	2020-10-29T19:42:44:483
9,530612	-3,108276	1,208375	2020-10-29T19:42:44:505
9,482756	-2,787638	1,146162	2020-10-29T19:42:44:523
9,317651	-2,641676	1,088734	2020-10-29T19:42:44:546
9,341579	-2,557927	1,191626	2020-10-29T19:42:44:562
9,444471	-2,825923	1,086342	2020-10-29T19:42:44:585
9,829715	-3,081956	0,811167	2020-10-29T19:42:44:603
10,088140	-3,237489	0,648455	2020-10-29T19:42:44:625
10,468598	-3,440879	0,646062	2020-10-29T19:42:44:645
10,296316	-3,275774	0,406780	2020-10-29T19:42:44:665
9,990034	-3,225525	0,476172	2020-10-29T19:42:44:683
9,856036	-3,175276	0,373280	2020-10-29T19:42:44:706
9,549755	-3,019742	0,299103	2020-10-29T19:42:44:723
10,626525	-2,967100	-0,294317	2020-10-29T19:42:44:746
13,194024	-3,213561	-0,409173	2020-10-29T19:42:44:763
13,406984	-3,833302	0,232104	2020-10-29T19:42:44:786
11,626726	-3,763910	0,684347	2020-10-29T19:42:44:807
10,901700	-3,572484	0,512064	2020-10-29T19:42:44:826
10,777272	-3,177669	0,473779	2020-10-29T19:42:44:843
10,214959	-2,531606	0,732204	2020-10-29T19:42:44:866
9,032906	-2,021935	0,928415	2020-10-29T19:42:44:885
7,977671	-1,868794	1,024128	2020-10-29T19:42:44:905
7,599605	-1,777867	0,691526	2020-10-29T19:42:44:924
8,721838	-1,557728	0,248854	2020-10-29T19:42:44:946
10,305886	-1,292124	-0,114855	2020-10-29T19:42:44:963
11,052447	-1,265803	-0,468993	2020-10-29T19:42:44:985
10,961520	-1,263410	-0,629312	2020-10-29T19:42:45:004
10,853845	-1,351945	-0,593420	2020-10-29T19:42:45:027
10,794022	-1,349552	-0,660419	2020-10-29T19:42:45:043
10,827522	-1,392623	-0,387637	2020-10-29T19:42:45:065
10,786844	-1,548156	-0,095713	2020-10-29T19:42:45:083
10,624132	-1,792224	0,143569	2020-10-29T19:42:45:106
9,942179	-2,021935	0,363709	2020-10-29T19:42:45:125
9,250652	-2,220540	0,320638	2020-10-29T19:42:45:146
8,824730	-2,292324	0,404387	2020-10-29T19:42:45:164
8,602197	-2,189433	0,547956	2020-10-29T19:42:45:186
8,650054	-1,940579	0,610170	2020-10-29T19:42:45:204
8,731410	-1,770689	0,772882	2020-10-29T19:42:45:226
8,932407	-1,749153	0,902094	2020-10-29T19:42:45:244
9,032906	-1,730011	1,110270	2020-10-29T19:42:45:266
9,164511	-1,529014	1,050449	2020-10-29T19:42:45:283
9,207582	-1,387837	0,782453	2020-10-29T19:42:45:306
9,516255	-1,526621	0,646062	2020-10-29T19:42:45:324
10,310673	-1,572084	0,442672	2020-10-29T19:42:45:346
10,980663	-1,330409	0,227318	2020-10-29T19:42:45:365
11,545370	-1,268196	-0,038285	2020-10-29T19:42:45:385
13,040883	-1,507478	-0,954736	2020-10-29T19:42:45:404
15,658630	-1,241875	-2,084148	2020-10-29T19:42:45:428
16,036697	-1,703690	-2,158326	2020-10-29T19:42:45:444
13,871193	-2,335395	-1,483550	2020-10-29T19:42:45:465
12,835101	-2,778067	-0,866202	2020-10-29T19:42:45:484
11,925828	-3,163311	-0,461815	2020-10-29T19:42:45:507
10,305886	-3,503092	-0,031107	2020-10-29T19:42:45:524
8,918050	-3,493521	-0,002393	2020-10-29T19:42:45:546
8,116454	-3,108276	-0,344566	2020-10-29T19:42:45:564
8,032705	-2,199004	-0,947558	2020-10-29T19:42:45:586
8,992228	-1,150948	-1,849652	2020-10-29T19:42:45:605
9,889536	-0,693919	-2,524428	2020-10-29T19:42:45:626
9,951750	-0,894916	-2,742175	2020-10-29T19:42:45:645
9,631111	-1,287339	-2,864209	2020-10-29T19:42:45:667
9,611969	-1,572084	-2,744568	2020-10-29T19:42:45:684
9,166903	-2,653640	-2,112862	2020-10-29T19:42:45:706
8,530413	-3,108276	-1,725225	2020-10-29T19:42:45:724
8,011170	-3,201597	-1,409373	2020-10-29T19:42:45:747
7,779066	-3,048456	-1,107877	2020-10-29T19:42:45:764
7,625926	-2,926422	-0,368495	2020-10-29T19:42:45:787
7,494320	-2,533999	0,011964	2020-10-29T19:42:45:804
7,695317	-2,206182	-0,157926	2020-10-29T19:42:45:827
8,059027	-2,160719	-0,258425	2020-10-29T19:42:45:846
8,224132	-2,031506	-0,284746	2020-10-29T19:42:45:866
8,386844	-2,325824	0,007178	2020-10-29T19:42:45:884
8,829515	-2,538785	0,397209	2020-10-29T19:42:45:908
9,200402	-2,823531	0,478565	2020-10-29T19:42:45:924
9,549755	-3,093920	0,662812	2020-10-29T19:42:45:946
9,975677	-3,641876	1,198804	2020-10-29T19:42:45:964
10,597812	-4,331009	1,940579	2020-10-29T19:42:45:987
11,614761	-5,082355	2,799603	2020-10-29T19:42:46:004
12,471392	-5,570491	3,273381	2020-10-29T19:42:46:027
12,531212	-5,568098	3,464807	2020-10-29T19:42:46:044
11,794223	-4,003192	3,103491	2020-10-29T19:42:46:067
12,457035	-2,445465	2,725425	2020-10-29T19:42:46:096
14,002798	-2,333002	2,885744	2020-10-29T19:42:46:108
13,359130	-2,806781	3,538985	2020-10-29T19:42:46:124
12,387643	-2,330609	3,203990	2020-10-29T19:42:46:148
11,638690	-2,148755	2,940779	2020-10-29T19:42:46:165
10,911271	-2,361716	2,596212	2020-10-29T19:42:46:186
10,334601	-2,644069	2,591427	2020-10-29T19:42:46:205
9,810574	-2,995814	2,533999	2020-10-29T19:42:46:229
9,291330	-3,359523	2,328217	2020-10-29T19:42:46:244
9,164511	-3,493521	1,942972	2020-10-29T19:42:46:266
9,970891	-3,460021	1,493121	2020-10-29T19:42:46:285
10,779665	-3,577270	0,696311	2020-10-29T19:42:46:308
12,023933	-3,333202	0,725025	2020-10-29T19:42:46:326
13,251451	-3,194418	0,478565	2020-10-29T19:42:46:346
13,684553	-2,675175	0,332602	2020-10-29T19:42:46:364
13,725230	-2,017149	-0,253639	2020-10-29T19:42:46:387
13,215559	-1,684547	-0,428315	2020-10-29T19:42:46:405
12,985848	-1,282553	-0,516850	2020-10-29T19:42:46:427
12,909278	-1,112662	-0,832702	2020-10-29T19:42:46:445
12,174682	-0,959522	-0,847059	2020-10-29T19:42:46:468
11,533404	-1,028914	-0,990629	2020-10-29T19:42:46:484
11,004591	-1,095913	-1,048056	2020-10-29T19:42:46:507
10,229317	-1,282553	-1,024128	2020-10-29T19:42:46:525
9,461221	-1,495514	-0,751346	2020-10-29T19:42:46:548
8,702696	-1,744368	-0,392423	2020-10-29T19:42:46:566
8,126025	-1,926222	-0,004786	2020-10-29T19:42:46:587
7,881958	-2,053042	0,454636	2020-10-29T19:42:46:605
7,587641	-2,091327	0,363709	2020-10-29T19:42:46:628
7,085148	-2,323431	0,428315	2020-10-29T19:42:46:645
7,192825	-2,294717	0,425922	2020-10-29T19:42:46:667
8,042276	-2,139183	0,354138	2020-10-29T19:42:46:685
8,992228	-2,005185	0,734596	2020-10-29T19:42:46:708
9,097511	-1,904687	0,497707	2020-10-29T19:42:46:725
8,535198	-1,629512	0,279960	2020-10-29T19:42:46:747
9,068797	-1,464408	0,674776	2020-10-29T19:42:46:765
10,415956	-1,172483	1,435694	2020-10-29T19:42:46:788
9,451650	-0,937986	1,732404	2020-10-29T19:42:46:806
9,097511	-0,650848	1,392623	2020-10-29T19:42:46:827
9,468399	-0,461815	0,964308	2020-10-29T19:42:46:845
9,631111	-0,545564	1,026521	2020-10-29T19:42:46:868
9,533006	-1,150948	1,232304	2020-10-29T19:42:46:885
9,760324	-1,651048	1,641476	2020-10-29T19:42:46:907
10,226924	-2,514857	1,904687	2020-10-29T19:42:46:925
10,578669	-3,503092	2,155933	2020-10-29T19:42:46:948
11,411370	-4,120440	2,141576	2020-10-29T19:42:46:965
12,313466	-4,666004	1,720440	2020-10-29T19:42:46:987
12,751352	-4,582255	1,143769	2020-10-29T19:42:47:005
12,894921	-3,493521	0,473779	2020-10-29T19:42:47:028
12,983455	-2,167897	0,253639	2020-10-29T19:42:47:046
12,964314	-1,225125	0,248854	2020-10-29T19:42:47:067
12,105289	-0,705883	0,425922	2020-10-29T19:42:47:085
11,095518	-0,512064	0,631705	2020-10-29T19:42:47:109
10,167104	-0,569492	0,648455	2020-10-29T19:42:47:125
9,427721	-0,629312	0,622134	2020-10-29T19:42:47:147
8,585447	-0,866202	0,581456	2020-10-29T19:42:47:166
8,123632	-1,328017	0,507278	2020-10-29T19:42:47:188
8,250452	-1,706082	0,227318	2020-10-29T19:42:47:205
8,673983	-2,344966	-0,478565	2020-10-29T19:42:47:228
8,815158	-3,302095	-0,545564	2020-10-29T19:42:47:245
9,142976	-4,354938	0,035892	2020-10-29T19:42:47:268
9,585647	-4,584648	0,591027	2020-10-29T19:42:47:287
9,750752	-4,409972	0,813560	2020-10-29T19:42:47:310
9,884750	-3,969693	0,808774	2020-10-29T19:42:47:325
10,401600	-3,053242	1,141376	2020-10-29T19:42:47:349
10,997414	-2,349752	1,217947	2020-10-29T19:42:47:366
11,150554	-1,531406	1,500300	2020-10-29T19:42:47:388
12,394822	0,722632	2,349752	2020-10-29T19:42:47:406
11,552547	7,046863	2,019542	2020-10-29T19:42:47:429
10,210175	3,347559	1,172483	2020-10-29T19:42:47:445
11,586047	2,737389	0,526421	2020-10-29T19:42:47:468
13,105491	1,574477	0,667598	2020-10-29T19:42:47:486
14,407186	1,395016	0,610170	2020-10-29T19:42:47:509
13,686946	1,562513	0,447458	2020-10-29T19:42:47:527
12,320643	1,825724	-0,574277	2020-10-29T19:42:47:548
11,401800	0,971486	-2,067399	2020-10-29T19:42:47:565
10,088140	0,394816	-2,354537	2020-10-29T19:42:47:589
8,846266	1,471586	-1,785046	2020-10-29T19:42:47:606
8,142776	1,811367	-1,375873	2020-10-29T19:42:47:628
8,315059	0,512064	-1,246661	2020-10-29T19:42:47:646
8,913264	-0,260818	-1,414158	2020-10-29T19:42:47:669
9,812965	-0,107677	-1,899901	2020-10-29T19:42:47:686
10,820344	-0,756132	-2,799603	2020-10-29T19:42:47:709
12,045469	-2,043471	-3,476771	2020-10-29T19:42:47:726
12,935599	-3,139383	-3,397808	2020-10-29T19:42:47:750
12,571891	-3,175276	-4,728218	2020-10-29T19:42:47:766
11,566904	-2,986243	-4,295116	2020-10-29T19:42:47:789
11,638690	-2,699104	-2,988636	2020-10-29T19:42:47:806
10,901700	-1,572084	-2,301895	2020-10-29T19:42:47:830
9,731609	-1,024128	-2,364109	2020-10-29T19:42:47:846
9,638289	-1,529014	-0,835095	2020-10-29T19:42:47:869
9,769895	-2,404787	0,155533	2020-10-29T19:42:47:887
9,102298	-2,189433	0,210568	2020-10-29T19:42:47:910
8,583055	-1,770689	-0,277567	2020-10-29T19:42:47:926
8,181061	-1,473979	-0,973879	2020-10-29T19:42:47:949
7,968100	-1,375873	-1,421337	2020-10-29T19:42:47:966
8,161918	-1,155733	-2,115255	2020-10-29T19:42:47:990
8,523234	-1,347159	-2,847459	2020-10-29T19:42:48:007
8,913264	-2,069792	-3,491128	2020-10-29T19:42:48:029
9,662218	-3,263810	-4,161119	2020-10-29T19:42:48:046
9,767502	-3,984050	-4,553542	2020-10-29T19:42:48:070
9,645468	-4,500899	-4,046263	2020-10-29T19:42:48:086
9,248260	-4,524827	-3,364309	2020-10-29T19:42:48:109
9,152546	-4,953143	-3,072384	2020-10-29T19:42:48:127
9,250652	-5,563312	-2,691926	2020-10-29T19:42:48:150
9,296116	-5,989235	-2,287539	2020-10-29T19:42:48:166
9,695717	-6,178268	-2,045863	2020-10-29T19:42:48:189
10,375278	-5,967700	-2,325824	2020-10-29T19:42:48:206
10,928021	-5,639884	-2,885744	2020-10-29T19:42:48:230
11,373087	-5,541777	-3,139383	2020-10-29T19:42:48:247
11,545370	-5,575277	-2,952743	2020-10-29T19:42:48:269
11,334801	-5,714060	-2,644069	2020-10-29T19:42:48:286
10,681561	-5,869594	-2,222932	2020-10-29T19:42:48:310
9,865608	-5,910272	-1,775474	2020-10-29T19:42:48:327
9,466006	-5,802595	-1,191626	2020-10-29T19:42:48:349
9,633504	-5,532206	-0,954736	2020-10-29T19:42:48:366
9,827322	-5,046463	-0,734596	2020-10-29T19:42:48:390
9,879964	-4,565506	-0,555135	2020-10-29T19:42:48:406
9,908678	-3,895515	-0,571885	2020-10-29T19:42:48:429
10,059426	-2,979064	-0,567099	2020-10-29T19:42:48:446
10,121639	-2,201397	-0,215354	2020-10-29T19:42:48:469
10,262815	-0,289532	0,133998	2020-10-29T19:42:48:488
9,865608	0,961915	-0,002393	2020-10-29T19:42:48:509
10,013963	-0,342174	0,028714	2020-10-29T19:42:48:526
10,384850	-2,244468	-0,344566	2020-10-29T19:42:48:551
10,327423	-3,883551	-0,198604	2020-10-29T19:42:48:567
10,193424	-4,809574	0,172283	2020-10-29T19:42:48:589
10,035499	-4,596612	0,052642	2020-10-29T19:42:48:607
9,640682	-4,041477	-0,169890	2020-10-29T19:42:48:630
9,288938	-3,988836	-0,028714	2020-10-29T19:42:48:647
9,255438	-3,981657	0,177069	2020-10-29T19:42:48:669
9,265009	-4,108476	1,229911	2020-10-29T19:42:48:687
9,205189	-4,493721	1,526621	2020-10-29T19:42:48:712
9,032906	-4,859823	1,722832	2020-10-29T19:42:48:729
9,324830	-4,730610	2,076970	2020-10-29T19:42:48:750
10,293922	-3,739982	2,964707	2020-10-29T19:42:48:767
11,081161	-2,093720	3,527020	2020-10-29T19:42:48:790
11,210374	-0,186640	3,634698	2020-10-29T19:42:48:808
10,066606	-0,119641	3,471986	2020-10-29T19:42:48:830
10,236496	-1,318445	3,223132	2020-10-29T19:42:48:848
10,631311	-2,545963	1,789831	2020-10-29T19:42:48:870
10,925629	-3,086741	1,086342	2020-10-29T19:42:48:886
11,054840	-2,663212	0,512064	2020-10-29T19:42:48:909
10,798808	-1,691726	0,198604	2020-10-29T19:42:48:927
10,298709	-1,009771	0,138784	2020-10-29T19:42:48:950
9,710074	-1,098306	0,181855	2020-10-29T19:42:48:968
9,769895	-1,686940	0,356531	2020-10-29T19:42:48:989
10,305886	-2,153540	0,399601	2020-10-29T19:42:49:007
10,643275	-2,785245	0,504886	2020-10-29T19:42:49:031
10,851451	-3,172883	0,430708	2020-10-29T19:42:49:047
11,219944	-3,069991	0,119641	2020-10-29T19:42:49:069
11,358729	-2,605784	-0,330210	2020-10-29T19:42:49:087
11,109876	-1,811367	-0,449851	2020-10-29T19:42:49:111
10,870593	-1,227518	-0,701097	2020-10-29T19:42:49:127
10,703095	-0,739382	-0,705883	2020-10-29T19:42:49:149
10,370493	-0,571885	-0,646062	2020-10-29T19:42:49:168
9,951750	-0,739382	-0,610170	2020-10-29T19:42:49:190
9,564112	-0,868595	-0,490529	2020-10-29T19:42:49:210
9,233903	-1,284946	-0,205783	2020-10-29T19:42:49:229
8,944371	-1,586441	0,071785	2020-10-29T19:42:49:247
8,724231	-1,785046	0,248854	2020-10-29T19:42:49:271
8,492127	-1,971686	0,279960	2020-10-29T19:42:49:287
8,295916	-2,170290	0,454636	2020-10-29T19:42:49:309
8,243275	-2,306681	0,528814	2020-10-29T19:42:49:328
8,063812	-2,462214	0,667598	2020-10-29T19:42:49:350
7,858029	-2,407180	0,715454	2020-10-29T19:42:49:367
7,886744	-2,411965	0,727418	2020-10-29T19:42:49:390
7,999206	-2,426322	0,808774	2020-10-29T19:42:49:408
8,492127	-2,478964	0,890130	2020-10-29T19:42:49:431
10,459028	-2,486143	0,674776	2020-10-29T19:42:49:450
12,533605	-2,627320	0,461815	2020-10-29T19:42:49:469
13,050454	-3,316452	0,746561	2020-10-29T19:42:49:487
12,320643	-4,039084	1,289732	2020-10-29T19:42:49:511
12,244074	-4,560720	1,332802	2020-10-29T19:42:49:528
12,504892	-4,888536	0,978664	2020-10-29T19:42:49:549
12,567105	-5,099105	0,959522	2020-10-29T19:42:49:568
12,198609	-4,560720	1,210768	2020-10-29T19:42:49:591
11,160125	-2,933600	1,160519	2020-10-29T19:42:49:608
9,494720	-0,993021	0,995414	2020-10-29T19:42:49:630
7,908278	0,258425	0,861416	2020-10-29T19:42:49:648
7,652246	0,729811	0,423530	2020-10-29T19:42:49:670
8,786445	0,090927	-0,066999	2020-10-29T19:42:49:689
9,647861	-0,612563	-0,296710	2020-10-29T19:42:49:710
9,767502	-1,533799	-0,181855	2020-10-29T19:42:49:728
10,090532	-2,373680	-0,023928	2020-10-29T19:42:49:751
10,375278	-3,120241	0,023928	2020-10-29T19:42:49:768
10,265208	-3,491128	0,430708	2020-10-29T19:42:49:790
10,195816	-3,443272	1,395016	2020-10-29T19:42:49:808
9,690931	-2,452643	0,823131	2020-10-29T19:42:49:832
8,685946	-1,974079	0,591027	2020-10-29T19:42:49:848
7,929814	-1,557728	0,830309	2020-10-29T19:42:49:870
7,747960	-1,971686	1,371087	2020-10-29T19:42:49:888
7,819745	-2,151148	1,682154	2020-10-29T19:42:49:911
7,896315	-2,189433	1,940579	2020-10-29T19:42:49:930
8,315059	-2,679961	2,158326	2020-10-29T19:42:49:950
8,956335	-3,165704	2,440679	2020-10-29T19:42:49:968
9,327222	-3,199204	2,395216	2020-10-29T19:42:49:992
9,241080	-3,108276	2,115255	2020-10-29T19:42:50:008
9,109475	-3,182454	1,871187	2020-10-29T19:42:50:030
9,169296	-3,184847	1,526621	2020-10-29T19:42:50:048
9,477970	-3,151347	1,272982	2020-10-29T19:42:50:071
9,748360	-3,215954	1,014557	2020-10-29T19:42:50:089
10,202995	-3,390630	0,971486	2020-10-29T19:42:50:111
10,573883	-3,476771	0,928415	2020-10-29T19:42:50:128
10,650455	-3,177669	0,794417	2020-10-29T19:42:50:152
10,377672	-2,572284	0,480957	2020-10-29T19:42:50:169
11,621940	-2,160719	0,167498	2020-10-29T19:42:50:190
14,612967	-2,093720	0,090927	2020-10-29T19:42:50:208
14,009976	-2,457429	0,985843	2020-10-29T19:42:50:232
11,186446	-2,548356	1,435694	2020-10-29T19:42:50:249
11,107484	-2,703890	1,095913	2020-10-29T19:42:50:270
11,523834	-2,660819	1,055235	2020-10-29T19:42:50:288
10,210175	-2,665605	1,371087	2020-10-29T19:42:50:312
9,008978	-2,677568	1,440479	2020-10-29T19:42:50:328
7,939385	-2,778067	1,284946	2020-10-29T19:42:50:350
7,436893	-2,797210	0,981057	2020-10-29T19:42:50:369
8,059027	-2,809174	0,557528	2020-10-29T19:42:50:392
9,332008	-2,883351	0,078963	2020-10-29T19:42:50:411
9,939785	-3,077170	-0,047856	2020-10-29T19:42:50:431
10,303494	-3,034099	-0,088534	2020-10-29T19:42:50:449
10,729417	-2,615355	-0,136391	2020-10-29T19:42:50:472
11,387443	-2,376073	-0,713061	2020-10-29T19:42:50:489
11,724831	-2,055435	-0,935594	2020-10-29T19:42:50:511
11,624333	-1,823331	-0,866202	2020-10-29T19:42:50:529
11,318050	-1,684547	-0,863809	2020-10-29T19:42:50:552
10,949556	-1,603191	-0,547956	2020-10-29T19:42:50:569
10,415956	-1,648655	-0,583849	2020-10-29T19:42:50:591
9,769895	-1,698904	-0,677169	2020-10-29T19:42:50:609
9,511470	-1,588834	-0,710668	2020-10-29T19:42:50:633
9,296116	-1,600798	-0,674776	2020-10-29T19:42:50:651
8,934800	-1,651048	-0,646062	2020-10-29T19:42:50:671
8,827123	-1,701297	-0,483350	2020-10-29T19:42:50:689
8,676375	-2,045863	-0,203390	2020-10-29T19:42:50:712
8,267202	-2,275574	0,256032	2020-10-29T19:42:50:729
7,994420	-2,404787	0,574277	2020-10-29T19:42:50:752
8,106883	-2,378466	0,746561	2020-10-29T19:42:50:769
7,996813	-2,057827	1,083949	2020-10-29T19:42:50:792
7,716853	-1,938186	1,600798	2020-10-29T19:42:50:809
7,884350	-1,643869	1,741975	2020-10-29T19:42:50:832
8,386844	-1,306481	1,490728	2020-10-29T19:42:50:851
8,963513	-1,136591	1,227518	2020-10-29T19:42:50:872
9,741181	-1,086342	1,397408	2020-10-29T19:42:50:890
10,597812	-1,009771	0,973879	2020-10-29T19:42:50:912
12,646068	-1,002593	0,177069	2020-10-29T19:42:50:929
14,725430	-1,404587	0,081356	2020-10-29T19:42:50:952
14,964713	-2,443072	0,969093	2020-10-29T19:42:50:969
14,112868	-3,381058	1,959722	2020-10-29T19:42:50:991
12,301501	-4,529613	3,055635	2020-10-29T19:42:51:009
10,138390	-6,128019	3,991228	2020-10-29T19:42:51:033
8,178668	-5,795416	4,039084	2020-10-29T19:42:51:049
6,778866	-2,620141	3,014957	2020-10-29T19:42:51:072
6,175875	-0,837488	1,933401	2020-10-29T19:42:51:089
9,095119	-0,933201	0,277567	2020-10-29T19:42:51:113
10,293922	-1,263410	-0,229711	2020-10-29T19:42:51:134
11,411370	-2,378466	-0,808774	2020-10-29T19:42:51:152
10,808380	-3,084348	-0,555135	2020-10-29T19:42:51:170
10,655239	-3,361916	-0,440279	2020-10-29T19:42:51:193
10,425529	-3,318845	-0,193819	2020-10-29T19:42:51:209
9,358330	-2,967100	0,220140	2020-10-29T19:42:51:232
8,434700	-2,986243	0,605384	2020-10-29T19:42:51:249
8,061419	-3,230310	0,744168	2020-10-29T19:42:51:273
7,905886	-3,594020	0,825524	2020-10-29T19:42:51:289
7,676175	-3,864408	0,988236	2020-10-29T19:42:51:312
7,429714	-4,149154	0,768096	2020-10-29T19:42:51:330
7,278966	-4,395615	0,579063	2020-10-29T19:42:51:353
7,465607	-4,680361	0,430708	2020-10-29T19:42:51:370
7,826923	-5,046463	0,452243	2020-10-29T19:42:51:392
8,293523	-5,367101	0,638884	2020-10-29T19:42:51:410
8,934800	-6,266802	0,904487	2020-10-29T19:42:51:433
9,743573	-7,479963	1,579263	2020-10-29T19:42:51:450
10,537991	-8,403593	1,811367	2020-10-29T19:42:51:472
10,916058	-6,654440	1,234696	2020-10-29T19:42:51:490
10,238889	-3,515057	0,583849	2020-10-29T19:42:51:513
10,569098	-1,672583	-0,291924	2020-10-29T19:42:51:530
13,926227	-1,995614	-0,205783	2020-10-29T19:42:51:553
14,139190	-1,672583	0,102891	2020-10-29T19:42:51:570
10,454242	-1,337588	0,698704	2020-10-29T19:42:51:593
9,927821	-1,524228	0,524028	2020-10-29T19:42:51:612
11,289338	-1,895115	0,078963	2020-10-29T19:42:51:632
10,727024	-2,206182	0,421137	2020-10-29T19:42:51:650
9,317651	-2,696711	0,765703	2020-10-29T19:42:51:673
8,788837	-3,134598	0,693919	2020-10-29T19:42:51:690
9,159724	-3,512664	0,406780	2020-10-29T19:42:51:712
9,844072	-3,656233	-0,014357	2020-10-29T19:42:51:730
10,801201	-3,524628	-0,595813	2020-10-29T19:42:51:753
11,708081	-3,311667	-1,275374	2020-10-29T19:42:51:770
12,440285	-3,029313	-1,864009	2020-10-29T19:42:51:792
12,756138	-2,665605	-2,471786	2020-10-29T19:42:51:810
12,141183	-2,287539	-2,794817	2020-10-29T19:42:51:833
11,478370	-1,986043	-3,156133	2020-10-29T19:42:51:851
11,167303	-1,765903	-3,385844	2020-10-29T19:42:51:872
10,906486	-1,658226	-3,629912	2020-10-29T19:42:51:890
10,533205	-1,512264	-3,706482	2020-10-29T19:42:51:914
10,152746	-1,476372	-3,560520	2020-10-29T19:42:51:930
9,879964	-1,452443	-3,479164	2020-10-29T19:42:51:953
9,559326	-1,351945	-3,553342	2020-10-29T19:42:51:970
9,410972	-1,469193	-3,381058	2020-10-29T19:42:51:993
9,154939	-1,615155	-3,182454	2020-10-29T19:42:52:010
8,721838	-1,849652	-2,699104	2020-10-29T19:42:52:033
8,482556	-2,093720	-2,354537	2020-10-29T19:42:52:050
8,202596	-2,282753	-2,029114	2020-10-29T19:42:52:073
8,137990	-2,333002	-1,765903	2020-10-29T19:42:52:091
8,408379	-2,373680	-1,715654	2020-10-29T19:42:52:113
8,860621	-2,395216	-1,564906	2020-10-29T19:42:52:130
9,724431	-2,610569	-1,610370	2020-10-29T19:42:52:153
10,621738	-2,646462	-1,804188	2020-10-29T19:42:52:171
11,545370	-2,892922	-1,641476	2020-10-29T19:42:52:192
11,050055	-3,802195	0,150748	2020-10-29T19:42:52:210
9,930215	-4,472186	1,289732	2020-10-29T19:42:52:234
8,946764	-4,888536	2,256432	2020-10-29T19:42:52:250
8,719445	-5,046463	2,751746	2020-10-29T19:42:52:273
9,166903	-4,551149	2,577070	2020-10-29T19:42:52:291
10,119246	-3,737589	1,923829	2020-10-29T19:42:52:314
10,693524	-2,505285	1,576870	2020-10-29T19:42:52:332
10,607382	-1,105484	1,167697	2020-10-29T19:42:52:383
10,269995	0,033500	1,000200	2020-10-29T19:42:52:384
10,198210	0,725025	0,102891	2020-10-29T19:42:52:401
10,100104	1,473979	1,265803	2020-10-29T19:42:52:429
10,846665	-2,976671	1,911865	2020-10-29T19:42:52:434
11,289338	-3,629912	2,804388	2020-10-29T19:42:52:451
10,494920	-3,426522	3,089134	2020-10-29T19:42:52:475
10,490135	-3,653840	2,890530	2020-10-29T19:42:52:490
10,413565	-3,912265	2,486143	2020-10-29T19:42:52:513
10,150353	-4,230510	2,158326	2020-10-29T19:42:52:532
9,757930	-4,402793	1,634298	2020-10-29T19:42:52:553
9,738789	-4,204189	1,124627	2020-10-29T19:42:52:572
9,609575	-4,199404	0,629312	2020-10-29T19:42:52:593
9,454042	-3,737589	0,368495	2020-10-29T19:42:52:611
9,037691	-3,043670	-0,090927	2020-10-29T19:42:52:634
8,750552	-2,366502	-0,449851	2020-10-29T19:42:52:651
8,886944	-1,926222	-0,557528	2020-10-29T19:42:52:673
8,985049	-1,586441	-0,550349	2020-10-29T19:42:52:691
9,075976	-1,665405	-0,256032	2020-10-29T19:42:52:714
8,989835	-2,136791	0,165105	2020-10-29T19:42:52:731
9,133404	-2,608176	0,552742	2020-10-29T19:42:52:754
9,176475	-2,964707	0,937986	2020-10-29T19:42:52:771
9,066404	-3,172883	1,241875	2020-10-29T19:42:52:794
8,822337	-3,089134	1,316052	2020-10-29T19:42:52:813
8,755339	-3,285345	1,280160	2020-10-29T19:42:52:833
8,891729	-3,553342	1,330409	2020-10-29T19:42:52:851
9,394222	-3,498307	1,270589	2020-10-29T19:42:52:874
9,815358	-3,275774	1,265803	2020-10-29T19:42:52:891
9,925428	-2,842674	1,287339	2020-10-29T19:42:52:913
10,057034	-2,244468	1,325624	2020-10-29T19:42:52:931
9,987641	-1,600798	1,258625	2020-10-29T19:42:52:954
9,899107	-1,179662	1,361516	2020-10-29T19:42:52:971
9,958927	-0,918844	1,239482	2020-10-29T19:42:52:993
10,944772	-1,095913	1,349552	2020-10-29T19:42:53:012
11,619547	-1,275374	1,318445	2020-10-29T19:42:53:034
10,782058	-1,406980	1,416551	2020-10-29T19:42:53:052
10,777272	-2,050649	1,375873	2020-10-29T19:42:53:073
11,083554	-1,914258	0,961915	2020-10-29T19:42:53:091
11,239087	-1,837688	0,823131	2020-10-29T19:42:53:114
11,267801	-1,962115	1,167697	2020-10-29T19:42:53:132
11,114661	-1,981257	1,323231	2020-10-29T19:42:53:153
10,289137	-2,266003	1,318445	2020-10-29T19:42:53:172
9,339187	-1,966900	1,007378	2020-10-29T19:42:53:194
8,650054	-1,806581	0,710668	2020-10-29T19:42:53:212
7,915457	-1,725225	0,708275	2020-10-29T19:42:53:234
7,575676	-1,734797	0,605384	2020-10-29T19:42:53:251
7,987241	-1,765903	0,452243	2020-10-29T19:42:53:274
8,867801	-1,904687	0,224925	2020-10-29T19:42:53:292
10,169496	-2,230111	0,023928	2020-10-29T19:42:53:313
10,870593	-2,368894	-0,275175	2020-10-29T19:42:53:331
11,088341	-2,443072	-0,533599	2020-10-29T19:42:53:354
10,841879	-2,481357	-0,772882	2020-10-29T19:42:53:372
10,516455	-2,447858	-0,794417	2020-10-29T19:42:53:393
10,167104	-2,340181	-0,385244	2020-10-29T19:42:53:412
9,614362	-2,055435	-0,021535	2020-10-29T19:42:53:435
9,123833	-1,691726	0,133998	2020-10-29T19:42:53:451
8,817552	-1,636691	0,208176	2020-10-29T19:42:53:474
8,839087	-1,797010	0,028714	2020-10-29T19:42:53:493
8,987441	-1,926222	0,066999	2020-10-29T19:42:53:515
9,037691	-2,115255	0,133998	2020-10-29T19:42:53:533
9,317651	-2,297110	0,062213	2020-10-29T19:42:53:553
9,652647	-2,452643	0,019143	2020-10-29T19:42:53:571
9,566505	-2,758924	0,112463	2020-10-29T19:42:53:595
9,638289	-2,933600	0,165105	2020-10-29T19:42:53:612
9,710074	-2,754139	0,296710	2020-10-29T19:42:53:634
9,858429	-2,732604	0,330210	2020-10-29T19:42:53:653
10,028319	-2,837888	0,301496	2020-10-29T19:42:53:675
10,643275	-2,706282	0,119641	2020-10-29T19:42:53:691
11,487941	-2,423929	-0,057428	2020-10-29T19:42:53:714
11,504691	-2,263610	-0,129212	2020-10-29T19:42:53:732
10,710274	-2,112862	0,066999	2020-10-29T19:42:53:755
10,384850	-1,832902	0,165105	2020-10-29T19:42:53:773
10,444671	-2,287539	0,059821	2020-10-29T19:42:53:794
10,616954	-2,687140	0,043071	2020-10-29T19:42:53:812
11,107484	-3,158526	0,217747	2020-10-29T19:42:53:835
11,071590	-3,658626	0,547956	2020-10-29T19:42:53:852
10,308280	-3,656233	0,775275	2020-10-29T19:42:53:874
9,415757	-3,273381	0,856631	2020-10-29T19:42:53:892
8,595018	-2,921637	1,043271	2020-10-29T19:42:53:917
7,889136	-2,565106	0,981057	2020-10-29T19:42:53:932
7,343572	-2,199004	0,930808	2020-10-29T19:42:53:955
7,326823	-2,033899	0,693919	2020-10-29T19:42:53:972
7,934600	-2,079363	0,581456	2020-10-29T19:42:53:994
8,992228	-2,225325	0,751346	2020-10-29T19:42:54:013
10,217353	-2,421536	0,725025	2020-10-29T19:42:54:035
11,296515	-2,464607	1,115055	2020-10-29T19:42:54:052
11,406586	-2,529213	1,380659	2020-10-29T19:42:54:075
10,880164	-2,261217	1,550549	2020-10-29T19:42:54:093
10,095319	-2,005185	1,701297	2020-10-29T19:42:54:115
9,260223	-1,751546	1,947758	2020-10-29T19:42:54:133
8,740981	-1,746760	2,438286	2020-10-29T19:42:54:155
8,941978	-1,708475	2,931208	2020-10-29T19:42:54:172
9,308081	-1,234696	2,979064	2020-10-29T19:42:54:196
9,171689	-0,880559	3,175276	2020-10-29T19:42:54:213
9,176475	-1,390230	2,809174	2020-10-29T19:42:54:236
9,717253	-2,273181	2,160719	2020-10-29T19:42:54:253
9,824929	-2,976671	1,636691	2020-10-29T19:42:54:274
9,497113	-3,282953	1,414158	2020-10-29T19:42:54:292
9,413363	-2,821138	1,194018	2020-10-29T19:42:54:316
9,432507	-2,823531	1,167697	2020-10-29T19:42:54:333
9,387043	-2,801995	1,110270	2020-10-29T19:42:54:354
9,470792	-2,768496	1,244268	2020-10-29T19:42:54:372
9,592826	-2,734996	1,397408	2020-10-29T19:42:54:396
9,731609	-2,919244	1,332802	2020-10-29T19:42:54:412
9,714860	-3,000600	1,162912	2020-10-29T19:42:54:435
10,693524	-3,316452	0,990629	2020-10-29T19:42:54:452
11,813366	-3,491128	0,918844	2020-10-29T19:42:54:475
10,925629	-3,476771	1,129412	2020-10-29T19:42:54:494
9,427721	-3,275774	1,052842	2020-10-29T19:42:54:515
9,458827	-3,170490	0,792024	2020-10-29T19:42:54:533
9,860823	-3,177669	0,485743	2020-10-29T19:42:54:556
9,643075	-3,203990	0,600598	2020-10-29T19:42:54:572
9,875179	-3,285345	0,351745	2020-10-29T19:42:54:595
10,377672	-3,503092	0,169890	2020-10-29T19:42:54:613
10,540384	-3,548556	-0,002393	2020-10-29T19:42:54:636
10,284351	-3,483950	-0,129212	2020-10-29T19:42:54:653
9,542577	-3,335595	-0,165105	2020-10-29T19:42:54:675
8,709875	-3,115455	-0,114855	2020-10-29T19:42:54:693
8,360522	-2,823531	-0,172283	2020-10-29T19:42:54:716
8,819944	-2,553142	-0,428315	2020-10-29T19:42:54:734
9,647861	-2,696711	-0,619741	2020-10-29T19:42:54:755
10,595419	-3,156133	-0,696311	2020-10-29T19:42:54:773
11,504691	-3,634698	-0,815953	2020-10-29T19:42:54:800
11,566904	-4,089334	-0,959522	2020-10-29T19:42:54:813
11,330014	-3,921836	-1,234696	2020-10-29T19:42:54:836
10,995021	-3,493521	-1,354338	2020-10-29T19:42:54:853
10,645668	-2,811567	-1,344766	2020-10-29T19:42:54:876
10,281959	-2,182254	-1,184447	2020-10-29T19:42:54:893
9,808180	-1,785046	-0,961915	2020-10-29T19:42:54:916
9,372685	-1,765903	-0,921237	2020-10-29T19:42:54:933
9,181261	-1,756332	-0,947558	2020-10-29T19:42:54:956
8,879765	-1,952543	-0,873380	2020-10-29T19:42:54:974
8,805587	-2,242075	-0,552742	2020-10-29T19:42:54:995
8,755339	-2,553142	-0,291924	2020-10-29T19:42:55:013
8,702696	-2,806781	-0,227318	2020-10-29T19:42:55:036
8,872586	-2,943172	-0,078963	2020-10-29T19:42:55:053
8,930015	-2,921637	-0,105284	2020-10-29T19:42:55:075
8,910872	-2,610569	-0,191426	2020-10-29T19:42:55:093
9,013763	-2,488536	0,040678	2020-10-29T19:42:55:116
9,475577	-2,330609	0,052642	2020-10-29T19:42:55:133
9,822537	-1,995614	0,222532	2020-10-29T19:42:55:156
10,597812	-1,823331	-0,033500	2020-10-29T19:42:55:173
11,700903	-1,670190	-0,222532	2020-10-29T19:42:55:196
11,157731	-1,677369	0,354138	2020-10-29T19:42:55:214
10,269995	-1,648655	0,985843	2020-10-29T19:42:55:236
10,308280	6,829116	-3,495914	2020-10-29T19:42:55:253
8,714661	-10,454242	3,651447	2020-10-29T19:42:55:276
11,107484	1,134198	0,646062	2020-10-29T19:42:55:293
11,301301	-1,002593	0,045464	2020-10-29T19:42:55:316
10,097712	-4,220939	0,875773	2020-10-29T19:42:55:334
9,946963	-2,993421	0,811167	2020-10-29T19:42:55:356
9,497113	-2,043471	0,679562	2020-10-29T19:42:55:373
8,666803	-1,631905	0,380459	2020-10-29T19:42:55:396
8,303094	-1,170090	0,198604	2020-10-29T19:42:55:413
8,834301	-1,088734	0,399601	2020-10-29T19:42:55:436
9,839286	-1,261017	0,189033	2020-10-29T19:42:55:454
10,296316	-1,897508	0,043071	2020-10-29T19:42:55:475
10,650455	-2,450250	0,504886	2020-10-29T19:42:55:493
10,588240	-2,916851	0,674776	2020-10-29T19:42:55:517
10,494920	-3,120241	1,167697	2020-10-29T19:42:55:534
9,815358	-3,096312	0,614955	2020-10-29T19:42:55:556
9,032906	-2,512464	0,588634	2020-10-29T19:42:55:574
8,750552	-2,514857	0,823131	2020-10-29T19:42:55:597
8,331808	-2,658426	1,323231	2020-10-29T19:42:55:613
8,137990	-3,266203	1,584049	2020-10-29T19:42:55:636
7,913064	-4,548756	1,533799	2020-10-29T19:42:55:653
7,948956	-5,434100	1,507478	2020-10-29T19:42:55:677
7,817351	-5,850451	1,138984	2020-10-29T19:42:55:694
7,915457	-4,654040	0,780060	2020-10-29T19:42:55:716
8,343772	-4,060620	0,655633	2020-10-29T19:42:55:734
8,980263	-3,450450	0,870987	2020-10-29T19:42:55:757
9,525827	-2,883351	1,028914	2020-10-29T19:42:55:774
10,018748	-2,311467	0,837488	2020-10-29T19:42:55:796
10,530812	-2,620141	0,727418	2020-10-29T19:42:55:814
11,064411	-3,467200	0,646062	2020-10-29T19:42:55:837
10,947165	-3,462414	0,411566	2020-10-29T19:42:55:855
10,789237	-2,976671	0,411566	2020-10-29T19:42:55:876
11,952149	-2,656033	-0,263210	2020-10-29T19:42:55:894
12,303895	-3,326023	0,028714	2020-10-29T19:42:55:917
11,581261	-3,462414	0,263210	2020-10-29T19:42:55:935
11,483156	-3,340380	0,083749	2020-10-29T19:42:55:956
11,365908	-3,120241	-0,071785	2020-10-29T19:42:55:974
10,985448	-2,797210	0,002393	2020-10-29T19:42:55:997
10,262815	-2,469393	0,277567	2020-10-29T19:42:56:015
9,202796	-2,270789	0,466600	2020-10-29T19:42:56:036
8,044669	-2,230111	0,428315	2020-10-29T19:42:56:054
7,640282	-2,361716	0,246461	2020-10-29T19:42:56:077
8,568698	-2,505285	-0,155533	2020-10-29T19:42:56:094
10,088140	-2,797210	-0,203390	2020-10-29T19:42:56:117
11,138590	-3,192025	-0,071785	2020-10-29T19:42:56:137
11,507084	-3,476771	-0,423530	2020-10-29T19:42:56:157
11,418550	-3,505485	-0,906880	2020-10-29T19:42:56:176
11,126624	-3,022135	-1,237089	2020-10-29T19:42:56:196
10,810772	-2,438286	-1,081556	2020-10-29T19:42:56:214
10,090532	-1,852045	-0,722632	2020-10-29T19:42:56:237
9,387043	-1,677369	-0,416351	2020-10-29T19:42:56:254
8,867801	-1,677369	-0,301496	2020-10-29T19:42:56:276
8,480164	-1,785046	-0,334995	2020-10-29T19:42:56:294
8,341379	-1,820938	-0,382852	2020-10-29T19:42:56:317
8,286345	-1,974079	-0,224925	2020-10-29T19:42:56:334
8,176274	-2,136791	-0,011964	2020-10-29T19:42:56:357
8,164310	-2,249253	-0,031107	2020-10-29T19:42:56:374
8,243275	-2,277967	0,011964	2020-10-29T19:42:56:397
8,386844	-2,400001	0,045464	2020-10-29T19:42:56:417
8,614161	-2,455036	0,043071	2020-10-29T19:42:56:437
9,071191	-2,352145	-0,071785	2020-10-29T19:42:56:454
9,578469	-2,371287	-0,016750	2020-10-29T19:42:56:477
9,970891	-2,390430	0,069392	2020-10-29T19:42:56:494
10,109675	-2,280360	0,122034	2020-10-29T19:42:56:517
10,253245	-2,321038	0,165105	2020-10-29T19:42:56:535
11,748759	-2,062613	-0,258425	2020-10-29T19:42:56:558
12,038290	-1,832902	0,083749	2020-10-29T19:42:56:576
10,983055	-1,756332	0,452243	2020-10-29T19:42:56:597
11,569297	-1,732404	0,361316	2020-10-29T19:42:56:616
12,064612	-2,019542	0,605384	2020-10-29T19:42:56:637
11,054840	-2,383251	0,849452	2020-10-29T19:42:56:657
10,231709	-2,641676	0,969093	2020-10-29T19:42:56:677
9,422935	-2,895315	1,229911	2020-10-29T19:42:56:695
8,475377	-2,904887	1,189233	2020-10-29T19:42:56:718
7,793423	-2,560320	0,995414	2020-10-29T19:42:56:736
7,929814	-2,333002	0,868595	2020-10-29T19:42:56:757
8,894121	-2,249253	0,478565	2020-10-29T19:42:56:776
9,887143	-2,423929	0,370888	2020-10-29T19:42:56:797
10,432706	-2,498107	0,320638	2020-10-29T19:42:56:815
10,547562	-2,366502	0,337388	2020-10-29T19:42:56:837
10,633704	-2,450250	0,490529	2020-10-29T19:42:56:855
10,116854	-2,368894	0,581456	2020-10-29T19:42:56:877
9,178867	-2,230111	0,698704	2020-10-29T19:42:56:897
8,382057	-2,139183	0,770489	2020-10-29T19:42:56:917
7,915457	-2,167897	0,736989	2020-10-29T19:42:56:936
8,128418	-2,254039	0,753739	2020-10-29T19:42:56:958
8,520842	-2,541178	0,758525	2020-10-29T19:42:56:976
8,870193	-2,902494	0,904487	2020-10-29T19:42:56:997
9,008978	-3,206382	0,981057	2020-10-29T19:42:57:015
9,396614	-3,443272	1,062413	2020-10-29T19:42:57:038
9,851252	-3,857230	1,507478	2020-10-29T19:42:57:055
10,301102	-4,321437	2,012364	2020-10-29T19:42:57:077
10,382458	-4,733003	2,481357	2020-10-29T19:42:57:096
10,358529	-4,639683	2,656033	2020-10-29T19:42:57:118
10,530812	-3,940979	2,469393	2020-10-29T19:42:57:137
10,535598	-2,785245	2,074577	2020-10-29T19:42:57:157
10,380065	-1,861616	1,627119	2020-10-29T19:42:57:175
10,604989	-1,507478	1,091127	2020-10-29T19:42:57:198
12,177074	-1,811367	1,174876	2020-10-29T19:42:57:215
12,875778	-2,622534	1,004985	2020-10-29T19:42:57:237
10,803595	-2,730211	1,021735	2020-10-29T19:42:57:255
9,836893	-2,416751	0,605384	2020-10-29T19:42:57:278
10,298709	-2,457429	0,143569	2020-10-29T19:42:57:295
10,207782	-2,447858	-0,528814	2020-10-29T19:42:57:318
10,289137	-2,897708	-0,751346	2020-10-29T19:42:57:335
10,877771	-3,684947	-1,706082	2020-10-29T19:42:57:359
11,093125	-4,031906	-3,108276	2020-10-29T19:42:57:376
11,538191	-4,153940	-3,876373	2020-10-29T19:42:57:397
11,468799	-3,984050	-4,275974	2020-10-29T19:42:57:416
10,746166	-3,230310	-5,223531	2020-10-29T19:42:57:439
10,097712	-2,823531	-5,455636	2020-10-29T19:42:57:455
9,997212	-2,541178	-5,618347	2020-10-29T19:42:57:477
9,827322	-2,524428	-5,706882	2020-10-29T19:42:57:496
9,655040	-2,531606	-5,694918	2020-10-29T19:42:57:518
9,279366	-0,540778	-6,151947	2020-10-29T19:42:57:536
8,092526	1,995614	-5,166104	2020-10-29T19:42:57:557
7,599605	1,447658	-3,237489	2020-10-29T19:42:57:576
8,874979	-0,516850	-2,411965	2020-10-29T19:42:57:598
9,961320	-1,457229	-2,292324	2020-10-29T19:42:57:617
9,832108	-1,584049	-2,158326	2020-10-29T19:42:57:639
9,513863	-0,866202	-1,856830	2020-10-29T19:42:57:656
9,695717	-0,440279	-1,629512	2020-10-29T19:42:57:679
9,635897	-0,160319	-1,342373	2020-10-29T19:42:57:696
9,633504	-0,004786	-0,856631	2020-10-29T19:42:57:717
9,578469	-0,318245	-0,526421	2020-10-29T19:42:57:736
9,834501	-1,127020	-0,495314	2020-10-29T19:42:57:759
10,025927	-1,708475	-0,320638	2020-10-29T19:42:57:776
9,963714	-2,096112	-0,107677	2020-10-29T19:42:57:798
9,750752	-2,323431	0,315853	2020-10-29T19:42:57:816
9,930215	-2,550749	0,411566	2020-10-29T19:42:57:839
9,803394	-2,665605	0,588634	2020-10-29T19:42:57:857
9,384650	-2,610569	0,279960	2020-10-29T19:42:57:877
10,080962	-2,529213	-0,586242	2020-10-29T19:42:57:896
13,052847	-2,569891	-1,170090	2020-10-29T19:42:57:920
14,045869	-3,215954	-0,500100	2020-10-29T19:42:57:937
10,502099	-3,766303	0,971486	2020-10-29T19:42:57:958
9,059227	-3,450450	2,392823	2020-10-29T19:42:57:976
10,174281	-3,177669	3,141776	2020-10-29T19:42:57:999
10,880164	-3,043670	3,309274	2020-10-29T19:42:58:016
10,628918	-2,993421	2,864209	2020-10-29T19:42:58:038
10,868200	-2,768496	2,062613	2020-10-29T19:42:58:056
11,150554	-2,768496	1,476372	2020-10-29T19:42:58:080
11,148161	-2,538785	1,268196	2020-10-29T19:42:58:098
10,992627	-1,502693	1,196411	2020-10-29T19:42:58:118
10,423136	-0,138784	1,406980	2020-10-29T19:42:58:136
10,006784	0,926022	1,438086	2020-10-29T19:42:58:159
9,707682	0,028714	1,986043	2020-10-29T19:42:58:176
10,088140	-1,052842	1,919044	2020-10-29T19:42:58:198
9,451650	-1,026521	2,012364	2020-10-29T19:42:58:217
8,377272	-1,045663	2,167897	2020-10-29T19:42:58:240
8,252845	-1,100698	1,404587	2020-10-29T19:42:58:256
8,303094	-1,301696	-0,191426	2020-10-29T19:42:58:278
7,944171	-1,789831	-0,866202	2020-10-29T19:42:58:296
7,853244	-2,129612	-1,395016	2020-10-29T19:42:58:320
7,381857	-2,823531	-2,172683	2020-10-29T19:42:58:338
6,654440	-3,172883	-3,077170	2020-10-29T19:42:58:358
6,218946	-3,462414	-3,986443	2020-10-29T19:42:58:376
6,364908	-3,711268	-4,857430	2020-10-29T19:42:58:400
7,154540	-3,548556	-6,295516	2020-10-29T19:42:58:417
8,260024	-3,505485	-6,941578	2020-10-29T19:42:58:439
8,903693	-4,235296	-5,429315	2020-10-29T19:42:58:456
8,415558	-5,000999	-4,144369	2020-10-29T19:42:58:479
8,279166	-4,945964	-3,620341	2020-10-29T19:42:58:496
9,006584	-4,374080	-3,381058	2020-10-29T19:42:58:519
9,693325	-4,271189	-3,263810	2020-10-29T19:42:58:537
11,126624	-5,393422	-2,464607	2020-10-29T19:42:58:560
14,392829	-8,047063	-1,962115	2020-10-29T19:42:58:578
17,769100	-11,787045	-3,649055	2020-10-29T19:42:58:599
18,257236	-9,954143	-6,833901	2020-10-29T19:42:58:617
17,462820	-4,969893	-8,678767	2020-10-29T19:42:58:640
16,926826	-1,718047	-7,657032	2020-10-29T19:42:58:657
15,483955	-0,540778	-5,343173	2020-10-29T19:42:58:678
13,911870	0,483350	-3,330809	2020-10-29T19:42:58:697
11,885150	0,480957	-1,217947	2020-10-29T19:42:58:720
11,231910	-0,071785	-0,897308	2020-10-29T19:42:58:737
10,004392	-1,505085	-0,756132	2020-10-29T19:42:58:759
8,908479	-2,313859	-0,997807	2020-10-29T19:42:58:777
7,901100	-2,773281	-1,414158	2020-10-29T19:42:58:800
7,135397	-2,835495	-1,371087	2020-10-29T19:42:58:819
7,305287	-3,113062	-1,134198	2020-10-29T19:42:58:839
8,415558	-3,670590	-1,251446	2020-10-29T19:42:58:857
10,037891	-3,866802	-1,734797	2020-10-29T19:42:58:880
11,643474	-4,031906	-2,079363	2020-10-29T19:42:58:897
13,304093	-3,981657	-2,285146	2020-10-29T19:42:58:919
14,136796	-2,928815	-3,479164	2020-10-29T19:42:58:937
13,591233	-1,452443	-4,711468	2020-10-29T19:42:58:960
12,057433	-0,433101	-4,644469	2020-10-29T19:42:58:977
10,243673	-0,064606	-2,675175	2020-10-29T19:42:59:000
8,659625	0,122034	-0,545564	2020-10-29T19:42:59:018
7,580462	0,086142	0,358923	2020-10-29T19:42:59:040
6,953543	-0,282353	0,062213	2020-10-29T19:42:59:059
7,037291	-0,969093	-0,313460	2020-10-29T19:42:59:080
7,673782	-1,751546	0,095713	2020-10-29T19:42:59:098
8,432307	-2,749353	0,880559	2020-10-29T19:42:59:120
9,308081	-3,268596	1,304088	2020-10-29T19:42:59:137
10,269995	-3,306881	0,983450	2020-10-29T19:42:59:159
10,951948	-2,919244	0,212961	2020-10-29T19:42:59:177
11,124231	-2,586641	0,011964	2020-10-29T19:42:59:200
10,731809	-1,892723	-0,356531	2020-10-29T19:42:59:217
9,595219	-1,799403	0,624527	2020-10-29T19:42:59:239
8,961121	-1,797010	0,918844	2020-10-29T19:42:59:257
9,391829	-1,825724	0,595813	2020-10-29T19:42:59:280
10,602598	-2,122434	0,382852	2020-10-29T19:42:59:300
11,595619	-2,940779	0,581456	2020-10-29T19:42:59:320
12,019149	-3,067599	0,354138	2020-10-29T19:42:59:337
12,239288	-2,490928	-0,169890	2020-10-29T19:42:59:361
12,306287	-2,598605	-0,619741	2020-10-29T19:42:59:377
12,514462	-2,921637	-0,964308	2020-10-29T19:42:59:399
13,182060	-3,235096	-1,215554	2020-10-29T19:42:59:417
13,311273	-4,331009	-1,289732	2020-10-29T19:42:59:440
13,016955	-5,357530	-0,954736	2020-10-29T19:42:59:457
12,385249	-5,345565	-1,607977	2020-10-29T19:42:59:479
11,648260	-4,931608	-2,220540	2020-10-29T19:42:59:497
11,949757	-5,142176	-1,780260	2020-10-29T19:42:59:520
11,830115	-6,058627	-0,607777	2020-10-29T19:42:59:538
11,030912	-6,410372	-0,337388	2020-10-29T19:42:59:559
10,523634	-5,941379	-0,200997	2020-10-29T19:42:59:577
9,396614	-5,041678	0,043071	2020-10-29T19:42:59:600
8,066205	-4,364508	0,416351	2020-10-29T19:42:59:618
6,943972	-4,144369	0,708275	2020-10-29T19:42:59:640
6,642475	-4,551149	0,701097	2020-10-29T19:42:59:657
7,879565	-5,491528	0,387637	2020-10-29T19:42:59:680
9,564112	-6,247660	-0,217747	2020-10-29T19:42:59:697
10,616954	-5,879165	-1,213161	2020-10-29T19:42:59:720
11,461621	-5,118248	-1,751546	2020-10-29T19:42:59:738
12,358929	-4,158726	-1,904687	2020-10-29T19:42:59:760
12,806387	-3,146562	-1,500300	2020-10-29T19:42:59:779
12,957134	-2,871387	-1,246661	2020-10-29T19:42:59:800
12,789637	-2,407180	-1,064806	2020-10-29T19:42:59:817
12,296716	-2,500499	-1,189233	2020-10-29T19:42:59:841
11,619547	-2,467000	-1,433301	2020-10-29T19:42:59:858
11,260624	-2,481357	-1,816152	2020-10-29T19:42:59:880
11,090734	-2,593820	-2,129612	2020-10-29T19:42:59:898
11,088341	-2,636890	-2,380858	2020-10-29T19:42:59:921
11,289338	-2,658426	-2,471786	2020-10-29T19:42:59:938
11,172089	-2,500499	-2,471786	2020-10-29T19:42:59:960
10,609775	-2,249253	-2,141576	2020-10-29T19:42:59:978
9,798609	-2,088934	-1,689333	2020-10-29T19:43:00:000
9,399008	-1,820938	-1,517050	2020-10-29T19:43:00:019
9,645468	-1,428515	-1,191626	2020-10-29T19:43:00:040
10,325029	-1,158126	-0,921237	2020-10-29T19:43:00:058
10,102496	-1,215554	-0,411566	2020-10-29T19:43:00:081
10,425529	-1,311267	-0,492921	2020-10-29T19:43:00:098
11,830115	-1,277767	-1,430908	2020-10-29T19:43:00:120
12,071791	-1,344766	-1,268196	2020-10-29T19:43:00:138
11,456835	-1,730011	-0,165105	2020-10-29T19:43:00:161
10,243673	-1,942972	1,301696	2020-10-29T19:43:00:178
8,587841	-2,361716	2,665605	2020-10-29T19:43:00:200
7,149754	-2,182254	3,357130	2020-10-29T19:43:00:218
6,891330	-1,830509	3,503092	2020-10-29T19:43:00:241
7,960921	-1,615155	3,227918	2020-10-29T19:43:00:259
9,379865	-1,304088	2,754139	2020-10-29T19:43:00:280
10,322637	-0,859023	2,124826	2020-10-29T19:43:00:298
11,124231	-0,205783	1,478764	2020-10-29T19:43:00:321
11,356337	0,184247	1,009771	2020-10-29T19:43:00:338
11,102697	-0,114855	0,868595	2020-10-29T19:43:00:360
10,482956	-0,880559	0,976272	2020-10-29T19:43:00:378
10,147961	-1,883151	1,246661	2020-10-29T19:43:00:401
10,013963	-2,866602	1,349552	2020-10-29T19:43:00:419
10,174281	-3,852444	1,825724	2020-10-29T19:43:00:440
9,777073	-3,955336	2,132005	2020-10-29T19:43:00:459
9,320045	-3,400201	1,976472	2020-10-29T19:43:00:481
8,987441	-2,682354	1,459622	2020-10-29T19:43:00:499
8,973085	-2,388037	0,866202	2020-10-29T19:43:00:520
9,399008	-2,347359	0,332602	2020-10-29T19:43:00:538
9,980463	-2,129612	-0,574277	2020-10-29T19:43:00:561
10,506885	-1,919044	-1,237089	2020-10-29T19:43:00:578
10,456635	-2,067399	-1,203590	2020-10-29T19:43:00:600
10,375278	-2,438286	-1,313660	2020-10-29T19:43:00:619
11,179268	-3,022135	-1,641476	2020-10-29T19:43:00:642
12,452249	-3,409772	-1,686940	2020-10-29T19:43:00:658
12,949955	-4,074977	-1,500300	2020-10-29T19:43:00:681
13,655839	-5,000999	-0,540778	2020-10-29T19:43:00:699
13,105491	-6,202196	0,512064	2020-10-29T19:43:00:722
11,430513	-7,791030	1,019342	2020-10-29T19:43:00:740
10,298709	-10,961520	1,153341	2020-10-29T19:43:00:761
8,281559	-10,454242	2,246860	2020-10-29T19:43:00:779
5,761917	-5,259424	2,739782	2020-10-29T19:43:00:801
4,149154	-2,522035	2,940779	2020-10-29T19:43:00:819
5,723632	-2,529213	1,660619	2020-10-29T19:43:00:841
9,774680	-2,610569	-0,107677	2020-10-29T19:43:00:859
13,569696	-3,373880	-0,911665	2020-10-29T19:43:00:881
16,699509	-3,555735	-1,167697	2020-10-29T19:43:00:898
14,608182	-3,591627	0,904487	2020-10-29T19:43:00:921
12,543176	-3,017349	2,931208	2020-10-29T19:43:00:939
11,976077	-2,371287	3,665804	2020-10-29T19:43:00:961
11,669796	-2,452643	3,364309	2020-10-29T19:43:00:981
11,842079	-2,376073	2,955136	2020-10-29T19:43:01:001
11,822936	-1,761117	2,218147	2020-10-29T19:43:01:019
11,753544	-1,244268	1,725225	2020-10-29T19:43:01:043
12,210573	-0,837488	1,531406	2020-10-29T19:43:01:059
13,086348	-0,270389	0,708275	2020-10-29T19:43:01:090
12,921242	0,179462	0,078963	2020-10-29T19:43:01:099
11,416157	0,040678	0,619741	2020-10-29T19:43:01:122
10,715059	-0,198604	1,177269	2020-10-29T19:43:01:139
10,588240	-0,088534	1,064806	2020-10-29T19:43:01:161
9,868000	-0,098106	0,868595	2020-10-29T19:43:01:179
8,434700	-0,256032	0,856631	2020-10-29T19:43:01:202
7,188039	-0,569492	0,780060	2020-10-29T19:43:01:220
6,675975	-1,052842	0,547956	2020-10-29T19:43:01:241
6,539584	-1,280160	0,129212	2020-10-29T19:43:01:259
6,372087	-1,466800	0,605384	2020-10-29T19:43:01:282
7,135397	-1,404587	0,885344	2020-10-29T19:43:01:299
8,953942	-1,040878	-0,011964	2020-10-29T19:43:01:321
10,827522	-1,040878	-0,863809	2020-10-29T19:43:01:340
12,301501	-1,631905	-1,495514	2020-10-29T19:43:01:362
12,674782	-2,727818	-1,713261	2020-10-29T19:43:01:379
11,720046	-3,687340	-1,131805	2020-10-29T19:43:01:401
10,892128	-4,254438	0,031107	2020-10-29T19:43:01:420
11,157731	-4,960321	1,485943	2020-10-29T19:43:01:442
12,000006	-6,022735	3,117848	2020-10-29T19:43:01:461
12,004791	-8,274381	4,354938	2020-10-29T19:43:01:481
11,720046	-8,772088	2,620141	2020-10-29T19:43:01:499
10,722239	-0,507278	-0,251246	2020-10-29T19:43:01:522
10,727024	3,555735	-1,560120	2020-10-29T19:43:01:540
12,205789	3,402594	-2,306681	2020-10-29T19:43:01:562
12,193825	1,902294	-2,282753	2020-10-29T19:43:01:579
10,468598	0,361316	-2,167897	2020-10-29T19:43:01:604
9,372685	-1,007378	-2,330609	2020-10-29T19:43:01:620
9,523434	-2,148755	-2,811567	2020-10-29T19:43:01:642
9,707682	-3,163311	-2,663212	2020-10-29T19:43:01:660
9,279366	-4,161119	-2,526821	2020-10-29T19:43:01:682
9,008978	-5,292924	-2,510071	2020-10-29T19:43:01:700
8,970692	-5,934200	-2,254039	2020-10-29T19:43:01:721
8,944371	-6,448657	-1,806581	2020-10-29T19:43:01:740
8,906086	-6,888937	-1,354338	2020-10-29T19:43:01:762
8,999406	-7,073184	-1,158126	2020-10-29T19:43:01:780
9,126225	-6,841080	-1,275374	2020-10-29T19:43:01:801
9,513863	-7,314859	-0,794417	2020-10-29T19:43:01:820
9,805787	-8,449057	0,007178	2020-10-29T19:43:01:843
9,585647	-7,697710	0,586242	2020-10-29T19:43:01:860
9,348758	-4,376472	0,746561	2020-10-29T19:43:01:882
9,432507	-1,746760	0,971486	2020-10-29T19:43:01:900
9,327222	-1,217947	1,435694	2020-10-29T19:43:01:923
9,533006	-1,765903	1,246661	2020-10-29T19:43:01:941
10,657632	-3,381058	1,129412	2020-10-29T19:43:01:961
12,277573	-6,788438	1,842474	2020-10-29T19:43:01:980
11,435300	-8,415558	2,352145	2020-10-29T19:43:02:003
10,470992	-8,087741	2,072184	2020-10-29T19:43:02:020
11,224730	-7,901100	1,696511	2020-10-29T19:43:02:042
12,208181	-6,592227	1,292124	2020-10-29T19:43:02:060
12,629318	-4,065405	0,981057	2020-10-29T19:43:02:083
12,638889	-1,615155	-0,038285	2020-10-29T19:43:02:100
13,490734	-0,784846	-0,502493	2020-10-29T19:43:02:122
15,503098	-1,232304	-0,634098	2020-10-29T19:43:02:140
16,086946	-0,378066	-2,524428	2020-10-29T19:43:02:162
15,840486	0,457029	-1,631905	2020-10-29T19:43:02:181
15,196816	0,064606	-1,741975	2020-10-29T19:43:02:201
13,318451	0,172283	-0,665205	2020-10-29T19:43:02:220
12,090932	-0,220140	0,124427	2020-10-29T19:43:02:243
11,492726	-0,698704	0,294317	2020-10-29T19:43:02:260
10,774881	-1,421337	-0,083749	2020-10-29T19:43:02:282
10,179067	-2,045863	-0,612563	2020-10-29T19:43:02:300
10,408779	-2,383251	-0,969093	2020-10-29T19:43:02:323
10,140782	-2,388037	-0,926022	2020-10-29T19:43:02:340
9,279366	-2,464607	-0,380459	2020-10-29T19:43:02:362
8,384450	-2,390430	-0,413958	2020-10-29T19:43:02:380
8,030313	-2,062613	-0,583849	2020-10-29T19:43:02:403
8,059027	-1,627119	-0,655633	2020-10-29T19:43:02:422
7,884350	-1,249053	-0,356531	2020-10-29T19:43:02:442
7,767102	-1,229911	-0,095713	2020-10-29T19:43:02:460
7,905886	-1,502693	-0,055035	2020-10-29T19:43:02:483
7,925028	-2,421536	0,229711	2020-10-29T19:43:02:501
7,798209	-2,543570	0,406780	2020-10-29T19:43:02:522
8,702696	-0,830309	-0,186640	2020-10-29T19:43:02:541
9,193225	0,244068	-0,430708	2020-10-29T19:43:02:563
9,399008	0,380459	0,078963	2020-10-29T19:43:02:580
10,250853	0,093320	0,684347	2020-10-29T19:43:02:602
11,215159	-0,679562	1,428515	2020-10-29T19:43:02:621
11,602797	-1,426122	1,981257	2020-10-29T19:43:02:644
11,454442	-2,134398	2,519642	2020-10-29T19:43:02:663
11,064411	-2,670390	3,132205	2020-10-29T19:43:02:683
10,944772	-3,354738	3,431308	2020-10-29T19:43:02:701
11,688939	-4,785645	3,871587	2020-10-29T19:43:02:724
12,806387	-10,789237	5,419744	2020-10-29T19:43:02:741
13,782660	-8,657232	2,158326	2020-10-29T19:43:02:763
11,004591	-0,983450	0,825524	2020-10-29T19:43:02:781
9,573684	1,588834	0,485743	2020-10-29T19:43:02:804
10,949556	2,531606	-0,334995	2020-10-29T19:43:02:821
11,636297	2,596212	-0,748954	2020-10-29T19:43:02:843
10,923235	1,452443	-0,083749	2020-10-29T19:43:02:861
10,564312	-0,373280	0,729811	2020-10-29T19:43:02:883
10,392029	-1,643869	0,701097	2020-10-29T19:43:02:902
9,638289	-2,964707	0,693919	2020-10-29T19:43:02:923
8,882158	-4,039084	0,626920	2020-10-29T19:43:02:941
8,420342	-4,764110	0,667598	2020-10-29T19:43:02:964
8,090133	-5,192425	0,849452	2020-10-29T19:43:02:981
8,054241	-5,213961	0,837488	2020-10-29T19:43:03:002
8,130811	-4,941179	0,693919	2020-10-29T19:43:03:021
7,958528	-4,788038	0,658026	2020-10-29T19:43:03:044
7,793423	-4,527221	0,524028	2020-10-29T19:43:03:061
8,082954	-4,242475	0,567099	2020-10-29T19:43:03:083
8,673983	-4,307081	0,760918	2020-10-29T19:43:03:101
8,958728	-4,663611	1,055235	2020-10-29T19:43:03:124
9,494720	-4,886144	1,459622	2020-10-29T19:43:03:144
10,033106	-5,020142	1,672583	2020-10-29T19:43:03:163
10,353743	-4,563113	1,155733	2020-10-29T19:43:03:181
11,746366	-4,977071	1,612763	2020-10-29T19:43:03:204
14,608182	-5,431707	1,605584	2020-10-29T19:43:03:222
14,536398	-4,445865	2,000400	2020-10-29T19:43:03:244
13,442878	-2,325824	1,569692	2020-10-29T19:43:03:261
12,873385	-0,021535	1,134198	2020-10-29T19:43:03:284
11,557333	0,595813	1,746760	2020-10-29T19:43:03:301
10,018748	1,038485	1,976472	2020-10-29T19:43:03:323
9,820145	0,411566	1,564906	2020-10-29T19:43:03:341
11,377872	-0,629312	1,330409	2020-10-29T19:43:03:364
13,576876	-0,909273	1,234696	2020-10-29T19:43:03:384
15,390635	-1,203590	1,129412	2020-10-29T19:43:03:403
15,852450	-1,079163	1,124627	2020-10-29T19:43:03:421
15,213567	-0,354138	1,031307	2020-10-29T19:43:03:444
14,129619	0,062213	0,854238	2020-10-29T19:43:03:461
12,591033	-0,315853	1,179662	2020-10-29T19:43:03:483
11,004591	-0,191426	1,543371	2020-10-29T19:43:03:501
9,748360	0,021535	1,471586	2020-10-29T19:43:03:524
8,740981	-0,011964	1,550549	2020-10-29T19:43:03:541
8,133204	-0,301496	1,696511	2020-10-29T19:43:03:564
7,910671	-0,557528	1,505085	2020-10-29T19:43:03:581
7,805387	-0,696311	1,170090	2020-10-29T19:43:03:604
7,843673	-0,595813	0,583849	2020-10-29T19:43:03:623
7,841280	-0,607777	0,090927	2020-10-29T19:43:03:644
7,649854	-0,954736	-0,208176	2020-10-29T19:43:03:661
7,712067	-0,969093	-0,423530	2020-10-29T19:43:03:684
8,441878	-1,004985	-0,720240	2020-10-29T19:43:03:701
9,238688	-1,134198	-1,117448	2020-10-29T19:43:03:724
10,150353	-1,160519	-1,627119	2020-10-29T19:43:03:742
11,071590	-1,263410	-2,189433	2020-10-29T19:43:03:764
12,265609	-1,722832	-2,493321	2020-10-29T19:43:03:781
13,823336	-2,596212	-3,014957	2020-10-29T19:43:03:804
14,981462	-3,436093	-3,486342	2020-10-29T19:43:03:822
14,407186	-4,110869	-3,747160	2020-10-29T19:43:03:845
12,818351	-4,342973	-3,318845	2020-10-29T19:43:03:862
12,095718	-4,029513	-2,677568	2020-10-29T19:43:03:884
11,564510	-3,862016	-1,935793	2020-10-29T19:43:03:901
11,059627	-3,742374	-1,227518	2020-10-29T19:43:03:927
10,995021	-3,799802	-0,899701	2020-10-29T19:43:03:942
11,444871	-3,885944	-1,179662	2020-10-29T19:43:03:964
11,856436	-4,383651	-1,744368	2020-10-29T19:43:03:982
11,844472	-4,991428	-2,292324	2020-10-29T19:43:04:005
11,452050	-5,067998	-2,840281	2020-10-29T19:43:04:022
10,913664	-4,754539	-3,242275	2020-10-29T19:43:04:045
10,346564	-4,067799	-3,354738	2020-10-29T19:43:04:062
10,013963	-3,653840	-2,861816	2020-10-29T19:43:04:085
9,650253	-3,373880	-2,282753	2020-10-29T19:43:04:105
9,351151	-3,318845	-1,871187	2020-10-29T19:43:04:124
9,016156	-3,172883	-1,612763	2020-10-29T19:43:04:142
8,525627	-3,189633	-1,301696	2020-10-29T19:43:04:165
7,910671	-3,333202	-0,713061	2020-10-29T19:43:04:182
7,824530	-3,364309	-0,710668	2020-10-29T19:43:04:204
7,862815	-3,582055	-0,617348	2020-10-29T19:43:04:222
8,020741	-3,885944	-0,619741	2020-10-29T19:43:04:246
8,391629	-4,220939	-0,540778	2020-10-29T19:43:04:262
8,621340	-4,345366	-0,483350	2020-10-29T19:43:04:284
8,805587	-4,450650	-0,385244	2020-10-29T19:43:04:302
8,951550	-4,800002	-0,177069	2020-10-29T19:43:04:325
9,075976	-5,041678	0,720240	2020-10-29T19:43:04:344
9,353544	-5,149354	1,852045	2020-10-29T19:43:04:364
9,712467	-4,811966	1,974079	2020-10-29T19:43:04:382
9,808180	-4,340580	2,206182	2020-10-29T19:43:04:405
10,025927	-4,144369	2,545963	2020-10-29T19:43:04:423
11,062018	-4,314260	2,433501	2020-10-29T19:43:04:445
12,696317	-5,089533	2,711068	2020-10-29T19:43:04:462
13,624733	-5,474778	3,735196	2020-10-29T19:43:04:485
12,935599	-3,038885	4,508078	2020-10-29T19:43:04:502
10,865808	-2,993421	4,555934	2020-10-29T19:43:04:525
10,004392	-5,309673	4,455436	2020-10-29T19:43:04:543
9,975677	-6,453443	3,866802	2020-10-29T19:43:04:565
8,891729	-3,089134	2,222932	2020-10-29T19:43:04:583
8,539984	-0,483350	1,730011	2020-10-29T19:43:04:604
9,540184	-1,959722	1,263410	2020-10-29T19:43:04:623
10,928021	-3,151347	0,495314	2020-10-29T19:43:04:646
11,215159	-2,476572	0,332602	2020-10-29T19:43:04:663
11,394621	-2,756532	0,040678	2020-10-29T19:43:04:684
11,270195	-3,302095	-0,028714	2020-10-29T19:43:04:703
10,796415	-3,381058	-0,186640	2020-10-29T19:43:04:726
10,540384	-3,349952	-0,043071	2020-10-29T19:43:04:743
10,088140	-3,467200	0,064606	2020-10-29T19:43:04:765
9,578469	-3,196811	0,066999	2020-10-29T19:43:04:783
9,308081	-2,476572	-0,019143	2020-10-29T19:43:04:807
8,874979	-2,065006	-0,370888	2020-10-29T19:43:04:826
8,724231	-2,407180	-0,392423	2020-10-29T19:43:04:845
8,934800	-2,529213	-0,435494	2020-10-29T19:43:04:862
8,769694	-2,165504	-0,586242	2020-10-29T19:43:04:886
8,595018	-1,909473	-0,646062	2020-10-29T19:43:04:903
8,382057	-1,899901	-0,569492	2020-10-29T19:43:04:925
8,355737	-1,813759	-0,490529	2020-10-29T19:43:04:943
8,303094	-1,974079	-0,401994	2020-10-29T19:43:04:966
8,377272	-2,170290	-0,167498	2020-10-29T19:43:04:983
8,767302	-2,478964	0,107677	2020-10-29T19:43:05:005
9,322437	-2,691926	0,215354	2020-10-29T19:43:05:023
9,882358	-2,675175	0,576670	2020-10-29T19:43:05:046
10,267602	-2,928815	0,746561	2020-10-29T19:43:05:064
10,526026	-3,050849	0,899701	2020-10-29T19:43:05:085
10,717452	-3,002992	1,184447	2020-10-29T19:43:05:103
11,296515	-2,746960	1,205983	2020-10-29T19:43:05:126
12,385249	-2,608176	1,081556	2020-10-29T19:43:05:144
12,277573	-1,952543	1,182054	2020-10-29T19:43:05:165
11,308479	-1,229911	1,452443	2020-10-29T19:43:05:184
11,040483	-0,471386	0,995414	2020-10-29T19:43:05:206
12,538391	-0,315853	0,593420	2020-10-29T19:43:05:223
12,528819	-1,093520	0,847059	2020-10-29T19:43:05:245
11,277373	-2,175076	1,816152	2020-10-29T19:43:05:263
10,810772	-2,967100	1,974079	2020-10-29T19:43:05:288
9,875179	-3,747160	2,005185	2020-10-29T19:43:05:306
8,678767	-4,110869	2,230111	2020-10-29T19:43:05:327
7,369894	-4,115655	2,076970	2020-10-29T19:43:05:344
6,580262	-3,486342	1,966900	2020-10-29T19:43:05:368
7,180861	-2,864209	1,536192	2020-10-29T19:43:05:383
8,382057	-2,105684	0,696311	2020-10-29T19:43:05:406
9,018548	-1,598405	0,093320	2020-10-29T19:43:05:424
9,442079	-1,447658	-0,308674	2020-10-29T19:43:05:447
10,025927	-1,406980	-0,524028	2020-10-29T19:43:05:463
10,504492	-1,244268	-0,775275	2020-10-29T19:43:05:486
10,377672	-1,258625	-0,854238	2020-10-29T19:43:05:503
9,882358	-1,383051	-0,483350	2020-10-29T19:43:05:527
9,152546	-1,404587	-0,009571	2020-10-29T19:43:05:544
8,700303	-1,643869	0,423530	2020-10-29T19:43:05:566
8,511270	-1,823331	0,751346	2020-10-29T19:43:05:583
8,425128	-2,079363	0,717847	2020-10-29T19:43:05:607
8,410772	-2,297110	0,717847	2020-10-29T19:43:05:624
8,477771	-2,459821	0,696311	2020-10-29T19:43:05:646
8,415558	-2,634498	0,832702	2020-10-29T19:43:05:664
8,480164	-2,706282	1,021735	2020-10-29T19:43:05:687
8,374879	-2,684747	1,110270	2020-10-29T19:43:05:703
8,451449	-2,584249	1,182054	2020-10-29T19:43:05:726
8,827123	-2,612962	1,423729	2020-10-29T19:43:05:744
9,332008	-2,701497	1,701297	2020-10-29T19:43:05:767
10,214959	-3,031706	2,026721	2020-10-29T19:43:05:785
11,404193	-3,431308	2,124826	2020-10-29T19:43:05:805
11,995219	-3,536592	1,892723	2020-10-29T19:43:05:824
11,751152	-3,814159	1,409373	2020-10-29T19:43:05:848
13,019348	-3,668197	0,830309	2020-10-29T19:43:05:865
14,007583	-3,536592	1,019342	2020-10-29T19:43:05:886
12,595818	-3,247060	1,330409	2020-10-29T19:43:05:904
11,401800	-2,194218	1,117448	2020-10-29T19:43:05:927
10,911271	-1,067199	0,777667	2020-10-29T19:43:05:944
9,812965	-0,708275	0,933201	2020-10-29T19:43:05:966
8,580662	-1,000200	1,320838	2020-10-29T19:43:05:984
7,936993	-1,275374	1,509871	2020-10-29T19:43:06:007
8,662018	-1,890330	1,323231	2020-10-29T19:43:06:027
10,195816	-3,132205	0,923629	2020-10-29T19:43:06:046
11,497513	-4,153940	0,435494	2020-10-29T19:43:06:064
12,246466	-4,682754	-0,227318	2020-10-29T19:43:06:087
12,583855	-4,457829	-0,875773	2020-10-29T19:43:06:104
11,983256	-3,596412	-1,138984	2020-10-29T19:43:06:126
11,191232	-2,727818	-1,062413	2020-10-29T19:43:06:144
10,535598	-1,895115	-0,653241	2020-10-29T19:43:06:167
9,738789	-1,493121	-0,153141	2020-10-29T19:43:06:184
9,396614	-1,605584	-0,074178	2020-10-29T19:43:06:206
9,226725	-1,835295	-0,055035	2020-10-29T19:43:06:224
9,260223	-2,275574	0,035892	2020-10-29T19:43:06:247
9,449257	-2,684747	-0,040678	2020-10-29T19:43:06:265
9,590433	-2,828316	-0,224925	2020-10-29T19:43:06:286
9,753145	-2,809174	-0,569492	2020-10-29T19:43:06:304
9,975677	-2,641676	-0,890130	2020-10-29T19:43:06:328
9,975677	-2,263610	-0,701097	2020-10-29T19:43:06:345
10,344172	-1,567299	-0,363709	2020-10-29T19:43:06:367
10,932807	-1,284946	0,081356	2020-10-29T19:43:06:385
11,181661	-0,993021	0,248854	2020-10-29T19:43:06:407
10,715059	-0,830309	0,787239	2020-10-29T19:43:06:424
9,573684	-0,981057	1,878366	2020-10-29T19:43:06:447
8,063812	-0,823131	2,935993	2020-10-29T19:43:06:464
6,857830	-0,593420	3,141776	2020-10-29T19:43:06:487
6,977471	-0,392423	2,964707	2020-10-29T19:43:06:505
8,061419	-0,442672	2,184647	2020-10-29T19:43:06:527
9,714860	-0,574277	1,500300	2020-10-29T19:43:06:544
10,975878	-0,772882	1,103091	2020-10-29T19:43:06:568
11,267801	-1,502693	1,103091	2020-10-29T19:43:06:584
10,286745	-2,065006	1,258625	2020-10-29T19:43:06:606
8,906086	-2,567499	1,368695	2020-10-29T19:43:06:625
7,582855	-2,969493	0,935594	2020-10-29T19:43:06:648
7,259824	-3,543770	0,574277	2020-10-29T19:43:06:664
8,762517	-4,429115	0,885344	2020-10-29T19:43:06:687
11,641083	-6,474977	2,706282	2020-10-29T19:43:06:705
12,782458	-9,391829	3,323631	2020-10-29T19:43:06:728
11,854043	-6,989435	1,450050	2020-10-29T19:43:06:746
10,583455	-1,825724	0,102891	2020-10-29T19:43:06:767
10,645668	0,043071	0,325424	2020-10-29T19:43:06:787
10,987842	0,179462	0,725025	2020-10-29T19:43:06:809
10,648061	-0,435494	0,710668	2020-10-29T19:43:06:825
9,767502	-1,476372	1,272982	2020-10-29T19:43:06:847
9,293723	-2,170290	1,722832	2020-10-29T19:43:06:865
9,200402	-3,067599	1,986043	2020-10-29T19:43:06:888
9,135797	-4,259224	1,942972	2020-10-29T19:43:06:904
8,963513	-5,187639	1,801795	2020-10-29T19:43:06:927
8,786445	-5,673382	1,593620	2020-10-29T19:43:06:945
8,695518	-5,802595	1,588834	2020-10-29T19:43:06:969
8,633304	-5,393422	1,421337	2020-10-29T19:43:06:987
8,690732	-4,855037	1,380659	2020-10-29T19:43:07:007
8,989835	-4,548756	1,229911	2020-10-29T19:43:07:025
9,224331	-4,230510	1,237089	2020-10-29T19:43:07:048
9,540184	-4,151547	1,196411	2020-10-29T19:43:07:065
9,961320	-3,931407	1,019342	2020-10-29T19:43:07:087
10,530812	-3,811767	0,851845	2020-10-29T19:43:07:105
11,155338	-3,677768	0,579063	2020-10-29T19:43:07:128
11,380265	-3,493521	0,291924	2020-10-29T19:43:07:145
11,054840	-3,316452	0,033500	2020-10-29T19:43:07:167
10,573883	-3,067599	-0,045464	2020-10-29T19:43:07:185
11,097912	-3,122634	-0,583849	2020-10-29T19:43:07:209
13,316057	-3,440879	-1,067199	2020-10-29T19:43:07:228
14,708681	-3,656233	-1,083949	2020-10-29T19:43:07:248
13,129417	-3,594020	-0,746561	2020-10-29T19:43:07:265
11,363515	-3,395415	-0,911665	2020-10-29T19:43:07:288
10,047462	-2,706282	-1,105484	2020-10-29T19:43:07:305
8,511270	-2,110470	-1,160519	2020-10-29T19:43:07:328
7,630712	-1,605584	-1,533799	2020-10-29T19:43:07:346
8,597411	-1,495514	-2,019542	2020-10-29T19:43:07:368
10,588240	-1,739582	-2,888137	2020-10-29T19:43:07:385
11,684153	-2,261217	-3,565305	2020-10-29T19:43:07:408
11,944970	-3,404987	-4,096512	2020-10-29T19:43:07:426
11,490334	-3,960121	-4,594220	2020-10-29T19:43:07:449
11,899508	-6,171089	-1,658226	2020-10-29T19:43:07:468
5,345565	4,273581	-23,602802	2020-10-29T19:43:07:487
2,921637	-14,974284	-0,811167	2020-10-29T19:43:07:505
6,745367	0,019143	-3,850052	2020-10-29T19:43:07:529
10,492528	-2,065006	-1,311267	2020-10-29T19:43:07:546
9,221939	-0,423530	-3,330809	2020-10-29T19:43:07:568
8,176274	-1,686940	-0,074178	2020-10-29T19:43:07:585
9,047262	-4,197011	0,533599	2020-10-29T19:43:07:608
9,554541	-5,151747	0,519243	2020-10-29T19:43:07:625
10,133603	-6,154340	1,265803	2020-10-29T19:43:07:648
10,762917	-6,221339	0,902094	2020-10-29T19:43:07:665
10,889735	-5,127820	0,512064	2020-10-29T19:43:07:688
11,363515	-3,467200	-0,485743	2020-10-29T19:43:07:708
11,564510	-2,670390	-1,921437	2020-10-29T19:43:07:728
11,277373	-3,524628	-0,433101	2020-10-29T19:43:07:745
11,339586	-3,670590	0,205783	2020-10-29T19:43:07:769
12,167502	-3,342773	0,064606	2020-10-29T19:43:07:786
12,035898	-3,450450	1,205983	2020-10-29T19:43:07:808
11,992826	-3,694518	2,203789	2020-10-29T19:43:07:826
13,263416	-6,044270	3,361916	2020-10-29T19:43:07:849
14,304294	-4,240082	1,842474	2020-10-29T19:43:07:865
13,284950	-0,512064	0,579063	2020-10-29T19:43:07:888
10,995021	-0,949951	-0,196211	2020-10-29T19:43:07:906
8,358130	-1,753939	-0,478565	2020-10-29T19:43:07:929
6,580262	-2,739782	0,988236	2020-10-29T19:43:07:947
5,919843	-3,517449	3,558127	2020-10-29T19:43:07:968
5,958128	-2,400001	5,285746	2020-10-29T19:43:07:985
5,735595	-1,612763	5,948557	2020-10-29T19:43:08:009
5,194818	-1,323231	5,886343	2020-10-29T19:43:08:026
5,699703	-1,655833	5,589634	2020-10-29T19:43:08:048
6,699903	-0,839881	5,462814	2020-10-29T19:43:08:065
7,460821	-0,461815	5,888737	2020-10-29T19:43:08:089
7,841280	-0,447458	5,793024	2020-10-29T19:43:08:106
7,621140	0,191426	5,680561	2020-10-29T19:43:08:128
7,305287	0,040678	5,553742	2020-10-29T19:43:08:146
7,881958	0,212961	4,395615	2020-10-29T19:43:08:169
6,271588	-0,203390	2,921637	2020-10-29T19:43:08:187
3,419343	-0,066999	7,403394	2020-10-29T19:43:08:208
6,238089	-0,198604	6,190232	2020-10-29T19:43:08:226
-0,813560	-1,177269	8,463413	2020-10-29T19:43:08:249
8,413164	0,299103	5,627919	2020-10-29T19:43:08:266
5,804988	0,650848	7,798209	2020-10-29T19:43:08:288
6,996613	0,313460	8,271988	2020-10-29T19:43:08:306
3,859623	0,586242	9,566505	2020-10-29T19:43:08:329
4,443472	0,478565	9,678967	2020-10-29T19:43:08:346
6,156733	0,894916	9,729217	2020-10-29T19:43:08:368
4,979464	1,359123	9,784252	2020-10-29T19:43:08:386
5,668597	0,619741	8,602197	2020-10-29T19:43:08:409
4,859823	1,138984	9,645468	2020-10-29T19:43:08:429
5,032106	1,421337	10,126426	2020-10-29T19:43:08:449
5,843273	0,803988	10,109675	2020-10-29T19:43:08:466
6,128019	0,016750	10,006784	2020-10-29T19:43:08:489
5,735595	-0,239282	9,765109	2020-10-29T19:43:08:506
4,376472	-0,287139	8,719445	2020-10-29T19:43:08:529
3,613162	-0,504886	8,037491	2020-10-29T19:43:08:546
3,393023	-0,902094	7,412964	2020-10-29T19:43:08:569
2,452643	-0,500100	7,606783	2020-10-29T19:43:08:587
0,612563	1,067199	7,798209	2020-10-29T19:43:08:609
2,337788	-0,588634	6,994221	2020-10-29T19:43:08:627
2,266003	0,160319	6,537192	2020-10-29T19:43:08:650
1,945365	0,902094	6,352944	2020-10-29T19:43:08:678
2,500499	1,517050	5,740381	2020-10-29T19:43:08:688
3,215954	1,150948	5,843273	2020-10-29T19:43:08:706
3,962514	-0,256032	6,096912	2020-10-29T19:43:08:730
4,950750	-1,141376	7,085148	2020-10-29T19:43:08:747
5,639884	-0,744168	7,590034	2020-10-29T19:43:08:769
6,008378	-1,294517	7,704889	2020-10-29T19:43:08:787
4,706682	-1,117448	7,585248	2020-10-29T19:43:08:809
2,842674	-0,861416	8,204988	2020-10-29T19:43:08:827
2,201397	-0,851845	8,659625	2020-10-29T19:43:08:849
2,349752	-0,516850	8,827123	2020-10-29T19:43:08:866
2,797210	-0,918844	8,774480	2020-10-29T19:43:08:889
3,194418	-0,995414	9,028119	2020-10-29T19:43:08:908
3,515057	-0,490529	9,052048	2020-10-29T19:43:08:931
3,979264	-0,892523	8,908479	2020-10-29T19:43:08:947
4,180261	-2,354537	7,853244	2020-10-29T19:43:08:970
3,663411	-1,859223	6,812366	2020-10-29T19:43:08:987
4,204189	-1,335195	5,840880	2020-10-29T19:43:09:009
5,730811	-0,076570	5,015356	2020-10-29T19:43:09:027
7,582855	0,973879	4,261617	2020-10-29T19:43:09:050
9,265009	0,993021	3,751946	2020-10-29T19:43:09:066
11,014162	0,839881	3,493521	2020-10-29T19:43:09:089
13,086348	0,050249	3,433701	2020-10-29T19:43:09:106
14,720645	-1,186840	3,993621	2020-10-29T19:43:09:130
15,723237	-2,847459	4,658825	2020-10-29T19:43:09:148
16,019949	-3,921836	4,357330	2020-10-29T19:43:09:169
15,742380	-4,158726	4,225725	2020-10-29T19:43:09:187
15,488741	-3,352344	4,340580	2020-10-29T19:43:09:211
15,096318	-1,765903	4,156333	2020-10-29T19:43:09:228
14,344972	0,581456	3,627519	2020-10-29T19:43:09:249
13,143774	2,467000	2,488536	2020-10-29T19:43:09:267
12,093326	3,687340	1,272982	2020-10-29T19:43:09:291
11,684153	4,077370	-0,040678	2020-10-29T19:43:09:307
11,916256	3,125026	-0,997807	2020-10-29T19:43:09:329
11,901899	1,914258	-1,423729	2020-10-29T19:43:09:347
11,507084	0,457029	-1,222732	2020-10-29T19:43:09:370
11,315658	-1,153341	-0,897308	2020-10-29T19:43:09:388
10,985448	-2,256432	-0,818345	2020-10-29T19:43:09:409
10,231709	-3,053242	-0,488136	2020-10-29T19:43:09:427
9,315259	-3,574877	-0,047856	2020-10-29T19:43:09:450
8,279166	-3,342773	0,385244	2020-10-29T19:43:09:468
7,456036	-2,933600	0,937986	2020-10-29T19:43:09:489
7,025328	-2,837888	1,406980	2020-10-29T19:43:09:507
6,903293	-2,823531	1,686940	2020-10-29T19:43:09:531
6,800402	-3,007778	1,844866	2020-10-29T19:43:09:547
6,745367	-2,962314	1,294517	2020-10-29T19:43:09:569
6,498906	-2,857030	0,497707	2020-10-29T19:43:09:587
5,381458	-3,285345	0,126820	2020-10-29T19:43:09:610
4,646862	-4,340580	0,119641	2020-10-29T19:43:09:629
4,326223	-5,467600	0,181855	2020-10-29T19:43:09:649
4,199404	-6,250053	0,122034	2020-10-29T19:43:09:667
4,352544	-6,788438	0,033500	2020-10-29T19:43:09:690
4,599005	-7,556533	-0,344566	2020-10-29T19:43:09:707
5,072784	-7,968100	-0,729811	2020-10-29T19:43:09:730
5,154140	-8,207381	-1,026521	2020-10-29T19:43:09:748
5,608776	-7,953743	-1,007378	2020-10-29T19:43:09:770
7,417750	-7,587641	-1,100698	2020-10-29T19:43:09:787
9,420543	-7,520642	-1,203590	2020-10-29T19:43:09:810
9,968499	-7,733603	-0,653241	2020-10-29T19:43:09:828
9,437292	-7,853244	-0,040678	2020-10-29T19:43:09:851
8,511270	-7,635497	0,638884	2020-10-29T19:43:09:869
8,013563	-7,176075	1,521835	2020-10-29T19:43:09:889
8,013563	-6,573084	1,730011	2020-10-29T19:43:09:908
8,910872	-5,812167	1,667797	2020-10-29T19:43:09:932
10,320245	-5,441278	1,385444	2020-10-29T19:43:09:948
11,435300	-5,022535	0,610170	2020-10-29T19:43:09:971
11,954542	-4,845466	0,052642	2020-10-29T19:43:09:989
12,186646	-4,601398	-0,284746	2020-10-29T19:43:10:011
12,258430	-4,338188	-0,368495	2020-10-29T19:43:10:028
12,126825	-3,773481	-0,009571	2020-10-29T19:43:10:050
11,619547	-3,024528	0,744168	2020-10-29T19:43:10:068
10,990234	-1,861616	1,643869	2020-10-29T19:43:10:091
10,040283	-0,279960	1,753939	2020-10-29T19:43:10:109
9,305687	0,435494	1,627119	2020-10-29T19:43:10:132
9,346365	-0,674776	1,512264	2020-10-29T19:43:10:150
9,456435	-1,186840	1,349552	2020-10-29T19:43:10:171
9,568897	-1,440479	1,158126	2020-10-29T19:43:10:188
9,638289	-2,007578	0,918844	2020-10-29T19:43:10:210
9,595219	-2,852244	0,660419	2020-10-29T19:43:10:229
9,827322	-3,605984	0,330210	2020-10-29T19:43:10:252
9,829715	-3,881158	0,129212	2020-10-29T19:43:10:268
10,109675	-3,830909	-0,007178	2020-10-29T19:43:10:291
10,825130	-3,352344	-0,294317	2020-10-29T19:43:10:308
11,129018	-2,797210	-0,488136	2020-10-29T19:43:10:332
11,231910	-2,495714	-0,751346	2020-10-29T19:43:10:349
11,181661	-1,842474	-0,916451	2020-10-29T19:43:10:371
10,707881	-1,557728	-1,076770	2020-10-29T19:43:10:388
11,746366	-1,411765	-1,363909	2020-10-29T19:43:10:412
13,825729	-1,495514	-2,086541	2020-10-29T19:43:10:429
13,028918	-2,476572	-1,861616	2020-10-29T19:43:10:451
11,803794	-3,294917	-1,215554	2020-10-29T19:43:10:468
10,542776	-3,907479	-0,157926	2020-10-29T19:43:10:492
8,372486	-4,051049	0,911665	2020-10-29T19:43:10:508
6,190232	-3,706482	1,871187	2020-10-29T19:43:10:531
4,637290	-2,780460	2,143969	2020-10-29T19:43:10:549
4,398008	-1,942972	1,624727	2020-10-29T19:43:10:572
5,931807	-1,557728	0,856631	2020-10-29T19:43:10:590
8,475377	-1,730011	0,107677	2020-10-29T19:43:10:611
10,516455	-1,957329	-0,078963	2020-10-29T19:43:10:629
11,212767	-2,232504	-0,191426	2020-10-29T19:43:10:652
11,222338	-2,569891	-0,105284	2020-10-29T19:43:10:669
11,581261	-2,529213	0,387637	2020-10-29T19:43:10:690
10,772489	-2,179861	0,906880	2020-10-29T19:43:10:709
9,061620	-1,605584	1,730011	2020-10-29T19:43:10:732
7,716853	-1,186840	2,356930	2020-10-29T19:43:10:749
6,783652	-0,935594	2,550749	2020-10-29T19:43:10:771
6,731010	-0,882952	2,100898	2020-10-29T19:43:10:789
7,456036	-1,050449	1,481157	2020-10-29T19:43:10:812
8,149954	-1,287339	0,653241	2020-10-29T19:43:10:830
8,506484	-1,629512	0,387637	2020-10-29T19:43:10:851
8,719445	-2,734996	0,370888	2020-10-29T19:43:10:869
8,798409	-3,029313	0,311067	2020-10-29T19:43:10:892
8,812766	-3,400201	0,318245	2020-10-29T19:43:10:909
8,918050	-4,082155	0,717847	2020-10-29T19:43:10:931
9,262616	-4,484150	1,328017	2020-10-29T19:43:10:949
10,030712	-4,974678	1,875973	2020-10-29T19:43:10:972
10,705488	-5,264209	2,242075	2020-10-29T19:43:10:989
10,535598	-5,474778	1,691726	2020-10-29T19:43:11:011
10,480563	-4,996214	0,837488	2020-10-29T19:43:11:030
11,420943	-4,366901	0,567099	2020-10-29T19:43:11:065
12,294323	-3,199204	0,323031	2020-10-29T19:43:11:075
11,698510	-1,897508	0,512064	2020-10-29T19:43:11:091
11,076375	-0,933201	0,445065	2020-10-29T19:43:11:109
11,162518	-0,789631	0,093320	2020-10-29T19:43:11:132
11,346765	-1,584049	0,251246	2020-10-29T19:43:11:149
11,145767	-2,254039	0,595813	2020-10-29T19:43:11:171
10,595419	-2,545963	0,873380	2020-10-29T19:43:11:189
9,784252	-2,857030	0,634098	2020-10-29T19:43:11:212
9,982857	-3,285345	0,370888	2020-10-29T19:43:11:229
11,131411	-3,237489	-0,224925	2020-10-29T19:43:11:252
12,346965	-3,122634	-0,916451	2020-10-29T19:43:11:269
13,203594	-3,211168	-1,493121	2020-10-29T19:43:11:293
13,933406	-2,732604	-1,691726	2020-10-29T19:43:11:311
13,923835	-2,371287	-1,794617	2020-10-29T19:43:11:333
13,105491	-2,093720	-1,883151	2020-10-29T19:43:11:350
12,279965	-1,411765	-1,942972	2020-10-29T19:43:11:372
11,440084	-0,732204	-2,007578	2020-10-29T19:43:11:389
10,671989	-0,404387	-1,856830	2020-10-29T19:43:11:411
9,980463	-0,344566	-1,636691	2020-10-29T19:43:11:430
9,327222	-0,579063	-1,519442	2020-10-29T19:43:11:453
8,949157	-0,646062	-1,208375	2020-10-29T19:43:11:469
8,951550	-0,880559	-1,000200	2020-10-29T19:43:11:492
8,803195	-1,091127	-0,820738	2020-10-29T19:43:11:509
8,678767	-1,284946	-0,629312	2020-10-29T19:43:11:533
8,446664	-1,586441	-0,488136	2020-10-29T19:43:11:552
8,566305	-1,663012	-0,445065	2020-10-29T19:43:11:572
8,762517	-1,634298	-0,567099	2020-10-29T19:43:11:589
8,834301	-1,509871	-0,631705	2020-10-29T19:43:11:613
9,073583	-1,304088	-0,729811	2020-10-29T19:43:11:630
9,317651	-1,294517	-0,875773	2020-10-29T19:43:11:652
9,516255	-1,249053	-0,878166	2020-10-29T19:43:11:670
10,073784	-1,270589	-1,093520	2020-10-29T19:43:11:693
11,662617	-1,167697	-1,727618	2020-10-29T19:43:11:709
13,069597	-1,277767	-2,538785	2020-10-29T19:43:11:732
12,799208	-1,873580	-2,849852	2020-10-29T19:43:11:750
11,834900	-2,445465	-2,924029	2020-10-29T19:43:11:773
11,373087	-2,888137	-2,715853	2020-10-29T19:43:11:791
11,406586	-3,251846	-2,158326	2020-10-29T19:43:11:812
11,298907	-3,716053	-1,615155	2020-10-29T19:43:11:830
11,038091	-4,072584	-1,083949	2020-10-29T19:43:11:853
10,834702	-4,599005	-0,835095	2020-10-29T19:43:11:870
11,090734	-5,012963	-0,811167	2020-10-29T19:43:11:892
11,253445	-5,395815	-1,038485	2020-10-29T19:43:11:910
11,356337	-5,682954	-1,292124	2020-10-29T19:43:11:933
11,282159	-5,201996	-1,545763	2020-10-29T19:43:11:950
10,616954	-3,909872	-1,624727	2020-10-29T19:43:11:972
9,669396	-2,830709	-1,189233	2020-10-29T19:43:11:990
8,989835	-2,378466	-0,641276	2020-10-29T19:43:12:013
8,513663	-1,998007	-0,220140	2020-10-29T19:43:12:032
8,085347	-1,572084	-0,076570	2020-10-29T19:43:12:052
7,951349	-1,397408	-0,083749	2020-10-29T19:43:12:070
8,415558	-1,342373	-0,023928	2020-10-29T19:43:12:093
9,248260	-1,715654	-0,133998	2020-10-29T19:43:12:110
10,030712	-1,964507	-0,007178	2020-10-29T19:43:12:132
10,262815	-2,148755	0,483350	2020-10-29T19:43:12:152
10,298709	-2,086541	1,076770	2020-10-29T19:43:12:173
10,475778	-1,902294	1,473979	2020-10-29T19:43:12:191
9,908678	-2,129612	1,954936	2020-10-29T19:43:12:212
9,147761	-2,622534	3,268596	2020-10-29T19:43:12:230
9,224331	-2,780460	4,517649	2020-10-29T19:43:12:253
9,858429	-2,684747	5,020142	2020-10-29T19:43:12:272
10,884951	-2,711068	5,922236	2020-10-29T19:43:12:292
12,208181	-5,319244	4,867002	2020-10-29T19:43:12:311
12,849458	-0,658026	2,864209	2020-10-29T19:43:12:334
11,607583	3,885944	1,478764	2020-10-29T19:43:12:350
10,152746	6,319445	1,964507	2020-10-29T19:43:12:372
10,025927	3,672983	1,883151	2020-10-29T19:43:12:390
10,588240	2,467000	2,005185	2020-10-29T19:43:12:413
10,298709	1,651048	2,256432	2020-10-29T19:43:12:430
10,059426	0,349352	2,179861	2020-10-29T19:43:12:453
10,403993	-0,799203	1,852045	2020-10-29T19:43:12:470
10,449455	-1,564906	1,447658	2020-10-29T19:43:12:493
10,403993	-1,921437	1,098306	2020-10-29T19:43:12:511
10,313066	-1,835295	0,772882	2020-10-29T19:43:12:533
10,109675	-1,488336	0,610170	2020-10-29T19:43:12:550
9,990034	-1,124627	0,576670	2020-10-29T19:43:12:573
9,690931	-0,914058	0,626920	2020-10-29T19:43:12:591
9,078369	-1,009771	1,038485	2020-10-29T19:43:12:612
8,513663	-1,002593	1,538585	2020-10-29T19:43:12:632
8,094919	-1,122234	1,923829	2020-10-29T19:43:12:655
7,647461	-1,208375	1,902294	2020-10-29T19:43:12:670
7,223931	-1,062413	1,789831	2020-10-29T19:43:12:693
7,054041	-1,069592	1,667797	2020-10-29T19:43:12:711
7,080362	-1,452443	1,533799	2020-10-29T19:43:12:734
7,441679	-2,009971	1,612763	2020-10-29T19:43:12:752
7,690532	-2,634498	1,753939	2020-10-29T19:43:12:773
8,080563	-3,428915	1,957329	2020-10-29T19:43:12:790
8,492127	-4,163511	2,148755	2020-10-29T19:43:12:813
9,214760	-4,570292	2,285146	2020-10-29T19:43:12:831
9,317651	-4,517649	2,294717	2020-10-29T19:43:12:853
9,422935	-4,070191	2,340181	2020-10-29T19:43:12:871
9,300901	-3,708875	2,105684	2020-10-29T19:43:12:894
9,530612	-3,352344	1,663012	2020-10-29T19:43:12:911
10,171888	-3,220739	1,280160	2020-10-29T19:43:12:934
10,473385	-3,426522	1,186840	2020-10-29T19:43:12:951
10,102496	-3,677768	1,079163	2020-10-29T19:43:12:973
9,269794	-3,704089	0,806381	2020-10-29T19:43:12:992
8,836694	-3,584448	0,605384	2020-10-29T19:43:13:013
8,647661	-3,428915	0,598206	2020-10-29T19:43:13:031
8,693125	-3,440879	0,658026	2020-10-29T19:43:13:055
8,903693	-3,414558	0,531207	2020-10-29T19:43:13:071
9,114261	-3,560520	0,416351	2020-10-29T19:43:13:093
9,719646	-3,814159	0,100499	2020-10-29T19:43:13:111
10,451849	-3,967300	-0,282353	2020-10-29T19:43:13:134
11,207980	-4,108476	-0,698704	2020-10-29T19:43:13:151
11,712867	-4,197011	-0,978664	2020-10-29T19:43:13:173
11,772687	-4,134798	-1,170090	2020-10-29T19:43:13:191
11,306087	-3,948158	-1,019342	2020-10-29T19:43:13:214
10,561919	-3,833302	-0,727418	2020-10-29T19:43:13:234
10,071390	-3,515057	-0,612563	2020-10-29T19:43:13:253
9,556933	-3,249453	-0,528814	2020-10-29T19:43:13:271
9,219545	-3,180061	-0,406780	2020-10-29T19:43:13:294
9,131011	-3,266203	-0,521635	2020-10-29T19:43:13:312
9,164511	-3,416951	-0,662812	2020-10-29T19:43:13:333
9,020942	-3,457629	-0,885344	2020-10-29T19:43:13:351
8,925228	-3,457629	-0,612563	2020-10-29T19:43:13:374
8,975478	-3,390630	-0,626920	2020-10-29T19:43:13:391
9,080762	-3,306881	-0,677169	2020-10-29T19:43:13:413
9,181261	-3,328416	-0,866202	2020-10-29T19:43:13:432
9,432507	-3,416951	-0,926022	2020-10-29T19:43:13:454
9,559326	-3,577270	-0,777667	2020-10-29T19:43:13:472
9,671788	-3,517449	-0,413958	2020-10-29T19:43:13:493
10,076177	-3,302095	-0,177069	2020-10-29T19:43:13:511
10,633704	-2,751746	-0,272782	2020-10-29T19:43:13:534
10,798808	-2,342573	-0,713061	2020-10-29T19:43:13:552
10,329816	-2,347359	-0,227318	2020-10-29T19:43:13:574
9,951750	-2,359323	0,248854	2020-10-29T19:43:13:591
9,726824	-2,450250	0,662812	2020-10-29T19:43:13:615
9,939785	-2,464607	1,036092	2020-10-29T19:43:13:632
10,028319	-2,443072	1,328017	2020-10-29T19:43:13:654
10,018748	-2,301895	1,380659	2020-10-29T19:43:13:672
10,301102	-2,560320	0,768096	2020-10-29T19:43:13:694
11,167303	-2,926422	-0,567099	2020-10-29T19:43:13:714
12,775280	-2,940779	-2,256432	2020-10-29T19:43:13:734
13,129417	-3,165704	-2,608176	2020-10-29T19:43:13:752
11,519048	-3,610770	-1,773082	2020-10-29T19:43:13:775
10,473385	-4,244867	-1,024128	2020-10-29T19:43:13:792
9,958927	-4,723432	-0,545564	2020-10-29T19:43:13:815
9,119047	-4,764110	-0,117248	2020-10-29T19:43:13:833
8,159525	-4,807181	0,215354	2020-10-29T19:43:13:855
7,350751	-4,575077	0,358923	2020-10-29T19:43:13:872
7,204789	-4,031906	0,064606	2020-10-29T19:43:13:894
7,599605	-3,326023	-0,057428	2020-10-29T19:43:13:913
8,487342	-2,237289	-0,574277	2020-10-29T19:43:13:935
8,930015	-1,698904	-0,629312	2020-10-29T19:43:13:954
9,652647	-1,607977	-0,727418	2020-10-29T19:43:13:974
10,269995	-2,060220	-0,660419	2020-10-29T19:43:13:993
10,516455	-2,419144	-0,327817	2020-10-29T19:43:14:015
10,272388	-2,452643	0,035892	2020-10-29T19:43:14:033
10,336994	-2,605784	0,291924	2020-10-29T19:43:14:054
10,174281	-2,727818	0,684347	2020-10-29T19:43:14:073
10,028319	-2,711068	1,347159	2020-10-29T19:43:14:095
9,604790	-1,464408	1,529014	2020-10-29T19:43:14:113
9,525827	-0,693919	1,818545	2020-10-29T19:43:14:135
9,279366	-1,916651	1,737189	2020-10-29T19:43:14:153
8,810372	-0,220140	1,612763	2020-10-29T19:43:14:175
8,195417	-0,267996	1,818545	2020-10-29T19:43:14:194
8,049455	-1,478764	1,722832	2020-10-29T19:43:14:213
7,958528	-2,419144	1,225125	2020-10-29T19:43:14:232
8,549555	-3,797409	0,792024	2020-10-29T19:43:14:255
9,707682	-4,201797	0,210568	2020-10-29T19:43:14:273
10,356135	-4,510471	0,074178	2020-10-29T19:43:14:294
10,059426	-5,276174	-0,524028	2020-10-29T19:43:14:312
10,250853	-5,154140	-1,093520	2020-10-29T19:43:14:335
11,241481	-5,335995	-1,653440	2020-10-29T19:43:14:353
11,743973	-5,398208	-1,459622	2020-10-29T19:43:14:374
11,002198	-4,823930	-1,454836	2020-10-29T19:43:14:393
11,294124	-4,400401	-2,294717	2020-10-29T19:43:14:415
12,418750	-4,584648	-3,105884	2020-10-29T19:43:14:435
12,507284	-5,010571	-3,263810	2020-10-29T19:43:14:455
11,109876	-4,711468	-3,615555	2020-10-29T19:43:14:472
9,320045	-4,429115	-3,795017	2020-10-29T19:43:14:495
7,910671	-4,168297	-3,457629	2020-10-29T19:43:14:512
7,645068	-4,934000	-3,969693	2020-10-29T19:43:14:534
7,970492	-3,493521	-4,730610	2020-10-29T19:43:14:553
8,874979	-2,146362	-4,402793	2020-10-29T19:43:14:575
9,030513	-2,600998	-4,235296	2020-10-29T19:43:14:592
8,822337	-2,340181	-3,316452	2020-10-29T19:43:14:614
8,910872	-3,567699	-2,854637	2020-10-29T19:43:14:633
9,217153	-4,297509	-2,632105	2020-10-29T19:43:14:656
9,695717	-4,469792	-2,423929	2020-10-29T19:43:14:674
9,829715	-4,366901	-2,467000	2020-10-29T19:43:14:694
9,829715	-4,110869	-2,261217	2020-10-29T19:43:14:712
9,604790	-3,751946	-1,864009	2020-10-29T19:43:14:736
9,209974	-3,443272	-1,572084	2020-10-29T19:43:14:753
8,836694	-2,742175	-1,636691	2020-10-29T19:43:14:775
8,348558	-2,514857	-1,160519	2020-10-29T19:43:14:799
7,977671	-3,218346	-0,167498	2020-10-29T19:43:14:816
8,042276	-3,893122	0,495314	2020-10-29T19:43:14:833
8,262416	-4,024727	0,531207	2020-10-29T19:43:14:857
8,700303	-3,866802	0,490529	2020-10-29T19:43:14:873
9,205189	-3,541377	0,358923	2020-10-29T19:43:14:897
9,698111	-3,270989	0,291924	2020-10-29T19:43:14:916
10,159925	-3,187240	-0,126820	2020-10-29T19:43:14:935
10,547562	-2,979064	-0,442672	2020-10-29T19:43:14:953
11,107484	-2,579463	-0,949951	2020-10-29T19:43:14:976
12,753745	-2,165504	-1,414158	2020-10-29T19:43:14:993
14,699109	-2,002793	-1,464408	2020-10-29T19:43:15:016
13,607983	-2,751746	0,203390	2020-10-29T19:43:15:033
11,028521	-2,979064	1,509871	2020-10-29T19:43:15:056
8,248059	-2,565106	2,091327	2020-10-29T19:43:15:073
6,192625	-1,639083	2,268396	2020-10-29T19:43:15:095
5,479564	-1,143769	1,799403	2020-10-29T19:43:15:113
6,793223	-1,071985	0,753739	2020-10-29T19:43:15:136
8,815158	-1,304088	-0,301496	2020-10-29T19:43:15:156
9,856036	-1,746760	-1,043271	2020-10-29T19:43:15:174
10,135997	-2,428715	-1,471586	2020-10-29T19:43:15:193
10,001998	-3,424129	-1,280160	2020-10-29T19:43:15:216
9,533006	-4,156333	-1,052842	2020-10-29T19:43:15:233
9,678967	-4,625326	-0,906880	2020-10-29T19:43:15:255
9,738789	-5,106283	-0,308674	2020-10-29T19:43:15:273
9,169296	-5,266603	0,808774	2020-10-29T19:43:15:296
8,394022	-4,855037	1,186840	2020-10-29T19:43:15:313
8,049455	-4,479364	1,141376	2020-10-29T19:43:15:335
8,271988	-4,577469	1,210768	2020-10-29T19:43:15:353
8,492127	-4,905287	1,574477	2020-10-29T19:43:15:375
8,523234	-5,441278	1,744368	2020-10-29T19:43:15:394
8,518449	-5,553742	1,548156	2020-10-29T19:43:15:416
8,561519	-5,225924	1,292124	2020-10-29T19:43:15:433
8,561519	-4,551149	0,935594	2020-10-29T19:43:15:456
8,812766	-3,969693	0,875773	2020-10-29T19:43:15:473
9,257831	-3,598805	0,914058	2020-10-29T19:43:15:495
10,025927	-3,110669	1,292124	2020-10-29T19:43:15:513
10,916058	-2,065006	0,509671	2020-10-29T19:43:15:536
11,038091	-1,442872	-0,339781	2020-10-29T19:43:15:553
10,707881	-1,923829	-0,818345	2020-10-29T19:43:15:575
12,330215	-2,091327	-1,775474	2020-10-29T19:43:15:593
14,897714	-3,457629	-1,940579	2020-10-29T19:43:15:616
14,361722	-4,788038	-1,600798	2020-10-29T19:43:15:636
12,114861	-4,811966	-1,517050	2020-10-29T19:43:15:655
10,547562	-4,484150	-1,517050	2020-10-29T19:43:15:673
8,796017	-4,307081	-1,414158	2020-10-29T19:43:15:696
7,879565	-4,201797	-1,787439	2020-10-29T19:43:15:713
9,281759	-3,254239	-1,976472	2020-10-29T19:43:15:736
11,825329	-3,081956	-2,792424	2020-10-29T19:43:15:753
13,021741	-2,656033	-2,225325	2020-10-29T19:43:15:776
12,885350	-2,816352	-1,842474	2020-10-29T19:43:15:793
12,100503	-2,467000	-2,622534	2020-10-29T19:43:15:815
11,404193	-1,761117	-3,084348	2020-10-29T19:43:15:834
10,655239	-1,220340	-3,096312	2020-10-29T19:43:15:856
9,968499	-1,182054	-2,407180	2020-10-29T19:43:15:876
9,044869	-1,330409	-1,296910	2020-10-29T19:43:15:895
8,185846	-1,514657	-0,148355	2020-10-29T19:43:15:913
7,422535	-1,837688	0,739382	2020-10-29T19:43:15:938
7,176075	-2,081756	1,124627	2020-10-29T19:43:15:954
7,326823	-2,268396	1,576870	2020-10-29T19:43:15:976
7,601997	-2,438286	1,722832	2020-10-29T19:43:15:994
7,726424	-2,440679	1,962115	2020-10-29T19:43:16:016
8,245667	-2,074577	1,919044	2020-10-29T19:43:16:034
8,903693	-1,277767	0,930808	2020-10-29T19:43:16:056
9,645468	0,143569	0,480957	2020-10-29T19:43:16:074
10,767702	1,189233	0,428315	2020-10-29T19:43:16:096
12,205789	1,349552	-0,349352	2020-10-29T19:43:16:115
14,775680	0,466600	-1,464408	2020-10-29T19:43:16:136
15,340386	-0,983450	-1,359123	2020-10-29T19:43:16:154
16,505690	-2,438286	-0,997807	2020-10-29T19:43:16:177
16,910078	-3,692125	0,277567	2020-10-29T19:43:16:194
15,273388	-4,560720	1,959722	2020-10-29T19:43:16:216
13,081561	-4,426722	2,565106	2020-10-29T19:43:16:234
10,987842	-3,192025	2,103291	2020-10-29T19:43:16:257
9,224331	-1,677369	1,258625	2020-10-29T19:43:16:274
8,090133	-0,346959	0,323031	2020-10-29T19:43:16:296
8,367701	0,294317	-0,614955	2020-10-29T19:43:16:314
9,370294	0,339781	-1,435694	2020-10-29T19:43:16:337
9,772287	-0,416351	-1,868794	2020-10-29T19:43:16:357
9,399008	-0,923629	-2,100898	2020-10-29T19:43:16:377
9,308081	-1,313660	-1,966900	2020-10-29T19:43:16:393
9,233903	-1,684547	-1,799403	2020-10-29T19:43:16:417
9,379865	-2,297110	-1,610370	2020-10-29T19:43:16:434
8,800802	-2,732604	-1,272982	2020-10-29T19:43:16:456
7,989635	-2,976671	-0,959522	2020-10-29T19:43:16:474
7,401000	-3,079563	-0,485743	2020-10-29T19:43:16:497
6,893722	-3,125026	0,090927	2020-10-29T19:43:16:514
6,549156	-3,115455	0,500100	2020-10-29T19:43:16:536
6,319445	-2,694318	0,911665	2020-10-29T19:43:16:554
6,123233	-2,433501	1,249053	2020-10-29T19:43:16:577
6,020342	-2,256432	1,557728	2020-10-29T19:43:16:595
6,233303	-2,239682	1,761117	2020-10-29T19:43:16:616
6,886543	-2,287539	1,988436	2020-10-29T19:43:16:635
