x	y	z	ts
-0,358917	1,820741	9,629458	2020-10-29T19:41:47:106
-0,320932	1,974471	9,600461	2020-10-29T19:41:47:153
-0,307369	1,927202	9,610505	2020-10-29T19:41:47:157
-0,284921	1,848138	9,626712	2020-10-29T19:41:47:169
-0,274376	1,810650	9,634140	2020-10-29T19:41:47:170
-0,266378	1,782073	9,639691	2020-10-29T19:41:47:170
-0,250286	1,722962	9,650863	2020-10-29T19:41:47:170
-0,180779	1,385121	9,706655	2020-10-29T19:41:47:186
-0,108255	1,070998	9,747391	2020-10-29T19:41:47:206
-0,005705	0,716293	9,780454	2020-10-29T19:41:47:226
0,097921	0,301258	9,801533	2020-10-29T19:41:47:246
0,182072	-0,107331	9,804372	2020-10-29T19:41:47:267
0,252401	-0,349938	9,797153	2020-10-29T19:41:47:286
0,355153	-0,939451	9,755085	2020-10-29T19:41:47:307
0,438322	-1,460000	9,687449	2020-10-29T19:41:47:326
0,502608	-2,496218	9,470304	2020-10-29T19:41:47:346
0,519577	-3,577517	9,116018	2020-10-29T19:41:47:366
0,559609	4,382459	8,755072	2020-10-29T19:41:47:386
0,737926	3,605325	9,089966	2020-10-29T19:41:47:406
2,273277	7,968313	5,244863	2020-10-29T19:41:47:426
2,594401	7,054553	6,298631	2020-10-29T19:41:47:446
2,896763	6,324967	6,911870	2020-10-29T19:41:47:466
3,213479	5,799574	7,225571	2020-10-29T19:41:47:486
3,566964	5,362234	7,395512	2020-10-29T19:41:47:508
3,845265	5,052257	7,473889	2020-10-29T19:41:47:526
4,155964	4,739551	7,512323	2020-10-29T19:41:47:548
4,398346	4,715090	7,388699	2020-10-29T19:41:47:566
4,656456	4,659834	7,264554	2020-10-29T19:41:47:587
4,930931	4,409620	7,239583	2020-10-29T19:41:47:607
5,224554	4,164472	7,178551	2020-10-29T19:41:47:628
5,465635	3,950525	7,119731	2020-10-29T19:41:47:646
5,748930	3,726850	7,016465	2020-10-29T19:41:47:668
5,982865	3,529391	6,922363	2020-10-29T19:41:47:686
6,227849	3,277172	6,829672	2020-10-29T19:41:47:708
6,404355	3,067331	6,763587	2020-10-29T19:41:47:726
6,585472	2,803311	6,703983	2020-10-29T19:41:47:748
6,742315	2,581394	6,636865	2020-10-29T19:41:47:767
6,901716	2,376621	6,548922	2020-10-29T19:41:47:788
7,046784	2,179834	6,462317	2020-10-29T19:41:47:807
7,198834	1,951502	6,367010	2020-10-29T19:41:47:827
7,336013	1,730362	6,273686	2020-10-29T19:41:47:847
7,470581	1,529870	6,166060	2020-10-29T19:41:47:868
7,578506	1,375742	6,069922	2020-10-29T19:41:47:886
7,678284	1,196599	5,981847	2020-10-29T19:41:47:908
7,735740	1,127354	5,920961	2020-10-29T19:41:47:927
7,795124	1,052718	5,856467	2020-10-29T19:41:47:947
7,847336	0,997626	5,796072	2020-10-29T19:41:47:967
7,897017	0,934708	5,738801	2020-10-29T19:41:47:987
7,936865	0,864022	5,694736	2020-10-29T19:41:48:006
7,968303	0,789648	5,661535	2020-10-29T19:41:48:028
7,989273	0,704461	5,643194	2020-10-29T19:41:48:047
8,000487	0,607680	5,638555	2020-10-29T19:41:48:067
8,005660	0,512963	5,640626	2020-10-29T19:41:48:087
8,002652	0,403750	5,653753	2020-10-29T19:41:48:107
7,998514	0,220944	5,669686	2020-10-29T19:41:48:127
7,938803	-0,105641	5,756269	2020-10-29T19:41:48:148
7,909187	-0,205562	5,794211	2020-10-29T19:41:48:169
7,834400	-0,410127	5,884246	2020-10-29T19:41:48:187
7,735818	-0,617023	5,995564	2020-10-29T19:41:48:208
7,637609	-0,810554	6,097566	2020-10-29T19:41:48:227
7,548200	-0,957098	6,187005	2020-10-29T19:41:48:248
7,429974	-1,151169	6,296084	2020-10-29T19:41:48:268
7,318361	-1,334060	6,390012	2020-10-29T19:41:48:288
7,184943	-1,550914	6,491659	2020-10-29T19:41:48:307
7,057799	-1,766423	6,575531	2020-10-29T19:41:48:332
6,892188	-2,033701	6,673244	2020-10-29T19:41:48:350
6,843556	-2,110429	6,699419	2020-10-29T19:41:48:370
6,740782	-2,275917	6,749255	2020-10-29T19:41:48:389
6,648842	-2,440315	6,782930	2020-10-29T19:41:48:411
6,561485	-2,604259	6,806991	2020-10-29T19:41:48:429
6,476908	-2,740966	6,834263	2020-10-29T19:41:48:450
6,380342	-2,846919	6,881618	2020-10-29T19:41:48:470
6,288537	-2,931642	6,930380	2020-10-29T19:41:48:490
6,199578	-3,014945	6,974648	2020-10-29T19:41:48:510
6,113163	-3,083940	7,020608	2020-10-29T19:41:48:530
6,026249	-3,140888	7,070327	2020-10-29T19:41:48:551
5,955842	-3,162254	7,120286	2020-10-29T19:41:48:571
5,891243	-3,186652	7,163022	2020-10-29T19:41:48:589
5,819150	-3,218057	7,207773	2020-10-29T19:41:48:611
5,747704	-3,247796	7,251627	2020-10-29T19:41:48:629
5,672628	-3,285425	7,293672	2020-10-29T19:41:48:651
5,611674	-3,315708	7,327044	2020-10-29T19:41:48:670
5,590608	-3,284319	7,357224	2020-10-29T19:41:48:690
5,546910	-3,324252	7,372348	2020-10-29T19:41:48:710
5,501636	-3,366206	7,387222	2020-10-29T19:41:48:730
5,453981	-3,396509	7,408657	2020-10-29T19:41:48:750
5,409951	-3,421808	7,429269	2020-10-29T19:41:48:771
5,366867	-3,463203	7,441328	2020-10-29T19:41:48:790
5,352905	-3,465616	7,450255	2020-10-29T19:41:48:811
5,313620	-3,537540	7,444571	2020-10-29T19:41:48:830
5,279655	-3,540977	7,467068	2020-10-29T19:41:48:850
5,240259	-3,560866	7,485339	2020-10-29T19:41:48:870
5,210546	-3,568689	7,502336	2020-10-29T19:41:48:891
5,187009	-3,587756	7,509549	2020-10-29T19:41:48:910
5,163113	-3,606808	7,516886	2020-10-29T19:41:48:931
5,143363	-3,610451	7,528668	2020-10-29T19:41:48:950
5,127687	-3,596727	7,545911	2020-10-29T19:41:48:971
5,114813	-3,594965	7,555481	2020-10-29T19:41:48:991
5,093789	-3,598733	7,567881	2020-10-29T19:41:49:011
5,081256	-3,590059	7,580415	2020-10-29T19:41:49:030
5,075305	-3,581531	7,588432	2020-10-29T19:41:49:051
5,062024	-3,565565	7,604804	2020-10-29T19:41:49:070
5,050885	-3,553564	7,617816	2020-10-29T19:41:49:091
5,039578	-3,537436	7,632797	2020-10-29T19:41:49:111
5,031822	-3,521442	7,645299	2020-10-29T19:41:49:131
5,029924	-3,497706	7,657434	2020-10-29T19:41:49:150
5,027607	-3,473116	7,670138	2020-10-29T19:41:49:171
5,021221	-3,448303	7,685501	2020-10-29T19:41:49:190
5,011113	-3,429862	7,700336	2020-10-29T19:41:49:211
4,991467	-3,421019	7,717012	2020-10-29T19:41:49:231
4,968631	-3,405414	7,738620	2020-10-29T19:41:49:251
4,956304	-3,397494	7,749999	2020-10-29T19:41:49:270
4,929835	-3,382554	7,773380	2020-10-29T19:41:49:292
4,918345	-3,380604	7,781502	2020-10-29T19:41:49:311
4,892543	-3,376918	7,799348	2020-10-29T19:41:49:331
4,870985	-3,373686	7,814226	2020-10-29T19:41:49:351
4,869321	-3,386662	7,809649	2020-10-29T19:41:49:371
4,861589	-3,415354	7,801967	2020-10-29T19:41:49:390
4,886137	-3,486428	7,755054	2020-10-29T19:41:49:412
4,906334	-3,555017	7,711039	2020-10-29T19:41:49:430
4,920945	-3,611652	7,675327	2020-10-29T19:41:49:451
4,938444	-3,608904	7,665375	2020-10-29T19:41:49:472
4,964885	-3,576068	7,663683	2020-10-29T19:41:49:491
4,976957	-3,556070	7,665158	2020-10-29T19:41:49:512
4,981246	-3,568725	7,656486	2020-10-29T19:41:49:537
4,970113	-3,574780	7,660895	2020-10-29T19:41:49:555
4,963592	-3,565762	7,669321	2020-10-29T19:41:49:571
4,976770	-3,570024	7,658790	2020-10-29T19:41:49:590
4,972573	-3,570804	7,661152	2020-10-29T19:41:49:612
4,972020	-3,567914	7,662858	2020-10-29T19:41:49:630
4,973772	-3,565625	7,662786	2020-10-29T19:41:49:652
4,978474	-3,581516	7,652316	2020-10-29T19:41:49:671
4,998262	-3,578064	7,641022	2020-10-29T19:41:49:692
5,019644	-3,576972	7,627505	2020-10-29T19:41:49:712
5,034038	-3,598930	7,607664	2020-10-29T19:41:49:732
5,044786	-3,620340	7,590366	2020-10-29T19:41:49:750
5,051714	-3,640995	7,575864	2020-10-29T19:41:49:772
5,058056	-3,651184	7,566724	2020-10-29T19:41:49:791
5,061445	-3,658526	7,560909	2020-10-29T19:41:49:812
5,063957	-3,643685	7,566391	2020-10-29T19:41:49:831
5,063531	-3,602480	7,586381	2020-10-29T19:41:49:852
5,065043	-3,554825	7,607821	2020-10-29T19:41:49:871
5,075707	-3,514691	7,619352	2020-10-29T19:41:49:892
5,088514	-3,499059	7,618005	2020-10-29T19:41:49:911
5,100096	-3,487556	7,615534	2020-10-29T19:41:49:932
5,112226	-3,487492	7,607426	2020-10-29T19:41:49:952
5,118747	-3,490314	7,601744	2020-10-29T19:41:49:972
5,126987	-3,489773	7,596438	2020-10-29T19:41:49:990
5,123061	-3,502321	7,593311	2020-10-29T19:41:50:012
5,113182	-3,537918	7,583462	2020-10-29T19:41:50:031
5,092214	-3,555725	7,589240	2020-10-29T19:41:50:052
5,066123	-3,563773	7,602914	2020-10-29T19:41:50:071
5,038207	-3,560116	7,623151	2020-10-29T19:41:50:092
5,021598	-3,568630	7,630126	2020-10-29T19:41:50:111
5,003218	-3,572894	7,640198	2020-10-29T19:41:50:132
4,992470	-3,547868	7,658868	2020-10-29T19:41:50:151
4,981901	-3,539490	7,669619	2020-10-29T19:41:50:173
4,968216	-3,517579	7,688553	2020-10-29T19:41:50:192
4,950763	-3,479934	7,716890	2020-10-29T19:41:50:213
4,921526	-3,456890	7,745894	2020-10-29T19:41:50:231
4,879983	-3,428468	7,784712	2020-10-29T19:41:50:253
4,841482	-3,384097	7,828047	2020-10-29T19:41:50:272
4,811983	-3,323600	7,872032	2020-10-29T19:41:50:292
4,784387	-3,263827	7,913751	2020-10-29T19:41:50:311
4,764119	-3,223833	7,942321	2020-10-29T19:41:50:334
4,755908	-3,185758	7,962579	2020-10-29T19:41:50:351
4,749427	-3,137746	7,985479	2020-10-29T19:41:50:373
4,746993	-3,110708	7,997496	2020-10-29T19:41:50:391
4,743313	-3,089847	8,007759	2020-10-29T19:41:50:413
4,732310	-3,072522	8,020925	2020-10-29T19:41:50:433
4,724092	-3,038382	8,038754	2020-10-29T19:41:50:453
4,717528	-3,004572	8,055300	2020-10-29T19:41:50:471
4,728923	-2,945884	8,070281	2020-10-29T19:41:50:493
4,762321	-2,890814	8,070556	2020-10-29T19:41:50:511
4,818172	-2,833666	8,057663	2020-10-29T19:41:50:533
4,886061	-2,841741	8,013820	2020-10-29T19:41:50:551
4,950256	-2,853472	7,970135	2020-10-29T19:41:50:573
4,994247	-2,873078	7,935572	2020-10-29T19:41:50:591
5,025022	-2,876151	7,915004	2020-10-29T19:41:50:613
5,046519	-2,898284	7,893223	2020-10-29T19:41:50:631
5,067577	-2,918972	7,872080	2020-10-29T19:41:50:653
5,088744	-2,948469	7,847394	2020-10-29T19:41:50:674
5,107790	-2,976255	7,824498	2020-10-29T19:41:50:693
5,124672	-2,990759	7,807911	2020-10-29T19:41:50:711
5,141727	-2,997208	7,794214	2020-10-29T19:41:50:733
5,161385	-3,007218	7,777348	2020-10-29T19:41:50:751
5,173637	-3,018717	7,764741	2020-10-29T19:41:50:774
5,192157	-3,035603	7,745773	2020-10-29T19:41:50:791
5,211492	-3,054165	7,725465	2020-10-29T19:41:50:813
5,229253	-3,077830	7,704042	2020-10-29T19:41:50:831
5,237461	-3,098900	7,690007	2020-10-29T19:41:50:853
5,246121	-3,104951	7,681659	2020-10-29T19:41:50:872
5,254121	-3,141600	7,661263	2020-10-29T19:41:50:893
5,264741	-3,175795	7,639843	2020-10-29T19:41:50:913
5,289132	-3,233466	7,598695	2020-10-29T19:41:50:934
5,298073	-3,247314	7,586551	2020-10-29T19:41:50:951
5,321859	-3,265327	7,562132	2020-10-29T19:41:50:974
5,356322	-3,294859	7,524899	2020-10-29T19:41:50:992
5,385736	-3,327961	7,489253	2020-10-29T19:41:51:013
5,405668	-3,330418	7,473784	2020-10-29T19:41:51:032
5,428280	-3,316505	7,463575	2020-10-29T19:41:51:054
5,447098	-3,307805	7,453720	2020-10-29T19:41:51:072
5,467083	-3,316666	7,435128	2020-10-29T19:41:51:093
5,482217	-3,312570	7,425804	2020-10-29T19:41:51:112
5,496810	-3,305357	7,418226	2020-10-29T19:41:51:134
5,512698	-3,299872	7,408873	2020-10-29T19:41:51:154
5,517508	-3,301505	7,404563	2020-10-29T19:41:51:174
5,523045	-3,319791	7,392249	2020-10-29T19:41:51:192
5,522632	-3,329093	7,388373	2020-10-29T19:41:51:214
5,514370	-3,329779	7,394233	2020-10-29T19:41:51:232
5,508450	-3,334642	7,396454	2020-10-29T19:41:51:254
5,501020	-3,349826	7,395122	2020-10-29T19:41:51:272
5,483667	-3,374528	7,396779	2020-10-29T19:41:51:294
5,462840	-3,382178	7,408686	2020-10-29T19:41:51:312
5,445277	-3,383326	7,421082	2020-10-29T19:41:51:334
5,429046	-3,387782	7,430934	2020-10-29T19:41:51:352
5,406760	-3,383043	7,449319	2020-10-29T19:41:51:374
5,383632	-3,378085	7,468295	2020-10-29T19:41:51:393
5,356353	-3,364583	7,493961	2020-10-29T19:41:51:414
5,334686	-3,351729	7,515146	2020-10-29T19:41:51:432
5,313479	-3,346543	7,532461	2020-10-29T19:41:51:454
5,286748	-3,347668	7,550748	2020-10-29T19:41:51:473
5,261820	-3,346516	7,568650	2020-10-29T19:41:51:494
5,238558	-3,332886	7,590768	2020-10-29T19:41:51:513
5,218969	-3,325737	7,607379	2020-10-29T19:41:51:534
5,203811	-3,322088	7,619349	2020-10-29T19:41:51:552
5,189672	-3,319992	7,629898	2020-10-29T19:41:51:575
5,171236	-3,323331	7,640954	2020-10-29T19:41:51:592
5,152213	-3,319634	7,655397	2020-10-29T19:41:51:615
5,137059	-3,317337	7,666570	2020-10-29T19:41:51:633
5,115212	-3,331636	7,674972	2020-10-29T19:41:51:656
5,108332	-3,331790	7,679486	2020-10-29T19:41:51:672
5,093681	-3,332036	7,689105	2020-10-29T19:41:51:694
5,077098	-3,339346	7,696898	2020-10-29T19:41:51:713
5,060399	-3,337574	7,708654	2020-10-29T19:41:51:734
5,041668	-3,336310	7,721464	2020-10-29T19:41:51:752
5,016651	-3,326724	7,741867	2020-10-29T19:41:51:775
4,990743	-3,311378	7,765155	2020-10-29T19:41:51:792
4,960793	-3,299942	7,789178	2020-10-29T19:41:51:815
4,923527	-3,289334	7,817260	2020-10-29T19:41:51:833
4,914399	-3,289870	7,822775	2020-10-29T19:41:51:855
4,901587	-3,288128	7,831542	2020-10-29T19:41:51:874
4,891335	-3,284692	7,839389	2020-10-29T19:41:51:895
4,886884	-3,279535	7,844323	2020-10-29T19:41:51:914
4,887872	-3,281328	7,842957	2020-10-29T19:41:51:935
4,892464	-3,285062	7,838530	2020-10-29T19:41:51:953
4,901110	-3,287051	7,832292	2020-10-29T19:41:51:975
4,911371	-3,285382	7,826563	2020-10-29T19:41:51:994
4,918579	-3,288079	7,820902	2020-10-29T19:41:52:017
4,924037	-3,289284	7,816959	2020-10-29T19:41:52:033
4,936751	-3,291024	7,808203	2020-10-29T19:41:52:056
4,947782	-3,294482	7,799758	2020-10-29T19:41:52:073
4,958705	-3,305263	7,788252	2020-10-29T19:41:52:096
4,966808	-3,309736	7,781186	2020-10-29T19:41:52:114
4,974647	-3,323145	7,770455	2020-10-29T19:41:52:136
4,980899	-3,333333	7,762082	2020-10-29T19:41:52:153
4,984197	-3,339193	7,757445	2020-10-29T19:41:52:175
4,990892	-3,344566	7,750823	2020-10-29T19:41:52:193
4,997776	-3,356592	7,741183	2020-10-29T19:41:52:215
5,004355	-3,365832	7,732916	2020-10-29T19:41:52:233
5,009849	-3,376057	7,724897	2020-10-29T19:41:52:255
5,014959	-3,389573	7,715657	2020-10-29T19:41:52:273
5,022497	-3,404598	7,704131	2020-10-29T19:41:52:295
5,025298	-3,420143	7,695414	2020-10-29T19:41:52:313
5,025674	-3,428907	7,691266	2020-10-29T19:41:52:335
5,023393	-3,443616	7,686183	2020-10-29T19:41:52:354
5,020528	-3,453009	7,683841	2020-10-29T19:41:52:375
5,016223	-3,456915	7,684896	2020-10-29T19:41:52:393
5,015007	-3,465932	7,681627	2020-10-29T19:41:52:415
5,017454	-3,472805	7,676925	2020-10-29T19:41:52:433
5,023635	-3,477315	7,670838	2020-10-29T19:41:52:455
5,028318	-3,481448	7,665893	2020-10-29T19:41:52:473
5,031360	-3,484625	7,662454	2020-10-29T19:41:52:495
5,036579	-3,484775	7,658955	2020-10-29T19:41:52:514
5,041933	-3,488970	7,653521	2020-10-29T19:41:52:535
5,046958	-3,491488	7,649059	2020-10-29T19:41:52:553
5,048289	-3,490216	7,648762	2020-10-29T19:41:52:575
5,047544	-3,487739	7,650383	2020-10-29T19:41:52:594
5,047797	-3,478755	7,654306	2020-10-29T19:41:52:616
5,049622	-3,467178	7,658353	2020-10-29T19:41:52:633
5,050178	-3,459553	7,661434	2020-10-29T19:41:52:655
5,057371	-3,449230	7,661344	2020-10-29T19:41:52:674
5,063530	-3,440251	7,661313	2020-10-29T19:41:52:695
5,074439	-3,436435	7,655806	2020-10-29T19:41:52:714
5,086252	-3,429111	7,651250	2020-10-29T19:41:52:736
5,095765	-3,429290	7,644837	2020-10-29T19:41:52:753
5,107449	-3,423515	7,639627	2020-10-29T19:41:52:776
5,119483	-3,424403	7,631169	2020-10-29T19:41:52:793
5,130203	-3,429725	7,621573	2020-10-29T19:41:52:816
5,140184	-3,436276	7,611892	2020-10-29T19:41:52:836
5,149659	-3,440610	7,603526	2020-10-29T19:41:52:855
5,157249	-3,445019	7,596381	2020-10-29T19:41:52:874
5,167554	-3,455160	7,584764	2020-10-29T19:41:52:897
5,176444	-3,460476	7,576273	2020-10-29T19:41:52:914
5,178393	-3,467121	7,571902	2020-10-29T19:41:52:936
5,179278	-3,470858	7,569584	2020-10-29T19:41:52:954
5,180020	-3,478221	7,565696	2020-10-29T19:41:52:978
5,180849	-3,481608	7,563570	2020-10-29T19:41:52:994
5,183171	-3,487279	7,559366	2020-10-29T19:41:53:016
5,183932	-3,495375	7,555103	2020-10-29T19:41:53:034
5,184915	-3,498952	7,552773	2020-10-29T19:41:53:056
5,184412	-3,499394	7,552913	2020-10-29T19:41:53:075
5,183691	-3,498382	7,553877	2020-10-29T19:41:53:096
5,184577	-3,499226	7,552878	2020-10-29T19:41:53:114
5,181992	-3,498392	7,555038	2020-10-29T19:41:53:136
5,181152	-3,501056	7,554380	2020-10-29T19:41:53:154
5,181840	-3,504288	7,552409	2020-10-29T19:41:53:176
5,183106	-3,508414	7,549624	2020-10-29T19:41:53:194
5,188056	-3,511005	7,545019	2020-10-29T19:41:53:216
5,191979	-3,513814	7,541011	2020-10-29T19:41:53:234
5,194237	-3,519497	7,536805	2020-10-29T19:41:53:257
5,193837	-3,517962	7,537797	2020-10-29T19:41:53:274
5,191787	-3,524783	7,536022	2020-10-29T19:41:53:296
5,192513	-3,525748	7,535071	2020-10-29T19:41:53:315
5,192846	-3,528228	7,533680	2020-10-29T19:41:53:337
5,191369	-3,531023	7,533389	2020-10-29T19:41:53:354
5,191904	-3,531629	7,532736	2020-10-29T19:41:53:376
5,193763	-3,532102	7,531233	2020-10-29T19:41:53:394
5,193619	-3,532478	7,531156	2020-10-29T19:41:53:417
5,192940	-3,532766	7,531488	2020-10-29T19:41:53:434
5,195493	-3,531280	7,530425	2020-10-29T19:41:53:456
5,194458	-3,533564	7,530067	2020-10-29T19:41:53:474
5,192533	-3,533794	7,531288	2020-10-29T19:41:53:497
5,190977	-3,534729	7,531921	2020-10-29T19:41:53:514
5,186855	-3,531127	7,536448	2020-10-29T19:41:53:536
5,182361	-3,532233	7,539021	2020-10-29T19:41:53:555
5,180800	-3,534153	7,539195	2020-10-29T19:41:53:577
5,179249	-3,536179	7,539311	2020-10-29T19:41:53:594
5,178636	-3,538951	7,538431	2020-10-29T19:41:53:617
5,176832	-3,539628	7,539352	2020-10-29T19:41:53:634
5,171224	-3,545747	7,540325	2020-10-29T19:41:53:657
5,163312	-3,554267	7,541736	2020-10-29T19:41:53:676
5,161428	-3,556472	7,541986	2020-10-29T19:41:53:697
5,157308	-3,560488	7,542910	2020-10-29T19:41:53:715
5,156574	-3,555840	7,545603	2020-10-29T19:41:53:738
5,153334	-3,557037	7,547253	2020-10-29T19:41:53:755
5,151963	-3,556477	7,548452	2020-10-29T19:41:53:777
5,151460	-3,553535	7,550181	2020-10-29T19:41:53:797
5,149251	-3,553890	7,551521	2020-10-29T19:41:53:817
5,147722	-3,547577	7,555530	2020-10-29T19:41:53:835
5,148146	-3,550820	7,553718	2020-10-29T19:41:53:857
5,148071	-3,555089	7,551760	2020-10-29T19:41:53:875
5,152324	-3,557371	7,547785	2020-10-29T19:41:53:898
5,149326	-3,565454	7,546017	2020-10-29T19:41:53:915
5,149784	-3,568522	7,544254	2020-10-29T19:41:53:937
5,150513	-3,568492	7,543770	2020-10-29T19:41:53:955
5,149832	-3,571637	7,542746	2020-10-29T19:41:53:979
5,150196	-3,572585	7,542049	2020-10-29T19:41:53:997
5,152742	-3,576170	7,538610	2020-10-29T19:41:54:021
5,159864	-3,578813	7,532482	2020-10-29T19:41:54:038
5,167817	-3,586302	7,523463	2020-10-29T19:41:54:059
5,178390	-3,592518	7,513220	2020-10-29T19:41:54:075
5,187492	-3,602012	7,502388	2020-10-29T19:41:54:097
5,199760	-3,605379	7,492271	2020-10-29T19:41:54:115
5,214632	-3,618733	7,475478	2020-10-29T19:41:54:138
5,230175	-3,626338	7,460920	2020-10-29T19:41:54:155
5,251997	-3,632130	7,442751	2020-10-29T19:41:54:177
5,272034	-3,637215	7,426083	2020-10-29T19:41:54:194
5,290633	-3,635603	7,413634	2020-10-29T19:41:54:218
5,314587	-3,636319	7,396130	2020-10-29T19:41:54:235
5,339894	-3,645656	7,373270	2020-10-29T19:41:54:257
5,380988	-3,635761	7,348238	2020-10-29T19:41:54:278
5,392725	-3,640580	7,337239	2020-10-29T19:41:54:298
5,418373	-3,659709	7,308772	2020-10-29T19:41:54:315
5,439910	-3,673270	7,285935	2020-10-29T19:41:54:337
5,463549	-3,692566	7,258442	2020-10-29T19:41:54:355
5,483431	-3,722806	7,227938	2020-10-29T19:41:54:378
5,496632	-3,753558	7,201960	2020-10-29T19:41:54:395
5,507161	-3,788321	7,175666	2020-10-29T19:41:54:417
5,514264	-3,818841	7,154001	2020-10-29T19:41:54:435
5,521797	-3,846316	7,133442	2020-10-29T19:41:54:458
5,529512	-3,877395	7,110604	2020-10-29T19:41:54:475
5,542930	-3,907075	7,083860	2020-10-29T19:41:54:497
5,561329	-3,943861	7,048969	2020-10-29T19:41:54:517
5,582389	-3,974416	7,015079	2020-10-29T19:41:54:538
5,613191	-4,022746	6,962757	2020-10-29T19:41:54:562
5,647167	-4,059772	6,913620	2020-10-29T19:41:54:578
5,691551	-4,086366	6,861359	2020-10-29T19:41:54:595
5,741714	-4,127175	6,794817	2020-10-29T19:41:54:618
5,817499	-4,179069	6,697945	2020-10-29T19:41:54:635
5,897906	-4,253718	6,579587	2020-10-29T19:41:54:658
5,976120	-4,313395	6,469235	2020-10-29T19:41:54:676
6,048909	-4,372321	6,361124	2020-10-29T19:41:54:698
6,131278	-4,421183	6,247476	2020-10-29T19:41:54:715
6,212704	-4,435434	6,156266	2020-10-29T19:41:54:737
6,370810	-4,397443	6,020437	2020-10-29T19:41:54:758
6,489121	-4,361228	5,919576	2020-10-29T19:41:54:779
6,548695	-4,351836	5,860589	2020-10-29T19:41:54:795
6,697546	-4,341154	5,698040	2020-10-29T19:41:54:818
6,934627	-4,337393	5,410023	2020-10-29T19:41:54:836
7,013079	-4,336923	5,308315	2020-10-29T19:41:54:858
7,220287	-4,326590	5,031745	2020-10-29T19:41:54:875
7,444887	-4,305570	4,712336	2020-10-29T19:41:54:898
7,691550	-4,248798	4,354096	2020-10-29T19:41:54:916
7,938496	-4,133252	4,008353	2020-10-29T19:41:54:939
8,200189	-3,949678	3,650662	2020-10-29T19:41:54:955
8,473774	-3,722250	3,241973	2020-10-29T19:41:54:978
8,727876	-3,458871	2,833865	2020-10-29T19:41:54:996
8,957589	-3,178509	2,414344	2020-10-29T19:41:55:029
9,150222	-2,900747	2,007358	2020-10-29T19:41:55:037
9,301150	-2,629647	1,656484	2020-10-29T19:41:55:253
9,427981	-2,360957	1,307452	2020-10-29T19:41:55:257
9,526141	-2,111500	0,982130	2020-10-29T19:41:55:258
8,043015	-5,258666	1,956199	2020-10-29T19:41:55:259
8,053808	-5,326107	1,714393	2020-10-29T19:41:55:259
8,028473	-5,435529	1,472764	2020-10-29T19:41:55:260
7,972472	-5,574286	1,239922	2020-10-29T19:41:55:261
7,899971	-5,719147	1,025765	2020-10-29T19:41:55:261
7,808616	-5,876090	0,816986	2020-10-29T19:41:55:262
7,714294	-6,021878	0,630106	2020-10-29T19:41:55:262
7,624685	-6,149989	0,460646	2020-10-29T19:41:55:263
7,535226	-6,268035	0,320151	2020-10-29T19:41:55:274
7,453823	-6,369555	0,199173	2020-10-29T19:41:55:297
7,372356	-6,466177	0,085470	2020-10-29T19:41:55:319
7,298550	-6,549925	-0,005593	2020-10-29T19:41:55:339
7,234608	-6,619673	-0,103687	2020-10-29T19:41:55:356
7,210635	-6,639855	-0,299092	2020-10-29T19:41:55:378
7,277941	-6,554677	-0,488024	2020-10-29T19:41:55:396
7,796537	-5,880463	-0,896968	2020-10-29T19:41:55:420
8,372640	-4,935112	-1,309182	2020-10-29T19:41:55:436
8,587117	-4,462894	-1,585678	2020-10-29T19:41:55:458
8,580637	-4,435882	-1,692929	2020-10-29T19:41:55:477
8,569390	-4,431220	-1,760745	2020-10-29T19:41:55:499
8,542590	-4,458776	-1,820402	2020-10-29T19:41:55:516
8,532292	-4,452890	-1,882056	2020-10-29T19:41:55:539
8,565800	-4,358624	-1,949321	2020-10-29T19:41:55:556
8,658813	-4,138110	-2,017770	2020-10-29T19:41:55:580
8,773221	-3,866879	-2,061124	2020-10-29T19:41:55:604
8,858128	-3,647660	-2,097271	2020-10-29T19:41:55:620
8,923151	-3,457952	-2,142504	2020-10-29T19:41:55:637
8,960209	-3,331035	-2,188436	2020-10-29T19:41:55:672
8,976951	-3,258419	-2,228776	2020-10-29T19:41:55:701
8,977689	-3,225060	-2,273868	2020-10-29T19:41:55:702
8,977274	-3,190673	-2,323478	2020-10-29T19:41:55:733
8,977162	-3,156495	-2,370122	2020-10-29T19:41:55:742
8,979171	-3,118507	-2,412426	2020-10-29T19:41:55:755
8,976272	-3,071537	-2,482457	2020-10-29T19:41:55:778
8,973705	-3,058528	-2,507670	2020-10-29T19:41:55:795
8,967438	-3,022391	-2,573051	2020-10-29T19:41:55:818
8,960545	-2,989185	-2,635110	2020-10-29T19:41:55:837
8,955454	-2,955390	-2,689963	2020-10-29T19:41:55:859
8,952514	-2,921172	-2,736721	2020-10-29T19:41:55:876
8,951589	-2,887295	-2,775424	2020-10-29T19:41:55:900
8,949998	-2,857842	-2,810812	2020-10-29T19:41:55:917
8,951077	-2,825403	-2,840017	2020-10-29T19:41:55:939
8,954988	-2,769255	-2,882673	2020-10-29T19:41:55:958
8,956435	-2,753145	-2,893587	2020-10-29T19:41:55:979
8,962111	-2,710528	-2,916161	2020-10-29T19:41:55:997
8,976085	-2,631864	-2,945095	2020-10-29T19:41:56:024
8,981148	-2,674278	-2,890954	2020-10-29T19:42:16:238
8,989125	-2,769522	-2,774122	2020-10-29T19:42:16:239
8,994615	-2,874934	-2,646138	2020-10-29T19:42:16:240
8,995912	-2,972056	-2,531963	2020-10-29T19:42:16:241
9,010632	-3,093256	-2,326085	2020-10-29T19:42:16:242
9,018027	-3,214172	-2,124774	2020-10-29T19:42:16:242
9,019860	-3,336253	-1,918834	2020-10-29T19:42:16:243
9,013380	-3,457299	-1,725238	2020-10-29T19:42:16:243
9,001196	-3,560100	-1,573067	2020-10-29T19:42:16:249
8,990656	-3,645152	-1,432257	2020-10-29T19:42:16:257
8,984960	-3,708172	-1,300131	2020-10-29T19:42:16:259
8,976295	-3,757648	-1,215147	2020-10-29T19:42:16:382
8,975546	-3,785858	-1,130149	2020-10-29T19:42:16:384
8,986561	-3,784259	-1,044746	2020-10-29T19:42:16:384
9,023147	-3,723939	-0,941006	2020-10-29T19:42:16:385
9,066306	-3,639485	-0,852420	2020-10-29T19:42:16:388
9,108311	-3,552378	-0,767896	2020-10-29T19:42:16:388
9,142820	-3,472224	-0,723102	2020-10-29T19:42:16:413
9,172217	-3,399881	-0,693992	2020-10-29T19:42:16:430
9,194778	-3,342687	-0,672966	2020-10-29T19:42:16:434
9,211903	-3,298517	-0,656516	2020-10-29T19:42:16:456
9,225956	-3,261406	-0,644479	2020-10-29T19:42:16:475
9,240964	-3,220785	-0,633647	2020-10-29T19:42:16:497
9,267701	-3,151958	-0,587590	2020-10-29T19:42:16:516
9,297552	-3,071915	-0,537826	2020-10-29T19:42:16:539
9,328312	-2,985119	-0,491985	2020-10-29T19:42:16:556
9,359261	-2,894241	-0,444976	2020-10-29T19:42:16:578
9,386426	-2,811110	-0,403787	2020-10-29T19:42:16:597
9,402872	-2,755583	-0,403918	2020-10-29T19:42:16:618
9,412370	-2,721021	-0,416794	2020-10-29T19:42:16:637
9,404875	-2,741719	-0,449107	2020-10-29T19:42:16:657
9,401558	-2,752098	-0,455022	2020-10-29T19:42:16:676
9,399894	-2,761846	-0,429641	2020-10-29T19:42:16:699
9,311661	-3,052721	-0,379797	2020-10-29T19:42:16:723
9,091825	-3,660028	-0,336578	2020-10-29T19:42:16:738
8,716900	-4,484568	-0,273287	2020-10-29T19:42:16:756
8,323097	-5,182620	-0,192050	2020-10-29T19:42:16:778
8,184772	-5,400505	-0,120171	2020-10-29T19:42:16:796
8,291343	-5,236327	-0,070038	2020-10-29T19:42:16:818
8,540600	-4,819502	-0,030586	2020-10-29T19:42:16:836
8,873173	-4,175785	-0,000624	2020-10-29T19:42:16:857
9,371315	-2,889263	0,031539	2020-10-29T19:42:16:879
9,500195	-2,432097	0,039994	2020-10-29T19:42:16:899
9,661585	-1,679575	0,056458	2020-10-29T19:42:16:916
9,792634	-0,522386	0,042628	2020-10-29T19:42:16:938
9,774549	-0,786926	0,096459	2020-10-29T19:42:16:957
9,755364	-0,992112	0,137706	2020-10-29T19:42:16:978
9,736712	-1,157351	0,165392	2020-10-29T19:42:17:001
9,718650	-1,297902	0,183542	2020-10-29T19:42:17:021
9,702133	-1,414816	0,193105	2020-10-29T19:42:17:039
9,692057	-1,480433	0,206760	2020-10-29T19:42:41:116
9,622920	-1,873739	0,242696	2020-10-29T19:42:41:118
9,300702	-3,097873	0,265548	2020-10-29T19:42:41:119
8,145503	-5,457882	0,180763	2020-10-29T19:42:41:162
7,928658	-5,770441	0,093723	2020-10-29T19:42:41:164
7,964583	-5,721333	0,046470	2020-10-29T19:42:41:169
7,909182	-5,797796	0,028103	2020-10-29T19:42:41:194
7,879601	-5,837936	0,027840	2020-10-29T19:42:41:201
7,800681	-5,942767	0,057258	2020-10-29T19:42:41:241
7,723215	-6,042508	0,102187	2020-10-29T19:42:41:243
7,621253	-6,169596	0,151546	2020-10-29T19:42:41:262
7,585516	-6,211375	0,221701	2020-10-29T19:42:41:281
7,721091	-6,037154	0,328485	2020-10-29T19:42:41:301
7,998258	-5,656883	0,444884	2020-10-29T19:42:41:320
8,249329	-5,277247	0,519254	2020-10-29T19:42:41:343
8,448084	-4,947271	0,569889	2020-10-29T19:42:41:360
8,527821	-4,806124	0,589774	2020-10-29T19:42:41:382
8,487304	-4,877673	0,586829	2020-10-29T19:42:41:400
8,289766	-5,211022	0,543510	2020-10-29T19:42:41:425
7,940787	-5,735944	0,461780	2020-10-29T19:42:41:440
7,454448	-6,362129	0,353424	2020-10-29T19:42:41:462
6,889714	-6,974874	0,230977	2020-10-29T19:42:41:480
6,353723	-7,469026	0,119348	2020-10-29T19:42:41:504
5,994688	-7,760880	0,053391	2020-10-29T19:42:41:522
5,887531	-7,842564	0,039307	2020-10-29T19:42:41:544
6,631862	-7,223756	0,078395	2020-10-29T19:42:41:560
8,796505	-4,333741	0,102854	2020-10-29T19:42:41:584
5,814256	-7,894441	0,206426	2020-10-29T19:42:41:601
5,417212	-8,169286	0,294918	2020-10-29T19:42:41:623
5,311603	-8,234790	0,381449	2020-10-29T19:42:41:641
5,299870	-8,237891	0,467876	2020-10-29T19:42:41:663
5,342666	-8,205019	0,551324	2020-10-29T19:42:41:680
5,391607	-8,166600	0,638428	2020-10-29T19:42:41:703
5,468258	-8,108910	0,717025	2020-10-29T19:42:41:721
5,551126	-8,048299	0,761750	2020-10-29T19:42:41:744
5,619890	-7,988377	0,879235	2020-10-29T19:42:41:763
5,650419	-7,962742	0,915365	2020-10-29T19:42:41:783
5,718594	-7,901489	1,017127	2020-10-29T19:42:41:801
5,759736	-7,857293	1,121957	2020-10-29T19:42:41:824
5,799296	-7,814024	1,216377	2020-10-29T19:42:41:841
5,839085	-7,769128	1,310005	2020-10-29T19:42:41:863
5,875513	-7,725985	1,399245	2020-10-29T19:42:41:881
5,918049	-7,690156	1,417242	2020-10-29T19:42:41:904
5,928203	-7,683376	1,411569	2020-10-29T19:42:41:921
5,907474	-7,693829	1,441227	2020-10-29T19:42:41:943
5,856421	-7,729877	1,456608	2020-10-29T19:42:41:961
5,785941	-7,786351	1,437362	2020-10-29T19:42:41:984
5,727737	-7,839969	1,377787	2020-10-29T19:42:42:002
5,699419	-7,882215	1,248073	2020-10-29T19:42:42:023
5,719316	-7,876065	1,194745	2020-10-29T19:42:42:041
5,773079	-7,842678	1,155141	2020-10-29T19:42:42:064
5,842066	-7,795993	1,123894	2020-10-29T19:42:42:081
5,907597	-7,749742	1,100994	2020-10-29T19:42:42:103
5,951422	-7,717257	1,093118	2020-10-29T19:42:42:121
5,982116	-7,692784	1,098068	2020-10-29T19:42:42:144
5,972603	-7,711155	1,018081	2020-10-29T19:42:42:161
5,925607	-7,758323	0,930584	2020-10-29T19:42:42:184
5,836057	-7,837585	0,826490	2020-10-29T19:42:42:201
5,723286	-7,931004	0,716632	2020-10-29T19:42:42:224
5,587443	-8,035289	0,620483	2020-10-29T19:42:42:242
5,450150	-8,132985	0,566401	2020-10-29T19:42:42:263
5,324548	-8,215610	0,568625	2020-10-29T19:42:42:281
5,234007	-8,267759	0,647848	2020-10-29T19:42:42:304
5,154069	-8,306940	0,775052	2020-10-29T19:42:42:321
5,071763	-8,339759	0,946587	2020-10-29T19:42:42:343
4,989520	-8,363149	1,154477	2020-10-29T19:42:42:361
4,917285	-8,372394	1,376123	2020-10-29T19:42:42:384
4,850083	-8,370176	1,608483	2020-10-29T19:42:42:401
4,780228	-8,368092	1,815174	2020-10-29T19:42:42:423
4,769537	-8,341711	1,959021	2020-10-29T19:42:42:441
4,743361	-8,313816	2,133392	2020-10-29T19:42:42:464
4,727871	-8,283542	2,280472	2020-10-29T19:42:42:484
4,753849	-8,277581	2,247877	2020-10-29T19:42:42:504
4,823219	-8,275023	2,104982	2020-10-29T19:42:42:521
4,904394	-8,253218	2,000424	2020-10-29T19:42:42:544
5,078529	-8,159389	1,950205	2020-10-29T19:42:42:562
5,156099	-8,116173	1,926854	2020-10-29T19:42:42:583
5,372693	-8,008735	1,778968	2020-10-29T19:42:42:602
5,600986	-7,896832	1,561854	2020-10-29T19:42:42:625
5,837378	-7,771658	1,302586	2020-10-29T19:42:42:641
6,049935	-7,646387	1,049491	2020-10-29T19:42:42:663
6,277183	-7,485173	0,859972	2020-10-29T19:42:42:681
6,512006	-7,294455	0,745044	2020-10-29T19:42:42:705
6,879220	-6,954228	0,696733	2020-10-29T19:42:42:724
6,977507	-6,853826	0,714037	2020-10-29T19:42:42:744
7,102164	-6,716968	0,782296	2020-10-29T19:42:42:761
7,277192	-6,513167	0,889672	2020-10-29T19:42:42:785
7,575131	-6,126857	1,117762	2020-10-29T19:42:42:802
7,657148	-6,006566	1,208155	2020-10-29T19:42:42:824
7,908686	-5,566309	1,624585	2020-10-29T19:42:42:842
7,968057	-5,439888	1,757291	2020-10-29T19:42:42:865
8,051883	-5,239779	1,970354	2020-10-29T19:42:42:881
8,010900	-5,282045	2,023826	2020-10-29T19:42:42:904
8,001268	-5,312694	1,981257	2020-10-29T19:42:42:922
7,993281	-5,363009	1,875094	2020-10-29T19:42:42:944
7,986433	-5,417826	1,741961	2020-10-29T19:42:42:963
9,563097	-2,074892	0,642178	2020-10-29T19:42:42:984
9,546033	-2,145154	0,664793	2020-10-29T19:42:43:002
9,535897	-2,175339	0,710597	2020-10-29T19:42:43:025
9,528901	-2,179182	0,788416	2020-10-29T19:42:43:042
9,533522	-2,132827	0,856384	2020-10-29T19:42:43:064
9,547731	-2,045805	0,908783	2020-10-29T19:42:43:082
9,566004	-1,942591	0,942500	2020-10-29T19:42:43:105
9,582280	-1,850930	0,961435	2020-10-29T19:42:43:122
9,596035	-1,777489	0,962821	2020-10-29T19:42:43:144
9,608344	-1,723078	0,938679	2020-10-29T19:42:43:162
9,619837	-1,681903	0,894604	2020-10-29T19:42:43:185
9,628383	-1,653423	0,854878	2020-10-29T19:42:43:203
9,635209	-1,638597	0,805061	2020-10-29T19:42:43:224
9,656307	-1,556934	0,708570	2020-10-29T19:42:43:242
9,684896	-1,425930	0,583009	2020-10-29T19:42:43:265
9,692728	-1,382117	0,557809	2020-10-29T19:42:43:282
9,693713	-1,371801	0,566100	2020-10-29T19:42:43:304
9,704558	-1,309048	0,527563	2020-10-29T19:42:43:322
9,717947	-1,229207	0,470034	2020-10-29T19:42:43:345
9,725527	-1,179683	0,439163	2020-10-29T19:42:43:362
9,723773	-1,189801	0,450542	2020-10-29T19:42:43:384
9,714115	-1,247853	0,499213	2020-10-29T19:42:43:402
9,704169	-1,304225	0,546329	2020-10-29T19:42:43:425
9,695918	-1,352208	0,575413	2020-10-29T19:42:43:444
9,695441	-1,369896	0,540545	2020-10-29T19:42:43:464
9,702365	-1,336931	0,497113	2020-10-29T19:42:43:482
9,705083	-1,320029	0,489154	2020-10-29T19:42:43:506
9,700552	-1,338205	0,528095	2020-10-29T19:42:43:523
9,694968	-1,361293	0,569956	2020-10-29T19:42:43:544
9,689226	-1,385974	0,606923	2020-10-29T19:42:43:563
9,678351	-1,448821	0,633096	2020-10-29T19:42:43:585
9,660255	-1,547280	0,675105	2020-10-29T19:42:43:603
9,637443	-1,667211	0,714493	2020-10-29T19:42:43:625
9,609959	-1,809192	0,738857	2020-10-29T19:42:43:643
9,577205	-1,971266	0,749429	2020-10-29T19:42:43:665
9,541088	-2,140217	0,746654	2020-10-29T19:42:43:684
9,503955	-2,304780	0,730218	2020-10-29T19:42:43:705
9,464536	-2,464190	0,721611	2020-10-29T19:42:43:723
9,427444	-2,602850	0,720321	2020-10-29T19:42:43:746
9,397693	-2,707610	0,722914	2020-10-29T19:42:43:764
9,380705	-2,763731	0,731136	2020-10-29T19:42:43:785
9,370362	-2,792679	0,753418	2020-10-29T19:42:43:803
9,366957	-2,793700	0,791039	2020-10-29T19:42:43:826
9,365750	-2,777518	0,859363	2020-10-29T19:42:43:842
9,373238	-2,733035	0,918325	2020-10-29T19:42:43:865
9,395953	-2,627473	0,991383	2020-10-29T19:42:43:884
9,403563	-2,591763	1,012999	2020-10-29T19:42:43:907
9,423947	-2,480645	1,098180	2020-10-29T19:42:43:925
9,428552	-2,452152	1,122386	2020-10-29T19:42:43:945
9,439028	-2,397137	1,152768	2020-10-29T19:42:43:963
9,456014	-2,347595	1,114892	2020-10-29T19:42:43:987
9,487204	-2,256180	1,035858	2020-10-29T19:42:44:003
9,489895	-2,245848	1,033660	2020-10-29T19:42:44:025
9,504319	-2,190207	1,020441	2020-10-29T19:42:44:043
9,528309	-2,104991	0,975056	2020-10-29T19:42:44:066
9,552079	-2,019161	0,922581	2020-10-29T19:42:44:083
9,572359	-1,937243	0,887366	2020-10-29T19:42:44:105
9,587973	-1,868638	0,865658	2020-10-29T19:42:44:123
9,594689	-1,834773	0,863676	2020-10-29T19:42:44:146
9,606639	-1,773222	0,859397	2020-10-29T19:42:44:164
9,619116	-1,706959	0,853979	2020-10-29T19:42:44:185
9,631984	-1,642451	0,835247	2020-10-29T19:42:44:203
9,652566	-1,542273	0,787244	2020-10-29T19:42:44:226
9,668741	-1,462987	0,738582	2020-10-29T19:42:44:243
9,677446	-1,420936	0,705951	2020-10-29T19:42:44:265
9,679437	-1,414917	0,690580	2020-10-29T19:42:44:283
9,672201	-1,460693	0,696625	2020-10-29T19:42:44:306
9,651441	-1,577083	0,729993	2020-10-29T19:42:44:324
9,643744	-1,617957	0,742166	2020-10-29T19:42:44:345
9,624141	-1,717919	0,771393	2020-10-29T19:42:44:363
9,596413	-1,850912	0,808310	2020-10-29T19:42:44:386
9,585413	-1,905257	0,812553	2020-10-29T19:42:44:405
9,583373	-1,916544	0,810068	2020-10-29T19:42:44:425
9,582352	-1,924880	0,802345	2020-10-29T19:42:44:443
9,583035	-1,921463	0,802370	2020-10-29T19:42:44:466
9,586184	-1,905990	0,801672	2020-10-29T19:42:44:483
9,590652	-1,884030	0,800137	2020-10-29T19:42:44:505
9,594316	-1,863054	0,805297	2020-10-29T19:42:44:524
9,595261	-1,853417	0,816217	2020-10-29T19:42:44:546
9,593505	-1,854254	0,834739	2020-10-29T19:42:44:563
9,589507	-1,869026	0,847626	2020-10-29T19:42:44:585
9,586403	-1,885973	0,845199	2020-10-29T19:42:44:604
9,583794	-1,904675	0,832760	2020-10-29T19:42:44:626
9,580370	-1,928289	0,817681	2020-10-29T19:42:44:646
9,577795	-1,942458	0,814294	2020-10-29T19:42:44:665
9,567087	-1,998223	0,805186	2020-10-29T19:42:44:683
9,554724	-2,060648	0,794587	2020-10-29T19:42:44:707
9,541385	-2,125796	0,783173	2020-10-29T19:42:44:724
9,536024	-2,161484	0,750081	2020-10-29T19:42:44:746
7,557422	-5,937641	1,949405	2020-10-29T19:42:44:764
7,395744	-6,119428	2,006476	2020-10-29T19:42:44:789
7,197770	-6,298718	2,165329	2020-10-29T19:42:44:808
7,141776	-6,345307	2,214160	2020-10-29T19:42:44:827
7,023313	-6,434468	2,332612	2020-10-29T19:42:44:844
6,959971	-6,465106	2,435486	2020-10-29T19:42:44:866
6,844934	-6,497232	2,665188	2020-10-29T19:42:44:886
6,759096	-6,544862	2,765824	2020-10-29T19:42:44:905
6,528447	-6,692986	2,958665	2020-10-29T19:42:44:924
6,381969	-6,811378	3,007655	2020-10-29T19:42:44:947
6,266916	-6,930917	2,976328	2020-10-29T19:42:44:964
6,063246	-7,089968	3,023210	2020-10-29T19:42:44:986
5,887125	-7,231028	3,037166	2020-10-29T19:42:45:004
9,204594	-3,120245	1,307635	2020-10-29T19:42:45:027
9,154354	-3,248447	1,347506	2020-10-29T19:42:45:044
9,106956	-3,370105	1,369721	2020-10-29T19:42:45:066
9,064554	-3,480735	1,374312	2020-10-29T19:42:45:084
9,049881	-3,537748	1,324529	2020-10-29T19:42:45:107
9,033279	-3,594644	1,284049	2020-10-29T19:42:45:125
9,010616	-3,676163	1,210372	2020-10-29T19:42:45:146
9,006178	-3,694406	1,187649	2020-10-29T19:42:45:164
9,009078	-3,700118	1,147185	2020-10-29T19:42:45:187
9,028913	-3,662881	1,110144	2020-10-29T19:42:45:206
9,060657	-3,590722	1,087019	2020-10-29T19:42:45:226
9,100971	-3,492131	1,071320	2020-10-29T19:42:45:244
9,145919	-3,372679	1,071256	2020-10-29T19:42:45:267
9,201618	-3,218710	1,067949	2020-10-29T19:42:45:284
9,261802	-3,047532	1,049742	2020-10-29T19:42:45:306
9,321934	-2,871019	1,014490	2020-10-29T19:42:45:324
9,384281	-2,681093	0,957805	2020-10-29T19:42:45:347
9,441019	-2,493969	0,904241	2020-10-29T19:42:45:365
9,492915	-2,311627	0,843397	2020-10-29T19:42:45:386
9,543567	-2,126622	0,753787	2020-10-29T19:42:45:404
9,599235	-1,904717	0,630191	2020-10-29T19:42:45:428
9,624429	-1,799808	0,549040	2020-10-29T19:42:45:444
9,596699	-1,947119	0,531487	2020-10-29T19:42:45:466
9,511891	-2,329083	0,519303	2020-10-29T19:42:45:484
9,316681	-3,020927	0,493798	2020-10-29T19:42:45:507
9,018989	-3,823751	0,455138	2020-10-29T19:42:45:524
8,798828	-4,311916	0,397993	2020-10-29T19:42:45:546
8,755275	-4,403549	0,352583	2020-10-29T19:42:45:564
8,836840	-4,241680	0,297984	2020-10-29T19:42:45:587
9,264499	-3,209220	0,200903	2020-10-29T19:42:45:605
9,668162	-1,629938	0,200823	2020-10-29T19:42:45:626
9,800646	-0,203391	0,276316	2020-10-29T19:42:45:645
9,802217	-0,015887	0,294421	2020-10-29T19:42:45:667
9,800482	0,153388	0,312101	2020-10-29T19:42:45:684
9,803264	-0,026208	0,256347	2020-10-29T19:42:45:707
9,799343	-0,354139	0,133564	2020-10-29T19:42:45:725
9,788402	-0,597219	0,030224	2020-10-29T19:42:45:747
9,777131	-0,755912	-0,081811	2020-10-29T19:42:45:764
9,765152	-0,880683	-0,191274	2020-10-29T19:42:45:787
9,756137	-0,953681	-0,280471	2020-10-29T19:42:45:805
9,754242	-0,953495	-0,340579	2020-10-29T19:42:45:827
9,757188	-0,907901	-0,378669	2020-10-29T19:42:45:847
9,764773	-0,818829	-0,386134	2020-10-29T19:42:45:867
9,774364	-0,704826	-0,367966	2020-10-29T19:42:45:884
9,776292	-0,670919	-0,379951	2020-10-29T19:42:45:909
9,782102	-0,595131	-0,355938	2020-10-29T19:42:45:924
9,790752	-0,476194	-0,291187	2020-10-29T19:42:45:946
9,799294	-0,326740	-0,193507	2020-10-29T19:42:45:964
9,806359	0,044122	0,061321	2020-10-29T19:42:45:988
9,805164	0,144726	0,090476	2020-10-29T19:42:46:005
9,802707	0,254972	0,110941	2020-10-29T19:42:46:028
9,799586	0,354519	0,113207	2020-10-29T19:42:46:045
9,796023	0,442728	0,110889	2020-10-29T19:42:46:067
9,792605	0,516964	0,089527	2020-10-29T19:42:46:096
9,791239	0,549536	-0,005383	2020-10-29T19:42:46:108
9,791320	0,547923	-0,015143	2020-10-29T19:42:46:125
9,791814	0,539217	-0,003218	2020-10-29T19:42:46:148
9,793202	0,512708	0,026573	2020-10-29T19:42:46:165
9,795249	0,467768	0,068427	2020-10-29T19:42:46:187
9,797547	0,403212	0,125967	2020-10-29T19:42:46:205
9,803000	0,201371	0,176105	2020-10-29T19:42:46:229
9,750369	-1,047984	-0,049250	2020-10-29T19:42:46:245
9,521863	-2,335260	-0,226003	2020-10-29T19:42:46:267
9,150407	-3,512059	-0,325396	2020-10-29T19:42:46:285
8,745904	-4,423321	-0,337296	2020-10-29T19:42:46:308
8,262523	-5,275060	-0,273586	2020-10-29T19:42:46:326
7,785986	-5,960559	-0,143313	2020-10-29T19:42:46:348
7,421394	-6,409941	0,077108	2020-10-29T19:42:46:365
7,296602	-6,543651	0,332597	2020-10-29T19:42:46:388
7,300887	-6,521393	0,582130	2020-10-29T19:42:46:406
7,282233	-6,523915	0,760257	2020-10-29T19:42:46:427
7,162729	-6,645066	0,841898	2020-10-29T19:42:46:445
6,954583	-6,862104	0,845984	2020-10-29T19:42:46:468
6,668132	-7,150000	0,764133	2020-10-29T19:42:46:485
6,323207	-7,472059	0,596467	2020-10-29T19:42:46:507
5,947185	-7,792204	0,287985	2020-10-29T19:42:46:525
5,593042	-8,055317	-0,011442	2020-10-29T19:42:46:549
5,255771	-8,274742	-0,275505	2020-10-29T19:42:46:566
4,906889	-8,476047	-0,499466	2020-10-29T19:42:46:587
4,589646	-8,640056	-0,674512	2020-10-29T19:42:46:605
4,324419	-8,764441	-0,808923	2020-10-29T19:42:46:629
4,109019	-8,859868	-0,888307	2020-10-29T19:42:46:645
3,965925	-8,922810	-0,908450	2020-10-29T19:42:46:667
3,908459	-8,951418	-0,875469	2020-10-29T19:42:46:685
4,049431	-8,904567	-0,693670	2020-10-29T19:42:46:709
4,257942	-8,819696	-0,503259	2020-10-29T19:42:46:726
4,426270	-8,743066	-0,370575	2020-10-29T19:42:46:748
4,780594	-8,561384	-0,137843	2020-10-29T19:42:46:765
5,276103	-8,265007	0,150958	2020-10-29T19:42:46:788
5,917937	-7,805849	0,465971	2020-10-29T19:42:46:807
6,623484	-7,194551	0,733667	2020-10-29T19:42:46:828
7,314082	-6,472930	0,880776	2020-10-29T19:42:46:845
7,913517	-5,717051	0,928424	2020-10-29T19:42:46:868
8,351766	-5,062541	0,888294	2020-10-29T19:42:46:885
8,727508	-4,397170	0,816019	2020-10-29T19:42:46:908
9,044722	-3,721296	0,717880	2020-10-29T19:42:46:926
9,305961	-3,036433	0,591230	2020-10-29T19:42:46:948
9,575334	-2,069287	0,448805	2020-10-29T19:42:46:965
9,754082	-0,975399	0,277243	2020-10-29T19:42:46:988
9,806310	-0,003395	0,081609	2020-10-29T19:42:47:006
9,701706	1,417087	-0,197875	2020-10-29T19:42:47:029
9,695185	1,433254	-0,345786	2020-10-29T19:42:47:047
9,665205	1,579977	-0,507811	2020-10-29T19:42:47:068
9,621187	1,776782	-0,667975	2020-10-29T19:42:47:085
9,583994	1,917788	-0,799704	2020-10-29T19:42:47:109
9,584506	1,890319	-0,856926	2020-10-29T19:42:47:126
9,622541	1,696935	-0,835159	2020-10-29T19:42:47:148
9,687785	1,326230	-0,747211	2020-10-29T19:42:47:166
9,758879	0,747216	-0,613472	2020-10-29T19:42:47:189
9,794633	-0,147541	-0,462370	2020-10-29T19:42:47:206
9,660706	-1,656844	-0,309860	2020-10-29T19:42:47:228
9,226724	-3,312668	-0,253358	2020-10-29T19:42:47:246
8,766421	-4,385375	-0,297853	2020-10-29T19:42:47:269
8,575170	-4,739396	-0,418301	2020-10-29T19:42:47:288
8,547894	-4,785422	-0,451251	2020-10-29T19:42:47:310
8,548058	-4,783487	-0,468347	2020-10-29T19:42:47:326
8,374448	-5,085158	-0,424466	2020-10-29T19:42:47:349
8,251573	-5,288101	-0,343388	2020-10-29T19:42:47:366
8,248173	-5,299079	-0,240383	2020-10-29T19:42:47:388
8,351748	-5,138317	-0,127993	2020-10-29T19:42:47:406
8,489221	-4,909021	-0,070844	2020-10-29T19:42:47:430
8,479048	-4,926971	-0,032943	2020-10-29T19:42:47:446
8,391811	-5,074146	-0,030435	2020-10-29T19:42:47:468
8,386127	-5,083607	-0,014181	2020-10-29T19:42:47:486
8,449400	-4,977613	0,037379	2020-10-29T19:42:47:509
8,688123	-4,546378	0,131705	2020-10-29T19:42:47:527
8,978262	-3,939047	0,212374	2020-10-29T19:42:47:548
9,200590	-3,384131	0,259196	2020-10-29T19:42:47:566
9,344753	-2,963126	0,256627	2020-10-29T19:42:47:589
9,538239	-2,266702	0,233313	2020-10-29T19:42:47:607
9,787792	-0,598977	0,103643	2020-10-29T19:42:47:628
9,747770	-1,044950	0,243789	2020-10-29T19:42:47:646
9,555305	-2,182878	0,318688	2020-10-29T19:42:47:669
7,968775	-5,713637	0,152826	2020-10-29T19:42:47:686
8,295979	-5,228944	-0,072455	2020-10-29T19:42:47:710
8,500846	-4,882320	-0,262588	2020-10-29T19:42:47:727
8,511292	-4,845493	-0,499492	2020-10-29T19:42:47:751
8,429210	-4,955801	-0,747562	2020-10-29T19:42:47:767
8,239964	-5,200598	-1,107774	2020-10-29T19:42:47:790
8,023180	-5,437826	-1,492989	2020-10-29T19:42:47:806
7,707609	-5,718439	-2,015591	2020-10-29T19:42:47:831
7,392527	-5,878701	-2,638523	2020-10-29T19:42:47:846
6,897086	-6,146803	-3,288981	2020-10-29T19:42:47:869
6,399321	-6,417396	-3,746480	2020-10-29T19:42:47:887
5,903709	-6,659428	-4,119298	2020-10-29T19:42:47:911
5,492537	-6,783255	-4,471004	2020-10-29T19:42:47:927
5,142476	-6,818791	-4,819690	2020-10-29T19:42:47:950
4,913389	-6,766044	-5,123441	2020-10-29T19:42:47:967
4,761198	-6,582459	-5,492960	2020-10-29T19:42:47:990
4,766484	-6,266758	-5,846260	2020-10-29T19:42:48:008
4,799953	-5,842535	-6,244648	2020-10-29T19:42:48:030
4,722178	-5,347842	-6,728447	2020-10-29T19:42:48:046
4,524450	-4,679870	-7,334750	2020-10-29T19:42:48:070
4,056530	-3,930921	-8,016409	2020-10-29T19:42:48:087
2,844052	-2,947362	-8,910377	2020-10-29T19:42:48:109
0,377898	-1,781671	-9,636038	2020-10-29T19:42:48:127
3,209193	-1,650221	9,118566	2020-10-29T19:42:48:150
6,412731	-1,430274	7,280219	2020-10-29T19:42:48:167
8,278092	-0,859314	5,187017	2020-10-29T19:42:48:190
9,154031	-0,104941	3,516118	2020-10-29T19:42:48:207
9,528525	0,721007	2,204029	2020-10-29T19:42:48:230
9,617102	1,500379	1,196075	2020-10-29T19:42:48:248
9,538102	2,257600	0,313421	2020-10-29T19:42:48:269
9,353389	2,912881	-0,446808	2020-10-29T19:42:48:287
9,096874	3,472240	-1,166537	2020-10-29T19:42:48:310
8,809412	3,891895	-1,848731	2020-10-29T19:42:48:327
8,486586	4,189254	-2,568736	2020-10-29T19:42:48:349
8,083459	4,368234	-3,427333	2020-10-29T19:42:48:367
7,509100	4,412072	-4,507484	2020-10-29T19:42:48:391
6,684346	4,288370	-5,753242	2020-10-29T19:42:48:407
5,195514	3,656685	-7,470319	2020-10-29T19:42:48:429
2,550352	2,766186	-9,056175	2020-10-29T19:42:48:447
0,576591	2,064961	9,569424	2020-10-29T19:42:48:470
4,181437	2,629407	8,471848	2020-10-29T19:42:48:489
3,060701	2,531850	8,966171	2020-10-29T19:42:48:509
2,656091	2,428130	9,122486	2020-10-29T19:42:48:527
-0,027017	1,784464	-9,642891	2020-10-29T19:42:48:551
1,835771	2,161277	-9,387716	2020-10-29T19:42:48:567
5,329296	2,748262	-7,759900	2020-10-29T19:42:48:589
7,208021	2,956293	-5,956102	2020-10-29T19:42:48:608
8,177253	2,710569	-4,685696	2020-10-29T19:42:48:631
8,834662	2,376794	-3,531284	2020-10-29T19:42:48:647
9,281773	1,977976	-2,471171	2020-10-29T19:42:48:669
9,564754	1,558084	-1,502741	2020-10-29T19:42:48:687
9,771056	0,820960	-0,151236	2020-10-29T19:42:48:712
9,777769	0,282643	0,696937	2020-10-29T19:42:48:729
9,680973	-0,246235	1,545483	2020-10-29T19:42:48:750
9,597507	-0,494492	1,952873	2020-10-29T19:42:48:768
9,569670	-0,561524	2,067967	2020-10-29T19:42:48:792
9,555183	-0,601610	2,122951	2020-10-29T19:42:48:808
9,559607	-0,583915	2,107924	2020-10-29T19:42:48:830
9,448339	-0,738262	2,520760	2020-10-29T19:42:48:848
9,222738	-0,907732	3,207416	2020-10-29T19:42:48:870
9,000707	-0,983103	3,767118	2020-10-29T19:42:48:886
7,143474	-1,041260	6,637541	2020-10-29T19:42:48:910
3,114585	-0,945720	-9,250695	2020-10-29T19:42:48:928
8,635686	-1,595916	-4,364444	2020-10-29T19:42:48:951
9,157518	-1,967916	-2,904746	2020-10-29T19:42:48:968
9,164618	-2,414659	-2,519841	2020-10-29T19:42:48:989
9,023580	-2,942145	-2,467626	2020-10-29T19:42:49:008
8,799802	-3,428835	-2,641392	2020-10-29T19:42:49:031
8,536386	-3,930291	-2,802375	2020-10-29T19:42:49:047
8,254421	-4,434404	-2,893263	2020-10-29T19:42:49:069
7,970834	-4,912751	-2,915659	2020-10-29T19:42:49:088
7,674571	-5,370598	-2,903106	2020-10-29T19:42:49:111
7,374401	-5,761203	-2,932086	2020-10-29T19:42:49:128
7,129533	-6,030630	-2,995271	2020-10-29T19:42:49:150
6,856827	-6,254309	-3,168269	2020-10-29T19:42:49:168
6,550657	-6,466610	-3,382637	2020-10-29T19:42:49:191
6,036478	-6,756579	-3,752326	2020-10-29T19:42:49:210
5,867938	-6,846579	-3,855132	2020-10-29T19:42:49:230
5,505891	-7,024367	-4,063719	2020-10-29T19:42:49:248
5,161721	-7,174278	-4,249324	2020-10-29T19:42:49:271
4,740636	-7,267042	-4,570213	2020-10-29T19:42:49:288
4,388693	-7,325183	-4,821976	2020-10-29T19:42:49:310
4,159928	-7,356363	-4,974867	2020-10-29T19:42:49:328
4,063763	-7,376066	-5,024924	2020-10-29T19:42:49:351
4,118766	-7,384610	-4,967261	2020-10-29T19:42:49:368
4,322166	-7,372198	-4,810401	2020-10-29T19:42:49:390
4,651047	-7,318156	-4,580691	2020-10-29T19:42:49:408
5,194248	-7,229535	-4,113879	2020-10-29T19:42:49:431
6,145895	-6,863205	-3,360769	2020-10-29T19:42:49:451
6,439298	-6,674761	-3,186437	2020-10-29T19:42:49:470
7,082201	-6,192057	-2,769702	2020-10-29T19:42:49:488
7,694644	-5,632228	-2,289286	2020-10-29T19:42:49:512
8,233107	-5,017013	-1,793299	2020-10-29T19:42:49:529
8,680497	-4,369599	-1,313753	2020-10-29T19:42:49:550
9,009284	-3,769534	-0,890960	2020-10-29T19:42:49:568
9,221398	-3,292470	-0,543909	2020-10-29T19:42:49:591
9,331336	-3,002244	-0,288244	2020-10-29T19:42:49:608
9,316252	-3,060246	-0,112884	2020-10-29T19:42:49:631
9,282253	-3,163834	-0,017840	2020-10-29T19:42:49:648
9,283368	-3,160577	0,014788	2020-10-29T19:42:49:671
9,356258	-2,937724	-0,024330	2020-10-29T19:42:49:689
9,382184	-2,851984	-0,105806	2020-10-29T19:42:49:711
9,333927	-2,999185	-0,230379	2020-10-29T19:42:49:728
9,232396	-3,281719	-0,404424	2020-10-29T19:42:49:751
9,107215	-3,584301	-0,617900	2020-10-29T19:42:49:768
8,928796	-3,962855	-0,861843	2020-10-29T19:42:49:791
8,708426	-4,375036	-1,092141	2020-10-29T19:42:49:808
8,470125	-4,784678	-1,238637	2020-10-29T19:42:49:833
8,246855	-5,132062	-1,349705	2020-10-29T19:42:49:848
8,052077	-5,395697	-1,490265	2020-10-29T19:42:49:871
7,871882	-5,620189	-1,617816	2020-10-29T19:42:49:888
7,719270	-5,799294	-1,717979	2020-10-29T19:42:49:912
7,615448	-5,918037	-1,775434	2020-10-29T19:42:49:930
7,528377	-6,047075	-1,710789	2020-10-29T19:42:49:951
7,486269	-6,128469	-1,602508	2020-10-29T19:42:49:968
7,502055	-6,150636	-1,435001	2020-10-29T19:42:49:992
7,553155	-6,132885	-1,227983	2020-10-29T19:42:50:009
7,616621	-6,094134	-1,009459	2020-10-29T19:42:50:031
7,692921	-6,029934	-0,793248	2020-10-29T19:42:50:048
7,773178	-5,950969	-0,577979	2020-10-29T19:42:50:072
7,863827	-5,851564	-0,299665	2020-10-29T19:42:50:089
7,899370	-5,806729	-0,228542	2020-10-29T19:42:50:111
7,932376	-5,765423	-0,087707	2020-10-29T19:42:50:129
7,921482	-5,780857	0,047008	2020-10-29T19:42:50:152
7,879812	-5,834868	0,182394	2020-10-29T19:42:50:170
7,925652	-5,768771	0,275135	2020-10-29T19:42:50:191
8,010932	-5,647741	0,313652	2020-10-29T19:42:50:209
8,140583	-5,453814	0,396483	2020-10-29T19:42:50:232
8,294065	-5,207978	0,505805	2020-10-29T19:42:50:249
8,361337	-5,094521	0,551623	2020-10-29T19:42:50:271
8,368338	-5,081349	0,566746	2020-10-29T19:42:50:289
8,438700	-4,955009	0,637668	2020-10-29T19:42:50:313
8,494550	-4,847046	0,720527	2020-10-29T19:42:50:329
8,460814	-4,896685	0,779420	2020-10-29T19:42:50:351
8,423797	-4,950433	0,838597	2020-10-29T19:42:50:369
8,415382	-4,956864	0,883874	2020-10-29T19:42:50:392
8,467207	-4,862380	0,913262	2020-10-29T19:42:50:412
8,505488	-4,791115	0,933949	2020-10-29T19:42:50:432
8,626239	-4,554654	1,006736	2020-10-29T19:42:50:450
8,734238	-4,316285	1,119446	2020-10-29T19:42:50:473
8,793730	-4,167201	1,214555	2020-10-29T19:42:50:489
8,813204	-4,098433	1,304100	2020-10-29T19:42:50:512
8,799674	-4,101196	1,384309	2020-10-29T19:42:50:530
8,757277	-4,169601	1,447384	2020-10-29T19:42:50:552
8,693495	-4,283712	1,497780	2020-10-29T19:42:50:569
8,609306	-4,459573	1,470520	2020-10-29T19:42:50:591
8,488745	-4,701701	1,416193	2020-10-29T19:42:50:609
8,326559	-5,006997	1,329953	2020-10-29T19:42:50:633
8,111788	-5,374251	1,219310	2020-10-29T19:42:50:651
7,819021	-5,820391	1,075334	2020-10-29T19:42:50:671
7,462676	-6,296579	0,912111	2020-10-29T19:42:50:689
7,092719	-6,730447	0,751533	2020-10-29T19:42:50:713
6,777830	-7,058184	0,642991	2020-10-29T19:42:50:729
6,568752	-7,259315	0,569401	2020-10-29T19:42:50:752
6,493991	-7,328845	0,535253	2020-10-29T19:42:50:769
6,588239	-7,242291	0,560980	2020-10-29T19:42:50:793
6,826136	-7,012177	0,635322	2020-10-29T19:42:50:810
7,164823	-6,656147	0,728981	2020-10-29T19:42:50:832
7,527071	-6,233442	0,811038	2020-10-29T19:42:50:852
8,014453	-5,578133	0,907394	2020-10-29T19:42:50:873
8,394365	-4,976709	0,968185	2020-10-29T19:42:50:890
8,675967	-4,466188	0,975268	2020-10-29T19:42:50:912
8,804786	-4,226030	0,887024	2020-10-29T19:42:50:930
8,895161	-4,055651	0,773428	2020-10-29T19:42:50:953
8,951621	-3,943269	0,699642	2020-10-29T19:42:50:970
8,992155	-3,857907	0,654280	2020-10-29T19:42:50:992
9,016726	-3,801816	0,644398	2020-10-29T19:42:51:010
9,041482	-3,736307	0,679705	2020-10-29T19:42:51:033
9,109847	-3,549475	0,763082	2020-10-29T19:42:51:050
9,222019	-3,217771	0,877896	2020-10-29T19:42:51:072
9,328449	-2,866389	0,966560	2020-10-29T19:42:51:090
9,397485	-2,643840	0,931544	2020-10-29T19:42:51:113
9,381079	-2,748306	0,782669	2020-10-29T19:42:51:135
9,285739	-3,070033	0,721339	2020-10-29T19:42:51:153
9,047183	-3,721901	0,682870	2020-10-29T19:42:51:171
8,862417	-4,147590	0,652261	2020-10-29T19:42:51:193
8,438694	-4,965765	0,547731	2020-10-29T19:42:51:210
8,167926	-5,410229	0,429884	2020-10-29T19:42:51:232
8,014070	-5,642790	0,322486	2020-10-29T19:42:51:250
7,953188	-5,734397	0,184060	2020-10-29T19:42:51:273
7,933916	-5,763860	0,035894	2020-10-29T19:42:51:290
7,931456	-5,766418	-0,103986	2020-10-29T19:42:51:313
7,950840	-5,736394	-0,219774	2020-10-29T19:42:51:330
8,001359	-5,662010	-0,300461	2020-10-29T19:42:51:353
8,087526	-5,536345	-0,333447	2020-10-29T19:42:51:371
8,112020	-5,501173	-0,320301	2020-10-29T19:42:51:392
8,140121	-5,462780	-0,258550	2020-10-29T19:42:51:410
8,233994	-5,324020	-0,162910	2020-10-29T19:42:51:434
8,242960	-5,312383	-0,050868	2020-10-29T19:42:51:450
8,102007	-5,524549	0,085041	2020-10-29T19:42:51:472
8,272040	-5,258341	0,305920	2020-10-29T19:42:51:490
9,475201	-2,485970	0,459245	2020-10-29T19:42:51:514
9,694143	-1,423472	0,409519	2020-10-29T19:42:51:531
9,762321	-0,884473	0,291862	2020-10-29T19:42:51:553
9,775628	-0,739824	0,245240	2020-10-29T19:42:51:570
9,760314	-0,888533	0,342297	2020-10-29T19:42:51:593
9,729468	-1,140340	0,455475	2020-10-29T19:42:51:613
9,720219	-1,211446	0,469178	2020-10-29T19:42:51:633
9,684700	-1,443607	0,541271	2020-10-29T19:42:51:650
9,621299	-1,777944	0,663254	2020-10-29T19:42:51:674
9,543883	-2,116658	0,777455	2020-10-29T19:42:51:690
9,466359	-2,412576	0,859019	2020-10-29T19:42:51:713
9,404831	-2,626153	0,907119	2020-10-29T19:42:51:731
9,358587	-2,767256	0,964122	2020-10-29T19:42:51:753
9,326803	-2,856175	1,011628	2020-10-29T19:42:51:770
9,304342	-2,913539	1,053989	2020-10-29T19:42:51:793
9,285758	-2,958689	1,091438	2020-10-29T19:42:51:810
9,262969	-3,015130	1,129943	2020-10-29T19:42:51:834
9,237994	-3,080436	1,157913	2020-10-29T19:42:51:852
9,211522	-3,155270	1,167265	2020-10-29T19:42:51:873
9,182705	-3,241597	1,157744	2020-10-29T19:42:51:890
9,148001	-3,347190	1,131719	2020-10-29T19:42:51:915
9,109913	-3,463348	1,088620	2020-10-29T19:42:51:931
9,114041	-3,501007	0,920643	2020-10-29T19:42:51:953
9,131301	-3,501747	0,726283	2020-10-29T19:42:51:971
9,168936	-3,441092	0,509793	2020-10-29T19:42:51:993
5,110955	-8,320210	0,906983	2020-10-29T19:42:52:011
4,667448	-8,600865	0,640655	2020-10-29T19:42:52:033
4,466888	-8,721607	0,388411	2020-10-29T19:42:52:051
4,536618	-8,691094	0,233145	2020-10-29T19:42:52:073
4,778705	-8,563036	0,093748	2020-10-29T19:42:52:091
5,279476	-8,263357	-0,120227	2020-10-29T19:42:52:113
5,704168	-7,971358	-0,300515	2020-10-29T19:42:52:131
6,046791	-7,707006	-0,456915	2020-10-29T19:42:52:154
6,209008	-7,571110	-0,544872	2020-10-29T19:42:52:171
6,359865	-7,439274	-0,616197	2020-10-29T19:42:52:193
6,410285	-7,397775	-0,592926	2020-10-29T19:42:52:211
6,428928	-7,388795	-0,494949	2020-10-29T19:42:52:234
6,404447	-7,421918	-0,261863	2020-10-29T19:42:52:250
6,463925	-7,374616	0,055579	2020-10-29T19:42:52:274
6,677133	-7,172867	0,369134	2020-10-29T19:42:52:291
6,985494	-6,855212	0,615895	2020-10-29T19:42:52:314
7,283029	-6,512752	0,843767	2020-10-29T19:42:52:332
7,597222	-6,107748	1,071453	2020-10-29T19:42:52:383
7,916015	-5,636905	1,316208	2020-10-29T19:42:52:384
8,183473	-5,202861	1,459928	2020-10-29T19:42:52:401
8,419740	-4,790720	1,525574	2020-10-29T19:42:52:433
8,328311	-4,955826	1,499800	2020-10-29T19:42:52:435
8,226860	-5,113559	1,529929	2020-10-29T19:42:52:451
8,144867	-5,229413	1,576314	2020-10-29T19:42:52:475
8,042294	-5,378928	1,599697	2020-10-29T19:42:52:491
7,943793	-5,524932	1,594261	2020-10-29T19:42:52:514
7,859534	-5,644020	1,594725	2020-10-29T19:42:52:532
7,811702	-5,704483	1,614488	2020-10-29T19:42:52:554
7,789608	-5,724865	1,648727	2020-10-29T19:42:52:572
7,792352	-5,706979	1,697064	2020-10-29T19:42:52:593
7,827549	-5,640501	1,756304	2020-10-29T19:42:52:611
7,880329	-5,553581	1,796812	2020-10-29T19:42:52:635
7,942252	-5,463082	1,801594	2020-10-29T19:42:52:651
8,009307	-5,374010	1,772399	2020-10-29T19:42:52:673
8,075331	-5,294525	1,710971	2020-10-29T19:42:52:691
8,131527	-5,227681	1,649241	2020-10-29T19:42:52:715
8,163934	-5,188747	1,611668	2020-10-29T19:42:52:732
8,183633	-5,164742	1,588703	2020-10-29T19:42:52:754
8,199638	-5,141563	1,581341	2020-10-29T19:42:52:772
8,219391	-5,106496	1,592384	2020-10-29T19:42:52:794
8,247574	-5,054108	1,613660	2020-10-29T19:42:52:813
8,263216	-5,018910	1,643224	2020-10-29T19:42:52:834
8,264403	-5,001763	1,688903	2020-10-29T19:42:52:851
8,268229	-4,975809	1,745876	2020-10-29T19:42:52:874
8,276364	-4,935135	1,821161	2020-10-29T19:42:52:891
8,288003	-4,876640	1,922959	2020-10-29T19:42:52:914
8,302035	-4,803912	2,041820	2020-10-29T19:42:52:932
8,312976	-4,726369	2,173996	2020-10-29T19:42:52:955
8,310637	-4,657554	2,326131	2020-10-29T19:42:52:971
8,289975	-4,624191	2,462427	2020-10-29T19:42:52:994
8,205428	-4,715895	2,569371	2020-10-29T19:42:53:012
8,118858	-4,827911	2,635488	2020-10-29T19:42:53:035
8,031891	-4,940237	2,693173	2020-10-29T19:42:53:053
7,935514	-5,079549	2,719593	2020-10-29T19:42:53:073
7,863934	-5,188873	2,721127	2020-10-29T19:42:53:091
7,818662	-5,260789	2,713485	2020-10-29T19:42:53:115
9,548383	-1,985795	1,027324	2020-10-29T19:42:53:132
9,532133	-2,039642	1,071765	2020-10-29T19:42:53:154
9,514847	-2,092752	1,121814	2020-10-29T19:42:53:172
9,501655	-2,130467	1,161918	2020-10-29T19:42:53:195
9,493694	-2,154635	1,182246	2020-10-29T19:42:53:212
9,482131	-2,185769	1,217367	2020-10-29T19:42:53:234
9,473390	-2,210644	1,240289	2020-10-29T19:42:53:252
9,472144	-2,217145	1,238201	2020-10-29T19:42:53:275
9,485250	-2,192783	1,179883	2020-10-29T19:42:53:293
9,503958	-2,150730	1,104325	2020-10-29T19:42:53:314
9,520771	-2,100054	1,055973	2020-10-29T19:42:53:332
9,541496	-2,030749	1,003143	2020-10-29T19:42:53:355
9,558771	-1,969904	0,959037	2020-10-29T19:42:53:372
9,572638	-1,921338	0,918393	2020-10-29T19:42:53:394
9,584062	-1,891745	0,858745	2020-10-29T19:42:53:412
9,587471	-1,889445	0,825092	2020-10-29T19:42:53:435
9,585561	-1,908592	0,802922	2020-10-29T19:42:53:452
9,578336	-1,952677	0,782897	2020-10-29T19:42:53:474
9,564018	-2,044015	0,722459	2020-10-29T19:42:53:493
9,558456	-2,077337	0,700688	2020-10-29T19:42:53:515
9,545723	-2,149577	0,654890	2020-10-29T19:42:53:533
9,534904	-2,212461	0,600832	2020-10-29T19:42:53:554
9,525417	-2,266876	0,545973	2020-10-29T19:42:53:572
9,510563	-2,337281	0,506650	2020-10-29T19:42:53:595
9,494454	-2,407712	0,478167	2020-10-29T19:42:53:612
9,484275	-2,451015	0,459824	2020-10-29T19:42:53:635
9,471877	-2,501552	0,442905	2020-10-29T19:42:53:653
9,468634	-2,514490	0,438975	2020-10-29T19:42:53:675
9,466616	-2,524276	0,426151	2020-10-29T19:42:53:692
9,453824	-2,575569	0,402528	2020-10-29T19:42:53:715
9,386513	-2,813856	0,382056	2020-10-29T19:42:53:733
9,190839	-3,400247	0,370396	2020-10-29T19:42:53:756
8,544244	-4,804477	0,288572	2020-10-29T19:42:53:773
8,247054	-5,301144	0,233153	2020-10-29T19:42:53:794
8,005365	-5,663395	0,102289	2020-10-29T19:42:53:813
8,279085	-5,256146	0,007857	2020-10-29T19:42:53:836
8,545202	-4,811197	-0,047870	2020-10-29T19:42:53:852
8,684224	-4,555045	-0,078765	2020-10-29T19:42:53:875
8,631798	-4,653517	-0,084991	2020-10-29T19:42:53:892
8,493134	-4,902215	-0,073179	2020-10-29T19:42:53:917
8,439784	-4,993575	-0,068161	2020-10-29T19:42:53:933
8,367199	-5,114346	-0,061924	2020-10-29T19:42:53:955
8,329678	-5,175140	-0,069166	2020-10-29T19:42:53:973
8,334091	-5,167655	-0,093012	2020-10-29T19:42:53:995
8,267494	-5,273292	-0,106405	2020-10-29T19:42:54:014
8,229939	-5,331288	-0,125910	2020-10-29T19:42:54:035
8,235317	-5,322296	-0,152006	2020-10-29T19:42:54:052
8,190219	-5,390921	-0,169312	2020-10-29T19:42:54:076
8,104435	-5,518874	-0,174780	2020-10-29T19:42:54:093
7,875150	-5,842572	-0,129423	2020-10-29T19:42:54:115
7,532456	-6,279494	-0,021096	2020-10-29T19:42:54:134
7,453670	-6,372800	0,024519	2020-10-29T19:42:54:156
7,408358	-6,423537	0,157477	2020-10-29T19:42:54:173
7,637571	-6,142053	0,336263	2020-10-29T19:42:54:196
8,026240	-5,608914	0,538450	2020-10-29T19:42:54:213
8,300282	-5,177277	0,686664	2020-10-29T19:42:54:236
8,411150	-4,985939	0,750565	2020-10-29T19:42:54:254
8,418517	-4,970971	0,767075	2020-10-29T19:42:54:275
8,438135	-4,934684	0,785596	2020-10-29T19:42:54:293
8,522326	-4,782428	0,817749	2020-10-29T19:42:54:316
8,616304	-4,604799	0,851773	2020-10-29T19:42:54:333
8,716184	-4,406322	0,884789	2020-10-29T19:42:54:355
8,825995	-4,173651	0,923487	2020-10-29T19:42:54:373
8,931110	-3,934273	0,962884	2020-10-29T19:42:54:396
9,007127	-3,750227	0,988860	2020-10-29T19:42:54:413
9,057192	-3,623644	1,003427	2020-10-29T19:42:54:436
9,093067	-3,535361	0,993845	2020-10-29T19:42:54:453
9,142871	-3,410915	0,971575	2020-10-29T19:42:54:476
9,178004	-3,312180	0,981880	2020-10-29T19:42:54:494
9,203984	-3,230093	1,011709	2020-10-29T19:42:54:516
9,238553	-3,129164	1,013829	2020-10-29T19:42:54:533
9,273410	-3,030172	0,996147	2020-10-29T19:42:54:556
9,301549	-2,943270	0,994355	2020-10-29T19:42:54:573
9,329558	-2,858399	0,979428	2020-10-29T19:42:54:595
9,363408	-2,749420	0,968329	2020-10-29T19:42:54:613
9,395764	-2,640547	0,957867	2020-10-29T19:42:54:637
9,424797	-2,537102	0,952204	2020-10-29T19:42:54:653
9,446653	-2,462227	0,931964	2020-10-29T19:42:54:675
9,460441	-2,410983	0,926077	2020-10-29T19:42:54:693
9,472748	-2,365681	0,917056	2020-10-29T19:42:54:717
9,489038	-2,312253	0,884332	2020-10-29T19:42:54:735
9,504266	-2,266000	0,839378	2020-10-29T19:42:54:756
9,513505	-2,232280	0,824942	2020-10-29T19:42:54:773
9,519371	-2,211366	0,813527	2020-10-29T19:42:54:804
9,517610	-2,216328	0,820596	2020-10-29T19:42:54:813
9,510062	-2,240073	0,843310	2020-10-29T19:42:54:836
9,496062	-2,286147	0,876764	2020-10-29T19:42:54:853
9,474763	-2,356626	0,919550	2020-10-29T19:42:54:876
9,456456	-2,431400	0,913295	2020-10-29T19:42:54:893
9,428969	-2,537924	0,907673	2020-10-29T19:42:54:916
9,394701	-2,667635	0,890900	2020-10-29T19:42:54:934
9,356055	-2,812101	0,852472	2020-10-29T19:42:54:956
9,312669	-2,968209	0,796440	2020-10-29T19:42:54:974
9,265235	-3,127289	0,738828	2020-10-29T19:42:54:996
9,220026	-3,270308	0,683076	2020-10-29T19:42:55:013
9,186773	-3,373833	0,625163	2020-10-29T19:42:55:037
9,170624	-3,425949	0,576982	2020-10-29T19:42:55:054
9,173826	-3,424244	0,534644	2020-10-29T19:42:55:075
9,196766	-3,367980	0,496589	2020-10-29T19:42:55:093
9,229697	-3,279841	0,475096	2020-10-29T19:42:55:117
9,274855	-3,153154	0,452856	2020-10-29T19:42:55:134
9,324039	-3,006226	0,441899	2020-10-29T19:42:55:156
9,383723	-2,819777	0,406185	2020-10-29T19:42:55:174
7,029737	-6,773199	0,936457	2020-10-29T19:42:55:196
7,210621	-6,579668	0,940901	2020-10-29T19:42:55:215
7,508810	-6,232371	0,972470	2020-10-29T19:42:55:236
7,426748	-6,373701	0,624290	2020-10-29T19:42:55:254
7,630323	-6,128717	0,622402	2020-10-29T19:42:55:277
7,881069	-5,794872	0,691805	2020-10-29T19:42:55:294
8,060475	-5,548275	0,644792	2020-10-29T19:42:55:316
8,178516	-5,373537	0,638242	2020-10-29T19:42:55:334
8,343739	-5,114188	0,630466	2020-10-29T19:42:55:357
8,544960	-4,770111	0,632528	2020-10-29T19:42:55:373
8,712700	-4,458322	0,618556	2020-10-29T19:42:55:396
8,828119	-4,228809	0,593178	2020-10-29T19:42:55:414
8,928967	-4,016393	0,559024	2020-10-29T19:42:55:437
8,963569	-3,946632	0,498916	2020-10-29T19:42:55:455
8,943962	-3,998615	0,432440	2020-10-29T19:42:55:476
8,920971	-4,054548	0,383803	2020-10-29T19:42:55:493
8,885504	-4,135642	0,338624	2020-10-29T19:42:55:517
8,870819	-4,169349	0,308994	2020-10-29T19:42:55:534
8,869790	-4,172920	0,289745	2020-10-29T19:42:55:556
8,900805	-4,108196	0,262246	2020-10-29T19:42:55:575
8,903955	-4,101937	0,253142	2020-10-29T19:42:55:597
8,959092	-3,981476	0,230024	2020-10-29T19:42:55:614
9,070386	-3,723338	0,187722	2020-10-29T19:42:55:637
9,660375	-1,685099	0,089340	2020-10-29T19:42:55:654
8,984125	-3,928928	0,139316	2020-10-29T19:42:55:677
8,849334	-4,223379	0,150816	2020-10-29T19:42:55:695
9,207434	-3,370013	0,191202	2020-10-29T19:42:55:717
9,439919	-2,648237	0,212526	2020-10-29T19:42:55:734
9,544021	-2,242478	0,230949	2020-10-29T19:42:55:757
9,592507	-2,022050	0,255947	2020-10-29T19:42:55:774
9,619946	-1,884501	0,275094	2020-10-29T19:42:55:796
9,634285	-1,809426	0,277342	2020-10-29T19:42:55:814
9,639534	-1,782210	0,271117	2020-10-29T19:42:55:837
9,636312	-1,799100	0,274060	2020-10-29T19:42:55:856
9,625092	-1,854712	0,296728	2020-10-29T19:42:55:877
9,629496	-1,834371	0,279790	2020-10-29T19:42:55:895
9,625815	-1,853615	0,279598	2020-10-29T19:42:55:917
9,614514	-1,906992	0,308032	2020-10-29T19:42:55:936
9,609865	-1,927202	0,326740	2020-10-29T19:42:55:957
9,607336	-1,937137	0,342036	2020-10-29T19:42:55:974
9,603369	-1,953165	0,361721	2020-10-29T19:42:55:997
9,590674	-2,006334	0,404932	2020-10-29T19:42:56:015
9,582269	-2,041020	0,429813	2020-10-29T19:42:56:037
9,556828	-2,142476	0,497206	2020-10-29T19:42:56:055
9,530025	-2,243777	0,560784	2020-10-29T19:42:56:077
9,516297	-2,298639	0,571592	2020-10-29T19:42:56:094
9,509351	-2,329094	0,563872	2020-10-29T19:42:56:117
9,489230	-2,401634	0,597531	2020-10-29T19:42:56:137
9,481936	-2,426571	0,612397	2020-10-29T19:42:56:157
9,463078	-2,488627	0,653648	2020-10-29T19:42:56:176
9,442215	-2,554991	0,697846	2020-10-29T19:42:56:197
9,415822	-2,636540	0,749224	2020-10-29T19:42:56:214
9,394745	-2,706861	0,762926	2020-10-29T19:42:56:238
9,365207	-2,802023	0,782270	2020-10-29T19:42:56:255
9,328502	-2,918843	0,793598	2020-10-29T19:42:56:277
9,275443	-3,076334	0,820192	2020-10-29T19:42:56:295
9,219420	-3,239738	0,822657	2020-10-29T19:42:56:318
9,164953	-3,393612	0,810814	2020-10-29T19:42:56:335
9,111730	-3,537496	0,795543	2020-10-29T19:42:56:357
9,066398	-3,657082	0,772375	2020-10-29T19:42:56:375
9,036285	-3,736410	0,745100	2020-10-29T19:42:56:398
9,017615	-3,788777	0,705805	2020-10-29T19:42:56:417
9,027134	-3,769434	0,687462	2020-10-29T19:42:56:437
9,070314	-3,672521	0,642166	2020-10-29T19:42:56:455
9,129063	-3,531539	0,599020	2020-10-29T19:42:56:478
9,194734	-3,362876	0,564198	2020-10-29T19:42:56:495
9,266634	-3,164775	0,532988	2020-10-29T19:42:56:517
9,329291	-2,978578	0,512626	2020-10-29T19:42:56:535
9,404139	-2,741579	0,465082	2020-10-29T19:42:56:559
9,481029	-2,471741	0,413496	2020-10-29T19:42:56:576
9,517236	-2,330265	0,403073	2020-10-29T19:42:56:598
9,568786	-2,118182	0,349335	2020-10-29T19:42:56:616
9,609884	-1,932036	0,296224	2020-10-29T19:42:56:638
9,633150	-1,817623	0,262775	2020-10-29T19:42:56:657
9,637793	-1,793762	0,256420	2020-10-29T19:42:56:677
9,626042	-1,853869	0,269946	2020-10-29T19:42:56:696
9,596727	-1,996107	0,297923	2020-10-29T19:42:56:718
9,559094	-2,167098	0,312696	2020-10-29T19:42:56:736
9,525100	-2,311493	0,316018	2020-10-29T19:42:56:757
9,501126	-2,410408	0,298194	2020-10-29T19:42:56:776
9,471011	-2,528584	0,276772	2020-10-29T19:42:56:798
9,407978	-2,755389	0,261091	2020-10-29T19:42:56:816
9,295994	-3,113076	0,252280	2020-10-29T19:42:56:837
9,107195	-3,628952	0,245140	2020-10-29T19:42:56:856
8,924916	-4,056512	0,246906	2020-10-29T19:42:56:878
8,713202	-4,492832	0,254889	2020-10-29T19:42:56:897
8,362103	-5,117668	0,234696	2020-10-29T19:42:56:918
8,006324	-5,659745	0,190925	2020-10-29T19:42:56:936
7,778448	-5,970565	0,135975	2020-10-29T19:42:56:958
7,658114	-6,125101	0,082582	2020-10-29T19:42:56:976
7,642349	-6,144871	0,073774	2020-10-29T19:42:56:997
7,615994	-6,177565	0,068641	2020-10-29T19:42:57:016
7,617368	-6,175699	0,082592	2020-10-29T19:42:57:039
7,812504	-5,925936	0,135843	2020-10-29T19:42:57:056
8,422667	-5,019505	0,183413	2020-10-29T19:42:57:078
9,517171	-2,355412	0,214170	2020-10-29T19:42:57:097
9,619260	-1,896348	0,209952	2020-10-29T19:42:57:119
9,733603	-1,179209	0,191903	2020-10-29T19:42:57:138
9,744187	-1,088598	0,190138	2020-10-29T19:42:57:158
9,751736	-1,011649	0,224967	2020-10-29T19:42:57:176
9,755815	-0,966541	0,245498	2020-10-29T19:42:57:199
9,761030	-0,915589	0,233172	2020-10-29T19:42:57:216
9,761673	-0,907803	0,236673	2020-10-29T19:42:57:238
9,750839	-0,995167	0,318065	2020-10-29T19:42:57:256
9,735040	-1,108848	0,412107	2020-10-29T19:42:57:279
9,721731	-1,199562	0,468382	2020-10-29T19:42:57:296
9,707339	-1,294539	0,511968	2020-10-29T19:42:57:318
9,689911	-1,401809	0,557626	2020-10-29T19:42:57:336
9,674356	-1,483638	0,613215	2020-10-29T19:42:57:359
9,661906	-1,543028	0,661076	2020-10-29T19:42:57:377
9,651859	-1,584108	0,708942	2020-10-29T19:42:57:398
9,642184	-1,614605	0,769228	2020-10-29T19:42:57:416
9,633484	-1,632392	0,837660	2020-10-29T19:42:57:439
9,620136	-1,663132	0,925935	2020-10-29T19:42:57:456
8,057047	-4,768877	2,917567	2020-10-29T19:42:57:477
7,739590	-4,984373	3,380112	2020-10-29T19:42:57:497
7,366435	-5,201375	3,853792	2020-10-29T19:42:57:519
6,997794	-5,331711	4,332911	2020-10-29T19:42:57:536
6,856282	-5,232900	4,666749	2020-10-29T19:42:57:558
6,442021	-5,183717	5,272554	2020-10-29T19:42:57:577
6,468060	-5,191867	5,232504	2020-10-29T19:42:57:599
6,681949	-5,236097	4,909708	2020-10-29T19:42:57:617
7,065384	-5,231606	4,345230	2020-10-29T19:42:57:639
7,192971	-5,181644	4,193103	2020-10-29T19:42:57:656
7,482899	-5,006144	3,887818	2020-10-29T19:42:57:679
7,757755	-4,812100	3,582081	2020-10-29T19:42:57:696
8,008890	-4,615621	3,274767	2020-10-29T19:42:57:718
8,237651	-4,500592	2,838339	2020-10-29T19:42:57:737
8,373782	-4,478624	2,447875	2020-10-29T19:42:57:759
8,448100	-4,498247	2,136765	2020-10-29T19:42:57:776
8,486211	-4,529459	1,907518	2020-10-29T19:42:57:799
8,515056	-4,542085	1,741744	2020-10-29T19:42:57:817
8,541221	-4,540590	1,612756	2020-10-29T19:42:57:840
8,574785	-4,509109	1,520319	2020-10-29T19:42:57:857
8,609140	-4,470386	1,438311	2020-10-29T19:42:57:878
8,633008	-4,461162	1,318937	2020-10-29T19:42:57:896
8,672328	-4,417457	1,202987	2020-10-29T19:42:57:921
8,719201	-4,350597	1,103734	2020-10-29T19:42:57:938
8,769040	-4,250606	1,098481	2020-10-29T19:42:57:958
8,819115	-4,125998	1,170362	2020-10-29T19:42:57:977
8,866111	-4,009278	1,219896	2020-10-29T19:42:57:999
8,905516	-3,892672	1,307395	2020-10-29T19:42:58:017
8,935921	-3,777008	1,433148	2020-10-29T19:42:58:039
8,960928	-3,662033	1,568968	2020-10-29T19:42:58:057
8,984679	-3,544501	1,697775	2020-10-29T19:42:58:080
9,017844	-3,398818	1,815741	2020-10-29T19:42:58:098
9,072131	-3,189100	1,922618	2020-10-29T19:42:58:119
9,178159	-2,778438	2,052331	2020-10-29T19:42:58:137
9,290551	-2,267942	2,170827	2020-10-29T19:42:58:160
9,375232	-1,891059	2,167790	2020-10-29T19:42:58:177
9,407535	-1,691827	2,192352	2020-10-29T19:42:58:199
9,391716	-1,494537	2,394245	2020-10-29T19:42:58:217
9,291548	-1,329201	2,840905	2020-10-29T19:42:58:240
9,093328	-1,201442	3,469626	2020-10-29T19:42:58:257
8,928538	-1,099297	3,904246	2020-10-29T19:42:58:279
8,742189	-0,998390	4,329865	2020-10-29T19:42:58:297
8,681994	-0,865300	4,477121	2020-10-29T19:42:58:320
8,763217	-0,726912	4,341431	2020-10-29T19:42:58:339
8,923900	-0,581279	4,024488	2020-10-29T19:42:58:359
9,099747	-0,419905	3,631622	2020-10-29T19:42:58:377
9,102304	-0,265641	3,639766	2020-10-29T19:42:58:400
6,946282	-0,289266	6,916348	2020-10-29T19:42:58:417
7,094299	-0,181718	-6,768182	2020-10-29T19:42:58:439
9,360992	-0,163947	-2,918105	2020-10-29T19:42:58:457
8,639943	-0,457678	-4,616524	2020-10-29T19:42:58:480
8,306070	-0,784723	-5,154007	2020-10-29T19:42:58:497
8,420249	-1,053337	-4,915311	2020-10-29T19:42:58:519
8,887535	-1,137764	-3,985924	2020-10-29T19:42:58:537
9,085476	-1,205487	-3,488741	2020-10-29T19:42:58:560
9,202142	-1,253344	-3,149618	2020-10-29T19:42:58:579
9,306019	-1,281538	-2,815324	2020-10-29T19:42:58:599
9,381505	-1,369931	-2,506201	2020-10-29T19:42:58:617
9,450020	-1,470636	-2,169042	2020-10-29T19:42:58:640
9,458413	-1,730521	-1,927201	2020-10-29T19:42:58:657
9,374554	-2,268186	-1,772981	2020-10-29T19:42:58:679
9,135517	-3,142671	-1,684140	2020-10-29T19:42:58:697
8,647872	-4,308965	-1,678547	2020-10-29T19:42:58:720
7,862717	-5,569418	-1,824733	2020-10-29T19:42:58:737
9,521101	-2,262161	-0,633763	2020-10-29T19:42:58:760
9,418665	-2,611269	-0,800259	2020-10-29T19:42:58:777
9,257856	-3,020418	-1,157396	2020-10-29T19:42:58:800
9,056835	-3,387693	-1,633294	2020-10-29T19:42:58:819
8,857398	-3,646653	-2,102097	2020-10-29T19:42:58:840
8,674874	-3,783277	-2,569778	2020-10-29T19:42:58:857
8,545714	-3,901925	-2,813563	2020-10-29T19:42:58:880
8,481885	-3,985393	-2,888710	2020-10-29T19:42:58:897
8,486475	-4,029375	-2,813231	2020-10-29T19:42:58:920
8,554909	-4,030136	-2,596522	2020-10-29T19:42:58:938
8,662170	-3,983611	-2,295220	2020-10-29T19:42:58:960
8,784566	-3,882837	-1,981251	2020-10-29T19:42:58:977
8,927352	-3,694837	-1,679567	2020-10-29T19:42:59:000
9,080001	-3,461408	-1,320083	2020-10-29T19:42:59:019
9,106044	-3,402588	-1,293348	2020-10-29T19:42:59:040
9,141789	-3,255907	-1,413204	2020-10-29T19:42:59:059
9,143223	-3,181574	-1,565071	2020-10-29T19:42:59:080
9,131768	-3,091897	-1,794817	2020-10-29T19:42:59:098
9,128139	-3,016999	-1,935243	2020-10-29T19:42:59:121
9,134568	-2,811040	-2,197293	2020-10-29T19:42:59:138
9,170177	-2,596688	-2,309861	2020-10-29T19:42:59:159
9,234216	-2,332921	-2,336050	2020-10-29T19:42:59:178
9,320103	-2,041638	-2,266667	2020-10-29T19:42:59:200
9,429789	-1,700189	-2,087779	2020-10-29T19:42:59:218
9,520434	-1,333096	-1,937669	2020-10-29T19:42:59:240
9,608566	-0,968309	-1,705350	2020-10-29T19:42:59:257
9,686189	-0,611006	-1,405280	2020-10-29T19:42:59:280
9,794615	-0,130494	-0,467851	2020-10-29T19:42:59:300
9,710799	0,350291	1,322141	2020-10-29T19:42:59:320
7,746503	1,112621	5,909666	2020-10-29T19:42:59:338
2,823617	1,280450	9,303657	2020-10-29T19:42:59:361
2,060870	1,564674	-9,459123	2020-10-29T19:42:59:377
4,953575	2,291686	-8,147432	2020-10-29T19:42:59:400
6,510595	2,840230	-6,761333	2020-10-29T19:42:59:418
7,385260	3,201589	-5,601620	2020-10-29T19:42:59:441
7,915736	3,425772	-4,666433	2020-10-29T19:42:59:458
8,236564	3,554221	-3,961934	2020-10-29T19:42:59:480
8,455348	3,613867	-3,408437	2020-10-29T19:42:59:498
8,612375	3,620923	-2,980990	2020-10-29T19:42:59:521
8,742003	3,569565	-2,646879	2020-10-29T19:42:59:539
8,856137	3,471356	-2,385145	2020-10-29T19:42:59:560
8,973035	3,316241	-2,158140	2020-10-29T19:42:59:578
9,214824	2,853428	-1,765038	2020-10-29T19:42:59:601
9,418160	2,348915	-1,396867	2020-10-29T19:42:59:618
9,519808	2,035829	-1,182814	2020-10-29T19:42:59:640
9,625477	1,619455	-0,947602	2020-10-29T19:42:59:658
9,755697	0,813102	-0,579326	2020-10-29T19:42:59:681
9,798754	0,190643	-0,344198	2020-10-29T19:42:59:698
9,797439	-0,412084	-0,103768	2020-10-29T19:42:59:720
9,757939	-0,964547	0,150497	2020-10-29T19:42:59:738
9,688749	-1,456230	0,421800	2020-10-29T19:42:59:761
9,585473	-1,937013	0,732850	2020-10-29T19:42:59:779
9,427784	-2,471431	1,085959	2020-10-29T19:42:59:800
9,196601	-3,070339	1,471711	2020-10-29T19:42:59:818
9,691809	-1,329459	0,686853	2020-10-29T19:42:59:842
9,624438	-1,654199	0,896769	2020-10-29T19:42:59:859
9,544749	-1,983394	1,065031	2020-10-29T19:42:59:880
9,456349	-2,307981	1,192082	2020-10-29T19:42:59:898
9,363506	-2,618524	1,280024	2020-10-29T19:42:59:921
9,270501	-2,906384	1,334586	2020-10-29T19:42:59:938
9,177647	-3,171756	1,371552	2020-10-29T19:42:59:960
9,079323	-3,429803	1,404539	2020-10-29T19:42:59:978
9,010863	-3,626738	1,349632	2020-10-29T19:43:00:001
8,945743	-3,806123	1,287440	2020-10-29T19:43:00:020
8,896345	-3,944381	1,211317	2020-10-29T19:43:00:041
8,861660	-4,048247	1,119401	2020-10-29T19:43:00:058
8,821160	-4,151350	1,060097	2020-10-29T19:43:00:081
8,791032	-4,233232	0,983816	2020-10-29T19:43:00:098
8,773775	-4,289544	0,889421	2020-10-29T19:43:00:121
8,774421	-4,307723	0,789595	2020-10-29T19:43:00:139
8,786501	-4,293809	0,728687	2020-10-29T19:43:00:161
8,828585	-4,204053	0,743243	2020-10-29T19:43:00:179
8,843010	-4,156076	0,835817	2020-10-29T19:43:00:201
8,870062	-4,081502	0,913087	2020-10-29T19:43:00:219
8,936901	-3,918135	0,974880	2020-10-29T19:43:00:241
9,051912	-3,643270	0,979718	2020-10-29T19:43:00:260
9,184892	-3,289791	0,992689	2020-10-29T19:43:00:280
9,312435	-2,914302	0,977635	2020-10-29T19:43:00:299
9,418474	-2,573510	0,916389	2020-10-29T19:43:00:321
9,507529	-2,247494	0,852077	2020-10-29T19:43:00:339
9,576694	-1,959598	0,785674	2020-10-29T19:43:00:361
9,633162	-1,688007	0,723318	2020-10-29T19:43:00:379
9,669259	-1,486934	0,681789	2020-10-29T19:43:00:401
9,699827	-1,282233	0,663030	2020-10-29T19:43:00:420
9,705626	-1,234702	0,668375	2020-10-29T19:43:00:441
9,700646	-1,228921	0,746729	2020-10-29T19:43:00:459
9,692741	-1,235773	0,833073	2020-10-29T19:43:00:481
9,688726	-1,224994	0,893507	2020-10-29T19:43:00:500
9,689844	-1,202329	0,911982	2020-10-29T19:43:00:521
9,694557	-1,180220	0,890520	2020-10-29T19:43:00:539
9,700888	-1,173321	0,828541	2020-10-29T19:43:00:562
9,703424	-1,209455	0,742415	2020-10-29T19:43:00:579
9,692170	-1,336668	0,667482	2020-10-29T19:43:00:601
9,654101	-1,618828	0,590007	2020-10-29T19:43:00:619
9,576030	-2,048818	0,521905	2020-10-29T19:43:00:642
9,344070	-2,945137	0,429995	2020-10-29T19:43:00:659
8,836866	-4,241860	0,294615	2020-10-29T19:43:00:681
8,858623	-4,202303	0,189328	2020-10-29T19:43:00:699
9,205622	-3,375987	0,172095	2020-10-29T19:43:00:722
9,410990	-2,750412	0,197211	2020-10-29T19:43:00:741
9,512434	-2,374002	0,219324	2020-10-29T19:43:00:761
9,453942	-2,594448	0,249401	2020-10-29T19:43:00:779
9,229939	-3,296428	0,334930	2020-10-29T19:43:00:802
9,134895	-3,532620	0,494635	2020-10-29T19:43:00:820
9,164464	-3,445826	0,556114	2020-10-29T19:43:00:841
9,105528	-3,612238	0,459878	2020-10-29T19:43:00:859
9,011578	-3,852793	0,343268	2020-10-29T19:43:00:882
8,850263	-4,216482	0,253986	2020-10-29T19:43:00:899
8,824116	-4,268857	0,286749	2020-10-29T19:43:00:922
8,829169	-4,247993	0,413165	2020-10-29T19:43:00:940
8,717030	-4,459984	0,540671	2020-10-29T19:43:00:962
8,348081	-5,098800	0,694389	2020-10-29T19:43:00:981
8,233797	-5,276741	0,728688	2020-10-29T19:43:01:001
8,072371	-5,508393	0,815353	2020-10-29T19:43:01:019
7,996014	-5,601728	0,924544	2020-10-29T19:43:01:043
7,972185	-5,612239	1,057081	2020-10-29T19:43:01:059
7,955216	-5,606771	1,203759	2020-10-29T19:43:01:091
7,844255	-5,730725	1,340457	2020-10-29T19:43:01:099
7,705606	-5,871957	1,521235	2020-10-29T19:43:01:123
7,670098	-5,858681	1,736617	2020-10-29T19:43:01:140
7,643507	-5,832884	1,929935	2020-10-29T19:43:01:161
7,618536	-5,800764	2,116469	2020-10-29T19:43:01:180
7,476516	-5,933522	2,250645	2020-10-29T19:43:01:202
7,340406	-6,062525	2,352577	2020-10-29T19:43:01:221
7,228712	-6,180069	2,392249	2020-10-29T19:43:01:242
7,160345	-6,266945	2,371759	2020-10-29T19:43:01:260
7,149968	-6,278390	2,372797	2020-10-29T19:43:01:282
7,212865	-6,203691	2,378902	2020-10-29T19:43:01:300
7,353202	-6,086299	2,248947	2020-10-29T19:43:01:322
7,417417	-6,065660	2,088084	2020-10-29T19:43:01:340
7,471477	-6,061790	1,897924	2020-10-29T19:43:01:362
7,541667	-6,032031	1,705357	2020-10-29T19:43:01:380
7,675982	-5,898675	1,566949	2020-10-29T19:43:01:402
7,908526	-5,599268	1,507908	2020-10-29T19:43:01:420
8,195806	-5,163281	1,529601	2020-10-29T19:43:01:443
8,640831	-4,330419	1,659486	2020-10-29T19:43:01:462
8,749067	-4,083870	1,716451	2020-10-29T19:43:01:482
8,942455	-3,577699	1,844709	2020-10-29T19:43:01:500
9,125264	-3,067039	1,869014	2020-10-29T19:43:01:523
9,300507	-2,469584	1,890006	2020-10-29T19:43:01:540
9,396519	-2,157326	1,794926	2020-10-29T19:43:01:563
9,420231	-2,174792	1,643139	2020-10-29T19:43:01:580
9,413471	-2,374378	1,385378	2020-10-29T19:43:01:604
9,575281	-1,756543	1,182761	2020-10-29T19:43:01:620
9,724848	-0,244307	1,240172	2020-10-29T19:43:01:642
9,650981	0,904930	1,486627	2020-10-29T19:43:01:660
9,557245	1,344207	1,738549	2020-10-29T19:43:01:683
9,517285	1,381176	1,919379	2020-10-29T19:43:01:701
9,412086	1,508051	2,304081	2020-10-29T19:43:01:722
9,271872	1,613651	2,756612	2020-10-29T19:43:01:740
9,076603	1,765158	3,266477	2020-10-29T19:43:01:763
8,821177	2,004581	3,786670	2020-10-29T19:43:01:781
8,559306	2,325381	4,183451	2020-10-29T19:43:01:802
8,348497	2,687180	4,387714	2020-10-29T19:43:01:820
8,261654	2,995327	4,352410	2020-10-29T19:43:01:844
8,290569	3,221019	4,130603	2020-10-29T19:43:01:860
8,573832	3,196280	3,527547	2020-10-29T19:43:01:882
8,745258	3,239749	3,032305	2020-10-29T19:43:01:900
8,916221	3,159111	2,586775	2020-10-29T19:43:01:923
9,090202	2,962113	2,182771	2020-10-29T19:43:01:942
9,127185	2,975707	2,002512	2020-10-29T19:43:01:962
9,178712	2,934514	1,819409	2020-10-29T19:43:01:981
9,277958	2,743740	1,600556	2020-10-29T19:43:02:003
9,417233	2,391161	1,329832	2020-10-29T19:43:02:021
9,556792	1,950443	1,016800	2020-10-29T19:43:02:042
9,678646	1,411274	0,708873	2020-10-29T19:43:02:060
9,776959	0,624017	0,438241	2020-10-29T19:43:02:083
9,782537	-0,645193	0,236800	2020-10-29T19:43:02:100
9,528766	-2,314378	0,129114	2020-10-29T19:43:02:123
8,948891	-4,009230	0,117490	2020-10-29T19:43:02:141
8,408968	-5,040218	0,236317	2020-10-29T19:43:02:163
8,253036	-5,278119	0,446350	2020-10-29T19:43:02:182
8,101994	-5,494446	0,582367	2020-10-29T19:43:02:202
7,825462	-5,872164	0,670979	2020-10-29T19:43:02:221
7,596472	-6,149243	0,806731	2020-10-29T19:43:02:244
7,261499	-6,536401	0,846449	2020-10-29T19:43:02:261
6,790081	-7,036700	0,741649	2020-10-29T19:43:02:282
6,240009	-7,550256	0,475722	2020-10-29T19:43:02:301
5,669158	-8,000871	0,130748	2020-10-29T19:43:02:324
5,157938	-8,338293	-0,197281	2020-10-29T19:43:02:341
4,764616	-8,562054	-0,400076	2020-10-29T19:43:02:363
4,405225	-8,745353	-0,532143	2020-10-29T19:43:02:381
4,139071	-8,870066	-0,600348	2020-10-29T19:43:02:403
3,961020	-8,949602	-0,620742	2020-10-29T19:43:02:422
3,889443	-8,983336	-0,585054	2020-10-29T19:43:02:443
3,915038	-8,977266	-0,501552	2020-10-29T19:43:02:460
4,009898	-8,940209	-0,404669	2020-10-29T19:43:02:484
4,270562	-8,825527	-0,206783	2020-10-29T19:43:02:501
4,402679	-8,762039	-0,116093	2020-10-29T19:43:02:523
4,759212	-8,574122	0,068647	2020-10-29T19:43:02:541
4,988647	-8,442943	-0,022506	2020-10-29T19:43:02:564
5,407138	-8,180863	0,081983	2020-10-29T19:43:02:581
5,944692	-7,792290	0,333532	2020-10-29T19:43:02:603
6,298324	-7,506347	0,395299	2020-10-29T19:43:02:621
6,618992	-7,225077	0,396986	2020-10-29T19:43:02:644
7,146830	-6,705007	0,368896	2020-10-29T19:43:02:663
7,326051	-6,508854	0,366294	2020-10-29T19:43:02:684
7,757849	-5,986323	0,387429	2020-10-29T19:43:02:701
8,184547	-5,385231	0,427616	2020-10-29T19:43:02:724
8,509706	-4,850287	0,479581	2020-10-29T19:43:02:741
8,753366	-4,387092	0,549897	2020-10-29T19:43:02:763
9,258138	-3,146960	0,744250	2020-10-29T19:43:02:781
9,640650	-1,621717	0,773493	2020-10-29T19:43:02:804
9,758072	-0,725374	0,651346	2020-10-29T19:43:02:821
9,788110	-0,281729	0,532845	2020-10-29T19:43:02:843
9,792514	-0,220918	0,477750	2020-10-29T19:43:02:861
9,791690	-0,296713	0,452937	2020-10-29T19:43:02:884
9,710829	-1,286687	0,463285	2020-10-29T19:43:02:904
9,249339	-3,235808	0,386860	2020-10-29T19:43:02:924
9,402875	-2,769001	0,298267	2020-10-29T19:43:02:941
9,570539	-2,119144	0,290483	2020-10-29T19:43:02:964
9,571106	-2,121055	0,255823	2020-10-29T19:43:02:981
9,513779	-2,371528	0,185058	2020-10-29T19:43:03:003
9,437757	-2,662458	0,102113	2020-10-29T19:43:03:022
9,350405	-2,956237	0,031214	2020-10-29T19:43:03:045
9,267733	-3,206109	-0,019526	2020-10-29T19:43:03:061
9,204493	-3,383146	-0,044947	2020-10-29T19:43:03:083
9,150745	-3,525846	-0,051557	2020-10-29T19:43:03:101
9,080380	-3,703382	-0,045047	2020-10-29T19:43:03:124
8,899058	-4,120321	-0,010191	2020-10-29T19:43:03:144
8,870888	-4,180634	0,005561	2020-10-29T19:43:03:164
8,746054	-4,435668	0,042245	2020-10-29T19:43:03:182
8,543907	-4,813067	0,080107	2020-10-29T19:43:03:204
8,302300	-5,217983	0,121832	2020-10-29T19:43:03:222
8,827556	-4,263263	0,263113	2020-10-29T19:43:03:244
9,494599	-2,427554	0,360486	2020-10-29T19:43:03:261
9,617401	-1,867567	0,433784	2020-10-29T19:43:03:284
9,590465	-1,971734	0,552849	2020-10-29T19:43:03:301
9,521523	-2,229172	0,736054	2020-10-29T19:43:03:324
9,425384	-2,553305	0,901757	2020-10-29T19:43:03:342
9,270077	-3,039154	0,999801	2020-10-29T19:43:03:364
8,996390	-3,741527	1,111895	2020-10-29T19:43:03:384
8,912901	-3,924754	1,151907	2020-10-29T19:43:03:404
8,734621	-4,260808	1,312361	2020-10-29T19:43:03:422
8,583907	-4,481372	1,550558	2020-10-29T19:43:03:445
8,429588	-4,666114	1,827514	2020-10-29T19:43:03:462
8,241865	-4,884174	2,094489	2020-10-29T19:43:03:484
8,049066	-5,088474	2,343151	2020-10-29T19:43:03:502
7,956720	-5,119335	2,579418	2020-10-29T19:43:03:525
7,877533	-5,144738	2,765236	2020-10-29T19:43:03:542
7,740427	-5,296123	2,864833	2020-10-29T19:43:03:564
7,623049	-5,438655	2,912137	2020-10-29T19:43:03:582
7,529624	-5,564179	2,918058	2020-10-29T19:43:03:605
7,458491	-5,677232	2,882764	2020-10-29T19:43:03:623
7,379416	-5,825373	2,789200	2020-10-29T19:43:03:644
7,276435	-6,007712	2,670445	2020-10-29T19:43:03:662
7,163169	-6,196297	2,542696	2020-10-29T19:43:03:685
7,048691	-6,381988	2,399286	2020-10-29T19:43:03:702
6,938756	-6,593814	2,132054	2020-10-29T19:43:03:724
6,801349	-6,822176	1,835740	2020-10-29T19:43:03:742
6,704070	-6,966043	1,643188	2020-10-29T19:43:03:765
6,668202	-7,045779	1,436129	2020-10-29T19:43:03:782
6,723347	-7,031797	1,233211	2020-10-29T19:43:03:804
6,887229	-6,902917	1,042207	2020-10-29T19:43:03:822
7,137146	-6,666203	0,890654	2020-10-29T19:43:03:846
7,455524	-6,322197	0,784455	2020-10-29T19:43:03:863
7,831712	-5,855934	0,736681	2020-10-29T19:43:03:884
8,235280	-5,268132	0,772875	2020-10-29T19:43:03:902
8,624053	-4,577935	0,915752	2020-10-29T19:43:03:927
8,962560	-3,803397	1,173486	2020-10-29T19:43:03:943
9,224468	-2,950302	1,541198	2020-10-29T19:43:03:964
9,380836	-2,020740	2,021610	2020-10-29T19:43:03:982
9,397261	-1,124117	2,568705	2020-10-29T19:43:04:005
9,279448	-0,300087	3,157876	2020-10-29T19:43:04:022
9,078721	0,352956	3,690885	2020-10-29T19:43:04:045
8,849436	0,852790	4,138916	2020-10-29T19:43:04:062
8,644318	1,203548	4,471871	2020-10-29T19:43:04:085
8,664907	1,298470	4,404968	2020-10-29T19:43:04:105
8,702673	1,276137	4,336512	2020-10-29T19:43:04:125
8,801078	1,187358	4,159519	2020-10-29T19:43:04:142
8,903790	1,068864	3,968681	2020-10-29T19:43:04:165
8,838221	1,138463	4,093915	2020-10-29T19:43:04:183
8,731283	1,239012	4,289514	2020-10-29T19:43:04:204
8,539726	1,384796	4,617987	2020-10-29T19:43:04:223
8,606885	1,294201	4,518514	2020-10-29T19:43:04:246
8,688520	1,202889	4,385551	2020-10-29T19:43:04:263
8,795373	1,109416	4,192970	2020-10-29T19:43:04:285
8,936069	1,003988	3,912678	2020-10-29T19:43:04:303
9,116209	0,860595	3,510625	2020-10-29T19:43:04:326
9,307744	0,673399	3,013772	2020-10-29T19:43:04:344
9,296974	0,754162	3,027853	2020-10-29T19:43:04:365
9,307190	0,834028	2,975064	2020-10-29T19:43:04:383
9,329526	0,901494	2,884031	2020-10-29T19:43:04:406
9,349471	0,967963	2,796574	2020-10-29T19:43:04:424
9,357731	1,048653	2,739267	2020-10-29T19:43:04:446
9,363281	1,128780	2,687975	2020-10-29T19:43:04:463
9,398722	1,124209	2,563311	2020-10-29T19:43:04:486
9,451560	0,994312	2,418624	2020-10-29T19:43:04:503
9,514380	0,740939	2,257869	2020-10-29T19:43:04:525
9,652089	0,270020	1,713084	2020-10-29T19:43:04:543
9,770016	-0,376134	0,758755	2020-10-29T19:43:04:566
9,736642	-1,166116	-0,091450	2020-10-29T19:43:04:584
9,681035	-1,539031	-0,281652	2020-10-29T19:43:04:605
9,549305	-2,147130	-0,609088	2020-10-29T19:43:04:623
9,395701	-2,647644	-0,938703	2020-10-29T19:43:04:647
9,224343	-3,092879	-1,231246	2020-10-29T19:43:04:663
9,023553	-3,499255	-1,581483	2020-10-29T19:43:04:685
8,761961	-3,914354	-2,018975	2020-10-29T19:43:04:703
8,455175	-4,311482	-2,468099	2020-10-29T19:43:04:727
8,130889	-4,678370	-2,858650	2020-10-29T19:43:04:744
7,813147	-5,091183	-3,033972	2020-10-29T19:43:04:765
7,537854	-5,471674	-3,067885	2020-10-29T19:43:04:783
7,355915	-5,770396	-2,960310	2020-10-29T19:43:04:808
7,156172	-6,122411	-2,734166	2020-10-29T19:43:04:826
7,088803	-6,223767	-2,680294	2020-10-29T19:43:04:846
6,959073	-6,410913	-2,577186	2020-10-29T19:43:04:863
6,875709	-6,534042	-2,490242	2020-10-29T19:43:04:886
6,821993	-6,612431	-2,430341	2020-10-29T19:43:04:904
6,749055	-6,683779	-2,438800	2020-10-29T19:43:04:925
6,711127	-6,720132	-2,443559	2020-10-29T19:43:04:944
6,703305	-6,728883	-2,440947	2020-10-29T19:43:04:966
6,737036	-6,705443	-2,412419	2020-10-29T19:43:04:983
6,847372	-6,643965	-2,267512	2020-10-29T19:43:05:005
7,021405	-6,521241	-2,084148	2020-10-29T19:43:05:024
7,248274	-6,340138	-1,853523	2020-10-29T19:43:05:047
7,504691	-6,105731	-1,603139	2020-10-29T19:43:05:065
7,795464	-5,785049	-1,390804	2020-10-29T19:43:05:085
8,095618	-5,413343	-1,151985	2020-10-29T19:43:05:103
8,399821	-4,979068	-0,906792	2020-10-29T19:43:05:127
8,693365	-4,486454	-0,683755	2020-10-29T19:43:05:144
8,924809	-4,034349	-0,492143	2020-10-29T19:43:05:165
9,079658	-3,690433	-0,333024	2020-10-29T19:43:05:184
9,197958	-3,393986	-0,220929	2020-10-29T19:43:05:207
9,371362	-2,885496	-0,147930	2020-10-29T19:43:05:224
9,500936	-2,427212	-0,106042	2020-10-29T19:43:05:246
9,556255	-2,200586	-0,076054	2020-10-29T19:43:05:264
9,597145	-2,015597	-0,050661	2020-10-29T19:43:05:288
9,491374	-2,466230	-0,043735	2020-10-29T19:43:05:306
9,402814	-2,784925	-0,040827	2020-10-29T19:43:05:327
9,259629	-3,229452	-0,016755	2020-10-29T19:43:05:344
9,010845	-3,869681	0,024961	2020-10-29T19:43:05:368
8,785082	-4,357493	0,070558	2020-10-29T19:43:05:384
8,575378	-4,755943	0,119498	2020-10-29T19:43:05:407
8,406521	-5,047420	0,156048	2020-10-29T19:43:05:424
8,314720	-5,197172	0,158811	2020-10-29T19:43:05:448
8,273091	-5,263965	0,130462	2020-10-29T19:43:05:464
8,287244	-5,242894	0,063511	2020-10-29T19:43:05:487
8,302603	-5,218900	-0,015696	2020-10-29T19:43:05:504
8,220003	-5,347109	-0,101793	2020-10-29T19:43:05:527
8,051392	-5,595887	-0,177551	2020-10-29T19:43:05:545
7,815429	-5,917818	-0,262460	2020-10-29T19:43:05:567
7,607108	-6,176748	-0,387397	2020-10-29T19:43:05:584
7,385395	-6,428308	-0,550628	2020-10-29T19:43:05:608
7,180392	-6,640636	-0,717150	2020-10-29T19:43:05:625
6,978419	-6,839561	-0,832142	2020-10-29T19:43:05:647
6,818125	-6,991335	-0,897104	2020-10-29T19:43:05:664
6,688110	-7,115035	-0,903240	2020-10-29T19:43:05:687
6,607134	-7,196528	-0,852144	2020-10-29T19:43:05:704
6,578014	-7,234120	-0,753398	2020-10-29T19:43:05:727
6,596637	-7,229768	-0,620662	2020-10-29T19:43:05:744
6,652734	-7,190506	-0,456215	2020-10-29T19:43:05:767
6,776332	-7,081071	-0,331879	2020-10-29T19:43:05:785
6,927897	-6,938234	-0,188502	2020-10-29T19:43:05:806
7,077247	-6,788387	-0,027575	2020-10-29T19:43:05:824
7,370373	-6,467089	0,157288	2020-10-29T19:43:05:848
8,391981	-5,063799	0,320899	2020-10-29T19:43:05:866
9,399558	-2,772628	0,362262	2020-10-29T19:43:05:886
9,637503	-1,775738	0,368348	2020-10-29T19:43:05:904
9,708321	-1,331965	0,380479	2020-10-29T19:43:05:928
9,738614	-1,086268	0,387052	2020-10-29T19:43:05:944
9,748569	-0,975960	0,428120	2020-10-29T19:43:05:967
9,744067	-0,991651	0,490069	2020-10-29T19:43:05:984
9,730691	-1,075838	0,571502	2020-10-29T19:43:06:007
9,700819	-1,261908	0,687082	2020-10-29T19:43:06:027
9,690273	-1,330038	0,707103	2020-10-29T19:43:06:047
9,667183	-1,464695	0,755396	2020-10-29T19:43:06:064
9,637903	-1,612297	0,825648	2020-10-29T19:43:06:088
9,604540	-1,755950	0,916430	2020-10-29T19:43:06:104
9,559372	-1,925201	1,040379	2020-10-29T19:43:06:127
9,507031	-2,102075	1,169624	2020-10-29T19:43:06:145
9,449587	-2,301660	1,256204	2020-10-29T19:43:06:168
9,381083	-2,518790	1,349575	2020-10-29T19:43:06:185
9,300976	-2,763566	1,423000	2020-10-29T19:43:06:207
9,207263	-3,040090	1,467838	2020-10-29T19:43:06:225
9,101206	-3,336417	1,485514	2020-10-29T19:43:06:248
8,987522	-3,636798	1,472594	2020-10-29T19:43:06:265
8,868165	-3,933584	1,432813	2020-10-29T19:43:06:287
8,751341	-4,208481	1,368610	2020-10-29T19:43:06:304
8,632929	-4,470837	1,286292	2020-10-29T19:43:06:328
8,524568	-4,692149	1,218963	2020-10-29T19:43:06:345
8,429287	-4,872671	1,172426	2020-10-29T19:43:06:367
8,292837	-5,097270	1,190410	2020-10-29T19:43:06:385
8,255002	-5,156199	1,199563	2020-10-29T19:43:06:408
8,285144	-5,091426	1,266553	2020-10-29T19:43:06:425
8,293890	-5,046286	1,384477	2020-10-29T19:43:06:447
8,204567	-5,161401	1,488425	2020-10-29T19:43:06:465
8,119521	-5,259220	1,607597	2020-10-29T19:43:06:488
8,093465	-5,271563	1,696124	2020-10-29T19:43:06:506
8,128279	-5,203216	1,740119	2020-10-29T19:43:06:527
8,298861	-4,920275	1,757896	2020-10-29T19:43:06:545
8,411515	-4,742301	1,710959	2020-10-29T19:43:06:569
8,516521	-4,573354	1,650364	2020-10-29T19:43:06:585
8,650830	-4,333252	1,598888	2020-10-29T19:43:06:607
8,762282	-4,116305	1,564874	2020-10-29T19:43:06:625
8,836533	-3,968328	1,529199	2020-10-29T19:43:06:649
8,904264	-3,834927	1,475737	2020-10-29T19:43:06:665
9,003353	-3,633893	1,380162	2020-10-29T19:43:06:687
9,162011	-3,244465	1,304371	2020-10-29T19:43:06:705
9,340688	-2,708297	1,259785	2020-10-29T19:43:06:729
9,508438	-2,064258	1,224266	2020-10-29T19:43:06:746
9,639765	-1,406744	1,125340	2020-10-29T19:43:06:768
9,734922	-0,682773	0,967207	2020-10-29T19:43:06:787
9,780976	-0,078831	0,704748	2020-10-29T19:43:06:809
9,785910	0,016883	0,637231	2020-10-29T19:43:06:825
9,789382	0,048887	0,579651	2020-10-29T19:43:06:847
9,790036	-0,011163	0,570480	2020-10-29T19:43:06:865
9,787276	-0,158061	0,595505	2020-10-29T19:43:06:888
9,778522	-0,378510	0,638439	2020-10-29T19:43:06:905
9,761816	-0,639765	0,684126	2020-10-29T19:43:06:928
9,740297	-0,880409	0,722413	2020-10-29T19:43:06:945
9,705716	-1,168974	0,776499	2020-10-29T19:43:06:969
9,689363	-1,279575	0,805810	2020-10-29T19:43:06:988
9,684654	-1,306626	0,818895	2020-10-29T19:43:07:008
9,679235	-1,334251	0,838193	2020-10-29T19:43:07:025
9,673912	-1,359447	0,858905	2020-10-29T19:43:07:049
9,666424	-1,398625	0,880047	2020-10-29T19:43:07:065
9,657675	-1,447486	0,896929	2020-10-29T19:43:07:087
9,653381	-1,468884	0,908295	2020-10-29T19:43:07:105
9,645384	-1,511611	0,923028	2020-10-29T19:43:07:129
9,631436	-1,580844	0,952233	2020-10-29T19:43:07:145
9,609322	-1,681171	1,002487	2020-10-29T19:43:07:168
9,579636	-1,805065	1,068972	2020-10-29T19:43:07:186
9,549367	-1,929494	1,121168	2020-10-29T19:43:07:209
9,530129	-2,018800	1,127591	2020-10-29T19:43:07:228
9,509146	-2,105271	1,146458	2020-10-29T19:43:07:248
9,469578	-2,229471	1,235697	2020-10-29T19:43:07:265
9,420484	-2,365769	1,352038	2020-10-29T19:43:07:289
9,385551	-2,478091	1,393155	2020-10-29T19:43:07:305
9,344204	-2,606258	1,436542	2020-10-29T19:43:07:328
9,284987	-2,757571	1,534665	2020-10-29T19:43:07:346
9,268283	-2,851721	1,461852	2020-10-29T19:43:07:369
9,238636	-2,967293	1,418862	2020-10-29T19:43:07:385
5,461586	-7,427556	3,342585	2020-10-29T19:43:07:408
5,144097	-7,703713	3,218920	2020-10-29T19:43:07:426
4,864963	-7,951651	3,045285	2020-10-29T19:43:07:449
4,479595	-8,252504	2,828389	2020-10-29T19:43:07:468
4,368661	-8,327419	2,781956	2020-10-29T19:43:07:488
3,888523	-8,573243	2,747593	2020-10-29T19:43:07:505
4,004859	-8,520308	2,745150	2020-10-29T19:43:07:529
4,011476	-8,544494	2,658961	2020-10-29T19:43:07:547
3,993056	-8,562463	2,628711	2020-10-29T19:43:07:568
3,902126	-8,622839	2,567188	2020-10-29T19:43:07:586
3,821726	-8,708798	2,391994	2020-10-29T19:43:07:609
3,749334	-8,769760	2,281268	2020-10-29T19:43:07:626
3,705332	-8,798541	2,242002	2020-10-29T19:43:07:649
3,700217	-8,791205	2,278921	2020-10-29T19:43:07:666
3,731717	-8,742952	2,409452	2020-10-29T19:43:07:689
3,836562	-8,626552	2,652127	2020-10-29T19:43:07:708
3,889375	-8,583990	2,712610	2020-10-29T19:43:07:728
3,999023	-8,486667	2,855640	2020-10-29T19:43:07:746
4,131082	-8,362199	3,029553	2020-10-29T19:43:07:769
4,315477	-8,191049	3,233229	2020-10-29T19:43:07:787
4,484519	-7,974963	3,529792	2020-10-29T19:43:07:808
4,586979	-7,725276	3,930665	2020-10-29T19:43:07:826
4,497206	-7,474033	4,481556	2020-10-29T19:43:07:849
4,220716	-7,161106	5,203316	2020-10-29T19:43:07:866
3,636389	-6,754918	6,108858	2020-10-29T19:43:07:888
2,960790	-6,504571	6,715256	2020-10-29T19:43:07:906
2,251820	-6,326259	7,146897	2020-10-29T19:43:07:929
1,554988	-6,166807	7,464777	2020-10-29T19:43:07:947
0,778491	-5,924724	7,775730	2020-10-29T19:43:07:968
8,306077	-2,825620	4,381248	2020-10-29T19:43:07:986
8,058566	-2,628277	4,931739	2020-10-29T19:43:08:010
7,832752	-2,421215	5,381087	2020-10-29T19:43:08:027
8,851286	-2,724194	-3,225506	2020-10-29T19:43:08:049
8,960530	-2,728812	-2,903940	2020-10-29T19:43:08:066
9,098835	-2,646840	-2,525041	2020-10-29T19:43:08:089
9,219250	-2,547377	-2,164875	2020-10-29T19:43:08:106
9,336632	-2,419898	-1,772509	2020-10-29T19:43:08:129
9,431781	-2,282326	-1,415235	2020-10-29T19:43:08:147
9,506392	-2,131454	-1,120627	2020-10-29T19:43:08:169
9,548421	-2,000683	-0,997652	2020-10-29T19:43:08:188
9,595795	-1,929776	-0,605860	2020-10-29T19:43:08:208
9,633015	-1,797856	-0,378314	2020-10-29T19:43:08:227
9,628613	-1,856319	-0,119523	2020-10-29T19:43:08:250
9,658819	-1,694193	-0,085476	2020-10-29T19:43:08:266
9,687433	-1,494288	0,301857	2020-10-29T19:43:08:289
9,689238	-1,388258	0,601498	2020-10-29T19:43:08:307
9,660713	-1,210612	1,172785	2020-10-29T19:43:08:330
9,614466	-1,058421	1,616223	2020-10-29T19:43:08:347
9,570325	-0,937757	1,923506	2020-10-29T19:43:08:369
9,498867	-0,788538	2,306539	2020-10-29T19:43:08:387
9,408914	-0,618257	2,694530	2020-10-29T19:43:08:410
9,227839	-0,363926	3,299231	2020-10-29T19:43:08:429
9,166714	-0,285295	3,472801	2020-10-29T19:43:08:449
9,069283	-0,174849	3,726651	2020-10-29T19:43:08:467
8,990727	-0,105467	3,914854	2020-10-29T19:43:08:490
8,905615	-0,047354	4,105871	2020-10-29T19:43:08:507
8,794016	-0,002314	4,340008	2020-10-29T19:43:08:529
8,696735	0,005542	4,531793	2020-10-29T19:43:08:547
8,617373	0,006286	4,680942	2020-10-29T19:43:08:570
8,442485	0,047142	4,989250	2020-10-29T19:43:08:587
8,332364	0,123974	5,169790	2020-10-29T19:43:08:609
8,309082	0,095875	5,207719	2020-10-29T19:43:08:627
8,253599	0,122950	5,294655	2020-10-29T19:43:08:650
8,160225	0,193134	5,435422	2020-10-29T19:43:08:678
8,079359	0,262830	5,552050	2020-10-29T19:43:08:689
8,050865	0,279380	5,592486	2020-10-29T19:43:08:707
8,124763	0,222340	5,487183	2020-10-29T19:43:08:730
8,259052	0,141076	5,285692	2020-10-29T19:43:08:747
8,407323	0,069036	5,048023	2020-10-29T19:43:08:769
8,818504	-0,029994	4,289925	2020-10-29T19:43:08:787
5,275914	-0,077411	8,266143	2020-10-29T19:43:08:809
7,132103	-0,169539	6,728651	2020-10-29T19:43:08:827
7,202921	-0,291552	6,648557	2020-10-29T19:43:08:849
7,377748	-0,385414	6,449083	2020-10-29T19:43:08:867
7,429132	-0,508364	6,381218	2020-10-29T19:43:08:890
7,487846	-0,616785	6,302549	2020-10-29T19:43:08:908
7,690852	-0,712041	6,042696	2020-10-29T19:43:08:931
7,731320	-0,760843	5,984830	2020-10-29T19:43:08:948
7,722512	-0,943283	5,970211	2020-10-29T19:43:08:970
7,808802	-1,033106	5,841720	2020-10-29T19:43:08:987
7,956319	-1,085131	5,629375	2020-10-29T19:43:09:009
8,210260	-1,070526	5,255091	2020-10-29T19:43:09:027
8,509875	-1,005904	4,768707	2020-10-29T19:43:09:050
8,816682	-0,871316	4,204440	2020-10-29T19:43:09:067
9,065581	-0,774407	3,658676	2020-10-29T19:43:09:090
9,261053	-0,689624	3,150826	2020-10-29T19:43:09:107
9,403895	-0,615621	2,712592	2020-10-29T19:43:09:130
9,501322	-0,533874	2,368595	2020-10-29T19:43:09:148
9,573374	-0,410098	2,086317	2020-10-29T19:43:09:169
9,628593	-0,222136	1,846949	2020-10-29T19:43:09:187
9,670588	0,037806	1,627475	2020-10-29T19:43:09:211
9,698602	0,348658	1,409234	2020-10-29T19:43:09:228
9,710712	0,667500	1,194529	2020-10-29T19:43:09:249
9,708782	0,941570	1,011626	2020-10-29T19:43:09:267
9,696812	1,157979	0,895163	2020-10-29T19:43:09:292
9,679686	1,299215	0,886626	2020-10-29T19:43:09:307
9,660399	1,345064	1,018758	2020-10-29T19:43:09:330
9,638999	1,264953	1,288404	2020-10-29T19:43:09:348
9,608581	1,014534	1,678176	2020-10-29T19:43:09:370
9,559093	0,560358	2,116628	2020-10-29T19:43:09:388
9,478646	-0,063717	2,514277	2020-10-29T19:43:09:410
9,358764	-0,921480	2,781152	2020-10-29T19:43:09:428
9,189330	-1,793001	2,917489	2020-10-29T19:43:09:451
9,009109	-2,512380	2,948609	2020-10-29T19:43:09:468
8,850458	-2,986673	2,986562	2020-10-29T19:43:09:489
8,727654	-3,308698	3,008483	2020-10-29T19:43:09:508
8,629753	-3,544489	3,022307	2020-10-29T19:43:09:531
8,549605	-3,726241	3,031462	2020-10-29T19:43:09:548
8,487442	-3,879576	3,013736	2020-10-29T19:43:09:570
8,445027	-4,021609	2,945938	2020-10-29T19:43:09:588
8,411935	-4,175642	2,823782	2020-10-29T19:43:09:611
8,387341	-4,329350	2,660753	2020-10-29T19:43:09:629
8,381410	-4,444854	2,483069	2020-10-29T19:43:09:650
8,388156	-4,523790	2,311828	2020-10-29T19:43:09:667
8,406080	-4,567511	2,155468	2020-10-29T19:43:09:691
8,370610	-4,746686	1,890036	2020-10-29T19:43:09:708
8,342000	-4,888520	1,638228	2020-10-29T19:43:09:730
8,319726	-4,993906	1,418959	2020-10-29T19:43:09:748
8,311260	-5,056805	1,233716	2020-10-29T19:43:09:771
8,352151	-5,023315	1,085481	2020-10-29T19:43:09:788
8,501606	-4,769929	1,068106	2020-10-29T19:43:09:810
8,649867	-4,492093	1,082260	2020-10-29T19:43:09:828
8,784338	-4,213838	1,117746	2020-10-29T19:43:09:852
8,961305	-3,803099	1,183995	2020-10-29T19:43:09:869
9,005460	-3,689950	1,206791	2020-10-29T19:43:09:890
9,004227	-3,708393	1,158492	2020-10-29T19:43:09:908
9,012465	-3,699675	1,121719	2020-10-29T19:43:09:932
9,101253	-3,467385	1,146661	2020-10-29T19:43:09:948
9,232286	-3,100991	1,148528	2020-10-29T19:43:09:971
9,305717	-2,879714	1,131926	2020-10-29T19:43:09:990
9,336996	-2,779616	1,124554	2020-10-29T19:43:10:012
9,398755	-2,569577	1,109534	2020-10-29T19:43:10:028
9,442542	-2,409842	1,096105	2020-10-29T19:43:10:051
9,457976	-2,349515	1,094002	2020-10-29T19:43:10:068
9,448214	-2,377752	1,117112	2020-10-29T19:43:10:092
9,412923	-2,489520	1,170280	2020-10-29T19:43:10:109
9,414223	-2,466733	1,207490	2020-10-29T19:43:10:133
9,392356	-2,553407	1,197563	2020-10-29T19:43:10:150
9,375421	-2,623555	1,178489	2020-10-29T19:43:10:172
9,318199	-2,847531	1,110460	2020-10-29T19:43:10:189
9,247764	-3,101848	1,013801	2020-10-29T19:43:10:210
9,193702	-3,292558	0,897385	2020-10-29T19:43:10:229
9,178993	-3,361022	0,787399	2020-10-29T19:43:10:252
9,180339	-3,375514	0,705459	2020-10-29T19:43:10:269
9,218076	-3,275933	0,682444	2020-10-29T19:43:10:291
9,245901	-3,197108	0,679853	2020-10-29T19:43:10:309
9,262596	-3,145277	0,694212	2020-10-29T19:43:10:332
9,275984	-3,100742	0,715476	2020-10-29T19:43:10:350
9,301445	-3,017490	0,740442	2020-10-29T19:43:10:371
9,340595	-2,888216	0,762800	2020-10-29T19:43:10:389
9,409476	-2,650759	0,778216	2020-10-29T19:43:10:412
9,514844	-2,237352	0,795223	2020-10-29T19:43:10:430
9,573038	-1,967108	0,811057	2020-10-29T19:43:10:451
9,607442	-1,789169	0,816279	2020-10-29T19:43:10:469
9,627835	-1,682257	0,803228	2020-10-29T19:43:10:492
9,587295	-1,957410	0,650165	2020-10-29T19:43:10:509
9,555208	-2,132910	0,564867	2020-10-29T19:43:10:532
9,500344	-2,387712	0,461168	2020-10-29T19:43:10:549
9,450217	-2,595548	0,356234	2020-10-29T19:43:10:572
9,435275	-2,660368	0,261550	2020-10-29T19:43:10:590
9,448478	-2,620684	0,169294	2020-10-29T19:43:10:611
9,436786	-2,667417	0,048383	2020-10-29T19:43:10:629
9,433056	-2,680862	-0,028665	2020-10-29T19:43:10:653
9,411738	-2,753085	-0,100437	2020-10-29T19:43:10:669
9,388985	-2,827671	-0,147043	2020-10-29T19:43:10:691
9,363073	-2,910898	-0,172973	2020-10-29T19:43:10:709
9,269284	-3,194532	-0,213826	2020-10-29T19:43:10:733
9,204301	-3,373969	-0,259940	2020-10-29T19:43:10:749
9,134910	-3,551763	-0,329833	2020-10-29T19:43:10:772
9,076188	-3,690527	-0,416191	2020-10-29T19:43:10:789
9,035611	-3,777103	-0,511472	2020-10-29T19:43:10:812
9,017899	-3,805036	-0,607942	2020-10-29T19:43:10:830
9,021802	-3,779918	-0,699781	2020-10-29T19:43:10:852
8,985427	-3,847484	-0,793317	2020-10-29T19:43:10:869
8,980237	-3,851030	-0,833841	2020-10-29T19:43:10:893
9,006419	-3,791857	-0,822566	2020-10-29T19:43:10:909
9,042106	-3,717983	-0,766360	2020-10-29T19:43:10:932
9,092952	-3,615953	-0,643033	2020-10-29T19:43:10:950
9,230169	-3,285897	-0,420997	2020-10-29T19:43:10:973
9,357611	-2,928554	-0,170545	2020-10-29T19:43:10:989
9,451100	-2,616192	0,051339	2020-10-29T19:43:11:012
9,515305	-2,363033	0,213161	2020-10-29T19:43:11:030
9,565722	-2,137929	0,310832	2020-10-29T19:43:11:073
9,594029	-2,000242	0,352158	2020-10-29T19:43:11:075
9,573813	-2,094128	0,356521	2020-10-29T19:43:11:092
9,508021	-2,377000	0,343205	2020-10-29T19:43:11:110
9,444405	-2,621536	0,318053	2020-10-29T19:43:11:133
9,369164	-2,882814	0,280209	2020-10-29T19:43:11:150
9,252155	-3,242043	0,239085	2020-10-29T19:43:11:171
9,074909	-3,711766	0,197997	2020-10-29T19:43:11:189
8,796172	-4,333320	0,141721	2020-10-29T19:43:11:213
8,487968	-4,911126	0,074950	2020-10-29T19:43:11:230
8,217421	-5,352012	0,019007	2020-10-29T19:43:11:252
7,929929	-5,769381	-0,029259	2020-10-29T19:43:11:269
7,610609	-6,184265	-0,062340	2020-10-29T19:43:11:293
7,298339	-6,549868	-0,062056	2020-10-29T19:43:11:311
6,999177	-6,868840	-0,030711	2020-10-29T19:43:11:333
6,738819	-7,124499	0,014856	2020-10-29T19:43:11:350
6,508728	-7,335207	0,039715	2020-10-29T19:43:11:373
6,275932	-7,535438	0,015251	2020-10-29T19:43:11:390
6,015223	-7,744892	-0,064301	2020-10-29T19:43:11:412
5,744808	-7,941808	-0,308641	2020-10-29T19:43:11:430
5,505141	-8,095136	-0,576705	2020-10-29T19:43:11:454
5,314060	-8,198610	-0,844947	2020-10-29T19:43:11:470
5,157783	-8,268627	-1,094290	2020-10-29T19:43:11:492
5,041184	-8,310773	-1,299195	2020-10-29T19:43:11:510
4,870602	-8,386578	-1,453595	2020-10-29T19:43:11:533
4,687502	-8,458690	-1,627355	2020-10-29T19:43:11:553
4,663685	-8,464533	-1,664965	2020-10-29T19:43:11:573
4,769224	-8,396855	-1,708132	2020-10-29T19:43:11:589
4,948853	-8,286812	-1,734355	2020-10-29T19:43:11:613
5,202644	-8,123679	-1,763154	2020-10-29T19:43:11:630
5,515239	-7,908104	-1,792876	2020-10-29T19:43:11:653
5,868722	-7,646107	-1,807079	2020-10-29T19:43:11:670
6,282167	-7,305317	-1,826771	2020-10-29T19:43:11:693
6,694964	-6,922061	-1,852812	2020-10-29T19:43:11:710
7,185022	-6,406803	-1,870487	2020-10-29T19:43:11:733
7,654979	-5,843337	-1,851241	2020-10-29T19:43:11:751
8,111693	-5,215507	-1,780253	2020-10-29T19:43:11:773
8,562225	-4,496899	-1,623755	2020-10-29T19:43:11:791
8,988179	-3,687557	-1,336015	2020-10-29T19:43:11:812
9,349572	-2,825792	-0,877945	2020-10-29T19:43:11:831
9,610354	-1,940775	-0,211793	2020-10-29T19:43:11:853
9,728286	-1,072434	0,617025	2020-10-29T19:43:11:870
9,683869	-0,226597	1,530265	2020-10-29T19:43:11:892
9,518071	0,501758	2,307585	2020-10-29T19:43:11:910
9,324412	1,093301	2,833800	2020-10-29T19:43:11:933
9,185923	1,524312	3,076634	2020-10-29T19:43:11:950
9,114006	1,833906	3,121229	2020-10-29T19:43:11:973
9,204042	1,853270	2,832205	2020-10-29T19:43:11:990
9,327152	1,734441	2,483211	2020-10-29T19:43:12:013
9,386002	1,686226	2,286920	2020-10-29T19:43:12:032
9,446064	1,583272	2,106064	2020-10-29T19:43:12:053
9,493330	1,474594	1,967901	2020-10-29T19:43:12:070
9,523010	1,404196	1,873738	2020-10-29T19:43:12:093
9,583734	1,208301	1,691878	2020-10-29T19:43:12:110
9,639919	0,980719	1,510144	2020-10-29T19:43:12:133
9,695940	0,674132	1,305633	2020-10-29T19:43:12:153
9,742847	0,300810	1,075557	2020-10-29T19:43:12:173
9,777243	-0,306596	0,694198	2020-10-29T19:43:12:191
9,776239	-0,536384	0,554814	2020-10-29T19:43:12:212
9,732636	-1,188377	0,184219	2020-10-29T19:43:12:231
9,628713	-1,851056	-0,178496	2020-10-29T19:43:12:254
9,526131	-2,284779	-0,450553	2020-10-29T19:43:12:272
9,391769	-2,740756	-0,673286	2020-10-29T19:43:12:293
9,076774	-3,607437	-0,876907	2020-10-29T19:43:12:311
9,006657	-3,796158	-0,799815	2020-10-29T19:43:12:334
8,942303	-3,987418	-0,553265	2020-10-29T19:43:12:351
8,909190	-4,084709	-0,334473	2020-10-29T19:43:12:373
8,863407	-4,188430	-0,259715	2020-10-29T19:43:12:391
8,847899	-4,220856	-0,263516	2020-10-29T19:43:12:414
8,856266	-4,202099	-0,281591	2020-10-29T19:43:12:431
8,796969	-4,318484	-0,366613	2020-10-29T19:43:12:453
8,678027	-4,539286	-0,507068	2020-10-29T19:43:12:471
8,502259	-4,836849	-0,697753	2020-10-29T19:43:12:493
8,281837	-5,173676	-0,902575	2020-10-29T19:43:12:512
8,028327	-5,525793	-1,087178	2020-10-29T19:43:12:533
7,772731	-5,856143	-1,208557	2020-10-29T19:43:12:551
7,531556	-6,153163	-1,258821	2020-10-29T19:43:12:574
7,206161	-6,535216	-1,237977	2020-10-29T19:43:12:591
7,115969	-6,637827	-1,213519	2020-10-29T19:43:12:613
6,850142	-6,904148	-1,256460	2020-10-29T19:43:12:632
6,732711	-7,016803	-1,267068	2020-10-29T19:43:12:655
6,704043	-7,044369	-1,266117	2020-10-29T19:43:12:671
6,700279	-7,050026	-1,254501	2020-10-29T19:43:12:693
6,756453	-7,000093	-1,232649	2020-10-29T19:43:12:711
6,857929	-6,905047	-1,208103	2020-10-29T19:43:12:734
6,989985	-6,776499	-1,178790	2020-10-29T19:43:12:752
7,145323	-6,619577	-1,138396	2020-10-29T19:43:12:773
7,265111	-6,506767	-1,024956	2020-10-29T19:43:12:791
7,374058	-6,398849	-0,921084	2020-10-29T19:43:12:814
7,481594	-6,287042	-0,818067	2020-10-29T19:43:12:832
7,583854	-6,176855	-0,708520	2020-10-29T19:43:12:853
7,680926	-6,068663	-0,587446	2020-10-29T19:43:12:871
7,768256	-5,966968	-0,468912	2020-10-29T19:43:12:894
7,848126	-5,868097	-0,377807	2020-10-29T19:43:12:911
7,937995	-5,749392	-0,321103	2020-10-29T19:43:12:934
8,060860	-5,575971	-0,318559	2020-10-29T19:43:12:952
8,157772	-5,431976	-0,338792	2020-10-29T19:43:12:974
8,171513	-5,408783	-0,376617	2020-10-29T19:43:12:992
8,170228	-5,406323	-0,435230	2020-10-29T19:43:13:014
8,154769	-5,423756	-0,502983	2020-10-29T19:43:13:032
8,107062	-5,484344	-0,606555	2020-10-29T19:43:13:055
8,093424	-5,501181	-0,635525	2020-10-29T19:43:13:071
8,063738	-5,536964	-0,698957	2020-10-29T19:43:13:093
8,050203	-5,548553	-0,760376	2020-10-29T19:43:13:112
8,099062	-5,469148	-0,814865	2020-10-29T19:43:13:135
8,162652	-5,367912	-0,852656	2020-10-29T19:43:13:152
8,233624	-5,255653	-0,869441	2020-10-29T19:43:13:174
8,302836	-5,145658	-0,869190	2020-10-29T19:43:13:192
8,357192	-5,058699	-0,858660	2020-10-29T19:43:13:214
8,387644	-5,009582	-0,849653	2020-10-29T19:43:13:235
8,373901	-5,031085	-0,858099	2020-10-29T19:43:13:254
8,349185	-5,068839	-0,876560	2020-10-29T19:43:13:271
8,307891	-5,130847	-0,907600	2020-10-29T19:43:13:295
8,261121	-5,197123	-0,956124	2020-10-29T19:43:13:312
8,209999	-5,266065	-1,017284	2020-10-29T19:43:13:334
8,164732	-5,321917	-1,088457	2020-10-29T19:43:13:352
8,112672	-5,388637	-1,147840	2020-10-29T19:43:13:375
8,071856	-5,437536	-1,203634	2020-10-29T19:43:13:391
8,044148	-5,466440	-1,257017	2020-10-29T19:43:13:414
8,030643	-5,471499	-1,319790	2020-10-29T19:43:13:432
8,024103	-5,464609	-1,386433	2020-10-29T19:43:13:455
8,007283	-5,473262	-1,448171	2020-10-29T19:43:13:473
7,984037	-5,494890	-1,493896	2020-10-29T19:43:13:494
7,969244	-5,508288	-1,523249	2020-10-29T19:43:13:511
7,976504	-5,479737	-1,586898	2020-10-29T19:43:13:535
7,981430	-5,443836	-1,682799	2020-10-29T19:43:13:552
7,968442	-5,442830	-1,746399	2020-10-29T19:43:13:575
7,937432	-5,470544	-1,800196	2020-10-29T19:43:13:592
7,901574	-5,508680	-1,841181	2020-10-29T19:43:13:615
7,883170	-5,532479	-1,848701	2020-10-29T19:43:13:632
7,885523	-5,541278	-1,811947	2020-10-29T19:43:13:655
7,919271	-5,516660	-1,738385	2020-10-29T19:43:13:672
7,991460	-5,429093	-1,682825	2020-10-29T19:43:13:695
8,184128	-5,115675	-1,737901	2020-10-29T19:43:13:714
8,276475	-4,958613	-1,755708	2020-10-29T19:43:13:735
8,471506	-4,621684	-1,744706	2020-10-29T19:43:13:752
8,631818	-4,350672	-1,653410	2020-10-29T19:43:13:775
8,792100	-4,085527	-1,475749	2020-10-29T19:43:13:792
9,038716	-3,638980	-1,108971	2020-10-29T19:43:13:816
9,081660	-3,565212	-0,991515	2020-10-29T19:43:13:834
9,122043	-3,507754	-0,808935	2020-10-29T19:43:13:855
9,202922	-3,332037	-0,611663	2020-10-29T19:43:13:872
9,261723	-3,190054	-0,463079	2020-10-29T19:43:13:894
9,307417	-3,068975	-0,351794	2020-10-29T19:43:13:914
9,341565	-2,970256	-0,288310	2020-10-29T19:43:13:935
9,347790	-2,952284	-0,270602	2020-10-29T19:43:13:955
9,331871	-3,000716	-0,286844	2020-10-29T19:43:13:974
9,246905	-3,246081	-0,357894	2020-10-29T19:43:13:993
9,118063	-3,583727	-0,433839	2020-10-29T19:43:14:015
8,892529	-4,099957	-0,532607	2020-10-29T19:43:14:033
8,640122	-4,596590	-0,624517	2020-10-29T19:43:14:055
8,305161	-5,165807	-0,713538	2020-10-29T19:43:14:073
7,943681	-5,701699	-0,747633	2020-10-29T19:43:14:096
7,574102	-6,192977	-0,671116	2020-10-29T19:43:14:113
7,261080	-6,570093	-0,530076	2020-10-29T19:43:14:136
6,927869	-6,932005	-0,349741	2020-10-29T19:43:14:154
6,793770	-7,071659	-0,081957	2020-10-29T19:43:14:175
6,840842	-7,025265	0,137562	2020-10-29T19:43:14:195
6,955493	-6,907647	0,275524	2020-10-29T19:43:14:214
7,030265	-6,828790	0,336735	2020-10-29T19:43:14:233
7,070100	-6,786764	0,352002	2020-10-29T19:43:14:256
7,147653	-6,705440	0,344256	2020-10-29T19:43:14:273
7,369668	-6,458872	0,375953	2020-10-29T19:43:14:295
7,817837	-5,904264	0,437575	2020-10-29T19:43:14:313
8,407756	-5,024230	0,486969	2020-10-29T19:43:14:336
8,933210	-4,017191	0,479903	2020-10-29T19:43:14:353
9,249070	-3,228169	0,451668	2020-10-29T19:43:14:375
9,409477	-2,728437	0,433310	2020-10-29T19:43:14:393
9,506968	-2,374691	0,385745	2020-10-29T19:43:14:416
8,176885	-5,368336	0,699938	2020-10-29T19:43:14:435
8,019711	-5,595062	0,741557	2020-10-29T19:43:14:456
7,701287	-6,010324	0,858230	2020-10-29T19:43:14:473
7,381012	-6,378942	1,000070	2020-10-29T19:43:14:496
6,898147	-6,884701	1,089427	2020-10-29T19:43:14:513
6,344810	-7,381469	1,194860	2020-10-29T19:43:14:535
5,925362	-7,707210	1,288173	2020-10-29T19:43:14:553
5,675273	-7,883408	1,346678	2020-10-29T19:43:14:576
5,438745	-8,041634	1,386566	2020-10-29T19:43:14:593
5,263689	-8,161160	1,363607	2020-10-29T19:43:14:615
5,063058	-8,298262	1,294097	2020-10-29T19:43:14:633
4,894186	-8,414650	1,187852	2020-10-29T19:43:14:656
4,750154	-8,502010	1,149885	2020-10-29T19:43:14:674
4,648460	-8,562445	1,116574	2020-10-29T19:43:14:695
4,577608	-8,601110	1,112113	2020-10-29T19:43:14:713
4,577976	-8,608185	1,054362	2020-10-29T19:43:14:737
4,585215	-8,606895	1,033219	2020-10-29T19:43:14:753
4,635510	-8,585376	0,986790	2020-10-29T19:43:14:775
4,647566	-8,574918	1,020444	2020-10-29T19:43:14:802
4,660900	-8,559826	1,084334	2020-10-29T19:43:14:816
4,709304	-8,523265	1,160519	2020-10-29T19:43:14:833
4,798113	-8,461742	1,243952	2020-10-29T19:43:14:857
4,932012	-8,371165	1,330126	2020-10-29T19:43:14:873
5,206656	-8,184270	1,441822	2020-10-29T19:43:14:897
5,428447	-8,028275	1,499713	2020-10-29T19:43:14:916
5,545117	-7,946738	1,507119	2020-10-29T19:43:14:936
5,784248	-7,765756	1,551093	2020-10-29T19:43:14:954
6,033374	-7,574658	1,547043	2020-10-29T19:43:14:976
6,307598	-7,362276	1,476985	2020-10-29T19:43:14:993
6,581785	-7,143149	1,351263	2020-10-29T19:43:15:016
6,832908	-6,920616	1,259693	2020-10-29T19:43:15:033
7,053659	-6,704285	1,211953	2020-10-29T19:43:15:056
7,255729	-6,482939	1,223225	2020-10-29T19:43:15:073
7,432547	-6,279685	1,221958	2020-10-29T19:43:15:095
7,576277	-6,109944	1,199584	2020-10-29T19:43:15:113
7,647180	-6,039798	1,100848	2020-10-29T19:43:15:136
7,633247	-6,109163	0,762927	2020-10-29T19:43:15:156
7,601256	-6,160785	0,660321	2020-10-29T19:43:15:175
7,498074	-6,305372	0,437675	2020-10-29T19:43:15:193
7,398826	-6,430991	0,264799	2020-10-29T19:43:15:216
7,329266	-6,514299	0,127082	2020-10-29T19:43:15:233
7,311875	-6,535016	0,020862	2020-10-29T19:43:15:255
7,387810	-6,448990	-0,034136	2020-10-29T19:43:15:273
7,456168	-6,369921	-0,007668	2020-10-29T19:43:15:296
7,610070	-6,184971	0,057897	2020-10-29T19:43:15:313
7,856612	-5,867609	0,123263	2020-10-29T19:43:15:336
8,113703	-5,504926	0,184403	2020-10-29T19:43:15:354
8,348704	-5,138421	0,257216	2020-10-29T19:43:15:376
8,529558	-4,826499	0,349188	2020-10-29T19:43:15:394
8,686716	-4,522322	0,509849	2020-10-29T19:43:15:417
8,717825	-4,455046	0,567873	2020-10-29T19:43:15:433
8,761298	-4,350961	0,692225	2020-10-29T19:43:15:457
8,793892	-4,262518	0,817794	2020-10-29T19:43:15:473
8,813128	-4,196459	0,942802	2020-10-29T19:43:15:495
8,845643	-4,095449	1,073444	2020-10-29T19:43:15:513
8,903794	-3,945896	1,150104	2020-10-29T19:43:15:537
8,945858	-3,843767	1,169388	2020-10-29T19:43:15:554
8,918244	-3,903791	1,181401	2020-10-29T19:43:15:576
8,814498	-4,144642	1,138836	2020-10-29T19:43:15:593
8,565645	-4,650979	1,080972	2020-10-29T19:43:15:617
7,964291	-5,636096	0,987354	2020-10-29T19:43:15:636
7,741683	-5,940277	0,974593	2020-10-29T19:43:15:656
7,126464	-6,666022	0,973675	2020-10-29T19:43:15:673
6,377366	-7,389565	0,945472	2020-10-29T19:43:15:696
5,613087	-7,987648	0,927963	2020-10-29T19:43:15:714
5,036219	-8,366941	0,895079	2020-10-29T19:43:15:736
4,592111	-8,612799	0,950054	2020-10-29T19:43:15:754
4,256161	-8,774520	1,031156	2020-10-29T19:43:15:776
3,954441	-8,903143	1,125533	2020-10-29T19:43:15:793
3,710723	-9,000761	1,177803	2020-10-29T19:43:15:816
3,530751	-9,073014	1,176688	2020-10-29T19:43:15:834
3,415330	-9,123502	1,125885	2020-10-29T19:43:15:857
3,535112	-9,112928	0,792405	2020-10-29T19:43:15:877
3,584116	-9,101101	0,703174	2020-10-29T19:43:15:896
3,533629	-9,122552	0,680363	2020-10-29T19:43:15:914
3,422988	-9,158447	0,759192	2020-10-29T19:43:15:939
3,400451	-9,163546	0,797967	2020-10-29T19:43:15:954
3,388229	-9,149368	0,989624	2020-10-29T19:43:15:976
3,410085	-9,132402	1,068146	2020-10-29T19:43:15:994
3,510701	-9,065650	1,288159	2020-10-29T19:43:16:017
3,694947	-8,951319	1,546497	2020-10-29T19:43:16:034
4,063190	-8,745426	1,782803	2020-10-29T19:43:16:057
4,543207	-8,424820	2,133557	2020-10-29T19:43:16:074
4,984989	-8,147066	2,223866	2020-10-29T19:43:16:097
5,496397	-7,850122	2,082210	2020-10-29T19:43:16:115
6,022941	-7,553651	1,684315	2020-10-29T19:43:16:137
6,498240	-7,242272	1,221788	2020-10-29T19:43:16:155
6,917291	-6,901283	0,832931	2020-10-29T19:43:16:177
7,335060	-6,485184	0,556478	2020-10-29T19:43:16:195
7,788409	-5,945028	0,409533	2020-10-29T19:43:16:216
8,394023	-5,059625	0,333110	2020-10-29T19:43:16:235
9,132135	-3,562814	0,284335	2020-10-29T19:43:16:257
9,732697	-1,180444	0,227005	2020-10-29T19:43:16:274
9,677118	-1,535347	0,408013	2020-10-29T19:43:16:296
9,552593	-2,154475	0,525912	2020-10-29T19:43:16:314
9,065372	-3,705051	0,511867	2020-10-29T19:43:16:337
8,209589	-5,361403	0,168479	2020-10-29T19:43:16:357
8,345224	-5,149723	0,089288	2020-10-29T19:43:16:377
8,584637	-4,740147	-0,073522	2020-10-29T19:43:16:394
8,674747	-4,566501	-0,257303	2020-10-29T19:43:16:417
8,644305	-4,604221	-0,497520	2020-10-29T19:43:16:435
8,528382	-4,778259	-0,778021	2020-10-29T19:43:16:456
8,378340	-4,981725	-1,075281	2020-10-29T19:43:16:474
8,221016	-5,166458	-1,375861	2020-10-29T19:43:16:497
8,083335	-5,307321	-1,631697	2020-10-29T19:43:16:514
7,988528	-5,394281	-1,804310	2020-10-29T19:43:16:537
7,961512	-5,413111	-1,866264	2020-10-29T19:43:16:555
8,000421	-5,367714	-1,830658	2020-10-29T19:43:16:578
8,103293	-5,251784	-1,710492	2020-10-29T19:43:16:596
8,261403	-5,057177	-1,531201	2020-10-29T19:43:16:617
8,478095	-4,755652	-1,294625	2020-10-29T19:43:16:635
8,721922	-4,363819	-1,027398	2020-10-29T19:43:16:658
9,013035	-3,821081	-0,578723	2020-10-29T19:43:16:675
9,097939	-3,631274	-0,460155	2020-10-29T19:43:16:696
9,332684	-3,004733	-0,207330	2020-10-29T19:43:16:715
9,498958	-2,437220	-0,012321	2020-10-29T19:43:16:738
9,601861	-1,990442	0,113070	2020-10-29T19:43:16:755
9,672364	-1,602545	0,218175	2020-10-29T19:43:16:778
9,744637	-1,053869	0,319028	2020-10-29T19:43:16:795
9,789788	-0,435299	0,375437	2020-10-29T19:43:16:817
9,799119	-0,156585	0,350910	2020-10-29T19:43:16:837
9,798744	-0,224740	0,323239	2020-10-29T19:43:16:857
9,790511	-0,508901	0,239368	2020-10-29T19:43:16:875
9,753323	-1,016722	0,096736	2020-10-29T19:43:16:898
9,670328	-1,628136	-0,065692	2020-10-29T19:43:16:915
9,496975	-2,433378	-0,237734	2020-10-29T19:43:16:937
9,292673	-3,109510	-0,384137	2020-10-29T19:43:16:955
9,074908	-3,681923	-0,509762	2020-10-29T19:43:16:979
8,821401	-4,238895	-0,620512	2020-10-29T19:43:16:995
8,566519	-4,722897	-0,692379	2020-10-29T19:43:17:017
8,328026	-5,125253	-0,739027	2020-10-29T19:43:17:035
8,101606	-5,471831	-0,770340	2020-10-29T19:43:17:058
7,878633	-5,786021	-0,787080	2020-10-29T19:43:17:076
7,627552	-6,116521	-0,760926	2020-10-29T19:43:17:097
