x	y	z	ts
-1,680000	0,490000	19,250000	2020-10-29T19:41:47:106
-1,680000	0,490000	19,250000	2020-10-29T19:41:47:153
-21,490000	-36,820000	-27,160000	2020-10-29T19:41:47:157
-21,490000	-36,820000	-27,160000	2020-10-29T19:41:47:169
-21,490000	-36,820000	-27,160000	2020-10-29T19:41:47:170
-21,490000	-36,820000	-27,160000	2020-10-29T19:41:47:170
-22,960001	-34,580002	-29,190001	2020-10-29T19:41:47:171
-26,809999	-31,990000	-30,450001	2020-10-29T19:41:47:186
-26,110001	-33,599998	-31,710001	2020-10-29T19:41:47:207
-26,040001	-38,849998	-32,410000	2020-10-29T19:41:47:226
-33,040001	-38,220001	-31,570000	2020-10-29T19:41:47:246
-39,340000	-35,840000	-28,350000	2020-10-29T19:41:47:267
-31,920000	-38,709999	-29,260000	2020-10-29T19:41:47:286
-29,540001	-45,220001	-27,020000	2020-10-29T19:41:47:307
-35,490002	-46,830002	-23,520000	2020-10-29T19:41:47:326
-33,459999	-44,869999	-21,350000	2020-10-29T19:41:47:346
-29,400000	-46,900002	-19,740000	2020-10-29T19:41:47:367
-34,230000	-48,509998	-17,500000	2020-10-29T19:41:47:386
-44,029999	-46,270000	-15,540000	2020-10-29T19:41:47:406
-43,889999	-38,500000	-14,770000	2020-10-29T19:41:47:426
-35,349998	-34,020000	-15,190001	2020-10-29T19:41:47:446
-32,480000	-38,009998	-17,080000	2020-10-29T19:41:47:466
-40,110001	-41,509998	-18,900000	2020-10-29T19:41:47:486
-51,099998	-41,650002	-21,280001	2020-10-29T19:41:47:508
-48,580002	-39,830002	-24,080000	2020-10-29T19:41:47:526
-44,240002	-37,170002	-26,389999	2020-10-29T19:41:47:549
-56,630001	-35,420002	-26,250000	2020-10-29T19:41:47:566
-71,959999	-32,970001	-27,580000	2020-10-29T19:41:47:588
-65,239998	-31,639999	-30,309999	2020-10-29T19:41:47:607
-54,389999	-33,389999	-32,549999	2020-10-29T19:41:47:628
-46,689999	-30,660000	-33,320000	2020-10-29T19:41:47:646
-40,810001	-29,889999	-32,900002	2020-10-29T19:41:47:668
-43,820000	-28,000000	-30,730000	2020-10-29T19:41:47:687
-43,119999	-22,400000	-27,370001	2020-10-29T19:41:47:709
-39,410000	-16,799999	-24,850000	2020-10-29T19:41:47:727
-42,630001	-13,790000	-21,629999	2020-10-29T19:41:47:748
-33,599998	-15,050000	-23,660000	2020-10-29T19:41:47:767
-25,059999	-16,170000	-25,410000	2020-10-29T19:41:47:788
-29,960001	-14,000000	-24,430000	2020-10-29T19:41:47:807
-44,730000	-13,580000	-19,740000	2020-10-29T19:41:47:827
-46,619999	-16,170000	-17,150000	2020-10-29T19:41:47:847
-28,420000	-18,200001	-17,780001	2020-10-29T19:41:47:868
-18,760000	-16,940001	-18,340000	2020-10-29T19:41:47:887
-21,980000	-14,140000	-18,480000	2020-10-29T19:41:47:908
-20,020000	-13,790000	-18,830000	2020-10-29T19:41:47:927
-18,549999	-12,670000	-19,879999	2020-10-29T19:41:47:947
-13,720000	-11,550000	-22,260000	2020-10-29T19:41:47:967
-16,520000	-9,800000	-21,910000	2020-10-29T19:41:47:987
-17,570000	-6,860000	-19,670000	2020-10-29T19:41:48:007
-16,100000	-3,290000	-17,780001	2020-10-29T19:41:48:028
-18,200001	-0,350000	-16,100000	2020-10-29T19:41:48:047
-18,129999	1,960000	-13,860000	2020-10-29T19:41:48:067
-18,129999	2,450000	-10,920000	2020-10-29T19:41:48:087
-19,250000	3,290000	-7,630000	2020-10-29T19:41:48:108
-19,670000	3,010000	-5,180000	2020-10-29T19:41:48:127
-23,100000	5,250000	-0,700000	2020-10-29T19:41:48:147
-22,960001	6,440000	1,190000	2020-10-29T19:41:48:169
-19,180000	6,930000	1,260000	2020-10-29T19:41:48:187
-19,040001	7,420000	1,470000	2020-10-29T19:41:48:209
-15,470000	6,580000	1,540000	2020-10-29T19:41:48:227
-18,549999	7,280000	-1,330000	2020-10-29T19:41:48:248
-29,680000	8,330000	0,280000	2020-10-29T19:41:48:268
-36,189999	7,910000	-0,350000	2020-10-29T19:41:48:288
-37,590000	8,260000	0,770000	2020-10-29T19:41:48:307
-32,970001	4,900000	4,550000	2020-10-29T19:41:48:333
-20,510000	0,770000	5,810000	2020-10-29T19:41:48:349
-15,400000	-2,940000	11,060000	2020-10-29T19:41:48:370
-26,110001	-6,440000	13,860000	2020-10-29T19:41:48:389
-41,650002	-9,170000	12,110000	2020-10-29T19:41:48:411
-44,660000	-10,710000	10,220000	2020-10-29T19:41:48:429
-30,380001	-9,730000	2,730000	2020-10-29T19:41:48:451
-8,750000	-7,840000	1,120000	2020-10-29T19:41:48:470
-1,470000	-8,330000	0,980000	2020-10-29T19:41:48:491
0,770000	-8,960000	2,940000	2020-10-29T19:41:48:511
7,630000	-9,240000	3,920000	2020-10-29T19:41:48:531
14,280000	-10,290000	4,270000	2020-10-29T19:41:48:552
15,540000	-10,920000	2,590000	2020-10-29T19:41:48:571
7,980000	-8,960000	1,400000	2020-10-29T19:41:48:590
11,480000	-6,020000	2,030000	2020-10-29T19:41:48:611
16,870001	-4,620000	2,240000	2020-10-29T19:41:48:630
14,770000	-4,620000	5,110000	2020-10-29T19:41:48:652
10,780000	-6,650000	5,810000	2020-10-29T19:41:48:670
8,960000	-4,480000	4,480000	2020-10-29T19:41:48:691
-2,730000	-6,300000	4,200000	2020-10-29T19:41:48:710
5,740000	-4,550000	2,380000	2020-10-29T19:41:48:731
9,170000	-4,760000	4,200000	2020-10-29T19:41:48:752
11,620000	-4,620000	4,340000	2020-10-29T19:41:48:771
10,640000	-3,710000	3,710000	2020-10-29T19:41:48:789
4,340000	-3,010000	2,030000	2020-10-29T19:41:48:811
-1,330000	-2,730000	4,060000	2020-10-29T19:41:48:830
10,920000	-3,360000	0,280000	2020-10-29T19:41:48:851
9,030000	-2,870000	1,820000	2020-10-29T19:41:48:870
8,190000	-2,730000	1,470000	2020-10-29T19:41:48:891
0,420000	-2,520000	1,890000	2020-10-29T19:41:48:910
1,960000	-2,030000	1,680000	2020-10-29T19:41:48:932
10,010000	-2,380000	1,540000	2020-10-29T19:41:48:950
12,390000	-2,450000	1,050000	2020-10-29T19:41:48:971
10,780000	-3,150000	1,190000	2020-10-29T19:41:48:991
11,340000	-3,780000	0,770000	2020-10-29T19:41:49:011
13,510000	-4,060000	1,330000	2020-10-29T19:41:49:030
9,660000	-3,920000	1,120000	2020-10-29T19:41:49:051
8,820000	-2,660000	0,630000	2020-10-29T19:41:49:070
7,280000	-2,660000	0,630000	2020-10-29T19:41:49:091
9,590000	-0,910000	-1,540000	2020-10-29T19:41:49:111
12,950000	0,210000	-2,940000	2020-10-29T19:41:49:131
16,799999	1,050000	-5,040000	2020-10-29T19:41:49:150
16,240000	0,980000	-6,440000	2020-10-29T19:41:49:172
17,430000	1,400000	-6,860000	2020-10-29T19:41:49:190
17,500000	1,540000	-6,930000	2020-10-29T19:41:49:212
17,219999	1,120000	-4,550000	2020-10-29T19:41:49:231
16,379999	1,120000	-3,920000	2020-10-29T19:41:49:251
13,090000	-1,260000	-2,240000	2020-10-29T19:41:49:270
11,970000	-1,190000	-1,610000	2020-10-29T19:41:49:291
11,130000	-1,330000	0,070000	2020-10-29T19:41:49:311
7,350000	-1,680000	0,560000	2020-10-29T19:41:49:331
-1,470000	-1,820000	1,960000	2020-10-29T19:41:49:350
-7,700000	0,140000	4,130000	2020-10-29T19:41:49:372
-14,490000	0,840000	7,980000	2020-10-29T19:41:49:391
-37,590000	-1,750000	12,390000	2020-10-29T19:41:49:412
-37,240002	-0,910000	10,640000	2020-10-29T19:41:49:431
-21,770000	-1,120000	10,640000	2020-10-29T19:41:49:451
-4,340000	-2,730000	7,980000	2020-10-29T19:41:49:472
-2,450000	-5,250000	4,690000	2020-10-29T19:41:49:492
-0,910000	-4,620000	0,070000	2020-10-29T19:41:49:512
2,800000	-4,830000	0,070000	2020-10-29T19:41:49:538
6,020000	-3,920000	0,840000	2020-10-29T19:41:49:555
7,910000	-3,080000	1,470000	2020-10-29T19:41:49:572
4,060000	-3,570000	1,540000	2020-10-29T19:41:49:591
-0,840000	-2,100000	0,420000	2020-10-29T19:41:49:612
1,190000	-2,380000	0,070000	2020-10-29T19:41:49:631
-1,050000	-1,330000	0,070000	2020-10-29T19:41:49:652
-2,590000	-0,630000	0,280000	2020-10-29T19:41:49:671
-0,910000	1,470000	-2,100000	2020-10-29T19:41:49:692
-9,030000	3,010000	-5,110000	2020-10-29T19:41:49:713
-13,300000	3,990000	-6,090000	2020-10-29T19:41:49:732
-11,340000	3,850000	-6,020000	2020-10-29T19:41:49:751
-9,380000	2,310000	-4,130000	2020-10-29T19:41:49:773
-7,350000	1,960000	-2,520000	2020-10-29T19:41:49:791
-3,780000	1,330000	-2,170000	2020-10-29T19:41:49:812
-0,140000	0,490000	-1,260000	2020-10-29T19:41:49:831
5,740000	-0,630000	-3,010000	2020-10-29T19:41:49:853
7,140000	-0,420000	-2,310000	2020-10-29T19:41:49:871
5,320000	-0,490000	-2,870000	2020-10-29T19:41:49:892
0,630000	-0,280000	-0,070000	2020-10-29T19:41:49:911
-0,280000	0,700000	-0,070000	2020-10-29T19:41:49:932
0,980000	0,350000	-0,490000	2020-10-29T19:41:49:953
0,980000	0,980000	-2,310000	2020-10-29T19:41:49:972
1,470000	0,350000	-3,290000	2020-10-29T19:41:49:991
-3,290000	1,890000	-3,010000	2020-10-29T19:41:50:013
-1,890000	2,800000	-0,980000	2020-10-29T19:41:50:031
7,070000	3,360000	-1,960000	2020-10-29T19:41:50:052
10,780000	2,450000	-1,960000	2020-10-29T19:41:50:071
10,010000	2,450000	1,610000	2020-10-29T19:41:50:093
7,700000	-1,190000	3,220000	2020-10-29T19:41:50:111
10,640000	-1,680000	2,800000	2020-10-29T19:41:50:133
11,760000	-1,820000	1,470000	2020-10-29T19:41:50:151
11,760000	-0,630000	2,240000	2020-10-29T19:41:50:173
16,940001	0,630000	3,150000	2020-10-29T19:41:50:193
20,370001	1,540000	4,830000	2020-10-29T19:41:50:213
21,490000	3,430000	10,430000	2020-10-29T19:41:50:231
24,010000	4,970000	12,390000	2020-10-29T19:41:50:253
27,440001	3,150000	10,570000	2020-10-29T19:41:50:273
28,840000	1,610000	7,560000	2020-10-29T19:41:50:293
26,180000	-0,630000	5,880000	2020-10-29T19:41:50:312
23,100000	-3,430000	4,060000	2020-10-29T19:41:50:334
21,910000	-7,000000	-1,330000	2020-10-29T19:41:50:351
11,620000	-5,320000	-6,160000	2020-10-29T19:41:50:373
2,940000	-3,780000	-9,100000	2020-10-29T19:41:50:392
1,960000	-1,330000	-10,780000	2020-10-29T19:41:50:413
3,780000	2,170000	-12,320000	2020-10-29T19:41:50:433
4,830000	4,970000	-13,930000	2020-10-29T19:41:50:453
3,080000	6,440000	-15,820000	2020-10-29T19:41:50:472
0,490000	6,230000	-20,230000	2020-10-29T19:41:50:493
-9,800000	6,860000	-22,400000	2020-10-29T19:41:50:512
-21,350000	8,400000	-23,100000	2020-10-29T19:41:50:533
-34,230000	10,640000	-20,719999	2020-10-29T19:41:50:552
-31,360001	13,580000	-21,070000	2020-10-29T19:41:50:573
-22,960001	16,450001	-19,110001	2020-10-29T19:41:50:591
-16,100000	18,690001	-16,240000	2020-10-29T19:41:50:613
-13,510000	18,620001	-11,550000	2020-10-29T19:41:50:632
-13,160000	17,219999	-8,610000	2020-10-29T19:41:50:653
-14,420000	14,980000	-5,950000	2020-10-29T19:41:50:675
-11,900000	12,040000	-5,390000	2020-10-29T19:41:50:693
-7,140000	9,450000	-5,530000	2020-10-29T19:41:50:712
-3,430000	6,370000	-5,320000	2020-10-29T19:41:50:733
-2,800000	3,080000	-4,550000	2020-10-29T19:41:50:752
-3,220000	3,080000	-3,220000	2020-10-29T19:41:50:774
-3,710000	-2,450000	-1,400000	2020-10-29T19:41:50:792
-4,970000	-4,270000	0,140000	2020-10-29T19:41:50:814
-5,530000	-5,110000	1,680000	2020-10-29T19:41:50:832
-3,430000	-4,200000	2,100000	2020-10-29T19:41:50:853
-3,080000	-3,220000	2,030000	2020-10-29T19:41:50:872
-7,000000	-2,590000	4,060000	2020-10-29T19:41:50:893
-6,160000	-1,680000	4,480000	2020-10-29T19:41:50:913
-8,120000	-1,890000	5,180000	2020-10-29T19:41:50:933
-9,520000	-2,940000	4,620000	2020-10-29T19:41:50:952
-8,890000	-3,500000	2,310000	2020-10-29T19:41:50:974
-14,770000	-5,110000	1,610000	2020-10-29T19:41:50:992
-15,050000	-6,510000	-0,210000	2020-10-29T19:41:51:014
-10,360000	-7,560000	-2,940000	2020-10-29T19:41:51:032
-8,260000	-9,170000	-3,850000	2020-10-29T19:41:51:054
-10,500000	-10,430000	-4,760000	2020-10-29T19:41:51:072
-9,940000	-10,430000	-5,180000	2020-10-29T19:41:51:094
-5,460000	-9,100000	-7,280000	2020-10-29T19:41:51:112
-6,370000	-8,260000	-7,280000	2020-10-29T19:41:51:134
-11,130000	-7,560000	-7,000000	2020-10-29T19:41:51:152
-13,930000	-7,350000	-6,790000	2020-10-29T19:41:51:175
-12,740000	-7,000000	-7,700000	2020-10-29T19:41:51:192
-8,540000	-5,810000	-7,560000	2020-10-29T19:41:51:215
-8,540000	-4,760000	-6,440000	2020-10-29T19:41:51:232
-9,240000	-4,760000	-5,040000	2020-10-29T19:41:51:254
-7,840000	-3,500000	-4,620000	2020-10-29T19:41:51:273
-4,550000	-3,010000	-3,430000	2020-10-29T19:41:51:294
-1,330000	-2,520000	-2,100000	2020-10-29T19:41:51:313
-2,590000	-2,730000	0,140000	2020-10-29T19:41:51:335
-1,680000	-2,660000	1,400000	2020-10-29T19:41:51:352
3,290000	-1,120000	1,190000	2020-10-29T19:41:51:374
4,970000	0,910000	1,190000	2020-10-29T19:41:51:393
4,760000	3,290000	0,910000	2020-10-29T19:41:51:415
1,330000	5,880000	0,630000	2020-10-29T19:41:51:432
-1,680000	8,190000	0,420000	2020-10-29T19:41:51:455
-4,830000	10,710000	-0,210000	2020-10-29T19:41:51:473
-5,320000	11,830000	-0,910000	2020-10-29T19:41:51:494
-2,800000	12,530000	-1,540000	2020-10-29T19:41:51:513
-3,220000	11,900000	-1,400000	2020-10-29T19:41:51:535
-1,960000	11,550000	-0,980000	2020-10-29T19:41:51:553
-2,030000	11,550000	-0,840000	2020-10-29T19:41:51:575
-0,630000	11,410000	-0,490000	2020-10-29T19:41:51:592
0,840000	10,850000	-0,700000	2020-10-29T19:41:51:615
-0,070000	9,940000	-0,700000	2020-10-29T19:41:51:633
-1,680000	9,380000	-0,840000	2020-10-29T19:41:51:654
0,420000	10,010000	-1,890000	2020-10-29T19:41:51:673
0,630000	10,850000	-1,960000	2020-10-29T19:41:51:695
-0,910000	11,200000	-1,820000	2020-10-29T19:41:51:713
1,610000	11,410000	-2,520000	2020-10-29T19:41:51:735
4,690000	11,760000	-2,730000	2020-10-29T19:41:51:753
8,050000	11,900000	-2,590000	2020-10-29T19:41:51:775
9,240000	12,250000	-1,540000	2020-10-29T19:41:51:793
9,240000	12,460000	-0,490000	2020-10-29T19:41:51:815
6,930000	11,550000	0,560000	2020-10-29T19:41:51:833
3,430000	10,080000	1,050000	2020-10-29T19:41:51:855
1,260000	8,820000	0,980000	2020-10-29T19:41:51:874
0,840000	7,070000	0,490000	2020-10-29T19:41:51:896
0,490000	5,180000	-0,420000	2020-10-29T19:41:51:914
-2,310000	2,870000	-0,980000	2020-10-29T19:41:51:936
-3,850000	1,120000	-1,750000	2020-10-29T19:41:51:953
-3,710000	-0,070000	-2,520000	2020-10-29T19:41:51:975
-3,850000	-0,700000	-3,080000	2020-10-29T19:41:51:994
-4,410000	-0,070000	-3,360000	2020-10-29T19:41:52:017
-5,670000	-0,070000	-3,710000	2020-10-29T19:41:52:033
-6,440000	-0,700000	-4,340000	2020-10-29T19:41:52:056
-8,050000	-0,420000	-4,620000	2020-10-29T19:41:52:073
-7,420000	-0,980000	-5,040000	2020-10-29T19:41:52:096
-5,530000	-0,910000	-5,390000	2020-10-29T19:41:52:115
-5,740000	-1,050000	-5,040000	2020-10-29T19:41:52:135
-6,090000	-1,540000	-4,970000	2020-10-29T19:41:52:152
-6,580000	-2,240000	-4,690000	2020-10-29T19:41:52:176
-5,810000	-2,520000	-4,760000	2020-10-29T19:41:52:193
-5,600000	-3,150000	-4,410000	2020-10-29T19:41:52:216
-4,480000	-3,360000	-4,200000	2020-10-29T19:41:52:233
-4,900000	-3,360000	-3,360000	2020-10-29T19:41:52:256
-5,670000	-3,500000	-2,310000	2020-10-29T19:41:52:274
-6,090000	-3,850000	-1,470000	2020-10-29T19:41:52:296
-5,180000	-4,060000	-0,490000	2020-10-29T19:41:52:314
-2,730000	-4,060000	0,070000	2020-10-29T19:41:52:336
-1,120000	-3,710000	0,840000	2020-10-29T19:41:52:355
0,420000	-3,150000	1,470000	2020-10-29T19:41:52:375
1,540000	-3,290000	1,960000	2020-10-29T19:41:52:393
1,050000	-3,780000	2,590000	2020-10-29T19:41:52:416
0,420000	-3,290000	2,800000	2020-10-29T19:41:52:434
0,490000	-2,800000	3,080000	2020-10-29T19:41:52:455
0,910000	-1,890000	3,080000	2020-10-29T19:41:52:474
0,630000	-0,770000	3,500000	2020-10-29T19:41:52:496
-0,280000	-0,350000	3,990000	2020-10-29T19:41:52:515
-1,050000	-0,070000	4,410000	2020-10-29T19:41:52:536
-0,420000	0,350000	4,830000	2020-10-29T19:41:52:554
0,280000	1,120000	5,250000	2020-10-29T19:41:52:576
0,910000	1,540000	5,740000	2020-10-29T19:41:52:594
2,030000	1,890000	5,740000	2020-10-29T19:41:52:616
1,820000	1,750000	5,320000	2020-10-29T19:41:52:634
1,050000	1,610000	4,550000	2020-10-29T19:41:52:656
0,770000	0,840000	3,570000	2020-10-29T19:41:52:674
0,630000	0,210000	2,520000	2020-10-29T19:41:52:696
0,980000	-0,350000	1,540000	2020-10-29T19:41:52:714
0,980000	-0,980000	0,630000	2020-10-29T19:41:52:736
0,210000	-1,260000	0,140000	2020-10-29T19:41:52:754
-0,280000	-1,400000	-0,140000	2020-10-29T19:41:52:777
-1,820000	-1,190000	-0,140000	2020-10-29T19:41:52:794
-1,820000	-0,770000	-0,490000	2020-10-29T19:41:52:817
-2,100000	-0,070000	-0,840000	2020-10-29T19:41:52:837
-3,360000	0,420000	-1,050000	2020-10-29T19:41:52:856
-3,920000	0,980000	-1,120000	2020-10-29T19:41:52:874
-4,970000	1,120000	-0,980000	2020-10-29T19:41:52:897
-3,990000	1,470000	-1,260000	2020-10-29T19:41:52:915
-2,170000	1,960000	-1,050000	2020-10-29T19:41:52:936
-0,980000	1,960000	-0,770000	2020-10-29T19:41:52:954
-1,050000	1,470000	-0,350000	2020-10-29T19:41:52:978
-1,400000	1,470000	0,140000	2020-10-29T19:41:52:994
-1,890000	1,610000	0,840000	2020-10-29T19:41:53:017
-1,610000	1,330000	1,190000	2020-10-29T19:41:53:034
-0,630000	1,400000	1,330000	2020-10-29T19:41:53:056
0,490000	1,470000	1,260000	2020-10-29T19:41:53:076
0,210000	1,470000	1,190000	2020-10-29T19:41:53:096
0,210000	1,260000	0,980000	2020-10-29T19:41:53:114
-0,350000	1,330000	0,560000	2020-10-29T19:41:53:137
-1,050000	1,610000	0,560000	2020-10-29T19:41:53:155
-1,960000	0,980000	0,560000	2020-10-29T19:41:53:177
-2,800000	0,980000	0,420000	2020-10-29T19:41:53:194
-2,030000	0,560000	0,070000	2020-10-29T19:41:53:217
-2,030000	0,910000	0,070000	2020-10-29T19:41:53:234
-1,540000	0,980000	0,140000	2020-10-29T19:41:53:257
-0,210000	1,470000	-0,210000	2020-10-29T19:41:53:275
-1,680000	1,330000	0,840000	2020-10-29T19:41:53:296
-1,820000	1,330000	0,350000	2020-10-29T19:41:53:316
-1,820000	1,050000	0,350000	2020-10-29T19:41:53:337
-1,260000	0,840000	0,140000	2020-10-29T19:41:53:354
-1,050000	0,490000	-0,210000	2020-10-29T19:41:53:377
-0,980000	0,490000	-0,140000	2020-10-29T19:41:53:394
-0,840000	-0,070000	-0,140000	2020-10-29T19:41:53:418
0,070000	-0,140000	-0,140000	2020-10-29T19:41:53:435
0,350000	-0,630000	-0,070000	2020-10-29T19:41:53:457
-0,140000	-0,560000	0,070000	2020-10-29T19:41:53:475
0,140000	-0,210000	0,070000	2020-10-29T19:41:53:498
0,070000	0,070000	-0,070000	2020-10-29T19:41:53:515
0,490000	0,420000	-0,280000	2020-10-29T19:41:53:537
0,490000	0,490000	-0,350000	2020-10-29T19:41:53:555
-1,050000	0,560000	-0,420000	2020-10-29T19:41:53:578
-1,190000	0,770000	-0,700000	2020-10-29T19:41:53:595
-1,190000	0,840000	-0,840000	2020-10-29T19:41:53:618
-0,980000	1,330000	-0,840000	2020-10-29T19:41:53:635
-1,400000	1,820000	-0,490000	2020-10-29T19:41:53:658
-1,120000	1,820000	-0,350000	2020-10-29T19:41:53:675
-0,700000	2,030000	-0,140000	2020-10-29T19:41:53:697
-0,280000	2,030000	-0,140000	2020-10-29T19:41:53:715
-0,560000	2,030000	0,420000	2020-10-29T19:41:53:738
-0,490000	1,820000	0,630000	2020-10-29T19:41:53:755
0,210000	1,820000	0,490000	2020-10-29T19:41:53:777
0,420000	1,680000	0,210000	2020-10-29T19:41:53:795
0,420000	1,680000	0,070000	2020-10-29T19:41:53:818
0,210000	1,260000	-0,140000	2020-10-29T19:41:53:835
-1,820000	0,700000	0,280000	2020-10-29T19:41:53:857
-3,080000	0,490000	0,210000	2020-10-29T19:41:53:875
-2,590000	0,210000	0,140000	2020-10-29T19:41:53:898
-2,030000	0,630000	0,210000	2020-10-29T19:41:53:915
-1,260000	0,490000	0,210000	2020-10-29T19:41:53:937
-0,140000	0,210000	0,210000	2020-10-29T19:41:53:955
0,280000	0,560000	0,560000	2020-10-29T19:41:53:979
-1,190000	0,560000	0,770000	2020-10-29T19:41:53:997
-3,010000	0,560000	0,840000	2020-10-29T19:41:54:021
-3,290000	0,490000	0,490000	2020-10-29T19:41:54:038
-4,480000	0,420000	0,490000	2020-10-29T19:41:54:059
-4,620000	0,490000	-0,350000	2020-10-29T19:41:54:075
-3,990000	0,420000	-0,980000	2020-10-29T19:41:54:097
-4,060000	0,420000	-0,770000	2020-10-29T19:41:54:115
-6,860000	-0,070000	-0,630000	2020-10-29T19:41:54:138
-8,610000	-0,140000	-0,910000	2020-10-29T19:41:54:156
-9,870000	0,070000	-1,890000	2020-10-29T19:41:54:178
-9,800000	0,840000	-3,150000	2020-10-29T19:41:54:195
-7,700000	1,610000	-5,040000	2020-10-29T19:41:54:218
-8,190000	1,820000	-6,580000	2020-10-29T19:41:54:235
-8,820000	2,800000	-7,910000	2020-10-29T19:41:54:257
-9,590000	4,130000	-9,520000	2020-10-29T19:41:54:276
-12,950000	4,690000	-10,430000	2020-10-29T19:41:54:298
-15,400000	5,390000	-10,850000	2020-10-29T19:41:54:315
-15,190001	5,390000	-11,620000	2020-10-29T19:41:54:338
-15,750000	5,110000	-10,990000	2020-10-29T19:41:54:355
-16,450001	5,040000	-9,380000	2020-10-29T19:41:54:378
-16,799999	4,760000	-7,770000	2020-10-29T19:41:54:395
-16,730000	3,780000	-6,090000	2020-10-29T19:41:54:418
-14,700000	1,960000	-4,900000	2020-10-29T19:41:54:435
-12,880000	-0,280000	-3,640000	2020-10-29T19:41:54:459
-11,970000	-3,080000	-2,590000	2020-10-29T19:41:54:476
-12,670000	-6,300000	-2,100000	2020-10-29T19:41:54:498
-14,070000	-9,590000	-1,120000	2020-10-29T19:41:54:517
-14,490000	-11,970000	-0,840000	2020-10-29T19:41:54:540
-19,460001	-14,420000	1,120000	2020-10-29T19:41:54:562
-15,750000	-14,910000	2,310000	2020-10-29T19:41:54:578
-10,080000	-14,490000	2,800000	2020-10-29T19:41:54:596
-8,610000	-14,490000	3,290000	2020-10-29T19:41:54:619
-13,300000	-17,360001	3,500000	2020-10-29T19:41:54:636
-24,920000	-20,160000	5,040000	2020-10-29T19:41:54:658
-28,770000	-22,820000	5,180000	2020-10-29T19:41:54:676
-29,680000	-29,750000	5,950000	2020-10-29T19:41:54:699
-25,129999	-37,590000	5,390000	2020-10-29T19:41:54:716
-17,219999	-47,110001	2,100000	2020-10-29T19:41:54:738
-13,160000	-59,290001	-2,100000	2020-10-29T19:41:54:756
-19,320000	-71,260002	-8,470000	2020-10-29T19:41:54:778
-25,059999	-82,320000	-15,610000	2020-10-29T19:41:54:796
-28,000000	-93,099998	-22,260000	2020-10-29T19:41:54:819
-33,180000	-102,269997	-28,350000	2020-10-29T19:41:54:835
-43,470001	-110,599998	-34,020000	2020-10-29T19:41:54:859
-56,070000	-120,400002	-36,680000	2020-10-29T19:41:54:876
-69,790001	-129,149994	-43,680000	2020-10-29T19:41:54:898
-68,180000	-134,820007	-53,130001	2020-10-29T19:41:54:916
-45,570000	-139,089996	-61,040001	2020-10-29T19:41:54:939
-14,980000	-146,300003	-66,849998	2020-10-29T19:41:54:956
14,350000	-151,899994	-68,040001	2020-10-29T19:41:54:978
36,119999	-150,430008	-65,730003	2020-10-29T19:41:54:997
43,820000	-145,110001	-60,619999	2020-10-29T19:41:55:029
38,709999	-137,410004	-56,209999	2020-10-29T19:41:55:039
24,150000	-127,680000	-53,410000	2020-10-29T19:41:55:256
1,750000	-118,160004	-51,029999	2020-10-29T19:41:55:258
-26,530001	-112,559998	-48,509998	2020-10-29T19:41:55:258
-49,279999	-107,940002	-46,619999	2020-10-29T19:41:55:259
-67,269997	-100,660004	-44,590000	2020-10-29T19:41:55:260
-84,000000	-92,889999	-40,880001	2020-10-29T19:41:55:261
-95,760002	-84,769997	-38,779999	2020-10-29T19:41:55:261
-97,580002	-75,739998	-38,080002	2020-10-29T19:41:55:262
-92,889999	-67,269997	-36,959999	2020-10-29T19:41:55:262
-80,709999	-57,889999	-34,580002	2020-10-29T19:41:55:262
-65,379997	-48,509998	-29,960001	2020-10-29T19:41:55:263
-42,700001	-36,189999	-18,969999	2020-10-29T19:41:55:275
-30,100000	-26,250000	-10,150000	2020-10-29T19:41:55:297
-26,110001	-19,879999	-2,240000	2020-10-29T19:41:55:319
-25,900000	-10,850000	6,720000	2020-10-29T19:41:55:340
-28,559999	2,380000	14,700000	2020-10-29T19:41:55:356
-46,830002	9,520000	28,350000	2020-10-29T19:41:55:378
-84,980003	10,500000	45,500000	2020-10-29T19:41:55:396
-133,770004	10,010000	52,920002	2020-10-29T19:41:55:420
-192,850006	-7,070000	54,529999	2020-10-29T19:41:55:436
-202,369995	-23,590000	54,950001	2020-10-29T19:41:55:459
-75,040001	-17,639999	45,639999	2020-10-29T19:41:55:477
81,690002	-5,600000	13,160000	2020-10-29T19:41:55:500
123,270004	-13,650000	0,910000	2020-10-29T19:41:55:517
126,419998	-15,190001	-5,670000	2020-10-29T19:41:55:539
108,779999	-18,620001	-11,550000	2020-10-29T19:41:55:557
67,830002	-19,670000	-14,840000	2020-10-29T19:41:55:580
6,020000	-13,440001	-11,270000	2020-10-29T19:41:55:605
-24,710001	-8,680000	-6,790000	2020-10-29T19:41:55:621
-29,260000	-7,490000	-3,570000	2020-10-29T19:41:55:638
-22,540001	-7,000000	0,420000	2020-10-29T19:41:55:673
2,940000	-7,490000	2,800000	2020-10-29T19:41:55:702
38,709999	-13,090000	2,800000	2020-10-29T19:41:55:702
62,580002	-17,360001	0,770000	2020-10-29T19:41:55:733
64,190002	-16,520000	-0,700000	2020-10-29T19:41:55:742
48,860001	-12,460000	-1,680000	2020-10-29T19:41:55:756
32,900002	-10,290000	-3,640000	2020-10-29T19:41:55:777
22,190001	-9,450000	-6,720000	2020-10-29T19:41:55:795
13,650000	-9,240000	-8,260000	2020-10-29T19:41:55:819
7,070000	-8,820000	-9,520000	2020-10-29T19:41:55:838
7,910000	-8,050000	-11,130000	2020-10-29T19:41:55:859
9,660000	-7,140000	-10,710000	2020-10-29T19:41:55:877
8,610000	-5,950000	-8,750000	2020-10-29T19:41:55:900
5,250000	-4,970000	-6,230000	2020-10-29T19:41:55:917
1,890000	-3,500000	-4,200000	2020-10-29T19:41:55:939
-0,280000	-1,890000	-2,870000	2020-10-29T19:41:55:957
-0,630000	-0,350000	-2,100000	2020-10-29T19:41:55:980
0,700000	0,210000	-1,960000	2020-10-29T19:41:55:998
1,540000	0,770000	-2,380000	2020-10-29T19:41:56:025
18,129999	16,100000	32,830002	2020-10-29T19:42:16:238
21,350000	17,920000	35,630001	2020-10-29T19:42:16:239
26,530001	18,969999	37,450001	2020-10-29T19:42:16:240
32,970001	19,320000	38,920002	2020-10-29T19:42:16:241
39,340000	20,370001	40,880001	2020-10-29T19:42:16:242
45,080002	22,469999	43,680000	2020-10-29T19:42:16:243
44,029999	26,180000	49,070000	2020-10-29T19:42:16:243
36,680000	24,430000	52,150002	2020-10-29T19:42:16:244
28,070000	19,250000	51,730000	2020-10-29T19:42:16:249
22,750000	19,110001	48,720001	2020-10-29T19:42:16:258
21,770000	19,950001	42,840000	2020-10-29T19:42:16:260
23,870001	19,740000	35,070000	2020-10-29T19:42:16:384
28,770000	21,350000	28,630001	2020-10-29T19:42:16:384
27,790001	25,620001	26,040001	2020-10-29T19:42:16:385
18,549999	26,389999	26,530001	2020-10-29T19:42:16:388
2,310000	24,150000	29,400000	2020-10-29T19:42:16:388
-16,309999	21,770000	34,299999	2020-10-29T19:42:16:389
-31,360001	18,690001	37,939999	2020-10-29T19:42:16:417
-42,209999	14,840000	39,130001	2020-10-29T19:42:16:430
-50,189999	9,870000	37,590000	2020-10-29T19:42:16:434
-52,150002	5,670000	33,040001	2020-10-29T19:42:16:456
-50,189999	1,890000	25,129999	2020-10-29T19:42:16:475
-46,060001	-1,400000	14,350000	2020-10-29T19:42:16:497
-39,200001	-4,340000	0,910000	2020-10-29T19:42:16:516
-30,450001	-7,140000	-14,420000	2020-10-29T19:42:16:539
-22,330000	-9,590000	-29,820000	2020-10-29T19:42:16:557
-17,990000	-12,460000	-45,150002	2020-10-29T19:42:16:578
-15,260000	-15,400000	-59,500000	2020-10-29T19:42:16:598
-11,760000	-18,549999	-72,239998	2020-10-29T19:42:16:618
-6,650000	-22,400000	-82,809998	2020-10-29T19:42:16:637
-1,330000	-31,080000	-93,169998	2020-10-29T19:42:16:657
2,310000	-22,889999	-93,660004	2020-10-29T19:42:16:676
2,590000	-12,600000	-88,340004	2020-10-29T19:42:16:700
-1,750000	-19,950001	-84,699997	2020-10-29T19:42:16:724
-10,710000	-28,770000	-79,590004	2020-10-29T19:42:16:738
-18,270000	-28,770000	-73,080002	2020-10-29T19:42:16:757
-21,280001	-25,549999	-66,919998	2020-10-29T19:42:16:779
-20,790001	-21,350000	-62,090000	2020-10-29T19:42:16:797
-17,850000	-15,330000	-57,260002	2020-10-29T19:42:16:819
-13,720000	-8,960000	-51,520000	2020-10-29T19:42:16:836
-9,940000	-4,130000	-44,310001	2020-10-29T19:42:16:858
-8,960000	1,750000	-34,439999	2020-10-29T19:42:16:876
-9,170000	6,020000	-23,450001	2020-10-29T19:42:16:899
-9,240000	5,740000	-12,530000	2020-10-29T19:42:16:917
-7,840000	3,640000	-2,310000	2020-10-29T19:42:16:938
-6,230000	2,240000	7,490000	2020-10-29T19:42:16:957
-4,480000	0,420000	16,520000	2020-10-29T19:42:16:979
-3,710000	-1,260000	24,850000	2020-10-29T19:42:17:001
-1,330000	-2,240000	32,130001	2020-10-29T19:42:17:021
4,760000	-3,710000	37,939999	2020-10-29T19:42:17:039
-77,910004	12,460000	-59,150002	2020-10-29T19:42:41:117
-121,379997	20,580000	-47,950001	2020-10-29T19:42:41:119
-156,729996	23,799999	-38,500000	2020-10-29T19:42:41:120
-178,430008	26,110001	-30,100000	2020-10-29T19:42:41:163
-175,210007	28,559999	-25,830000	2020-10-29T19:42:41:164
-150,710007	32,759998	-23,450001	2020-10-29T19:42:41:170
-111,230003	36,119999	-21,910000	2020-10-29T19:42:41:195
-64,400002	35,490002	-20,440001	2020-10-29T19:42:41:202
-17,639999	30,100000	-17,219999	2020-10-29T19:42:41:241
22,750000	20,230000	-12,950000	2020-10-29T19:42:41:243
50,540001	10,710000	-6,720000	2020-10-29T19:42:41:262
74,900002	4,970000	0,350000	2020-10-29T19:42:41:282
93,870003	6,860000	10,500000	2020-10-29T19:42:41:302
100,449997	13,300000	24,710001	2020-10-29T19:42:41:320
95,129997	14,910000	39,689999	2020-10-29T19:42:41:343
78,750000	11,480000	54,880001	2020-10-29T19:42:41:361
54,529999	9,730000	69,510002	2020-10-29T19:42:41:382
27,160000	10,500000	82,529999	2020-10-29T19:42:41:401
-11,410000	5,670000	96,250000	2020-10-29T19:42:41:425
-38,009998	-1,400000	103,180000	2020-10-29T19:42:41:441
-52,290001	-8,540000	105,070000	2020-10-29T19:42:41:463
-47,880001	-15,890000	101,919998	2020-10-29T19:42:41:481
-31,150000	-22,190001	95,690002	2020-10-29T19:42:41:505
-7,280000	-27,719999	86,730003	2020-10-29T19:42:41:522
19,460001	-33,250000	75,599998	2020-10-29T19:42:41:544
45,990002	-37,240002	63,139999	2020-10-29T19:42:41:561
65,940002	-40,670002	51,380001	2020-10-29T19:42:41:584
77,209999	-45,849998	39,689999	2020-10-29T19:42:41:601
80,919998	-50,330002	28,700001	2020-10-29T19:42:41:623
82,809998	-53,970001	18,200001	2020-10-29T19:42:41:641
87,919998	-58,590000	6,860000	2020-10-29T19:42:41:664
97,090004	-61,040001	-4,620000	2020-10-29T19:42:41:681
106,330002	-59,290001	-13,650000	2020-10-29T19:42:41:703
109,620003	-54,670002	-18,760000	2020-10-29T19:42:41:721
101,010002	-47,180000	-17,010000	2020-10-29T19:42:41:744
99,750000	-44,730000	-12,180000	2020-10-29T19:42:41:762
113,120003	-54,670002	-16,379999	2020-10-29T19:42:41:784
118,510002	-45,500000	-11,760000	2020-10-29T19:42:41:801
118,580002	-38,779999	-6,860000	2020-10-29T19:42:41:825
121,730003	-44,939999	-8,050000	2020-10-29T19:42:41:841
122,919998	-39,549999	-5,670000	2020-10-29T19:42:41:863
114,730003	-33,250000	-2,310000	2020-10-29T19:42:41:882
99,470001	-31,219999	-0,350000	2020-10-29T19:42:41:904
85,120003	-30,450001	1,820000	2020-10-29T19:42:41:921
70,279999	-27,650000	6,300000	2020-10-29T19:42:41:943
52,779999	-25,270000	12,950000	2020-10-29T19:42:41:961
37,240002	-30,730000	16,660000	2020-10-29T19:42:41:984
27,930000	-40,040001	12,950000	2020-10-29T19:42:42:003
28,350000	-40,670002	4,060000	2020-10-29T19:42:42:023
40,740002	-31,360001	-8,470000	2020-10-29T19:42:42:041
51,380001	-15,610000	-19,600000	2020-10-29T19:42:42:064
56,560001	-2,030000	-26,460001	2020-10-29T19:42:42:081
59,990002	5,670000	-26,389999	2020-10-29T19:42:42:103
62,860001	8,190000	-20,020000	2020-10-29T19:42:42:122
66,290001	9,730000	-11,200000	2020-10-29T19:42:42:144
61,389999	8,190000	3,710000	2020-10-29T19:42:42:161
49,980000	3,150000	17,570000	2020-10-29T19:42:42:184
37,799999	-5,670000	28,490000	2020-10-29T19:42:42:202
21,490000	-17,290001	36,049999	2020-10-29T19:42:42:224
14,420000	-27,090000	38,779999	2020-10-29T19:42:42:243
27,090000	-32,689999	36,189999	2020-10-29T19:42:42:263
53,830002	-41,160000	29,049999	2020-10-29T19:42:42:281
88,199997	-48,720001	21,139999	2020-10-29T19:42:42:305
116,900002	-48,020000	15,610000	2020-10-29T19:42:42:322
138,039993	-41,509998	14,560000	2020-10-29T19:42:42:343
151,899994	-34,860001	17,430000	2020-10-29T19:42:42:362
157,289993	-31,710001	21,629999	2020-10-29T19:42:42:384
150,289993	-25,760000	27,930000	2020-10-29T19:42:42:402
131,600006	-11,900000	36,540001	2020-10-29T19:42:42:424
101,010002	2,730000	45,009998	2020-10-29T19:42:42:442
64,330002	11,830000	50,540001	2020-10-29T19:42:42:464
30,450001	16,940001	50,959999	2020-10-29T19:42:42:484
-10,710000	20,160000	46,200001	2020-10-29T19:42:42:504
-33,250000	7,980000	34,720001	2020-10-29T19:42:42:522
-41,509998	19,600000	25,830000	2020-10-29T19:42:42:545
-34,299999	28,770000	13,650000	2020-10-29T19:42:42:561
-23,730000	23,240000	-4,900000	2020-10-29T19:42:42:584
-30,450001	18,340000	-22,120001	2020-10-29T19:42:42:602
-56,349998	13,720000	-40,320000	2020-10-29T19:42:42:625
-82,180000	8,190000	-62,230000	2020-10-29T19:42:42:641
-97,019997	3,850000	-81,690002	2020-10-29T19:42:42:664
-85,330002	6,720000	-94,430000	2020-10-29T19:42:42:682
-42,490002	14,210000	-98,279999	2020-10-29T19:42:42:705
24,150000	12,460000	-94,010002	2020-10-29T19:42:42:722
98,139999	3,920000	-79,730003	2020-10-29T19:42:42:744
167,580002	-1,820000	-63,209999	2020-10-29T19:42:42:762
221,970001	-2,800000	-46,200001	2020-10-29T19:42:42:786
251,440002	-5,460000	-26,950001	2020-10-29T19:42:42:801
243,809998	-6,650000	-4,760000	2020-10-29T19:42:42:825
201,600006	-0,210000	10,990000	2020-10-29T19:42:42:841
127,750000	11,340000	25,270000	2020-10-29T19:42:42:865
37,799999	15,820000	37,310001	2020-10-29T19:42:42:882
-53,480000	10,710000	42,349998	2020-10-29T19:42:42:904
-118,300003	-2,730000	40,250000	2020-10-29T19:42:42:922
-149,940002	-8,540000	33,459999	2020-10-29T19:42:42:945
-151,270004	-6,300000	23,660000	2020-10-29T19:42:42:963
-122,570000	-6,720000	10,220000	2020-10-29T19:42:42:984
-67,900002	-7,700000	-6,510000	2020-10-29T19:42:43:002
-7,140000	-4,130000	-20,650000	2020-10-29T19:42:43:025
38,849998	-0,140000	-30,940001	2020-10-29T19:42:43:042
69,230003	-0,210000	-38,430000	2020-10-29T19:42:43:064
77,349998	-1,330000	-41,790001	2020-10-29T19:42:43:082
64,330002	-2,170000	-40,670002	2020-10-29T19:42:43:105
39,130001	-1,960000	-36,119999	2020-10-29T19:42:43:122
9,240000	-4,760000	-30,799999	2020-10-29T19:42:43:144
-17,360001	-10,850000	-26,180000	2020-10-29T19:42:43:163
-30,450001	-15,680000	-23,660000	2020-10-29T19:42:43:185
-35,139999	-14,000000	-20,860001	2020-10-29T19:42:43:204
-35,560001	-9,870000	-19,110001	2020-10-29T19:42:43:225
-32,060001	-27,440001	-25,830000	2020-10-29T19:42:43:243
-21,210001	-39,130001	-33,389999	2020-10-29T19:42:43:265
-8,680000	-5,600000	-28,139999	2020-10-29T19:42:43:282
4,270000	1,610000	-25,690001	2020-10-29T19:42:43:305
13,720000	-17,500000	-27,650000	2020-10-29T19:42:43:323
18,200001	-25,059999	-24,010000	2020-10-29T19:42:43:345
21,350000	-17,990000	-17,080000	2020-10-29T19:42:43:362
21,840000	-13,790000	-11,130000	2020-10-29T19:42:43:385
20,090000	-6,720000	-4,970000	2020-10-29T19:42:43:403
21,420000	4,830000	1,470000	2020-10-29T19:42:43:426
22,120001	1,890000	3,710000	2020-10-29T19:42:43:444
23,379999	-14,770000	3,710000	2020-10-29T19:42:43:465
34,299999	-17,080000	-5,670000	2020-10-29T19:42:43:483
54,459999	-3,850000	-10,710000	2020-10-29T19:42:43:506
71,050003	14,770000	-11,130000	2020-10-29T19:42:43:523
75,320000	19,809999	-10,220000	2020-10-29T19:42:43:545
70,629997	19,809999	-5,110000	2020-10-29T19:42:43:563
48,580002	23,590000	11,340000	2020-10-29T19:42:43:586
29,260000	25,200001	24,850000	2020-10-29T19:42:43:603
12,110000	21,980000	36,959999	2020-10-29T19:42:43:625
-7,000000	19,389999	46,900002	2020-10-29T19:42:43:643
-25,480000	16,100000	53,200001	2020-10-29T19:42:43:666
-35,349998	12,390000	55,720001	2020-10-29T19:42:43:684
-35,000000	10,640000	54,459999	2020-10-29T19:42:43:705
-26,389999	11,550000	50,750000	2020-10-29T19:42:43:723
-11,340000	11,620000	45,009998	2020-10-29T19:42:43:746
7,140000	9,030000	37,450001	2020-10-29T19:42:43:764
25,760000	7,560000	29,680000	2020-10-29T19:42:43:785
38,080002	6,860000	22,820000	2020-10-29T19:42:43:803
51,730000	7,210000	16,450001	2020-10-29T19:42:43:826
62,020000	10,500000	12,040000	2020-10-29T19:42:43:843
64,540001	9,030000	7,840000	2020-10-29T19:42:43:866
58,450001	7,210000	4,340000	2020-10-29T19:42:43:884
42,700001	9,310000	2,380000	2020-10-29T19:42:43:907
19,320000	12,250000	0,910000	2020-10-29T19:42:43:923
-6,090000	12,250000	-1,890000	2020-10-29T19:42:43:945
-28,139999	12,810000	-5,740000	2020-10-29T19:42:43:963
-42,980000	0,910000	-16,799999	2020-10-29T19:42:43:987
-54,180000	0,910000	-26,320000	2020-10-29T19:42:44:003
-60,270000	16,450001	-31,990000	2020-10-29T19:42:44:025
-58,869999	13,300000	-44,170002	2020-10-29T19:42:44:043
-56,349998	4,900000	-57,330002	2020-10-29T19:42:44:066
-54,670002	7,210000	-66,010002	2020-10-29T19:42:44:083
-52,779999	6,090000	-72,519997	2020-10-29T19:42:44:106
-47,950001	2,030000	-76,930000	2020-10-29T19:42:44:124
-38,080002	0,490000	-76,230003	2020-10-29T19:42:44:146
-20,790001	0,490000	-70,139999	2020-10-29T19:42:44:165
2,590000	-3,150000	-60,970001	2020-10-29T19:42:44:185
26,040001	-11,270000	-50,470001	2020-10-29T19:42:44:203
39,340000	-14,560000	-36,119999	2020-10-29T19:42:44:226
40,320000	-11,550000	-20,650000	2020-10-29T19:42:44:243
32,970001	-9,520000	-5,740000	2020-10-29T19:42:44:265
17,850000	-10,080000	6,230000	2020-10-29T19:42:44:283
2,730000	-9,520000	14,210000	2020-10-29T19:42:44:307
-5,950000	-8,330000	19,950001	2020-10-29T19:42:44:323
-11,550000	-10,080000	23,309999	2020-10-29T19:42:44:345
-12,110000	-12,740000	24,150000	2020-10-29T19:42:44:363
-4,760000	-15,400000	22,049999	2020-10-29T19:42:44:385
7,000000	-20,020000	17,570000	2020-10-29T19:42:44:404
24,780001	-23,450001	12,530000	2020-10-29T19:42:44:426
48,020000	-22,190001	8,750000	2020-10-29T19:42:44:443
63,910000	-20,650000	5,320000	2020-10-29T19:42:44:466
73,010002	-22,330000	3,290000	2020-10-29T19:42:44:484
82,250000	-22,889999	2,310000	2020-10-29T19:42:44:506
88,830002	-20,230000	3,780000	2020-10-29T19:42:44:524
90,370003	-18,059999	6,860000	2020-10-29T19:42:44:547
87,080002	-17,710001	10,360000	2020-10-29T19:42:44:563
81,480003	-17,920000	12,670000	2020-10-29T19:42:44:586
79,379997	-18,690001	13,790000	2020-10-29T19:42:44:604
73,709999	-19,530001	15,260000	2020-10-29T19:42:44:627
62,860001	-20,020000	18,480000	2020-10-29T19:42:44:644
56,420002	-17,500000	24,990000	2020-10-29T19:42:44:666
50,750000	-15,890000	30,450001	2020-10-29T19:42:44:683
50,330002	-16,030001	35,980000	2020-10-29T19:42:44:707
51,450001	-16,520000	40,880001	2020-10-29T19:42:44:724
52,220001	-25,410000	41,369999	2020-10-29T19:42:44:747
52,849998	-48,299999	32,410000	2020-10-29T19:42:44:764
62,369999	-32,340000	30,730000	2020-10-29T19:42:44:789
78,680000	-13,930000	29,680000	2020-10-29T19:42:44:807
88,760002	-16,309999	27,090000	2020-10-29T19:42:44:827
98,139999	-18,129999	26,950001	2020-10-29T19:42:44:844
106,610001	-12,040000	32,410000	2020-10-29T19:42:44:867
108,010002	-2,380000	41,930000	2020-10-29T19:42:44:885
100,029999	6,440000	54,180000	2020-10-29T19:42:44:906
86,940002	8,050000	66,360001	2020-10-29T19:42:44:924
76,160004	0,420000	72,309998	2020-10-29T19:42:44:947
65,519997	-1,330000	75,040001	2020-10-29T19:42:44:964
54,670002	11,550000	77,279999	2020-10-29T19:42:44:986
39,970001	25,690001	77,629997	2020-10-29T19:42:45:005
21,210001	33,459999	75,040001	2020-10-29T19:42:45:027
-1,050000	36,400002	69,230003	2020-10-29T19:42:45:044
-26,530001	36,470001	62,720001	2020-10-29T19:42:45:067
-49,000000	33,459999	53,900002	2020-10-29T19:42:45:084
-65,660004	30,940001	44,450001	2020-10-29T19:42:45:107
-76,019997	29,820000	34,860001	2020-10-29T19:42:45:126
-78,820000	26,389999	24,639999	2020-10-29T19:42:45:145
-73,010002	20,930000	14,630000	2020-10-29T19:42:45:164
-59,290001	14,490000	5,180000	2020-10-29T19:42:45:187
-42,700001	8,330000	-3,010000	2020-10-29T19:42:45:206
-29,400000	4,060000	-10,290000	2020-10-29T19:42:45:227
-19,460001	1,190000	-17,500000	2020-10-29T19:42:45:244
-10,010000	1,190000	-25,969999	2020-10-29T19:42:45:267
-2,450000	0,630000	-35,840000	2020-10-29T19:42:45:284
0,770000	2,730000	-45,220001	2020-10-29T19:42:45:307
-0,980000	2,660000	-55,369999	2020-10-29T19:42:45:325
-4,970000	1,400000	-66,919998	2020-10-29T19:42:45:347
-13,230000	3,500000	-79,940002	2020-10-29T19:42:45:366
-27,790001	6,720000	-90,720001	2020-10-29T19:42:45:386
-43,189999	4,410000	-101,220001	2020-10-29T19:42:45:405
-63,139999	-7,350000	-116,410004	2020-10-29T19:42:45:428
-91,000000	7,350000	-119,070000	2020-10-29T19:42:45:445
-114,099998	28,770000	-116,830002	2020-10-29T19:42:45:466
-124,949997	25,690001	-120,750000	2020-10-29T19:42:45:485
-125,300003	21,350000	-120,400002	2020-10-29T19:42:45:508
-114,309998	24,710001	-112,279999	2020-10-29T19:42:45:525
-90,790001	23,030001	-103,459999	2020-10-29T19:42:45:547
-68,599998	20,299999	-90,650002	2020-10-29T19:42:45:565
-56,420002	15,890000	-74,340004	2020-10-29T19:42:45:587
-59,849998	9,240000	-57,400002	2020-10-29T19:42:45:606
-83,160004	12,320000	-37,099998	2020-10-29T19:42:45:627
-117,739998	24,080000	-16,590000	2020-10-29T19:42:45:644
-154,910004	32,130001	-1,680000	2020-10-29T19:42:45:668
-192,779999	33,459999	7,490000	2020-10-29T19:42:45:685
-225,820007	33,950001	14,210000	2020-10-29T19:42:45:707
-245,559998	34,369999	17,430000	2020-10-29T19:42:45:725
-248,430008	30,940001	15,820000	2020-10-29T19:42:45:748
-230,440002	17,570000	7,420000	2020-10-29T19:42:45:765
-206,990005	9,170000	0,910000	2020-10-29T19:42:45:788
-179,479996	3,220000	-5,390000	2020-10-29T19:42:45:805
-161,210007	-4,060000	-10,220000	2020-10-29T19:42:45:828
-152,250000	-8,960000	-14,840000	2020-10-29T19:42:45:847
-150,570007	-10,780000	-20,370001	2020-10-29T19:42:45:867
-152,880005	-14,420000	-27,090000	2020-10-29T19:42:45:885
-151,899994	-19,460001	-35,139999	2020-10-29T19:42:45:909
-146,089996	-22,260000	-44,029999	2020-10-29T19:42:45:925
-136,360001	-25,620001	-53,689999	2020-10-29T19:42:45:947
-118,930000	-31,010000	-64,470001	2020-10-29T19:42:45:965
-88,830002	-37,240002	-76,090004	2020-10-29T19:42:45:988
-43,259998	-46,060001	-87,570000	2020-10-29T19:42:46:005
14,140000	-51,450001	-93,800003	2020-10-29T19:42:46:028
69,370003	-48,090000	-90,930000	2020-10-29T19:42:46:045
106,330002	-36,119999	-79,169998	2020-10-29T19:42:46:068
107,169998	-35,139999	-67,199997	2020-10-29T19:42:46:097
77,209999	-44,799999	-50,820000	2020-10-29T19:42:46:107
48,580002	-22,889999	-29,680000	2020-10-29T19:42:46:128
30,450001	-3,570000	-12,950000	2020-10-29T19:42:46:148
0,980000	8,050000	5,600000	2020-10-29T19:42:46:166
-23,170000	19,040001	22,400000	2020-10-29T19:42:46:187
-31,990000	29,540001	38,709999	2020-10-29T19:42:46:206
-27,090000	39,970001	52,639999	2020-10-29T19:42:46:230
-10,570000	50,889999	63,209999	2020-10-29T19:42:46:245
12,810000	55,790001	69,650002	2020-10-29T19:42:46:267
42,279999	55,650002	71,680000	2020-10-29T19:42:46:285
97,650002	58,240002	65,099998	2020-10-29T19:42:46:308
129,919998	62,230000	66,709999	2020-10-29T19:42:46:327
140,419998	72,800003	67,970001	2020-10-29T19:42:46:349
153,440002	87,010002	67,550003	2020-10-29T19:42:46:365
152,600006	96,040001	70,349998	2020-10-29T19:42:46:388
129,080002	103,180000	79,239998	2020-10-29T19:42:46:407
91,769997	102,760002	89,250000	2020-10-29T19:42:46:428
51,099998	98,629997	100,379997	2020-10-29T19:42:46:445
10,080000	98,279999	113,750000	2020-10-29T19:42:46:469
-29,610001	93,309998	125,930000	2020-10-29T19:42:46:485
-66,639999	85,889999	136,360001	2020-10-29T19:42:46:508
-97,019997	78,260002	144,339996	2020-10-29T19:42:46:526
-116,550003	70,000000	149,660004	2020-10-29T19:42:46:549
-121,940002	58,590000	149,380005	2020-10-29T19:42:46:567
-115,010002	45,430000	143,570007	2020-10-29T19:42:46:588
-98,279999	32,480000	133,559998	2020-10-29T19:42:46:606
-75,250000	20,370001	118,650002	2020-10-29T19:42:46:629
-50,680000	16,730000	103,529999	2020-10-29T19:42:46:646
-22,540001	5,320000	82,529999	2020-10-29T19:42:46:667
3,850000	-9,870000	56,630001	2020-10-29T19:42:46:686
22,820000	-17,780001	30,940001	2020-10-29T19:42:46:709
39,689999	-16,170000	6,860000	2020-10-29T19:42:46:726
47,599998	-14,770000	-12,600000	2020-10-29T19:42:46:748
46,759998	-25,549999	-34,580002	2020-10-29T19:42:46:766
45,430000	-44,170002	-59,849998	2020-10-29T19:42:46:789
45,570000	-37,240002	-76,440002	2020-10-29T19:42:46:807
39,130001	-35,420002	-88,620003	2020-10-29T19:42:46:828
7,140000	-53,270000	-113,470001	2020-10-29T19:42:46:846
-24,639999	-59,080002	-127,610001	2020-10-29T19:42:46:869
-49,490002	-62,020000	-140,419998	2020-10-29T19:42:46:886
-58,869999	-67,340004	-154,279999	2020-10-29T19:42:46:908
-53,480000	-72,660004	-168,139999	2020-10-29T19:42:46:926
-30,520000	-74,970001	-178,990005	2020-10-29T19:42:46:949
8,890000	-78,050003	-185,009995	2020-10-29T19:42:46:966
55,230000	-80,989998	-183,539993	2020-10-29T19:42:46:988
101,919998	-77,980003	-172,410004	2020-10-29T19:42:47:006
136,779999	-71,959999	-152,389999	2020-10-29T19:42:47:029
152,880005	-68,389999	-129,919998	2020-10-29T19:42:47:047
147,910004	-64,889999	-105,139999	2020-10-29T19:42:47:068
121,940002	-55,299999	-78,050003	2020-10-29T19:42:47:086
79,099998	-45,849998	-52,849998	2020-10-29T19:42:47:109
25,200001	-39,270000	-30,520000	2020-10-29T19:42:47:126
-30,380001	-31,850000	-11,690000	2020-10-29T19:42:47:148
-84,070000	-22,610001	5,250000	2020-10-29T19:42:47:167
-127,470001	-19,110001	17,010000	2020-10-29T19:42:47:189
-159,809998	-20,580000	23,940001	2020-10-29T19:42:47:206
-180,180008	-22,260000	27,160000	2020-10-29T19:42:47:229
-185,990005	-21,700001	28,630001	2020-10-29T19:42:47:246
-165,970001	-25,830000	24,850000	2020-10-29T19:42:47:269
-119,559998	-29,610001	18,059999	2020-10-29T19:42:47:286
-60,340000	-30,940001	11,830000	2020-10-29T19:42:47:308
-60,340000	-34,299999	8,330000	2020-10-29T19:42:47:326
49,349998	-40,320000	7,000000	2020-10-29T19:42:47:349
84,559998	-44,310001	9,730000	2020-10-29T19:42:47:367
93,940002	-40,670002	20,860001	2020-10-29T19:42:47:388
79,940002	-36,330002	33,670002	2020-10-29T19:42:47:407
38,920002	-8,610000	35,980000	2020-10-29T19:42:47:430
-45,080002	9,030000	53,970001	2020-10-29T19:42:47:446
-66,080002	-2,170000	48,439999	2020-10-29T19:42:47:469
-45,150002	-1,470000	26,950001	2020-10-29T19:42:47:487
-7,350000	9,520000	31,430000	2020-10-29T19:42:47:509
60,270000	36,820000	27,230000	2020-10-29T19:42:47:528
109,410004	57,400002	21,490000	2020-10-29T19:42:47:548
124,809998	65,379997	13,650000	2020-10-29T19:42:47:566
106,540001	75,739998	12,250000	2020-10-29T19:42:47:590
53,480000	83,160004	12,110000	2020-10-29T19:42:47:607
-38,290001	86,099998	20,580000	2020-10-29T19:42:47:629
-125,440002	82,669998	26,880001	2020-10-29T19:42:47:647
-166,320007	80,010002	30,170000	2020-10-29T19:42:47:670
-206,289993	83,230003	33,740002	2020-10-29T19:42:47:686
-276,429993	89,459999	36,959999	2020-10-29T19:42:47:710
-332,079987	98,279999	37,310001	2020-10-29T19:42:47:727
-332,010010	111,370003	36,540001	2020-10-29T19:42:47:751
-306,809998	134,190002	43,049999	2020-10-29T19:42:47:767
-287,700012	150,220001	58,240002	2020-10-29T19:42:47:790
-266,700012	144,970001	68,320000	2020-10-29T19:42:47:807
-237,300003	146,509995	86,239998	2020-10-29T19:42:47:831
-230,930008	140,630005	106,470001	2020-10-29T19:42:47:847
-232,750000	113,750000	119,139999	2020-10-29T19:42:47:870
-216,509995	88,550003	122,360001	2020-10-29T19:42:47:887
-184,940002	78,470001	115,150002	2020-10-29T19:42:47:911
-138,880005	72,660004	92,330002	2020-10-29T19:42:47:927
-121,379997	73,290001	70,000000	2020-10-29T19:42:47:950
-116,830002	80,360001	42,349998	2020-10-29T19:42:47:967
-122,430000	89,459999	8,470000	2020-10-29T19:42:47:991
-139,649994	102,690002	-26,180000	2020-10-29T19:42:48:008
-165,550003	117,110001	-59,360001	2020-10-29T19:42:48:030
-190,680008	131,389999	-87,570000	2020-10-29T19:42:48:047
-203,910004	150,289993	-108,709999	2020-10-29T19:42:48:071
-220,430008	164,220001	-117,879997	2020-10-29T19:42:48:087
-242,270004	167,440002	-116,129997	2020-10-29T19:42:48:109
-267,049988	160,089996	-106,120003	2020-10-29T19:42:48:127
-283,360016	147,210007	-98,419998	2020-10-29T19:42:48:151
-287,839996	131,880005	-95,550003	2020-10-29T19:42:48:167
-279,019989	111,790001	-98,980003	2020-10-29T19:42:48:190
-256,829987	90,510002	-107,379997	2020-10-29T19:42:48:207
-228,270004	71,959999	-116,620003	2020-10-29T19:42:48:231
-199,220001	54,740002	-126,699997	2020-10-29T19:42:48:248
-168,559998	39,830002	-136,639999	2020-10-29T19:42:48:270
-133,559998	28,139999	-144,479996	2020-10-29T19:42:48:287
-96,180000	17,080000	-147,350006	2020-10-29T19:42:48:311
-57,260002	6,650000	-145,600006	2020-10-29T19:42:48:327
-17,080000	-4,970000	-140,000000	2020-10-29T19:42:48:349
27,510000	-22,049999	-134,190002	2020-10-29T19:42:48:367
68,809998	-33,880001	-123,690002	2020-10-29T19:42:48:391
102,550003	-43,330002	-110,110001	2020-10-29T19:42:48:407
123,199997	-49,630001	-93,590004	2020-10-29T19:42:48:430
123,550003	-51,380001	-76,090004	2020-10-29T19:42:48:447
102,340004	-48,230000	-57,959999	2020-10-29T19:42:48:470
47,110001	-37,380001	-42,490002	2020-10-29T19:42:48:487
-57,610001	-23,170000	-32,410000	2020-10-29T19:42:48:510
-183,190002	-16,240000	-16,309999	2020-10-29T19:42:48:527
-275,660004	-9,730000	-3,360000	2020-10-29T19:42:48:550
-311,290009	0,770000	4,690000	2020-10-29T19:42:48:567
-299,320007	7,210000	6,580000	2020-10-29T19:42:48:590
-262,220001	10,640000	4,830000	2020-10-29T19:42:48:608
-230,509995	14,210000	5,110000	2020-10-29T19:42:48:631
-214,270004	12,250000	7,000000	2020-10-29T19:42:48:647
-198,169998	8,120000	8,470000	2020-10-29T19:42:48:670
-177,940002	4,200000	9,870000	2020-10-29T19:42:48:688
-149,449997	-0,630000	10,710000	2020-10-29T19:42:48:711
-105,769997	-9,870000	12,740000	2020-10-29T19:42:48:728
-54,740002	-24,850000	10,010000	2020-10-29T19:42:48:749
-16,730000	-35,770000	7,840000	2020-10-29T19:42:48:766
7,770000	-34,650002	5,250000	2020-10-29T19:42:48:794
16,940001	-18,549999	7,770000	2020-10-29T19:42:48:809
18,969999	5,250000	9,100000	2020-10-29T19:42:48:830
24,500000	9,940000	9,310000	2020-10-29T19:42:48:846
70,559998	12,670000	1,540000	2020-10-29T19:42:48:869
134,050003	17,570000	-7,910000	2020-10-29T19:42:48:887
198,940002	22,469999	-15,820000	2020-10-29T19:42:48:910
220,009995	27,020000	-13,510000	2020-10-29T19:42:48:928
189,979996	31,850000	-3,710000	2020-10-29T19:42:48:951
140,559998	32,200001	12,180000	2020-10-29T19:42:48:969
91,910004	27,580000	28,840000	2020-10-29T19:42:48:990
61,950001	22,820000	47,110001	2020-10-29T19:42:49:008
34,509998	25,200001	58,730000	2020-10-29T19:42:49:031
33,320000	29,540001	66,919998	2020-10-29T19:42:49:048
45,779999	34,580002	71,330002	2020-10-29T19:42:49:070
60,480000	44,450001	75,389999	2020-10-29T19:42:49:088
62,790001	55,790001	80,150002	2020-10-29T19:42:49:111
47,320000	63,910000	85,260002	2020-10-29T19:42:49:128
15,610000	68,250000	91,419998	2020-10-29T19:42:49:150
-24,850000	69,930000	98,629997	2020-10-29T19:42:49:169
-63,490002	69,230003	105,699997	2020-10-29T19:42:49:191
-100,169998	65,800003	111,440002	2020-10-29T19:42:49:208
-132,369995	58,380001	115,709999	2020-10-29T19:42:49:230
-148,610001	48,299999	114,730003	2020-10-29T19:42:49:248
-152,460007	38,220001	109,129997	2020-10-29T19:42:49:271
-146,860001	29,610001	98,349998	2020-10-29T19:42:49:288
-131,949997	20,860001	81,970001	2020-10-29T19:42:49:310
-109,830002	12,110000	60,689999	2020-10-29T19:42:49:329
-83,090004	6,160000	36,470001	2020-10-29T19:42:49:351
-54,110001	1,750000	9,660000	2020-10-29T19:42:49:368
-28,420000	-3,500000	-18,270000	2020-10-29T19:42:49:391
-13,720000	-9,730000	-45,080002	2020-10-29T19:42:49:408
-5,950000	-16,660000	-71,050003	2020-10-29T19:42:49:432
-1,400000	-34,580002	-100,800003	2020-10-29T19:42:49:448
-2,030000	-45,360001	-127,120003	2020-10-29T19:42:49:470
-2,310000	-36,750000	-140,910004	2020-10-29T19:42:49:488
9,450000	-27,230000	-149,449997	2020-10-29T19:42:49:512
29,750000	-30,170000	-155,119995	2020-10-29T19:42:49:529
55,790001	-33,529999	-151,830002	2020-10-29T19:42:49:550
86,309998	-32,689999	-139,160004	2020-10-29T19:42:49:568
122,570000	-26,460001	-120,470001	2020-10-29T19:42:49:592
148,680008	-14,420000	-95,410004	2020-10-29T19:42:49:609
140,350006	3,570000	-65,519997	2020-10-29T19:42:49:631
95,620003	16,660000	-34,930000	2020-10-29T19:42:49:648
26,670000	12,390000	-8,610000	2020-10-29T19:42:49:671
-46,619999	-2,100000	11,480000	2020-10-29T19:42:49:690
-108,849998	1,540000	28,210001	2020-10-29T19:42:49:711
-153,440002	12,040000	41,720001	2020-10-29T19:42:49:729
-178,570007	15,960000	52,080002	2020-10-29T19:42:49:752
-185,149994	19,670000	60,130001	2020-10-29T19:42:49:769
-173,809998	24,570000	64,330002	2020-10-29T19:42:49:791
-147,000000	26,740000	64,120003	2020-10-29T19:42:49:809
-118,160004	31,290001	61,250000	2020-10-29T19:42:49:833
-108,779999	36,049999	59,779999	2020-10-29T19:42:49:849
-109,199997	32,270000	54,740002	2020-10-29T19:42:49:871
-109,690002	26,809999	46,619999	2020-10-29T19:42:49:889
-100,800003	21,559999	36,330002	2020-10-29T19:42:49:912
-88,480003	14,910000	24,360001	2020-10-29T19:42:49:931
-75,809998	4,970000	10,500000	2020-10-29T19:42:49:951
-55,160000	-5,600000	-5,600000	2020-10-29T19:42:49:969
-25,900000	-11,900000	-23,100000	2020-10-29T19:42:49:992
1,820000	-12,460000	-38,150002	2020-10-29T19:42:50:009
25,200001	-13,300000	-50,820000	2020-10-29T19:42:50:031
49,910000	-16,100000	-62,299999	2020-10-29T19:42:50:049
72,029999	-17,219999	-70,910004	2020-10-29T19:42:50:072
87,080002	-18,480000	-75,529999	2020-10-29T19:42:50:088
102,199997	-18,340000	-75,180000	2020-10-29T19:42:50:112
112,980003	-16,030001	-70,840004	2020-10-29T19:42:50:129
119,209999	-10,150000	-62,510002	2020-10-29T19:42:50:153
113,400002	-2,730000	-49,910000	2020-10-29T19:42:50:170
94,150002	-8,190000	-38,779999	2020-10-29T19:42:50:191
72,169998	-29,190001	-33,389999	2020-10-29T19:42:50:209
51,240002	-3,500000	-15,260000	2020-10-29T19:42:50:233
30,309999	24,010000	2,870000	2020-10-29T19:42:50:250
6,230000	8,890000	13,160000	2020-10-29T19:42:50:271
-10,640000	2,730000	24,360001	2020-10-29T19:42:50:289
-14,630000	16,450001	38,639999	2020-10-29T19:42:50:313
-9,170000	21,840000	49,980000	2020-10-29T19:42:50:329
-1,190000	24,500000	58,869999	2020-10-29T19:42:50:351
9,800000	25,410000	65,940002	2020-10-29T19:42:50:369
27,090000	16,520000	67,830002	2020-10-29T19:42:50:393
50,259998	10,570000	66,150002	2020-10-29T19:42:50:410
81,620003	17,570000	62,090000	2020-10-29T19:42:50:432
115,849998	25,549999	56,000000	2020-10-29T19:42:50:450
136,850006	31,080000	50,820000	2020-10-29T19:42:50:473
140,699997	33,880001	45,220001	2020-10-29T19:42:50:489
129,990005	39,060001	42,980000	2020-10-29T19:42:50:512
108,080002	42,980000	43,610001	2020-10-29T19:42:50:530
79,379997	43,610001	47,459999	2020-10-29T19:42:50:553
49,490002	41,930000	52,920002	2020-10-29T19:42:50:569
22,610001	40,110001	59,709999	2020-10-29T19:42:50:592
0,560000	37,240002	66,779999	2020-10-29T19:42:50:610
-19,670000	31,570000	72,309998	2020-10-29T19:42:50:633
-39,270000	27,230000	75,809998	2020-10-29T19:42:50:652
-55,369999	21,700001	76,720001	2020-10-29T19:42:50:672
-69,230003	15,400000	74,620003	2020-10-29T19:42:50:690
-75,879997	8,190000	69,370003	2020-10-29T19:42:50:713
-70,980003	4,060000	61,599998	2020-10-29T19:42:50:730
-54,950001	-0,560000	50,540001	2020-10-29T19:42:50:753
-32,480000	-7,980000	36,540001	2020-10-29T19:42:50:770
-11,690000	-8,400000	23,590000	2020-10-29T19:42:50:793
2,800000	-8,890000	10,710000	2020-10-29T19:42:50:810
14,980000	-11,970000	-4,270000	2020-10-29T19:42:50:833
19,879999	-13,930000	-19,250000	2020-10-29T19:42:50:852
13,790000	-15,330000	-34,230000	2020-10-29T19:42:50:873
1,610000	-15,610000	-49,840000	2020-10-29T19:42:50:891
-12,320000	-13,860000	-66,500000	2020-10-29T19:42:50:912
-34,790001	-24,639999	-88,830002	2020-10-29T19:42:50:930
-62,090000	-28,350000	-108,010002	2020-10-29T19:42:50:953
-77,910004	-15,260000	-120,400002	2020-10-29T19:42:50:970
-78,400002	-9,240000	-133,279999	2020-10-29T19:42:50:992
-68,459999	-2,380000	-136,779999	2020-10-29T19:42:51:010
-42,490002	6,160000	-127,959999	2020-10-29T19:42:51:034
-1,820000	16,940001	-112,279999	2020-10-29T19:42:51:050
25,760000	28,210001	-93,800003	2020-10-29T19:42:51:072
21,420000	24,990000	-75,040001	2020-10-29T19:42:51:091
-2,870000	-0,770000	-56,279999	2020-10-29T19:42:51:114
-29,960001	-17,990000	-39,759998	2020-10-29T19:42:51:130
-56,420002	-2,030000	-23,100000	2020-10-29T19:42:51:152
-89,320000	24,570000	-8,260000	2020-10-29T19:42:51:169
-133,910004	38,990002	6,440000	2020-10-29T19:42:51:194
-154,070007	45,500000	18,129999	2020-10-29T19:42:51:210
-169,889999	53,340000	29,049999	2020-10-29T19:42:51:233
-185,570007	51,310001	36,820000	2020-10-29T19:42:51:250
-195,720001	38,500000	38,080002	2020-10-29T19:42:51:274
-193,690002	24,290001	32,759998	2020-10-29T19:42:51:290
-175,839996	13,510000	20,930000	2020-10-29T19:42:51:313
-145,320007	4,270000	3,780000	2020-10-29T19:42:51:331
-106,680000	-6,020000	-17,080000	2020-10-29T19:42:51:354
-60,619999	-15,470000	-39,340000	2020-10-29T19:42:51:371
-8,470000	-21,980000	-60,970001	2020-10-29T19:42:51:393
42,139999	-29,120001	-78,470001	2020-10-29T19:42:51:411
92,610001	-37,869999	-89,949997	2020-10-29T19:42:51:434
148,610001	-47,880001	-93,870003	2020-10-29T19:42:51:451
213,500000	-55,790001	-87,430000	2020-10-29T19:42:51:473
276,500000	-52,290001	-71,260002	2020-10-29T19:42:51:491
311,429993	-34,930000	-51,590000	2020-10-29T19:42:51:514
290,920013	-27,510000	-26,250000	2020-10-29T19:42:51:531
233,380005	-57,330002	-7,070000	2020-10-29T19:42:51:554
176,960007	-28,139999	16,450001	2020-10-29T19:42:51:571
120,540001	24,500000	37,939999	2020-10-29T19:42:51:594
61,599998	17,080000	51,939999	2020-10-29T19:42:51:610
14,420000	3,990000	62,790001	2020-10-29T19:42:51:633
-3,990000	19,879999	74,760002	2020-10-29T19:42:51:651
-2,520000	35,000000	85,260002	2020-10-29T19:42:51:674
7,700000	33,740002	90,580002	2020-10-29T19:42:51:691
25,900000	24,780001	90,300003	2020-10-29T19:42:51:713
55,510002	17,500000	85,120003	2020-10-29T19:42:51:731
88,269997	14,210000	77,489998	2020-10-29T19:42:51:754
115,430000	11,900000	68,320000	2020-10-29T19:42:51:771
131,460007	11,620000	60,480000	2020-10-29T19:42:51:793
134,330002	13,650000	56,000000	2020-10-29T19:42:51:811
124,879997	19,180000	56,630001	2020-10-29T19:42:51:834
107,870003	21,139999	60,130001	2020-10-29T19:42:51:852
86,519997	18,270000	65,800003	2020-10-29T19:42:51:873
64,400002	15,680000	73,150002	2020-10-29T19:42:51:891
42,560001	14,000000	81,970001	2020-10-29T19:42:51:915
22,400000	10,150000	90,510002	2020-10-29T19:42:51:931
5,320000	4,060000	97,580002	2020-10-29T19:42:51:954
-8,960000	-3,360000	102,269997	2020-10-29T19:42:51:971
-21,280001	-12,110000	102,760002	2020-10-29T19:42:51:994
-29,120001	-22,400000	98,139999	2020-10-29T19:42:52:011
-29,889999	-30,940001	88,269997	2020-10-29T19:42:52:033
-23,030001	-40,599998	72,800003	2020-10-29T19:42:52:051
-10,220000	-49,279999	53,060001	2020-10-29T19:42:52:073
5,320000	-56,209999	31,219999	2020-10-29T19:42:52:092
19,950001	-62,930000	8,400000	2020-10-29T19:42:52:113
31,010000	-67,970001	-14,210000	2020-10-29T19:42:52:131
41,369999	-71,889999	-36,680000	2020-10-29T19:42:52:154
50,959999	-74,760002	-58,170002	2020-10-29T19:42:52:172
59,570000	-77,279999	-78,750000	2020-10-29T19:42:52:193
73,919998	-77,559998	-97,510002	2020-10-29T19:42:52:211
100,730003	-74,269997	-109,970001	2020-10-29T19:42:52:234
139,580002	-76,370003	-116,410004	2020-10-29T19:42:52:251
214,270004	-89,879997	-115,220001	2020-10-29T19:42:52:274
263,059998	-99,400002	-107,449997	2020-10-29T19:42:52:292
290,290009	-99,610001	-93,309998	2020-10-29T19:42:52:315
282,309998	-86,730003	-72,730003	2020-10-29T19:42:52:333
239,190002	-66,080002	-51,170002	2020-10-29T19:42:52:383
169,750000	-49,490002	-33,810001	2020-10-29T19:42:52:384
91,769997	-40,250000	-21,700001	2020-10-29T19:42:52:401
-0,700000	-23,660000	-7,280000	2020-10-29T19:42:52:434
-64,260002	-11,550000	17,990000	2020-10-29T19:42:52:435
-60,270000	11,620000	26,809999	2020-10-29T19:42:52:452
-59,080002	31,290001	27,299999	2020-10-29T19:42:52:475
-77,769997	31,570000	32,200001	2020-10-29T19:42:52:491
-80,500000	27,440001	27,930000	2020-10-29T19:42:52:514
-56,700001	19,670000	22,190001	2020-10-29T19:42:52:533
-9,310000	10,150000	9,520000	2020-10-29T19:42:52:554
41,860001	-0,350000	-3,710000	2020-10-29T19:42:52:572
87,639999	-6,860000	-13,720000	2020-10-29T19:42:52:594
119,139999	-7,210000	-18,410000	2020-10-29T19:42:52:612
134,680008	-5,740000	-18,969999	2020-10-29T19:42:52:635
135,309998	-4,760000	-16,590000	2020-10-29T19:42:52:652
123,199997	-4,690000	-12,740000	2020-10-29T19:42:52:674
102,550003	-3,500000	-8,750000	2020-10-29T19:42:52:692
77,000000	-1,820000	-5,670000	2020-10-29T19:42:52:715
51,939999	-1,680000	-4,480000	2020-10-29T19:42:52:732
36,470001	-3,920000	-5,670000	2020-10-29T19:42:52:755
31,150000	-7,140000	-7,910000	2020-10-29T19:42:52:772
36,189999	-9,310000	-10,640000	2020-10-29T19:42:52:795
46,060001	-11,620000	-13,090000	2020-10-29T19:42:52:814
56,490002	-14,980000	-14,280000	2020-10-29T19:42:52:834
70,139999	-18,830000	-14,420000	2020-10-29T19:42:52:852
87,500000	-21,420000	-13,930000	2020-10-29T19:42:52:875
103,809998	-19,600000	-10,500000	2020-10-29T19:42:52:892
115,989998	-15,260000	-4,760000	2020-10-29T19:42:52:914
118,510002	-11,480000	2,450000	2020-10-29T19:42:52:932
109,199997	-6,650000	11,060000	2020-10-29T19:42:52:955
87,290001	-0,490000	20,580000	2020-10-29T19:42:52:972
55,369999	3,220000	29,610001	2020-10-29T19:42:52:994
20,580000	-1,890000	34,580002	2020-10-29T19:42:53:013
-1,890000	0,420000	37,939999	2020-10-29T19:42:53:035
-16,799999	15,540000	43,750000	2020-10-29T19:42:53:053
-25,270000	15,330000	44,520000	2020-10-29T19:42:53:074
-16,520000	11,970000	38,639999	2020-10-29T19:42:53:092
-7,420000	12,670000	32,130001	2020-10-29T19:42:53:115
-1,890000	9,310000	29,610001	2020-10-29T19:42:53:132
0,280000	8,610000	27,160000	2020-10-29T19:42:53:154
3,850000	12,040000	24,570000	2020-10-29T19:42:53:172
13,790000	13,440001	20,020000	2020-10-29T19:42:53:195
19,320000	12,670000	15,680000	2020-10-29T19:42:53:212
17,780001	12,600000	13,580000	2020-10-29T19:42:53:235
15,750000	10,640000	11,340000	2020-10-29T19:42:53:252
16,379999	4,480000	6,860000	2020-10-29T19:42:53:275
17,010000	0,140000	0,770000	2020-10-29T19:42:53:293
17,290001	-0,140000	-7,140000	2020-10-29T19:42:53:314
17,920000	1,540000	-17,150000	2020-10-29T19:42:53:332
13,860000	6,790000	-29,330000	2020-10-29T19:42:53:355
2,100000	15,470000	-32,130001	2020-10-29T19:42:53:372
-13,020000	18,340000	-30,520000	2020-10-29T19:42:53:395
-28,559999	19,180000	-24,150000	2020-10-29T19:42:53:413
-40,880001	19,740000	-16,100000	2020-10-29T19:42:53:436
-53,340000	18,620001	-6,440000	2020-10-29T19:42:53:452
-66,010002	15,680000	2,240000	2020-10-29T19:42:53:475
-76,860001	9,660000	7,700000	2020-10-29T19:42:53:492
-86,309998	5,600000	8,960000	2020-10-29T19:42:53:515
-91,070000	3,360000	5,670000	2020-10-29T19:42:53:534
-90,160004	0,700000	-2,030000	2020-10-29T19:42:53:554
-85,820000	0,350000	-12,740000	2020-10-29T19:42:53:572
-77,419998	3,850000	-24,780001	2020-10-29T19:42:53:596
-64,330002	5,810000	-37,660000	2020-10-29T19:42:53:613
-51,450001	6,020000	-49,910000	2020-10-29T19:42:53:635
-40,950001	6,930000	-58,240002	2020-10-29T19:42:53:652
-32,340000	7,490000	-62,650002	2020-10-29T19:42:53:675
-29,750000	5,040000	-63,420002	2020-10-29T19:42:53:692
-36,400002	1,890000	-60,760002	2020-10-29T19:42:53:715
-51,450001	5,250000	-52,639999	2020-10-29T19:42:53:733
-72,379997	13,510000	-40,880001	2020-10-29T19:42:53:756
-94,779999	10,500000	-32,270000	2020-10-29T19:42:53:772
-113,820000	5,810000	-24,219999	2020-10-29T19:42:53:795
-124,110001	2,730000	-18,760000	2020-10-29T19:42:53:813
-125,860001	-2,520000	-17,080000	2020-10-29T19:42:53:836
-114,449997	-3,220000	-17,639999	2020-10-29T19:42:53:853
-92,330002	0,560000	-18,410000	2020-10-29T19:42:53:875
-66,849998	3,290000	-18,480000	2020-10-29T19:42:53:893
-49,139999	4,760000	-15,750000	2020-10-29T19:42:53:917
-39,619999	6,510000	-10,990000	2020-10-29T19:42:53:933
-39,480000	8,120000	-4,550000	2020-10-29T19:42:53:956
-48,020000	5,880000	2,240000	2020-10-29T19:42:53:973
-58,450001	0,350000	8,050000	2020-10-29T19:42:53:995
-64,540001	-4,060000	12,320000	2020-10-29T19:42:54:014
-64,470001	-7,560000	14,420000	2020-10-29T19:42:54:036
-62,299999	-8,120000	15,820000	2020-10-29T19:42:54:053
-58,730000	-3,010000	18,129999	2020-10-29T19:42:54:076
-53,270000	0,910000	19,250000	2020-10-29T19:42:54:094
-50,610001	1,750000	21,000000	2020-10-29T19:42:54:115
-50,400002	3,290000	22,960001	2020-10-29T19:42:54:133
-47,950001	2,030000	23,030001	2020-10-29T19:42:54:156
-41,930000	-0,140000	18,620001	2020-10-29T19:42:54:173
-32,200001	7,910000	7,350000	2020-10-29T19:42:54:197
-34,020000	18,410000	-0,700000	2020-10-29T19:42:54:213
-44,099998	16,170000	-6,370000	2020-10-29T19:42:54:237
-53,760002	6,930000	-11,200000	2020-10-29T19:42:54:254
-57,189999	5,880000	-13,790000	2020-10-29T19:42:54:275
-39,619999	7,210000	-18,270000	2020-10-29T19:42:54:293
-18,410000	7,140000	-20,510000	2020-10-29T19:42:54:317
-9,310000	7,140000	-21,840000	2020-10-29T19:42:54:334
-0,700000	6,580000	-23,170000	2020-10-29T19:42:54:355
5,740000	5,950000	-23,520000	2020-10-29T19:42:54:373
7,350000	4,690000	-22,680000	2020-10-29T19:42:54:396
5,810000	3,360000	-20,930000	2020-10-29T19:42:54:413
4,060000	3,710000	-17,290001	2020-10-29T19:42:54:436
3,780000	-4,200000	-16,660000	2020-10-29T19:42:54:453
9,450000	-10,780000	-16,240000	2020-10-29T19:42:54:476
19,320000	2,310000	-11,340000	2020-10-29T19:42:54:495
29,049999	10,220000	-5,320000	2020-10-29T19:42:54:516
36,259998	0,280000	-2,450000	2020-10-29T19:42:54:533
43,189999	-4,340000	1,400000	2020-10-29T19:42:54:557
52,220001	-0,630000	5,950000	2020-10-29T19:42:54:573
60,480000	-3,360000	7,910000	2020-10-29T19:42:54:596
68,599998	-7,630000	8,330000	2020-10-29T19:42:54:614
81,550003	-7,490000	8,820000	2020-10-29T19:42:54:637
97,860001	-6,510000	9,870000	2020-10-29T19:42:54:653
112,980003	-5,040000	11,970000	2020-10-29T19:42:54:676
124,879997	-2,380000	15,890000	2020-10-29T19:42:54:694
132,020004	-4,550000	19,879999	2020-10-29T19:42:54:717
131,669998	-10,360000	22,540001	2020-10-29T19:42:54:735
123,550003	-12,740000	23,730000	2020-10-29T19:42:54:756
113,750000	-13,300000	22,120001	2020-10-29T19:42:54:773
106,260002	-10,640000	19,320000	2020-10-29T19:42:54:805
105,209999	-2,100000	18,410000	2020-10-29T19:42:54:814
109,760002	5,950000	20,719999	2020-10-29T19:42:54:837
108,010002	11,200000	28,840000	2020-10-29T19:42:54:854
98,840004	16,100000	38,500000	2020-10-29T19:42:54:877
82,739998	19,879999	51,029999	2020-10-29T19:42:54:893
57,750000	21,770000	64,050003	2020-10-29T19:42:54:916
29,610001	20,790001	74,970001	2020-10-29T19:42:54:934
0,350000	17,710001	82,739998	2020-10-29T19:42:54:957
-25,900000	12,810000	87,360001	2020-10-29T19:42:54:975
-41,860001	6,790000	86,870003	2020-10-29T19:42:54:996
-43,820000	1,050000	81,059998	2020-10-29T19:42:55:014
-33,459999	-3,920000	71,050003	2020-10-29T19:42:55:037
-15,400000	-7,630000	57,540001	2020-10-29T19:42:55:054
7,980000	-8,540000	42,349998	2020-10-29T19:42:55:076
29,120001	-8,120000	27,020000	2020-10-29T19:42:55:094
41,930000	-8,960000	12,740000	2020-10-29T19:42:55:117
52,080002	-10,780000	-1,260000	2020-10-29T19:42:55:134
59,080002	-10,430000	-13,160000	2020-10-29T19:42:55:156
59,150002	-11,830000	-23,590000	2020-10-29T19:42:55:174
51,170002	-20,020000	-35,560001	2020-10-29T19:42:55:197
40,040001	-11,620000	-40,320000	2020-10-29T19:42:55:215
31,010000	-8,750000	-43,680000	2020-10-29T19:42:55:237
-171,289993	-96,669998	-88,340004	2020-10-29T19:42:55:254
-65,660004	42,000000	-0,070000	2020-10-29T19:42:55:277
79,519997	-30,799999	-63,490002	2020-10-29T19:42:55:294
38,849998	-26,389999	-68,320000	2020-10-29T19:42:55:316
38,849998	-18,340000	-54,389999	2020-10-29T19:42:55:334
45,500000	-20,860001	-59,779999	2020-10-29T19:42:55:357
67,830002	-17,290001	-58,520000	2020-10-29T19:42:55:374
59,080002	-9,240000	-47,599998	2020-10-29T19:42:55:396
38,990002	-7,350000	-37,939999	2020-10-29T19:42:55:414
8,470000	-12,390000	-30,730000	2020-10-29T19:42:55:437
-24,219999	-14,000000	-22,960001	2020-10-29T19:42:55:455
-53,130001	-9,240000	-15,820000	2020-10-29T19:42:55:476
-70,559998	-6,580000	-12,460000	2020-10-29T19:42:55:494
-77,419998	-4,900000	-10,710000	2020-10-29T19:42:55:518
-71,540001	-3,010000	-8,540000	2020-10-29T19:42:55:535
-56,490002	2,100000	-9,660000	2020-10-29T19:42:55:557
-52,849998	0,560000	-9,940000	2020-10-29T19:42:55:574
-76,720001	-1,890000	-3,010000	2020-10-29T19:42:55:597
-116,270004	0,700000	3,920000	2020-10-29T19:42:55:614
-157,850006	3,850000	14,350000	2020-10-29T19:42:55:637
-163,100006	4,270000	17,570000	2020-10-29T19:42:55:654
-114,800003	2,520000	13,160000	2020-10-29T19:42:55:677
-31,150000	-0,140000	2,170000	2020-10-29T19:42:55:695
44,450001	-5,600000	-9,030000	2020-10-29T19:42:55:717
85,330002	-14,490000	-15,680000	2020-10-29T19:42:55:735
102,550003	-19,740000	-18,549999	2020-10-29T19:42:55:758
109,199997	-19,110001	-17,639999	2020-10-29T19:42:55:775
97,510002	-15,470000	-12,600000	2020-10-29T19:42:55:797
64,750000	-11,690000	-5,390000	2020-10-29T19:42:55:815
36,049999	-11,620000	3,920000	2020-10-29T19:42:55:838
28,000000	-5,180000	11,550000	2020-10-29T19:42:55:856
32,689999	2,380000	17,710001	2020-10-29T19:42:55:877
37,660000	-8,470000	15,540000	2020-10-29T19:42:55:895
37,170002	-4,970000	19,670000	2020-10-29T19:42:55:918
54,110001	3,290000	17,080000	2020-10-29T19:42:55:936
68,669998	-0,980000	13,020000	2020-10-29T19:42:55:957
73,360001	-1,400000	11,550000	2020-10-29T19:42:55:974
73,360001	-0,350000	13,090000	2020-10-29T19:42:55:998
69,650002	2,030000	18,760000	2020-10-29T19:42:56:014
69,370003	7,140000	27,090000	2020-10-29T19:42:56:037
71,820000	12,110000	33,389999	2020-10-29T19:42:56:055
73,290001	11,270000	35,770000	2020-10-29T19:42:56:078
69,090004	3,570000	34,299999	2020-10-29T19:42:56:095
59,639999	-1,470000	31,080000	2020-10-29T19:42:56:118
54,810001	2,450000	27,580000	2020-10-29T19:42:56:134
60,970001	10,500000	24,290001	2020-10-29T19:42:56:158
67,970001	18,200001	22,610001	2020-10-29T19:42:56:176
71,959999	23,240000	25,480000	2020-10-29T19:42:56:197
67,970001	26,460001	31,780001	2020-10-29T19:42:56:215
55,650002	29,750000	39,619999	2020-10-29T19:42:56:238
35,700001	29,190001	48,299999	2020-10-29T19:42:56:255
13,860000	26,250000	55,299999	2020-10-29T19:42:56:277
-6,300000	22,469999	59,920002	2020-10-29T19:42:56:295
-25,830000	17,360001	62,020000	2020-10-29T19:42:56:318
-39,340000	12,110000	60,130001	2020-10-29T19:42:56:335
-42,980000	8,960000	54,599998	2020-10-29T19:42:56:358
-38,920002	5,950000	46,270000	2020-10-29T19:42:56:375
-30,100000	2,380000	34,860001	2020-10-29T19:42:56:398
-17,639999	0,420000	21,000000	2020-10-29T19:42:56:415
-3,920000	-0,490000	5,530000	2020-10-29T19:42:56:438
6,720000	-2,030000	-10,710000	2020-10-29T19:42:56:455
11,200000	-3,080000	-26,460001	2020-10-29T19:42:56:478
15,470000	-2,240000	-41,160000	2020-10-29T19:42:56:495
19,950001	-2,240000	-52,009998	2020-10-29T19:42:56:518
22,469999	1,330000	-59,430000	2020-10-29T19:42:56:535
20,230000	-8,960000	-68,250000	2020-10-29T19:42:56:559
9,940000	-11,620000	-72,870003	2020-10-29T19:42:56:577
-5,530000	2,240000	-66,919998	2020-10-29T19:42:56:598
-32,970001	-11,130000	-68,040001	2020-10-29T19:42:56:617
-52,849998	-15,120000	-66,639999	2020-10-29T19:42:56:638
-65,309998	-7,350000	-62,369999	2020-10-29T19:42:56:658
-70,840004	-4,760000	-59,290001	2020-10-29T19:42:56:677
-70,699997	-2,590000	-55,930000	2020-10-29T19:42:56:696
-66,080002	3,080000	-49,700001	2020-10-29T19:42:56:719
-61,320000	5,740000	-41,509998	2020-10-29T19:42:56:737
-57,049999	1,680000	-34,090000	2020-10-29T19:42:56:758
-52,009998	-5,670000	-28,350000	2020-10-29T19:42:56:777
-48,090000	-6,300000	-22,190001	2020-10-29T19:42:56:798
-44,869999	-1,750000	-17,290001	2020-10-29T19:42:56:816
-44,450001	2,170000	-14,490000	2020-10-29T19:42:56:838
-47,670002	4,270000	-12,600000	2020-10-29T19:42:56:856
-52,779999	7,070000	-10,570000	2020-10-29T19:42:56:878
-59,220001	10,360000	-7,490000	2020-10-29T19:42:56:897
-65,309998	9,240000	-5,110000	2020-10-29T19:42:56:918
-70,840004	4,410000	-2,940000	2020-10-29T19:42:56:936
-73,639999	-2,310000	-2,310000	2020-10-29T19:42:56:959
-70,840004	-8,330000	-3,990000	2020-10-29T19:42:56:975
-61,250000	-10,360000	-7,770000	2020-10-29T19:42:56:997
-44,660000	-13,230000	-14,210000	2020-10-29T19:42:57:016
-23,100000	-17,850000	-22,469999	2020-10-29T19:42:57:039
0,630000	-24,219999	-30,309999	2020-10-29T19:42:57:056
30,590000	-30,030001	-36,400002	2020-10-29T19:42:57:078
70,139999	-33,250000	-39,060001	2020-10-29T19:42:57:096
112,000000	-34,439999	-36,610001	2020-10-29T19:42:57:119
147,630005	-33,599998	-30,730000	2020-10-29T19:42:57:136
168,910004	-28,210001	-22,469999	2020-10-29T19:42:57:158
167,089996	-20,160000	-11,900000	2020-10-29T19:42:57:176
143,919998	-16,590000	-2,800000	2020-10-29T19:42:57:199
109,550003	-21,700001	0,770000	2020-10-29T19:42:57:216
94,639999	-12,390000	1,190000	2020-10-29T19:42:57:238
104,790001	18,129999	7,840000	2020-10-29T19:42:57:256
107,590004	23,030001	13,020000	2020-10-29T19:42:57:279
98,000000	15,260000	19,040001	2020-10-29T19:42:57:296
100,519997	21,280001	24,290001	2020-10-29T19:42:57:319
112,770004	22,469999	29,260000	2020-10-29T19:42:57:336
142,520004	18,410000	29,750000	2020-10-29T19:42:57:359
183,610001	16,730000	28,280001	2020-10-29T19:42:57:377
220,290009	12,810000	26,740000	2020-10-29T19:42:57:398
257,390015	9,940000	24,780001	2020-10-29T19:42:57:416
284,760010	9,800000	23,940001	2020-10-29T19:42:57:439
282,519989	10,220000	29,400000	2020-10-29T19:42:57:456
261,799988	4,410000	34,790001	2020-10-29T19:42:57:478
235,059998	6,650000	43,889999	2020-10-29T19:42:57:497
205,589996	7,700000	52,150002	2020-10-29T19:42:57:519
185,080002	11,060000	57,400002	2020-10-29T19:42:57:537
153,580002	16,520000	55,860001	2020-10-29T19:42:57:558
111,020004	5,040000	45,639999	2020-10-29T19:42:57:576
68,599998	-22,260000	26,180000	2020-10-29T19:42:57:599
46,410000	-34,650002	5,460000	2020-10-29T19:42:57:618
42,840000	-28,350000	-9,100000	2020-10-29T19:42:57:638
52,990002	-23,379999	-19,320000	2020-10-29T19:42:57:656
59,220001	-22,190001	-24,290001	2020-10-29T19:42:57:679
45,360001	-18,690001	-21,840000	2020-10-29T19:42:57:697
25,900000	-12,320000	-17,430000	2020-10-29T19:42:57:718
-0,770000	-9,730000	-13,440001	2020-10-29T19:42:57:737
-25,830000	-10,290000	-10,150000	2020-10-29T19:42:57:759
-37,380001	-10,150000	-8,820000	2020-10-29T19:42:57:777
-36,259998	-6,930000	-8,470000	2020-10-29T19:42:57:799
-30,450001	-6,090000	-10,220000	2020-10-29T19:42:57:817
-17,850000	-9,030000	-14,070000	2020-10-29T19:42:57:840
-0,280000	-8,400000	-17,570000	2020-10-29T19:42:57:858
17,430000	-4,270000	-19,320000	2020-10-29T19:42:57:878
27,090000	-9,240000	-21,840000	2020-10-29T19:42:57:897
28,350000	-34,160000	-31,570000	2020-10-29T19:42:57:921
30,870001	-34,930000	-35,560001	2020-10-29T19:42:57:938
47,389999	-5,320000	-24,920000	2020-10-29T19:42:57:959
73,150002	-18,830000	-26,040001	2020-10-29T19:42:57:977
105,559998	-51,799999	-29,120001	2020-10-29T19:42:58:000
138,110001	-58,099998	-24,639999	2020-10-29T19:42:58:017
166,180008	-50,610001	-19,950001	2020-10-29T19:42:58:039
182,490005	-51,520000	-19,460001	2020-10-29T19:42:58:057
183,399994	-49,000000	-20,650000	2020-10-29T19:42:58:080
176,820007	-40,740002	-22,330000	2020-10-29T19:42:58:099
170,589996	-30,030001	-22,889999	2020-10-29T19:42:58:119
158,059998	-15,260000	-26,250000	2020-10-29T19:42:58:137
128,940002	-0,770000	-26,950001	2020-10-29T19:42:58:160
89,949997	7,140000	-26,670000	2020-10-29T19:42:58:177
110,040001	2,240000	-23,520000	2020-10-29T19:42:58:199
155,539993	6,370000	-21,350000	2020-10-29T19:42:58:217
178,919998	3,850000	-18,129999	2020-10-29T19:42:58:240
177,309998	-10,360000	-16,660000	2020-10-29T19:42:58:257
157,639999	-21,840000	-19,670000	2020-10-29T19:42:58:279
136,779999	-26,040001	-25,480000	2020-10-29T19:42:58:297
114,730003	-26,670000	-35,770000	2020-10-29T19:42:58:320
96,739998	-19,460001	-45,920002	2020-10-29T19:42:58:339
87,849998	-4,480000	-53,619999	2020-10-29T19:42:58:359
89,110001	2,170000	-59,290001	2020-10-29T19:42:58:377
99,400002	2,940000	-58,099998	2020-10-29T19:42:58:400
110,739998	-2,380000	-50,540001	2020-10-29T19:42:58:418
116,550003	-8,330000	-38,920002	2020-10-29T19:42:58:440
128,309998	-11,480000	-29,680000	2020-10-29T19:42:58:457
157,080002	-5,040000	-14,210000	2020-10-29T19:42:58:480
189,419998	-12,460000	-0,980000	2020-10-29T19:42:58:497
218,190002	-25,900000	6,930000	2020-10-29T19:42:58:520
238,559998	-23,730000	11,410000	2020-10-29T19:42:58:538
240,729996	-20,440001	9,660000	2020-10-29T19:42:58:561
236,740005	-18,760000	2,800000	2020-10-29T19:42:58:579
249,479996	4,410000	6,580000	2020-10-29T19:42:58:600
279,790009	49,560001	20,230000	2020-10-29T19:42:58:618
312,269989	88,129997	33,810001	2020-10-29T19:42:58:641
301,559998	109,270004	58,170002	2020-10-29T19:42:58:658
261,519989	133,910004	85,260002	2020-10-29T19:42:58:679
201,669998	147,770004	112,629997	2020-10-29T19:42:58:698
106,260002	148,259995	136,289993	2020-10-29T19:42:58:721
-14,280000	144,970001	168,910004	2020-10-29T19:42:58:738
-126,629997	129,710007	198,940002	2020-10-29T19:42:58:760
-215,250000	104,650002	223,860001	2020-10-29T19:42:58:778
-275,380005	60,340000	221,130005	2020-10-29T19:42:58:800
-266,000000	34,439999	206,289993	2020-10-29T19:42:58:819
-219,729996	11,270000	181,020004	2020-10-29T19:42:58:840
-136,850006	-7,770000	149,520004	2020-10-29T19:42:58:857
-36,889999	-13,860000	114,309998	2020-10-29T19:42:58:881
54,670002	-6,370000	75,599998	2020-10-29T19:42:58:898
119,279999	8,890000	37,380001	2020-10-29T19:42:58:920
156,520004	30,799999	5,320000	2020-10-29T19:42:58:938
157,500000	52,920002	-13,300000	2020-10-29T19:42:58:961
118,580002	67,550003	-21,700001	2020-10-29T19:42:58:977
59,290001	70,279999	-21,350000	2020-10-29T19:42:59:000
6,300000	60,830002	-16,940001	2020-10-29T19:42:59:017
-36,189999	44,660000	-7,910000	2020-10-29T19:42:59:041
-71,190002	24,219999	-3,570000	2020-10-29T19:42:59:058
-97,580002	0,910000	-7,420000	2020-10-29T19:42:59:078
-109,129997	-20,440001	-21,629999	2020-10-29T19:42:59:097
-98,279999	-35,139999	-45,639999	2020-10-29T19:42:59:121
-66,849998	-43,189999	-74,970001	2020-10-29T19:42:59:138
-25,129999	-44,170002	-105,279999	2020-10-29T19:42:59:160
9,660000	-40,950001	-132,580002	2020-10-29T19:42:59:178
30,730000	-34,650002	-154,839996	2020-10-29T19:42:59:201
40,389999	-30,030001	-174,020004	2020-10-29T19:42:59:218
34,650002	-18,480000	-181,300003	2020-10-29T19:42:59:240
26,950001	-20,020000	-186,759995	2020-10-29T19:42:59:258
13,020000	-30,030001	-187,110001	2020-10-29T19:42:59:280
-9,520000	-41,439999	-182,490005	2020-10-29T19:42:59:298
-31,219999	-40,740002	-169,610001	2020-10-29T19:42:59:321
-50,680000	-32,340000	-152,389999	2020-10-29T19:42:59:338
-72,379997	-25,200001	-134,750000	2020-10-29T19:42:59:362
-100,519997	-20,580000	-117,180000	2020-10-29T19:42:59:378
-123,690002	-18,690001	-102,340004	2020-10-29T19:42:59:400
-144,130005	-21,210001	-91,699997	2020-10-29T19:42:59:418
-164,919998	-17,430000	-81,900002	2020-10-29T19:42:59:441
-175,419998	-11,970000	-73,430000	2020-10-29T19:42:59:458
-167,089996	-8,190000	-66,500000	2020-10-29T19:42:59:480
-156,029999	-3,570000	-59,709999	2020-10-29T19:42:59:498
-144,339996	-14,350000	-58,029999	2020-10-29T19:42:59:521
-119,419998	-13,510000	-51,869999	2020-10-29T19:42:59:539
-86,379997	-8,120000	-44,380001	2020-10-29T19:42:59:560
-58,869999	-8,260000	-33,950001	2020-10-29T19:42:59:578
-39,480000	0,490000	-18,549999	2020-10-29T19:42:59:601
-24,990000	9,520000	-3,920000	2020-10-29T19:42:59:619
-14,560000	13,370000	11,060000	2020-10-29T19:42:59:641
-4,760000	9,380000	22,680000	2020-10-29T19:42:59:658
7,700000	-6,090000	30,030001	2020-10-29T19:42:59:681
39,830002	-10,570000	40,320000	2020-10-29T19:42:59:698
87,989998	2,520000	50,470001	2020-10-29T19:42:59:721
124,389999	14,280000	59,150002	2020-10-29T19:42:59:739
140,910004	26,250000	68,250000	2020-10-29T19:42:59:761
133,770004	39,619999	80,709999	2020-10-29T19:42:59:779
117,320000	46,340000	98,209999	2020-10-29T19:42:59:801
103,180000	46,200001	112,349998	2020-10-29T19:42:59:818
84,419998	46,410000	122,779999	2020-10-29T19:42:59:842
61,180000	46,759998	132,089996	2020-10-29T19:42:59:859
20,440001	43,119999	140,350006	2020-10-29T19:42:59:881
-2,380000	39,340000	141,889999	2020-10-29T19:42:59:899
-15,260000	35,560001	140,279999	2020-10-29T19:42:59:922
-19,110001	30,520000	136,850006	2020-10-29T19:42:59:939
-14,910000	28,840000	134,050003	2020-10-29T19:42:59:961
-3,780000	27,160000	132,369995	2020-10-29T19:42:59:979
9,450000	25,129999	131,600006	2020-10-29T19:43:00:001
19,879999	20,930000	129,990005	2020-10-29T19:43:00:020
22,330000	11,060000	125,440002	2020-10-29T19:43:00:041
16,730000	3,150000	118,020004	2020-10-29T19:43:00:059
5,740000	7,000000	110,879997	2020-10-29T19:43:00:082
-4,900000	6,650000	99,820000	2020-10-29T19:43:00:099
-15,330000	-9,450000	79,099998	2020-10-29T19:43:00:121
-26,250000	-7,350000	58,380001	2020-10-29T19:43:00:139
-28,350000	-6,370000	35,490002	2020-10-29T19:43:00:162
-21,280001	-7,490000	9,730000	2020-10-29T19:43:00:179
-7,560000	-5,320000	-13,160000	2020-10-29T19:43:00:201
17,290001	-5,670000	-33,950001	2020-10-29T19:43:00:219
41,369999	-18,690001	-55,580002	2020-10-29T19:43:00:242
54,250000	-37,590000	-77,980003	2020-10-29T19:43:00:260
57,470001	-42,980000	-94,150002	2020-10-29T19:43:00:281
54,950001	-34,860001	-102,760002	2020-10-29T19:43:00:299
41,930000	-25,270000	-107,730003	2020-10-29T19:43:00:322
17,219999	-13,930000	-111,300003	2020-10-29T19:43:00:339
-14,770000	-1,050000	-112,770004	2020-10-29T19:43:00:361
-42,630001	9,240000	-113,400002	2020-10-29T19:43:00:379
-60,200001	15,820000	-112,910004	2020-10-29T19:43:00:402
-67,269997	21,070000	-110,180000	2020-10-29T19:43:00:419
-60,760002	27,650000	-103,669998	2020-10-29T19:43:00:441
-44,520000	36,330002	-96,110001	2020-10-29T19:43:00:460
-30,380001	39,130001	-86,379997	2020-10-29T19:43:00:482
-25,900000	34,720001	-77,209999	2020-10-29T19:43:00:500
-28,490000	25,480000	-69,790001	2020-10-29T19:43:00:521
-35,980000	15,330000	-63,349998	2020-10-29T19:43:00:539
-51,170002	9,100000	-58,520000	2020-10-29T19:43:00:562
-80,779999	5,040000	-54,599998	2020-10-29T19:43:00:579
-110,180000	5,740000	-53,200001	2020-10-29T19:43:00:601
-130,410004	4,620000	-55,439999	2020-10-29T19:43:00:620
-140,839996	-3,850000	-62,369999	2020-10-29T19:43:00:643
-142,449997	-8,400000	-72,800003	2020-10-29T19:43:00:659
-135,520004	-4,410000	-86,169998	2020-10-29T19:43:00:681
-117,389999	-2,240000	-105,070000	2020-10-29T19:43:00:699
-86,099998	-1,190000	-126,629997	2020-10-29T19:43:00:723
-55,020000	6,370000	-134,470001	2020-10-29T19:43:00:741
-30,309999	1,680000	-124,739998	2020-10-29T19:43:00:762
-12,810000	8,680000	-88,970001	2020-10-29T19:43:00:780
23,660000	29,960001	-63,209999	2020-10-29T19:43:00:802
46,060001	28,350000	-30,030001	2020-10-29T19:43:00:820
40,110001	-6,510000	13,300000	2020-10-29T19:43:00:842
26,460001	-50,470001	52,430000	2020-10-29T19:43:00:860
20,580000	-61,040001	82,529999	2020-10-29T19:43:00:882
18,059999	-41,509998	114,239998	2020-10-29T19:43:00:899
10,990000	7,350000	146,440002	2020-10-29T19:43:00:922
2,870000	43,889999	162,539993	2020-10-29T19:43:00:940
-13,440001	45,920002	180,880005	2020-10-29T19:43:00:962
-35,630001	43,119999	193,899994	2020-10-29T19:43:00:980
-37,310001	35,139999	201,320007	2020-10-29T19:43:01:002
-13,440001	30,100000	198,869995	2020-10-29T19:43:01:020
13,230000	30,799999	194,669998	2020-10-29T19:43:01:044
34,580002	30,520000	187,460007	2020-10-29T19:43:01:060
44,730000	36,049999	177,449997	2020-10-29T19:43:01:096
34,090000	51,660000	168,070007	2020-10-29T19:43:01:100
12,950000	70,840004	158,830002	2020-10-29T19:43:01:123
-5,530000	77,419998	143,779999	2020-10-29T19:43:01:143
-18,830000	76,370003	124,599998	2020-10-29T19:43:01:162
-29,469999	82,110001	104,019997	2020-10-29T19:43:01:180
-39,200001	89,669998	81,199997	2020-10-29T19:43:01:203
-50,049999	91,489998	54,459999	2020-10-29T19:43:01:221
-56,139999	86,099998	22,049999	2020-10-29T19:43:01:242
-58,380001	74,900002	-14,910000	2020-10-29T19:43:01:260
-63,910000	72,519997	-48,720001	2020-10-29T19:43:01:283
-67,900002	64,959999	-85,610001	2020-10-29T19:43:01:300
-78,610001	52,639999	-126,070000	2020-10-29T19:43:01:322
-105,699997	49,490002	-165,899994	2020-10-29T19:43:01:340
-138,949997	51,869999	-201,600006	2020-10-29T19:43:01:363
-164,850006	59,849998	-227,850006	2020-10-29T19:43:01:380
-172,130005	69,650002	-243,809998	2020-10-29T19:43:01:402
-160,930008	66,360001	-254,449997	2020-10-29T19:43:01:420
-130,339996	47,459999	-259,279999	2020-10-29T19:43:01:443
-70,699997	19,180000	-255,149994	2020-10-29T19:43:01:460
24,150000	-4,550000	-234,990005	2020-10-29T19:43:01:482
134,610001	-18,200001	-196,839996	2020-10-29T19:43:01:500
203,419998	-8,120000	-166,110001	2020-10-29T19:43:01:523
185,080002	-15,120000	-134,050003	2020-10-29T19:43:01:541
77,980003	-33,180000	-85,400002	2020-10-29T19:43:01:563
-48,020000	-28,559999	-50,959999	2020-10-29T19:43:01:580
-165,339996	-4,690000	-28,210001	2020-10-29T19:43:01:605
-289,239990	1,120000	-20,090000	2020-10-29T19:43:01:621
-410,899994	1,050000	-7,070000	2020-10-29T19:43:01:643
-489,440002	13,790000	7,980000	2020-10-29T19:43:01:660
-509,880005	30,309999	11,410000	2020-10-29T19:43:01:683
-482,230011	37,029999	2,730000	2020-10-29T19:43:01:701
-423,500000	41,020000	-12,600000	2020-10-29T19:43:01:722
-345,029999	44,799999	-33,389999	2020-10-29T19:43:01:741
-252,910004	46,759998	-60,340000	2020-10-29T19:43:01:763
-155,050003	47,180000	-89,809998	2020-10-29T19:43:01:781
-66,639999	40,599998	-114,660004	2020-10-29T19:43:01:802
-4,830000	25,969999	-128,449997	2020-10-29T19:43:01:821
43,959999	10,920000	-127,959999	2020-10-29T19:43:01:844
83,790001	-1,890000	-114,169998	2020-10-29T19:43:01:860
119,910004	-18,129999	-102,690002	2020-10-29T19:43:01:883
130,270004	-35,630001	-85,190002	2020-10-29T19:43:01:900
103,529999	-45,500000	-53,970001	2020-10-29T19:43:01:924
61,950001	-55,020000	-28,630001	2020-10-29T19:43:01:942
13,370000	-67,970001	-15,050000	2020-10-29T19:43:01:962
-20,020000	-80,220001	-5,740000	2020-10-29T19:43:01:981
-1,050000	-63,349998	-1,050000	2020-10-29T19:43:02:003
50,680000	-39,060001	3,920000	2020-10-29T19:43:02:021
134,750000	-36,119999	14,210000	2020-10-29T19:43:02:043
202,509995	-29,889999	26,670000	2020-10-29T19:43:02:061
264,950012	-8,680000	42,209999	2020-10-29T19:43:02:084
291,410004	21,210001	63,630001	2020-10-29T19:43:02:101
260,470001	38,150002	83,720001	2020-10-29T19:43:02:123
211,960007	44,939999	98,629997	2020-10-29T19:43:02:141
238,699997	70,840004	85,610001	2020-10-29T19:43:02:163
185,990005	102,410004	117,110001	2020-10-29T19:43:02:182
92,889999	118,650002	141,399994	2020-10-29T19:43:02:202
34,439999	135,800003	159,529999	2020-10-29T19:43:02:221
-20,580000	127,820000	185,779999	2020-10-29T19:43:02:244
-55,299999	110,180000	202,789993	2020-10-29T19:43:02:261
-86,800003	91,419998	215,250000	2020-10-29T19:43:02:283
-108,989998	69,860001	217,210007	2020-10-29T19:43:02:301
-116,690002	43,119999	208,880005	2020-10-29T19:43:02:324
-105,699997	26,110001	192,430008	2020-10-29T19:43:02:341
-78,680000	23,240000	173,320007	2020-10-29T19:43:02:363
-41,860001	23,730000	152,529999	2020-10-29T19:43:02:381
-5,460000	21,280001	130,059998	2020-10-29T19:43:02:404
20,510000	21,770000	106,120003	2020-10-29T19:43:02:423
31,010000	28,350000	82,809998	2020-10-29T19:43:02:443
32,200001	32,410000	56,840000	2020-10-29T19:43:02:461
28,840000	35,770000	29,400000	2020-10-29T19:43:02:484
27,930000	40,810001	-0,140000	2020-10-29T19:43:02:500
48,860001	45,709999	-30,590000	2020-10-29T19:43:02:523
69,650002	39,410000	-61,320000	2020-10-29T19:43:02:541
54,040001	34,090000	-83,510002	2020-10-29T19:43:02:564
16,379999	27,719999	-98,840004	2020-10-29T19:43:02:581
-23,030001	7,630000	-116,970001	2020-10-29T19:43:02:603
-60,270000	-11,690000	-137,479996	2020-10-29T19:43:02:621
-86,379997	-25,200001	-158,130005	2020-10-29T19:43:02:644
-96,459999	-38,220001	-181,440002	2020-10-29T19:43:02:661
-88,970001	-51,590000	-205,449997	2020-10-29T19:43:02:684
-62,230000	-60,970001	-224,000000	2020-10-29T19:43:02:702
-19,950001	-73,500000	-236,180008	2020-10-29T19:43:02:725
54,740002	-87,779999	-231,910004	2020-10-29T19:43:02:742
151,759995	-74,199997	-192,080002	2020-10-29T19:43:02:764
212,240005	-8,750000	-165,759995	2020-10-29T19:43:02:781
187,250000	-11,830000	-134,960007	2020-10-29T19:43:02:804
120,120003	-41,020000	-96,110001	2020-10-29T19:43:02:822
35,209999	-36,959999	-64,470001	2020-10-29T19:43:02:844
-62,020000	-20,299999	-43,610001	2020-10-29T19:43:02:861
-159,880005	-13,930000	-26,320000	2020-10-29T19:43:02:884
-237,930008	-4,550000	-8,120000	2020-10-29T19:43:02:904
-290,290009	13,510000	11,760000	2020-10-29T19:43:02:924
-311,220001	24,500000	22,889999	2020-10-29T19:43:02:942
-303,730011	29,889999	24,570000	2020-10-29T19:43:02:964
-271,880005	30,870001	20,650000	2020-10-29T19:43:02:982
-221,759995	26,040001	12,110000	2020-10-29T19:43:03:003
-165,199997	20,230000	-0,770000	2020-10-29T19:43:03:022
-111,860001	16,590000	-14,350000	2020-10-29T19:43:03:045
-65,029999	11,130000	-26,600000	2020-10-29T19:43:03:061
-28,490000	0,420000	-37,029999	2020-10-29T19:43:03:084
-1,750000	-9,870000	-44,450001	2020-10-29T19:43:03:102
23,240000	-16,870001	-50,400002	2020-10-29T19:43:03:125
65,730003	-28,840000	-51,029999	2020-10-29T19:43:03:142
92,959999	-34,160000	-47,110001	2020-10-29T19:43:03:164
112,770004	-31,500000	-37,450001	2020-10-29T19:43:03:182
121,590004	-39,410000	-27,440001	2020-10-29T19:43:03:205
136,850006	-57,049999	-16,730000	2020-10-29T19:43:03:223
148,539993	-26,389999	8,260000	2020-10-29T19:43:03:245
148,960007	2,940000	33,250000	2020-10-29T19:43:03:262
112,559998	15,820000	58,730000	2020-10-29T19:43:03:285
46,060001	35,279999	88,340004	2020-10-29T19:43:03:302
-20,650000	53,480000	118,720001	2020-10-29T19:43:03:324
-69,230003	53,410000	138,600006	2020-10-29T19:43:03:342
-90,090004	39,689999	154,350006	2020-10-29T19:43:03:365
-74,760002	32,900002	163,029999	2020-10-29T19:43:03:382
-31,780001	38,150002	173,949997	2020-10-29T19:43:03:404
29,820000	56,770000	186,059998	2020-10-29T19:43:03:422
79,940002	76,860001	185,289993	2020-10-29T19:43:03:445
88,480003	88,550003	174,789993	2020-10-29T19:43:03:462
65,940002	92,959999	165,759995	2020-10-29T19:43:03:484
37,029999	89,949997	153,580002	2020-10-29T19:43:03:502
5,880000	81,550003	139,300003	2020-10-29T19:43:03:525
-26,389999	71,260002	122,639999	2020-10-29T19:43:03:542
-54,040001	59,360001	103,250000	2020-10-29T19:43:03:564
-75,180000	51,170002	83,930000	2020-10-29T19:43:03:582
-87,430000	48,090000	63,560001	2020-10-29T19:43:03:605
-94,430000	48,020000	41,509998	2020-10-29T19:43:03:623
-102,620003	53,549999	21,210001	2020-10-29T19:43:03:645
-108,360001	64,120003	3,640000	2020-10-29T19:43:03:662
-107,590004	73,010002	-14,700000	2020-10-29T19:43:03:685
-105,559998	77,629997	-34,930000	2020-10-29T19:43:03:702
-108,779999	85,190002	-55,439999	2020-10-29T19:43:03:724
-117,529999	94,709999	-77,209999	2020-10-29T19:43:03:743
-131,880005	103,389999	-101,430000	2020-10-29T19:43:03:765
-153,369995	111,370003	-125,930000	2020-10-29T19:43:03:782
-178,850006	117,599998	-150,430008	2020-10-29T19:43:03:804
-206,080002	127,260002	-171,009995	2020-10-29T19:43:03:823
-233,029999	142,449997	-180,250000	2020-10-29T19:43:03:846
-255,710007	150,360001	-181,580002	2020-10-29T19:43:03:863
-269,920013	144,550003	-181,580002	2020-10-29T19:43:03:884
-274,610016	133,139999	-177,800003	2020-10-29T19:43:03:902
-269,429993	119,279999	-171,990005	2020-10-29T19:43:03:927
-253,610001	100,449997	-167,789993	2020-10-29T19:43:03:943
-235,759995	78,959999	-165,059998	2020-10-29T19:43:03:965
-222,389999	62,439999	-158,059998	2020-10-29T19:43:03:983
-206,919998	53,970001	-147,000000	2020-10-29T19:43:04:006
-182,630005	53,130001	-133,490005	2020-10-29T19:43:04:023
-150,360001	54,320000	-117,739998	2020-10-29T19:43:04:046
-119,559998	53,900002	-99,889999	2020-10-29T19:43:04:063
-98,840004	49,840000	-81,340004	2020-10-29T19:43:04:086
-85,820000	46,340000	-63,490002	2020-10-29T19:43:04:102
-83,930000	43,470001	-47,740002	2020-10-29T19:43:04:125
-97,230003	39,340000	-35,910000	2020-10-29T19:43:04:143
-120,330002	35,910000	-27,370001	2020-10-29T19:43:04:166
-146,720001	31,219999	-22,260000	2020-10-29T19:43:04:183
-171,289993	23,240000	-20,230000	2020-10-29T19:43:04:205
-198,800003	11,760000	-21,280001	2020-10-29T19:43:04:223
-202,229996	4,060000	-25,480000	2020-10-29T19:43:04:247
-191,520004	-3,220000	-31,639999	2020-10-29T19:43:04:263
-170,520004	-8,750000	-38,009998	2020-10-29T19:43:04:285
-145,110001	-13,790000	-43,259998	2020-10-29T19:43:04:303
-119,840004	-20,299999	-45,920002	2020-10-29T19:43:04:326
-92,120003	-28,559999	-48,439999	2020-10-29T19:43:04:344
-60,130001	-37,869999	-51,029999	2020-10-29T19:43:04:365
-27,580000	-46,689999	-52,709999	2020-10-29T19:43:04:383
-14,490000	-50,259998	-49,420002	2020-10-29T19:43:04:406
-21,840000	-53,130001	-44,939999	2020-10-29T19:43:04:424
-40,529999	-59,639999	-40,529999	2020-10-29T19:43:04:446
-56,560001	-67,129997	-36,400002	2020-10-29T19:43:04:463
-54,740002	-56,490002	-26,040001	2020-10-29T19:43:04:486
-90,930000	-22,889999	2,660000	2020-10-29T19:43:04:503
-170,100006	7,910000	23,799999	2020-10-29T19:43:04:526
-171,710007	21,700001	40,810001	2020-10-29T19:43:04:544
-71,959999	36,330002	49,070000	2020-10-29T19:43:04:566
46,270000	52,570000	35,420002	2020-10-29T19:43:04:584
78,190002	51,310001	24,780001	2020-10-29T19:43:04:605
36,470001	36,820000	35,980000	2020-10-29T19:43:04:624
4,340000	33,950001	48,930000	2020-10-29T19:43:04:647
-25,480000	44,939999	52,430000	2020-10-29T19:43:04:663
-68,599998	47,599998	58,099998	2020-10-29T19:43:04:685
-95,760002	49,279999	66,849998	2020-10-29T19:43:04:704
-96,529999	48,650002	70,070000	2020-10-29T19:43:04:727
-83,160004	42,000000	69,790001	2020-10-29T19:43:04:744
-58,869999	36,119999	67,269997	2020-10-29T19:43:04:766
-28,070000	30,520000	62,650002	2020-10-29T19:43:04:784
3,290000	23,940001	54,880001	2020-10-29T19:43:04:808
26,950001	17,430000	49,000000	2020-10-29T19:43:04:824
27,160000	9,170000	50,259998	2020-10-29T19:43:04:846
21,070000	1,540000	46,689999	2020-10-29T19:43:04:863
16,030001	-0,910000	40,950001	2020-10-29T19:43:04:887
4,970000	-1,960000	37,520000	2020-10-29T19:43:04:904
-7,420000	-5,040000	32,410000	2020-10-29T19:43:04:926
-14,840000	-9,030000	25,129999	2020-10-29T19:43:04:944
-20,930000	-12,950000	16,730000	2020-10-29T19:43:04:967
-23,240000	-17,360001	5,040000	2020-10-29T19:43:04:984
-19,389999	-23,030001	-9,800000	2020-10-29T19:43:05:006
-8,960000	-29,330000	-27,580000	2020-10-29T19:43:05:024
3,080000	-32,410000	-45,639999	2020-10-29T19:43:05:047
16,660000	-34,090000	-62,790001	2020-10-29T19:43:05:065
32,410000	-34,299999	-77,419998	2020-10-29T19:43:05:086
50,189999	-33,110001	-88,340004	2020-10-29T19:43:05:104
67,970001	-35,910000	-95,620003	2020-10-29T19:43:05:127
77,910004	-40,320000	-97,019997	2020-10-29T19:43:05:145
78,820000	-32,130001	-91,419998	2020-10-29T19:43:05:166
66,290001	-20,090000	-79,099998	2020-10-29T19:43:05:184
35,000000	-14,420000	-66,989998	2020-10-29T19:43:05:207
-12,530000	-30,660000	-60,480000	2020-10-29T19:43:05:224
-52,080002	-23,590000	-49,980000	2020-10-29T19:43:05:246
-68,739998	-10,360000	-43,959999	2020-10-29T19:43:05:264
-72,449997	-8,750000	-43,680000	2020-10-29T19:43:05:288
-54,459999	0,490000	-43,400002	2020-10-29T19:43:05:305
-21,700001	9,520000	-41,020000	2020-10-29T19:43:05:327
19,460001	17,920000	-36,889999	2020-10-29T19:43:05:344
50,400002	18,760000	-29,820000	2020-10-29T19:43:05:369
66,849998	7,210000	-22,260000	2020-10-29T19:43:05:384
67,830002	2,520000	-11,480000	2020-10-29T19:43:05:407
53,760002	11,340000	2,660000	2020-10-29T19:43:05:425
30,940001	19,389999	16,730000	2020-10-29T19:43:05:448
5,670000	23,870001	28,490000	2020-10-29T19:43:05:464
-21,000000	30,940001	40,459999	2020-10-29T19:43:05:487
-51,170002	38,709999	54,459999	2020-10-29T19:43:05:504
-81,970001	43,820000	68,809998	2020-10-29T19:43:05:528
-107,940002	44,099998	80,290001	2020-10-29T19:43:05:545
-130,619995	38,290001	90,019997	2020-10-29T19:43:05:567
-144,899994	28,770000	94,919998	2020-10-29T19:43:05:584
-148,750000	19,320000	95,129997	2020-10-29T19:43:05:608
-142,660004	10,010000	89,459999	2020-10-29T19:43:05:625
-125,300003	1,120000	77,629997	2020-10-29T19:43:05:647
-99,470001	-4,760000	61,670002	2020-10-29T19:43:05:664
-68,599998	-7,490000	43,259998	2020-10-29T19:43:05:688
-37,099998	-8,750000	24,219999	2020-10-29T19:43:05:704
-13,020000	-12,320000	5,110000	2020-10-29T19:43:05:727
6,300000	-17,780001	-15,190001	2020-10-29T19:43:05:745
26,950001	-23,870001	-36,400002	2020-10-29T19:43:05:767
49,630001	-31,010000	-58,099998	2020-10-29T19:43:05:786
76,720001	-38,290001	-79,169998	2020-10-29T19:43:05:806
107,590004	-37,869999	-94,639999	2020-10-29T19:43:05:825
135,520004	-28,630001	-98,209999	2020-10-29T19:43:05:849
156,589996	-39,619999	-103,739998	2020-10-29T19:43:05:866
173,180008	-41,369999	-100,800003	2020-10-29T19:43:05:887
182,210007	-17,500000	-82,320000	2020-10-29T19:43:05:905
175,699997	-5,880000	-63,420002	2020-10-29T19:43:05:928
147,559998	-2,660000	-43,400002	2020-10-29T19:43:05:944
103,389999	7,350000	-21,840000	2020-10-29T19:43:05:967
65,590004	15,610000	-2,380000	2020-10-29T19:43:05:985
37,240002	19,670000	12,950000	2020-10-29T19:43:06:008
11,620000	13,160000	20,370001	2020-10-29T19:43:06:025
-2,240000	9,030000	23,799999	2020-10-29T19:43:06:047
8,330000	17,990000	25,270000	2020-10-29T19:43:06:065
36,959999	31,010000	25,270000	2020-10-29T19:43:06:088
68,949997	43,959999	25,480000	2020-10-29T19:43:06:105
85,050003	59,360001	32,060001	2020-10-29T19:43:06:127
82,389999	64,959999	39,410000	2020-10-29T19:43:06:147
69,370003	64,680000	50,820000	2020-10-29T19:43:06:168
47,250000	62,020000	63,490002	2020-10-29T19:43:06:185
21,980000	54,880001	77,419998	2020-10-29T19:43:06:207
-2,590000	45,150002	89,110001	2020-10-29T19:43:06:225
-22,960001	34,650002	98,209999	2020-10-29T19:43:06:248
-33,320000	25,760000	102,900002	2020-10-29T19:43:06:266
-31,710001	19,530001	103,459999	2020-10-29T19:43:06:287
-22,260000	15,680000	101,290001	2020-10-29T19:43:06:305
-10,080000	14,420000	97,930000	2020-10-29T19:43:06:328
1,820000	15,400000	94,290001	2020-10-29T19:43:06:346
9,450000	17,639999	91,139999	2020-10-29T19:43:06:368
3,990000	18,059999	85,190002	2020-10-29T19:43:06:384
-4,760000	20,580000	80,570000	2020-10-29T19:43:06:408
-17,010000	25,270000	76,930000	2020-10-29T19:43:06:425
-28,910000	30,730000	73,290001	2020-10-29T19:43:06:448
-33,459999	34,090000	68,110001	2020-10-29T19:43:06:465
-31,290001	35,770000	61,110001	2020-10-29T19:43:06:488
-29,330000	20,020000	44,730000	2020-10-29T19:43:06:506
-31,990000	6,650000	21,910000	2020-10-29T19:43:06:528
-38,920002	-7,420000	-9,520000	2020-10-29T19:43:06:545
-47,950001	-9,100000	-46,270000	2020-10-29T19:43:06:569
-58,939999	0,490000	-82,879997	2020-10-29T19:43:06:585
-68,320000	13,720000	-121,029999	2020-10-29T19:43:06:607
-74,410004	24,500000	-154,210007	2020-10-29T19:43:06:626
-79,660004	30,380001	-175,630005	2020-10-29T19:43:06:649
-82,529999	23,520000	-187,880005	2020-10-29T19:43:06:665
-71,750000	-3,780000	-198,589996	2020-10-29T19:43:06:688
-30,309999	-28,280001	-199,850006	2020-10-29T19:43:06:705
53,200001	-28,350000	-179,830002	2020-10-29T19:43:06:729
157,009995	-17,500000	-151,339996	2020-10-29T19:43:06:747
225,889999	-16,799999	-134,610001	2020-10-29T19:43:06:768
209,440002	-32,549999	-105,769997	2020-10-29T19:43:06:788
147,000000	-40,950001	-74,690002	2020-10-29T19:43:06:808
67,620003	-36,680000	-50,259998	2020-10-29T19:43:06:826
-17,010000	-28,350000	-29,610001	2020-10-29T19:43:06:848
-88,480003	-27,020000	-19,110001	2020-10-29T19:43:06:865
-138,529999	-24,080000	-9,870000	2020-10-29T19:43:06:889
-154,210007	-17,990000	-4,130000	2020-10-29T19:43:06:905
-132,649994	-12,110000	-4,270000	2020-10-29T19:43:06:928
-83,440002	-7,350000	-7,770000	2020-10-29T19:43:06:946
-22,330000	-5,390000	-11,760000	2020-10-29T19:43:06:968
36,610001	-4,620000	-14,630000	2020-10-29T19:43:06:985
73,779999	-4,970000	-14,210000	2020-10-29T19:43:07:008
94,639999	-7,000000	-11,480000	2020-10-29T19:43:07:026
104,160004	-7,840000	-5,110000	2020-10-29T19:43:07:049
106,820000	-9,100000	4,480000	2020-10-29T19:43:07:066
108,430000	-10,640000	14,980000	2020-10-29T19:43:07:088
111,090004	-12,460000	25,129999	2020-10-29T19:43:07:106
114,940002	-13,020000	35,630001	2020-10-29T19:43:07:129
118,790001	-8,680000	45,709999	2020-10-29T19:43:07:146
119,489998	-1,680000	55,160000	2020-10-29T19:43:07:168
116,129997	2,240000	63,490002	2020-10-29T19:43:07:186
112,489998	-1,610000	69,160004	2020-10-29T19:43:07:209
115,500000	-20,790001	67,690002	2020-10-29T19:43:07:228
128,940002	-20,510000	67,830002	2020-10-29T19:43:07:248
147,419998	0,490000	73,989998	2020-10-29T19:43:07:266
163,660004	4,550000	78,120003	2020-10-29T19:43:07:289
170,309998	0,560000	81,970001	2020-10-29T19:43:07:306
162,610001	5,880000	92,120003	2020-10-29T19:43:07:328
141,960007	3,290000	101,150002	2020-10-29T19:43:07:347
104,370003	-12,670000	104,650002	2020-10-29T19:43:07:369
59,639999	-26,600000	101,500000	2020-10-29T19:43:07:386
18,200001	-24,360001	98,000000	2020-10-29T19:43:07:408
-14,910000	-16,940001	92,470001	2020-10-29T19:43:07:426
-35,840000	-13,720000	84,840004	2020-10-29T19:43:07:449
-37,450001	-13,720000	73,500000	2020-10-29T19:43:07:466
66,080002	-232,960007	44,310001	2020-10-29T19:43:07:488
-14,490000	4,620000	74,900002	2020-10-29T19:43:07:506
84,070000	-10,920000	5,880000	2020-10-29T19:43:07:530
116,550003	-44,450001	51,869999	2020-10-29T19:43:07:546
115,709999	-65,660004	77,489998	2020-10-29T19:43:07:568
14,560000	-47,250000	54,880001	2020-10-29T19:43:07:586
-31,920000	-65,449997	55,020000	2020-10-29T19:43:07:609
-20,650000	-62,299999	34,020000	2020-10-29T19:43:07:626
9,940000	-56,630001	21,139999	2020-10-29T19:43:07:649
60,549999	-51,380001	7,910000	2020-10-29T19:43:07:666
117,529999	-41,299999	-2,170000	2020-10-29T19:43:07:689
150,850006	-27,440001	-5,530000	2020-10-29T19:43:07:706
156,449997	-13,790000	-12,040000	2020-10-29T19:43:07:729
140,910004	-3,430000	-18,059999	2020-10-29T19:43:07:746
147,839996	3,010000	-26,950001	2020-10-29T19:43:07:769
175,699997	-5,950000	-41,930000	2020-10-29T19:43:07:787
197,050003	-1,190000	-44,450001	2020-10-29T19:43:07:809
224,139999	-7,420000	-39,970001	2020-10-29T19:43:07:827
273,350006	-27,860001	-24,430000	2020-10-29T19:43:07:850
330,820007	-19,389999	-4,270000	2020-10-29T19:43:07:867
331,380005	22,469999	33,110001	2020-10-29T19:43:07:889
266,420013	74,269997	74,550003	2020-10-29T19:43:07:907
216,160004	110,320000	89,250000	2020-10-29T19:43:07:930
189,699997	119,070000	85,190002	2020-10-29T19:43:07:948
197,050003	113,120003	69,370003	2020-10-29T19:43:07:969
205,309998	101,849998	48,580002	2020-10-29T19:43:07:986
187,949997	94,570000	29,960001	2020-10-29T19:43:08:010
151,339996	86,590004	15,680000	2020-10-29T19:43:08:027
118,370003	69,370003	2,870000	2020-10-29T19:43:08:049
97,790001	53,760002	-8,890000	2020-10-29T19:43:08:066
81,620003	48,020000	-15,540000	2020-10-29T19:43:08:090
74,199997	50,750000	-17,710001	2020-10-29T19:43:08:107
62,860001	56,910000	-18,760000	2020-10-29T19:43:08:129
44,660000	58,799999	-21,770000	2020-10-29T19:43:08:147
31,500000	59,500000	-25,830000	2020-10-29T19:43:08:169
-42,560001	54,320000	-41,090000	2020-10-29T19:43:08:188
23,799999	75,250000	-8,050000	2020-10-29T19:43:08:209
34,790001	26,600000	-46,830002	2020-10-29T19:43:08:227
21,840000	28,350000	-33,320000	2020-10-29T19:43:08:250
23,870001	-32,270000	-41,790001	2020-10-29T19:43:08:267
36,119999	32,830002	-42,560001	2020-10-29T19:43:08:289
37,310001	48,439999	-22,400000	2020-10-29T19:43:08:307
39,549999	76,230003	-13,160000	2020-10-29T19:43:08:330
42,700001	47,880001	-11,340000	2020-10-29T19:43:08:347
52,290001	33,320000	-15,960000	2020-10-29T19:43:08:369
52,360001	48,299999	-16,309999	2020-10-29T19:43:08:387
44,170002	45,220001	-23,309999	2020-10-29T19:43:08:410
49,490002	54,459999	-24,710001	2020-10-29T19:43:08:427
53,060001	48,230000	-23,379999	2020-10-29T19:43:08:450
39,830002	36,959999	-14,210000	2020-10-29T19:43:08:467
22,610001	36,540001	-13,510000	2020-10-29T19:43:08:490
9,100000	47,670002	-17,430000	2020-10-29T19:43:08:507
5,250000	59,010002	-15,120000	2020-10-29T19:43:08:529
7,000000	63,279999	-7,980000	2020-10-29T19:43:08:547
10,640000	63,700001	-5,740000	2020-10-29T19:43:08:570
17,430000	66,919998	-7,840000	2020-10-29T19:43:08:586
15,890000	57,610001	0,490000	2020-10-29T19:43:08:609
4,900000	20,160000	1,050000	2020-10-29T19:43:08:628
1,260000	8,820000	-5,110000	2020-10-29T19:43:08:651
-12,950000	-1,190000	-9,590000	2020-10-29T19:43:08:679
-37,029999	-24,219999	-16,100000	2020-10-29T19:43:08:689
-64,050003	-42,279999	-22,400000	2020-10-29T19:43:08:707
-71,260002	-56,070000	-27,440001	2020-10-29T19:43:08:731
-76,019997	-65,519997	-30,940001	2020-10-29T19:43:08:748
-80,290001	-68,879997	-38,220001	2020-10-29T19:43:08:770
-88,340004	-64,400002	-38,639999	2020-10-29T19:43:08:788
-73,779999	-48,439999	-33,529999	2020-10-29T19:43:08:810
-67,129997	-42,070000	-25,480000	2020-10-29T19:43:08:827
-66,989998	-56,000000	-18,059999	2020-10-29T19:43:08:850
-76,160004	-72,239998	-13,160000	2020-10-29T19:43:08:867
-78,820000	-82,949997	-10,710000	2020-10-29T19:43:08:890
-74,690002	-86,730003	-10,570000	2020-10-29T19:43:08:909
-77,070000	-87,849998	-9,940000	2020-10-29T19:43:08:929
-100,730003	-88,269997	-5,810000	2020-10-29T19:43:08:948
-94,010002	-81,059998	-7,210000	2020-10-29T19:43:08:971
-70,980003	-73,570000	-11,690000	2020-10-29T19:43:08:988
-71,750000	-87,570000	-16,520000	2020-10-29T19:43:09:009
-92,610001	-113,050003	-26,180000	2020-10-29T19:43:09:028
-123,830002	-131,669998	-38,290001	2020-10-29T19:43:09:051
-152,180008	-142,729996	-49,840000	2020-10-29T19:43:09:067
-181,229996	-152,180008	-56,840000	2020-10-29T19:43:09:090
-210,839996	-158,130005	-58,869999	2020-10-29T19:43:09:107
-226,800003	-142,589996	-63,770000	2020-10-29T19:43:09:131
-220,779999	-116,690002	-78,610001	2020-10-29T19:43:09:149
-179,059998	-87,570000	-98,209999	2020-10-29T19:43:09:170
-103,529999	-60,900002	-115,080002	2020-10-29T19:43:09:188
-11,130000	-39,060001	-126,699997	2020-10-29T19:43:09:212
66,709999	-15,610000	-128,169998	2020-10-29T19:43:09:228
104,019997	13,860000	-119,910004	2020-10-29T19:43:09:250
87,779999	44,590000	-105,419998	2020-10-29T19:43:09:268
29,680000	67,199997	-89,949997	2020-10-29T19:43:09:292
-55,580002	78,540001	-77,139999	2020-10-29T19:43:09:308
-147,770004	85,050003	-65,099998	2020-10-29T19:43:09:330
-223,300003	98,769997	-48,790001	2020-10-29T19:43:09:348
-283,500000	114,099998	-31,150000	2020-10-29T19:43:09:371
-325,220001	128,100006	-15,190001	2020-10-29T19:43:09:389
-349,790009	141,330002	0,700000	2020-10-29T19:43:09:410
-366,239990	153,020004	13,790000	2020-10-29T19:43:09:428
-359,660004	160,160004	19,250000	2020-10-29T19:43:09:451
-327,459991	160,649994	16,170000	2020-10-29T19:43:09:468
-284,549988	155,330002	8,820000	2020-10-29T19:43:09:490
-242,619995	144,759995	1,820000	2020-10-29T19:43:09:508
-205,940002	130,899994	-3,080000	2020-10-29T19:43:09:531
-178,080002	121,379997	-6,020000	2020-10-29T19:43:09:548
-166,669998	111,860001	-7,700000	2020-10-29T19:43:09:570
-179,550003	104,650002	-6,300000	2020-10-29T19:43:09:588
-209,229996	103,879997	-2,870000	2020-10-29T19:43:09:611
-231,070007	103,110001	-3,080000	2020-10-29T19:43:09:630
-222,180008	90,090004	-12,110000	2020-10-29T19:43:09:650
-197,050003	76,790001	-20,930000	2020-10-29T19:43:09:668
-168,770004	65,309998	-31,850000	2020-10-29T19:43:09:691
-142,380005	53,130001	-43,750000	2020-10-29T19:43:09:708
-120,260002	42,070000	-55,299999	2020-10-29T19:43:09:731
-101,360001	35,560001	-66,989998	2020-10-29T19:43:09:751
-88,199997	24,780001	-77,070000	2020-10-29T19:43:09:771
-77,349998	-4,410000	-89,669998	2020-10-29T19:43:09:788
-71,959999	-24,639999	-98,769997	2020-10-29T19:43:09:811
-66,430000	-24,360001	-102,550003	2020-10-29T19:43:09:829
-54,110001	-27,299999	-105,419998	2020-10-29T19:43:09:852
-38,990002	-35,980000	-106,470001	2020-10-29T19:43:09:868
-16,590000	-46,759998	-105,910004	2020-10-29T19:43:09:890
15,820000	-60,130001	-103,739998	2020-10-29T19:43:09:908
51,869999	-75,809998	-104,720001	2020-10-29T19:43:09:933
81,199997	-86,870003	-107,590004	2020-10-29T19:43:09:949
102,480003	-84,279999	-108,779999	2020-10-29T19:43:09:970
113,540001	-73,080002	-109,620003	2020-10-29T19:43:09:990
114,870003	-60,060001	-111,930000	2020-10-29T19:43:10:012
109,620003	-48,930000	-113,470001	2020-10-29T19:43:10:029
100,519997	-36,610001	-109,970001	2020-10-29T19:43:10:051
90,300003	-22,960001	-100,590004	2020-10-29T19:43:10:069
77,489998	-9,590000	-86,169998	2020-10-29T19:43:10:092
44,380001	3,710000	-64,820000	2020-10-29T19:43:10:110
-29,820000	6,510000	-36,049999	2020-10-29T19:43:10:133
-90,580002	1,050000	-16,520000	2020-10-29T19:43:10:149
-118,020004	-2,660000	-2,800000	2020-10-29T19:43:10:172
-140,350006	-2,170000	5,670000	2020-10-29T19:43:10:189
-162,680008	2,170000	9,240000	2020-10-29T19:43:10:211
-175,279999	7,420000	8,120000	2020-10-29T19:43:10:229
-170,449997	14,490000	3,290000	2020-10-29T19:43:10:253
-149,169998	24,010000	-3,920000	2020-10-29T19:43:10:269
-117,180000	31,920000	-11,900000	2020-10-29T19:43:10:291
-82,250000	36,119999	-20,299999	2020-10-29T19:43:10:309
-60,340000	44,380001	-23,520000	2020-10-29T19:43:10:333
-52,290001	51,450001	-23,660000	2020-10-29T19:43:10:351
-59,220001	56,700001	-21,420000	2020-10-29T19:43:10:371
-85,050003	61,740002	-15,470000	2020-10-29T19:43:10:389
-122,849998	55,720001	-10,640000	2020-10-29T19:43:10:413
-160,089996	35,700001	-12,180000	2020-10-29T19:43:10:430
-198,309998	50,610001	-0,560000	2020-10-29T19:43:10:452
-221,899994	51,380001	0,560000	2020-10-29T19:43:10:469
-225,540009	42,560001	-2,240000	2020-10-29T19:43:10:492
-212,520004	46,060001	-2,380000	2020-10-29T19:43:10:509
-181,509995	48,720001	-1,540000	2020-10-29T19:43:10:532
-143,639999	46,830002	0,630000	2020-10-29T19:43:10:550
-117,949997	31,639999	4,410000	2020-10-29T19:43:10:572
-104,790001	-0,700000	5,950000	2020-10-29T19:43:10:591
-96,040001	-24,010000	4,900000	2020-10-29T19:43:10:612
-82,599998	-23,100000	3,710000	2020-10-29T19:43:10:630
-70,419998	-6,650000	4,480000	2020-10-29T19:43:10:653
-61,950001	10,080000	3,920000	2020-10-29T19:43:10:670
-57,260002	14,490000	-0,910000	2020-10-29T19:43:10:691
-56,420002	20,580000	-3,500000	2020-10-29T19:43:10:709
-60,549999	33,810001	3,780000	2020-10-29T19:43:10:733
-68,599998	34,369999	11,550000	2020-10-29T19:43:10:750
-79,449997	26,600000	18,969999	2020-10-29T19:43:10:772
-86,800003	12,460000	21,629999	2020-10-29T19:43:10:790
-95,690002	-0,490000	19,809999	2020-10-29T19:43:10:813
-105,769997	-3,850000	14,420000	2020-10-29T19:43:10:831
-118,860001	-0,630000	5,880000	2020-10-29T19:43:10:852
-121,870003	5,320000	-5,810000	2020-10-29T19:43:10:870
-111,790001	7,210000	-23,940001	2020-10-29T19:43:10:893
-100,099998	4,130000	-42,630001	2020-10-29T19:43:10:910
-80,360001	-2,240000	-59,150002	2020-10-29T19:43:10:932
-44,730000	-11,200000	-77,419998	2020-10-29T19:43:10:950
3,990000	-22,400000	-94,919998	2020-10-29T19:43:10:973
57,470001	-32,200001	-107,730003	2020-10-29T19:43:10:990
112,770004	-33,180000	-111,300003	2020-10-29T19:43:11:012
151,899994	-34,160000	-105,769997	2020-10-29T19:43:11:031
165,759995	-44,450001	-94,989998	2020-10-29T19:43:11:074
164,289993	-43,119999	-75,669998	2020-10-29T19:43:11:075
146,440002	-24,360001	-50,540001	2020-10-29T19:43:11:092
112,489998	-9,520000	-25,760000	2020-10-29T19:43:11:110
61,599998	-5,600000	-2,240000	2020-10-29T19:43:11:133
8,750000	-0,630000	20,510000	2020-10-29T19:43:11:152
-23,309999	11,970000	37,730000	2020-10-29T19:43:11:171
-40,040001	26,460001	53,900002	2020-10-29T19:43:11:190
-49,700001	37,380001	70,419998	2020-10-29T19:43:11:213
-45,009998	37,660000	84,279999	2020-10-29T19:43:11:230
-15,190001	32,480000	90,440002	2020-10-29T19:43:11:253
15,960000	31,780001	100,029999	2020-10-29T19:43:11:270
43,119999	33,950001	108,430000	2020-10-29T19:43:11:293
73,989998	34,299999	111,090004	2020-10-29T19:43:11:311
92,610001	38,920002	114,239998	2020-10-29T19:43:11:334
97,790001	44,590000	119,349998	2020-10-29T19:43:11:351
90,720001	42,630001	122,500000	2020-10-29T19:43:11:373
70,629997	37,939999	125,300003	2020-10-29T19:43:11:390
41,720001	33,670002	127,820000	2020-10-29T19:43:11:412
10,850000	27,090000	128,869995	2020-10-29T19:43:11:431
-16,730000	19,600000	127,750000	2020-10-29T19:43:11:454
-38,639999	13,300000	122,360001	2020-10-29T19:43:11:470
-55,299999	7,980000	111,720001	2020-10-29T19:43:11:493
-65,099998	7,560000	97,510002	2020-10-29T19:43:11:510
-68,459999	12,040000	80,919998	2020-10-29T19:43:11:534
-66,989998	17,780001	62,230000	2020-10-29T19:43:11:551
-62,369999	23,100000	41,160000	2020-10-29T19:43:11:573
-56,980000	30,590000	19,180000	2020-10-29T19:43:11:590
-53,130001	40,320000	-2,870000	2020-10-29T19:43:11:614
-55,720001	48,650002	-23,870001	2020-10-29T19:43:11:631
-63,139999	56,490002	-44,450001	2020-10-29T19:43:11:653
-73,919998	65,239998	-62,510002	2020-10-29T19:43:11:671
-88,199997	69,440002	-79,940002	2020-10-29T19:43:11:694
-107,520004	67,129997	-100,660004	2020-10-29T19:43:11:710
-134,470001	69,860001	-119,559998	2020-10-29T19:43:11:733
-165,690002	88,480003	-128,169998	2020-10-29T19:43:11:751
-191,660004	100,379997	-135,309998	2020-10-29T19:43:11:774
-211,399994	100,449997	-143,570007	2020-10-29T19:43:11:791
-225,610001	97,860001	-149,240005	2020-10-29T19:43:11:813
-221,830002	90,650002	-151,270004	2020-10-29T19:43:11:831
-197,889999	82,389999	-155,330002	2020-10-29T19:43:11:854
-160,369995	68,599998	-160,160004	2020-10-29T19:43:11:871
-111,790001	52,009998	-161,559998	2020-10-29T19:43:11:893
-58,520000	35,980000	-156,589996	2020-10-29T19:43:11:911
-6,090000	20,580000	-144,479996	2020-10-29T19:43:11:934
43,820000	8,610000	-127,750000	2020-10-29T19:43:11:951
84,489998	1,330000	-108,430000	2020-10-29T19:43:11:973
108,150002	-4,690000	-87,849998	2020-10-29T19:43:11:991
112,910004	-11,270000	-64,610001	2020-10-29T19:43:12:014
97,230003	-14,700000	-42,700001	2020-10-29T19:43:12:033
60,270000	-14,420000	-23,870001	2020-10-29T19:43:12:053
3,570000	-14,280000	-7,000000	2020-10-29T19:43:12:071
-60,549999	-19,110001	4,970000	2020-10-29T19:43:12:094
-116,059998	-23,520000	13,300000	2020-10-29T19:43:12:111
-154,350006	-21,070000	20,020000	2020-10-29T19:43:12:133
-176,750000	-13,860000	25,549999	2020-10-29T19:43:12:153
-183,680008	-7,350000	30,240000	2020-10-29T19:43:12:174
-183,539993	-4,900000	35,349998	2020-10-29T19:43:12:190
-177,660004	0,490000	43,750000	2020-10-29T19:43:12:213
-160,580002	0,630000	50,049999	2020-10-29T19:43:12:231
-123,970001	-9,940000	51,170002	2020-10-29T19:43:12:254
-71,260002	-19,600000	51,590000	2020-10-29T19:43:12:273
-10,430000	-23,379999	52,920002	2020-10-29T19:43:12:293
88,830002	-19,670000	49,209999	2020-10-29T19:43:12:310
220,290009	8,120000	20,790001	2020-10-29T19:43:12:335
259,769989	48,650002	-1,680000	2020-10-29T19:43:12:351
178,220001	64,400002	-4,760000	2020-10-29T19:43:12:373
51,380001	50,400002	17,570000	2020-10-29T19:43:12:391
-51,029999	42,000000	23,799999	2020-10-29T19:43:12:414
-127,120003	50,750000	31,850000	2020-10-29T19:43:12:431
-187,320007	56,349998	44,869999	2020-10-29T19:43:12:453
-215,110001	58,099998	55,160000	2020-10-29T19:43:12:471
-212,309998	63,770000	65,169998	2020-10-29T19:43:12:494
-187,460007	69,510002	73,639999	2020-10-29T19:43:12:512
-151,339996	71,959999	79,730003	2020-10-29T19:43:12:534
-115,570000	74,340004	83,510002	2020-10-29T19:43:12:551
-88,059998	73,220001	83,090004	2020-10-29T19:43:12:574
-72,519997	71,330002	79,239998	2020-10-29T19:43:12:590
-67,900002	70,769997	73,150002	2020-10-29T19:43:12:613
-69,370003	67,059998	62,510002	2020-10-29T19:43:12:630
-72,730003	59,010002	46,970001	2020-10-29T19:43:12:654
-77,559998	53,270000	30,240000	2020-10-29T19:43:12:671
-85,750000	47,180000	11,830000	2020-10-29T19:43:12:694
-93,379997	40,880001	-7,980000	2020-10-29T19:43:12:711
-100,099998	32,619999	-25,969999	2020-10-29T19:43:12:735
-103,389999	25,690001	-42,070000	2020-10-29T19:43:12:753
-102,760002	20,299999	-55,580002	2020-10-29T19:43:12:774
-100,519997	14,070000	-65,029999	2020-10-29T19:43:12:791
-96,110001	7,140000	-70,980003	2020-10-29T19:43:12:814
-89,529999	0,210000	-73,430000	2020-10-29T19:43:12:832
-78,820000	-4,410000	-74,199997	2020-10-29T19:43:12:854
-67,900002	-6,440000	-72,029999	2020-10-29T19:43:12:872
-59,849998	-6,930000	-67,480003	2020-10-29T19:43:12:895
-57,959999	-10,990000	-59,290001	2020-10-29T19:43:12:911
-67,480003	-15,120000	-54,250000	2020-10-29T19:43:12:935
-83,019997	-12,460000	-47,950001	2020-10-29T19:43:12:952
-98,699997	-2,030000	-38,990002	2020-10-29T19:43:12:974
-108,919998	8,330000	-30,450001	2020-10-29T19:43:12:993
-115,709999	12,670000	-22,960001	2020-10-29T19:43:13:014
-118,790001	13,370000	-15,960000	2020-10-29T19:43:13:032
-115,709999	12,670000	-10,640000	2020-10-29T19:43:13:054
-109,550003	11,830000	-8,610000	2020-10-29T19:43:13:072
-103,180000	11,130000	-9,380000	2020-10-29T19:43:13:094
-96,250000	10,570000	-12,740000	2020-10-29T19:43:13:112
-88,199997	10,080000	-17,780001	2020-10-29T19:43:13:135
-79,169998	11,410000	-23,240000	2020-10-29T19:43:13:152
-68,110001	15,610000	-28,070000	2020-10-29T19:43:13:174
-56,490002	20,160000	-30,030001	2020-10-29T19:43:13:192
-48,299999	23,309999	-28,559999	2020-10-29T19:43:13:215
-44,450001	24,780001	-23,799999	2020-10-29T19:43:13:235
-42,279999	21,840000	-17,920000	2020-10-29T19:43:13:254
-42,139999	17,710001	-11,270000	2020-10-29T19:43:13:272
-44,660000	12,950000	-4,690000	2020-10-29T19:43:13:295
-44,660000	6,230000	0,420000	2020-10-29T19:43:13:312
-42,420002	0,910000	3,710000	2020-10-29T19:43:13:334
-42,560001	-1,820000	5,600000	2020-10-29T19:43:13:352
-44,380001	-3,850000	6,510000	2020-10-29T19:43:13:375
-46,200001	-5,390000	6,160000	2020-10-29T19:43:13:392
-49,139999	-4,830000	5,250000	2020-10-29T19:43:13:414
-55,090000	-4,550000	4,200000	2020-10-29T19:43:13:432
-63,000000	-3,500000	3,150000	2020-10-29T19:43:13:455
-70,070000	-0,350000	2,660000	2020-10-29T19:43:13:473
-74,760002	1,260000	2,310000	2020-10-29T19:43:13:494
-77,699997	1,050000	2,870000	2020-10-29T19:43:13:512
-81,900002	1,610000	4,060000	2020-10-29T19:43:13:535
-96,250000	6,020000	7,630000	2020-10-29T19:43:13:553
-116,830002	13,160000	11,760000	2020-10-29T19:43:13:575
-132,580002	15,330000	11,900000	2020-10-29T19:43:13:592
-139,860001	14,280000	9,380000	2020-10-29T19:43:13:615
-134,539993	12,040000	3,920000	2020-10-29T19:43:13:632
-120,120003	13,020000	-3,570000	2020-10-29T19:43:13:655
-108,849998	15,260000	-12,950000	2020-10-29T19:43:13:673
-113,330002	14,210000	-22,960001	2020-10-29T19:43:13:695
-123,129997	15,330000	-35,700001	2020-10-29T19:43:13:712
-121,730003	10,640000	-49,770000	2020-10-29T19:43:13:735
-108,570000	24,290001	-58,799999	2020-10-29T19:43:13:753
-82,529999	46,480000	-65,940002	2020-10-29T19:43:13:775
-44,730000	45,430000	-77,840004	2020-10-29T19:43:13:793
-3,850000	31,990000	-88,760002	2020-10-29T19:43:13:814
31,990000	20,790001	-92,470001	2020-10-29T19:43:13:834
64,330002	8,960000	-90,090004	2020-10-29T19:43:13:856
90,650002	-3,430000	-82,879997	2020-10-29T19:43:13:872
105,769997	-14,210000	-69,019997	2020-10-29T19:43:13:895
111,580002	-22,120001	-52,920002	2020-10-29T19:43:13:914
110,599998	-21,280001	-33,459999	2020-10-29T19:43:13:936
96,599998	-14,000000	-13,370000	2020-10-29T19:43:13:955
66,010002	-5,950000	6,720000	2020-10-29T19:43:13:975
7,910000	4,760000	33,320000	2020-10-29T19:43:13:994
-24,780001	14,700000	48,509998	2020-10-29T19:43:14:016
-46,830002	22,330000	62,090000	2020-10-29T19:43:14:034
-57,610001	21,629999	73,220001	2020-10-29T19:43:14:055
-62,020000	21,280001	83,790001	2020-10-29T19:43:14:074
-48,090000	22,120001	86,940002	2020-10-29T19:43:14:096
-8,890000	22,540001	77,769997	2020-10-29T19:43:14:114
13,020000	21,210001	70,070000	2020-10-29T19:43:14:136
45,639999	20,930000	57,330002	2020-10-29T19:43:14:154
77,419998	18,900000	38,150002	2020-10-29T19:43:14:176
69,720001	11,340000	22,190001	2020-10-29T19:43:14:195
40,459999	-1,050000	20,580000	2020-10-29T19:43:14:214
16,100000	-12,110000	19,040001	2020-10-29T19:43:14:233
8,330000	-25,900000	12,110000	2020-10-29T19:43:14:256
28,700001	-34,650002	-1,190000	2020-10-29T19:43:14:274
51,939999	-27,440001	-10,640000	2020-10-29T19:43:14:295
85,330002	-21,280001	-16,940001	2020-10-29T19:43:14:313
113,470001	-21,559999	-21,350000	2020-10-29T19:43:14:336
125,720001	-29,469999	-22,820000	2020-10-29T19:43:14:354
138,180008	-28,139999	-18,480000	2020-10-29T19:43:14:375
154,000000	-17,290001	-10,990000	2020-10-29T19:43:14:394
160,369995	-23,730000	-3,360000	2020-10-29T19:43:14:416
151,339996	-35,560001	6,090000	2020-10-29T19:43:14:433
153,860001	-33,950001	16,170000	2020-10-29T19:43:14:456
171,639999	-26,880001	26,950001	2020-10-29T19:43:14:473
181,020004	-21,490000	41,930000	2020-10-29T19:43:14:496
179,899994	-22,889999	60,619999	2020-10-29T19:43:14:513
184,520004	-31,570000	78,610001	2020-10-29T19:43:14:535
211,610001	-45,080002	81,900002	2020-10-29T19:43:14:554
203,000000	-52,500000	79,449997	2020-10-29T19:43:14:576
