light_intensity	ts
2097152,000000	2020-10-29T19:41:47:169
2097152,000000	2020-10-29T19:41:47:170
2097152,000000	2020-10-29T19:41:47:186
2789424,000000	2020-10-29T19:41:47:227
2788572,000000	2020-10-29T19:41:47:267
2787902,000000	2020-10-29T19:41:47:308
2787868,000000	2020-10-29T19:41:47:346
2788027,000000	2020-10-29T19:41:47:386
2788641,000000	2020-10-29T19:41:47:426
2789455,000000	2020-10-29T19:41:47:467
2791282,000000	2020-10-29T19:41:47:508
2153671,000000	2020-10-29T19:41:47:549
2154688,000000	2020-10-29T19:41:47:588
2155220,000000	2020-10-29T19:41:47:629
2156233,000000	2020-10-29T19:41:47:668
2157480,000000	2020-10-29T19:41:47:709
2123800,000000	2020-10-29T19:41:47:748
2126400,000000	2020-10-29T19:41:47:789
2128789,000000	2020-10-29T19:41:47:827
2131416,000000	2020-10-29T19:41:47:868
2133796,000000	2020-10-29T19:41:47:909
2113392,000000	2020-10-29T19:41:47:947
2119962,000000	2020-10-29T19:41:47:987
2126464,000000	2020-10-29T19:41:48:028
2131693,000000	2020-10-29T19:41:48:067
2132530,000000	2020-10-29T19:41:48:108
2127667,000000	2020-10-29T19:41:48:148
2122489,000000	2020-10-29T19:41:48:187
2120059,000000	2020-10-29T19:41:48:227
2120208,000000	2020-10-29T19:41:48:269
2126699,000000	2020-10-29T19:41:48:307
2133787,000000	2020-10-29T19:41:48:349
2141247,000000	2020-10-29T19:41:48:390
2152000,000000	2020-10-29T19:41:48:430
2161319,000000	2020-10-29T19:41:48:470
2170885,000000	2020-10-29T19:41:48:511
2179951,000000	2020-10-29T19:41:48:552
2189905,000000	2020-10-29T19:41:48:590
2201045,000000	2020-10-29T19:41:48:630
2212634,000000	2020-10-29T19:41:48:671
2223653,000000	2020-10-29T19:41:48:710
2234508,000000	2020-10-29T19:41:48:753
2245223,000000	2020-10-29T19:41:48:789
2256002,000000	2020-10-29T19:41:48:830
2265481,000000	2020-10-29T19:41:48:870
2274832,000000	2020-10-29T19:41:48:910
2284330,000000	2020-10-29T19:41:48:950
2294742,000000	2020-10-29T19:41:48:992
2305571,000000	2020-10-29T19:41:49:030
2316118,000000	2020-10-29T19:41:49:071
2327531,000000	2020-10-29T19:41:49:111
2336780,000000	2020-10-29T19:41:49:150
2343656,000000	2020-10-29T19:41:49:191
2347266,000000	2020-10-29T19:41:49:233
2347221,000000	2020-10-29T19:41:49:271
2348246,000000	2020-10-29T19:41:49:311
2348708,000000	2020-10-29T19:41:49:350
2350036,000000	2020-10-29T19:41:49:391
2356674,000000	2020-10-29T19:41:49:432
2362673,000000	2020-10-29T19:41:49:471
2368694,000000	2020-10-29T19:41:49:512
2376327,000000	2020-10-29T19:41:49:556
2383208,000000	2020-10-29T19:41:49:591
2391556,000000	2020-10-29T19:41:49:631
2401383,000000	2020-10-29T19:41:49:672
2410065,000000	2020-10-29T19:41:49:713
2417525,000000	2020-10-29T19:41:49:751
2421183,000000	2020-10-29T19:41:49:791
2423753,000000	2020-10-29T19:41:49:831
2422584,000000	2020-10-29T19:41:49:871
2419521,000000	2020-10-29T19:41:49:912
2412267,000000	2020-10-29T19:41:49:953
2398864,000000	2020-10-29T19:41:49:991
2378560,000000	2020-10-29T19:41:50:031
2350095,000000	2020-10-29T19:41:50:072
2322549,000000	2020-10-29T19:41:50:112
2297290,000000	2020-10-29T19:41:50:151
2274561,000000	2020-10-29T19:41:50:193
2248200,000000	2020-10-29T19:41:50:231
2222181,000000	2020-10-29T19:41:50:273
2204908,000000	2020-10-29T19:41:50:312
2193309,000000	2020-10-29T19:41:50:351
2180218,000000	2020-10-29T19:41:50:392
2169969,000000	2020-10-29T19:41:50:434
2168493,000000	2020-10-29T19:41:50:472
2176542,000000	2020-10-29T19:41:50:512
2190095,000000	2020-10-29T19:41:50:552
2203617,000000	2020-10-29T19:41:50:592
2212419,000000	2020-10-29T19:41:50:632
2217918,000000	2020-10-29T19:41:50:675
2220919,000000	2020-10-29T19:41:50:712
2224338,000000	2020-10-29T19:41:50:752
2227937,000000	2020-10-29T19:41:50:792
2228465,000000	2020-10-29T19:41:50:832
2226784,000000	2020-10-29T19:41:50:872
2223316,000000	2020-10-29T19:41:50:914
2212712,000000	2020-10-29T19:41:50:952
2188398,000000	2020-10-29T19:41:50:992
2156546,000000	2020-10-29T19:41:51:033
2125035,000000	2020-10-29T19:41:51:072
2102703,000000	2020-10-29T19:41:51:112
2085431,000000	2020-10-29T19:41:51:154
2071372,000000	2020-10-29T19:41:51:192
2057516,000000	2020-10-29T19:41:51:233
2044614,000000	2020-10-29T19:41:51:273
2032446,000000	2020-10-29T19:41:51:313
2021164,000000	2020-10-29T19:41:51:353
2012186,000000	2020-10-29T19:41:51:395
2003432,000000	2020-10-29T19:41:51:433
1998059,000000	2020-10-29T19:41:51:473
1994383,000000	2020-10-29T19:41:51:513
1992579,000000	2020-10-29T19:41:51:553
1992106,000000	2020-10-29T19:41:51:593
1990665,000000	2020-10-29T19:41:51:636
1980479,000000	2020-10-29T19:41:51:673
1965600,000000	2020-10-29T19:41:51:713
1954320,000000	2020-10-29T19:41:51:753
1946543,000000	2020-10-29T19:41:51:793
1942257,000000	2020-10-29T19:41:51:833
1938965,000000	2020-10-29T19:41:51:875
1937326,000000	2020-10-29T19:41:51:914
1935732,000000	2020-10-29T19:41:51:953
1933852,000000	2020-10-29T19:41:51:994
1932737,000000	2020-10-29T19:41:52:034
1932301,000000	2020-10-29T19:41:52:074
1933327,000000	2020-10-29T19:41:52:115
1934928,000000	2020-10-29T19:41:52:153
1935555,000000	2020-10-29T19:41:52:193
1936652,000000	2020-10-29T19:41:52:234
1937148,000000	2020-10-29T19:41:52:274
1937975,000000	2020-10-29T19:41:52:314
1938059,000000	2020-10-29T19:41:52:356
1936992,000000	2020-10-29T19:41:52:393
1926840,000000	2020-10-29T19:41:52:434
1911015,000000	2020-10-29T19:41:52:474
1896841,000000	2020-10-29T19:41:52:515
1886588,000000	2020-10-29T19:41:52:554
1879601,000000	2020-10-29T19:41:52:596
1874298,000000	2020-10-29T19:41:52:634
1871798,000000	2020-10-29T19:41:52:675
1869504,000000	2020-10-29T19:41:52:714
1868155,000000	2020-10-29T19:41:52:754
1867890,000000	2020-10-29T19:41:52:794
1869304,000000	2020-10-29T19:41:52:837
1872473,000000	2020-10-29T19:41:52:874
1876718,000000	2020-10-29T19:41:52:915
1881151,000000	2020-10-29T19:41:52:954
1885683,000000	2020-10-29T19:41:52:994
1891128,000000	2020-10-29T19:41:53:035
1896063,000000	2020-10-29T19:41:53:077
1901916,000000	2020-10-29T19:41:53:115
1902533,000000	2020-10-29T19:41:53:155
1897293,000000	2020-10-29T19:41:53:195
1890839,000000	2020-10-29T19:41:53:234
1887708,000000	2020-10-29T19:41:53:275
1886431,000000	2020-10-29T19:41:53:317
1887266,000000	2020-10-29T19:41:53:355
1889377,000000	2020-10-29T19:41:53:395
1892245,000000	2020-10-29T19:41:53:435
1894990,000000	2020-10-29T19:41:53:475
1897554,000000	2020-10-29T19:41:53:515
1900414,000000	2020-10-29T19:41:53:556
1904266,000000	2020-10-29T19:41:53:595
1908516,000000	2020-10-29T19:41:53:635
1914133,000000	2020-10-29T19:41:53:675
1919745,000000	2020-10-29T19:41:53:715
1925429,000000	2020-10-29T19:41:53:755
1930835,000000	2020-10-29T19:41:53:796
1933805,000000	2020-10-29T19:41:53:835
1930638,000000	2020-10-29T19:41:53:875
1925001,000000	2020-10-29T19:41:53:915
1921853,000000	2020-10-29T19:41:53:955
1921774,000000	2020-10-29T19:41:53:997
1924598,000000	2020-10-29T19:41:54:039
1929082,000000	2020-10-29T19:41:54:075
1934756,000000	2020-10-29T19:41:54:116
1940999,000000	2020-10-29T19:41:54:156
1948059,000000	2020-10-29T19:41:54:195
1957301,000000	2020-10-29T19:41:54:235
1968340,000000	2020-10-29T19:41:54:277
1979813,000000	2020-10-29T19:41:54:315
1991576,000000	2020-10-29T19:41:54:355
2004091,000000	2020-10-29T19:41:54:396
2015540,000000	2020-10-29T19:41:54:436
2025836,000000	2020-10-29T19:41:54:476
2031593,000000	2020-10-29T19:41:54:518
2035714,000000	2020-10-29T19:41:54:562
2041319,000000	2020-10-29T19:41:54:596
2044131,000000	2020-10-29T19:41:54:636
2038144,000000	2020-10-29T19:41:54:677
2024629,000000	2020-10-29T19:41:54:716
2015181,000000	2020-10-29T19:41:54:757
2008356,000000	2020-10-29T19:41:54:796
2022282,000000	2020-10-29T19:41:54:835
2043603,000000	2020-10-29T19:41:54:876
2068269,000000	2020-10-29T19:41:54:916
2092550,000000	2020-10-29T19:41:54:956
2115385,000000	2020-10-29T19:41:54:997
2130124,000000	2020-10-29T19:41:55:039
2135290,000000	2020-10-29T19:41:55:256
2131057,000000	2020-10-29T19:41:55:258
2109924,000000	2020-10-29T19:41:55:259
2082106,000000	2020-10-29T19:41:55:259
2066027,000000	2020-10-29T19:41:55:260
2060319,000000	2020-10-29T19:41:55:275
2056356,000000	2020-10-29T19:41:55:320
2068060,000000	2020-10-29T19:41:55:357
2083186,000000	2020-10-29T19:41:55:396
2090640,000000	2020-10-29T19:41:55:437
2095362,000000	2020-10-29T19:41:55:478
2100993,000000	2020-10-29T19:41:55:517
2097294,000000	2020-10-29T19:41:55:557
2099786,000000	2020-10-29T19:41:55:605
2107888,000000	2020-10-29T19:41:55:638
2104906,000000	2020-10-29T19:41:55:702
2093857,000000	2020-10-29T19:41:55:733
2060783,000000	2020-10-29T19:41:55:756
2032777,000000	2020-10-29T19:41:55:795
1998345,000000	2020-10-29T19:41:55:838
1971539,000000	2020-10-29T19:41:55:877
1951666,000000	2020-10-29T19:41:55:917
1936498,000000	2020-10-29T19:41:55:958
1923481,000000	2020-10-29T19:41:55:998
1920606,000000	2020-10-29T19:42:16:239
1916304,000000	2020-10-29T19:42:16:240
1909660,000000	2020-10-29T19:42:16:241
1903227,000000	2020-10-29T19:42:16:241
1900501,000000	2020-10-29T19:42:16:258
1902273,000000	2020-10-29T19:42:16:384
1901691,000000	2020-10-29T19:42:16:385
1889740,000000	2020-10-29T19:42:16:388
1881152,000000	2020-10-29T19:42:16:421
1880831,000000	2020-10-29T19:42:16:434
1875299,000000	2020-10-29T19:42:16:475
1863760,000000	2020-10-29T19:42:16:516
1852145,000000	2020-10-29T19:42:16:557
1846015,000000	2020-10-29T19:42:16:598
1845591,000000	2020-10-29T19:42:16:638
1845557,000000	2020-10-29T19:42:16:676
1852534,000000	2020-10-29T19:42:16:724
1861048,000000	2020-10-29T19:42:16:757
1876860,000000	2020-10-29T19:42:16:797
1892732,000000	2020-10-29T19:42:16:837
1903924,000000	2020-10-29T19:42:16:879
1913979,000000	2020-10-29T19:42:16:917
1922955,000000	2020-10-29T19:42:16:957
1930429,000000	2020-10-29T19:42:17:001
1934006,000000	2020-10-29T19:42:17:039
1760517,000000	2020-10-29T19:42:41:117
1759349,000000	2020-10-29T19:42:41:163
1768142,000000	2020-10-29T19:42:41:171
1781528,000000	2020-10-29T19:42:41:202
1796189,000000	2020-10-29T19:42:41:244
1798463,000000	2020-10-29T19:42:41:282
1780302,000000	2020-10-29T19:42:41:320
1751941,000000	2020-10-29T19:42:41:361
1733597,000000	2020-10-29T19:42:41:401
1720106,000000	2020-10-29T19:42:41:441
1709825,000000	2020-10-29T19:42:41:481
1697897,000000	2020-10-29T19:42:41:523
1685916,000000	2020-10-29T19:42:41:561
1673848,000000	2020-10-29T19:42:41:601
1667232,000000	2020-10-29T19:42:41:641
1668732,000000	2020-10-29T19:42:41:681
1668807,000000	2020-10-29T19:42:41:721
1668236,000000	2020-10-29T19:42:41:763
1665108,000000	2020-10-29T19:42:41:800
1653263,000000	2020-10-29T19:42:41:841
1626193,000000	2020-10-29T19:42:41:882
1597651,000000	2020-10-29T19:42:41:922
1579052,000000	2020-10-29T19:42:41:961
1566287,000000	2020-10-29T19:42:42:003
1553453,000000	2020-10-29T19:42:42:041
1532088,000000	2020-10-29T19:42:42:081
1509259,000000	2020-10-29T19:42:42:122
1488263,000000	2020-10-29T19:42:42:162
1463978,000000	2020-10-29T19:42:42:202
1441246,000000	2020-10-29T19:42:42:243
1428592,000000	2020-10-29T19:42:42:282
1428263,000000	2020-10-29T19:42:42:322
1442214,000000	2020-10-29T19:42:42:362
1463566,000000	2020-10-29T19:42:42:402
1481705,000000	2020-10-29T19:42:42:442
1488964,000000	2020-10-29T19:42:42:485
1473387,000000	2020-10-29T19:42:42:522
1455172,000000	2020-10-29T19:42:42:562
1432816,000000	2020-10-29T19:42:42:602
1399921,000000	2020-10-29T19:42:42:642
1378431,000000	2020-10-29T19:42:42:682
1372105,000000	2020-10-29T19:42:42:723
1383551,000000	2020-10-29T19:42:42:762
1398621,000000	2020-10-29T19:42:42:802
1407344,000000	2020-10-29T19:42:42:842
1403783,000000	2020-10-29T19:42:42:882
1392361,000000	2020-10-29T19:42:42:923
1402703,000000	2020-10-29T19:42:42:964
1424113,000000	2020-10-29T19:42:43:003
1439752,000000	2020-10-29T19:42:43:042
1434159,000000	2020-10-29T19:42:43:082
1422919,000000	2020-10-29T19:42:43:123
1422918,000000	2020-10-29T19:42:43:163
1433403,000000	2020-10-29T19:42:43:204
1439142,000000	2020-10-29T19:42:43:243
1450448,000000	2020-10-29T19:42:43:283
1453781,000000	2020-10-29T19:42:43:323
1458099,000000	2020-10-29T19:42:43:363
1468184,000000	2020-10-29T19:42:43:403
1481925,000000	2020-10-29T19:42:43:445
1498501,000000	2020-10-29T19:42:43:483
1506916,000000	2020-10-29T19:42:43:523
1503582,000000	2020-10-29T19:42:43:563
1496394,000000	2020-10-29T19:42:43:603
1493358,000000	2020-10-29T19:42:43:643
1483390,000000	2020-10-29T19:42:43:684
1467504,000000	2020-10-29T19:42:43:723
1456027,000000	2020-10-29T19:42:43:764
1451256,000000	2020-10-29T19:42:43:803
1453912,000000	2020-10-29T19:42:43:843
1454653,000000	2020-10-29T19:42:43:884
1452614,000000	2020-10-29T19:42:43:924
1452115,000000	2020-10-29T19:42:43:963
1454457,000000	2020-10-29T19:42:44:003
1454186,000000	2020-10-29T19:42:44:043
1456203,000000	2020-10-29T19:42:44:083
1462784,000000	2020-10-29T19:42:44:124
1486909,000000	2020-10-29T19:42:44:165
1520453,000000	2020-10-29T19:42:44:204
1539407,000000	2020-10-29T19:42:44:243
1538120,000000	2020-10-29T19:42:44:283
1533399,000000	2020-10-29T19:42:44:323
1537033,000000	2020-10-29T19:42:44:363
1549691,000000	2020-10-29T19:42:44:405
1566988,000000	2020-10-29T19:42:44:443
1582590,000000	2020-10-29T19:42:44:484
1594906,000000	2020-10-29T19:42:44:524
1605085,000000	2020-10-29T19:42:44:564
1618269,000000	2020-10-29T19:42:44:604
1631146,000000	2020-10-29T19:42:44:645
1637678,000000	2020-10-29T19:42:44:684
1636707,000000	2020-10-29T19:42:44:724
1621909,000000	2020-10-29T19:42:44:764
1623376,000000	2020-10-29T19:42:44:807
1612820,000000	2020-10-29T19:42:44:844
1605075,000000	2020-10-29T19:42:44:885
1606331,000000	2020-10-29T19:42:44:925
1611107,000000	2020-10-29T19:42:44:964
1600962,000000	2020-10-29T19:42:45:005
1575858,000000	2020-10-29T19:42:45:044
1556829,000000	2020-10-29T19:42:45:084
1543919,000000	2020-10-29T19:42:45:126
1535336,000000	2020-10-29T19:42:45:164
1535931,000000	2020-10-29T19:42:45:206
1537857,000000	2020-10-29T19:42:45:245
1541572,000000	2020-10-29T19:42:45:284
1543666,000000	2020-10-29T19:42:45:325
1547711,000000	2020-10-29T19:42:45:367
1547053,000000	2020-10-29T19:42:45:405
1536211,000000	2020-10-29T19:42:45:445
1518213,000000	2020-10-29T19:42:45:485
1512961,000000	2020-10-29T19:42:45:525
1519844,000000	2020-10-29T19:42:45:565
1517978,000000	2020-10-29T19:42:45:609
1506213,000000	2020-10-29T19:42:45:644
1495039,000000	2020-10-29T19:42:45:685
1482989,000000	2020-10-29T19:42:45:725
1472479,000000	2020-10-29T19:42:45:765
1471322,000000	2020-10-29T19:42:45:805
1474518,000000	2020-10-29T19:42:45:848
1479167,000000	2020-10-29T19:42:45:885
1488678,000000	2020-10-29T19:42:45:925
1500946,000000	2020-10-29T19:42:45:965
1526543,000000	2020-10-29T19:42:46:005
1560189,000000	2020-10-29T19:42:46:045
1580348,000000	2020-10-29T19:42:46:098
1600881,000000	2020-10-29T19:42:46:128
1629284,000000	2020-10-29T19:42:46:166
1656151,000000	2020-10-29T19:42:46:206
1679222,000000	2020-10-29T19:42:46:245
1696721,000000	2020-10-29T19:42:46:285
1704961,000000	2020-10-29T19:42:46:327
1689936,000000	2020-10-29T19:42:46:365
1659767,000000	2020-10-29T19:42:46:407
1634849,000000	2020-10-29T19:42:46:446
1621631,000000	2020-10-29T19:42:46:485
1612213,000000	2020-10-29T19:42:46:526
1606643,000000	2020-10-29T19:42:46:567
1607628,000000	2020-10-29T19:42:46:606
1610129,000000	2020-10-29T19:42:46:646
1603219,000000	2020-10-29T19:42:46:686
1594917,000000	2020-10-29T19:42:46:726
1582214,000000	2020-10-29T19:42:46:766
1584817,000000	2020-10-29T19:42:46:808
1580781,000000	2020-10-29T19:42:46:846
1581175,000000	2020-10-29T19:42:46:886
1591659,000000	2020-10-29T19:42:46:927
1617338,000000	2020-10-29T19:42:46:966
1649092,000000	2020-10-29T19:42:47:007
1672922,000000	2020-10-29T19:42:47:048
1690911,000000	2020-10-29T19:42:47:086
1702092,000000	2020-10-29T19:42:47:127
1702868,000000	2020-10-29T19:42:47:167
1703886,000000	2020-10-29T19:42:47:207
1707258,000000	2020-10-29T19:42:47:246
1707381,000000	2020-10-29T19:42:47:287
1703061,000000	2020-10-29T19:42:47:327
1690761,000000	2020-10-29T19:42:47:367
1694547,000000	2020-10-29T19:42:47:407
1679913,000000	2020-10-29T19:42:47:447
1694154,000000	2020-10-29T19:42:47:487
1714021,000000	2020-10-29T19:42:47:530
1695823,000000	2020-10-29T19:42:47:566
1673651,000000	2020-10-29T19:42:47:607
1663369,000000	2020-10-29T19:42:47:647
1665034,000000	2020-10-29T19:42:47:687
1659375,000000	2020-10-29T19:42:47:727
1652084,000000	2020-10-29T19:42:47:769
1631465,000000	2020-10-29T19:42:47:807
1615455,000000	2020-10-29T19:42:47:847
1596448,000000	2020-10-29T19:42:47:888
1579355,000000	2020-10-29T19:42:47:927
1567296,000000	2020-10-29T19:42:47:967
1562437,000000	2020-10-29T19:42:48:010
1560410,000000	2020-10-29T19:42:48:047
1552147,000000	2020-10-29T19:42:48:087
1543348,000000	2020-10-29T19:42:48:128
1536291,000000	2020-10-29T19:42:48:167
1526510,000000	2020-10-29T19:42:48:208
1519002,000000	2020-10-29T19:42:48:249
1513519,000000	2020-10-29T19:42:48:287
1509499,000000	2020-10-29T19:42:48:328
1516357,000000	2020-10-29T19:42:48:367
1541800,000000	2020-10-29T19:42:48:408
1573919,000000	2020-10-29T19:42:48:447
1592682,000000	2020-10-29T19:42:48:488
1592086,000000	2020-10-29T19:42:48:527
1595793,000000	2020-10-29T19:42:48:568
1612877,000000	2020-10-29T19:42:48:608
1614549,000000	2020-10-29T19:42:48:648
1616893,000000	2020-10-29T19:42:48:688
1637969,000000	2020-10-29T19:42:48:729
1667049,000000	2020-10-29T19:42:48:766
1699026,000000	2020-10-29T19:42:48:809
1707662,000000	2020-10-29T19:42:48:847
1728489,000000	2020-10-29T19:42:48:887
1731169,000000	2020-10-29T19:42:48:928
1715566,000000	2020-10-29T19:42:48:969
1710747,000000	2020-10-29T19:42:49:008
1720037,000000	2020-10-29T19:42:49:048
1730400,000000	2020-10-29T19:42:49:088
1724983,000000	2020-10-29T19:42:49:128
1699794,000000	2020-10-29T19:42:49:169
1680916,000000	2020-10-29T19:42:49:209
1670086,000000	2020-10-29T19:42:49:248
1662495,000000	2020-10-29T19:42:49:288
1658362,000000	2020-10-29T19:42:49:329
1657421,000000	2020-10-29T19:42:49:368
1656622,000000	2020-10-29T19:42:49:409
1657158,000000	2020-10-29T19:42:49:450
1668788,000000	2020-10-29T19:42:49:488
1687612,000000	2020-10-29T19:42:49:529
1727895,000000	2020-10-29T19:42:49:569
1764708,000000	2020-10-29T19:42:49:609
1777823,000000	2020-10-29T19:42:49:649
1773939,000000	2020-10-29T19:42:49:691
1783338,000000	2020-10-29T19:42:49:729
1783703,000000	2020-10-29T19:42:49:769
1766498,000000	2020-10-29T19:42:49:809
1743939,000000	2020-10-29T19:42:49:849
1722109,000000	2020-10-29T19:42:49:889
1725687,000000	2020-10-29T19:42:49:931
1729479,000000	2020-10-29T19:42:49:969
1740922,000000	2020-10-29T19:42:50:009
1749397,000000	2020-10-29T19:42:50:049
1760181,000000	2020-10-29T19:42:50:089
1777916,000000	2020-10-29T19:42:50:129
1799835,000000	2020-10-29T19:42:50:171
1805830,000000	2020-10-29T19:42:50:209
1818134,000000	2020-10-29T19:42:50:250
1821673,000000	2020-10-29T19:42:50:289
1831917,000000	2020-10-29T19:42:50:329
1842149,000000	2020-10-29T19:42:50:370
1848020,000000	2020-10-29T19:42:50:411
1845654,000000	2020-10-29T19:42:50:450
1823356,000000	2020-10-29T19:42:50:490
1794720,000000	2020-10-29T19:42:50:530
1778826,000000	2020-10-29T19:42:50:570
1773638,000000	2020-10-29T19:42:50:610
1770963,000000	2020-10-29T19:42:50:652
1769444,000000	2020-10-29T19:42:50:690
1769618,000000	2020-10-29T19:42:50:730
1774649,000000	2020-10-29T19:42:50:770
1780240,000000	2020-10-29T19:42:50:810
1790268,000000	2020-10-29T19:42:50:853
1798472,000000	2020-10-29T19:42:50:893
1807867,000000	2020-10-29T19:42:50:930
1811225,000000	2020-10-29T19:42:50:971
1822759,000000	2020-10-29T19:42:51:011
1850599,000000	2020-10-29T19:42:51:050
1894556,000000	2020-10-29T19:42:51:091
1918246,000000	2020-10-29T19:42:51:134
1941158,000000	2020-10-29T19:42:51:170
1943560,000000	2020-10-29T19:42:51:211
1931290,000000	2020-10-29T19:42:51:250
1901750,000000	2020-10-29T19:42:51:290
1876643,000000	2020-10-29T19:42:51:331
1860320,000000	2020-10-29T19:42:51:372
1860942,000000	2020-10-29T19:42:51:411
1887483,000000	2020-10-29T19:42:51:451
1951710,000000	2020-10-29T19:42:51:491
1986620,000000	2020-10-29T19:42:51:531
1985472,000000	2020-10-29T19:42:51:571
2000370,000000	2020-10-29T19:42:51:611
1999432,000000	2020-10-29T19:42:51:651
1998568,000000	2020-10-29T19:42:51:691
1981653,000000	2020-10-29T19:42:51:731
1935734,000000	2020-10-29T19:42:51:771
1890239,000000	2020-10-29T19:42:51:811
1860742,000000	2020-10-29T19:42:51:853
1837911,000000	2020-10-29T19:42:51:891
1819087,000000	2020-10-29T19:42:51:931
1802631,000000	2020-10-29T19:42:51:971
1790516,000000	2020-10-29T19:42:52:011
1776418,000000	2020-10-29T19:42:52:051
1753447,000000	2020-10-29T19:42:52:092
1731015,000000	2020-10-29T19:42:52:131
1714344,000000	2020-10-29T19:42:52:172
1705094,000000	2020-10-29T19:42:52:211
1707040,000000	2020-10-29T19:42:52:251
1772354,000000	2020-10-29T19:42:52:292
1837959,000000	2020-10-29T19:42:52:333
1861534,000000	2020-10-29T19:42:52:384
1878836,000000	2020-10-29T19:42:52:434
1894777,000000	2020-10-29T19:42:52:452
1896956,000000	2020-10-29T19:42:52:491
1868252,000000	2020-10-29T19:42:52:533
1841185,000000	2020-10-29T19:42:52:573
1826241,000000	2020-10-29T19:42:52:612
1816666,000000	2020-10-29T19:42:52:652
1802750,000000	2020-10-29T19:42:52:692
1792189,000000	2020-10-29T19:42:52:732
1793606,000000	2020-10-29T19:42:52:772
1801504,000000	2020-10-29T19:42:52:814
1809201,000000	2020-10-29T19:42:52:852
1823046,000000	2020-10-29T19:42:52:892
1833223,000000	2020-10-29T19:42:52:932
1834640,000000	2020-10-29T19:42:52:972
1832237,000000	2020-10-29T19:42:53:013
1833271,000000	2020-10-29T19:42:53:054
1832704,000000	2020-10-29T19:42:53:092
1826805,000000	2020-10-29T19:42:53:133
1814007,000000	2020-10-29T19:42:53:173
1803442,000000	2020-10-29T19:42:53:213
1795369,000000	2020-10-29T19:42:53:252
1794636,000000	2020-10-29T19:42:53:294
1794870,000000	2020-10-29T19:42:53:332
1791195,000000	2020-10-29T19:42:53:372
1780290,000000	2020-10-29T19:42:53:413
1778517,000000	2020-10-29T19:42:53:453
1775634,000000	2020-10-29T19:42:53:492
1775246,000000	2020-10-29T19:42:53:535
1774430,000000	2020-10-29T19:42:53:572
1772113,000000	2020-10-29T19:42:53:613
1772297,000000	2020-10-29T19:42:53:653
1768414,000000	2020-10-29T19:42:53:692
1762885,000000	2020-10-29T19:42:53:733
1758363,000000	2020-10-29T19:42:53:773
1756160,000000	2020-10-29T19:42:53:813
1761386,000000	2020-10-29T19:42:53:853
1773024,000000	2020-10-29T19:42:53:893
1779816,000000	2020-10-29T19:42:53:933
1783390,000000	2020-10-29T19:42:53:973
1788079,000000	2020-10-29T19:42:54:015
1795235,000000	2020-10-29T19:42:54:053
1797467,000000	2020-10-29T19:42:54:094
1796376,000000	2020-10-29T19:42:54:133
1802308,000000	2020-10-29T19:42:54:173
1807065,000000	2020-10-29T19:42:54:214
1799308,000000	2020-10-29T19:42:54:255
1802462,000000	2020-10-29T19:42:54:293
1807653,000000	2020-10-29T19:42:54:334
1809706,000000	2020-10-29T19:42:54:373
1813376,000000	2020-10-29T19:42:54:413
1816919,000000	2020-10-29T19:42:54:454
1820322,000000	2020-10-29T19:42:54:495
1827022,000000	2020-10-29T19:42:54:534
1829571,000000	2020-10-29T19:42:54:573
1833307,000000	2020-10-29T19:42:54:614
1836333,000000	2020-10-29T19:42:54:654
1833070,000000	2020-10-29T19:42:54:694
1825286,000000	2020-10-29T19:42:54:736
1815593,000000	2020-10-29T19:42:54:774
1807934,000000	2020-10-29T19:42:54:814
1800765,000000	2020-10-29T19:42:54:854
1791670,000000	2020-10-29T19:42:54:894
1780540,000000	2020-10-29T19:42:54:934
1773366,000000	2020-10-29T19:42:54:975
1763783,000000	2020-10-29T19:42:55:014
1755740,000000	2020-10-29T19:42:55:054
1750177,000000	2020-10-29T19:42:55:094
1746300,000000	2020-10-29T19:42:55:134
1747230,000000	2020-10-29T19:42:55:174
1749316,000000	2020-10-29T19:42:55:216
1744860,000000	2020-10-29T19:42:55:255
1816385,000000	2020-10-29T19:42:55:294
1768889,000000	2020-10-29T19:42:55:335
1787329,000000	2020-10-29T19:42:55:374
1791252,000000	2020-10-29T19:42:55:415
1789399,000000	2020-10-29T19:42:55:456
1793206,000000	2020-10-29T19:42:55:494
1796260,000000	2020-10-29T19:42:55:535
1802146,000000	2020-10-29T19:42:55:574
1802735,000000	2020-10-29T19:42:55:614
1819444,000000	2020-10-29T19:42:55:655
1842685,000000	2020-10-29T19:42:55:696
1858110,000000	2020-10-29T19:42:55:735
1840274,000000	2020-10-29T19:42:55:775
1826288,000000	2020-10-29T19:42:55:815
1819013,000000	2020-10-29T19:42:55:856
1823482,000000	2020-10-29T19:42:55:895
1810172,000000	2020-10-29T19:42:55:937
1804972,000000	2020-10-29T19:42:55:975
1800093,000000	2020-10-29T19:42:56:015
1797693,000000	2020-10-29T19:42:56:055
1798444,000000	2020-10-29T19:42:56:095
1804713,000000	2020-10-29T19:42:56:135
1808777,000000	2020-10-29T19:42:56:177
1797988,000000	2020-10-29T19:42:56:215
1783215,000000	2020-10-29T19:42:56:255
1772236,000000	2020-10-29T19:42:56:295
1759583,000000	2020-10-29T19:42:56:335
1745362,000000	2020-10-29T19:42:56:375
1733964,000000	2020-10-29T19:42:56:416
1725874,000000	2020-10-29T19:42:56:455
1720530,000000	2020-10-29T19:42:56:495
1717578,000000	2020-10-29T19:42:56:536
1715384,000000	2020-10-29T19:42:56:577
1714002,000000	2020-10-29T19:42:56:617
1719510,000000	2020-10-29T19:42:56:658
1733016,000000	2020-10-29T19:42:56:696
1751479,000000	2020-10-29T19:42:56:737
1762194,000000	2020-10-29T19:42:56:777
1762014,000000	2020-10-29T19:42:56:816
1747232,000000	2020-10-29T19:42:56:856
1736264,000000	2020-10-29T19:42:56:898
1729801,000000	2020-10-29T19:42:56:937
1732621,000000	2020-10-29T19:42:56:976
1738910,000000	2020-10-29T19:42:57:016
1747543,000000	2020-10-29T19:42:57:056
1769116,000000	2020-10-29T19:42:57:096
1788668,000000	2020-10-29T19:42:57:137
1796729,000000	2020-10-29T19:42:57:176
1807179,000000	2020-10-29T19:42:57:216
1816565,000000	2020-10-29T19:42:57:256
1815890,000000	2020-10-29T19:42:57:296
1809408,000000	2020-10-29T19:42:57:336
1792199,000000	2020-10-29T19:42:57:378
1763330,000000	2020-10-29T19:42:57:417
1747268,000000	2020-10-29T19:42:57:456
1746228,000000	2020-10-29T19:42:57:497
1768679,000000	2020-10-29T19:42:57:537
1773257,000000	2020-10-29T19:42:57:576
1802590,000000	2020-10-29T19:42:57:619
1810365,000000	2020-10-29T19:42:57:657
1810026,000000	2020-10-29T19:42:57:699
1807527,000000	2020-10-29T19:42:57:737
1801080,000000	2020-10-29T19:42:57:777
1789499,000000	2020-10-29T19:42:57:817
1777574,000000	2020-10-29T19:42:57:859
1762028,000000	2020-10-29T19:42:57:897
1755475,000000	2020-10-29T19:42:57:939
1759265,000000	2020-10-29T19:42:57:977
1777377,000000	2020-10-29T19:42:58:017
1789395,000000	2020-10-29T19:42:58:057
1790048,000000	2020-10-29T19:42:58:099
1781356,000000	2020-10-29T19:42:58:137
1757829,000000	2020-10-29T19:42:58:177
1733069,000000	2020-10-29T19:42:58:218
1703853,000000	2020-10-29T19:42:58:257
1669724,000000	2020-10-29T19:42:58:297
1642253,000000	2020-10-29T19:42:58:340
1622913,000000	2020-10-29T19:42:58:377
1619743,000000	2020-10-29T19:42:58:418
1619200,000000	2020-10-29T19:42:58:457
1609927,000000	2020-10-29T19:42:58:497
1599937,000000	2020-10-29T19:42:58:538
1618394,000000	2020-10-29T19:42:58:580
1669087,000000	2020-10-29T19:42:58:618
1671523,000000	2020-10-29T19:42:58:658
1656717,000000	2020-10-29T19:42:58:698
1605583,000000	2020-10-29T19:42:58:738
1562939,000000	2020-10-29T19:42:58:778
1530069,000000	2020-10-29T19:42:58:820
1513606,000000	2020-10-29T19:42:58:858
1513867,000000	2020-10-29T19:42:58:898
1513821,000000	2020-10-29T19:42:58:938
1495976,000000	2020-10-29T19:42:58:978
1460561,000000	2020-10-29T19:42:59:018
1446707,000000	2020-10-29T19:42:59:059
1439893,000000	2020-10-29T19:42:59:097
1452018,000000	2020-10-29T19:42:59:138
1464006,000000	2020-10-29T19:42:59:179
1472428,000000	2020-10-29T19:42:59:218
1483741,000000	2020-10-29T19:42:59:258
1491469,000000	2020-10-29T19:42:59:299
1496169,000000	2020-10-29T19:42:59:338
1492854,000000	2020-10-29T19:42:59:378
1496325,000000	2020-10-29T19:42:59:419
1512812,000000	2020-10-29T19:42:59:458
1527616,000000	2020-10-29T19:42:59:498
1550463,000000	2020-10-29T19:42:59:541
1568782,000000	2020-10-29T19:42:59:578
1574590,000000	2020-10-29T19:42:59:619
1579624,000000	2020-10-29T19:42:59:659
1608465,000000	2020-10-29T19:42:59:698
1628877,000000	2020-10-29T19:42:59:739
1641658,000000	2020-10-29T19:42:59:780
1648853,000000	2020-10-29T19:42:59:819
1639843,000000	2020-10-29T19:42:59:859
1606952,000000	2020-10-29T19:42:59:899
1570967,000000	2020-10-29T19:42:59:939
1542968,000000	2020-10-29T19:42:59:979
1518628,000000	2020-10-29T19:43:00:021
1506752,000000	2020-10-29T19:43:00:059
1501387,000000	2020-10-29T19:43:00:099
1500910,000000	2020-10-29T19:43:00:139
1496473,000000	2020-10-29T19:43:00:179
1498239,000000	2020-10-29T19:43:00:219
1517549,000000	2020-10-29T19:43:00:261
1551079,000000	2020-10-29T19:43:00:299
1576034,000000	2020-10-29T19:43:00:339
1593808,000000	2020-10-29T19:43:00:379
1588829,000000	2020-10-29T19:43:00:419
1579334,000000	2020-10-29T19:43:00:460
1573920,000000	2020-10-29T19:43:00:501
1578699,000000	2020-10-29T19:43:00:540
1583894,000000	2020-10-29T19:43:00:579
1570408,000000	2020-10-29T19:43:00:620
1545802,000000	2020-10-29T19:43:00:659
1524794,000000	2020-10-29T19:43:00:700
1520062,000000	2020-10-29T19:43:00:742
1587393,000000	2020-10-29T19:43:00:780
1605671,000000	2020-10-29T19:43:00:820
1647184,000000	2020-10-29T19:43:00:860
1687809,000000	2020-10-29T19:43:00:900
1708795,000000	2020-10-29T19:43:00:940
1692955,000000	2020-10-29T19:43:00:980
1678631,000000	2020-10-29T19:43:01:020
1661920,000000	2020-10-29T19:43:01:060
1651410,000000	2020-10-29T19:43:01:100
1650941,000000	2020-10-29T19:43:01:144
1654474,000000	2020-10-29T19:43:01:180
1643105,000000	2020-10-29T19:43:01:222
1621611,000000	2020-10-29T19:43:01:260
1607730,000000	2020-10-29T19:43:01:300
1607863,000000	2020-10-29T19:43:01:341
1608160,000000	2020-10-29T19:43:01:380
1600374,000000	2020-10-29T19:43:01:421
1628699,000000	2020-10-29T19:43:01:461
1665637,000000	2020-10-29T19:43:01:500
1688967,000000	2020-10-29T19:43:01:541
1695183,000000	2020-10-29T19:43:01:580
1692397,000000	2020-10-29T19:43:01:621
1677929,000000	2020-10-29T19:43:01:661
1659783,000000	2020-10-29T19:43:01:702
1620845,000000	2020-10-29T19:43:01:741
1590576,000000	2020-10-29T19:43:01:781
1579685,000000	2020-10-29T19:43:01:821
1629829,000000	2020-10-29T19:43:01:861
1667914,000000	2020-10-29T19:43:01:901
1686732,000000	2020-10-29T19:43:01:943
1721603,000000	2020-10-29T19:43:01:981
1751271,000000	2020-10-29T19:43:02:021
1776238,000000	2020-10-29T19:43:02:061
1794250,000000	2020-10-29T19:43:02:101
1801949,000000	2020-10-29T19:43:02:141
1805168,000000	2020-10-29T19:43:02:183
1779575,000000	2020-10-29T19:43:02:221
1736881,000000	2020-10-29T19:43:02:261
1710058,000000	2020-10-29T19:43:02:301
1690753,000000	2020-10-29T19:43:02:341
1680884,000000	2020-10-29T19:43:02:381
1678538,000000	2020-10-29T19:43:02:423
1679074,000000	2020-10-29T19:43:02:461
1687953,000000	2020-10-29T19:43:02:501
1713400,000000	2020-10-29T19:43:02:542
1706848,000000	2020-10-29T19:43:02:581
1703967,000000	2020-10-29T19:43:02:622
1703996,000000	2020-10-29T19:43:02:662
1719362,000000	2020-10-29T19:43:02:702
1759504,000000	2020-10-29T19:43:02:742
1821276,000000	2020-10-29T19:43:02:782
1840743,000000	2020-10-29T19:43:02:822
1854222,000000	2020-10-29T19:43:02:862
1857844,000000	2020-10-29T19:43:02:904
1857875,000000	2020-10-29T19:43:02:942
1857649,000000	2020-10-29T19:43:02:982
1849518,000000	2020-10-29T19:43:03:022
1836725,000000	2020-10-29T19:43:03:062
1827472,000000	2020-10-29T19:43:03:102
1840135,000000	2020-10-29T19:43:03:143
1864575,000000	2020-10-29T19:43:03:182
1884942,000000	2020-10-29T19:43:03:223
1906270,000000	2020-10-29T19:43:03:262
1926466,000000	2020-10-29T19:43:03:302
1946611,000000	2020-10-29T19:43:03:342
1972127,000000	2020-10-29T19:43:03:383
1986391,000000	2020-10-29T19:43:03:423
1949500,000000	2020-10-29T19:43:03:462
1900810,000000	2020-10-29T19:43:03:502
1872073,000000	2020-10-29T19:43:03:543
1861811,000000	2020-10-29T19:43:03:582
1860217,000000	2020-10-29T19:43:03:624
1859301,000000	2020-10-29T19:43:03:662
1860838,000000	2020-10-29T19:43:03:702
1863550,000000	2020-10-29T19:43:03:743
1858341,000000	2020-10-29T19:43:03:782
1845178,000000	2020-10-29T19:43:03:823
1818859,000000	2020-10-29T19:43:03:865
1791530,000000	2020-10-29T19:43:03:903
1774976,000000	2020-10-29T19:43:03:943
1766528,000000	2020-10-29T19:43:03:983
1765608,000000	2020-10-29T19:43:04:023
1769039,000000	2020-10-29T19:43:04:063
1768558,000000	2020-10-29T19:43:04:106
1761175,000000	2020-10-29T19:43:04:143
1752862,000000	2020-10-29T19:43:04:183
1750526,000000	2020-10-29T19:43:04:223
1753734,000000	2020-10-29T19:43:04:263
1761999,000000	2020-10-29T19:43:04:303
1773987,000000	2020-10-29T19:43:04:345
1809411,000000	2020-10-29T19:43:04:383
1838966,000000	2020-10-29T19:43:04:424
1867297,000000	2020-10-29T19:43:04:463
1917158,000000	2020-10-29T19:43:04:503
1950990,000000	2020-10-29T19:43:04:544
1968971,000000	2020-10-29T19:43:04:585
1951954,000000	2020-10-29T19:43:04:624
1943057,000000	2020-10-29T19:43:04:664
1915970,000000	2020-10-29T19:43:04:704
1887592,000000	2020-10-29T19:43:04:744
1859246,000000	2020-10-29T19:43:04:784
1835534,000000	2020-10-29T19:43:04:825
1823425,000000	2020-10-29T19:43:04:863
1817352,000000	2020-10-29T19:43:04:904
1814338,000000	2020-10-29T19:43:04:944
1813436,000000	2020-10-29T19:43:04:984
1815523,000000	2020-10-29T19:43:05:025
1820449,000000	2020-10-29T19:43:05:066
1832260,000000	2020-10-29T19:43:05:104
1854919,000000	2020-10-29T19:43:05:145
1870914,000000	2020-10-29T19:43:05:185
1882599,000000	2020-10-29T19:43:05:224
1903643,000000	2020-10-29T19:43:05:264
1915057,000000	2020-10-29T19:43:05:305
1921617,000000	2020-10-29T19:43:05:345
1928193,000000	2020-10-29T19:43:05:384
1940299,000000	2020-10-29T19:43:05:425
1943112,000000	2020-10-29T19:43:05:464
1933902,000000	2020-10-29T19:43:05:504
1903137,000000	2020-10-29T19:43:05:547
1881025,000000	2020-10-29T19:43:05:584
1864847,000000	2020-10-29T19:43:05:625
1854296,000000	2020-10-29T19:43:05:665
1852601,000000	2020-10-29T19:43:05:704
1854187,000000	2020-10-29T19:43:05:745
1862969,000000	2020-10-29T19:43:05:787
1881683,000000	2020-10-29T19:43:05:825
1902729,000000	2020-10-29T19:43:05:866
1924785,000000	2020-10-29T19:43:05:905
1942521,000000	2020-10-29T19:43:05:945
1951826,000000	2020-10-29T19:43:05:985
1953565,000000	2020-10-29T19:43:06:027
1964211,000000	2020-10-29T19:43:06:065
1965960,000000	2020-10-29T19:43:06:105
1946777,000000	2020-10-29T19:43:06:147
1912499,000000	2020-10-29T19:43:06:185
1892154,000000	2020-10-29T19:43:06:225
1882569,000000	2020-10-29T19:43:06:267
1876952,000000	2020-10-29T19:43:06:305
1866310,000000	2020-10-29T19:43:06:346
1857411,000000	2020-10-29T19:43:06:385
1854284,000000	2020-10-29T19:43:06:425
1856603,000000	2020-10-29T19:43:06:465
1866538,000000	2020-10-29T19:43:06:507
1875757,000000	2020-10-29T19:43:06:546
1886481,000000	2020-10-29T19:43:06:585
1887146,000000	2020-10-29T19:43:06:626
1882230,000000	2020-10-29T19:43:06:665
1901308,000000	2020-10-29T19:43:06:706
1963063,000000	2020-10-29T19:43:06:747
1990487,000000	2020-10-29T19:43:06:788
1990152,000000	2020-10-29T19:43:06:826
1993297,000000	2020-10-29T19:43:06:866
2000717,000000	2020-10-29T19:43:06:905
2017743,000000	2020-10-29T19:43:06:946
2033727,000000	2020-10-29T19:43:06:987
2041028,000000	2020-10-29T19:43:07:026
2044387,000000	2020-10-29T19:43:07:066
2049424,000000	2020-10-29T19:43:07:106
2051063,000000	2020-10-29T19:43:07:146
2046524,000000	2020-10-29T19:43:07:186
2033925,000000	2020-10-29T19:43:07:229
2018155,000000	2020-10-29T19:43:07:266
2000737,000000	2020-10-29T19:43:07:306
1969285,000000	2020-10-29T19:43:07:347
1943067,000000	2020-10-29T19:43:07:386
1931336,000000	2020-10-29T19:43:07:427
1915063,000000	2020-10-29T19:43:07:467
1934914,000000	2020-10-29T19:43:07:506
2090199,000000	2020-10-29T19:43:07:546
1964341,000000	2020-10-29T19:43:07:586
1939460,000000	2020-10-29T19:43:07:627
1938941,000000	2020-10-29T19:43:07:667
1957484,000000	2020-10-29T19:43:07:707
1962896,000000	2020-10-29T19:43:07:747
1987008,000000	2020-10-29T19:43:07:787
2031286,000000	2020-10-29T19:43:07:827
2056696,000000	2020-10-29T19:43:07:867
2077198,000000	2020-10-29T19:43:07:907
2082085,000000	2020-10-29T19:43:07:948
2091873,000000	2020-10-29T19:43:07:987
2099345,000000	2020-10-29T19:43:08:027
2113053,000000	2020-10-29T19:43:08:067
2135644,000000	2020-10-29T19:43:08:107
2151052,000000	2020-10-29T19:43:08:147
2154935,000000	2020-10-29T19:43:08:189
2142153,000000	2020-10-29T19:43:08:227
2167358,000000	2020-10-29T19:43:08:267
2193194,000000	2020-10-29T19:43:08:307
2183603,000000	2020-10-29T19:43:08:347
2192943,000000	2020-10-29T19:43:08:387
2208800,000000	2020-10-29T19:43:08:428
2230298,000000	2020-10-29T19:43:08:468
2265666,000000	2020-10-29T19:43:08:507
2279096,000000	2020-10-29T19:43:08:547
2277302,000000	2020-10-29T19:43:08:587
2247155,000000	2020-10-29T19:43:08:628
2250970,000000	2020-10-29T19:43:08:679
2249434,000000	2020-10-29T19:43:08:707
2255271,000000	2020-10-29T19:43:08:748
2270666,000000	2020-10-29T19:43:08:788
2277210,000000	2020-10-29T19:43:08:828
2268773,000000	2020-10-29T19:43:08:867
2270482,000000	2020-10-29T19:43:08:909
2280247,000000	2020-10-29T19:43:08:948
2287940,000000	2020-10-29T19:43:08:988
2291682,000000	2020-10-29T19:43:09:028
2298746,000000	2020-10-29T19:43:09:068
2298986,000000	2020-10-29T19:43:09:107
2298000,000000	2020-10-29T19:43:09:149
2316331,000000	2020-10-29T19:43:09:188
2319891,000000	2020-10-29T19:43:09:229
2319645,000000	2020-10-29T19:43:09:268
2318209,000000	2020-10-29T19:43:09:308
2315905,000000	2020-10-29T19:43:09:348
2314405,000000	2020-10-29T19:43:09:389
2304091,000000	2020-10-29T19:43:09:428
2276039,000000	2020-10-29T19:43:09:469
2239823,000000	2020-10-29T19:43:09:508
2215977,000000	2020-10-29T19:43:09:548
2202470,000000	2020-10-29T19:43:09:588
2166130,000000	2020-10-29T19:43:09:631
2159574,000000	2020-10-29T19:43:09:668
2162512,000000	2020-10-29T19:43:09:708
2144813,000000	2020-10-29T19:43:09:751
2114226,000000	2020-10-29T19:43:09:788
2096820,000000	2020-10-29T19:43:09:829
2086116,000000	2020-10-29T19:43:09:868
2083306,000000	2020-10-29T19:43:09:909
2102255,000000	2020-10-29T19:43:09:949
2107941,000000	2020-10-29T19:43:09:990
2106099,000000	2020-10-29T19:43:10:029
2107884,000000	2020-10-29T19:43:10:069
2110998,000000	2020-10-29T19:43:10:111
2111297,000000	2020-10-29T19:43:10:149
2095234,000000	2020-10-29T19:43:10:189
2074839,000000	2020-10-29T19:43:10:230
2054689,000000	2020-10-29T19:43:10:269
2040020,000000	2020-10-29T19:43:10:309
2025291,000000	2020-10-29T19:43:10:351
2002188,000000	2020-10-29T19:43:10:389
1965041,000000	2020-10-29T19:43:10:431
1927085,000000	2020-10-29T19:43:10:469
1901196,000000	2020-10-29T19:43:10:509
1898471,000000	2020-10-29T19:43:10:550
1897542,000000	2020-10-29T19:43:10:591
1901074,000000	2020-10-29T19:43:10:630
1900803,000000	2020-10-29T19:43:10:670
1894668,000000	2020-10-29T19:43:10:710
1893918,000000	2020-10-29T19:43:10:750
1884552,000000	2020-10-29T19:43:10:790
1865178,000000	2020-10-29T19:43:10:831
1837534,000000	2020-10-29T19:43:10:870
1806742,000000	2020-10-29T19:43:10:910
1776246,000000	2020-10-29T19:43:10:950
1772449,000000	2020-10-29T19:43:10:990
1783979,000000	2020-10-29T19:43:11:031
1791963,000000	2020-10-29T19:43:11:076
1798524,000000	2020-10-29T19:43:11:110
1798096,000000	2020-10-29T19:43:11:152
1799054,000000	2020-10-29T19:43:11:190
1801134,000000	2020-10-29T19:43:11:230
1804300,000000	2020-10-29T19:43:11:270
1803537,000000	2020-10-29T19:43:11:312
1789127,000000	2020-10-29T19:43:11:352
1778006,000000	2020-10-29T19:43:11:391
1767893,000000	2020-10-29T19:43:11:431
1744803,000000	2020-10-29T19:43:11:470
1700184,000000	2020-10-29T19:43:11:511
1651653,000000	2020-10-29T19:43:11:551
1616055,000000	2020-10-29T19:43:11:590
1589667,000000	2020-10-29T19:43:11:631
1569704,000000	2020-10-29T19:43:11:671
1551706,000000	2020-10-29T19:43:11:711
1536766,000000	2020-10-29T19:43:11:751
1508796,000000	2020-10-29T19:43:11:792
1475891,000000	2020-10-29T19:43:11:831
1450374,000000	2020-10-29T19:43:11:871
1434675,000000	2020-10-29T19:43:11:911
1436378,000000	2020-10-29T19:43:11:951
1459239,000000	2020-10-29T19:43:11:991
1476316,000000	2020-10-29T19:43:12:033
1472585,000000	2020-10-29T19:43:12:071
1447720,000000	2020-10-29T19:43:12:111
1429763,000000	2020-10-29T19:43:12:153
1427263,000000	2020-10-29T19:43:12:191
1431500,000000	2020-10-29T19:43:12:231
1438324,000000	2020-10-29T19:43:12:274
1451965,000000	2020-10-29T19:43:12:311
1470931,000000	2020-10-29T19:43:12:351
1480253,000000	2020-10-29T19:43:12:391
1483317,000000	2020-10-29T19:43:12:431
1487582,000000	2020-10-29T19:43:12:471
1495327,000000	2020-10-29T19:43:12:513
1499417,000000	2020-10-29T19:43:12:551
1487720,000000	2020-10-29T19:43:12:591
1468673,000000	2020-10-29T19:43:12:631
1450906,000000	2020-10-29T19:43:12:671
1430101,000000	2020-10-29T19:43:12:712
1409954,000000	2020-10-29T19:43:12:753
1403651,000000	2020-10-29T19:43:12:791
1413100,000000	2020-10-29T19:43:12:832
1430054,000000	2020-10-29T19:43:12:872
1446809,000000	2020-10-29T19:43:12:912
1459785,000000	2020-10-29T19:43:12:952
1472914,000000	2020-10-29T19:43:12:993
1478652,000000	2020-10-29T19:43:13:032
1478772,000000	2020-10-29T19:43:13:072
1477568,000000	2020-10-29T19:43:13:112
1471368,000000	2020-10-29T19:43:13:152
1460730,000000	2020-10-29T19:43:13:192
1453122,000000	2020-10-29T19:43:13:236
1444072,000000	2020-10-29T19:43:13:272
1423357,000000	2020-10-29T19:43:13:312
1398836,000000	2020-10-29T19:43:13:352
1376370,000000	2020-10-29T19:43:13:392
1361691,000000	2020-10-29T19:43:13:433
1351617,000000	2020-10-29T19:43:13:474
1348520,000000	2020-10-29T19:43:13:512
1347617,000000	2020-10-29T19:43:13:553
1337563,000000	2020-10-29T19:43:13:592
1333178,000000	2020-10-29T19:43:13:633
1336589,000000	2020-10-29T19:43:13:673
1340347,000000	2020-10-29T19:43:13:714
1340804,000000	2020-10-29T19:43:13:753
1330579,000000	2020-10-29T19:43:13:793
1315253,000000	2020-10-29T19:43:13:834
1315253,000000	2020-10-29T19:43:13:873
1334231,000000	2020-10-29T19:43:13:914
1335137,000000	2020-10-29T19:43:13:956
1339397,000000	2020-10-29T19:43:13:994
1340751,000000	2020-10-29T19:43:14:034
1334921,000000	2020-10-29T19:43:14:074
1333226,000000	2020-10-29T19:43:14:114
1318470,000000	2020-10-29T19:43:14:154
1298350,000000	2020-10-29T19:43:14:195
1298415,000000	2020-10-29T19:43:14:233
1318683,000000	2020-10-29T19:43:14:274
1341624,000000	2020-10-29T19:43:14:313
1351882,000000	2020-10-29T19:43:14:354
1365334,000000	2020-10-29T19:43:14:394
1362339,000000	2020-10-29T19:43:14:435
1358388,000000	2020-10-29T19:43:14:473
1327889,000000	2020-10-29T19:43:14:513
1298403,000000	2020-10-29T19:43:14:554
1273000,000000	2020-10-29T19:43:14:593
1261984,000000	2020-10-29T19:43:14:634
1263235,000000	2020-10-29T19:43:14:675
1262713,000000	2020-10-29T19:43:14:713
1258842,000000	2020-10-29T19:43:14:754
1249254,000000	2020-10-29T19:43:14:803
1249011,000000	2020-10-29T19:43:14:834
1252595,000000	2020-10-29T19:43:14:874
1259483,000000	2020-10-29T19:43:14:915
1267031,000000	2020-10-29T19:43:14:954
1265376,000000	2020-10-29T19:43:14:994
1269091,000000	2020-10-29T19:43:15:034
1259711,000000	2020-10-29T19:43:15:074
1246207,000000	2020-10-29T19:43:15:114
1254757,000000	2020-10-29T19:43:15:155
1253029,000000	2020-10-29T19:43:15:194
1234123,000000	2020-10-29T19:43:15:234
1221497,000000	2020-10-29T19:43:15:274
1230135,000000	2020-10-29T19:43:15:314
1243218,000000	2020-10-29T19:43:15:354
1271168,000000	2020-10-29T19:43:15:395
1304503,000000	2020-10-29T19:43:15:434
1330528,000000	2020-10-29T19:43:15:474
1355155,000000	2020-10-29T19:43:15:514
1388614,000000	2020-10-29T19:43:15:554
1425167,000000	2020-10-29T19:43:15:594
1474485,000000	2020-10-29T19:43:15:635
1498539,000000	2020-10-29T19:43:15:674
1498147,000000	2020-10-29T19:43:15:714
1448354,000000	2020-10-29T19:43:15:755
1424978,000000	2020-10-29T19:43:15:794
1374843,000000	2020-10-29T19:43:15:835
1327266,000000	2020-10-29T19:43:15:876
1292246,000000	2020-10-29T19:43:15:914
1279573,000000	2020-10-29T19:43:15:955
1285429,000000	2020-10-29T19:43:15:995
1302449,000000	2020-10-29T19:43:16:035
1317755,000000	2020-10-29T19:43:16:075
1342607,000000	2020-10-29T19:43:16:116
1363913,000000	2020-10-29T19:43:16:157
1369084,000000	2020-10-29T19:43:16:195
1361334,000000	2020-10-29T19:43:16:235
1343379,000000	2020-10-29T19:43:16:275
1320909,000000	2020-10-29T19:43:16:315
1322092,000000	2020-10-29T19:43:16:356
1312488,000000	2020-10-29T19:43:16:395
1275267,000000	2020-10-29T19:43:16:435
1235240,000000	2020-10-29T19:43:16:475
1209175,000000	2020-10-29T19:43:16:515
1198671,000000	2020-10-29T19:43:16:555
1195294,000000	2020-10-29T19:43:16:597
1197244,000000	2020-10-29T19:43:16:636
1205513,000000	2020-10-29T19:43:16:675
1225625,000000	2020-10-29T19:43:16:715
1265683,000000	2020-10-29T19:43:16:755
1302763,000000	2020-10-29T19:43:16:795
1358521,000000	2020-10-29T19:43:16:836
1385818,000000	2020-10-29T19:43:16:875
1393909,000000	2020-10-29T19:43:16:915
1396757,000000	2020-10-29T19:43:16:956
1397965,000000	2020-10-29T19:43:16:995
1384858,000000	2020-10-29T19:43:17:036
1352012,000000	2020-10-29T19:43:17:077
1318279,000000	2020-10-29T19:43:17:115
1298817,000000	2020-10-29T19:43:17:157
1291775,000000	2020-10-29T19:43:17:196
1290564,000000	2020-10-29T19:43:17:236
1290760,000000	2020-10-29T19:43:17:276
1288465,000000	2020-10-29T19:43:17:317
1287052,000000	2020-10-29T19:43:17:356
1284405,000000	2020-10-29T19:43:17:395
1281615,000000	2020-10-29T19:43:17:437
1283965,000000	2020-10-29T19:43:17:476
1301217,000000	2020-10-29T19:43:17:516
1341581,000000	2020-10-29T19:43:17:558
1369019,000000	2020-10-29T19:43:17:596
1378688,000000	2020-10-29T19:43:17:636
1379074,000000	2020-10-29T19:43:17:676
1377658,000000	2020-10-29T19:43:17:716
1375680,000000	2020-10-29T19:43:17:757
1376029,000000	2020-10-29T19:43:17:798
1376543,000000	2020-10-29T19:43:17:837
1379419,000000	2020-10-29T19:43:17:876
1396281,000000	2020-10-29T19:43:17:917
1411522,000000	2020-10-29T19:43:17:957
1426673,000000	2020-10-29T19:43:17:997
1446722,000000	2020-10-29T19:43:18:039
1468285,000000	2020-10-29T19:43:18:076
1481511,000000	2020-10-29T19:43:18:116
1493328,000000	2020-10-29T19:43:18:157
1490315,000000	2020-10-29T19:43:18:197
1470377,000000	2020-10-29T19:43:18:237
1439691,000000	2020-10-29T19:43:18:279
1415680,000000	2020-10-29T19:43:18:317
1404259,000000	2020-10-29T19:43:18:357
1399010,000000	2020-10-29T19:43:18:397
1393101,000000	2020-10-29T19:43:18:437
1377616,000000	2020-10-29T19:43:18:477
1364414,000000	2020-10-29T19:43:18:519
1351994,000000	2020-10-29T19:43:18:557
1339091,000000	2020-10-29T19:43:18:599
1335719,000000	2020-10-29T19:43:18:637
1340117,000000	2020-10-29T19:43:18:677
1362277,000000	2020-10-29T19:43:18:717
1391751,000000	2020-10-29T19:43:18:759
1412403,000000	2020-10-29T19:43:18:797
1434177,000000	2020-10-29T19:43:18:839
1478077,000000	2020-10-29T19:43:18:878
1539444,000000	2020-10-29T19:43:18:918
1601914,000000	2020-10-29T19:43:18:958
1664584,000000	2020-10-29T19:43:18:999
1715765,000000	2020-10-29T19:43:19:039
1740665,000000	2020-10-29T19:43:19:077
1746212,000000	2020-10-29T19:43:19:117
1726103,000000	2020-10-29T19:43:19:158
1730751,000000	2020-10-29T19:43:19:198
1782551,000000	2020-10-29T19:43:19:240
1801667,000000	2020-10-29T19:43:19:278
1828241,000000	2020-10-29T19:43:19:318
1863748,000000	2020-10-29T19:43:19:358
1880410,000000	2020-10-29T19:43:19:398
1895382,000000	2020-10-29T19:43:19:438
1895741,000000	2020-10-29T19:43:19:480
1906578,000000	2020-10-29T19:43:19:518
1918866,000000	2020-10-29T19:43:19:558
1927113,000000	2020-10-29T19:43:19:598
1933911,000000	2020-10-29T19:43:19:639
1941810,000000	2020-10-29T19:43:19:678
1945204,000000	2020-10-29T19:43:19:720
1948048,000000	2020-10-29T19:43:19:759
1951015,000000	2020-10-29T19:43:19:798
1946725,000000	2020-10-29T19:43:19:839
1953595,000000	2020-10-29T19:43:19:878
1960642,000000	2020-10-29T19:43:19:919
1970714,000000	2020-10-29T19:43:19:960
1979980,000000	2020-10-29T19:43:19:998
1988640,000000	2020-10-29T19:43:20:039
1990949,000000	2020-10-29T19:43:20:079
1993953,000000	2020-10-29T19:43:20:119
1996568,000000	2020-10-29T19:43:20:159
1998326,000000	2020-10-29T19:43:20:201
2001770,000000	2020-10-29T19:43:20:239
2010465,000000	2020-10-29T19:43:20:279
2016198,000000	2020-10-29T19:43:20:319
2017315,000000	2020-10-29T19:43:20:359
2020439,000000	2020-10-29T19:43:20:399
2025123,000000	2020-10-29T19:43:20:441
2030978,000000	2020-10-29T19:43:20:479
2039130,000000	2020-10-29T19:43:20:519
2048365,000000	2020-10-29T19:43:20:559
2053100,000000	2020-10-29T19:43:20:599
2057074,000000	2020-10-29T19:43:20:639
2060774,000000	2020-10-29T19:43:20:680
2064547,000000	2020-10-29T19:43:20:719
2072676,000000	2020-10-29T19:43:20:760
2074100,000000	2020-10-29T19:43:20:799
2074562,000000	2020-10-29T19:43:20:839
2077747,000000	2020-10-29T19:43:20:879
2078504,000000	2020-10-29T19:43:20:921
2079578,000000	2020-10-29T19:43:20:959
2080507,000000	2020-10-29T19:43:20:999
2082954,000000	2020-10-29T19:43:21:040
2084817,000000	2020-10-29T19:43:21:079
2089159,000000	2020-10-29T19:43:21:119
2090709,000000	2020-10-29T19:43:21:163
2093386,000000	2020-10-29T19:43:21:200
2095910,000000	2020-10-29T19:43:21:240
2097164,000000	2020-10-29T19:43:21:280
2095779,000000	2020-10-29T19:43:21:320
2097320,000000	2020-10-29T19:43:21:360
2100119,000000	2020-10-29T19:43:21:402
2102595,000000	2020-10-29T19:43:21:439
2106908,000000	2020-10-29T19:43:21:480
2111905,000000	2020-10-29T19:43:21:520
2119276,000000	2020-10-29T19:43:21:587
2125411,000000	2020-10-29T19:43:21:600
2128960,000000	2020-10-29T19:43:21:644
2130461,000000	2020-10-29T19:43:21:680
2133137,000000	2020-10-29T19:43:21:720
2136184,000000	2020-10-29T19:43:21:761
2140671,000000	2020-10-29T19:43:21:801
2146853,000000	2020-10-29T19:43:21:841
2155422,000000	2020-10-29T19:43:21:882
2165091,000000	2020-10-29T19:43:21:921
2171448,000000	2020-10-29T19:43:21:961
2173059,000000	2020-10-29T19:43:22:001
2172376,000000	2020-10-29T19:43:22:041
2174579,000000	2020-10-29T19:43:22:081
2178007,000000	2020-10-29T19:43:22:123
2182817,000000	2020-10-29T19:43:22:161
2190871,000000	2020-10-29T19:43:22:202
2195861,000000	2020-10-29T19:43:22:241
2197616,000000	2020-10-29T19:43:22:281
2199451,000000	2020-10-29T19:43:22:321
2198740,000000	2020-10-29T19:43:22:363
2197912,000000	2020-10-29T19:43:22:401
2200273,000000	2020-10-29T19:43:22:442
2204233,000000	2020-10-29T19:43:22:481
2207783,000000	2020-10-29T19:43:22:521
2213238,000000	2020-10-29T19:43:22:561
2218719,000000	2020-10-29T19:43:22:605
2225310,000000	2020-10-29T19:43:22:641
2227239,000000	2020-10-29T19:43:22:681
2230324,000000	2020-10-29T19:43:22:722
2234244,000000	2020-10-29T19:43:22:762
2236527,000000	2020-10-29T19:43:22:801
2238878,000000	2020-10-29T19:43:22:843
2244149,000000	2020-10-29T19:43:22:881
2251075,000000	2020-10-29T19:43:22:921
2253935,000000	2020-10-29T19:43:22:962
2258538,000000	2020-10-29T19:43:23:001
2257351,000000	2020-10-29T19:43:23:042
2261643,000000	2020-10-29T19:43:23:083
2256174,000000	2020-10-29T19:43:23:122
2260305,000000	2020-10-29T19:43:23:162
2259971,000000	2020-10-29T19:43:23:202
2258525,000000	2020-10-29T19:43:23:242
2262042,000000	2020-10-29T19:43:23:282
2265063,000000	2020-10-29T19:43:23:323
2266429,000000	2020-10-29T19:43:23:362
2268277,000000	2020-10-29T19:43:23:402
2271116,000000	2020-10-29T19:43:23:443
2267554,000000	2020-10-29T19:43:23:482
2255855,000000	2020-10-29T19:43:23:522
2242630,000000	2020-10-29T19:43:23:566
2240974,000000	2020-10-29T19:43:23:604
2233710,000000	2020-10-29T19:43:23:643
2231583,000000	2020-10-29T19:43:23:683
2242841,000000	2020-10-29T19:43:23:722
2252955,000000	2020-10-29T19:43:23:763
2272428,000000	2020-10-29T19:43:23:804
2269902,000000	2020-10-29T19:43:23:843
2297455,000000	2020-10-29T19:43:23:883
2320092,000000	2020-10-29T19:43:23:923
2322631,000000	2020-10-29T19:43:23:962
2331624,000000	2020-10-29T19:43:24:003
2335231,000000	2020-10-29T19:43:24:045
2339150,000000	2020-10-29T19:43:24:083
2340081,000000	2020-10-29T19:43:24:123
2344783,000000	2020-10-29T19:43:24:163
2346326,000000	2020-10-29T19:43:24:203
2344644,000000	2020-10-29T19:43:24:243
2345901,000000	2020-10-29T19:43:24:283
2347173,000000	2020-10-29T19:43:24:323
2353678,000000	2020-10-29T19:43:24:364
2358099,000000	2020-10-29T19:43:24:403
2357290,000000	2020-10-29T19:43:24:443
2361265,000000	2020-10-29T19:43:24:483
2363230,000000	2020-10-29T19:43:24:524
2371235,000000	2020-10-29T19:43:24:563
2377442,000000	2020-10-29T19:43:24:603
2388152,000000	2020-10-29T19:43:24:644
2399042,000000	2020-10-29T19:43:24:684
2412986,000000	2020-10-29T19:43:24:723
2426389,000000	2020-10-29T19:43:24:765
2432070,000000	2020-10-29T19:43:24:805
2441946,000000	2020-10-29T19:43:24:844
2448625,000000	2020-10-29T19:43:24:883
2453297,000000	2020-10-29T19:43:24:923
2445014,000000	2020-10-29T19:43:24:964
2419413,000000	2020-10-29T19:43:25:005
2393338,000000	2020-10-29T19:43:25:043
2369497,000000	2020-10-29T19:43:25:084
2335736,000000	2020-10-29T19:43:25:124
2296839,000000	2020-10-29T19:43:25:164
2271959,000000	2020-10-29T19:43:25:204
2250613,000000	2020-10-29T19:43:25:245
2243669,000000	2020-10-29T19:43:25:284
2236425,000000	2020-10-29T19:43:25:324
2226989,000000	2020-10-29T19:43:25:365
2228317,000000	2020-10-29T19:43:25:404
2228105,000000	2020-10-29T19:43:25:444
2223991,000000	2020-10-29T19:43:25:485
2215269,000000	2020-10-29T19:43:25:524
2201471,000000	2020-10-29T19:43:25:565
2190300,000000	2020-10-29T19:43:25:604
2176828,000000	2020-10-29T19:43:25:644
2160395,000000	2020-10-29T19:43:25:684
2146068,000000	2020-10-29T19:43:25:725
2134205,000000	2020-10-29T19:43:25:764
2114324,000000	2020-10-29T19:43:25:805
2082435,000000	2020-10-29T19:43:25:845
2057597,000000	2020-10-29T19:43:25:885
2043922,000000	2020-10-29T19:43:25:924
2047841,000000	2020-10-29T19:43:25:967
2064879,000000	2020-10-29T19:43:26:004
2085010,000000	2020-10-29T19:43:26:045
2104061,000000	2020-10-29T19:43:26:085
2121467,000000	2020-10-29T19:43:26:124
2140149,000000	2020-10-29T19:43:26:190
2156998,000000	2020-10-29T19:43:26:206
2166027,000000	2020-10-29T19:43:26:245
2176035,000000	2020-10-29T19:43:26:285
2184999,000000	2020-10-29T19:43:26:325
2189949,000000	2020-10-29T19:43:26:365
2183550,000000	2020-10-29T19:43:26:405
2156822,000000	2020-10-29T19:43:26:447
2112760,000000	2020-10-29T19:43:26:485
2063556,000000	2020-10-29T19:43:26:526
2010962,000000	2020-10-29T19:43:26:565
1957439,000000	2020-10-29T19:43:26:607
1924343,000000	2020-10-29T19:43:26:646
1923000,000000	2020-10-29T19:43:26:687
1934801,000000	2020-10-29T19:43:26:725
1942444,000000	2020-10-29T19:43:26:766
1954190,000000	2020-10-29T19:43:26:805
1967953,000000	2020-10-29T19:43:26:846
1975289,000000	2020-10-29T19:43:26:885
1976248,000000	2020-10-29T19:43:26:927
1982425,000000	2020-10-29T19:43:26:966
1973299,000000	2020-10-29T19:43:27:005
1955998,000000	2020-10-29T19:43:27:047
1925103,000000	2020-10-29T19:43:27:086
1876434,000000	2020-10-29T19:43:27:126
1823724,000000	2020-10-29T19:43:27:167
1781637,000000	2020-10-29T19:43:27:206
1754093,000000	2020-10-29T19:43:27:246
1727627,000000	2020-10-29T19:43:27:287
1705287,000000	2020-10-29T19:43:27:326
1685304,000000	2020-10-29T19:43:27:366
1663906,000000	2020-10-29T19:43:27:407
1644297,000000	2020-10-29T19:43:27:446
1626793,000000	2020-10-29T19:43:27:486
1615955,000000	2020-10-29T19:43:27:526
1615074,000000	2020-10-29T19:43:27:566
1608603,000000	2020-10-29T19:43:27:606
1607996,000000	2020-10-29T19:43:27:648
1595793,000000	2020-10-29T19:43:27:687
1552753,000000	2020-10-29T19:43:27:726
1505606,000000	2020-10-29T19:43:27:767
1473443,000000	2020-10-29T19:43:27:806
1461679,000000	2020-10-29T19:43:27:847
1457429,000000	2020-10-29T19:43:27:888
1445720,000000	2020-10-29T19:43:27:926
1428771,000000	2020-10-29T19:43:27:967
1410046,000000	2020-10-29T19:43:28:007
1392757,000000	2020-10-29T19:43:28:047
1380867,000000	2020-10-29T19:43:28:086
1374275,000000	2020-10-29T19:43:28:128
1371682,000000	2020-10-29T19:43:28:167
1371936,000000	2020-10-29T19:43:28:207
1374663,000000	2020-10-29T19:43:28:247
1373145,000000	2020-10-29T19:43:28:287
1360798,000000	2020-10-29T19:43:28:327
1348794,000000	2020-10-29T19:43:28:369
1341102,000000	2020-10-29T19:43:28:407
1340916,000000	2020-10-29T19:43:28:448
1350404,000000	2020-10-29T19:43:28:487
1352312,000000	2020-10-29T19:43:28:527
1344258,000000	2020-10-29T19:43:28:567
1332478,000000	2020-10-29T19:43:28:609
1322340,000000	2020-10-29T19:43:28:648
1315868,000000	2020-10-29T19:43:28:687
1313478,000000	2020-10-29T19:43:28:727
1314702,000000	2020-10-29T19:43:28:767
1322180,000000	2020-10-29T19:43:28:808
1332839,000000	2020-10-29T19:43:28:850
1342911,000000	2020-10-29T19:43:28:887
1330982,000000	2020-10-29T19:43:28:927
1325710,000000	2020-10-29T19:43:28:968
1343767,000000	2020-10-29T19:43:29:007
1369345,000000	2020-10-29T19:43:29:048
1385546,000000	2020-10-29T19:43:29:089
1402242,000000	2020-10-29T19:43:29:127
1427220,000000	2020-10-29T19:43:29:168
1457997,000000	2020-10-29T19:43:29:208
1493899,000000	2020-10-29T19:43:29:248
1532783,000000	2020-10-29T19:43:29:288
1569000,000000	2020-10-29T19:43:29:329
1596661,000000	2020-10-29T19:43:29:368
1619469,000000	2020-10-29T19:43:29:408
1633719,000000	2020-10-29T19:43:29:447
1636963,000000	2020-10-29T19:43:29:488
1634122,000000	2020-10-29T19:43:29:528
1614122,000000	2020-10-29T19:43:29:570
1574984,000000	2020-10-29T19:43:29:608
1522045,000000	2020-10-29T19:43:29:649
1490906,000000	2020-10-29T19:43:29:688
1470443,000000	2020-10-29T19:43:29:728
1454591,000000	2020-10-29T19:43:29:769
1435935,000000	2020-10-29T19:43:29:810
1420467,000000	2020-10-29T19:43:29:850
1401754,000000	2020-10-29T19:43:29:889
1392123,000000	2020-10-29T19:43:29:929
1381605,000000	2020-10-29T19:43:29:969
1372365,000000	2020-10-29T19:43:30:009
1359040,000000	2020-10-29T19:43:30:051
1347357,000000	2020-10-29T19:43:30:088
1345736,000000	2020-10-29T19:43:30:129
1329886,000000	2020-10-29T19:43:30:169
1301490,000000	2020-10-29T19:43:30:209
1281695,000000	2020-10-29T19:43:30:249
1268091,000000	2020-10-29T19:43:30:291
1266883,000000	2020-10-29T19:43:30:329
1269538,000000	2020-10-29T19:43:30:369
1270415,000000	2020-10-29T19:43:30:409
1273587,000000	2020-10-29T19:43:30:449
1277469,000000	2020-10-29T19:43:30:489
1285507,000000	2020-10-29T19:43:30:531
1297705,000000	2020-10-29T19:43:30:569
1312580,000000	2020-10-29T19:43:30:609
1321081,000000	2020-10-29T19:43:30:650
1329025,000000	2020-10-29T19:43:30:689
1340624,000000	2020-10-29T19:43:30:729
1342590,000000	2020-10-29T19:43:30:772
1326724,000000	2020-10-29T19:43:30:809
1313692,000000	2020-10-29T19:43:30:849
1307419,000000	2020-10-29T19:43:30:889
1305679,000000	2020-10-29T19:43:30:930
1317887,000000	2020-10-29T19:43:30:970
1348363,000000	2020-10-29T19:43:31:011
1405588,000000	2020-10-29T19:43:31:051
1405588,000000	2020-10-29T19:43:31:089
1464047,000000	2020-10-29T19:43:31:131
1500346,000000	2020-10-29T19:43:31:176
1534340,000000	2020-10-29T19:43:31:211
1563033,000000	2020-10-29T19:43:31:252
1567029,000000	2020-10-29T19:43:31:290
1563753,000000	2020-10-29T19:43:31:330
1556556,000000	2020-10-29T19:43:31:371
1548125,000000	2020-10-29T19:43:31:410
1527301,000000	2020-10-29T19:43:31:450
1507693,000000	2020-10-29T19:43:31:492
1508135,000000	2020-10-29T19:43:31:530
1545795,000000	2020-10-29T19:43:31:570
1585751,000000	2020-10-29T19:43:31:610
1620327,000000	2020-10-29T19:43:31:650
1644397,000000	2020-10-29T19:43:31:690
1664755,000000	2020-10-29T19:43:31:731
1684828,000000	2020-10-29T19:43:31:770
1702909,000000	2020-10-29T19:43:31:812
1722610,000000	2020-10-29T19:43:31:851
1745559,000000	2020-10-29T19:43:31:890
1763602,000000	2020-10-29T19:43:31:930
1772480,000000	2020-10-29T19:43:31:972
1777383,000000	2020-10-29T19:43:32:010
1777436,000000	2020-10-29T19:43:32:051
1783543,000000	2020-10-29T19:43:32:090
1793669,000000	2020-10-29T19:43:32:130
1804906,000000	2020-10-29T19:43:32:171
1820381,000000	2020-10-29T19:43:32:213
1837540,000000	2020-10-29T19:43:32:251
1846641,000000	2020-10-29T19:43:32:290
1856201,000000	2020-10-29T19:43:32:331
1879077,000000	2020-10-29T19:43:32:371
1899690,000000	2020-10-29T19:43:32:410
1920800,000000	2020-10-29T19:43:32:452
1940927,000000	2020-10-29T19:43:32:490
1955296,000000	2020-10-29T19:43:32:531
1975641,000000	2020-10-29T19:43:32:571
1995511,000000	2020-10-29T19:43:32:611
2016182,000000	2020-10-29T19:43:32:651
2039229,000000	2020-10-29T19:43:32:693
2062145,000000	2020-10-29T19:43:32:730
2084234,000000	2020-10-29T19:43:32:771
2111636,000000	2020-10-29T19:43:32:811
2141949,000000	2020-10-29T19:43:32:851
2163324,000000	2020-10-29T19:43:32:891
2187042,000000	2020-10-29T19:43:32:934
2210780,000000	2020-10-29T19:43:32:972
2229717,000000	2020-10-29T19:43:33:011
2249527,000000	2020-10-29T19:43:33:051
2265706,000000	2020-10-29T19:43:33:091
2279290,000000	2020-10-29T19:43:33:131
2294430,000000	2020-10-29T19:43:33:173
2311166,000000	2020-10-29T19:43:33:212
2327972,000000	2020-10-29T19:43:33:252
2341486,000000	2020-10-29T19:43:33:291
2351109,000000	2020-10-29T19:43:33:331
2355308,000000	2020-10-29T19:43:33:372
2359299,000000	2020-10-29T19:43:33:413
2361923,000000	2020-10-29T19:43:33:452
2358948,000000	2020-10-29T19:43:33:491
2356751,000000	2020-10-29T19:43:33:532
2353246,000000	2020-10-29T19:43:33:572
2352711,000000	2020-10-29T19:43:33:612
2351761,000000	2020-10-29T19:43:33:654
2350440,000000	2020-10-29T19:43:33:692
2348200,000000	2020-10-29T19:43:33:732
2347641,000000	2020-10-29T19:43:33:772
2355598,000000	2020-10-29T19:43:33:812
2369106,000000	2020-10-29T19:43:33:852
2383847,000000	2020-10-29T19:43:33:894
2398336,000000	2020-10-29T19:43:33:932
2408489,000000	2020-10-29T19:43:33:972
2412396,000000	2020-10-29T19:43:34:012
2413017,000000	2020-10-29T19:43:34:053
2411671,000000	2020-10-29T19:43:34:092
2411101,000000	2020-10-29T19:43:34:133
2409316,000000	2020-10-29T19:43:34:172
2404296,000000	2020-10-29T19:43:34:213
2386515,000000	2020-10-29T19:43:34:253
2360853,000000	2020-10-29T19:43:34:292
2334420,000000	2020-10-29T19:43:34:333
2298905,000000	2020-10-29T19:43:34:374
2261278,000000	2020-10-29T19:43:34:412
2227988,000000	2020-10-29T19:43:34:453
2206170,000000	2020-10-29T19:43:34:493
2191211,000000	2020-10-29T19:43:34:532
2179885,000000	2020-10-29T19:43:34:573
2165032,000000	2020-10-29T19:43:34:613
2147658,000000	2020-10-29T19:43:34:653
2127534,000000	2020-10-29T19:43:34:693
2110578,000000	2020-10-29T19:43:34:732
2100668,000000	2020-10-29T19:43:34:773
2092706,000000	2020-10-29T19:43:34:817
2085124,000000	2020-10-29T19:43:34:855
2074585,000000	2020-10-29T19:43:34:892
2065112,000000	2020-10-29T19:43:34:933
2054482,000000	2020-10-29T19:43:34:973
2043950,000000	2020-10-29T19:43:35:013
2032331,000000	2020-10-29T19:43:35:053
2018941,000000	2020-10-29T19:43:35:095
2007281,000000	2020-10-29T19:43:35:132
1994749,000000	2020-10-29T19:43:35:174
1979051,000000	2020-10-29T19:43:35:214
1954746,000000	2020-10-29T19:43:35:254
1921179,000000	2020-10-29T19:43:35:293
1886162,000000	2020-10-29T19:43:35:335
1858942,000000	2020-10-29T19:43:35:374
1834339,000000	2020-10-29T19:43:35:415
1811770,000000	2020-10-29T19:43:35:454
1789643,000000	2020-10-29T19:43:35:494
1772070,000000	2020-10-29T19:43:35:533
1756425,000000	2020-10-29T19:43:35:576
1742847,000000	2020-10-29T19:43:35:614
1731335,000000	2020-10-29T19:43:35:654
1721050,000000	2020-10-29T19:43:35:694
1714119,000000	2020-10-29T19:43:35:734
1712270,000000	2020-10-29T19:43:35:775
1713674,000000	2020-10-29T19:43:35:816
1721725,000000	2020-10-29T19:43:35:854
1737439,000000	2020-10-29T19:43:35:896
1748009,000000	2020-10-29T19:43:35:934
1737109,000000	2020-10-29T19:43:35:975
1711154,000000	2020-10-29T19:43:36:015
1692356,000000	2020-10-29T19:43:36:056
1697066,000000	2020-10-29T19:43:36:094
1717532,000000	2020-10-29T19:43:36:135
1728024,000000	2020-10-29T19:43:36:201
1738280,000000	2020-10-29T19:43:36:215
1764309,000000	2020-10-29T19:43:36:255
1799281,000000	2020-10-29T19:43:36:296
1832026,000000	2020-10-29T19:43:36:334
1852949,000000	2020-10-29T19:43:36:376
1883202,000000	2020-10-29T19:43:36:414
1912243,000000	2020-10-29T19:43:36:455
1937503,000000	2020-10-29T19:43:36:495
1958587,000000	2020-10-29T19:43:36:536
1978632,000000	2020-10-29T19:43:36:575
1994664,000000	2020-10-29T19:43:36:615
2005365,000000	2020-10-29T19:43:36:655
2016466,000000	2020-10-29T19:43:36:695
2024181,000000	2020-10-29T19:43:36:735
2019529,000000	2020-10-29T19:43:36:777
2018245,000000	2020-10-29T19:43:36:815
2020313,000000	2020-10-29T19:43:36:855
2023892,000000	2020-10-29T19:43:36:895
2027834,000000	2020-10-29T19:43:36:936
2031952,000000	2020-10-29T19:43:36:976
2034412,000000	2020-10-29T19:43:37:017
2039568,000000	2020-10-29T19:43:37:056
2040223,000000	2020-10-29T19:43:37:095
2035202,000000	2020-10-29T19:43:37:136
2030480,000000	2020-10-29T19:43:37:176
2026602,000000	2020-10-29T19:43:37:216
2026386,000000	2020-10-29T19:43:37:258
2025645,000000	2020-10-29T19:43:37:295
2025403,000000	2020-10-29T19:43:37:335
2026798,000000	2020-10-29T19:43:37:376
2029814,000000	2020-10-29T19:43:37:416
2034591,000000	2020-10-29T19:43:37:456
2040965,000000	2020-10-29T19:43:37:497
2051576,000000	2020-10-29T19:43:37:536
2071692,000000	2020-10-29T19:43:37:576
2092570,000000	2020-10-29T19:43:37:616
2109688,000000	2020-10-29T19:43:37:656
2128047,000000	2020-10-29T19:43:37:696
2148525,000000	2020-10-29T19:43:37:738
2168376,000000	2020-10-29T19:43:37:776
2184179,000000	2020-10-29T19:43:37:816
2192236,000000	2020-10-29T19:43:37:857
2192838,000000	2020-10-29T19:43:37:896
2190349,000000	2020-10-29T19:43:37:936
2194490,000000	2020-10-29T19:43:37:979
2204069,000000	2020-10-29T19:43:38:016
2214527,000000	2020-10-29T19:43:38:057
2230804,000000	2020-10-29T19:43:38:097
2248581,000000	2020-10-29T19:43:38:136
2266305,000000	2020-10-29T19:43:38:177
2276389,000000	2020-10-29T19:43:38:219
2279832,000000	2020-10-29T19:43:38:257
2286290,000000	2020-10-29T19:43:38:297
2290406,000000	2020-10-29T19:43:38:337
2293924,000000	2020-10-29T19:43:38:377
2302528,000000	2020-10-29T19:43:38:417
2312675,000000	2020-10-29T19:43:38:458
2319081,000000	2020-10-29T19:43:38:497
2325020,000000	2020-10-29T19:43:38:537
2326535,000000	2020-10-29T19:43:38:577
2323531,000000	2020-10-29T19:43:38:617
2305545,000000	2020-10-29T19:43:38:657
2246856,000000	2020-10-29T19:43:38:697
2212201,000000	2020-10-29T19:43:38:737
2216318,000000	2020-10-29T19:43:38:778
2217452,000000	2020-10-29T19:43:38:817
2213044,000000	2020-10-29T19:43:38:858
2218448,000000	2020-10-29T19:43:38:897
2233552,000000	2020-10-29T19:43:38:939
2246640,000000	2020-10-29T19:43:38:978
2251111,000000	2020-10-29T19:43:39:017
2231471,000000	2020-10-29T19:43:39:058
2202064,000000	2020-10-29T19:43:39:098
2187650,000000	2020-10-29T19:43:39:137
2172037,000000	2020-10-29T19:43:39:179
2153936,000000	2020-10-29T19:43:39:218
2140878,000000	2020-10-29T19:43:39:260
2126482,000000	2020-10-29T19:43:39:298
2109429,000000	2020-10-29T19:43:39:337
2086143,000000	2020-10-29T19:43:39:378
2064006,000000	2020-10-29T19:43:39:419
2040549,000000	2020-10-29T19:43:39:458
2016695,000000	2020-10-29T19:43:39:498
1990632,000000	2020-10-29T19:43:39:538
1957210,000000	2020-10-29T19:43:39:578
1930262,000000	2020-10-29T19:43:39:618
1899687,000000	2020-10-29T19:43:39:660
1864814,000000	2020-10-29T19:43:39:698
1828901,000000	2020-10-29T19:43:39:738
1800485,000000	2020-10-29T19:43:39:778
1779819,000000	2020-10-29T19:43:39:818
1767866,000000	2020-10-29T19:43:39:859
1763608,000000	2020-10-29T19:43:39:900
1771099,000000	2020-10-29T19:43:39:938
1793688,000000	2020-10-29T19:43:39:979
1805693,000000	2020-10-29T19:43:40:018
1807966,000000	2020-10-29T19:43:40:059
1795562,000000	2020-10-29T19:43:40:098
1794996,000000	2020-10-29T19:43:40:140
1795797,000000	2020-10-29T19:43:40:179
1800390,000000	2020-10-29T19:43:40:219
1804819,000000	2020-10-29T19:43:40:259
1796977,000000	2020-10-29T19:43:40:298
1785280,000000	2020-10-29T19:43:40:338
1774333,000000	2020-10-29T19:43:40:379
1758797,000000	2020-10-29T19:43:40:418
1744993,000000	2020-10-29T19:43:40:459
1736783,000000	2020-10-29T19:43:40:499
1737245,000000	2020-10-29T19:43:40:539
1739761,000000	2020-10-29T19:43:40:579
1746609,000000	2020-10-29T19:43:40:621
1752302,000000	2020-10-29T19:43:40:659
1746327,000000	2020-10-29T19:43:40:699
1732177,000000	2020-10-29T19:43:40:739
1717510,000000	2020-10-29T19:43:40:779
1708162,000000	2020-10-29T19:43:40:819
1706183,000000	2020-10-29T19:43:40:861
1708878,000000	2020-10-29T19:43:40:899
1722460,000000	2020-10-29T19:43:40:939
1737449,000000	2020-10-29T19:43:40:979
1726441,000000	2020-10-29T19:43:41:019
1737213,000000	2020-10-29T19:43:41:060
1750209,000000	2020-10-29T19:43:41:115
1754896,000000	2020-10-29T19:43:41:209
1756588,000000	2020-10-29T19:43:41:210
1775918,000000	2020-10-29T19:43:41:219
1792922,000000	2020-10-29T19:43:41:260
1804028,000000	2020-10-29T19:43:41:299
1795757,000000	2020-10-29T19:43:41:341
1777879,000000	2020-10-29T19:43:41:380
1755103,000000	2020-10-29T19:43:41:419
1324435,000000	2020-10-29T19:44:02:150
1350047,000000	2020-10-29T19:44:02:152
1360601,000000	2020-10-29T19:44:02:469
1363773,000000	2020-10-29T19:44:02:471
1361583,000000	2020-10-29T19:44:02:497
1350055,000000	2020-10-29T19:44:02:498
1350136,000000	2020-10-29T19:44:02:499
1355860,000000	2020-10-29T19:44:02:500
1393713,000000	2020-10-29T19:44:02:500
1428369,000000	2020-10-29T19:44:02:501
1468042,000000	2020-10-29T19:44:02:503
1506365,000000	2020-10-29T19:44:02:576
1547329,000000	2020-10-29T19:44:02:577
1569317,000000	2020-10-29T19:44:02:589
1602955,000000	2020-10-29T19:44:02:619
1635711,000000	2020-10-29T19:44:02:787
1640405,000000	2020-10-29T19:44:02:788
1653323,000000	2020-10-29T19:44:02:788
1663422,000000	2020-10-29T19:44:02:789
1671725,000000	2020-10-29T19:44:02:815
1680571,000000	2020-10-29T19:44:02:867
1682453,000000	2020-10-29T19:44:02:894
1677385,000000	2020-10-29T19:44:02:938
1679010,000000	2020-10-29T19:44:02:981
1675122,000000	2020-10-29T19:44:03:031
1682387,000000	2020-10-29T19:44:03:065
1697299,000000	2020-10-29T19:44:03:100
1715719,000000	2020-10-29T19:44:03:134
1745079,000000	2020-10-29T19:44:03:177
1774851,000000	2020-10-29T19:44:03:238
1797652,000000	2020-10-29T19:44:03:307
1799778,000000	2020-10-29T19:44:03:307
1802625,000000	2020-10-29T19:44:03:337
1811723,000000	2020-10-29T19:44:03:381
1825632,000000	2020-10-29T19:44:03:419
1835904,000000	2020-10-29T19:44:03:469
1847051,000000	2020-10-29T19:44:03:497
1859873,000000	2020-10-29T19:44:03:539
1872875,000000	2020-10-29T19:44:03:577
1879903,000000	2020-10-29T19:44:03:617
1885518,000000	2020-10-29T19:44:03:657
1890972,000000	2020-10-29T19:44:03:697
1897113,000000	2020-10-29T19:44:03:737
1904477,000000	2020-10-29T19:44:03:779
1912724,000000	2020-10-29T19:44:03:818
1921148,000000	2020-10-29T19:44:03:857
1931237,000000	2020-10-29T19:44:03:897
1945011,000000	2020-10-29T19:44:03:937
1959034,000000	2020-10-29T19:44:03:977
1972563,000000	2020-10-29T19:44:04:020
1988898,000000	2020-10-29T19:44:04:057
2007235,000000	2020-10-29T19:44:04:097
2021248,000000	2020-10-29T19:44:04:137
2033145,000000	2020-10-29T19:44:04:178
2043511,000000	2020-10-29T19:44:04:217
2051928,000000	2020-10-29T19:44:04:260
2060061,000000	2020-10-29T19:44:04:297
2067953,000000	2020-10-29T19:44:04:337
2077547,000000	2020-10-29T19:44:04:378
2090210,000000	2020-10-29T19:44:04:418
2103946,000000	2020-10-29T19:44:04:458
2116661,000000	2020-10-29T19:44:04:499
2129943,000000	2020-10-29T19:44:04:537
2142897,000000	2020-10-29T19:44:04:578
2152244,000000	2020-10-29T19:44:04:618
2156626,000000	2020-10-29T19:44:04:658
2159628,000000	2020-10-29T19:44:04:698
2133096,000000	2020-10-29T19:44:04:737
2095749,000000	2020-10-29T19:44:05:053
2065555,000000	2020-10-29T19:44:05:070
2057566,000000	2020-10-29T19:44:05:070
2053289,000000	2020-10-29T19:44:05:073
2056174,000000	2020-10-29T19:44:05:073
2061932,000000	2020-10-29T19:44:05:074
2064860,000000	2020-10-29T19:44:05:075
2046822,000000	2020-10-29T19:44:05:081
2059205,000000	2020-10-29T19:44:05:096
2053711,000000	2020-10-29T19:44:05:151
2044224,000000	2020-10-29T19:44:05:203
2041412,000000	2020-10-29T19:44:05:220
2047947,000000	2020-10-29T19:44:05:273
2052153,000000	2020-10-29T19:44:05:370
2056803,000000	2020-10-29T19:44:05:371
2054848,000000	2020-10-29T19:44:05:377
2051923,000000	2020-10-29T19:44:05:416
2054700,000000	2020-10-29T19:44:05:460
2061039,000000	2020-10-29T19:44:05:499
2067157,000000	2020-10-29T19:44:05:541
2072071,000000	2020-10-29T19:44:05:581
2075797,000000	2020-10-29T19:44:05:618
2073682,000000	2020-10-29T19:44:05:659
2070443,000000	2020-10-29T19:44:05:700
2069804,000000	2020-10-29T19:44:05:739
2068847,000000	2020-10-29T19:44:05:783
2070285,000000	2020-10-29T19:44:05:820
2071507,000000	2020-10-29T19:44:05:885
2070754,000000	2020-10-29T19:44:05:920
2068439,000000	2020-10-29T19:44:05:961
2065721,000000	2020-10-29T19:44:06:051
2060222,000000	2020-10-29T19:44:06:052
2065364,000000	2020-10-29T19:44:06:058
2076620,000000	2020-10-29T19:44:06:098
2079790,000000	2020-10-29T19:44:06:138
2085247,000000	2020-10-29T19:44:06:185
2087249,000000	2020-10-29T19:44:06:219
2084637,000000	2020-10-29T19:44:06:263
2084485,000000	2020-10-29T19:44:06:300
2087860,000000	2020-10-29T19:44:06:346
2098119,000000	2020-10-29T19:44:06:381
2093447,000000	2020-10-29T19:44:06:424
2097724,000000	2020-10-29T19:44:06:464
2104949,000000	2020-10-29T19:44:06:501
2106573,000000	2020-10-29T19:44:06:540
2111100,000000	2020-10-29T19:44:06:581
2109508,000000	2020-10-29T19:44:06:620
2116519,000000	2020-10-29T19:44:06:663
2114645,000000	2020-10-29T19:44:06:702
2111082,000000	2020-10-29T19:44:06:754
2110108,000000	2020-10-29T19:44:06:782
2109775,000000	2020-10-29T19:44:06:824
2109600,000000	2020-10-29T19:44:07:077
2109790,000000	2020-10-29T19:44:07:100
2108560,000000	2020-10-29T19:44:07:101
2107275,000000	2020-10-29T19:44:07:103
2104989,000000	2020-10-29T19:44:07:105
2102555,000000	2020-10-29T19:44:07:105
2100980,000000	2020-10-29T19:44:07:106
2099860,000000	2020-10-29T19:44:07:167
2100344,000000	2020-10-29T19:44:07:188
2100675,000000	2020-10-29T19:44:07:222
2100096,000000	2020-10-29T19:44:07:304
2100135,000000	2020-10-29T19:44:07:305
2099706,000000	2020-10-29T19:44:07:407
2099954,000000	2020-10-29T19:44:07:503
2100123,000000	2020-10-29T19:44:07:504
2101052,000000	2020-10-29T19:44:07:505
2100123,000000	2020-10-29T19:44:07:519
2097904,000000	2020-10-29T19:44:07:539
2094457,000000	2020-10-29T19:44:07:579
2093307,000000	2020-10-29T19:44:07:633
2091941,000000	2020-10-29T19:44:07:663
2090359,000000	2020-10-29T19:44:07:699
2090315,000000	2020-10-29T19:44:07:739
2089586,000000	2020-10-29T19:44:07:779
2088051,000000	2020-10-29T19:44:07:819
2087420,000000	2020-10-29T19:44:07:864
2087119,000000	2020-10-29T19:44:07:901
2087524,000000	2020-10-29T19:44:07:943
2087750,000000	2020-10-29T19:44:07:981
2087455,000000	2020-10-29T19:44:08:021
2085304,000000	2020-10-29T19:44:08:062
2082663,000000	2020-10-29T19:44:08:104
2080946,000000	2020-10-29T19:44:08:141
2079826,000000	2020-10-29T19:44:08:182
2079740,000000	2020-10-29T19:44:08:221
2079978,000000	2020-10-29T19:44:08:262
2079354,000000	2020-10-29T19:44:08:302
2079055,000000	2020-10-29T19:44:08:343
2078591,000000	2020-10-29T19:44:08:381
2079070,000000	2020-10-29T19:44:08:422
2079246,000000	2020-10-29T19:44:08:464
2080044,000000	2020-10-29T19:44:08:502
2079607,000000	2020-10-29T19:44:08:542
2077519,000000	2020-10-29T19:44:08:583
2076202,000000	2020-10-29T19:44:08:622
2075258,000000	2020-10-29T19:44:08:664
2073076,000000	2020-10-29T19:44:08:743
2072256,000000	2020-10-29T19:44:08:829
2071506,000000	2020-10-29T19:44:08:830
2071119,000000	2020-10-29T19:44:08:831
2070991,000000	2020-10-29T19:44:09:038
2070876,000000	2020-10-29T19:44:09:053
2070780,000000	2020-10-29T19:44:09:055
2070528,000000	2020-10-29T19:44:09:056
2071200,000000	2020-10-29T19:44:09:056
2071523,000000	2020-10-29T19:44:09:063
2069006,000000	2020-10-29T19:44:09:100
2066897,000000	2020-10-29T19:44:09:141
2064674,000000	2020-10-29T19:44:09:182
2061943,000000	2020-10-29T19:44:09:220
2061211,000000	2020-10-29T19:44:09:268
2060716,000000	2020-10-29T19:44:09:301
2060689,000000	2020-10-29T19:44:09:340
2060061,000000	2020-10-29T19:44:09:385
2059681,000000	2020-10-29T19:44:09:421
2059538,000000	2020-10-29T19:44:09:464
2060081,000000	2020-10-29T19:44:09:508
2061446,000000	2020-10-29T19:44:09:543
2063803,000000	2020-10-29T19:44:09:581
2065681,000000	2020-10-29T19:44:09:621
2067031,000000	2020-10-29T19:44:09:662
2067528,000000	2020-10-29T19:44:09:702
2059589,000000	2020-10-29T19:44:09:741
2057270,000000	2020-10-29T19:44:09:784
2055639,000000	2020-10-29T19:44:09:827
2054886,000000	2020-10-29T19:44:09:863
2054495,000000	2020-10-29T19:44:09:904
2053820,000000	2020-10-29T19:44:09:940
2053836,000000	2020-10-29T19:44:09:987
2053108,000000	2020-10-29T19:44:10:025
2053033,000000	2020-10-29T19:44:10:067
2053495,000000	2020-10-29T19:44:10:103
2052747,000000	2020-10-29T19:44:10:143
2049631,000000	2020-10-29T19:44:10:183
2045620,000000	2020-10-29T19:44:10:224
2043191,000000	2020-10-29T19:44:10:264
2041618,000000	2020-10-29T19:44:10:305
2040912,000000	2020-10-29T19:44:10:344
2040099,000000	2020-10-29T19:44:10:383
2038903,000000	2020-10-29T19:44:10:423
2037868,000000	2020-10-29T19:44:10:464
2037138,000000	2020-10-29T19:44:10:506
2036777,000000	2020-10-29T19:44:10:543
2036288,000000	2020-10-29T19:44:10:583
2035895,000000	2020-10-29T19:44:10:624
2035099,000000	2020-10-29T19:44:10:665
2031343,000000	2020-10-29T19:44:10:704
2034570,000000	2020-10-29T19:44:10:748
2032821,000000	2020-10-29T19:44:10:784
2023781,000000	2020-10-29T19:44:10:822
2022624,000000	2020-10-29T19:44:10:864
