x	y	z	ts
4,410000	9,660000	-2,450000	2020-10-29T19:48:34:581
4,410000	9,660000	-2,450000	2020-10-29T19:48:34:581
-12,460000	-35,420002	4,550000	2020-10-29T19:48:34:582
-3,150000	-1,120000	1,750000	2020-10-29T19:48:34:582
-3,010000	2,030000	1,400000	2020-10-29T19:48:34:590
-3,430000	1,820000	1,680000	2020-10-29T19:48:34:607
-3,780000	2,170000	0,630000	2020-10-29T19:48:34:628
-2,240000	4,970000	0,280000	2020-10-29T19:48:34:647
-2,450000	5,460000	0,140000	2020-10-29T19:48:34:668
-3,290000	5,880000	-0,840000	2020-10-29T19:48:34:687
-3,640000	6,650000	-0,840000	2020-10-29T19:48:34:708
-5,670000	6,580000	-0,630000	2020-10-29T19:48:34:727
-7,070000	6,790000	-0,210000	2020-10-29T19:48:34:748
-9,240000	8,890000	-0,350000	2020-10-29T19:48:34:768
-14,140000	12,110000	0,350000	2020-10-29T19:48:34:788
-22,540001	15,680000	-0,560000	2020-10-29T19:48:34:807
-29,260000	24,150000	0,350000	2020-10-29T19:48:34:828
-40,459999	36,400002	-2,520000	2020-10-29T19:48:34:847
-71,889999	43,119999	-12,810000	2020-10-29T19:48:34:868
-121,169998	31,290001	5,670000	2020-10-29T19:48:34:887
-160,020004	14,700000	-27,440001	2020-10-29T19:48:34:908
-178,990005	8,750000	-27,299999	2020-10-29T19:48:34:927
-192,570007	14,770000	-26,880001	2020-10-29T19:48:34:948
-202,160004	23,030001	-19,670000	2020-10-29T19:48:34:968
-210,210007	30,170000	-8,330000	2020-10-29T19:48:34:988
-215,809998	37,939999	6,300000	2020-10-29T19:48:35:008
-215,949997	46,970001	23,799999	2020-10-29T19:48:35:028
-214,550003	57,610001	45,500000	2020-10-29T19:48:35:047
-218,470001	70,139999	70,489998	2020-10-29T19:48:35:069
-229,600006	83,790001	96,669998	2020-10-29T19:48:35:087
-249,199997	97,650002	122,360001	2020-10-29T19:48:35:108
-293,299988	116,410004	146,160004	2020-10-29T19:48:35:127
-356,230011	137,410004	170,589996	2020-10-29T19:48:35:148
-412,160004	150,009995	195,300003	2020-10-29T19:48:35:167
-443,239990	154,350006	212,660004	2020-10-29T19:48:35:188
-406,140015	146,720001	227,290009	2020-10-29T19:48:35:207
-284,829987	114,309998	256,619995	2020-10-29T19:48:35:228
-125,020004	85,050003	285,390015	2020-10-29T19:48:35:248
22,400000	76,930000	304,220001	2020-10-29T19:48:35:269
127,470001	100,660004	305,339996	2020-10-29T19:48:35:288
170,520004	143,080002	293,579987	2020-10-29T19:48:35:308
144,970001	190,610001	275,940002	2020-10-29T19:48:35:328
44,450001	240,169998	245,770004	2020-10-29T19:48:35:348
-133,419998	292,529999	196,770004	2020-10-29T19:48:35:368
-311,290009	320,809998	149,520004	2020-10-29T19:48:35:392
-420,630005	303,239990	113,330002	2020-10-29T19:48:35:486
-473,269989	259,700012	91,349998	2020-10-29T19:48:35:488
-448,839996	215,529999	97,160004	2020-10-29T19:48:35:488
-334,459991	163,449997	99,470001	2020-10-29T19:48:35:489
-173,320007	126,209999	95,690002	2020-10-29T19:48:35:489
7,770000	112,770004	93,940002	2020-10-29T19:48:35:511
125,020004	101,989998	68,110001	2020-10-29T19:48:35:527
144,270004	81,900002	26,880001	2020-10-29T19:48:35:549
84,629997	56,840000	17,710001	2020-10-29T19:48:35:568
-21,700001	48,090000	25,760000	2020-10-29T19:48:35:588
-105,139999	52,080002	31,990000	2020-10-29T19:48:35:608
-133,350006	43,610001	32,060001	2020-10-29T19:48:35:629
-112,910004	27,930000	33,320000	2020-10-29T19:48:35:648
-51,240002	19,320000	37,799999	2020-10-29T19:48:35:670
35,139999	2,170000	39,549999	2020-10-29T19:48:35:688
124,739998	-19,809999	31,150000	2020-10-29T19:48:35:709
253,960007	-36,820000	25,830000	2020-10-29T19:48:35:729
298,690002	-59,010002	17,360001	2020-10-29T19:48:35:759
296,519989	-68,110001	4,410000	2020-10-29T19:48:35:773
258,720001	-79,029999	-11,760000	2020-10-29T19:48:35:790
204,889999	-90,510002	-27,580000	2020-10-29T19:48:35:808
147,910004	-106,750000	-43,400002	2020-10-29T19:48:35:828
92,190002	-124,320000	-60,970001	2020-10-29T19:48:35:848
42,070000	-138,250000	-79,870003	2020-10-29T19:48:35:870
-5,180000	-145,809998	-100,169998	2020-10-29T19:48:35:888
-50,330002	-146,369995	-121,870003	2020-10-29T19:48:35:910
-87,360001	-140,979996	-144,410004	2020-10-29T19:48:35:932
-115,010002	-130,550003	-163,520004	2020-10-29T19:48:35:950
-135,029999	-117,949997	-176,539993	2020-10-29T19:48:35:979
-145,740005	-108,989998	-185,710007	2020-10-29T19:48:35:991
-143,570007	-97,790001	-189,910004	2020-10-29T19:48:36:028
-127,470001	-76,860001	-184,869995	2020-10-29T19:48:36:085
-100,169998	-51,869999	-172,690002	2020-10-29T19:48:36:085
-65,800003	-30,240000	-158,690002	2020-10-29T19:48:36:085
-28,000000	-13,580000	-143,289993	2020-10-29T19:48:36:097
7,420000	-0,700000	-126,559998	2020-10-29T19:48:36:109
33,810001	10,500000	-110,250000	2020-10-29T19:48:36:129
49,980000	23,240000	-94,849998	2020-10-29T19:48:36:150
63,420002	36,400002	-76,090004	2020-10-29T19:48:36:169
75,459999	48,020000	-53,830002	2020-10-29T19:48:36:191
85,540001	57,119999	-29,750000	2020-10-29T19:48:36:211
95,059998	64,260002	-4,480000	2020-10-29T19:48:36:232
105,629997	72,309998	21,420000	2020-10-29T19:48:36:250
115,360001	81,410004	45,570000	2020-10-29T19:48:36:273
126,279999	91,419998	65,309998	2020-10-29T19:48:36:291
141,680008	105,419998	80,919998	2020-10-29T19:48:36:312
161,910004	117,529999	92,959999	2020-10-29T19:48:36:334
188,930008	121,379997	101,080002	2020-10-29T19:48:36:353
-137,690002	107,309998	-65,870003	2020-10-29T19:48:54:138
-176,539993	117,529999	-68,949997	2020-10-29T19:48:54:140
-189,210007	123,970001	-65,099998	2020-10-29T19:48:54:142
-142,309998	122,500000	-57,889999	2020-10-29T19:48:54:154
-99,680000	119,349998	-54,250000	2020-10-29T19:48:54:179
-87,709999	116,340004	-55,230000	2020-10-29T19:48:54:193
-91,070000	112,489998	-57,260002	2020-10-29T19:48:54:208
-101,290001	108,989998	-58,310001	2020-10-29T19:48:54:231
-92,750000	102,900002	-56,840000	2020-10-29T19:48:54:249
-61,320000	95,480003	-48,720001	2020-10-29T19:48:54:272
-57,049999	89,459999	-46,480000	2020-10-29T19:48:54:290
-99,889999	90,510002	-58,520000	2020-10-29T19:48:54:314
-96,180000	87,290001	-52,709999	2020-10-29T19:48:54:329
-98,279999	84,000000	-48,860001	2020-10-29T19:48:54:352
-104,230003	81,690002	-47,250000	2020-10-29T19:48:54:370
-104,160004	79,800003	-44,799999	2020-10-29T19:48:54:392
-102,900002	77,070000	-40,529999	2020-10-29T19:48:54:409
-103,739998	75,459999	-36,610001	2020-10-29T19:48:54:432
-106,889999	76,160004	-32,130001	2020-10-29T19:48:54:449
-111,230003	79,029999	-28,070000	2020-10-29T19:48:54:472
-121,520004	82,949997	-22,889999	2020-10-29T19:48:54:490
-129,500000	89,180000	-18,760000	2020-10-29T19:48:54:511
-131,949997	95,900002	-16,730000	2020-10-29T19:48:54:530
-127,750000	102,199997	-16,030001	2020-10-29T19:48:54:552
-116,480003	107,940002	-14,840000	2020-10-29T19:48:54:570
-104,720001	113,050003	-13,090000	2020-10-29T19:48:54:591
-94,150002	115,989998	-12,320000	2020-10-29T19:48:54:611
-83,720001	116,480003	-11,480000	2020-10-29T19:48:54:633
-68,389999	114,449997	-11,130000	2020-10-29T19:48:54:650
-61,389999	111,370003	-13,370000	2020-10-29T19:48:54:673
-59,290001	106,540001	-14,980000	2020-10-29T19:48:54:691
-56,209999	102,059998	-15,820000	2020-10-29T19:48:54:712
-56,349998	97,370003	-17,080000	2020-10-29T19:48:54:730
-56,279999	93,239998	-18,200001	2020-10-29T19:48:54:752
-54,529999	88,620003	-20,160000	2020-10-29T19:48:54:770
-49,139999	81,900002	-21,770000	2020-10-29T19:48:54:793
-43,400002	74,269997	-20,090000	2020-10-29T19:48:54:810
-53,410000	66,570000	-23,170000	2020-10-29T19:48:54:832
-60,619999	59,080002	-31,920000	2020-10-29T19:48:54:851
-57,610001	46,689999	-29,680000	2020-10-29T19:48:54:873
-58,240002	42,209999	-24,639999	2020-10-29T19:48:54:890
-75,040001	43,119999	-26,110001	2020-10-29T19:48:54:912
-89,599998	48,439999	-31,780001	2020-10-29T19:48:54:931
-85,750000	53,830002	-36,959999	2020-10-29T19:48:54:953
-70,489998	57,820000	-39,689999	2020-10-29T19:48:54:970
-55,650002	58,380001	-37,450001	2020-10-29T19:48:54:992
-53,900002	61,040001	-33,040001	2020-10-29T19:48:55:010
-50,889999	61,599998	-28,490000	2020-10-29T19:48:55:033
-41,369999	62,510002	-19,110001	2020-10-29T19:48:55:050
-41,160000	63,000000	-10,080000	2020-10-29T19:48:55:072
-53,060001	61,180000	-4,340000	2020-10-29T19:48:55:091
-64,190002	57,330002	-3,150000	2020-10-29T19:48:55:113
-62,930000	53,760002	-2,310000	2020-10-29T19:48:55:131
-49,279999	50,189999	1,260000	2020-10-29T19:48:55:153
-41,720001	46,619999	6,720000	2020-10-29T19:48:55:171
-45,220001	42,209999	4,760000	2020-10-29T19:48:55:193
-57,540001	38,849998	-6,230000	2020-10-29T19:48:55:211
-60,900002	35,209999	-1,260000	2020-10-29T19:48:55:233
-49,279999	34,580002	-0,770000	2020-10-29T19:48:55:250
-48,720001	34,650002	-3,150000	2020-10-29T19:48:55:274
-56,490002	36,610001	-7,280000	2020-10-29T19:48:55:291
-58,029999	36,470001	-9,380000	2020-10-29T19:48:55:312
-48,020000	36,330002	-9,030000	2020-10-29T19:48:55:333
-36,610001	35,209999	-10,640000	2020-10-29T19:48:55:353
-28,420000	33,459999	-11,830000	2020-10-29T19:48:55:370
-23,590000	31,150000	-13,020000	2020-10-29T19:48:55:393
-19,670000	27,860001	-12,950000	2020-10-29T19:48:55:411
-18,900000	24,430000	-10,990000	2020-10-29T19:48:55:434
-20,719999	26,040001	-10,570000	2020-10-29T19:48:55:451
-18,059999	28,070000	-12,390000	2020-10-29T19:48:55:473
-28,350000	27,370001	-11,270000	2020-10-29T19:48:55:492
-37,939999	32,410000	-10,010000	2020-10-29T19:48:55:513
-25,760000	35,139999	-8,610000	2020-10-29T19:48:55:531
-9,870000	37,310001	-6,300000	2020-10-29T19:48:55:553
-7,980000	41,020000	-8,960000	2020-10-29T19:48:55:573
-16,030001	41,230000	-11,060000	2020-10-29T19:48:55:594
-23,100000	40,389999	-13,580000	2020-10-29T19:48:55:610
-22,889999	40,670002	-14,770000	2020-10-29T19:48:55:633
-23,799999	42,209999	-19,250000	2020-10-29T19:48:55:651
-29,049999	41,020000	-20,370001	2020-10-29T19:48:55:674
-36,189999	40,180000	-21,980000	2020-10-29T19:48:55:691
-40,529999	38,360001	-18,900000	2020-10-29T19:48:55:713
-44,590000	36,049999	-15,960000	2020-10-29T19:48:55:730
-37,799999	35,209999	-11,690000	2020-10-29T19:48:55:754
-20,090000	33,389999	-8,050000	2020-10-29T19:48:55:771
-10,920000	31,219999	-7,070000	2020-10-29T19:48:55:793
-9,660000	29,540001	-5,250000	2020-10-29T19:48:55:811
-29,820000	28,490000	-3,430000	2020-10-29T19:48:55:834
-59,150002	29,960001	-4,060000	2020-10-29T19:48:55:850
-71,400002	31,500000	0,070000	2020-10-29T19:48:55:873
-73,989998	34,439999	5,040000	2020-10-29T19:48:55:891
-80,849998	39,130001	8,050000	2020-10-29T19:48:55:914
-84,209999	41,020000	14,070000	2020-10-29T19:48:55:931
-81,970001	42,209999	16,309999	2020-10-29T19:48:55:953
-73,709999	43,889999	16,870001	2020-10-29T19:48:55:971
-60,549999	42,279999	17,010000	2020-10-29T19:48:55:994
-52,290001	37,520000	18,129999	2020-10-29T19:48:56:013
-50,889999	32,060001	17,639999	2020-10-29T19:48:56:033
-49,560001	25,549999	18,059999	2020-10-29T19:48:56:063
-50,889999	16,590000	15,400000	2020-10-29T19:48:56:075
-52,290001	7,770000	10,220000	2020-10-29T19:48:56:093
-43,610001	-0,980000	6,090000	2020-10-29T19:48:56:123
-32,130001	-14,070000	8,540000	2020-10-29T19:48:56:156
-23,660000	-15,820000	9,940000	2020-10-29T19:48:56:157
-10,500000	-20,370001	13,230000	2020-10-29T19:48:56:190
-4,970000	-23,660000	16,940001	2020-10-29T19:48:56:193
-5,040000	-22,190001	17,430000	2020-10-29T19:48:56:211
4,760000	-18,830000	11,060000	2020-10-29T19:48:56:242
7,910000	-17,780001	7,700000	2020-10-29T19:48:56:270
24,080000	-12,810000	0,840000	2020-10-29T19:48:56:282
39,549999	-12,460000	-3,430000	2020-10-29T19:48:56:292
43,540001	-9,170000	-6,230000	2020-10-29T19:48:56:325
50,119999	-11,200000	-5,460000	2020-10-29T19:48:56:375
56,279999	-16,520000	-3,290000	2020-10-29T19:48:56:375
54,529999	-24,850000	-0,770000	2020-10-29T19:48:56:376
44,099998	-33,320000	1,400000	2020-10-29T19:48:56:392
30,870001	-40,880001	2,240000	2020-10-29T19:48:56:410
19,040001	-46,410000	1,330000	2020-10-29T19:48:56:435
14,630000	-49,070000	-1,260000	2020-10-29T19:48:56:452
20,650000	-49,420002	-4,900000	2020-10-29T19:48:56:473
30,030001	-48,160000	-7,420000	2020-10-29T19:48:56:492
27,020000	-46,200001	-9,100000	2020-10-29T19:48:56:514
21,700001	-44,099998	-11,970000	2020-10-29T19:48:56:533
20,580000	-40,529999	-11,410000	2020-10-29T19:48:56:555
21,910000	-35,910000	-8,470000	2020-10-29T19:48:56:572
22,260000	-29,960001	-6,860000	2020-10-29T19:48:56:598
17,010000	-23,170000	-7,070000	2020-10-29T19:48:56:614
12,740000	-14,910000	-7,350000	2020-10-29T19:48:56:638
13,020000	-5,180000	-8,190000	2020-10-29T19:48:56:655
8,540000	1,400000	-11,550000	2020-10-29T19:48:56:674
2,730000	7,000000	-15,120000	2020-10-29T19:48:56:692
5,880000	10,220000	-17,920000	2020-10-29T19:48:56:716
9,310000	12,740000	-21,350000	2020-10-29T19:48:56:732
4,830000	14,630000	-24,570000	2020-10-29T19:48:56:754
-6,510000	10,710000	-24,920000	2020-10-29T19:48:56:773
-8,260000	10,220000	-20,370001	2020-10-29T19:48:56:796
-3,220000	10,220000	-14,350000	2020-10-29T19:48:56:811
-10,360000	10,500000	-10,220000	2020-10-29T19:48:56:834
-23,100000	14,910000	-12,250000	2020-10-29T19:48:56:852
-32,060001	17,710001	-12,180000	2020-10-29T19:48:56:875
-35,630001	22,960001	-10,360000	2020-10-29T19:48:56:892
-22,400000	29,469999	-10,430000	2020-10-29T19:48:56:915
-3,850000	35,279999	-10,010000	2020-10-29T19:48:56:937
-6,090000	0,070000	6,230000	2020-10-29T19:49:07:427
-9,100000	-0,420000	5,880000	2020-10-29T19:49:07:428
-11,270000	-0,630000	5,600000	2020-10-29T19:49:07:428
-12,530000	-0,840000	5,110000	2020-10-29T19:49:07:429
-12,460000	-0,140000	4,900000	2020-10-29T19:49:07:430
-11,900000	0,490000	5,250000	2020-10-29T19:49:07:431
-12,600000	0,770000	5,600000	2020-10-29T19:49:07:431
-14,350000	1,960000	5,950000	2020-10-29T19:49:07:432
-16,240000	2,800000	6,580000	2020-10-29T19:49:07:442
-17,710001	3,570000	7,070000	2020-10-29T19:49:07:444
-17,710001	4,130000	7,560000	2020-10-29T19:49:07:445
-17,080000	4,200000	7,910000	2020-10-29T19:49:07:447
-16,030001	3,570000	7,770000	2020-10-29T19:49:07:504
-14,490000	2,450000	7,280000	2020-10-29T19:49:07:504
-14,420000	0,630000	6,720000	2020-10-29T19:49:07:637
-16,309999	-1,470000	5,530000	2020-10-29T19:49:07:640
-18,549999	-3,710000	4,130000	2020-10-29T19:49:07:640
-20,790001	-6,860000	2,730000	2020-10-29T19:49:07:641
-25,270000	-10,920000	1,400000	2020-10-29T19:49:07:643
-33,740002	-14,980000	0,560000	2020-10-29T19:49:07:644
-44,730000	-19,809999	-0,070000	2020-10-29T19:49:07:655
-62,930000	-25,200001	-2,030000	2020-10-29T19:49:07:664
-91,000000	-29,960001	-5,180000	2020-10-29T19:49:07:665
-120,330002	-22,750000	-3,430000	2020-10-29T19:49:07:665
-145,320007	-17,639999	-8,540000	2020-10-29T19:49:07:666
-162,470001	-9,310000	-17,360001	2020-10-29T19:49:07:667
-162,259995	-9,450000	-18,480000	2020-10-29T19:49:07:667
-156,660004	-4,200000	-30,590000	2020-10-29T19:49:07:670
-126,629997	3,850000	-37,380001	2020-10-29T19:49:07:670
-71,260002	6,860000	-34,650002	2020-10-29T19:49:07:671
-18,129999	5,390000	-20,719999	2020-10-29T19:49:07:686
19,670000	13,020000	-13,300000	2020-10-29T19:49:07:709
45,150002	25,270000	-5,460000	2020-10-29T19:49:07:730
58,029999	28,000000	2,730000	2020-10-29T19:49:07:732
50,540001	24,990000	5,460000	2020-10-29T19:49:07:760
35,770000	20,090000	3,640000	2020-10-29T19:49:07:785
15,540000	13,230000	-1,680000	2020-10-29T19:49:07:838
3,570000	11,340000	-4,900000	2020-10-29T19:49:07:838
-4,690000	11,130000	-5,530000	2020-10-29T19:49:07:838
-11,690000	8,400000	-6,090000	2020-10-29T19:49:07:853
-16,730000	4,690000	-9,450000	2020-10-29T19:49:07:876
-18,129999	2,520000	-10,290000	2020-10-29T19:49:07:898
-19,460001	-4,760000	-15,330000	2020-10-29T19:49:07:916
-21,490000	-6,440000	-19,670000	2020-10-29T19:49:07:938
-24,360001	-7,420000	-22,680000	2020-10-29T19:49:07:956
-27,299999	-8,260000	-23,870001	2020-10-29T19:49:07:974
-27,790001	-7,770000	-22,540001	2020-10-29T19:49:07:996
-25,129999	-6,440000	-19,950001	2020-10-29T19:49:08:034
-24,639999	-4,130000	-17,570000	2020-10-29T19:49:08:035
-25,200001	-1,470000	-14,490000	2020-10-29T19:49:08:053
-24,219999	2,380000	-12,180000	2020-10-29T19:49:08:075
-23,100000	4,620000	-10,780000	2020-10-29T19:49:08:092
-15,470000	8,610000	-8,400000	2020-10-29T19:49:08:118
-4,270000	13,930000	-3,710000	2020-10-29T19:49:08:138
0,700000	20,860001	-0,770000	2020-10-29T19:49:08:157
-7,840000	30,940001	-0,770000	2020-10-29T19:49:08:176
-21,910000	40,670002	-2,240000	2020-10-29T19:49:08:199
-38,220001	51,099998	-3,220000	2020-10-29T19:49:08:215
-53,200001	61,810001	-7,420000	2020-10-29T19:49:08:238
-56,840000	66,010002	-18,410000	2020-10-29T19:49:08:274
-63,420002	67,340004	-24,290001	2020-10-29T19:49:08:394
-52,220001	66,570000	-29,120001	2020-10-29T19:49:08:395
-24,710001	63,349998	-37,099998	2020-10-29T19:49:08:396
-21,070000	52,360001	-46,200001	2020-10-29T19:49:08:396
-36,119999	44,660000	-59,220001	2020-10-29T19:49:08:397
-66,919998	40,880001	-77,139999	2020-10-29T19:49:08:403
-97,720001	34,720001	-90,370003	2020-10-29T19:49:08:408
-128,729996	27,580000	-94,220001	2020-10-29T19:49:08:438
-160,440002	12,320000	-95,690002	2020-10-29T19:49:08:443
-212,800003	-10,990000	-99,680000	2020-10-29T19:49:08:463
-184,729996	-30,380001	-97,930000	2020-10-29T19:49:08:478
-74,340004	-47,250000	-88,340004	2020-10-29T19:49:08:496
21,910000	-54,950001	-64,330002	2020-10-29T19:49:08:516
65,800003	-47,670002	-37,590000	2020-10-29T19:49:08:535
65,029999	-51,799999	-20,370001	2020-10-29T19:49:08:697
79,099998	-66,709999	-17,010000	2020-10-29T19:49:08:698
60,830002	-85,190002	-16,520000	2020-10-29T19:49:08:698
16,660000	-94,709999	-10,640000	2020-10-29T19:49:08:699
11,340000	-87,010002	2,450000	2020-10-29T19:49:08:699
32,130001	-69,440002	17,290001	2020-10-29T19:49:08:700
63,980000	-52,080002	17,850000	2020-10-29T19:49:08:700
72,029999	-46,830002	15,610000	2020-10-29T19:49:08:700
58,939999	-44,939999	19,250000	2020-10-29T19:49:08:715
31,639999	-33,670002	20,020000	2020-10-29T19:49:08:734
-12,250000	-9,660000	18,200001	2020-10-29T19:49:08:755
-64,959999	14,840000	14,210000	2020-10-29T19:49:08:778
-117,459999	25,129999	11,270000	2020-10-29T19:49:08:799
-151,830002	28,630001	11,760000	2020-10-29T19:49:08:815
-171,570007	27,299999	16,799999	2020-10-29T19:49:08:838
-169,050003	24,080000	25,900000	2020-10-29T19:49:08:877
-151,830002	22,540001	42,840000	2020-10-29T19:49:08:878
-147,839996	17,710001	46,830002	2020-10-29T19:49:08:906
-162,470001	10,920000	44,029999	2020-10-29T19:49:08:918
-170,380005	-3,080000	43,750000	2020-10-29T19:49:08:988
-176,889999	-21,770000	38,290001	2020-10-29T19:49:08:989
-152,250000	-45,639999	43,680000	2020-10-29T19:49:08:990
-141,470001	-62,020000	38,080002	2020-10-29T19:49:09:081
-156,240005	-82,599998	22,120001	2020-10-29T19:49:09:082
-145,669998	-102,760002	6,510000	2020-10-29T19:49:09:083
-124,110001	-116,480003	-5,880000	2020-10-29T19:49:09:083
-80,919998	-127,260002	-15,890000	2020-10-29T19:49:09:084
-43,820000	-133,419998	-20,230000	2020-10-29T19:49:09:095
-16,309999	-138,039993	-18,549999	2020-10-29T19:49:09:117
-10,500000	-137,199997	-22,820000	2020-10-29T19:49:09:147
-6,230000	-136,710007	-28,000000	2020-10-29T19:49:09:185
20,299999	-138,389999	-27,160000	2020-10-29T19:49:09:186
38,290001	-134,960007	-23,450001	2020-10-29T19:49:09:198
46,410000	-130,059998	-25,340000	2020-10-29T19:49:09:237
50,119999	-123,340004	-17,850000	2020-10-29T19:49:09:239
30,450001	-123,620003	-19,460001	2020-10-29T19:49:09:263
27,370001	-124,459999	-21,350000	2020-10-29T19:49:09:278
47,180000	-128,729996	-13,580000	2020-10-29T19:49:09:300
55,860001	-122,080002	-7,560000	2020-10-29T19:49:09:318
28,980000	-119,000000	1,960000	2020-10-29T19:49:09:336
3,150000	-115,779999	-0,210000	2020-10-29T19:49:09:357
5,180000	-102,059998	0,140000	2020-10-29T19:49:09:378
23,170000	-82,459999	-3,850000	2020-10-29T19:49:09:399
38,990002	-65,379997	-3,570000	2020-10-29T19:49:09:416
59,080002	-52,779999	-2,170000	2020-10-29T19:49:09:440
66,500000	-46,480000	-0,840000	2020-10-29T19:49:09:457
61,459999	-44,310001	-0,980000	2020-10-29T19:49:09:479
49,700001	-48,930000	-6,790000	2020-10-29T19:49:09:497
57,260002	-54,670002	-4,200000	2020-10-29T19:49:09:519
77,070000	-60,130001	5,250000	2020-10-29T19:49:09:537
73,150002	-58,450001	12,040000	2020-10-29T19:49:09:559
52,500000	-53,340000	12,950000	2020-10-29T19:49:09:577
35,279999	-56,279999	15,400000	2020-10-29T19:49:09:598
32,130001	-59,779999	25,410000	2020-10-29T19:49:09:617
30,870001	-66,430000	35,070000	2020-10-29T19:49:09:640
23,170000	-75,809998	40,180000	2020-10-29T19:49:09:657
14,630000	-88,340004	44,240002	2020-10-29T19:49:09:679
17,010000	-94,639999	49,560001	2020-10-29T19:49:09:697
-1,190000	-96,180000	53,549999	2020-10-29T19:49:09:719
-39,689999	-96,669998	55,090000	2020-10-29T19:49:09:741
-71,820000	-97,300003	56,139999	2020-10-29T19:49:09:774
-67,620003	-99,330002	58,939999	2020-10-29T19:49:09:814
-40,670002	-99,050003	65,730003	2020-10-29T19:49:09:815
-24,290001	-93,590004	72,239998	2020-10-29T19:49:09:817
-24,430000	-93,099998	71,540001	2020-10-29T19:49:09:844
-32,759998	-96,879997	72,379997	2020-10-29T19:49:09:860
-30,030001	-97,650002	75,669998	2020-10-29T19:49:09:881
-22,540001	-91,349998	80,779999	2020-10-29T19:49:09:898
-21,350000	-81,129997	82,389999	2020-10-29T19:49:09:920
-26,809999	-74,620003	78,750000	2020-10-29T19:49:09:937
-28,000000	-72,730003	70,489998	2020-10-29T19:49:09:959
-25,410000	-66,080002	63,139999	2020-10-29T19:49:09:977
-29,469999	-57,889999	53,549999	2020-10-29T19:49:09:999
-21,000000	-44,310001	45,290001	2020-10-29T19:49:10:017
3,150000	-28,139999	39,689999	2020-10-29T19:49:10:040
17,850000	-12,320000	30,100000	2020-10-29T19:49:10:058
30,799999	-3,220000	27,719999	2020-10-29T19:49:10:078
31,990000	10,640000	25,620001	2020-10-29T19:49:10:099
17,290001	22,120001	28,910000	2020-10-29T19:49:10:119
4,690000	31,710001	34,160000	2020-10-29T19:49:10:137
8,050000	42,630001	38,220001	2020-10-29T19:49:10:159
16,660000	46,759998	44,099998	2020-10-29T19:49:10:177
16,520000	42,209999	42,070000	2020-10-29T19:49:10:199
-1,120000	41,230000	40,180000	2020-10-29T19:49:10:217
-41,790001	55,650002	43,540001	2020-10-29T19:49:10:240
-62,510002	72,239998	40,180000	2020-10-29T19:49:10:258
-41,720001	77,139999	32,340000	2020-10-29T19:49:10:279
1,610000	78,260002	9,450000	2020-10-29T19:49:10:297
45,430000	64,120003	-13,370000	2020-10-29T19:49:10:319
70,559998	45,779999	-28,630001	2020-10-29T19:49:10:338
93,239998	33,529999	-28,000000	2020-10-29T19:49:10:359
103,389999	21,350000	-22,120001	2020-10-29T19:49:10:377
91,419998	6,020000	-19,460001	2020-10-29T19:49:10:399
84,699997	-9,940000	-18,969999	2020-10-29T19:49:10:418
72,449997	-24,360001	-19,389999	2020-10-29T19:49:10:440
51,310001	-36,680000	-19,040001	2020-10-29T19:49:10:458
15,890000	-42,630001	-19,740000	2020-10-29T19:49:10:479
-16,030001	-44,310001	-19,879999	2020-10-29T19:49:10:498
-31,710001	-46,060001	-18,900000	2020-10-29T19:49:10:520
-26,950001	-47,880001	-14,490000	2020-10-29T19:49:10:538
-25,059999	-46,689999	-9,590000	2020-10-29T19:49:10:559
-38,500000	-42,420002	-6,230000	2020-10-29T19:49:10:579
-55,650002	-35,980000	-4,340000	2020-10-29T19:49:10:600
-68,949997	-26,880001	-3,710000	2020-10-29T19:49:10:618
-66,919998	-17,639999	-2,940000	2020-10-29T19:49:10:640
-50,540001	-7,280000	-1,960000	2020-10-29T19:49:10:658
-33,320000	5,320000	-1,890000	2020-10-29T19:49:10:680
-24,080000	15,120000	-4,130000	2020-10-29T19:49:10:698
-16,379999	20,719999	-4,970000	2020-10-29T19:49:10:720
-15,820000	27,020000	-8,470000	2020-10-29T19:49:10:738
-11,760000	30,940001	-15,120000	2020-10-29T19:49:10:760
-3,850000	36,610001	-22,049999	2020-10-29T19:49:10:821
3,710000	42,000000	-29,120001	2020-10-29T19:49:10:823
5,320000	43,680000	-33,950001	2020-10-29T19:49:10:823
-6,300000	43,889999	-41,509998	2020-10-29T19:49:10:840
-18,200001	36,820000	-32,830002	2020-10-29T19:49:10:860
-19,530001	45,779999	-26,740000	2020-10-29T19:49:10:881
4,830000	57,959999	-27,510000	2020-10-29T19:49:10:899
43,470001	62,230000	-37,590000	2020-10-29T19:49:10:919
53,619999	47,740002	-51,939999	2020-10-29T19:49:10:940
46,619999	43,889999	-72,379997	2020-10-29T19:49:10:960
28,350000	39,270000	-74,760002	2020-10-29T19:49:10:978
24,500000	51,450001	-74,269997	2020-10-29T19:49:11:007
38,779999	61,599998	-71,470001	2020-10-29T19:49:11:020
48,160000	63,349998	-75,459999	2020-10-29T19:49:11:041
59,430000	64,750000	-70,629997	2020-10-29T19:49:11:059
43,049999	63,630001	-73,709999	2020-10-29T19:49:11:080
37,799999	60,760002	-71,959999	2020-10-29T19:49:11:098
47,110001	56,770000	-72,029999	2020-10-29T19:49:11:120
48,790001	59,849998	-69,790001	2020-10-29T19:49:11:138
33,740002	63,910000	-72,309998	2020-10-29T19:49:11:160
33,880001	73,150002	-68,389999	2020-10-29T19:49:11:178
45,150002	79,099998	-59,220001	2020-10-29T19:49:11:201
50,470001	77,840004	-46,549999	2020-10-29T19:49:11:219
99,400002	74,129997	-43,959999	2020-10-29T19:49:18:128
0,420000	78,610001	-87,010002	2020-10-29T19:49:18:129
-50,680000	71,400002	-110,459999	2020-10-29T19:49:18:130
-29,820000	52,360001	-106,260002	2020-10-29T19:49:18:131
-7,000000	26,809999	-103,320000	2020-10-29T19:49:18:146
-29,750000	10,710000	-100,800003	2020-10-29T19:49:18:157
-68,320000	6,580000	-94,010002	2020-10-29T19:49:18:177
-94,570000	8,260000	-88,340004	2020-10-29T19:49:18:196
-103,599998	9,520000	-79,870003	2020-10-29T19:49:18:219
-81,410004	9,870000	-67,550003	2020-10-29T19:49:18:235
-32,410000	6,370000	-49,770000	2020-10-29T19:49:18:258
17,150000	0,910000	-25,900000	2020-10-29T19:49:18:276
44,099998	-4,690000	-1,890000	2020-10-29T19:49:18:299
45,920002	-5,950000	22,469999	2020-10-29T19:49:18:315
41,020000	-6,160000	49,209999	2020-10-29T19:49:18:338
40,459999	-8,820000	74,480003	2020-10-29T19:49:18:356
44,170002	-6,720000	101,150002	2020-10-29T19:49:18:378
48,860001	1,120000	141,259995	2020-10-29T19:49:18:397
76,019997	-18,549999	155,820007	2020-10-29T19:49:18:418
108,010002	-29,469999	162,680008	2020-10-29T19:49:18:435
140,699997	-24,710001	165,130005	2020-10-29T19:49:18:459
171,850006	-26,389999	152,039993	2020-10-29T19:49:18:475
195,020004	-28,700001	128,240005	2020-10-29T19:49:18:498
207,410004	-25,270000	97,300003	2020-10-29T19:49:18:515
206,500000	-21,420000	62,510002	2020-10-29T19:49:18:538
196,279999	-18,760000	27,650000	2020-10-29T19:49:18:555
169,399994	-18,059999	-8,890000	2020-10-29T19:49:18:578
134,680008	-18,549999	-39,830002	2020-10-29T19:49:18:596
94,360001	-20,440001	-64,050003	2020-10-29T19:49:18:619
56,279999	-22,330000	-79,730003	2020-10-29T19:49:18:636
18,760000	-22,190001	-91,070000	2020-10-29T19:49:18:658
-15,050000	-21,280001	-100,379997	2020-10-29T19:49:18:675
-36,259998	-18,900000	-104,160004	2020-10-29T19:49:18:700
-47,459999	-16,450001	-104,650002	2020-10-29T19:49:18:716
-55,790001	-12,390000	-103,809998	2020-10-29T19:49:18:738
-60,760002	-12,390000	-102,970001	2020-10-29T19:49:18:756
-61,880001	-12,950000	-102,830002	2020-10-29T19:49:18:778
-63,070000	-12,950000	-103,389999	2020-10-29T19:49:18:796
-68,669998	-11,690000	-103,320000	2020-10-29T19:49:18:818
-77,070000	-9,100000	-100,730003	2020-10-29T19:49:18:836
-83,650002	-6,090000	-93,239998	2020-10-29T19:49:18:858
-88,340004	-2,660000	-80,849998	2020-10-29T19:49:18:876
-90,650002	0,140000	-64,400002	2020-10-29T19:49:18:898
-88,900002	3,780000	-44,590000	2020-10-29T19:49:18:916
-83,300003	6,160000	-23,100000	2020-10-29T19:49:18:939
-74,830002	5,460000	-0,840000	2020-10-29T19:49:18:956
-66,709999	4,690000	21,350000	2020-10-29T19:49:18:978
-58,029999	4,060000	44,170002	2020-10-29T19:49:18:996
-49,070000	1,890000	66,989998	2020-10-29T19:49:19:019
-40,810001	-2,030000	88,199997	2020-10-29T19:49:19:036
-32,970001	-8,190000	106,959999	2020-10-29T19:49:19:058
-27,650000	-16,309999	122,639999	2020-10-29T19:49:19:076
-29,190001	-25,340000	132,369995	2020-10-29T19:49:19:099
-35,070000	-35,630001	135,729996	2020-10-29T19:49:19:117
-35,630001	-46,200001	135,100006	2020-10-29T19:49:19:138
-30,240000	-53,340000	129,710007	2020-10-29T19:49:19:155
-26,670000	-55,580002	118,370003	2020-10-29T19:49:19:179
-25,340000	-55,790001	102,059998	2020-10-29T19:49:19:196
-25,549999	-52,920002	81,690002	2020-10-29T19:49:19:218
-27,160000	-44,380001	60,830002	2020-10-29T19:49:19:236
-27,230000	-32,830002	42,209999	2020-10-29T19:49:19:259
-23,450001	-22,610001	27,440001	2020-10-29T19:49:19:276
-15,960000	-12,390000	16,940001	2020-10-29T19:49:19:299
-5,880000	-2,520000	10,780000	2020-10-29T19:49:19:316
3,010000	5,040000	6,580000	2020-10-29T19:49:19:339
12,040000	9,380000	4,200000	2020-10-29T19:49:19:357
21,559999	9,380000	2,590000	2020-10-29T19:49:19:378
30,520000	7,770000	0,980000	2020-10-29T19:49:19:397
37,520000	6,580000	-1,610000	2020-10-29T19:49:19:420
42,279999	4,340000	-6,370000	2020-10-29T19:49:19:436
47,389999	1,190000	-12,180000	2020-10-29T19:49:19:458
50,540001	-0,210000	-20,020000	2020-10-29T19:49:19:476
45,430000	-0,770000	-36,049999	2020-10-29T19:49:19:500
39,340000	1,260000	-46,900002	2020-10-29T19:49:19:516
32,970001	5,600000	-56,770000	2020-10-29T19:49:19:539
26,809999	11,130000	-66,220001	2020-10-29T19:49:19:556
23,100000	14,910000	-74,760002	2020-10-29T19:49:19:579
22,120001	17,990000	-81,199997	2020-10-29T19:49:19:598
19,879999	21,629999	-85,190002	2020-10-29T19:49:19:619
17,570000	23,379999	-86,169998	2020-10-29T19:49:19:636
16,590000	25,900000	-83,300003	2020-10-29T19:49:19:660
17,010000	27,860001	-76,930000	2020-10-29T19:49:19:676
19,879999	28,700001	-67,269997	2020-10-29T19:49:19:699
24,990000	30,240000	-54,320000	2020-10-29T19:49:19:716
31,290001	31,360001	-38,779999	2020-10-29T19:49:19:740
38,220001	32,340000	-21,420000	2020-10-29T19:49:19:756
45,639999	31,990000	-3,220000	2020-10-29T19:49:19:780
52,779999	31,990000	15,400000	2020-10-29T19:49:19:797
60,410000	31,710001	32,830002	2020-10-29T19:49:19:820
70,840004	29,610001	48,439999	2020-10-29T19:49:19:838
80,080002	27,930000	61,110001	2020-10-29T19:49:19:859
88,129997	26,180000	71,750000	2020-10-29T19:49:19:876
95,480003	23,170000	79,239998	2020-10-29T19:49:19:900
103,389999	20,930000	84,000000	2020-10-29T19:49:19:917
111,090004	19,809999	86,379997	2020-10-29T19:49:19:940
118,860001	16,730000	85,610001	2020-10-29T19:49:19:957
123,340004	13,580000	79,379997	2020-10-29T19:49:19:980
128,729996	12,530000	71,750000	2020-10-29T19:49:19:997
137,130005	11,620000	63,910000	2020-10-29T19:49:20:019
147,070007	9,940000	55,580002	2020-10-29T19:49:20:037
158,199997	7,210000	46,970001	2020-10-29T19:49:20:060
166,600006	4,060000	37,939999	2020-10-29T19:49:20:077
168,490005	1,400000	29,960001	2020-10-29T19:49:20:100
162,820007	-1,050000	23,240000	2020-10-29T19:49:20:117
151,550003	-3,850000	17,290001	2020-10-29T19:49:20:140
136,850006	-5,110000	12,180000	2020-10-29T19:49:20:157
118,440002	-5,320000	8,470000	2020-10-29T19:49:20:179
97,860001	-4,690000	6,230000	2020-10-29T19:49:20:198
77,980003	-4,200000	5,180000	2020-10-29T19:49:20:221
61,529999	-2,940000	5,950000	2020-10-29T19:49:20:237
55,020000	-0,980000	8,960000	2020-10-29T19:49:20:259
54,740002	-0,980000	12,110000	2020-10-29T19:49:20:277
58,520000	0,840000	15,050000	2020-10-29T19:49:20:301
68,110001	1,050000	17,710001	2020-10-29T19:49:20:318
80,989998	2,450000	20,370001	2020-10-29T19:49:20:339
93,590004	4,200000	23,030001	2020-10-29T19:49:20:357
106,680000	3,640000	25,059999	2020-10-29T19:49:20:381
121,099998	2,590000	26,950001	2020-10-29T19:49:20:398
134,960007	3,500000	28,910000	2020-10-29T19:49:20:419
144,479996	2,730000	29,330000	2020-10-29T19:49:20:436
147,139999	-0,280000	27,230000	2020-10-29T19:49:20:460
144,690002	-3,360000	23,450001	2020-10-29T19:49:20:477
139,300003	-6,160000	18,200001	2020-10-29T19:49:20:500
129,360001	-9,660000	10,780000	2020-10-29T19:49:20:517
113,540001	-14,840000	1,190000	2020-10-29T19:49:20:541
96,459999	-19,040001	-8,610000	2020-10-29T19:49:20:558
71,820000	-19,530001	-21,770000	2020-10-29T19:49:20:580
55,439999	-20,510000	-29,820000	2020-10-29T19:49:20:598
40,389999	-19,809999	-36,400002	2020-10-29T19:49:20:621
28,350000	-16,170000	-41,020000	2020-10-29T19:49:20:637
17,570000	-6,300000	-41,230000	2020-10-29T19:49:20:659
5,950000	-2,380000	-40,320000	2020-10-29T19:49:20:677
-3,010000	-12,040000	-45,920002	2020-10-29T19:49:20:701
-1,330000	-3,150000	-48,790001	2020-10-29T19:49:20:718
7,910000	17,850000	-47,180000	2020-10-29T19:49:20:740
17,500000	32,480000	-48,020000	2020-10-29T19:49:20:758
32,200001	44,380001	-47,250000	2020-10-29T19:49:20:780
57,260002	56,139999	-41,090000	2020-10-29T19:49:20:798
89,250000	61,110001	-33,040001	2020-10-29T19:49:20:820
124,669998	59,990002	-28,350000	2020-10-29T19:49:20:837
160,020004	57,049999	-28,280001	2020-10-29T19:49:20:861
194,600006	52,290001	-29,190001	2020-10-29T19:49:20:878
221,130005	45,779999	-31,639999	2020-10-29T19:49:20:900
232,330002	43,750000	-34,790001	2020-10-29T19:49:20:918
227,290009	43,889999	-35,139999	2020-10-29T19:49:20:941
211,960007	43,189999	-32,130001	2020-10-29T19:49:20:958
193,970001	41,580002	-24,710001	2020-10-29T19:49:20:980
173,600006	40,529999	-14,630000	2020-10-29T19:49:20:998
147,350006	40,529999	-3,290000	2020-10-29T19:49:21:021
121,239998	41,930000	9,450000	2020-10-29T19:49:21:039
102,620003	42,279999	23,799999	2020-10-29T19:49:21:060
89,250000	41,299999	37,310001	2020-10-29T19:49:21:078
84,419998	39,830002	50,189999	2020-10-29T19:49:21:102
89,949997	35,209999	61,950001	2020-10-29T19:49:21:118
103,110001	26,460001	71,820000	2020-10-29T19:49:21:140
119,699997	17,780001	80,500000	2020-10-29T19:49:21:158
134,889999	10,150000	87,430000	2020-10-29T19:49:21:181
143,430008	2,940000	91,349998	2020-10-29T19:49:21:200
148,259995	-2,310000	92,820000	2020-10-29T19:49:21:221
150,080002	-4,970000	91,910004	2020-10-29T19:49:21:239
148,889999	-4,830000	87,849998	2020-10-29T19:49:21:261
151,270004	-1,960000	82,320000	2020-10-29T19:49:21:281
161,490005	-1,540000	73,779999	2020-10-29T19:49:21:301
177,449997	-1,610000	62,580002	2020-10-29T19:49:21:318
192,639999	2,800000	50,540001	2020-10-29T19:49:21:340
200,059998	21,280001	42,980000	2020-10-29T19:49:21:357
191,240005	26,880001	33,670002	2020-10-29T19:49:21:380
182,979996	10,080000	18,830000	2020-10-29T19:49:21:399
179,899994	1,190000	6,090000	2020-10-29T19:49:21:422
177,169998	-4,410000	-6,300000	2020-10-29T19:49:21:438
176,399994	-14,980000	-25,340000	2020-10-29T19:49:21:460
173,110001	-10,080000	-40,670002	2020-10-29T19:49:21:478
149,520004	-9,800000	-54,950001	2020-10-29T19:49:21:502
102,059998	-25,480000	-74,550003	2020-10-29T19:49:21:519
49,139999	-42,770000	-93,660004	2020-10-29T19:49:21:541
-2,590000	-48,090000	-106,889999	2020-10-29T19:49:21:558
-49,770000	-44,520000	-121,099998	2020-10-29T19:49:21:582
-71,330002	-38,920002	-139,020004	2020-10-29T19:49:21:599
-53,549999	-33,459999	-152,949997	2020-10-29T19:49:21:621
-1,890000	-26,740000	-159,600006	2020-10-29T19:49:21:639
86,309998	-15,470000	-166,110001	2020-10-29T19:49:21:662
121,590004	-11,760000	-170,729996	2020-10-29T19:49:21:678
163,589996	-12,740000	-164,430008	2020-10-29T19:49:21:701
241,080002	-7,210000	-142,029999	2020-10-29T19:49:21:718
324,519989	10,010000	-119,770004	2020-10-29T19:49:21:741
390,110016	10,990000	-101,080002	2020-10-29T19:49:21:760
421,119995	-8,120000	-88,900002	2020-10-29T19:49:21:781
414,470001	-22,120001	-81,410004	2020-10-29T19:49:21:799
387,799988	-28,000000	-71,330002	2020-10-29T19:49:21:822
391,579987	-32,689999	-51,029999	2020-10-29T19:49:21:839
457,660004	-18,830000	-14,840000	2020-10-29T19:49:21:861
579,250000	-3,080000	18,969999	2020-10-29T19:49:21:879
700,909973	12,040000	48,650002	2020-10-29T19:49:21:902
765,450012	-0,420000	73,989998	2020-10-29T19:49:21:919
710,429993	-26,809999	69,930000	2020-10-29T19:49:21:941
552,229980	-50,049999	54,599998	2020-10-29T19:49:21:959
313,320007	-55,860001	50,750000	2020-10-29T19:49:21:982
21,139999	-54,740002	33,320000	2020-10-29T19:49:22:000
-188,369995	-58,939999	17,920000	2020-10-29T19:49:22:021
-258,440002	-78,680000	3,990000	2020-10-29T19:49:22:039
-227,990005	-96,809998	9,870000	2020-10-29T19:49:22:062
-161,839996	-112,910004	25,760000	2020-10-29T19:49:22:079
-112,910004	-118,300003	40,529999	2020-10-29T19:49:22:102
-104,860001	-124,599998	50,189999	2020-10-29T19:49:22:119
-160,089996	-130,410004	50,820000	2020-10-29T19:49:22:142
-251,860001	-120,540001	50,680000	2020-10-29T19:49:22:159
-330,049988	-116,410004	54,250000	2020-10-29T19:49:22:181
-396,549988	-118,090004	49,000000	2020-10-29T19:49:22:199
-474,809998	-118,300003	27,090000	2020-10-29T19:49:22:222
-543,200012	-128,169998	-17,500000	2020-10-29T19:49:22:250
-561,820007	-133,910004	-54,250000	2020-10-29T19:49:22:261
-574,280029	-125,370003	-87,709999	2020-10-29T19:49:22:279
-588,210022	-103,879997	-118,510002	2020-10-29T19:49:22:303
-559,510010	-79,940002	-134,539993	2020-10-29T19:49:22:319
-462,070007	-52,290001	-133,490005	2020-10-29T19:49:22:341
-277,970001	-15,330000	-120,889999	2020-10-29T19:49:22:359
-8,400000	-0,630000	-97,790001	2020-10-29T19:49:22:382
253,540009	24,639999	-68,739998	2020-10-29T19:49:22:400
413,630005	62,580002	-48,650002	2020-10-29T19:49:22:421
455,140015	88,830002	-46,759998	2020-10-29T19:49:22:439
424,690002	101,639999	-62,510002	2020-10-29T19:49:22:462
372,119995	116,760002	-80,709999	2020-10-29T19:49:22:479
307,720001	135,589996	-97,019997	2020-10-29T19:49:22:503
234,430008	142,240005	-107,449997	2020-10-29T19:49:22:519
159,669998	146,300003	-110,320000	2020-10-29T19:49:22:543
80,150002	153,300003	-104,650002	2020-10-29T19:49:22:559
1,680000	171,149994	-81,550003	2020-10-29T19:49:22:581
-56,279999	177,240005	-42,980000	2020-10-29T19:49:22:601
-100,169998	183,680008	-1,190000	2020-10-29T19:49:22:622
-148,960007	204,119995	40,950001	2020-10-29T19:49:22:640
-196,279999	222,040009	80,639999	2020-10-29T19:49:22:662
-217,770004	234,710007	120,470001	2020-10-29T19:49:22:678
-219,100006	255,149994	168,279999	2020-10-29T19:49:22:703
-195,930008	249,410004	215,949997	2020-10-29T19:49:22:719
-91,209999	227,779999	289,450012	2020-10-29T19:49:22:742
-56,420002	225,190002	324,519989	2020-10-29T19:49:22:759
-76,300003	200,970001	322,559998	2020-10-29T19:49:22:782
-166,039993	192,080002	275,730011	2020-10-29T19:49:22:800
-283,079987	179,690002	209,720001	2020-10-29T19:49:22:821
-361,760010	141,820007	147,070007	2020-10-29T19:49:22:840
-387,869995	109,690002	106,750000	2020-10-29T19:49:22:863
-347,619995	85,959999	80,919998	2020-10-29T19:49:22:879
-242,410004	80,430000	65,660004	2020-10-29T19:49:22:902
-122,919998	87,010002	56,630001	2020-10-29T19:49:22:920
-15,680000	82,180000	47,740002	2020-10-29T19:49:22:944
57,470001	55,860001	29,260000	2020-10-29T19:49:22:960
87,150002	31,639999	4,690000	2020-10-29T19:49:22:981
116,550003	7,280000	10,500000	2020-10-29T19:49:23:000
137,550003	-15,820000	24,780001	2020-10-29T19:49:23:023
142,240005	-31,010000	39,060001	2020-10-29T19:49:23:040
131,460007	-34,090000	49,560001	2020-10-29T19:49:23:062
86,029999	-25,200001	52,990002	2020-10-29T19:49:23:080
24,360001	-12,880000	48,090000	2020-10-29T19:49:23:103
-30,170000	-10,500000	37,730000	2020-10-29T19:49:23:120
-77,840004	-15,260000	21,139999	2020-10-29T19:49:23:146
-120,680000	-9,240000	4,690000	2020-10-29T19:49:23:159
-158,479996	-5,950000	-14,140000	2020-10-29T19:49:23:183
-183,470001	-18,900000	-45,360001	2020-10-29T19:49:23:202
-176,610001	-26,809999	-72,800003	2020-10-29T19:49:23:222
-140,630005	-25,900000	-92,400002	2020-10-29T19:49:23:240
-86,940002	-31,990000	-117,110001	2020-10-29T19:49:23:263
-21,000000	-33,250000	-137,619995	2020-10-29T19:49:23:280
45,430000	-28,350000	-149,240005	2020-10-29T19:49:23:302
99,610001	-31,360001	-156,309998	2020-10-29T19:49:23:319
144,270004	-44,520000	-160,720001	2020-10-29T19:49:23:343
173,039993	-63,630001	-164,570007	2020-10-29T19:49:23:360
184,800003	-84,910004	-163,309998	2020-10-29T19:49:23:382
170,380005	-106,820000	-160,229996	2020-10-29T19:49:23:401
127,470001	-122,010002	-159,460007	2020-10-29T19:49:23:423
67,129997	-130,759995	-160,089996	2020-10-29T19:49:23:440
9,240000	-130,899994	-160,789993	2020-10-29T19:49:23:462
-42,490002	-126,770004	-161,699997	2020-10-29T19:49:23:480
-86,870003	-118,440002	-163,309998	2020-10-29T19:49:23:503
-111,370003	-106,400002	-159,809998	2020-10-29T19:49:23:520
-116,199997	-92,190002	-149,800003	2020-10-29T19:49:23:542
-106,889999	-78,400002	-134,119995	2020-10-29T19:49:23:560
-88,900002	-67,410004	-114,379997	2020-10-29T19:49:23:583
-63,349998	-57,889999	-89,529999	2020-10-29T19:49:23:601
-35,630001	-50,189999	-61,670002	2020-10-29T19:49:23:622
-14,770000	-44,310001	-33,389999	2020-10-29T19:49:23:640
-1,610000	-36,259998	-2,800000	2020-10-29T19:49:23:663
2,800000	-24,219999	31,150000	2020-10-29T19:49:23:680
-5,600000	-5,950000	69,580002	2020-10-29T19:49:23:703
-27,370001	17,150000	111,440002	2020-10-29T19:49:23:720
-58,310001	37,869999	154,699997	2020-10-29T19:49:23:744
-95,340004	56,560001	200,619995	2020-10-29T19:49:23:761
-129,990005	86,099998	262,500000	2020-10-29T19:49:23:782
-159,180008	96,040001	319,899994	2020-10-29T19:49:23:801
-179,970001	71,120003	348,739990	2020-10-29T19:49:23:824
-164,149994	37,380001	355,880005	2020-10-29T19:49:23:840
-123,340004	23,730000	335,160004	2020-10-29T19:49:23:863
-27,299999	3,010000	260,820007	2020-10-29T19:49:23:881
106,050003	-42,490002	181,860001	2020-10-29T19:49:23:904
204,960007	-12,880000	177,380005	2020-10-29T19:49:23:922
240,660004	48,369999	122,150002	2020-10-29T19:49:23:943
236,460007	53,270000	73,080002	2020-10-29T19:49:23:960
254,240005	51,730000	39,619999	2020-10-29T19:49:23:984
253,610001	40,880001	18,059999	2020-10-29T19:49:24:001
180,529999	27,580000	10,710000	2020-10-29T19:49:24:023
85,260002	10,640000	-1,960000	2020-10-29T19:49:24:041
-0,210000	-5,600000	-15,820000	2020-10-29T19:49:24:064
-59,290001	-11,200000	-18,480000	2020-10-29T19:49:24:081
-114,660004	-9,520000	-20,930000	2020-10-29T19:49:24:104
-160,860001	-4,970000	-28,350000	2020-10-29T19:49:24:121
-167,930008	-1,610000	-32,270000	2020-10-29T19:49:24:144
-135,869995	-1,330000	-35,279999	2020-10-29T19:49:24:162
-88,340004	-1,050000	-36,470001	2020-10-29T19:49:24:183
-40,180000	-1,960000	-38,709999	2020-10-29T19:49:24:201
5,180000	-6,720000	-42,980000	2020-10-29T19:49:24:224
48,930000	-8,330000	-43,680000	2020-10-29T19:49:24:241
79,239998	-7,350000	-43,610001	2020-10-29T19:49:24:263
96,320000	-11,130000	-43,750000	2020-10-29T19:49:24:281
102,550003	-20,160000	-45,570000	2020-10-29T19:49:24:304
97,860001	-21,910000	-47,110001	2020-10-29T19:49:24:321
84,699997	-18,760000	-47,389999	2020-10-29T19:49:24:343
67,269997	-22,049999	-51,310001	2020-10-29T19:49:24:361
50,540001	-26,950001	-58,450001	2020-10-29T19:49:24:384
34,650002	-23,799999	-63,770000	2020-10-29T19:49:24:403
15,260000	-8,890000	-63,420002	2020-10-29T19:49:24:424
-1,330000	-19,040001	-78,120003	2020-10-29T19:49:24:441
1,190000	-19,250000	-88,620003	2020-10-29T19:49:24:464
18,340000	-16,309999	-89,320000	2020-10-29T19:49:24:481
33,110001	-24,010000	-93,449997	2020-10-29T19:49:24:504
40,599998	-37,799999	-101,709999	2020-10-29T19:49:24:521
37,939999	-53,480000	-107,940002	2020-10-29T19:49:24:544
27,160000	-59,500000	-103,389999	2020-10-29T19:49:24:561
8,680000	-49,490002	-87,220001	2020-10-29T19:49:24:583
-12,670000	-41,090000	-67,970001	2020-10-29T19:49:24:602
-29,260000	-50,259998	-53,549999	2020-10-29T19:49:24:624
-34,160000	-63,700001	-41,369999	2020-10-29T19:49:24:642
-35,700001	-69,300003	-28,980000	2020-10-29T19:49:24:663
-38,430000	-72,940002	-20,440001	2020-10-29T19:49:24:681
-43,189999	-77,769997	-20,090000	2020-10-29T19:49:24:705
-52,150002	-80,989998	-24,850000	2020-10-29T19:49:24:721
-66,360001	-82,040001	-31,080000	2020-10-29T19:49:24:743
-85,400002	-80,290001	-36,540001	2020-10-29T19:49:24:762
-104,860001	-75,949997	-38,430000	2020-10-29T19:49:24:784
-124,529999	-68,389999	-35,490002	2020-10-29T19:49:24:802
-141,680008	-58,380001	-24,710001	2020-10-29T19:49:24:849
-153,020004	-50,400002	-8,750000	2020-10-29T19:49:24:850
-159,529999	-42,560001	12,110000	2020-10-29T19:49:24:868
-159,949997	-34,930000	39,480000	2020-10-29T19:49:24:899
-155,960007	-32,970001	81,269997	2020-10-29T19:49:24:905
-150,919998	-32,830002	108,360001	2020-10-29T19:49:24:921
-148,960007	-23,309999	137,059998	2020-10-29T19:49:24:945
-149,660004	-9,030000	165,550003	2020-10-29T19:49:24:961
-149,029999	3,080000	192,919998	2020-10-29T19:49:24:984
-139,440002	9,660000	218,330002	2020-10-29T19:49:25:002
-122,010002	8,260000	238,839996	2020-10-29T19:49:25:026
-101,150002	7,980000	251,580002	2020-10-29T19:49:25:042
-73,779999	26,530001	266,070007	2020-10-29T19:49:25:064
-41,090000	20,650000	252,910004	2020-10-29T19:49:25:082
20,160000	15,960000	223,300003	2020-10-29T19:49:25:105
106,750000	16,030001	187,669998	2020-10-29T19:49:25:122
190,119995	17,150000	161,770004	2020-10-29T19:49:25:144
233,169998	21,420000	128,169998	2020-10-29T19:49:25:162
233,169998	16,660000	83,650002	2020-10-29T19:49:25:185
192,009995	11,340000	44,799999	2020-10-29T19:49:25:203
119,910004	22,820000	22,049999	2020-10-29T19:49:25:225
45,290001	32,480000	14,770000	2020-10-29T19:49:25:241
-5,110000	26,809999	7,770000	2020-10-29T19:49:25:264
-21,770000	11,830000	1,400000	2020-10-29T19:49:25:281
-10,500000	-8,120000	-7,280000	2020-10-29T19:49:25:305
35,700001	-21,910000	-16,379999	2020-10-29T19:49:25:322
111,510002	-29,469999	-23,590000	2020-10-29T19:49:25:345
178,990005	-41,230000	-35,000000	2020-10-29T19:49:25:362
226,940002	-58,240002	-47,670002	2020-10-29T19:49:25:384
244,509995	-73,989998	-60,900002	2020-10-29T19:49:25:402
224,419998	-86,449997	-72,519997	2020-10-29T19:49:25:425
175,559998	-97,650002	-85,050003	2020-10-29T19:49:25:442
114,940002	-106,330002	-98,769997	2020-10-29T19:49:25:464
57,959999	-108,570000	-111,300003	2020-10-29T19:49:25:483
7,350000	-108,010002	-120,959999	2020-10-29T19:49:25:506
-42,279999	-103,739998	-133,559998	2020-10-29T19:49:25:522
-83,160004	-97,510002	-148,330002	2020-10-29T19:49:25:544
-103,949997	-88,830002	-160,020004	2020-10-29T19:49:25:562
-104,790001	-78,260002	-167,229996	2020-10-29T19:49:25:585
-91,349998	-62,020000	-170,100006	2020-10-29T19:49:25:604
-66,709999	-43,610001	-166,669998	2020-10-29T19:49:25:624
-37,099998	-29,330000	-160,300003	2020-10-29T19:49:25:642
-11,340000	-24,010000	-153,369995	2020-10-29T19:49:25:665
9,730000	-17,920000	-144,759995	2020-10-29T19:49:25:683
24,150000	-9,870000	-134,539993	2020-10-29T19:49:25:705
38,779999	-0,210000	-121,940002	2020-10-29T19:49:25:722
60,619999	9,170000	-107,730003	2020-10-29T19:49:25:745
82,669998	20,370001	-90,019997	2020-10-29T19:49:25:763
94,779999	9,450000	-75,809998	2020-10-29T19:49:25:784
100,169998	0,630000	-45,920002	2020-10-29T19:49:25:803
104,510002	7,210000	-7,560000	2020-10-29T19:49:25:826
55,580002	40,040001	28,840000	2020-10-29T19:49:25:843
-23,170000	68,669998	59,500000	2020-10-29T19:49:25:864
-65,239998	65,169998	103,110001	2020-10-29T19:49:25:883
-59,220001	52,709999	140,559998	2020-10-29T19:49:25:906
-38,150002	46,200001	156,380005	2020-10-29T19:49:25:923
-17,150000	46,270000	158,199997	2020-10-29T19:49:25:945
14,420000	40,389999	156,869995	2020-10-29T19:49:25:962
47,250000	31,010000	154,279999	2020-10-29T19:49:25:986
66,849998	22,680000	145,250000	2020-10-29T19:49:26:003
50,750000	24,710001	134,610001	2020-10-29T19:49:26:025
13,020000	28,070000	122,989998	2020-10-29T19:49:26:043
-45,009998	29,960001	111,300003	2020-10-29T19:49:26:066
-110,110001	34,439999	100,940002	2020-10-29T19:49:26:083
-162,399994	37,380001	91,910004	2020-10-29T19:49:26:106
-200,130005	36,049999	82,949997	2020-10-29T19:49:26:122
-223,649994	34,580002	77,559998	2020-10-29T19:49:26:146
-231,699997	33,740002	74,830002	2020-10-29T19:49:26:163
-221,970001	32,830002	72,099998	2020-10-29T19:49:26:185
-193,899994	31,570000	71,260002	2020-10-29T19:49:26:203
-152,740005	34,299999	74,059998	2020-10-29T19:49:26:226
-105,910004	41,580002	78,959999	2020-10-29T19:49:26:243
-66,570000	46,689999	81,620003	2020-10-29T19:49:26:265
-46,340000	48,860001	80,570000	2020-10-29T19:49:26:283
-32,830002	52,080002	78,400002	2020-10-29T19:49:26:307
-26,320000	53,410000	72,099998	2020-10-29T19:49:26:324
-29,330000	52,009998	60,830002	2020-10-29T19:49:26:345
-34,160000	71,470001	53,130001	2020-10-29T19:49:26:363
-30,870001	66,430000	40,810001	2020-10-29T19:49:26:387
-21,840000	46,340000	13,160000	2020-10-29T19:49:26:404
-21,139999	52,779999	-6,790000	2020-10-29T19:49:26:425
-47,950001	62,510002	-39,060001	2020-10-29T19:49:26:443
-71,750000	62,650002	-72,519997	2020-10-29T19:49:26:466
-94,080002	59,220001	-115,290001	2020-10-29T19:49:26:483
-129,009995	60,549999	-142,380005	2020-10-29T19:49:26:506
-149,520004	47,810001	-121,800003	2020-10-29T19:49:26:523
-195,020004	22,190001	-96,110001	2020-10-29T19:49:26:546
-280,630005	32,619999	-66,290001	2020-10-29T19:49:26:563
-274,329987	54,810001	-6,930000	2020-10-29T19:49:26:585
-202,440002	35,700001	26,809999	2020-10-29T19:49:26:605
-96,879997	0,350000	27,650000	2020-10-29T19:49:26:627
1,050000	-4,620000	21,210001	2020-10-29T19:49:26:645
64,120003	-4,130000	22,889999	2020-10-29T19:49:26:665
65,730003	-16,379999	13,160000	2020-10-29T19:49:26:684
43,259998	-28,000000	4,690000	2020-10-29T19:49:26:708
37,450001	-37,170002	0,210000	2020-10-29T19:49:26:724
55,860001	-44,170002	1,050000	2020-10-29T19:49:26:746
82,529999	-41,090000	3,010000	2020-10-29T19:49:26:765
110,250000	-41,650002	3,500000	2020-10-29T19:49:26:787
137,619995	-53,689999	0,420000	2020-10-29T19:49:26:806
159,669998	-63,770000	-3,570000	2020-10-29T19:49:26:826
174,089996	-67,900002	-5,740000	2020-10-29T19:49:26:844
181,580002	-72,590004	-7,420000	2020-10-29T19:49:26:867
170,729996	-74,340004	-15,610000	2020-10-29T19:49:26:883
150,149994	-77,769997	-27,440001	2020-10-29T19:49:26:906
129,360001	-82,040001	-43,820000	2020-10-29T19:49:26:924
111,160004	-90,019997	-64,400002	2020-10-29T19:49:26:947
87,779999	-95,410004	-87,220001	2020-10-29T19:49:26:963
54,740002	-98,209999	-113,400002	2020-10-29T19:49:26:986
13,650000	-86,590004	-136,430008	2020-10-29T19:49:27:004
-27,020000	-56,490002	-148,539993	2020-10-29T19:49:27:027
-64,540001	-53,619999	-167,649994	2020-10-29T19:49:27:046
-74,970001	-30,730000	-171,500000	2020-10-29T19:49:27:066
-50,889999	4,690000	-156,940002	2020-10-29T19:49:27:084
-15,960000	17,219999	-147,070007	2020-10-29T19:49:27:107
35,070000	22,260000	-134,539993	2020-10-29T19:49:27:124
90,300003	29,960001	-119,840004	2020-10-29T19:49:27:146
131,389999	39,060001	-101,360001	2020-10-29T19:49:27:164
150,710007	34,230000	-85,400002	2020-10-29T19:49:27:187
145,740005	19,879999	-76,790001	2020-10-29T19:49:27:206
117,040001	8,820000	-69,580002	2020-10-29T19:49:27:226
74,410004	3,570000	-55,930000	2020-10-29T19:49:27:244
25,830000	0,560000	-42,070000	2020-10-29T19:49:27:267
-19,110001	1,820000	-28,210001	2020-10-29T19:49:27:285
-43,680000	3,570000	-11,760000	2020-10-29T19:49:27:306
-48,720001	7,490000	7,490000	2020-10-29T19:49:27:324
-43,540001	13,930000	29,820000	2020-10-29T19:49:27:347
-33,529999	18,760000	52,639999	2020-10-29T19:49:27:364
-22,120001	22,330000	75,110001	2020-10-29T19:49:27:386
-15,400000	27,090000	97,860001	2020-10-29T19:49:27:405
-18,480000	33,670002	120,959999	2020-10-29T19:49:27:427
-27,790001	40,180000	143,850006	2020-10-29T19:49:27:444
-38,990002	45,990002	165,410004	2020-10-29T19:49:27:466
-48,369999	51,240002	184,869995	2020-10-29T19:49:27:484
-51,029999	57,610001	203,070007	2020-10-29T19:49:27:508
-45,990002	64,540001	219,240005	2020-10-29T19:49:27:526
-31,710001	71,400002	232,119995	2020-10-29T19:49:27:547
-3,570000	75,180000	236,180008	2020-10-29T19:49:27:564
39,689999	70,980003	226,240005	2020-10-29T19:49:27:588
111,930000	80,639999	206,710007	2020-10-29T19:49:27:605
212,800003	68,809998	174,860001	2020-10-29T19:49:27:626
311,989990	20,299999	130,970001	2020-10-29T19:49:27:645
359,380005	4,480000	87,849998	2020-10-29T19:49:27:667
311,010010	-7,070000	35,209999	2020-10-29T19:49:27:684
183,050003	-20,719999	-5,670000	2020-10-29T19:49:27:707
46,340000	-24,010000	-28,770000	2020-10-29T19:49:27:733
-57,610001	-14,980000	-40,810001	2020-10-29T19:49:27:747
-121,449997	-17,219999	-55,720001	2020-10-29T19:49:27:766
-145,669998	-36,820000	-72,029999	2020-10-29T19:49:27:786
-127,190002	-56,349998	-85,190002	2020-10-29T19:49:27:806
-77,489998	-62,650002	-92,820000	2020-10-29T19:49:27:828
-10,500000	-69,580002	-97,370003	2020-10-29T19:49:27:845
55,369999	-90,440002	-105,699997	2020-10-29T19:49:27:866
95,830002	-107,730003	-113,050003	2020-10-29T19:49:27:885
109,199997	-120,190002	-120,050003	2020-10-29T19:49:27:908
100,309998	-127,610001	-129,570007	2020-10-29T19:49:27:924
76,440002	-128,800003	-139,930008	2020-10-29T19:49:27:947
46,759998	-124,739998	-149,729996	2020-10-29T19:49:27:965
14,840000	-113,889999	-154,979996	2020-10-29T19:49:27:988
-15,400000	-100,800003	-155,750000	2020-10-29T19:49:28:006
-37,520000	-89,389999	-152,389999	2020-10-29T19:49:28:026
-47,180000	-76,860001	-142,660004	2020-10-29T19:49:28:044
-48,580002	-63,560001	-128,869995	2020-10-29T19:49:28:068
-42,209999	-55,299999	-113,120003	2020-10-29T19:49:28:085
-29,889999	-54,180000	-99,750000	2020-10-29T19:49:28:107
-16,940001	-50,189999	-86,800003	2020-10-29T19:49:28:125
-10,080000	-44,380001	-76,090004	2020-10-29T19:49:28:149
-16,170000	-43,189999	-67,059998	2020-10-29T19:49:28:165
-24,639999	-29,049999	-54,250000	2020-10-29T19:49:28:187
-34,020000	-13,020000	-36,189999	2020-10-29T19:49:28:206
-40,389999	-8,610000	-19,809999	2020-10-29T19:49:28:228
-35,349998	10,990000	4,340000	2020-10-29T19:49:28:246
-19,040001	30,590000	34,299999	2020-10-29T19:49:28:267
7,630000	41,160000	60,340000	2020-10-29T19:49:28:285
35,490002	50,189999	82,040001	2020-10-29T19:49:28:309
53,619999	63,770000	101,779999	2020-10-29T19:49:28:325
51,799999	81,199997	121,309998	2020-10-29T19:49:28:347
33,250000	93,870003	136,430008	2020-10-29T19:49:28:365
14,770000	94,290001	143,779999	2020-10-29T19:49:28:388
-1,750000	82,110001	142,309998	2020-10-29T19:49:28:406
-13,650000	68,040001	136,149994	2020-10-29T19:49:28:427
-20,510000	58,869999	132,020004	2020-10-29T19:49:28:445
-20,440001	52,639999	123,480003	2020-10-29T19:49:28:468
-14,000000	48,090000	112,489998	2020-10-29T19:49:28:486
0,070000	46,060001	101,360001	2020-10-29T19:49:28:508
13,440001	45,990002	90,930000	2020-10-29T19:49:28:525
12,600000	46,970001	80,360001	2020-10-29T19:49:28:548
-9,870000	46,130001	68,389999	2020-10-29T19:49:28:565
-45,080002	45,570000	58,799999	2020-10-29T19:49:28:587
-87,500000	41,580002	52,360001	2020-10-29T19:49:28:606
-138,110001	31,430000	45,009998	2020-10-29T19:49:28:628
-186,690002	28,490000	42,279999	2020-10-29T19:49:28:645
-223,649994	29,960001	43,750000	2020-10-29T19:49:28:667
-244,790009	32,340000	48,580002	2020-10-29T19:49:28:685
-245,770004	35,000000	55,930000	2020-10-29T19:49:28:709
-225,050003	36,889999	65,309998	2020-10-29T19:49:28:727
-189,490005	39,200001	75,669998	2020-10-29T19:49:28:747
-138,809998	45,080002	87,500000	2020-10-29T19:49:28:766
-80,360001	50,959999	94,220001	2020-10-29T19:49:28:788
-27,020000	59,430000	91,699997	2020-10-29T19:49:28:806
32,970001	70,910004	89,599998	2020-10-29T19:49:28:827
83,790001	51,099998	66,919998	2020-10-29T19:49:28:846
101,500000	32,689999	40,459999	2020-10-29T19:49:28:868
29,750000	6,510000	-0,350000	2020-10-29T19:49:28:886
-108,989998	-12,180000	-40,250000	2020-10-29T19:49:28:908
-238,910004	-16,660000	-65,379997	2020-10-29T19:49:28:926
-308,910004	-12,250000	-90,300003	2020-10-29T19:49:28:948
-316,470001	3,080000	-109,129997	2020-10-29T19:49:28:965
-289,380005	25,129999	-124,250000	2020-10-29T19:49:28:988
-238,910004	37,520000	-137,550003	2020-10-29T19:49:29:005
-157,710007	41,160000	-146,020004	2020-10-29T19:49:29:028
-56,139999	37,730000	-152,600006	2020-10-29T19:49:29:045
50,470001	23,240000	-152,809998	2020-10-29T19:49:29:067
193,970001	-0,980000	-146,649994	2020-10-29T19:49:29:086
306,390015	-33,529999	-113,750000	2020-10-29T19:49:29:109
352,100006	-57,540001	-116,199997	2020-10-29T19:49:29:126
380,309998	-86,940002	-112,000000	2020-10-29T19:49:29:148
345,589996	-115,639999	-107,590004	2020-10-29T19:49:29:166
236,809998	-119,279999	-112,139999	2020-10-29T19:49:29:192
113,750000	-101,570000	-117,459999	2020-10-29T19:49:29:208
14,840000	-80,500000	-118,440002	2020-10-29T19:49:29:228
-97,230003	-56,910000	-109,830002	2020-10-29T19:49:29:246
-147,210007	-45,009998	-104,580002	2020-10-29T19:49:29:269
-173,320007	-36,119999	-95,199997	2020-10-29T19:49:29:286
-173,110001	-24,219999	-78,610001	2020-10-29T19:49:29:308
-149,169998	-14,840000	-57,610001	2020-10-29T19:49:29:326
-111,090004	-12,320000	-37,310001	2020-10-29T19:49:29:349
-63,139999	-9,520000	-17,219999	2020-10-29T19:49:29:366
-14,420000	-7,140000	3,570000	2020-10-29T19:49:29:388
22,820000	-6,020000	23,520000	2020-10-29T19:49:29:407
48,720001	-9,310000	39,759998	2020-10-29T19:49:29:430
61,670002	-11,620000	52,150002	2020-10-29T19:49:29:447
53,410000	4,410000	67,620003	2020-10-29T19:49:29:468
31,219999	19,950001	85,260002	2020-10-29T19:49:29:486
2,870000	7,910000	85,680000	2020-10-29T19:49:29:510
-22,680000	9,660000	87,849998	2020-10-29T19:49:29:526
-45,570000	21,350000	100,940002	2020-10-29T19:49:29:548
-65,449997	23,660000	106,680000	2020-10-29T19:49:29:566
-81,690002	28,000000	110,739998	2020-10-29T19:49:29:589
-85,680000	49,910000	124,739998	2020-10-29T19:49:29:606
-68,180000	57,680000	136,430008	2020-10-29T19:49:29:628
-34,230000	40,950001	128,029999	2020-10-29T19:49:29:646
16,940001	19,879999	110,599998	2020-10-29T19:49:29:669
66,849998	0,770000	95,059998	2020-10-29T19:49:29:686
81,620003	-10,290000	78,610001	2020-10-29T19:49:29:709
50,540001	-17,850000	58,240002	2020-10-29T19:49:29:726
-15,190001	-20,790001	38,290001	2020-10-29T19:49:29:750
-92,889999	-16,170000	26,740000	2020-10-29T19:49:29:767
-168,000000	-13,160000	20,719999	2020-10-29T19:49:29:788
-242,619995	-14,770000	13,020000	2020-10-29T19:49:29:807
-304,500000	-19,180000	5,880000	2020-10-29T19:49:29:830
-337,119995	-23,450001	5,460000	2020-10-29T19:49:29:846
-335,720001	-26,809999	14,280000	2020-10-29T19:49:29:868
-305,899994	-26,530001	30,799999	2020-10-29T19:49:29:886
-251,300003	-25,340000	51,799999	2020-10-29T19:49:29:910
-172,270004	-24,010000	76,370003	2020-10-29T19:49:29:927
-81,830002	-20,160000	99,750000	2020-10-29T19:49:29:950
5,180000	-9,310000	119,629997	2020-10-29T19:49:29:966
78,190002	4,410000	131,809998	2020-10-29T19:49:29:990
145,320007	16,799999	137,479996	2020-10-29T19:49:30:007
200,059998	23,590000	133,000000	2020-10-29T19:49:30:028
229,669998	28,280001	119,000000	2020-10-29T19:49:30:047
222,110001	29,330000	96,180000	2020-10-29T19:49:30:070
171,710007	23,309999	67,690002	2020-10-29T19:49:30:087
97,860001	16,870001	43,959999	2020-10-29T19:49:30:109
31,430000	13,020000	27,440001	2020-10-29T19:49:30:127
-13,930000	5,670000	13,020000	2020-10-29T19:49:30:150
-43,189999	-4,060000	-1,540000	2020-10-29T19:49:30:167
-57,540001	-12,950000	-15,330000	2020-10-29T19:49:30:190
-47,599998	-24,080000	-26,809999	2020-10-29T19:49:30:207
-20,790001	-26,950001	-31,430000	2020-10-29T19:49:30:230
26,740000	-1,680000	-22,960001	2020-10-29T19:49:30:247
93,449997	-11,200000	-25,900000	2020-10-29T19:49:30:269
143,850006	-82,180000	-72,870003	2020-10-29T19:49:30:287
156,869995	-96,669998	-112,279999	2020-10-29T19:49:30:311
176,820007	-88,269997	-160,229996	2020-10-29T19:49:30:327
150,639999	-114,099998	-208,039993	2020-10-29T19:49:30:349
98,139999	-120,540001	-250,180008	2020-10-29T19:49:30:367
51,099998	-130,479996	-283,850006	2020-10-29T19:49:30:390
10,150000	-137,479996	-310,450012	2020-10-29T19:49:30:409
-25,760000	-140,350006	-325,920013	2020-10-29T19:49:30:429
-45,220001	-133,910004	-331,029999	2020-10-29T19:49:30:447
-44,939999	-121,660004	-325,570007	2020-10-29T19:49:30:470
-27,930000	-100,239998	-303,029999	2020-10-29T19:49:30:488
5,180000	-75,809998	-270,829987	2020-10-29T19:49:30:510
46,830002	-50,189999	-236,600006	2020-10-29T19:49:30:527
82,599998	-25,129999	-202,930008	2020-10-29T19:49:30:550
108,639999	-4,690000	-171,500000	2020-10-29T19:49:30:567
123,270004	10,290000	-143,289993	2020-10-29T19:49:30:589
127,820000	23,450001	-116,760002	2020-10-29T19:49:30:608
119,840004	37,170002	-89,739998	2020-10-29T19:49:30:630
100,800003	49,349998	-60,689999	2020-10-29T19:49:30:648
72,519997	63,840000	-30,030001	2020-10-29T19:49:30:669
34,930000	82,739998	2,170000	2020-10-29T19:49:30:687
-7,630000	103,110001	34,299999	2020-10-29T19:49:30:711
-53,060001	121,029999	64,820000	2020-10-29T19:49:30:727
-111,230003	140,210007	88,129997	2020-10-29T19:49:30:749
-191,380005	151,759995	107,169998	2020-10-29T19:49:30:768
-260,260010	157,990005	133,000000	2020-10-29T19:49:30:790
-291,549988	169,470001	167,369995	2020-10-29T19:49:30:808
-295,890015	168,139999	193,619995	2020-10-29T19:49:30:830
-246,889999	150,779999	212,240005	2020-10-29T19:49:30:847
-133,910004	123,830002	232,190002	2020-10-29T19:49:30:871
39,830002	78,120003	223,229996	2020-10-29T19:49:30:888
224,000000	66,430000	185,009995	2020-10-29T19:49:30:909
399,910004	45,150002	156,729996	2020-10-29T19:49:30:927
492,730011	-9,870000	106,750000	2020-10-29T19:49:30:950
485,380005	-76,230003	33,599998	2020-10-29T19:49:30:968
335,019989	-105,209999	-29,750000	2020-10-29T19:49:30:989
90,230003	-102,760002	-62,650002	2020-10-29T19:49:31:008
-109,690002	-69,650002	-58,310001	2020-10-29T19:49:31:031
-239,889999	-40,250000	-64,260002	2020-10-29T19:49:31:048
-327,390015	-31,920000	-80,150002	2020-10-29T19:49:31:070
-382,200012	-37,799999	-99,330002	2020-10-29T19:49:31:088
-396,339996	-44,170002	-114,590004	2020-10-29T19:49:31:112
-348,040009	-46,619999	-117,250000	2020-10-29T19:49:31:129
-258,160004	-45,220001	-124,739998	2020-10-29T19:49:31:150
-170,240005	-46,200001	-136,149994	2020-10-29T19:49:31:167
-111,790001	-44,380001	-149,449997	2020-10-29T19:49:31:191
-40,389999	-40,040001	-154,910004	2020-10-29T19:49:31:208
22,400000	-35,560001	-163,029999	2020-10-29T19:49:31:230
59,709999	-33,810001	-181,160004	2020-10-29T19:49:31:248
60,480000	-29,540001	-206,360001	2020-10-29T19:49:31:271
39,830002	-23,520000	-229,040009	2020-10-29T19:49:31:288
42,070000	-20,510000	-250,460007	2020-10-29T19:49:31:311
45,990002	-20,580000	-270,059998	2020-10-29T19:49:31:328
42,560001	-20,580000	-288,750000	2020-10-29T19:49:31:350
70,629997	-10,360000	-304,220001	2020-10-29T19:49:31:369
118,090004	5,670000	-315,209991	2020-10-29T19:49:31:390
125,370003	4,830000	-325,570007	2020-10-29T19:49:31:408
103,529999	-21,980000	-306,950012	2020-10-29T19:49:31:431
68,599998	-39,830002	-285,320007	2020-10-29T19:49:31:448
52,990002	-50,680000	-252,979996	2020-10-29T19:49:31:470
95,199997	-59,570000	-212,029999	2020-10-29T19:49:31:488
124,389999	-68,459999	-175,910004	2020-10-29T19:49:31:512
96,180000	-71,540001	-155,539993	2020-10-29T19:49:31:528
56,000000	-67,269997	-143,289993	2020-10-29T19:49:31:550
-2,380000	-55,299999	-140,630005	2020-10-29T19:49:31:568
-50,400002	-44,380001	-139,930008	2020-10-29T19:49:31:591
-77,769997	-39,060001	-134,960007	2020-10-29T19:49:31:610
-93,029999	-50,470001	-117,250000	2020-10-29T19:49:31:630
-106,190002	-58,170002	-99,540001	2020-10-29T19:49:31:648
-115,779999	-46,549999	-67,550003	2020-10-29T19:49:31:672
-119,629997	-38,920002	-40,670002	2020-10-29T19:49:31:688
-103,949997	-11,970000	-30,590000	2020-10-29T19:49:31:711
-78,610001	29,330000	-25,270000	2020-10-29T19:49:31:729
-23,940001	72,449997	-20,090000	2020-10-29T19:49:31:752
42,770000	107,449997	-17,290001	2020-10-29T19:49:31:768
74,059998	118,300003	-15,820000	2020-10-29T19:49:31:790
46,970001	113,120003	-20,510000	2020-10-29T19:49:31:809
19,389999	103,599998	-35,700001	2020-10-29T19:49:31:831
47,599998	96,250000	-50,820000	2020-10-29T19:49:31:850
69,720001	98,000000	-57,049999	2020-10-29T19:49:31:870
80,639999	94,080002	-56,700001	2020-10-29T19:49:31:888
86,169998	96,599998	-48,369999	2020-10-29T19:49:31:912
85,330002	105,980003	-40,599998	2020-10-29T19:49:31:929
92,750000	108,360001	-30,590000	2020-10-29T19:49:31:950
82,040001	105,000000	-29,049999	2020-10-29T19:49:31:969
68,040001	101,779999	-28,000000	2020-10-29T19:49:31:992
67,690002	101,220001	-23,309999	2020-10-29T19:49:32:009
78,330002	101,360001	-16,590000	2020-10-29T19:49:32:031
83,230003	104,440002	-10,360000	2020-10-29T19:49:32:049
94,570000	103,669998	-5,460000	2020-10-29T19:49:32:072
103,949997	103,389999	-3,430000	2020-10-29T19:49:32:090
112,349998	100,519997	-3,150000	2020-10-29T19:49:32:111
122,919998	96,599998	-7,350000	2020-10-29T19:49:32:128
134,750000	94,709999	-14,630000	2020-10-29T19:49:32:152
155,680008	91,559998	-25,270000	2020-10-29T19:49:32:169
167,369995	94,570000	-40,740002	2020-10-29T19:49:32:191
173,949997	102,129997	-54,670002	2020-10-29T19:49:32:209
197,050003	110,110001	-59,360001	2020-10-29T19:49:32:232
199,990005	107,730003	-75,739998	2020-10-29T19:49:32:249
196,070007	102,620003	-76,580002	2020-10-29T19:49:32:271
157,430008	93,870003	-98,279999	2020-10-29T19:49:32:289
135,800003	84,699997	-89,320000	2020-10-29T19:49:32:314
124,739998	63,770000	-83,580002	2020-10-29T19:49:32:534
119,489998	31,990000	-77,070000	2020-10-29T19:49:32:534
72,239998	-12,600000	-66,639999	2020-10-29T19:49:32:535
10,640000	-83,370003	-29,610001	2020-10-29T19:49:32:535
-138,389999	-155,259995	6,370000	2020-10-29T19:49:32:536
-282,170013	-216,160004	33,529999	2020-10-29T19:49:32:536
-348,600006	-262,570007	47,180000	2020-10-29T19:49:32:537
-314,230011	-313,880005	41,930000	2020-10-29T19:49:32:537
-232,470001	-340,130005	11,830000	2020-10-29T19:49:32:542
-199,220001	-350,420013	16,450001	2020-10-29T19:49:32:543
-241,220001	-351,470001	34,090000	2020-10-29T19:49:32:543
-305,690002	-349,089996	56,420002	2020-10-29T19:49:32:558
-313,390015	-347,899994	68,949997	2020-10-29T19:49:32:574
-249,899994	-367,290009	102,269997	2020-10-29T19:49:32:594
-188,720001	-377,019989	149,029999	2020-10-29T19:49:32:614
-123,129997	-372,959991	201,389999	2020-10-29T19:49:32:632
-58,240002	-363,230011	252,979996	2020-10-29T19:49:32:657
7,700000	-350,489990	292,179993	2020-10-29T19:49:32:842
65,379997	-330,959991	318,360016	2020-10-29T19:49:32:868
110,040001	-304,709991	325,149994	2020-10-29T19:49:32:871
157,430008	-263,130005	316,260010	2020-10-29T19:49:32:872
232,680008	-212,729996	332,220001	2020-10-29T19:49:32:872
232,750000	-129,500000	331,239990	2020-10-29T19:49:32:873
158,199997	-64,190002	304,149994	2020-10-29T19:49:32:874
-7,210000	-46,619999	285,320007	2020-10-29T19:49:32:878
-258,510010	-60,060001	229,180008	2020-10-29T19:49:32:878
-365,470001	-100,379997	199,220001	2020-10-29T19:49:32:879
-218,119995	-150,850006	222,460007	2020-10-29T19:49:32:883
17,570000	-168,210007	256,130005	2020-10-29T19:49:32:891
231,279999	-145,110001	323,750000	2020-10-29T19:49:32:926
299,179993	-103,180000	356,299988	2020-10-29T19:49:32:949
253,750000	-55,230000	351,679993	2020-10-29T19:49:32:982
183,470001	-16,660000	338,239990	2020-10-29T19:49:32:982
145,320007	-10,220000	343,910004	2020-10-29T19:49:33:048
127,330002	-1,890000	342,720001	2020-10-29T19:49:33:091
125,090004	7,140000	334,179993	2020-10-29T19:49:33:093
128,029999	9,870000	324,869995	2020-10-29T19:49:33:096
163,169998	13,650000	317,309998	2020-10-29T19:49:33:100
228,690002	16,379999	309,610016	2020-10-29T19:49:33:100
290,220001	21,700001	293,089996	2020-10-29T19:49:33:117
330,049988	40,880001	263,410004	2020-10-29T19:49:33:134
336,700012	58,450001	221,899994	2020-10-29T19:49:33:176
315,980011	68,529999	170,380005	2020-10-29T19:49:33:177
271,950012	66,150002	118,160004	2020-10-29T19:49:33:191
191,660004	51,939999	65,099998	2020-10-29T19:49:33:207
72,449997	44,869999	14,420000	2020-10-29T19:49:33:233
-63,139999	47,250000	-24,500000	2020-10-29T19:49:33:249
-177,309998	47,670002	-53,340000	2020-10-29T19:49:33:272
-238,139999	43,259998	-65,309998	2020-10-29T19:49:33:302
-247,729996	37,170002	-60,900002	2020-10-29T19:49:33:325
-224,559998	31,500000	-52,779999	2020-10-29T19:49:33:344
-172,830002	20,719999	-44,520000	2020-10-29T19:49:33:358
-97,230003	4,340000	-34,930000	2020-10-29T19:49:33:374
-12,110000	-10,990000	-26,110001	2020-10-29T19:49:33:392
66,150002	-23,240000	-19,740000	2020-10-29T19:49:33:414
126,980003	-35,630001	-19,180000	2020-10-29T19:49:33:435
171,430008	-52,639999	-21,280001	2020-10-29T19:49:33:453
192,149994	-71,540001	-27,860001	2020-10-29T19:49:33:474
180,669998	-87,360001	-36,820000	2020-10-29T19:49:33:491
140,210007	-96,320000	-46,900002	2020-10-29T19:49:33:514
83,230003	-97,650002	-59,360001	2020-10-29T19:49:33:536
27,510000	-93,660004	-71,120003	2020-10-29T19:49:33:556
-14,280000	-89,809998	-79,940002	2020-10-29T19:49:33:576
-51,310001	-85,400002	-86,099998	2020-10-29T19:49:33:602
-61,040001	-80,709999	-84,419998	2020-10-29T19:49:33:635
-59,639999	-78,330002	-79,519997	2020-10-29T19:49:33:635
-47,740002	-79,029999	-72,309998	2020-10-29T19:49:33:657
-37,099998	-78,120003	-65,590004	2020-10-29T19:49:33:674
-37,730000	-74,129997	-58,939999	2020-10-29T19:49:33:692
-39,270000	-68,599998	-51,869999	2020-10-29T19:49:33:711
-41,509998	-59,430000	-46,200001	2020-10-29T19:49:33:729
-47,180000	-48,439999	-40,810001	2020-10-29T19:49:33:752
-49,279999	-35,139999	-33,180000	2020-10-29T19:49:33:770
-43,400002	-22,049999	-23,030001	2020-10-29T19:49:33:792
-32,970001	-5,320000	-11,200000	2020-10-29T19:49:33:810
-11,900000	10,990000	3,990000	2020-10-29T19:49:33:834
20,719999	19,879999	18,549999	2020-10-29T19:49:33:850
60,410000	22,750000	31,360001	2020-10-29T19:49:33:872
96,599998	19,879999	41,509998	2020-10-29T19:49:33:890
122,080002	14,560000	48,439999	2020-10-29T19:49:33:914
130,270004	8,820000	51,520000	2020-10-29T19:49:33:930
118,930000	10,570000	53,200001	2020-10-29T19:49:33:953
91,000000	30,590000	64,400002	2020-10-29T19:49:33:970
51,660000	33,040001	71,120003	2020-10-29T19:49:33:993
14,140000	10,150000	54,250000	2020-10-29T19:49:34:012
-5,530000	-0,630000	45,430000	2020-10-29T19:49:34:032
-6,300000	-4,200000	37,310001	2020-10-29T19:49:34:050
-3,920000	-10,290000	18,270000	2020-10-29T19:49:34:073
-1,680000	-16,590000	-2,590000	2020-10-29T19:49:34:090
-6,580000	-11,620000	-24,920000	2020-10-29T19:49:34:113
-24,990000	9,380000	-38,779999	2020-10-29T19:49:34:131
-38,500000	19,950001	-42,910000	2020-10-29T19:49:34:154
-31,219999	1,050000	-42,490002	2020-10-29T19:49:34:170
-13,230000	-20,790001	-31,570000	2020-10-29T19:49:34:193
15,330000	-26,110001	-13,020000	2020-10-29T19:49:34:211
40,529999	-19,250000	3,710000	2020-10-29T19:49:34:234
49,630001	-12,810000	12,250000	2020-10-29T19:49:34:251
48,509998	-8,120000	12,530000	2020-10-29T19:49:34:273
44,310001	0,280000	8,260000	2020-10-29T19:49:34:291
40,180000	11,410000	1,400000	2020-10-29T19:49:34:314
44,730000	21,490000	-4,270000	2020-10-29T19:49:34:331
62,720001	31,290001	-6,930000	2020-10-29T19:49:34:353
88,269997	38,920002	-7,840000	2020-10-29T19:49:34:371
115,500000	41,509998	-8,470000	2020-10-29T19:49:34:396
137,830002	38,430000	-9,030000	2020-10-29T19:49:34:411
143,220001	35,070000	-12,180000	2020-10-29T19:49:34:439
141,190002	33,459999	-13,650000	2020-10-29T19:49:34:474
140,839996	30,100000	-14,420000	2020-10-29T19:49:34:478
138,600006	28,070000	-17,360001	2020-10-29T19:49:34:566
131,529999	29,889999	-22,610001	2020-10-29T19:49:34:568
125,230003	33,529999	-27,160000	2020-10-29T19:49:34:570
123,690002	36,750000	-31,639999	2020-10-29T19:49:34:570
124,529999	41,439999	-36,259998	2020-10-29T19:49:34:571
135,800003	48,299999	-37,099998	2020-10-29T19:49:34:592
162,050003	56,980000	-35,279999	2020-10-29T19:49:34:614
193,619995	61,880001	-33,389999	2020-10-29T19:49:34:634
219,800003	59,290001	-34,299999	2020-10-29T19:49:34:651
232,889999	45,779999	-41,509998	2020-10-29T19:49:34:692
224,490005	36,330002	-47,740002	2020-10-29T19:49:34:693
202,720001	28,910000	-54,810001	2020-10-29T19:49:34:720
168,770004	22,820000	-62,299999	2020-10-29T19:49:34:742
128,169998	18,270000	-69,300003	2020-10-29T19:49:34:752
86,590004	16,030001	-74,550003	2020-10-29T19:49:34:771
55,020000	15,610000	-75,949997	2020-10-29T19:49:34:793
34,439999	14,350000	-75,040001	2020-10-29T19:49:34:810
22,120001	13,580000	-72,099998	2020-10-29T19:49:34:831
17,780001	14,070000	-65,940002	2020-10-29T19:49:34:850
18,760000	14,000000	-56,840000	2020-10-29T19:49:34:874
21,350000	11,550000	-46,410000	2020-10-29T19:49:34:890
22,960001	7,350000	-36,119999	2020-10-29T19:49:34:914
22,750000	5,180000	-25,480000	2020-10-29T19:49:34:931
33,670002	5,250000	-8,400000	2020-10-29T19:49:34:955
49,910000	6,090000	7,840000	2020-10-29T19:49:34:972
62,160000	6,230000	22,049999	2020-10-29T19:49:34:994
71,540001	8,750000	34,580002	2020-10-29T19:49:35:012
80,639999	16,309999	44,380001	2020-10-29T19:49:35:035
92,260002	23,520000	49,139999	2020-10-29T19:49:35:051
90,860001	28,490000	45,220001	2020-10-29T19:49:35:074
74,269997	32,060001	37,029999	2020-10-29T19:49:35:091
50,049999	35,279999	28,000000	2020-10-29T19:49:35:116
36,959999	35,770000	23,030001	2020-10-29T19:49:35:131
35,000000	35,840000	22,820000	2020-10-29T19:49:35:154
31,219999	33,740002	23,170000	2020-10-29T19:49:35:172
29,120001	32,970001	21,210001	2020-10-29T19:49:35:196
32,619999	30,590000	22,120001	2020-10-29T19:49:35:222
38,290001	29,330000	25,549999	2020-10-29T19:49:35:243
39,759998	28,280001	23,450001	2020-10-29T19:49:35:256
37,380001	24,710001	23,309999	2020-10-29T19:49:35:277
32,549999	22,610001	21,210001	2020-10-29T19:49:35:359
23,450001	20,020000	15,750000	2020-10-29T19:49:35:360
17,010000	16,940001	11,620000	2020-10-29T19:49:35:362
9,240000	13,300000	4,970000	2020-10-29T19:49:35:364
4,900000	10,080000	-0,630000	2020-10-29T19:49:35:373
3,990000	7,490000	-6,090000	2020-10-29T19:49:35:395
5,530000	5,670000	-10,500000	2020-10-29T19:49:35:412
6,370000	3,850000	-14,980000	2020-10-29T19:49:35:435
6,160000	2,660000	-17,990000	2020-10-29T19:49:35:452
6,300000	2,170000	-19,040001	2020-10-29T19:49:35:475
7,140000	1,610000	-18,480000	2020-10-29T19:49:35:492
6,440000	1,680000	-17,150000	2020-10-29T19:49:35:517
3,500000	1,330000	-15,610000	2020-10-29T19:49:35:537
1,820000	1,400000	-14,070000	2020-10-29T19:49:35:556
3,150000	2,100000	-11,900000	2020-10-29T19:49:35:582
4,760000	2,590000	-10,220000	2020-10-29T19:49:35:597
4,200000	2,380000	-9,380000	2020-10-29T19:49:35:618
7,420000	2,800000	-7,560000	2020-10-29T19:49:35:638
9,730000	3,850000	-6,370000	2020-10-29T19:49:35:678
13,300000	4,200000	-3,850000	2020-10-29T19:49:35:679
15,120000	4,270000	-2,240000	2020-10-29T19:49:35:802
18,200001	5,040000	1,820000	2020-10-29T19:49:35:820
22,330000	5,530000	3,710000	2020-10-29T19:49:35:827
16,450001	6,090000	8,540000	2020-10-29T19:49:35:851
8,610000	5,600000	10,920000	2020-10-29T19:49:35:851
3,570000	5,110000	13,160000	2020-10-29T19:49:35:852
-0,350000	4,410000	14,210000	2020-10-29T19:49:35:853
-3,220000	2,660000	11,970000	2020-10-29T19:49:35:853
-4,760000	3,290000	12,810000	2020-10-29T19:49:35:863
-8,330000	2,520000	10,500000	2020-10-29T19:49:35:876
-8,330000	2,100000	9,100000	2020-10-29T19:49:35:896
-6,160000	2,030000	6,790000	2020-10-29T19:49:35:917
-3,220000	2,100000	5,810000	2020-10-29T19:49:35:934
0,560000	3,080000	6,160000	2020-10-29T19:49:35:987
2,800000	3,640000	6,020000	2020-10-29T19:49:35:987
5,250000	4,270000	6,650000	2020-10-29T19:49:36:102
5,460000	5,250000	6,720000	2020-10-29T19:49:36:102
5,040000	5,880000	7,000000	2020-10-29T19:49:36:103
7,840000	7,000000	6,930000	2020-10-29T19:49:36:103
13,790000	8,470000	6,790000	2020-10-29T19:49:36:104
21,070000	11,620000	6,090000	2020-10-29T19:49:36:104
23,450001	15,260000	3,360000	2020-10-29T19:49:36:122
12,040000	15,960000	-3,150000	2020-10-29T19:49:36:135
0,700000	14,560000	-7,420000	2020-10-29T19:49:36:214
-2,170000	12,180000	-9,450000	2020-10-29T19:49:36:227
3,360000	11,970000	-7,770000	2020-10-29T19:49:36:228
13,790000	11,900000	-3,850000	2020-10-29T19:49:36:228
21,490000	10,640000	-0,910000	2020-10-29T19:49:36:307
21,559999	9,590000	2,310000	2020-10-29T19:49:36:503
17,639999	7,980000	4,900000	2020-10-29T19:49:36:528
12,530000	6,440000	7,280000	2020-10-29T19:49:36:548
6,440000	4,970000	9,940000	2020-10-29T19:49:36:568
-1,680000	3,220000	11,410000	2020-10-29T19:49:36:571
-9,450000	1,820000	11,620000	2020-10-29T19:49:36:572
-18,830000	0,700000	10,500000	2020-10-29T19:49:36:572
-35,840000	-0,070000	5,320000	2020-10-29T19:49:36:572
-55,650002	0,840000	-3,640000	2020-10-29T19:49:36:573
-70,139999	5,460000	-12,250000	2020-10-29T19:49:36:575
-78,330002	13,650000	-18,059999	2020-10-29T19:49:36:575
-62,720001	19,600000	-20,510000	2020-10-29T19:49:36:575
-17,920000	19,180000	-14,770000	2020-10-29T19:49:36:576
40,320000	14,700000	-2,870000	2020-10-29T19:49:36:576
91,000000	6,510000	11,130000	2020-10-29T19:49:36:577
127,260002	3,430000	22,120001	2020-10-29T19:49:36:577
143,570007	1,960000	27,860001	2020-10-29T19:49:36:578
145,320007	0,560000	25,410000	2020-10-29T19:49:36:593
146,089996	-2,030000	19,320000	2020-10-29T19:49:36:611
143,289993	-4,340000	14,980000	2020-10-29T19:49:36:635
121,940002	-5,530000	7,910000	2020-10-29T19:49:36:654
86,379997	-6,930000	-2,030000	2020-10-29T19:49:36:675
49,279999	-9,170000	-11,900000	2020-10-29T19:49:36:694
16,660000	-11,130000	-20,160000	2020-10-29T19:49:36:717
-7,770000	-12,880000	-25,900000	2020-10-29T19:49:36:733
-25,690001	-14,210000	-30,100000	2020-10-29T19:49:36:756
-36,049999	-14,770000	-33,180000	2020-10-29T19:49:36:787
-36,889999	-13,790000	-34,439999	2020-10-29T19:49:36:827
-33,180000	-12,110000	-34,160000	2020-10-29T19:49:36:827
-23,870001	-9,450000	-31,920000	2020-10-29T19:49:36:842
-14,910000	-4,130000	-28,700001	2020-10-29T19:49:36:864
-5,460000	-0,350000	-24,080000	2020-10-29T19:49:36:886
2,590000	4,340000	-17,990000	2020-10-29T19:49:36:902
8,680000	8,540000	-10,290000	2020-10-29T19:49:36:914
11,550000	11,830000	-2,870000	2020-10-29T19:49:36:937
13,370000	14,560000	4,690000	2020-10-29T19:49:36:962
16,590000	15,540000	13,580000	2020-10-29T19:49:36:977
19,460001	15,750000	19,180000	2020-10-29T19:49:37:003
12,110000	15,400000	18,410000	2020-10-29T19:49:37:013
-1,330000	13,790000	16,660000	2020-10-29T19:49:37:040
-13,510000	9,240000	14,700000	2020-10-29T19:49:37:057
-23,030001	6,020000	12,110000	2020-10-29T19:49:37:084
-21,000000	6,020000	10,640000	2020-10-29T19:49:37:093
-9,310000	8,960000	11,060000	2020-10-29T19:49:37:118
8,750000	12,740000	13,720000	2020-10-29T19:49:37:136
22,750000	17,850000	16,799999	2020-10-29T19:49:37:159
33,740002	24,219999	20,299999	2020-10-29T19:49:37:172
43,540001	32,340000	26,389999	2020-10-29T19:49:37:245
58,170002	40,670002	36,889999	2020-10-29T19:49:37:250
84,559998	45,570000	48,860001	2020-10-29T19:49:37:251
117,389999	48,090000	57,189999	2020-10-29T19:49:37:253
162,470001	50,470001	63,279999	2020-10-29T19:49:37:276
210,070007	52,849998	62,790001	2020-10-29T19:49:37:295
241,360001	57,049999	55,299999	2020-10-29T19:49:37:318
217,000000	54,529999	35,420002	2020-10-29T19:49:37:333
147,350006	50,889999	13,090000	2020-10-29T19:49:37:357
71,400002	40,040001	-9,170000	2020-10-29T19:49:37:386
35,770000	28,210001	-25,200001	2020-10-29T19:49:37:400
47,389999	19,600000	-32,830002	2020-10-29T19:49:37:421
79,169998	13,860000	-40,599998	2020-10-29T19:49:37:438
112,209999	9,380000	-43,259998	2020-10-29T19:49:37:455
125,230003	6,370000	-46,970001	2020-10-29T19:49:37:477
115,779999	5,530000	-51,660000	2020-10-29T19:49:37:495
97,370003	7,350000	-54,670002	2020-10-29T19:49:37:519
79,449997	10,570000	-56,279999	2020-10-29T19:49:37:542
63,420002	15,750000	-55,790001	2020-10-29T19:49:37:621
50,820000	22,330000	-52,709999	2020-10-29T19:49:37:622
41,090000	28,630001	-48,299999	2020-10-29T19:49:37:623
38,779999	34,580002	-42,840000	2020-10-29T19:49:37:624
47,040001	39,270000	-36,049999	2020-10-29T19:49:37:663
68,320000	41,790001	-27,370001	2020-10-29T19:49:37:663
93,660004	39,480000	-20,370001	2020-10-29T19:49:37:678
123,970001	30,309999	-12,950000	2020-10-29T19:49:37:694
150,220001	24,150000	-1,470000	2020-10-29T19:49:37:739
155,680008	18,830000	2,170000	2020-10-29T19:49:37:739
154,279999	17,990000	4,620000	2020-10-29T19:49:37:756
145,600006	16,799999	7,070000	2020-10-29T19:49:37:778
128,100006	14,000000	5,320000	2020-10-29T19:49:37:796
114,590004	12,600000	1,820000	2020-10-29T19:49:37:824
108,639999	14,560000	0,350000	2020-10-29T19:49:37:836
106,959999	18,410000	-0,420000	2020-10-29T19:49:37:854
104,790001	22,469999	-0,140000	2020-10-29T19:49:37:878
101,570000	24,920000	0,700000	2020-10-29T19:49:37:895
93,660004	26,110001	2,660000	2020-10-29T19:49:37:918
82,110001	28,000000	5,040000	2020-10-29T19:49:37:937
74,550003	28,770000	7,210000	2020-10-29T19:49:37:956
65,519997	29,750000	9,100000	2020-10-29T19:49:37:987
55,930000	29,400000	9,660000	2020-10-29T19:49:38:003
45,430000	29,120001	9,170000	2020-10-29T19:49:38:012
34,860001	31,639999	8,400000	2020-10-29T19:49:38:047
26,250000	41,509998	11,130000	2020-10-29T19:49:38:058
20,510000	36,119999	11,480000	2020-10-29T19:49:38:079
15,190001	24,430000	7,070000	2020-10-29T19:49:38:094
16,660000	19,040001	8,890000	2020-10-29T19:49:38:121
30,030001	10,290000	13,860000	2020-10-29T19:49:38:139
26,040001	-0,210000	13,580000	2020-10-29T19:49:38:162
7,000000	-8,820000	9,520000	2020-10-29T19:49:38:178
-17,430000	-16,030001	7,000000	2020-10-29T19:49:38:202
-58,310001	-22,469999	3,710000	2020-10-29T19:49:38:220
-101,570000	-28,910000	1,120000	2020-10-29T19:49:38:244
-141,190002	-31,920000	-2,100000	2020-10-29T19:49:38:258
-154,979996	-29,330000	1,890000	2020-10-29T19:49:38:277
-155,960007	-30,730000	10,430000	2020-10-29T19:49:38:293
-154,000000	-34,090000	11,130000	2020-10-29T19:49:38:317
-146,229996	-42,630001	7,560000	2020-10-29T19:49:38:355
-131,600006	-47,250000	3,920000	2020-10-29T19:49:38:357
-110,739998	-42,349998	3,080000	2020-10-29T19:49:38:381
-88,059998	-33,529999	4,970000	2020-10-29T19:49:38:396
-68,739998	-29,330000	12,110000	2020-10-29T19:49:38:415
-51,939999	-28,070000	23,660000	2020-10-29T19:49:38:436
-34,580002	-26,389999	40,320000	2020-10-29T19:49:38:456
-15,890000	-26,600000	56,070000	2020-10-29T19:49:38:497
10,990000	-24,780001	66,849998	2020-10-29T19:49:38:544
42,209999	-19,670000	67,059998	2020-10-29T19:49:38:545
71,959999	-11,900000	56,349998	2020-10-29T19:49:38:547
108,500000	-6,580000	43,189999	2020-10-29T19:49:38:569
139,580002	-3,640000	25,830000	2020-10-29T19:49:38:609
153,229996	-0,210000	6,020000	2020-10-29T19:49:38:610
144,970001	2,870000	-14,770000	2020-10-29T19:49:38:615
110,599998	3,710000	-35,209999	2020-10-29T19:49:38:637
59,430000	3,500000	-50,889999	2020-10-29T19:49:38:654
5,250000	0,630000	-61,250000	2020-10-29T19:49:38:678
-42,560001	-0,490000	-68,879997	2020-10-29T19:49:38:696
-77,840004	1,050000	-71,820000	2020-10-29T19:49:38:720
-102,620003	2,100000	-72,239998	2020-10-29T19:49:38:736
-112,910004	4,760000	-69,720001	2020-10-29T19:49:38:759
-105,769997	7,420000	-63,070000	2020-10-29T19:49:38:776
-88,199997	8,750000	-54,459999	2020-10-29T19:49:38:799
-72,099998	10,640000	-45,220001	2020-10-29T19:49:38:818
-59,080002	10,710000	-35,070000	2020-10-29T19:49:38:838
-49,000000	8,960000	-24,290001	2020-10-29T19:49:38:856
-45,709999	6,370000	-14,070000	2020-10-29T19:49:38:879
-46,200001	1,890000	-4,620000	2020-10-29T19:49:38:911
-47,950001	-5,040000	3,710000	2020-10-29T19:49:38:920
-51,799999	-12,110000	11,550000	2020-10-29T19:49:38:946
-57,330002	-17,010000	19,740000	2020-10-29T19:49:38:961
-63,000000	-21,840000	27,650000	2020-10-29T19:49:38:981
-69,860001	-27,440001	35,770000	2020-10-29T19:49:38:997
-89,739998	-31,920000	50,959999	2020-10-29T19:49:39:016
-112,419998	-28,070000	64,260002	2020-10-29T19:49:39:039
-136,850006	-15,680000	81,410004	2020-10-29T19:49:39:059
-161,139999	-45,639999	82,040001	2020-10-29T19:49:39:079
-190,750000	-83,720001	76,019997	2020-10-29T19:49:39:104
-214,619995	-73,500000	96,180000	2020-10-29T19:49:39:118
-214,970001	-64,050003	108,849998	2020-10-29T19:49:39:137
-192,500000	-73,709999	109,970001	2020-10-29T19:49:39:157
-147,210007	-68,599998	117,250000	2020-10-29T19:49:39:176
-72,870003	-44,240002	122,779999	2020-10-29T19:49:39:220
14,350000	-22,610001	105,139999	2020-10-29T19:49:39:227
94,639999	-25,129999	73,570000	2020-10-29T19:49:39:272
167,089996	-28,910000	49,349998	2020-10-29T19:49:39:304
213,009995	-20,299999	21,840000	2020-10-29T19:49:39:306
204,050003	-15,120000	-15,680000	2020-10-29T19:49:39:306
154,139999	-20,719999	-49,070000	2020-10-29T19:49:39:317
85,330002	-25,760000	-73,010002	2020-10-29T19:49:39:334
85,330002	-32,830002	-95,480003	2020-10-29T19:49:39:359
-87,290001	-34,160000	-108,779999	2020-10-29T19:49:39:376
-156,800003	-26,530001	-120,470001	2020-10-29T19:49:39:398
-204,680008	-17,850000	-126,489998	2020-10-29T19:49:39:416
-219,729996	-8,050000	-124,949997	2020-10-29T19:49:39:440
-198,240005	3,010000	-111,930000	2020-10-29T19:49:39:456
-145,880005	13,370000	-91,000000	2020-10-29T19:49:39:478
-71,750000	25,620001	-64,330002	2020-10-29T19:49:39:496
9,940000	37,730000	-35,420002	2020-10-29T19:49:39:519
80,150002	40,740002	-10,290000	2020-10-29T19:49:39:538
137,270004	36,889999	8,750000	2020-10-29T19:49:39:559
183,050003	31,500000	22,610001	2020-10-29T19:49:39:576
206,009995	28,840000	32,060001	2020-10-29T19:49:39:600
201,809998	27,440001	38,150002	2020-10-29T19:49:39:617
172,339996	24,360001	40,810001	2020-10-29T19:49:39:639
123,059998	27,790001	43,610001	2020-10-29T19:49:39:657
65,379997	43,259998	52,639999	2020-10-29T19:49:39:679
14,140000	54,180000	64,610001	2020-10-29T19:49:39:696
-17,710001	52,360001	72,870003	2020-10-29T19:49:39:719
-36,889999	62,369999	82,110001	2020-10-29T19:49:39:737
-33,740002	74,340004	100,449997	2020-10-29T19:49:39:760
-4,690000	16,379999	75,599998	2020-10-29T19:49:39:778
33,740002	-20,299999	51,099998	2020-10-29T19:49:39:799
74,970001	-25,969999	32,689999	2020-10-29T19:49:39:817
115,290001	-21,770000	16,660000	2020-10-29T19:49:39:840
144,970001	-7,000000	4,060000	2020-10-29T19:49:39:857
155,889999	14,840000	-8,190000	2020-10-29T19:49:39:879
149,800003	14,280000	-23,379999	2020-10-29T19:49:39:897
128,520004	0,140000	-38,150002	2020-10-29T19:49:39:920
99,050003	-14,560000	-50,470001	2020-10-29T19:49:39:937
65,940002	-23,799999	-60,200001	2020-10-29T19:49:39:960
27,440001	-24,710001	-66,639999	2020-10-29T19:49:39:977
-4,620000	-24,710001	-71,750000	2020-10-29T19:49:40:000
-14,980000	-23,730000	-73,779999	2020-10-29T19:49:40:018
-3,570000	-21,700001	-71,190002	2020-10-29T19:49:40:039
20,160000	-18,549999	-63,279999	2020-10-29T19:49:40:057
46,619999	-14,560000	-53,340000	2020-10-29T19:49:40:080
86,519997	-7,630000	-35,630001	2020-10-29T19:49:40:097
109,270004	-2,870000	-22,889999	2020-10-29T19:49:40:119
120,750000	0,140000	-13,580000	2020-10-29T19:49:40:138
124,879997	-2,310000	-9,100000	2020-10-29T19:49:40:160
122,919998	-7,420000	-11,550000	2020-10-29T19:49:40:176
112,699997	-13,020000	-18,830000	2020-10-29T19:49:40:199
94,010002	-18,340000	-31,010000	2020-10-29T19:49:40:217
68,320000	-20,299999	-44,660000	2020-10-29T19:49:40:240
39,480000	-18,480000	-58,310001	2020-10-29T19:49:40:258
8,120000	-15,190001	-71,959999	2020-10-29T19:49:40:279
-25,129999	-13,860000	-86,449997	2020-10-29T19:49:40:296
-58,029999	-14,420000	-99,540001	2020-10-29T19:49:40:320
-80,360001	-12,810000	-106,260002	2020-10-29T19:49:40:337
-95,900002	8,400000	-103,040001	2020-10-29T19:49:40:359
-107,870003	23,240000	-92,959999	2020-10-29T19:49:40:377
-109,340004	6,930000	-90,440002	2020-10-29T19:49:40:400
-93,800003	2,240000	-74,269997	2020-10-29T19:49:40:417
-75,739998	-0,630000	-53,480000	2020-10-29T19:49:40:439
-66,570000	-1,750000	-35,840000	2020-10-29T19:49:40:459
-62,020000	4,760000	-13,860000	2020-10-29T19:49:40:513
-60,830002	21,910000	12,040000	2020-10-29T19:49:40:516
-53,200001	41,230000	39,480000	2020-10-29T19:49:40:522
-32,970001	49,279999	65,660004	2020-10-29T19:49:40:538
-4,900000	43,049999	87,709999	2020-10-29T19:49:40:570
22,610001	33,459999	104,860001	2020-10-29T19:49:40:578
48,860001	30,030001	120,330002	2020-10-29T19:49:40:618
75,389999	25,620001	130,339996	2020-10-29T19:49:40:618
99,680000	20,719999	133,210007	2020-10-29T19:49:40:641
74,620003	16,379999	122,500000	2020-10-29T19:49:40:656
53,270000	14,420000	111,720001	2020-10-29T19:49:40:679
94,290001	-2,380000	102,970001	2020-10-29T19:49:40:697
117,949997	-5,740000	96,459999	2020-10-29T19:49:40:721
71,260002	5,530000	91,910004	2020-10-29T19:49:40:739
31,639999	6,720000	80,080002	2020-10-29T19:49:40:760
13,230000	-1,610000	71,400002	2020-10-29T19:49:40:778
-16,590000	-5,460000	62,580002	2020-10-29T19:49:40:800
-42,000000	-8,470000	57,049999	2020-10-29T19:49:40:818
-58,730000	-9,520000	53,480000	2020-10-29T19:49:40:839
-60,340000	-4,130000	52,639999	2020-10-29T19:49:40:858
-45,360001	3,920000	54,459999	2020-10-29T19:49:40:880
-21,490000	4,060000	51,799999	2020-10-29T19:49:40:897
9,870000	-1,190000	43,540001	2020-10-29T19:49:40:920
47,529999	12,460000	37,869999	2020-10-29T19:49:40:939
90,510002	16,870001	29,680000	2020-10-29T19:49:40:972
105,279999	-14,350000	-45,849998	2020-10-29T19:49:42:345
88,900002	-15,680000	-32,970001	2020-10-29T19:49:42:345
58,730000	-17,360001	-17,850000	2020-10-29T19:49:42:346
22,049999	-15,470000	0,140000	2020-10-29T19:49:42:351
-20,020000	-9,520000	18,830000	2020-10-29T19:49:42:351
-67,199997	-3,430000	39,060001	2020-10-29T19:49:42:352
-131,460007	4,270000	59,360001	2020-10-29T19:49:42:352
-203,070007	13,650000	81,830002	2020-10-29T19:49:42:353
-268,660004	20,510000	105,840004	2020-10-29T19:49:42:354
-322,980011	23,030001	128,380005	2020-10-29T19:49:42:355
-358,890015	21,280001	149,240005	2020-10-29T19:49:42:377
-370,649994	19,530001	167,860001	2020-10-29T19:49:42:377
-358,190002	19,530001	185,220001	2020-10-29T19:49:42:377
-325,779999	21,770000	200,479996	2020-10-29T19:49:42:380
-287,910004	26,250000	214,899994	2020-10-29T19:49:42:380
-247,940002	27,790001	231,000000	2020-10-29T19:49:42:381
-222,180008	22,120001	238,699997	2020-10-29T19:49:42:381
-190,050003	17,219999	238,139999	2020-10-29T19:49:42:382
-139,440002	28,350000	232,610001	2020-10-29T19:49:42:418
-105,000000	51,380001	223,160004	2020-10-29T19:49:42:419
-116,340004	74,830002	204,259995	2020-10-29T19:49:42:433
-159,880005	89,389999	179,199997	2020-10-29T19:49:42:453
-247,729996	99,260002	149,169998	2020-10-29T19:49:42:471
-343,140015	91,419998	126,349998	2020-10-29T19:49:42:493
-395,779999	73,220001	115,500000	2020-10-29T19:49:42:510
-377,440002	42,139999	115,570000	2020-10-29T19:49:42:538
-303,589996	17,150000	116,129997	2020-10-29T19:49:42:550
-175,490005	1,680000	115,150002	2020-10-29T19:49:42:627
5,530000	-2,800000	117,320000	2020-10-29T19:49:42:712
163,029999	-5,600000	102,760002	2020-10-29T19:49:42:736
212,029999	-5,180000	65,169998	2020-10-29T19:49:42:737
201,880005	6,790000	18,270000	2020-10-29T19:49:42:737
172,479996	25,620001	-21,910000	2020-10-29T19:49:42:738
141,680008	52,639999	-59,360001	2020-10-29T19:49:42:738
105,070000	76,160004	-99,190002	2020-10-29T19:49:42:742
78,680000	84,139999	-131,529999	2020-10-29T19:49:42:744
67,690002	89,809998	-151,970001	2020-10-29T19:49:42:767
66,290001	97,650002	-163,380005	2020-10-29T19:49:42:780
79,870003	97,930000	-167,300003	2020-10-29T19:49:42:801
109,410004	88,970001	-164,149994	2020-10-29T19:49:42:823
138,180008	75,459999	-155,119995	2020-10-29T19:49:42:840
152,880005	58,869999	-142,029999	2020-10-29T19:49:42:854
148,119995	39,200001	-126,629997	2020-10-29T19:49:42:933
132,580002	20,580000	-110,180000	2020-10-29T19:49:42:936
116,059998	7,980000	-92,120003	2020-10-29T19:49:42:936
99,260002	-1,470000	-74,199997	2020-10-29T19:49:42:937
80,779999	-10,430000	-57,189999	2020-10-29T19:49:42:952
61,810001	-16,870001	-40,320000	2020-10-29T19:49:43:001
38,430000	-19,320000	-23,030001	2020-10-29T19:49:43:001
6,230000	-14,070000	-3,990000	2020-10-29T19:49:43:015
-31,920000	0,840000	20,440001	2020-10-29T19:49:43:042
-73,989998	17,360001	46,060001	2020-10-29T19:49:43:053
-116,970001	32,410000	69,860001	2020-10-29T19:49:43:072
-156,869995	42,630001	91,000000	2020-10-29T19:49:43:101
-188,930008	44,099998	108,360001	2020-10-29T19:49:43:113
-206,500000	41,860001	125,160004	2020-10-29T19:49:43:142
-205,520004	55,930000	151,830002	2020-10-29T19:49:43:200
-190,680008	55,720001	171,149994	2020-10-29T19:49:43:201
-155,050003	47,880001	180,250000	2020-10-29T19:49:43:202
-84,769997	57,820000	200,130005	2020-10-29T19:49:43:229
6,580000	64,050003	220,779999	2020-10-29T19:49:43:234
85,610001	62,580002	222,809998	2020-10-29T19:49:43:255
143,080002	64,959999	212,380005	2020-10-29T19:49:43:275
180,110001	79,519997	196,910004	2020-10-29T19:49:43:296
207,059998	85,400002	178,710007	2020-10-29T19:49:43:321
223,930008	68,809998	147,559998	2020-10-29T19:49:43:336
215,600006	45,849998	112,980003	2020-10-29T19:49:43:359
163,449997	29,750000	81,830002	2020-10-29T19:49:43:375
80,500000	22,750000	54,740002	2020-10-29T19:49:43:394
-8,260000	18,969999	30,660000	2020-10-29T19:49:43:416
-84,769997	12,320000	8,750000	2020-10-29T19:49:43:435
-151,270004	1,960000	-8,050000	2020-10-29T19:49:43:455
-220,149994	-8,820000	-24,570000	2020-10-29T19:49:43:474
-287,140015	-13,160000	-39,900002	2020-10-29T19:49:43:496
-333,200012	-11,060000	-48,369999	2020-10-29T19:49:43:515
-347,410004	-9,660000	-50,189999	2020-10-29T19:49:43:535
-332,149994	-12,740000	-46,270000	2020-10-29T19:49:43:554
-293,230011	-13,930000	-33,040001	2020-10-29T19:49:43:576
-236,949997	-10,780000	0,980000	2020-10-29T19:49:43:593
-142,940002	-9,450000	26,809999	2020-10-29T19:49:43:616
-91,629997	-10,430000	51,869999	2020-10-29T19:49:43:634
-50,259998	-4,340000	77,349998	2020-10-29T19:49:43:657
-13,020000	12,530000	102,830002	2020-10-29T19:49:43:675
33,459999	26,740000	120,120003	2020-10-29T19:49:43:697
93,309998	27,370001	116,199997	2020-10-29T19:49:43:714
171,990005	36,470001	92,680000	2020-10-29T19:49:43:736
277,899994	40,950001	71,680000	2020-10-29T19:49:43:755
383,459991	7,980000	51,240002	2020-10-29T19:49:43:776
427,209991	-32,130001	10,920000	2020-10-29T19:49:43:794
399,559998	-61,389999	-32,060001	2020-10-29T19:49:43:817
320,390015	-79,660004	-63,070000	2020-10-29T19:49:43:834
211,539993	-86,870003	-81,410004	2020-10-29T19:49:43:856
89,809998	-77,139999	-96,669998	2020-10-29T19:49:43:873
-21,629999	-70,980003	-115,639999	2020-10-29T19:49:43:897
-110,389999	-75,389999	-136,500000	2020-10-29T19:49:43:914
-171,080002	-75,040001	-155,259995	2020-10-29T19:49:43:936
-205,240005	-68,389999	-169,119995	2020-10-29T19:49:43:954
-211,330002	-56,139999	-179,970001	2020-10-29T19:49:43:977
-185,360001	-40,810001	-184,380005	2020-10-29T19:49:43:995
-133,839996	-26,670000	-180,740005	2020-10-29T19:49:44:017
-68,389999	-13,650000	-175,490005	2020-10-29T19:49:44:034
-0,070000	-1,050000	-167,720001	2020-10-29T19:49:44:057
55,439999	6,860000	-161,210007	2020-10-29T19:49:44:074
94,080002	9,380000	-155,119995	2020-10-29T19:49:44:096
120,820000	9,730000	-148,750000	2020-10-29T19:49:44:114
136,779999	8,470000	-140,630005	2020-10-29T19:49:44:138
142,869995	2,800000	-131,529999	2020-10-29T19:49:44:154
141,539993	-6,930000	-121,800003	2020-10-29T19:49:44:176
130,059998	-14,840000	-111,370003	2020-10-29T19:49:44:194
111,440002	-19,389999	-98,279999	2020-10-29T19:49:44:217
87,570000	-20,930000	-83,790001	2020-10-29T19:49:44:234
60,689999	-19,879999	-68,389999	2020-10-29T19:49:44:256
31,710001	-15,120000	-51,520000	2020-10-29T19:49:44:274
5,180000	-8,750000	-30,520000	2020-10-29T19:49:44:297
-13,720000	-7,770000	-5,740000	2020-10-29T19:49:44:314
-30,590000	-4,410000	22,190001	2020-10-29T19:49:44:336
-55,510002	23,450001	59,920002	2020-10-29T19:49:44:354
-77,559998	36,540001	98,070000	2020-10-29T19:49:44:377
-89,599998	37,450001	129,919998	2020-10-29T19:49:44:395
-86,800003	49,349998	165,550003	2020-10-29T19:49:44:416
-64,750000	60,900002	204,889999	2020-10-29T19:49:44:434
-32,270000	61,670002	234,220001	2020-10-29T19:49:44:457
1,050000	61,180000	251,930008	2020-10-29T19:49:44:477
26,880001	70,840004	265,929993	2020-10-29T19:49:44:496
43,259998	79,800003	272,860016	2020-10-29T19:49:44:514
59,849998	76,370003	257,670013	2020-10-29T19:49:44:537
98,139999	59,290001	219,240005	2020-10-29T19:49:44:554
157,080002	33,320000	180,039993	2020-10-29T19:49:44:576
173,949997	32,830002	153,789993	2020-10-29T19:49:44:595
118,790001	41,650002	115,010002	2020-10-29T19:49:44:617
25,690001	40,389999	71,610001	2020-10-29T19:49:44:635
-71,610001	38,080002	40,459999	2020-10-29T19:49:44:657
-176,960007	35,560001	18,340000	2020-10-29T19:49:44:675
-359,660004	30,870001	-13,370000	2020-10-29T19:49:44:697
-452,549988	25,059999	-29,960001	2020-10-29T19:49:44:715
-496,369995	18,830000	-26,880001	2020-10-29T19:49:44:738
-487,130005	11,200000	-12,460000	2020-10-29T19:49:44:755
-439,320007	-2,030000	5,460000	2020-10-29T19:49:44:784
-364,700012	-16,309999	23,870001	2020-10-29T19:49:44:813
-266,769989	-23,660000	45,570000	2020-10-29T19:49:44:861
-158,199997	-21,490000	64,750000	2020-10-29T19:49:44:862
-64,120003	-16,030001	76,370003	2020-10-29T19:49:44:863
9,030000	-10,430000	82,879997	2020-10-29T19:49:44:878
63,070000	-1,610000	85,400002	2020-10-29T19:49:44:898
90,860001	17,219999	84,840004	2020-10-29T19:49:44:915
94,639999	55,580002	84,000000	2020-10-29T19:49:44:937
98,279999	53,760002	64,330002	2020-10-29T19:49:44:956
117,809998	24,850000	27,930000	2020-10-29T19:49:44:977
147,839996	8,050000	-0,770000	2020-10-29T19:49:44:995
171,500000	-6,020000	-33,180000	2020-10-29T19:49:45:018
165,619995	-18,690001	-68,040001	2020-10-29T19:49:45:035
130,899994	-18,969999	-93,519997	2020-10-29T19:49:45:057
86,449997	-4,690000	-108,150002	2020-10-29T19:49:45:075
63,070000	12,670000	-109,760002	2020-10-29T19:49:45:098
65,519997	11,830000	-107,239998	2020-10-29T19:49:45:115
82,739998	-3,850000	-106,120003	2020-10-29T19:49:45:138
108,919998	-23,030001	-112,209999	2020-10-29T19:49:45:155
244,089996	-32,759998	-153,789993	2020-10-29T19:49:45:178
190,960007	-72,940002	-69,160004	2020-10-29T19:49:45:197
204,330002	-75,739998	-140,559998	2020-10-29T19:49:45:218
268,730011	-76,790001	-131,740005	2020-10-29T19:49:45:235
261,940002	-71,470001	-145,880005	2020-10-29T19:49:45:258
198,940002	-73,500000	-151,550003	2020-10-29T19:49:45:275
110,110001	-67,620003	-163,800003	2020-10-29T19:49:45:298
30,170000	-53,130001	-169,820007	2020-10-29T19:49:45:315
-13,720000	-39,270000	-168,910004	2020-10-29T19:49:45:338
-20,860001	-27,440001	-159,669998	2020-10-29T19:49:45:356
-3,710000	-21,629999	-143,360001	2020-10-29T19:49:45:377
19,670000	-22,610001	-130,759995	2020-10-29T19:49:45:396
46,270000	-23,590000	-119,980003	2020-10-29T19:49:45:418
76,300003	-27,650000	-106,540001	2020-10-29T19:49:45:437
98,139999	-33,599998	-93,169998	2020-10-29T19:49:45:457
104,790001	-38,709999	-80,709999	2020-10-29T19:49:45:475
100,870003	-41,580002	-66,989998	2020-10-29T19:49:45:500
87,989998	-43,610001	-52,920002	2020-10-29T19:49:45:515
69,019997	-47,599998	-39,340000	2020-10-29T19:49:45:537
45,220001	-52,430000	-27,230000	2020-10-29T19:49:45:555
9,100000	-38,570000	-7,350000	2020-10-29T19:49:45:578
-39,619999	-28,070000	14,630000	2020-10-29T19:49:45:596
-94,570000	-35,770000	23,660000	2020-10-29T19:49:45:618
-142,380005	-30,100000	36,119999	2020-10-29T19:49:45:636
-183,750000	-10,640000	59,920002	2020-10-29T19:49:45:659
-220,009995	7,210000	82,040001	2020-10-29T19:49:45:675
-239,399994	18,760000	99,470001	2020-10-29T19:49:45:698
-233,660004	30,940001	119,770004	2020-10-29T19:49:45:716
-203,350006	53,830002	148,539993	2020-10-29T19:49:45:738
-147,630005	82,459999	182,910004	2020-10-29T19:49:45:755
-41,020000	80,080002	221,690002	2020-10-29T19:49:45:778
25,549999	71,470001	232,820007	2020-10-29T19:49:45:796
86,940002	63,000000	236,250000	2020-10-29T19:49:45:865
124,459999	54,740002	227,430008	2020-10-29T19:49:45:866
134,820007	62,510002	209,300003	2020-10-29T19:49:45:867
139,509995	62,790001	184,589996	2020-10-29T19:49:45:882
132,160004	49,910000	150,779999	2020-10-29T19:49:45:900
89,599998	44,029999	112,770004	2020-10-29T19:49:45:921
-2,870000	43,400002	75,669998	2020-10-29T19:49:45:940
-128,940002	44,730000	46,060001	2020-10-29T19:49:45:955
-261,869995	45,360001	22,820000	2020-10-29T19:49:45:980
-370,649994	45,150002	9,100000	2020-10-29T19:49:45:996
-458,989990	36,889999	-2,310000	2020-10-29T19:49:46:018
-522,059998	27,580000	-7,000000	2020-10-29T19:49:46:036
-547,820007	19,600000	-2,100000	2020-10-29T19:49:46:059
-544,599976	12,250000	6,020000	2020-10-29T19:49:46:076
-526,609985	1,750000	13,020000	2020-10-29T19:49:46:099
-492,380005	-16,590000	19,250000	2020-10-29T19:49:46:115
-440,440002	-31,010000	28,770000	2020-10-29T19:49:46:139
-376,320007	-34,439999	42,560001	2020-10-29T19:49:46:157
-319,339996	-30,240000	46,410000	2020-10-29T19:49:46:178
-281,470001	-41,580002	46,270000	2020-10-29T19:49:46:196
-247,029999	-34,090000	48,930000	2020-10-29T19:49:46:219
-208,250000	-16,730000	45,360001	2020-10-29T19:49:46:249
-177,729996	-8,050000	38,709999	2020-10-29T19:49:46:265
129,850006	-96,320000	46,549999	2020-10-29T19:50:10:138
-20,090000	-92,959999	46,549999	2020-10-29T19:50:10:141
-150,639999	-100,169998	28,910000	2020-10-29T19:50:10:143
-227,430008	-123,480003	2,940000	2020-10-29T19:50:10:145
-254,240005	-131,600006	-17,850000	2020-10-29T19:50:10:146
-231,419998	-117,809998	-33,389999	2020-10-29T19:50:10:155
-169,330002	-89,110001	-45,150002	2020-10-29T19:50:10:176
-97,510002	-58,799999	-49,490002	2020-10-29T19:50:10:185
-34,790001	-36,680000	-48,369999	2020-10-29T19:50:10:211
21,980000	-22,049999	-41,369999	2020-10-29T19:50:10:224
94,779999	-8,610000	-20,160000	2020-10-29T19:50:10:245
135,729996	-5,180000	-0,420000	2020-10-29T19:50:10:264
171,919998	-0,980000	20,160000	2020-10-29T19:50:10:289
201,180008	6,440000	38,990002	2020-10-29T19:50:10:307
225,330002	14,840000	55,580002	2020-10-29T19:50:10:325
244,930008	21,559999	67,129997	2020-10-29T19:50:10:343
263,059998	24,850000	72,449997	2020-10-29T19:50:10:367
280,279999	23,730000	71,959999	2020-10-29T19:50:10:384
293,579987	19,460001	64,470001	2020-10-29T19:50:10:406
301,769989	13,370000	49,279999	2020-10-29T19:50:10:424
303,519989	3,990000	27,160000	2020-10-29T19:50:10:448
300,440002	-7,070000	0,770000	2020-10-29T19:50:10:464
294,839996	-16,799999	-27,440001	2020-10-29T19:50:10:487
276,709991	-20,440001	-58,170002	2020-10-29T19:50:10:505
245,070007	-18,620001	-84,489998	2020-10-29T19:50:10:528
203,350006	-17,500000	-106,750000	2020-10-29T19:50:10:547
155,470001	-14,420000	-127,190002	2020-10-29T19:50:10:567
111,650002	-5,950000	-141,190002	2020-10-29T19:50:10:585
76,300003	4,550000	-150,289993	2020-10-29T19:50:10:608
46,480000	14,770000	-156,380005	2020-10-29T19:50:10:625
25,200001	25,480000	-157,570007	2020-10-29T19:50:10:647
13,510000	34,860001	-155,470001	2020-10-29T19:50:10:665
13,930000	41,299999	-151,270004	2020-10-29T19:50:10:688
28,420000	43,820000	-146,369995	2020-10-29T19:50:10:704
50,470001	47,459999	-140,490005	2020-10-29T19:50:10:727
76,160004	51,170002	-134,119995	2020-10-29T19:50:10:744
102,129997	54,389999	-128,940002	2020-10-29T19:50:10:767
125,510002	57,189999	-124,389999	2020-10-29T19:50:10:785
148,190002	58,520000	-118,650002	2020-10-29T19:50:10:806
167,369995	57,750000	-109,760002	2020-10-29T19:50:10:827
180,529999	55,299999	-96,389999	2020-10-29T19:50:10:848
186,059998	52,709999	-78,820000	2020-10-29T19:50:10:864
181,300003	49,420002	-57,820000	2020-10-29T19:50:10:887
165,410004	46,480000	-36,189999	2020-10-29T19:50:10:905
141,470001	46,060001	-15,330000	2020-10-29T19:50:10:928
115,430000	45,920002	3,010000	2020-10-29T19:50:10:944
91,209999	45,500000	17,430000	2020-10-29T19:50:10:967
70,489998	43,189999	29,049999	2020-10-29T19:50:10:985
53,549999	38,500000	37,660000	2020-10-29T19:50:11:007
42,349998	33,950001	47,110001	2020-10-29T19:50:11:026
34,860001	24,780001	57,889999	2020-10-29T19:50:11:047
27,719999	15,610000	64,190002	2020-10-29T19:50:11:064
17,219999	10,500000	71,610001	2020-10-29T19:50:11:088
1,260000	8,540000	78,610001	2020-10-29T19:50:11:105
-17,850000	10,290000	84,910004	2020-10-29T19:50:11:127
-36,049999	13,930000	90,930000	2020-10-29T19:50:11:145
-55,439999	13,720000	93,519997	2020-10-29T19:50:11:168
-67,199997	7,770000	92,959999	2020-10-29T19:50:11:185
-84,629997	-6,860000	90,160004	2020-10-29T19:50:11:207
-107,940002	-10,500000	87,919998	2020-10-29T19:50:11:225
-90,860001	-10,010000	98,000000	2020-10-29T19:50:11:248
-53,200001	1,680000	108,500000	2020-10-29T19:50:11:266
-35,349998	11,060000	111,090004	2020-10-29T19:50:11:287
-26,809999	13,020000	110,669998	2020-10-29T19:50:11:305
-17,639999	16,100000	105,209999	2020-10-29T19:50:11:328
-16,100000	17,219999	99,330002	2020-10-29T19:50:11:345
-16,590000	15,750000	91,279999	2020-10-29T19:50:11:367
-16,450001	18,549999	83,230003	2020-10-29T19:50:11:385
-14,140000	20,230000	74,129997	2020-10-29T19:50:11:408
-11,550000	6,790000	56,560001	2020-10-29T19:50:11:425
-6,720000	-2,310000	36,119999	2020-10-29T19:50:11:447
-1,540000	2,240000	20,299999	2020-10-29T19:50:11:465
-0,910000	1,960000	2,310000	2020-10-29T19:50:11:488
-0,140000	2,520000	-15,190001	2020-10-29T19:50:11:506
4,830000	0,770000	-30,450001	2020-10-29T19:50:11:527
13,930000	-2,450000	-40,599998	2020-10-29T19:50:11:545
28,070000	1,120000	-45,779999	2020-10-29T19:50:11:568
46,900002	9,380000	-46,549999	2020-10-29T19:50:11:586
63,980000	8,260000	-47,040001	2020-10-29T19:50:11:607
73,639999	2,030000	-47,880001	2020-10-29T19:50:11:625
78,889999	-1,470000	-47,740002	2020-10-29T19:50:11:648
82,809998	-4,550000	-46,060001	2020-10-29T19:50:11:665
88,620003	-12,040000	-46,549999	2020-10-29T19:50:11:687
93,169998	-18,900000	-52,639999	2020-10-29T19:50:11:705
97,860001	-22,540001	-60,200001	2020-10-29T19:50:11:728
102,620003	-24,219999	-68,599998	2020-10-29T19:50:11:746
104,230003	-25,200001	-76,300003	2020-10-29T19:50:11:767
100,730003	-26,530001	-82,180000	2020-10-29T19:50:11:785
88,269997	-30,730000	-86,169998	2020-10-29T19:50:11:809
68,040001	-35,209999	-87,290001	2020-10-29T19:50:11:825
44,939999	-37,730000	-85,610001	2020-10-29T19:50:11:847
24,430000	-39,410000	-81,690002	2020-10-29T19:50:11:865
9,800000	-39,410000	-75,459999	2020-10-29T19:50:11:889
1,400000	-37,939999	-68,040001	2020-10-29T19:50:11:905
-4,410000	-37,939999	-60,130001	2020-10-29T19:50:11:928
-11,130000	-37,029999	-52,080002	2020-10-29T19:50:11:945
-19,950001	-34,650002	-44,099998	2020-10-29T19:50:11:968
-33,670002	-35,209999	-38,080002	2020-10-29T19:50:11:987
-49,770000	-36,189999	-33,040001	2020-10-29T19:50:12:008
-64,680000	-35,000000	-27,510000	2020-10-29T19:50:12:025
-79,099998	-21,980000	-15,820000	2020-10-29T19:50:12:049
-93,940002	-27,790001	-10,500000	2020-10-29T19:50:12:065
-100,449997	-33,810001	-7,420000	2020-10-29T19:50:12:088
-96,669998	-19,110001	6,930000	2020-10-29T19:50:12:105
-84,349998	-5,110000	24,780001	2020-10-29T19:50:12:129
-67,900002	-2,730000	39,480000	2020-10-29T19:50:12:146
-56,630001	-0,070000	51,939999	2020-10-29T19:50:12:168
-49,770000	6,790000	65,309998	2020-10-29T19:50:12:186
-42,349998	15,050000	76,790001	2020-10-29T19:50:12:209
-31,219999	21,980000	83,440002	2020-10-29T19:50:12:226
-16,240000	23,590000	84,070000	2020-10-29T19:50:12:248
2,660000	23,170000	79,379997	2020-10-29T19:50:12:266
18,549999	20,719999	70,629997	2020-10-29T19:50:12:289
24,570000	14,280000	58,520000	2020-10-29T19:50:12:306
18,340000	6,230000	45,009998	2020-10-29T19:50:12:328
-3,570000	-2,030000	33,250000	2020-10-29T19:50:12:346
-39,549999	-8,890000	23,450001	2020-10-29T19:50:12:369
-79,169998	-13,510000	17,639999	2020-10-29T19:50:12:386
-130,339996	-21,210001	13,650000	2020-10-29T19:50:12:408
-156,380005	-24,710001	12,250000	2020-10-29T19:50:12:426
-172,690002	-24,850000	14,420000	2020-10-29T19:50:12:449
-179,619995	-23,730000	20,020000	2020-10-29T19:50:12:467
-176,190002	-22,610001	29,120001	2020-10-29T19:50:12:488
-161,770004	-19,600000	42,490002	2020-10-29T19:50:12:506
-139,020004	-15,050000	58,869999	2020-10-29T19:50:12:530
-111,230003	-11,200000	75,739998	2020-10-29T19:50:12:547
-81,760002	-4,060000	91,840004	2020-10-29T19:50:12:568
-54,180000	6,440000	106,190002	2020-10-29T19:50:12:587
-32,270000	16,309999	116,690002	2020-10-29T19:50:12:609
-14,980000	23,660000	121,730003	2020-10-29T19:50:12:626
2,100000	27,160000	120,120003	2020-10-29T19:50:12:649
21,770000	37,660000	112,840004	2020-10-29T19:50:12:667
48,580002	42,980000	101,500000	2020-10-29T19:50:12:689
75,110001	26,950001	73,709999	2020-10-29T19:50:12:709
102,900002	19,600000	46,340000	2020-10-29T19:50:12:729
121,449997	19,809999	20,090000	2020-10-29T19:50:12:746
124,250000	14,560000	-10,500000	2020-10-29T19:50:12:769
106,120003	7,140000	-41,090000	2020-10-29T19:50:12:786
77,139999	6,300000	-63,910000	2020-10-29T19:50:12:808
62,930000	9,800000	-75,669998	2020-10-29T19:50:12:827
59,220001	5,390000	-85,260002	2020-10-29T19:50:12:849
63,910000	-2,870000	-93,169998	2020-10-29T19:50:12:865
78,610001	-8,400000	-96,739998	2020-10-29T19:50:12:889
96,599998	-14,490000	-98,489998	2020-10-29T19:50:12:906
114,800003	-26,110001	-101,919998	2020-10-29T19:50:12:930
124,949997	-37,660000	-109,830002	2020-10-29T19:50:12:949
127,120003	-48,650002	-119,489998	2020-10-29T19:50:12:968
126,209999	-55,230000	-127,330002	2020-10-29T19:50:12:986
123,270004	-57,119999	-130,970001	2020-10-29T19:50:13:010
112,209999	-60,549999	-132,089996	2020-10-29T19:50:13:027
87,709999	-66,779999	-132,930008	2020-10-29T19:50:13:049
54,670002	-68,110001	-130,199997	2020-10-29T19:50:13:067
23,730000	-64,959999	-123,059998	2020-10-29T19:50:13:090
-1,050000	-61,950001	-113,820000	2020-10-29T19:50:13:107
-18,129999	-60,340000	-104,440002	2020-10-29T19:50:13:129
-27,510000	-56,000000	-92,959999	2020-10-29T19:50:13:147
-31,150000	-50,189999	-78,889999	2020-10-29T19:50:13:170
-30,590000	-45,920002	-64,750000	2020-10-29T19:50:13:188
-29,190001	-42,279999	-51,520000	2020-10-29T19:50:13:209
-28,700001	-37,590000	-38,430000	2020-10-29T19:50:13:227
-31,990000	-33,529999	-25,969999	2020-10-29T19:50:13:250
-39,060001	-28,770000	-14,070000	2020-10-29T19:50:13:268
-44,869999	-22,610001	-1,190000	2020-10-29T19:50:13:289
-48,860001	-5,320000	18,129999	2020-10-29T19:50:13:307
-56,279999	1,470000	39,270000	2020-10-29T19:50:13:331
-64,190002	-0,210000	58,029999	2020-10-29T19:50:13:347
-66,290001	15,750000	85,400002	2020-10-29T19:50:13:369
-64,190002	27,580000	115,290001	2020-10-29T19:50:13:387
-58,660000	31,150000	138,110001	2020-10-29T19:50:13:410
-49,000000	38,150002	155,680008	2020-10-29T19:50:13:428
-39,410000	52,500000	170,029999	2020-10-29T19:50:13:450
-29,750000	64,750000	180,039993	2020-10-29T19:50:13:467
-5,390000	62,439999	168,979996	2020-10-29T19:50:13:491
26,530001	53,480000	144,270004	2020-10-29T19:50:13:507
65,169998	39,619999	118,720001	2020-10-29T19:50:13:529
91,699997	32,410000	98,629997	2020-10-29T19:50:13:547
80,500000	28,280001	70,419998	2020-10-29T19:50:13:571
37,520000	22,330000	40,180000	2020-10-29T19:50:13:588
-12,180000	20,370001	28,280001	2020-10-29T19:50:13:609
-77,489998	14,630000	25,760000	2020-10-29T19:50:13:627
-144,059998	13,230000	30,100000	2020-10-29T19:50:13:651
-176,680008	22,540001	39,689999	2020-10-29T19:50:13:668
-158,830002	25,690001	55,090000	2020-10-29T19:50:13:690
-111,300003	23,309999	64,680000	2020-10-29T19:50:13:707
-46,200001	18,760000	66,290001	2020-10-29T19:50:13:731
27,790001	15,330000	61,040001	2020-10-29T19:50:13:747
90,930000	12,390000	52,290001	2020-10-29T19:50:13:769
126,419998	10,640000	39,410000	2020-10-29T19:50:13:787
130,970001	13,650000	22,820000	2020-10-29T19:50:13:811
109,760002	15,470000	5,040000	2020-10-29T19:50:13:828
77,070000	7,070000	-12,600000	2020-10-29T19:50:13:850
43,610001	1,330000	-28,980000	2020-10-29T19:50:13:867
20,090000	9,870000	-40,389999	2020-10-29T19:50:13:891
15,820000	12,250000	-49,560001	2020-10-29T19:50:13:909
23,379999	-9,800000	-68,040001	2020-10-29T19:50:13:930
29,960001	-25,480000	-85,889999	2020-10-29T19:50:13:947
26,180000	-32,970001	-101,500000	2020-10-29T19:50:13:971
16,030001	-41,369999	-119,139999	2020-10-29T19:50:13:988
-0,140000	-43,049999	-135,589996	2020-10-29T19:50:14:010
-15,260000	-30,100000	-144,619995	2020-10-29T19:50:14:028
-16,799999	-19,320000	-146,369995	2020-10-29T19:50:14:051
1,050000	-21,559999	-145,600006	2020-10-29T19:50:14:067
32,619999	-27,160000	-139,440002	2020-10-29T19:50:14:090
61,320000	-33,110001	-126,000000	2020-10-29T19:50:14:108
81,690002	-39,410000	-111,090004	2020-10-29T19:50:14:131
94,639999	-41,509998	-97,090004	2020-10-29T19:50:14:149
98,070000	-42,349998	-85,190002	2020-10-29T19:50:14:170
90,160004	-41,299999	-80,290001	2020-10-29T19:50:14:188
74,410004	-36,540001	-77,489998	2020-10-29T19:50:14:211
53,549999	-31,150000	-75,320000	2020-10-29T19:50:14:228
33,320000	-24,639999	-73,010002	2020-10-29T19:50:14:251
15,330000	-16,590000	-65,940002	2020-10-29T19:50:14:268
1,540000	-8,610000	-52,290001	2020-10-29T19:50:14:291
-4,970000	-0,630000	-33,110001	2020-10-29T19:50:14:308
-2,660000	6,930000	-10,080000	2020-10-29T19:50:14:330
7,840000	14,000000	15,330000	2020-10-29T19:50:14:348
23,240000	21,000000	41,020000	2020-10-29T19:50:14:371
33,040001	27,580000	64,750000	2020-10-29T19:50:14:388
32,060001	34,090000	87,080002	2020-10-29T19:50:14:410
21,350000	43,119999	110,040001	2020-10-29T19:50:14:428
4,900000	52,150002	135,029999	2020-10-29T19:50:14:451
-14,630000	56,209999	157,639999	2020-10-29T19:50:14:468
-35,490002	54,110001	171,779999	2020-10-29T19:50:14:491
-57,189999	59,360001	180,669998	2020-10-29T19:50:14:508
-76,930000	69,860001	181,580002	2020-10-29T19:50:14:532
-79,449997	58,939999	162,050003	2020-10-29T19:50:14:549
-26,460001	48,720001	123,480003	2020-10-29T19:50:14:570
40,950001	30,870001	98,910004	2020-10-29T19:50:14:589
103,529999	20,930000	64,889999	2020-10-29T19:50:14:611
117,459999	18,270000	27,299999	2020-10-29T19:50:14:629
87,150002	18,129999	6,370000	2020-10-29T19:50:14:650
37,590000	8,050000	-6,160000	2020-10-29T19:50:14:668
-15,470000	-6,440000	-16,450001	2020-10-29T19:50:14:692
-60,689999	-17,639999	-19,879999	2020-10-29T19:50:14:708
-98,629997	-25,410000	-20,719999	2020-10-29T19:50:14:731
-134,610001	-31,080000	-20,930000	2020-10-29T19:50:14:748
-169,259995	-33,110001	-22,190001	2020-10-29T19:50:14:772
-200,619995	-31,850000	-25,900000	2020-10-29T19:50:14:789
-219,869995	-30,380001	-29,889999	2020-10-29T19:50:14:810
-221,830002	-25,620001	-31,010000	2020-10-29T19:50:14:831
-206,220001	-17,920000	-28,280001	2020-10-29T19:50:14:850
-178,289993	-9,100000	-21,840000	2020-10-29T19:50:14:868
-143,430008	1,680000	-10,080000	2020-10-29T19:50:14:891
-103,459999	12,670000	7,840000	2020-10-29T19:50:14:908
-59,290001	21,350000	30,100000	2020-10-29T19:50:14:932
-11,830000	27,580000	53,480000	2020-10-29T19:50:14:948
35,490002	34,930000	76,160004	2020-10-29T19:50:14:970
81,900002	44,240002	97,019997	2020-10-29T19:50:14:989
127,400002	50,959999	113,400002	2020-10-29T19:50:15:011
170,169998	53,900002	122,010002	2020-10-29T19:50:15:029
207,619995	56,630001	121,730003	2020-10-29T19:50:15:051
239,470001	62,860001	116,199997	2020-10-29T19:50:15:069
263,130005	28,840000	84,349998	2020-10-29T19:50:15:092
265,019989	-3,290000	46,480000	2020-10-29T19:50:15:110
236,040009	-16,870001	18,830000	2020-10-29T19:50:15:131
182,210007	-36,889999	-16,379999	2020-10-29T19:50:15:151
112,629997	-53,200001	-54,180000	2020-10-29T19:50:15:172
35,630001	-57,540001	-83,650002	2020-10-29T19:50:15:189
-41,090000	-48,650002	-101,080002	2020-10-29T19:50:15:210
-106,470001	-34,020000	-113,680000	2020-10-29T19:50:15:229
-140,000000	-30,660000	-124,040001	2020-10-29T19:50:15:252
-135,660004	-36,259998	-129,570007	2020-10-29T19:50:15:269
-102,480003	-46,200001	-129,009995	2020-10-29T19:50:15:291
-61,250000	-50,400002	-126,070000	2020-10-29T19:50:15:309
-16,799999	-46,060001	-122,150002	2020-10-29T19:50:15:332
21,770000	-41,230000	-122,220001	2020-10-29T19:50:15:349
40,599998	-38,290001	-128,029999	2020-10-29T19:50:15:371
45,570000	-31,150000	-135,660004	2020-10-29T19:50:15:389
37,799999	-20,860001	-143,850006	2020-10-29T19:50:15:412
19,180000	-12,950000	-150,220001	2020-10-29T19:50:15:429
-4,410000	-7,000000	-152,669998	2020-10-29T19:50:15:451
-21,139999	-1,260000	-148,050003	2020-10-29T19:50:15:469
-29,330000	1,260000	-139,789993	2020-10-29T19:50:15:492
-28,559999	2,590000	-126,980003	2020-10-29T19:50:15:509
-15,680000	2,170000	-109,340004	2020-10-29T19:50:15:531
4,340000	0,420000	-89,250000	2020-10-29T19:50:15:549
26,530001	-0,280000	-66,360001	2020-10-29T19:50:15:572
47,110001	0,420000	-41,509998	2020-10-29T19:50:15:591
62,090000	2,310000	-14,630000	2020-10-29T19:50:15:612
70,489998	6,230000	13,790000	2020-10-29T19:50:15:629
71,680000	12,880000	58,520000	2020-10-29T19:50:15:652
57,540001	36,189999	93,519997	2020-10-29T19:50:15:669
38,639999	41,860001	124,459999	2020-10-29T19:50:15:691
16,100000	48,020000	150,500000	2020-10-29T19:50:15:709
-1,330000	52,500000	175,279999	2020-10-29T19:50:15:733
-13,790000	48,299999	192,080002	2020-10-29T19:50:15:749
-22,960001	39,549999	198,029999	2020-10-29T19:50:15:772
-28,770000	30,799999	194,460007	2020-10-29T19:50:15:789
-29,260000	26,180000	178,639999	2020-10-29T19:50:15:814
-8,260000	16,240000	150,360001	2020-10-29T19:50:15:829
33,320000	-6,230000	113,610001	2020-10-29T19:50:15:852
63,700001	-17,920000	86,730003	2020-10-29T19:50:15:869
35,000000	-17,710001	49,349998	2020-10-29T19:50:15:893
-46,200001	-20,930000	8,890000	2020-10-29T19:50:15:909
-136,639999	-28,139999	-13,020000	2020-10-29T19:50:15:932
-222,880005	-32,619999	-21,139999	2020-10-29T19:50:15:949
-299,250000	-36,330002	-21,980000	2020-10-29T19:50:15:973
-346,779999	-42,910000	-17,710001	2020-10-29T19:50:15:989
-354,549988	-50,540001	-7,000000	2020-10-29T19:50:16:012
-330,049988	-55,510002	8,120000	2020-10-29T19:50:16:030
-288,049988	-56,910000	24,010000	2020-10-29T19:50:16:053
-236,040009	-58,799999	41,160000	2020-10-29T19:50:16:071
-180,529999	-60,689999	60,060001	2020-10-29T19:50:16:093
-127,330002	-59,430000	79,590004	2020-10-29T19:50:16:109
-82,320000	-54,040001	97,930000	2020-10-29T19:50:16:133
-53,410000	-42,910000	112,980003	2020-10-29T19:50:16:150
-33,599998	-21,350000	126,070000	2020-10-29T19:50:16:172
-10,850000	0,770000	135,589996	2020-10-29T19:50:16:190
14,560000	16,100000	136,220001	2020-10-29T19:50:16:213
42,279999	37,590000	125,020004	2020-10-29T19:50:16:230
84,910004	51,029999	106,820000	2020-10-29T19:50:16:253
144,759995	30,660000	75,389999	2020-10-29T19:50:16:270
202,440002	21,980000	48,720001	2020-10-29T19:50:16:293
223,089996	24,710001	17,010000	2020-10-29T19:50:16:311
206,850006	13,580000	-19,250000	2020-10-29T19:50:16:332
170,309998	1,470000	-49,349998	2020-10-29T19:50:16:350
125,720001	0,630000	-68,809998	2020-10-29T19:50:16:373
89,879997	6,090000	-78,470001	2020-10-29T19:50:16:391
62,510002	3,290000	-87,150002	2020-10-29T19:50:16:412
55,650002	-2,030000	-92,120003	2020-10-29T19:50:16:430
69,370003	-4,690000	-92,400002	2020-10-29T19:50:16:453
91,070000	-10,360000	-91,559998	2020-10-29T19:50:16:470
107,379997	-21,350000	-95,059998	2020-10-29T19:50:16:493
112,840004	-36,119999	-105,559998	2020-10-29T19:50:16:510
104,930000	-47,040001	-118,650002	2020-10-29T19:50:16:533
85,400002	-54,389999	-135,449997	2020-10-29T19:50:16:551
62,930000	-55,720001	-150,430008	2020-10-29T19:50:16:572
40,740002	-56,349998	-161,910004	2020-10-29T19:50:16:591
21,629999	-54,740002	-168,699997	2020-10-29T19:50:16:613
5,530000	-50,889999	-169,119995	2020-10-29T19:50:16:631
-9,450000	-48,650002	-165,970001	2020-10-29T19:50:16:652
-20,299999	-45,709999	-158,970001	2020-10-29T19:50:16:670
-24,219999	-42,770000	-148,610001	2020-10-29T19:50:16:693
-21,210001	-39,060001	-134,399994	2020-10-29T19:50:16:710
-14,350000	-36,049999	-106,400002	2020-10-29T19:50:16:733
-6,160000	-32,759998	-86,309998	2020-10-29T19:50:16:750
-8,540000	-31,920000	-64,260002	2020-10-29T19:50:16:773
-13,720000	-29,049999	-38,849998	2020-10-29T19:50:16:792
-22,260000	-21,139999	-8,400000	2020-10-29T19:50:16:813
-33,670002	-1,050000	30,170000	2020-10-29T19:50:16:830
-43,680000	1,890000	67,059998	2020-10-29T19:50:16:854
-49,770000	-2,240000	93,239998	2020-10-29T19:50:16:870
-49,840000	16,730000	122,709999	2020-10-29T19:50:16:893
-46,480000	25,129999	144,270004	2020-10-29T19:50:16:910
-45,360001	31,500000	151,059998	2020-10-29T19:50:16:934
-34,860001	47,320000	154,350006	2020-10-29T19:50:16:950
-11,900000	67,620003	159,669998	2020-10-29T19:50:16:973
18,969999	77,489998	160,930008	2020-10-29T19:50:16:991
42,910000	70,070000	147,699997	2020-10-29T19:50:17:014
63,279999	56,420002	125,230003	2020-10-29T19:50:17:032
92,260002	46,480000	109,340004	2020-10-29T19:50:17:053
103,599998	39,270000	93,029999	2020-10-29T19:50:17:069
