x	y	z	ts
1,776513	4,493413	-3,413883	2020-10-29T19:48:34:581
0,038806	-0,054148	-0,356001	2020-10-29T19:48:34:582
0,053163	-0,078077	-0,370358	2020-10-29T19:48:34:582
-0,039514	-0,213777	-0,192879	2020-10-29T19:48:34:582
-0,025491	-0,185222	-0,237457	2020-10-29T19:48:34:590
0,146832	-0,146629	-0,269901	2020-10-29T19:48:34:607
0,140257	-0,177393	-0,349127	2020-10-29T19:48:34:628
0,022968	-0,130726	-0,251233	2020-10-29T19:48:34:647
0,037072	-0,087838	-0,314867	2020-10-29T19:48:34:668
0,118165	-0,127111	-0,444404	2020-10-29T19:48:34:686
-0,078654	-0,199158	-0,494285	2020-10-29T19:48:34:708
-0,004538	-0,181380	-0,521184	2020-10-29T19:48:34:727
-0,065964	-0,223028	-0,629964	2020-10-29T19:48:34:748
-0,223383	-0,248073	-0,777528	2020-10-29T19:48:34:768
-0,303360	-0,501190	-0,795690	2020-10-29T19:48:34:788
-0,588720	-0,621088	-0,801714	2020-10-29T19:48:34:807
-0,453894	-0,848835	-0,686529	2020-10-29T19:48:34:828
-1,182711	-1,103120	-0,726743	2020-10-29T19:48:34:847
-3,356635	0,386515	-0,433552	2020-10-29T19:48:34:868
-2,918884	-0,941729	-1,693748	2020-10-29T19:48:34:887
-2,747626	0,332222	-2,732328	2020-10-29T19:48:34:908
-2,031799	1,671204	-4,089206	2020-10-29T19:48:34:927
-1,744850	-2,046091	-2,019448	2020-10-29T19:48:34:948
-1,778349	-2,347587	-2,301801	2020-10-29T19:48:34:967
-1,508208	-2,041792	-3,192766	2020-10-29T19:48:34:988
-1,188619	-2,037353	-3,578533	2020-10-29T19:48:35:008
-1,029223	-2,079654	-3,760098	2020-10-29T19:48:35:028
-0,687998	-1,966940	-4,041302	2020-10-29T19:48:35:047
-0,527553	-2,255590	-4,022101	2020-10-29T19:48:35:069
-0,368091	-2,464468	-4,458340	2020-10-29T19:48:35:087
-0,063013	5,904990	-5,955592	2020-10-29T19:48:35:108
-0,298880	5,653177	-5,711439	2020-10-29T19:48:35:127
-1,173080	4,912658	-4,996416	2020-10-29T19:48:35:148
-0,632352	6,704631	2,480429	2020-10-29T19:48:35:167
-2,307231	2,024901	2,568469	2020-10-29T19:48:35:188
-4,331481	-1,877723	2,964493	2020-10-29T19:48:35:207
-5,505465	-3,804657	2,439924	2020-10-29T19:48:35:228
-5,202635	-3,066808	1,108020	2020-10-29T19:48:35:248
-4,246479	-0,565013	-0,770943	2020-10-29T19:48:35:268
-3,757524	1,059700	-3,037592	2020-10-29T19:48:35:288
-4,239284	2,949365	-4,766327	2020-10-29T19:48:35:308
-5,300986	5,164497	-5,521667	2020-10-29T19:48:35:328
-6,193437	5,251559	-5,039079	2020-10-29T19:48:35:348
-9,694135	3,854151	-5,170684	2020-10-29T19:48:35:368
-12,403931	-0,183368	-2,395024	2020-10-29T19:48:35:392
-12,743730	-2,533719	1,121347	2020-10-29T19:48:35:486
-11,240258	-3,152293	5,389087	2020-10-29T19:48:35:487
-8,679909	-5,539844	7,473428	2020-10-29T19:48:35:488
-5,851593	-6,420403	4,544613	2020-10-29T19:48:35:489
-3,275303	-5,438389	3,201649	2020-10-29T19:48:35:489
-21,579865	-2,833387	2,546653	2020-10-29T19:48:35:511
-20,668831	1,828540	2,042750	2020-10-29T19:48:35:527
-20,095877	3,987870	1,351702	2020-10-29T19:48:35:549
-19,002777	5,355836	1,750123	2020-10-29T19:48:35:568
-18,493614	4,835806	2,685763	2020-10-29T19:48:35:588
-19,109285	2,021055	3,711228	2020-10-29T19:48:35:608
-19,701471	-0,239752	4,796802	2020-10-29T19:48:35:629
-19,931131	-1,357437	5,190611	2020-10-29T19:48:35:648
-21,410904	-2,967804	6,449313	2020-10-29T19:48:35:669
-21,627941	-3,596300	6,296888	2020-10-29T19:48:35:688
-21,738089	-3,625465	5,306000	2020-10-29T19:48:35:709
-21,740852	-2,703902	4,004988	2020-10-29T19:48:35:728
-21,778393	-1,753865	2,708445	2020-10-29T19:48:35:759
-22,176041	-0,980071	2,107560	2020-10-29T19:48:35:773
-22,574186	-0,443369	2,049865	2020-10-29T19:48:35:790
-4,106981	-0,217267	2,181832	2020-10-29T19:48:35:808
-4,235268	-0,076373	1,160365	2020-10-29T19:48:35:829
-3,838058	-0,487939	0,559766	2020-10-29T19:48:35:848
-3,046034	-0,186985	-0,302410	2020-10-29T19:48:35:870
-2,518858	0,436112	-1,210368	2020-10-29T19:48:35:888
-2,241411	0,658663	-2,135714	2020-10-29T19:48:35:910
-2,343967	1,133332	-2,982681	2020-10-29T19:48:35:932
-3,005670	1,474102	-3,895964	2020-10-29T19:48:35:949
-4,130083	1,811642	-4,737146	2020-10-29T19:48:35:979
-5,232339	3,408918	-5,507997	2020-10-29T19:48:35:992
-4,282388	3,518988	-5,627638	2020-10-29T19:48:36:028
-5,234158	5,387164	-5,680274	2020-10-29T19:48:36:084
-5,772063	6,284621	-5,087237	2020-10-29T19:48:36:085
-6,422593	7,250605	-4,426778	2020-10-29T19:48:36:085
-7,009300	8,005451	-3,874751	2020-10-29T19:48:36:097
-6,891415	8,593176	-3,570905	2020-10-29T19:48:36:110
-6,698770	8,788280	-3,095611	2020-10-29T19:48:36:130
-6,201064	8,508320	-2,897006	2020-10-29T19:48:36:150
-6,333342	-11,315975	-2,578205	2020-10-29T19:48:36:169
-5,470086	-11,362533	-2,510755	2020-10-29T19:48:36:191
-3,590653	-10,965637	-2,412077	2020-10-29T19:48:36:213
-3,693544	-11,118778	-2,172795	2020-10-29T19:48:36:232
-2,620953	-10,584599	-1,893241	2020-10-29T19:48:36:250
-1,574026	-10,016864	-1,401621	2020-10-29T19:48:36:272
-1,557409	-9,726963	-0,994902	2020-10-29T19:48:36:291
-2,860463	-10,062117	-0,375104	2020-10-29T19:48:36:312
-12,631573	-11,629734	0,990833	2020-10-29T19:48:36:334
-13,259940	-11,606176	3,488309	2020-10-29T19:48:36:353
3,669138	-16,238401	2,049140	2020-10-29T19:48:54:138
4,009476	-16,246698	0,759254	2020-10-29T19:48:54:140
4,676821	-18,071175	1,259589	2020-10-29T19:48:54:142
7,434447	-18,402609	1,479452	2020-10-29T19:48:54:154
9,330093	-17,075100	1,675586	2020-10-29T19:48:54:179
10,020517	-16,167042	2,057067	2020-10-29T19:48:54:192
10,648014	-15,995377	1,901658	2020-10-29T19:48:54:208
10,791952	-16,064617	2,157830	2020-10-29T19:48:54:231
10,957440	-16,068481	2,226754	2020-10-29T19:48:54:248
11,181745	-14,076596	2,042634	2020-10-29T19:48:54:272
11,660076	-14,283178	1,873874	2020-10-29T19:48:54:290
11,479671	-15,698833	2,160607	2020-10-29T19:48:54:313
11,657906	-15,038139	2,078120	2020-10-29T19:48:54:329
11,863358	-14,810482	1,862184	2020-10-29T19:48:54:351
11,750795	-15,711731	2,008961	2020-10-29T19:48:54:371
11,681404	-16,128082	2,221922	2020-10-29T19:48:54:392
11,432194	-16,038414	2,439307	2020-10-29T19:48:54:409
11,105697	-16,104191	2,449430	2020-10-29T19:48:54:432
10,787832	-16,325226	2,530691	2020-10-29T19:48:54:449
10,463680	-16,432087	2,399800	2020-10-29T19:48:54:472
9,994143	-16,992779	1,907574	2020-10-29T19:48:54:490
9,742355	-17,261902	1,770527	2020-10-29T19:48:54:511
9,240534	-17,548843	1,536770	2020-10-29T19:48:54:530
8,792213	-17,470894	1,398423	2020-10-29T19:48:54:552
8,210716	-17,279308	1,058249	2020-10-29T19:48:54:570
7,197457	1,526818	3,448956	2020-10-29T19:48:54:591
5,851228	-15,457915	4,884772	2020-10-29T19:48:54:610
4,664536	-16,132175	3,997109	2020-10-29T19:48:54:633
3,517430	-15,751331	3,945223	2020-10-29T19:48:54:650
2,497355	-15,451495	3,966177	2020-10-29T19:48:54:673
1,734324	-14,907692	3,991728	2020-10-29T19:48:54:691
1,138609	-14,356741	3,812470	2020-10-29T19:48:54:712
0,685245	-13,886248	3,692206	2020-10-29T19:48:54:730
0,150169	-13,474897	3,733865	2020-10-29T19:48:54:752
-0,412254	-13,222066	3,853407	2020-10-29T19:48:54:770
-1,090389	-12,534754	4,093834	2020-10-29T19:48:54:793
-1,622211	-11,623016	4,254066	2020-10-29T19:48:54:810
-1,553564	-11,967001	4,312383	2020-10-29T19:48:54:832
-1,306569	-12,227379	3,839797	2020-10-29T19:48:54:852
0,059732	-12,404448	3,315768	2020-10-29T19:48:54:873
-0,355694	-12,729250	2,494815	2020-10-29T19:48:54:890
-0,805860	-12,982216	1,824152	2020-10-29T19:48:54:912
-1,576967	-13,669395	1,843594	2020-10-29T19:48:54:931
-2,197093	-13,501665	1,899971	2020-10-29T19:48:54:953
-2,525776	-13,188118	1,396113	2020-10-29T19:48:54:971
-2,461170	-12,455915	1,704787	2020-10-29T19:48:54:992
-2,544328	-12,292179	1,853838	2020-10-29T19:48:55:010
-2,539914	-12,578517	1,882846	2020-10-29T19:48:55:033
-2,897837	-12,104506	1,689661	2020-10-29T19:48:55:050
-3,438810	-11,764145	1,728796	2020-10-29T19:48:55:072
-3,635818	-11,989984	1,709096	2020-10-29T19:48:55:092
-3,506606	-12,738937	1,706703	2020-10-29T19:48:55:113
-3,574834	-12,780553	1,592662	2020-10-29T19:48:55:130
0,849400	-15,959568	0,746255	2020-10-29T19:48:55:152
-0,227035	-14,257660	1,070032	2020-10-29T19:48:55:171
-1,181536	-13,572145	1,280262	2020-10-29T19:48:55:193
-1,780710	-12,332416	1,044125	2020-10-29T19:48:55:210
-2,640746	-10,228840	1,149805	2020-10-29T19:48:55:233
-3,265109	-8,705547	0,982855	2020-10-29T19:48:55:250
-3,393095	-7,637439	0,670971	2020-10-29T19:48:55:274
-3,422978	-7,305890	0,562967	2020-10-29T19:48:55:291
-3,278886	-6,749646	0,744711	2020-10-29T19:48:55:312
-3,409318	-5,900159	1,136752	2020-10-29T19:48:55:332
-3,163612	-4,950773	1,579682	2020-10-29T19:48:55:353
-2,554082	-3,586890	2,036606	2020-10-29T19:48:55:371
-2,467941	-3,567747	2,373994	2020-10-29T19:48:55:392
-1,949442	-3,028618	2,355553	2020-10-29T19:48:55:411
-1,255355	-2,697540	2,010693	2020-10-29T19:48:55:434
-1,039812	-2,963363	1,508706	2020-10-29T19:48:55:451
-0,760186	-2,471087	1,122808	2020-10-29T19:48:55:473
0,489559	-2,279554	0,925439	2020-10-29T19:48:55:492
0,268993	-2,881400	0,569845	2020-10-29T19:48:55:513
0,216122	-2,811575	0,268334	2020-10-29T19:48:55:531
-0,036132	-2,558455	0,262372	2020-10-29T19:48:55:553
-0,297710	-2,022883	0,539550	2020-10-29T19:48:55:572
-0,354821	-2,461516	0,860581	2020-10-29T19:48:55:594
-0,809515	-2,522766	0,598817	2020-10-29T19:48:55:610
-1,244834	-1,759210	-0,207178	2020-10-29T19:48:55:633
-1,528146	-0,720610	-0,491052	2020-10-29T19:48:55:651
-0,985998	-0,341142	-0,479953	2020-10-29T19:48:55:674
-0,531244	-0,084540	-0,535784	2020-10-29T19:48:55:691
-0,117007	-0,217160	-0,959185	2020-10-29T19:48:55:713
0,323849	-0,512808	-1,299545	2020-10-29T19:48:55:732
0,141994	-0,857375	-1,392865	2020-10-29T19:48:55:754
-0,152313	-0,678778	-1,004646	2020-10-29T19:48:55:771
-0,468753	-0,149170	-0,453757	2020-10-29T19:48:55:793
-0,684775	1,357054	-0,112073	2020-10-29T19:48:55:813
-0,632133	2,074901	-0,100109	2020-10-29T19:48:55:834
-0,508680	1,980464	0,036027	2020-10-29T19:48:55:852
-0,197613	1,858431	0,126954	2020-10-29T19:48:55:873
0,365317	1,927499	0,345969	2020-10-29T19:48:55:891
0,382921	1,694949	0,496143	2020-10-29T19:48:55:914
0,561624	1,348506	0,633975	2020-10-29T19:48:55:931
0,591505	0,904185	0,787419	2020-10-29T19:48:55:953
0,431570	0,465796	0,717275	2020-10-29T19:48:55:971
0,524748	0,410750	0,680976	2020-10-29T19:48:55:994
0,787462	0,629509	0,895953	2020-10-29T19:48:56:013
1,278839	0,472921	1,349490	2020-10-29T19:48:56:034
1,128091	0,269531	1,521774	2020-10-29T19:48:56:061
1,285596	0,410968	1,611019	2020-10-29T19:48:56:075
1,427885	-0,316300	1,469162	2020-10-29T19:48:56:092
1,949708	-0,988369	1,379001	2020-10-29T19:48:56:122
2,888940	-1,636557	0,468970	2020-10-29T19:48:56:150
1,826315	-1,724818	0,569718	2020-10-29T19:48:56:157
1,800102	-1,103182	0,703240	2020-10-29T19:48:56:189
1,959626	-0,962313	0,380523	2020-10-29T19:48:56:193
1,888386	-1,335149	0,310917	2020-10-29T19:48:56:211
1,510406	-1,262343	0,548710	2020-10-29T19:48:56:242
1,087319	-0,739594	0,490183	2020-10-29T19:48:56:270
0,571400	0,123705	0,294582	2020-10-29T19:48:56:282
0,743976	0,832880	0,303585	2020-10-29T19:48:56:292
0,506611	0,870894	0,452819	2020-10-29T19:48:56:325
0,605349	0,646724	0,614250	2020-10-29T19:48:56:375
0,538176	0,703563	0,733692	2020-10-29T19:48:56:375
0,544397	1,074008	0,815897	2020-10-29T19:48:56:376
0,332317	1,284846	0,581792	2020-10-29T19:48:56:392
0,177884	1,304001	0,480657	2020-10-29T19:48:56:410
0,363577	1,200370	0,358111	2020-10-29T19:48:56:434
0,643009	1,136093	0,573996	2020-10-29T19:48:56:452
0,771730	1,499469	0,629151	2020-10-29T19:48:56:474
1,130653	1,800965	0,624365	2020-10-29T19:48:56:492
1,052547	1,516644	0,555712	2020-10-29T19:48:56:514
0,696813	0,664539	0,631404	2020-10-29T19:48:56:534
0,861918	0,736323	0,739081	2020-10-29T19:48:56:554
0,355438	0,243131	0,907825	2020-10-29T19:48:56:572
-0,027064	-0,177514	0,657768	2020-10-29T19:48:56:598
-0,012470	-0,654947	0,842446	2020-10-29T19:48:56:613
-0,023012	-0,712782	1,134309	2020-10-29T19:48:56:638
-0,150768	-1,000754	1,006381	2020-10-29T19:48:56:655
0,043050	-1,029468	0,996810	2020-10-29T19:48:56:673
0,071288	-1,032680	1,052368	2020-10-29T19:48:56:691
0,260715	-0,857150	0,874779	2020-10-29T19:48:56:715
0,146341	-0,638922	0,627702	2020-10-29T19:48:56:732
0,309053	-0,469031	0,627702	2020-10-29T19:48:56:754
1,762121	-0,658672	0,544978	2020-10-29T19:48:56:774
1,300306	-1,307127	0,477979	2020-10-29T19:48:56:796
0,970785	-1,385386	-0,012172	2020-10-29T19:48:56:812
0,592719	-1,442814	-0,129420	2020-10-29T19:48:56:834
0,237548	-1,539798	-0,136482	2020-10-29T19:48:56:852
0,164543	-1,587946	-0,588534	2020-10-29T19:48:56:875
0,101532	-1,581192	-1,079667	2020-10-29T19:48:56:892
-0,252274	-0,791762	-1,119338	2020-10-29T19:48:56:914
-0,355549	0,539196	-1,093630	2020-10-29T19:48:56:936
-10,176737	9,052703	8,089994	2020-10-29T19:49:07:426
-10,252001	8,850309	7,557495	2020-10-29T19:49:07:428
-10,301117	8,616611	7,109350	2020-10-29T19:49:07:428
-10,124888	8,496049	6,716016	2020-10-29T19:49:07:429
-10,014020	8,515594	6,408055	2020-10-29T19:49:07:430
-9,779676	8,600212	6,094358	2020-10-29T19:49:07:431
-9,651118	8,711463	5,829836	2020-10-29T19:49:07:431
-9,269867	8,719515	5,404784	2020-10-29T19:49:07:432
-9,327295	8,659695	5,340178	2020-10-29T19:49:07:442
-9,057183	8,476867	5,135947	2020-10-29T19:49:07:444
-8,829557	8,395822	4,912133	2020-10-29T19:49:07:445
-8,620327	8,366120	4,708433	2020-10-29T19:49:07:445
-8,301193	8,300343	4,450214	2020-10-29T19:49:07:504
-8,056369	8,279360	4,343756	2020-10-29T19:49:07:504
-7,684398	8,277832	4,114250	2020-10-29T19:49:07:637
-7,403116	8,285604	3,982903	2020-10-29T19:49:07:640
-7,172212	8,157345	3,855639	2020-10-29T19:49:07:640
-6,804669	8,173772	3,804024	2020-10-29T19:49:07:640
-6,363265	8,241725	3,732674	2020-10-29T19:49:07:643
-5,986028	8,449883	3,746347	2020-10-29T19:49:07:644
-5,476257	8,691990	3,734217	2020-10-29T19:49:07:655
-6,008004	2,402348	-0,405494	2020-10-29T19:49:07:664
-5,760517	2,247276	-0,681474	2020-10-29T19:49:07:665
-5,249043	1,843722	-1,048869	2020-10-29T19:49:07:665
-4,550339	0,838737	-1,625540	2020-10-29T19:49:07:666
-4,699414	0,015838	-0,601959	2020-10-29T19:49:07:667
-3,540461	-0,495532	-0,878039	2020-10-29T19:49:07:667
-2,936882	-1,520470	-0,714399	2020-10-29T19:49:07:670
-3,107743	-2,264116	-0,784454	2020-10-29T19:49:07:670
-2,915826	-1,474111	-0,830762	2020-10-29T19:49:07:671
-2,628687	-0,086273	-1,029366	2020-10-29T19:49:07:685
-2,438415	0,256254	-1,042098	2020-10-29T19:49:07:708
-3,374859	0,126051	-0,694848	2020-10-29T19:49:07:729
-4,338552	1,177799	-0,160255	2020-10-29T19:49:07:733
-4,616119	1,323761	-0,126756	2020-10-29T19:49:07:760
-4,002480	1,318194	-0,238966	2020-10-29T19:49:07:785
-3,947445	1,461763	-0,614639	2020-10-29T19:49:07:838
-3,828254	1,404803	-0,658431	2020-10-29T19:49:07:838
-3,935503	1,450930	-0,482398	2020-10-29T19:49:07:838
-3,792633	1,015895	-0,624571	2020-10-29T19:49:07:853
-3,528970	0,554089	-0,600997	2020-10-29T19:49:07:876
-3,024930	0,413400	-0,381066	2020-10-29T19:49:07:898
-2,288211	0,390962	-0,305824	2020-10-29T19:49:07:915
-1,708200	0,594302	-0,234953	2020-10-29T19:49:07:938
-1,354492	0,769941	-0,153967	2020-10-29T19:49:07:955
-0,899813	0,864898	-0,084263	2020-10-29T19:49:07:974
-0,734876	0,635852	0,063266	2020-10-29T19:49:07:996
-0,593566	0,624938	0,188759	2020-10-29T19:49:08:034
-0,677315	0,407191	0,212687	2020-10-29T19:49:08:035
-0,770702	0,138454	0,214656	2020-10-29T19:49:08:053
-0,832570	0,321947	-0,037031	2020-10-29T19:49:08:075
-0,639411	0,619864	-0,325151	2020-10-29T19:49:08:093
-0,452771	1,086464	-0,669718	2020-10-29T19:49:08:118
-0,097510	2,059680	-0,767241	2020-10-29T19:49:08:138
0,453848	2,633443	-0,744716	2020-10-29T19:49:08:157
0,506222	2,653293	-0,865742	2020-10-29T19:49:08:178
0,338724	2,531259	-0,882492	2020-10-29T19:49:08:198
-0,110304	1,971137	-0,860935	2020-10-29T19:49:08:215
-0,658496	1,263653	-0,722374	2020-10-29T19:49:08:238
-1,551520	1,007112	-0,620753	2020-10-29T19:49:08:273
-2,033312	-0,570162	0,120206	2020-10-29T19:49:08:394
-2,048800	-1,574113	0,908745	2020-10-29T19:49:08:395
-2,133380	-1,345981	1,247323	2020-10-29T19:49:08:395
-1,668849	0,066107	1,636855	2020-10-29T19:49:08:396
-1,329220	0,366151	2,226593	2020-10-29T19:49:08:397
-1,391244	0,158963	3,228165	2020-10-29T19:49:08:397
-1,025260	0,742130	2,771989	2020-10-29T19:49:08:407
-1,228000	2,896673	2,787666	2020-10-29T19:49:08:438
-1,292607	1,865366	2,385672	2020-10-29T19:49:08:443
-0,895167	-0,973711	3,100330	2020-10-29T19:49:08:463
-1,046224	-4,753317	3,040001	2020-10-29T19:49:08:478
-0,041955	-5,133874	1,722688	2020-10-29T19:49:08:496
0,332811	-3,513728	0,737291	2020-10-29T19:49:08:516
-1,199324	-2,810312	0,259107	2020-10-29T19:49:08:535
-2,727610	-3,659181	0,288678	2020-10-29T19:49:08:697
-3,894254	-3,218132	-0,719111	2020-10-29T19:49:08:698
-4,134327	-2,419468	-1,679029	2020-10-29T19:49:08:698
-3,435373	-2,445628	-1,997749	2020-10-29T19:49:08:699
-2,826107	-1,198217	-2,226518	2020-10-29T19:49:08:699
-2,881449	-1,320378	-1,291636	2020-10-29T19:49:08:700
-3,272819	-1,841089	0,327277	2020-10-29T19:49:08:700
-3,416388	-0,994030	1,487796	2020-10-29T19:49:08:700
-2,411438	-0,182621	1,057105	2020-10-29T19:49:08:715
-1,315763	0,825742	-0,640448	2020-10-29T19:49:08:734
-0,674609	1,071093	-1,532263	2020-10-29T19:49:08:755
-1,163768	1,171072	-1,552421	2020-10-29T19:49:08:778
-1,467657	-0,405798	-1,143248	2020-10-29T19:49:08:798
-1,610534	-1,304253	0,109726	2020-10-29T19:49:08:816
-0,890295	-2,902659	-1,756676	2020-10-29T19:49:08:838
-0,216747	-1,910437	-2,050171	2020-10-29T19:49:08:876
-0,240850	-0,701994	-2,149613	2020-10-29T19:49:08:878
-0,139271	-0,319568	-2,639596	2020-10-29T19:49:08:906
-0,295739	-1,188375	-2,539580	2020-10-29T19:49:08:918
-0,098041	-1,435807	-2,443219	2020-10-29T19:49:08:988
-0,196246	-1,748268	-1,806082	2020-10-29T19:49:08:989
0,319768	-0,684286	-0,995808	2020-10-29T19:49:08:990
-0,170667	-0,281343	-0,780077	2020-10-29T19:49:09:081
0,020025	-0,791837	-0,810342	2020-10-29T19:49:09:082
0,515148	-0,291900	-1,351765	2020-10-29T19:49:09:083
0,666258	0,574256	-1,473560	2020-10-29T19:49:09:083
0,634537	1,147877	-2,324658	2020-10-29T19:49:09:084
0,956635	3,110548	-2,083785	2020-10-29T19:49:09:095
1,210736	5,034885	-1,589318	2020-10-29T19:49:09:117
0,748405	4,974172	-1,302691	2020-10-29T19:49:09:147
0,629236	4,089625	-1,507054	2020-10-29T19:49:09:185
1,343650	3,910489	-1,469635	2020-10-29T19:49:09:186
1,484532	3,120721	-0,929701	2020-10-29T19:49:09:198
1,292930	2,712307	-1,110804	2020-10-29T19:49:09:237
1,353577	3,346324	-1,187998	2020-10-29T19:49:09:238
1,335013	2,270536	-0,148272	2020-10-29T19:49:09:258
1,474702	1,257991	0,775497	2020-10-29T19:49:09:278
1,263260	1,015684	1,562819	2020-10-29T19:49:09:300
0,339993	1,310513	0,609213	2020-10-29T19:49:09:318
0,150950	0,469193	-0,571090	2020-10-29T19:49:09:336
0,082222	-1,532483	-1,641473	2020-10-29T19:49:09:358
0,161185	-4,334479	-1,976469	2020-10-29T19:49:09:377
-0,134984	-5,433861	-2,255608	2020-10-29T19:49:09:399
-0,506072	-5,724174	-1,568294	2020-10-29T19:49:09:416
-0,893850	-5,460252	-1,389659	2020-10-29T19:49:09:440
-1,112439	-4,943155	-1,420679	2020-10-29T19:49:09:457
-1,366408	-4,457330	-1,854673	2020-10-29T19:49:09:478
-1,350129	-4,261479	-2,306578	2020-10-29T19:49:09:496
-0,933831	-2,969498	-3,273036	2020-10-29T19:49:09:519
-0,683596	-1,497266	-4,167544	2020-10-29T19:49:09:537
-0,950216	-1,484795	-5,545111	2020-10-29T19:49:09:559
-1,323962	-1,377184	-6,052038	2020-10-29T19:49:09:577
-1,410885	-1,451194	-5,761286	2020-10-29T19:49:09:598
-1,769336	-1,454676	-5,646312	2020-10-29T19:49:09:618
-2,104331	-1,009610	-5,775525	2020-10-29T19:49:09:640
-2,258953	-0,821199	-5,437759	2020-10-29T19:49:09:657
-1,730598	-0,565316	-5,505621	2020-10-29T19:49:09:679
-1,303267	-0,321016	-5,599068	2020-10-29T19:49:09:697
-1,060520	-0,402645	-5,396515	2020-10-29T19:49:09:718
-0,749987	-0,835825	-4,928106	2020-10-29T19:49:09:740
-0,485952	-1,692850	-4,351365	2020-10-29T19:49:09:774
-0,157841	-2,643143	-3,907583	2020-10-29T19:49:09:814
-0,150662	-2,095187	-3,259129	2020-10-29T19:49:09:815
-0,347500	-2,493875	-3,356612	2020-10-29T19:49:09:818
-0,352285	-2,666158	-3,404468	2020-10-29T19:49:09:843
-0,027750	-2,743569	-3,481704	2020-10-29T19:49:09:860
0,735560	-2,827318	-3,565453	2020-10-29T19:49:09:881
0,844678	-2,865399	-3,426576	2020-10-29T19:49:09:897
0,669119	-3,019589	-3,110717	2020-10-29T19:49:09:920
0,708592	-2,697982	-2,612706	2020-10-29T19:49:09:938
0,976588	-2,116526	-2,021678	2020-10-29T19:49:09:959
1,293560	-1,898687	-2,003069	2020-10-29T19:49:09:977
1,572596	-1,425981	-2,258787	2020-10-29T19:49:09:998
1,656584	-1,600329	-2,028857	2020-10-29T19:49:10:017
1,486923	-0,976126	-1,905963	2020-10-29T19:49:10:039
1,305909	-0,784707	-2,188081	2020-10-29T19:49:10:058
1,388164	-1,133290	-2,713958	2020-10-29T19:49:10:080
1,462342	-0,939471	-2,730708	2020-10-29T19:49:10:098
1,038340	-1,435644	-2,256750	2020-10-29T19:49:10:119
0,092676	-3,166735	-1,770731	2020-10-29T19:49:10:137
-1,403161	-4,482308	-1,732773	2020-10-29T19:49:10:159
-2,581670	-4,886598	-2,056928	2020-10-29T19:49:10:177
-2,717021	-4,563444	-3,091130	2020-10-29T19:49:10:199
-2,087383	-4,824697	-3,270998	2020-10-29T19:49:10:217
-2,416888	-6,482033	-3,740223	2020-10-29T19:49:10:240
-3,344903	-7,363849	-3,544223	2020-10-29T19:49:10:258
-3,442602	-7,117147	-2,908005	2020-10-29T19:49:10:279
-3,765482	-5,038526	-2,134812	2020-10-29T19:49:10:298
-3,662591	-3,143410	-2,438701	2020-10-29T19:49:10:319
-2,919089	-1,425484	-2,832349	2020-10-29T19:49:10:340
-2,995660	-0,755493	-3,184094	2020-10-29T19:49:10:359
-3,198997	-0,638935	-3,661680	2020-10-29T19:49:10:377
-3,280671	-1,392795	-4,098274	2020-10-29T19:49:10:399
-3,103583	-1,434278	-4,465506	2020-10-29T19:49:10:418
-2,819249	-0,957955	-4,259335	2020-10-29T19:49:10:439
-2,154823	-0,540173	-3,979261	2020-10-29T19:49:10:457
-1,655264	-0,443349	-3,427657	2020-10-29T19:49:10:479
-1,392322	-0,461833	-2,931264	2020-10-29T19:49:10:497
-1,119960	-0,521423	-2,390614	2020-10-29T19:49:10:519
-0,652384	0,051341	-2,042706	2020-10-29T19:49:10:538
-0,235427	0,750756	-1,675190	2020-10-29T19:49:10:559
0,234087	1,031280	-1,605507	2020-10-29T19:49:10:578
0,726830	0,691933	-1,562078	2020-10-29T19:49:10:599
1,040382	0,774791	-1,493267	2020-10-29T19:49:10:617
1,379650	0,833437	-1,402733	2020-10-29T19:49:10:640
1,591019	1,014751	-1,198812	2020-10-29T19:49:10:658
1,432099	1,220696	-0,806940	2020-10-29T19:49:10:679
1,387392	1,249504	-0,251237	2020-10-29T19:49:10:698
1,532937	1,029178	-0,012327	2020-10-29T19:49:10:720
1,594062	0,683524	-0,024241	2020-10-29T19:49:10:738
1,625145	0,041142	-0,365676	2020-10-29T19:49:10:760
1,628288	-0,340330	-0,794122	2020-10-29T19:49:10:820
1,343570	-0,789579	-1,021206	2020-10-29T19:49:10:823
1,145510	-1,013714	-0,905441	2020-10-29T19:49:10:823
0,830191	-1,257079	-0,641622	2020-10-29T19:49:10:840
1,390820	-2,803288	-0,619025	2020-10-29T19:49:10:859
0,911316	-6,239655	-0,720884	2020-10-29T19:49:10:881
-0,442499	-7,147094	-1,340679	2020-10-29T19:49:10:899
-1,294309	-5,264431	0,420312	2020-10-29T19:49:10:919
-1,564547	-1,959090	0,145215	2020-10-29T19:49:10:940
-1,151388	-1,260987	0,211104	2020-10-29T19:49:10:960
0,046763	-0,853665	-0,159301	2020-10-29T19:49:10:978
0,288508	-0,900470	-1,351391	2020-10-29T19:49:11:006
0,225932	-1,528087	-0,846218	2020-10-29T19:49:11:019
0,417399	-2,110358	0,210867	2020-10-29T19:49:11:041
1,284181	-2,628188	-4,018147	2020-10-29T19:49:11:059
0,717345	-2,992066	-3,748708	2020-10-29T19:49:11:080
0,572489	-3,217510	-5,048656	2020-10-29T19:49:11:098
0,855482	-2,690740	-5,689369	2020-10-29T19:49:11:120
1,721761	-0,882826	-6,187618	2020-10-29T19:49:11:138
2,041843	-1,449760	-5,840460	2020-10-29T19:49:11:160
2,168512	-1,646810	-5,661708	2020-10-29T19:49:11:178
1,986735	-0,390744	-5,659138	2020-10-29T19:49:11:201
2,125538	0,168807	-4,904753	2020-10-29T19:49:11:219
-8,345285	5,462473	-8,369454	2020-10-29T19:49:18:128
-8,681218	3,605974	-9,194658	2020-10-29T19:49:18:129
-9,009190	1,780791	-8,997975	2020-10-29T19:49:18:130
-9,219133	1,850174	-8,559017	2020-10-29T19:49:18:131
-8,156902	3,109588	-9,148019	2020-10-29T19:49:18:145
-6,676680	4,442724	-9,107203	2020-10-29T19:49:18:157
-5,383223	4,375225	-8,573015	2020-10-29T19:49:18:177
-4,621238	4,580654	-8,135476	2020-10-29T19:49:18:196
-4,101594	4,702257	-7,395581	2020-10-29T19:49:18:219
-3,779163	4,791506	-6,461432	2020-10-29T19:49:18:235
-3,730499	5,468767	-6,226322	2020-10-29T19:49:18:258
-3,568217	6,403078	-6,236458	2020-10-29T19:49:18:276
-3,575515	7,176762	-6,515983	2020-10-29T19:49:18:298
-3,888411	7,629463	-6,237169	2020-10-29T19:49:18:315
-4,594205	7,372250	-5,693764	2020-10-29T19:49:18:337
-5,347418	7,335984	-5,348854	2020-10-29T19:49:18:356
-9,967334	7,618151	-3,195240	2020-10-29T19:49:18:378
-12,537087	6,595782	-3,300986	2020-10-29T19:49:18:396
-12,511084	5,623874	-3,783186	2020-10-29T19:49:18:418
-11,465109	4,946410	-4,213001	2020-10-29T19:49:18:435
-10,892177	3,977659	-4,121551	2020-10-29T19:49:18:458
-9,445021	3,755592	-4,219181	2020-10-29T19:49:18:475
-7,474743	3,934789	-4,508892	2020-10-29T19:49:18:498
-5,990599	4,602332	-5,068450	2020-10-29T19:49:18:515
-4,843989	5,416748	-5,583432	2020-10-29T19:49:18:538
-3,988184	6,245832	-5,754686	2020-10-29T19:49:18:555
-3,435029	6,712846	-5,516288	2020-10-29T19:49:18:577
-3,023716	6,608101	-5,206276	2020-10-29T19:49:18:596
-2,658728	6,426508	-4,808077	2020-10-29T19:49:18:619
-2,191363	5,756902	-4,515166	2020-10-29T19:49:18:636
-1,963951	5,382106	-4,239671	2020-10-29T19:49:18:658
-1,908574	4,971516	-4,119059	2020-10-29T19:49:18:675
-1,970889	5,031635	-4,335729	2020-10-29T19:49:18:700
-2,481418	5,427287	-4,653512	2020-10-29T19:49:18:715
-3,167066	6,046550	-4,843539	2020-10-29T19:49:18:737
-3,769829	6,787592	-4,681554	2020-10-29T19:49:18:756
-4,545142	7,342955	-4,542451	2020-10-29T19:49:18:778
-5,550658	8,104655	-4,261720	2020-10-29T19:49:18:796
-6,508634	8,585447	-3,610433	2020-10-29T19:49:18:818
-7,504497	8,797682	-2,937727	2020-10-29T19:49:18:836
-8,064515	8,717571	-2,200938	2020-10-29T19:49:18:858
-8,234544	8,635414	-1,153838	2020-10-29T19:49:18:878
-7,813406	8,408096	-0,871484	2020-10-29T19:49:18:898
-7,520673	8,200087	-0,246178	2020-10-29T19:49:18:915
-7,253232	7,934803	0,226181	2020-10-29T19:49:18:939
-6,824557	7,914729	0,574439	2020-10-29T19:49:18:956
-6,450444	7,696235	0,788574	2020-10-29T19:49:18:978
-6,165588	7,307644	1,227781	2020-10-29T19:49:18:996
-5,763375	6,949302	1,676694	2020-10-29T19:49:19:019
-5,534933	6,578273	2,022550	2020-10-29T19:49:19:036
-5,263446	6,024062	2,117316	2020-10-29T19:49:19:058
-5,016203	5,603082	1,818080	2020-10-29T19:49:19:076
-4,696920	4,994698	1,325535	2020-10-29T19:49:19:099
-4,291901	4,109756	0,830976	2020-10-29T19:49:19:116
-3,699864	3,394544	0,441187	2020-10-29T19:49:19:138
-2,919928	2,356535	-0,203737	2020-10-29T19:49:19:156
-3,274065	2,509675	-0,699052	2020-10-29T19:49:19:179
-2,779543	1,556167	-1,344387	2020-10-29T19:49:19:197
-2,667081	1,539418	-1,339601	2020-10-29T19:49:19:218
-2,373329	1,270243	-1,258708	2020-10-29T19:49:19:236
-2,344877	1,191165	-0,829693	2020-10-29T19:49:19:259
-2,083470	1,152222	-0,385968	2020-10-29T19:49:19:276
-1,804275	1,060318	-0,124323	2020-10-29T19:49:19:298
-1,577139	0,748155	-0,147548	2020-10-29T19:49:19:316
-1,429528	0,534148	-0,255039	2020-10-29T19:49:19:339
-1,251504	0,477493	-0,305724	2020-10-29T19:49:19:357
-1,034512	0,292865	-0,486140	2020-10-29T19:49:19:378
-0,841763	0,292734	-0,771559	2020-10-29T19:49:19:396
-0,797555	0,322756	-0,896190	2020-10-29T19:49:19:420
-0,776898	0,539028	-1,005349	2020-10-29T19:49:19:436
-0,743216	1,096729	-0,910258	2020-10-29T19:49:19:458
0,142737	-1,277684	-1,627722	2020-10-29T19:49:19:476
0,096375	-1,003303	-1,444956	2020-10-29T19:49:19:500
0,219967	-0,654160	-1,405672	2020-10-29T19:49:19:516
0,063784	-0,269335	-1,356940	2020-10-29T19:49:19:538
-0,311106	-0,028605	-1,154400	2020-10-29T19:49:19:556
-0,551529	0,225732	-1,191546	2020-10-29T19:49:19:579
-0,569105	0,575259	-1,138859	2020-10-29T19:49:19:598
-0,757386	0,911775	-1,251663	2020-10-29T19:49:19:618
-0,645433	1,140029	-1,079909	2020-10-29T19:49:19:636
-0,597176	1,528154	-0,955990	2020-10-29T19:49:19:659
-0,406614	1,563454	-0,746833	2020-10-29T19:49:19:676
-0,273105	1,720983	-0,521735	2020-10-29T19:49:19:699
-0,154888	1,790794	-0,311016	2020-10-29T19:49:19:716
-0,065403	1,817236	-0,104018	2020-10-29T19:49:19:739
-0,104331	1,740240	0,191378	2020-10-29T19:49:19:757
-0,166544	1,701955	0,210521	2020-10-29T19:49:19:779
-0,193837	1,598736	0,303800	2020-10-29T19:49:19:797
-0,368196	1,463110	0,487895	2020-10-29T19:49:19:819
-0,480860	1,353854	0,539804	2020-10-29T19:49:19:838
-0,617290	1,131584	0,680390	2020-10-29T19:49:19:858
-0,851614	0,845663	0,551269	2020-10-29T19:49:19:877
-0,796579	0,711665	0,618268	2020-10-29T19:49:19:900
-0,762784	0,598231	0,604255	2020-10-29T19:49:19:916
-0,810324	0,532598	0,698224	2020-10-29T19:49:19:940
-0,816679	0,421030	0,689897	2020-10-29T19:49:19:957
-0,616637	0,105234	0,571089	2020-10-29T19:49:19:980
-0,437523	0,118064	0,670328	2020-10-29T19:49:19:997
-0,452248	0,096700	0,593000	2020-10-29T19:49:20:019
-0,431704	0,241282	0,535450	2020-10-29T19:49:20:036
-0,463851	0,514419	0,599931	2020-10-29T19:49:20:060
-0,631271	1,272577	0,356449	2020-10-29T19:49:20:079
-0,583414	1,626715	0,296629	2020-10-29T19:49:20:100
-0,798429	2,197957	0,273889	2020-10-29T19:49:20:117
-0,955688	2,683961	0,167151	2020-10-29T19:49:20:140
-1,076579	3,023663	0,084678	2020-10-29T19:49:20:157
-1,249267	3,395295	0,107494	2020-10-29T19:49:20:179
-1,399492	3,573879	0,036237	2020-10-29T19:49:20:197
-1,409659	3,515997	-0,077753	2020-10-29T19:49:20:220
-1,276735	3,415520	-0,146870	2020-10-29T19:49:20:236
-1,340229	3,065498	-0,314865	2020-10-29T19:49:20:259
-1,327315	2,987952	-0,551568	2020-10-29T19:49:20:277
-1,300889	2,943740	-0,679903	2020-10-29T19:49:20:301
-1,243858	2,841010	-0,854264	2020-10-29T19:49:20:318
-1,322282	2,941499	-1,080154	2020-10-29T19:49:20:339
-1,415438	2,863858	-1,177802	2020-10-29T19:49:20:357
-1,305415	2,802837	-1,156691	2020-10-29T19:49:20:380
-1,098684	2,848024	-1,110738	2020-10-29T19:49:20:398
-1,246792	2,992336	-1,322348	2020-10-29T19:49:20:419
-1,353687	3,185114	-1,721317	2020-10-29T19:49:20:438
-1,253188	3,359790	-1,939064	2020-10-29T19:49:20:460
-1,113317	3,284658	-2,101128	2020-10-29T19:49:20:477
-1,124372	3,498755	-2,182308	2020-10-29T19:49:20:500
-1,153836	3,633657	-2,371003	2020-10-29T19:49:20:517
-0,952078	3,946668	-2,786100	2020-10-29T19:49:20:540
-0,968776	3,913919	-2,915833	2020-10-29T19:49:20:558
-1,180465	4,052144	-2,996099	2020-10-29T19:49:20:579
-1,175612	4,121391	-2,832881	2020-10-29T19:49:20:598
-1,192420	4,174363	-2,741266	2020-10-29T19:49:20:620
-1,474300	4,013452	-2,636292	2020-10-29T19:49:20:637
-2,890063	3,850105	-2,678810	2020-10-29T19:49:20:659
-3,006886	3,224857	-2,117409	2020-10-29T19:49:20:677
-0,473049	2,737849	-1,477766	2020-10-29T19:49:20:701
1,167440	2,505884	-0,695432	2020-10-29T19:49:20:717
0,829886	2,550409	-0,152289	2020-10-29T19:49:20:740
-0,214608	2,869795	-0,107110	2020-10-29T19:49:20:758
-1,426620	2,874223	0,267671	2020-10-29T19:49:20:780
-3,277630	2,839528	0,802164	2020-10-29T19:49:20:800
-4,340044	2,377713	1,352513	2020-10-29T19:49:20:820
-4,657511	2,419964	1,421933	2020-10-29T19:49:20:837
-4,316368	3,061993	1,384955	2020-10-29T19:49:20:861
-3,676885	4,050419	1,471194	2020-10-29T19:49:20:877
-2,985290	5,436381	1,208073	2020-10-29T19:49:20:900
-2,868709	6,362411	0,581273	2020-10-29T19:49:20:918
-2,950567	6,976132	0,331042	2020-10-29T19:49:20:941
-3,021682	6,839685	0,245362	2020-10-29T19:49:20:957
-2,988475	6,759614	0,147558	2020-10-29T19:49:20:980
-2,832228	6,508628	-0,334314	2020-10-29T19:49:20:998
-2,553584	6,087892	-0,830922	2020-10-29T19:49:21:021
-2,358155	5,284587	-1,076084	2020-10-29T19:49:21:039
-2,203522	4,815938	-1,255283	2020-10-29T19:49:21:060
-2,090237	4,504703	-1,310625	2020-10-29T19:49:21:078
-2,100722	3,975622	-1,356180	2020-10-29T19:49:21:102
-2,069256	3,603141	-1,408326	2020-10-29T19:49:21:118
-1,850174	3,247955	-1,571417	2020-10-29T19:49:21:140
-1,521614	2,819937	-1,813610	2020-10-29T19:49:21:158
-1,178593	2,573550	-1,992543	2020-10-29T19:49:21:181
-0,840145	2,113862	-1,966473	2020-10-29T19:49:21:200
-0,349050	1,203946	-1,635955	2020-10-29T19:49:21:221
-0,246595	0,619792	-1,757219	2020-10-29T19:49:21:238
-0,421272	0,325475	-1,666291	2020-10-29T19:49:21:261
-0,272565	-0,653434	-0,867404	2020-10-29T19:49:21:281
-0,045247	-1,012357	-0,108879	2020-10-29T19:49:21:301
0,521967	-1,420606	0,160360	2020-10-29T19:49:21:317
0,551026	-1,504576	-0,244662	2020-10-29T19:49:21:340
-1,860939	-1,298794	-1,311861	2020-10-29T19:49:21:357
-3,736588	-1,915661	-1,120667	2020-10-29T19:49:21:380
-3,546244	-2,714593	-0,943408	2020-10-29T19:49:21:399
-2,305960	-3,309379	-0,764376	2020-10-29T19:49:21:421
-1,182343	-4,252022	-0,640436	2020-10-29T19:49:21:438
0,176780	-4,207515	-1,974777	2020-10-29T19:49:21:460
-0,201490	-3,339906	-3,377390	2020-10-29T19:49:21:478
-1,240093	-2,794732	-3,981363	2020-10-29T19:49:21:502
-2,090135	-2,189601	-5,348774	2020-10-29T19:49:21:520
-1,724031	-2,426491	-6,219762	2020-10-29T19:49:21:540
-2,116220	-2,141854	-8,194983	2020-10-29T19:49:21:558
-3,095201	-1,938486	-9,278801	2020-10-29T19:49:21:582
-4,284502	-1,170702	-8,964994	2020-10-29T19:49:21:599
-5,011670	-0,382702	-8,533007	2020-10-29T19:49:21:621
-5,710365	0,458689	-8,631777	2020-10-29T19:49:21:638
-6,624540	1,777068	-8,962094	2020-10-29T19:49:21:661
-7,552772	3,146062	-9,907074	2020-10-29T19:49:21:678
-8,056816	3,910023	-12,086552	2020-10-29T19:49:21:701
-8,230550	3,609344	-12,042975	2020-10-29T19:49:21:718
-9,875517	2,472849	-10,563869	2020-10-29T19:49:21:741
-11,916092	2,067740	-10,257680	2020-10-29T19:49:21:760
-12,225481	2,815643	-11,362343	2020-10-29T19:49:21:780
-11,311679	3,491724	-12,342819	2020-10-29T19:49:21:799
-11,234157	5,283380	4,138262	2020-10-29T19:49:21:821
-8,634049	7,293223	3,932937	2020-10-29T19:49:21:839
-6,784831	7,192166	7,306087	2020-10-29T19:49:21:861
-6,241333	6,432185	11,581532	2020-10-29T19:49:21:878
-6,354887	6,293036	12,614079	2020-10-29T19:49:21:902
-5,185611	9,275396	6,803728	2020-10-29T19:49:21:918
-5,182089	10,384871	1,335445	2020-10-29T19:49:21:941
-3,637095	12,535617	1,062781	2020-10-29T19:49:21:958
-0,260751	10,986319	0,407359	2020-10-29T19:49:21:981
-0,273864	13,499171	2,247978	2020-10-29T19:49:22:000
-0,979829	7,124367	4,157883	2020-10-29T19:49:22:022
-1,314824	5,241215	6,249210	2020-10-29T19:49:22:039
-1,636645	7,105832	7,038922	2020-10-29T19:49:22:062
-1,172725	7,072163	6,690031	2020-10-29T19:49:22:079
-0,876503	6,761958	6,093848	2020-10-29T19:49:22:102
0,057137	6,863619	4,125073	2020-10-29T19:49:22:119
1,764019	6,333371	2,895677	2020-10-29T19:49:22:142
2,282421	3,988228	3,652120	2020-10-29T19:49:22:158
3,200209	2,134785	3,995975	2020-10-29T19:49:22:181
4,076690	0,575888	4,152568	2020-10-29T19:49:22:199
4,970972	-2,345673	2,633058	2020-10-29T19:49:22:222
5,940475	-4,552714	3,234651	2020-10-29T19:49:22:239
7,049090	-4,702342	1,919868	2020-10-29T19:49:22:261
7,999778	-4,125736	0,540096	2020-10-29T19:49:22:278
5,030155	-4,791535	-7,162600	2020-10-29T19:49:22:303
6,288133	-4,637503	-6,499889	2020-10-29T19:49:22:319
6,400120	-3,275084	-5,728006	2020-10-29T19:49:22:341
5,567086	-2,816545	-5,733908	2020-10-29T19:49:22:359
5,782306	-2,020623	-5,919271	2020-10-29T19:49:22:382
5,520242	0,481564	-7,433751	2020-10-29T19:49:22:399
4,344589	2,971268	-7,810873	2020-10-29T19:49:22:421
3,657325	3,705353	-6,851479	2020-10-29T19:49:22:439
3,994666	3,346561	-6,555718	2020-10-29T19:49:22:462
4,125574	2,546058	-6,563249	2020-10-29T19:49:22:480
2,933948	2,359418	-6,012899	2020-10-29T19:49:22:503
1,685399	2,555377	-5,710016	2020-10-29T19:49:22:519
0,908913	2,202130	-6,350671	2020-10-29T19:49:22:542
-0,085231	1,966715	-6,393505	2020-10-29T19:49:22:559
-1,488425	1,838972	-4,854886	2020-10-29T19:49:22:581
-1,785826	2,122126	-3,315878	2020-10-29T19:49:22:601
-1,173957	1,840784	-2,210102	2020-10-29T19:49:22:622
-1,204339	0,572850	-0,230435	2020-10-29T19:49:22:640
-7,522352	3,102278	-1,052202	2020-10-29T19:49:22:662
-6,397429	3,379004	1,086602	2020-10-29T19:49:22:679
-11,192645	1,577209	1,928876	2020-10-29T19:49:22:703
-10,099424	1,353086	3,789752	2020-10-29T19:49:22:722
-13,973404	0,293066	2,784767	2020-10-29T19:49:22:742
-16,577152	-0,794827	2,252792	2020-10-29T19:49:22:759
-15,274973	-1,677417	0,444844	2020-10-29T19:49:22:782
-12,881507	-4,345136	-0,321467	2020-10-29T19:49:22:800
-9,741289	-6,886653	2,594523	2020-10-29T19:49:22:821
-6,697056	-4,353362	5,834570	2020-10-29T19:49:22:839
-4,800452	-3,113228	6,486170	2020-10-29T19:49:22:862
-3,269325	-1,867597	6,005276	2020-10-29T19:49:22:879
-2,156417	-0,589406	4,100636	2020-10-29T19:49:22:902
-1,861516	0,355727	2,509180	2020-10-29T19:49:22:919
-1,804928	-0,817584	2,567163	2020-10-29T19:49:22:944
-0,735894	-2,089149	2,955097	2020-10-29T19:49:22:962
0,108772	-2,031722	3,072346	2020-10-29T19:49:22:981
0,554978	-2,256948	3,223122	2020-10-29T19:49:23:000
0,791782	-1,952549	2,875296	2020-10-29T19:49:23:023
1,346952	-0,697415	2,308931	2020-10-29T19:49:23:040
1,498390	1,021665	1,490283	2020-10-29T19:49:23:062
1,094761	1,806472	1,576208	2020-10-29T19:49:23:080
-0,072116	1,928430	2,420692	2020-10-29T19:49:23:103
-1,176943	2,116680	2,935445	2020-10-29T19:49:23:120
-1,876010	1,985054	2,247795	2020-10-29T19:49:23:145
-3,734295	1,766253	1,089569	2020-10-29T19:49:23:160
-5,356628	0,591377	0,240117	2020-10-29T19:49:23:183
-5,053528	-0,274360	0,944823	2020-10-29T19:49:23:201
-4,249761	-0,379538	1,734765	2020-10-29T19:49:23:222
-3,944544	-0,322183	2,454091	2020-10-29T19:49:23:240
-3,058298	0,108369	2,822789	2020-10-29T19:49:23:263
-3,100696	1,131788	2,770283	2020-10-29T19:49:23:280
-4,589151	2,068457	2,439301	2020-10-29T19:49:23:302
-6,819340	3,404869	2,059426	2020-10-29T19:49:23:320
-8,066000	4,048538	1,489934	2020-10-29T19:49:23:343
-9,210958	5,189520	0,335421	2020-10-29T19:49:23:360
-9,855034	6,467193	-0,514660	2020-10-29T19:49:23:382
-9,550913	7,608399	-1,296177	2020-10-29T19:49:23:400
-8,683495	8,250720	-1,938288	2020-10-29T19:49:23:423
-7,521416	8,806259	-2,142974	2020-10-29T19:49:23:442
-6,179044	8,765581	-1,673981	2020-10-29T19:49:23:462
-0,753429	4,273605	-1,107587	2020-10-29T19:49:23:480
-0,375338	5,138922	-1,280195	2020-10-29T19:49:23:504
0,715789	4,897247	-1,165339	2020-10-29T19:49:23:520
0,599211	5,710754	-0,892479	2020-10-29T19:49:23:542
0,149564	6,246324	-0,866319	2020-10-29T19:49:23:560
-0,219738	6,794621	-0,594081	2020-10-29T19:49:23:583
-0,352525	7,126772	-0,239038	2020-10-29T19:49:23:600
-0,265610	7,446915	0,383246	2020-10-29T19:49:23:622
0,386716	7,672026	0,649598	2020-10-29T19:49:23:640
1,205381	7,804694	0,815421	2020-10-29T19:49:23:663
2,251944	7,922647	0,590179	2020-10-29T19:49:23:683
2,012662	8,013574	0,422682	2020-10-29T19:49:23:703
1,399532	7,681227	0,095813	2020-10-29T19:49:23:720
0,230451	7,212453	-0,401053	2020-10-29T19:49:23:743
-1,984645	7,023291	-1,967998	2020-10-29T19:49:23:761
-9,316275	5,693954	-2,696150	2020-10-29T19:49:23:782
-13,733170	4,096692	-2,744189	2020-10-29T19:49:23:801
-14,769989	2,277683	-2,193491	2020-10-29T19:49:23:824
-13,383709	-0,845082	-2,136133	2020-10-29T19:49:23:840
-10,372001	-7,433477	0,804901	2020-10-29T19:49:23:862
-4,647290	-18,017117	4,438946	2020-10-29T19:49:23:880
0,553791	-3,777722	-0,588638	2020-10-29T19:49:23:904
2,559522	2,437220	-2,318546	2020-10-29T19:49:23:922
0,039467	1,868840	-2,044978	2020-10-29T19:49:23:942
-0,765970	-0,492538	-0,938431	2020-10-29T19:49:23:960
-1,430742	-2,030010	-0,498566	2020-10-29T19:49:23:983
-2,252809	-3,386204	0,643456	2020-10-29T19:49:24:001
-2,405536	-4,980493	2,613766	2020-10-29T19:49:24:023
-1,697301	-4,211468	2,932853	2020-10-29T19:49:24:041
-0,159044	-4,500639	2,455342	2020-10-29T19:49:24:064
1,205302	-3,690337	1,223514	2020-10-29T19:49:24:080
1,899525	-2,812857	0,332841	2020-10-29T19:49:24:103
2,122392	-2,601490	0,187411	2020-10-29T19:49:24:120
2,030196	-2,446228	0,356587	2020-10-29T19:49:24:144
1,984813	-2,226707	0,150699	2020-10-29T19:49:24:162
1,862964	-1,815082	-0,243943	2020-10-29T19:49:24:182
1,674887	-1,171583	-0,385266	2020-10-29T19:49:24:201
1,353086	-0,468997	-0,439710	2020-10-29T19:49:24:224
1,005545	-0,027850	-0,422239	2020-10-29T19:49:24:241
0,197741	0,140659	-0,418820	2020-10-29T19:49:24:263
-0,479327	-0,093393	-0,707301	2020-10-29T19:49:24:281
-0,695339	-0,063753	-1,113760	2020-10-29T19:49:24:304
-1,335707	0,169099	-1,228035	2020-10-29T19:49:24:321
-2,371005	0,088432	-0,884885	2020-10-29T19:49:24:343
-2,721214	0,077059	-0,407352	2020-10-29T19:49:24:361
-2,509706	0,247728	-0,083542	2020-10-29T19:49:24:383
-3,468419	0,827252	-0,772223	2020-10-29T19:49:24:402
-5,332634	0,864665	-1,001148	2020-10-29T19:49:24:424
-4,913993	1,196166	-0,951997	2020-10-29T19:49:24:441
-4,353172	1,850840	0,239650	2020-10-29T19:49:24:464
-4,044068	2,630951	1,399733	2020-10-29T19:49:24:481
-3,099756	2,979787	1,596052	2020-10-29T19:49:24:504
-1,290217	3,036050	0,704194	2020-10-29T19:49:24:521
0,880994	3,026920	-0,103868	2020-10-29T19:49:24:544
1,968312	3,313355	-0,384055	2020-10-29T19:49:24:561
1,002902	3,652723	-0,265779	2020-10-29T19:49:24:583
-0,945893	3,382915	-0,131223	2020-10-29T19:49:24:602
-1,965162	2,988204	-0,229174	2020-10-29T19:49:24:624
-2,088690	2,962931	-0,570462	2020-10-29T19:49:24:642
-2,226512	2,943039	-0,984602	2020-10-29T19:49:24:663
-2,087261	3,038388	-1,055538	2020-10-29T19:49:24:681
-1,702782	3,448136	-1,153884	2020-10-29T19:49:24:705
-0,987156	3,984616	-1,341142	2020-10-29T19:49:24:721
-0,234987	4,429927	-1,384974	2020-10-29T19:49:24:743
0,467235	4,652555	-1,389721	2020-10-29T19:49:24:762
1,083131	4,720009	-1,710188	2020-10-29T19:49:24:784
1,299232	4,663775	-1,905554	2020-10-29T19:49:24:802
1,354666	4,529831	-1,854949	2020-10-29T19:49:24:849
1,277586	4,402164	-1,923885	2020-10-29T19:49:24:850
0,971786	4,271521	-1,675764	2020-10-29T19:49:24:868
0,372050	3,824513	-1,502049	2020-10-29T19:49:24:899
0,403788	3,724380	-1,874487	2020-10-29T19:49:24:904
0,305638	3,880834	-2,531927	2020-10-29T19:49:24:921
-0,553665	3,923995	-3,201902	2020-10-29T19:49:24:944
-2,180275	3,827967	-3,425972	2020-10-29T19:49:24:961
-4,329324	3,577039	-3,076629	2020-10-29T19:49:24:984
-6,643314	2,861934	-2,497349	2020-10-29T19:49:25:002
-7,758411	1,817608	-2,228404	2020-10-29T19:49:25:026
-8,730416	0,515851	-2,916154	2020-10-29T19:49:25:042
-10,391816	-1,724442	-3,100015	2020-10-29T19:49:25:064
-8,638655	-5,613910	-1,969807	2020-10-29T19:49:25:082
-5,694205	-10,166412	-0,552024	2020-10-29T19:49:25:105
-3,291940	-8,569221	-1,134310	2020-10-29T19:49:25:124
-0,970901	-3,919966	-1,993334	2020-10-29T19:49:25:144
0,740358	-1,742378	-1,055696	2020-10-29T19:49:25:162
2,526958	-0,297095	-1,049212	2020-10-29T19:49:25:185
3,720159	-0,340509	-1,397232	2020-10-29T19:49:25:203
3,326623	-1,360822	-0,654539	2020-10-29T19:49:25:225
2,222380	-3,454385	0,549928	2020-10-29T19:49:25:242
0,857005	-4,459221	1,694837	2020-10-29T19:49:25:265
0,047082	-5,695451	1,437149	2020-10-29T19:49:25:282
-0,165879	-6,820077	0,484806	2020-10-29T19:49:25:304
-0,419763	-7,118661	-0,455251	2020-10-29T19:49:25:322
-0,984610	-5,945941	-0,953911	2020-10-29T19:49:25:344
-1,625737	-4,479224	-0,940518	2020-10-29T19:49:25:364
-1,678379	-2,945425	-1,239621	2020-10-29T19:49:25:384
-1,640393	-1,704677	-1,670590	2020-10-29T19:49:25:402
-1,892069	-0,816862	-1,840782	2020-10-29T19:49:25:425
-2,146729	-0,309819	-2,099990	2020-10-29T19:49:25:442
-2,424071	-0,132426	-2,480804	2020-10-29T19:49:25:464
-2,667119	-0,205349	-3,126563	2020-10-29T19:49:25:482
-3,040951	-0,211215	-4,073197	2020-10-29T19:49:25:505
-3,264554	-0,362477	-4,836259	2020-10-29T19:49:25:522
-3,165593	-0,100277	-5,115471	2020-10-29T19:49:25:544
-2,829481	0,351323	-5,053950	2020-10-29T19:49:25:562
-2,274511	1,095997	-5,124536	2020-10-29T19:49:25:585
-2,427376	2,024349	-4,774889	2020-10-29T19:49:25:604
-3,268585	2,912943	-4,387717	2020-10-29T19:49:25:624
-4,182606	3,569068	-4,502964	2020-10-29T19:49:25:642
-4,123867	4,099892	-4,586246	2020-10-29T19:49:25:665
-3,518620	4,511233	-4,511193	2020-10-29T19:49:25:682
-3,112932	4,981498	-4,054206	2020-10-29T19:49:25:705
-2,755705	5,116333	-2,682202	2020-10-29T19:49:25:722
-3,619032	5,698944	-2,039579	2020-10-29T19:49:25:745
-4,706236	6,045130	-1,821649	2020-10-29T19:49:25:763
-3,189107	8,925146	-2,312306	2020-10-29T19:49:25:784
-0,245265	13,034990	-0,586681	2020-10-29T19:49:25:803
1,704884	12,771093	0,369019	2020-10-29T19:49:25:826
1,052471	8,295023	0,403690	2020-10-29T19:49:25:845
-1,515028	5,000106	0,822434	2020-10-29T19:49:25:864
-1,864764	3,325330	0,418596	2020-10-29T19:49:25:882
-1,208415	3,371162	-0,134690	2020-10-29T19:49:25:906
-1,632804	2,609813	-1,138918	2020-10-29T19:49:25:922
-2,504037	2,141228	-1,490378	2020-10-29T19:49:25:944
-2,811543	1,984992	-1,288024	2020-10-29T19:49:25:963
-2,311444	2,453985	-1,249738	2020-10-29T19:49:25:986
-1,381787	2,063214	-1,022835	2020-10-29T19:49:26:003
-0,790008	1,513224	-0,654032	2020-10-29T19:49:26:025
-0,515532	0,908761	-0,436551	2020-10-29T19:49:26:043
-0,285548	-0,035970	-0,776413	2020-10-29T19:49:26:066
-0,418597	-1,039663	-1,004117	2020-10-29T19:49:26:084
-0,763164	-1,618727	-1,150079	2020-10-29T19:49:26:105
-0,862198	-1,796822	-1,026153	2020-10-29T19:49:26:122
-1,538894	0,414838	-1,066721	2020-10-29T19:49:26:146
-1,051053	-5,773731	-1,372499	2020-10-29T19:49:26:162
-0,805814	-5,060560	-1,495757	2020-10-29T19:49:26:185
-0,485089	-5,074260	-1,441502	2020-10-29T19:49:26:204
-0,501839	-4,990511	-1,257254	2020-10-29T19:49:26:226
-1,199193	-5,105130	-0,943135	2020-10-29T19:49:26:242
-1,839299	-4,880328	-0,992002	2020-10-29T19:49:26:265
-2,139795	-4,959210	-1,059039	2020-10-29T19:49:26:283
-2,258429	-4,948553	-0,628260	2020-10-29T19:49:26:306
-1,955899	-4,634737	-0,064108	2020-10-29T19:49:26:324
-1,289248	-4,019627	-0,610215	2020-10-29T19:49:26:345
-3,810062	-4,135396	-0,064048	2020-10-29T19:49:26:363
-4,170334	-3,987819	0,571618	2020-10-29T19:49:26:387
-1,760173	-3,926306	0,124200	2020-10-29T19:49:26:403
-0,999749	-3,579401	-0,853713	2020-10-29T19:49:26:425
-1,774771	-2,568054	-0,718839	2020-10-29T19:49:26:443
-1,460527	-1,967947	0,224089	2020-10-29T19:49:26:466
-0,397986	-1,118823	0,157215	2020-10-29T19:49:26:483
0,411657	4,527472	0,873596	2020-10-29T19:49:26:505
1,054461	9,822178	2,916997	2020-10-29T19:49:26:523
2,324057	7,154583	1,574077	2020-10-29T19:49:26:546
2,078014	2,385239	1,028749	2020-10-29T19:49:26:565
-0,120991	-0,203795	1,023963	2020-10-29T19:49:26:585
-1,234371	-0,733698	1,581155	2020-10-29T19:49:26:604
-0,172134	-1,177836	2,087352	2020-10-29T19:49:26:627
-0,646279	0,063217	3,305342	2020-10-29T19:49:26:645
-1,553664	0,854048	2,585689	2020-10-29T19:49:26:665
-0,984025	0,149832	2,102066	2020-10-29T19:49:26:684
0,415665	-1,236858	1,600151	2020-10-29T19:49:26:708
1,640878	-1,899244	1,028000	2020-10-29T19:49:26:724
2,557330	-2,662554	0,652327	2020-10-29T19:49:26:745
2,072974	-3,047281	0,192087	2020-10-29T19:49:26:764
1,519572	-3,230730	-0,080753	2020-10-29T19:49:26:786
1,609085	-3,430835	-0,423750	2020-10-29T19:49:26:806
1,714489	-3,202031	-0,471942	2020-10-29T19:49:26:825
0,892620	-2,737918	-0,869841	2020-10-29T19:49:26:844
-0,269952	-2,309123	-2,139812	2020-10-29T19:49:26:866
-1,728199	-1,965939	-3,560206	2020-10-29T19:49:26:884
-3,211748	-2,274613	-3,462101	2020-10-29T19:49:26:906
-4,508398	-1,934182	-4,072903	2020-10-29T19:49:26:924
-4,911209	-1,080336	-4,022848	2020-10-29T19:49:26:947
-5,171773	2,754624	-3,010739	2020-10-29T19:49:26:964
-3,874863	3,008263	-2,223501	2020-10-29T19:49:26:986
-6,381255	3,993220	-2,424819	2020-10-29T19:49:27:004
-7,501173	4,565817	-2,541202	2020-10-29T19:49:27:026
-4,815150	4,567545	-2,117904	2020-10-29T19:49:27:046
-3,903302	4,734754	-0,906520	2020-10-29T19:49:27:066
-3,240355	4,781068	0,411255	2020-10-29T19:49:27:083
-2,452894	4,839264	1,783506	2020-10-29T19:49:27:107
-1,894049	5,235039	2,473514	2020-10-29T19:49:27:124
-2,496709	6,222385	2,235223	2020-10-29T19:49:27:146
-4,064409	7,270051	1,666632	2020-10-29T19:49:27:164
-5,093703	8,305022	1,112067	2020-10-29T19:49:27:187
-5,279177	9,085271	0,132649	2020-10-29T19:49:27:205
-5,162715	9,717038	-0,140105	2020-10-29T19:49:27:226
-4,751805	10,216832	0,002907	2020-10-29T19:49:27:244
-4,004837	10,054047	0,460227	2020-10-29T19:49:27:267
-3,190971	9,473587	1,321038	2020-10-29T19:49:27:285
-2,467990	8,573488	2,010981	2020-10-29T19:49:27:306
-1,941629	7,890483	2,466266	2020-10-29T19:49:27:324
-1,751484	7,346684	2,512889	2020-10-29T19:49:27:347
-1,695909	6,993449	2,011474	2020-10-29T19:49:27:364
-1,497394	6,797801	1,299157	2020-10-29T19:49:27:386
-1,399339	6,530128	0,823135	2020-10-29T19:49:27:404
-1,351311	6,139897	0,432653	2020-10-29T19:49:27:427
-1,235575	4,887362	0,338931	2020-10-29T19:49:27:444
-0,363271	0,798820	-0,023491	2020-10-29T19:49:27:466
-1,114923	0,316044	0,026931	2020-10-29T19:49:27:484
-2,067648	-0,351085	0,377881	2020-10-29T19:49:27:508
-3,244408	-1,003254	0,783501	2020-10-29T19:49:27:525
-4,502073	-2,035777	1,356330	2020-10-29T19:49:27:547
-5,455787	-3,501676	2,070127	2020-10-29T19:49:27:564
-5,422307	-6,431782	2,538419	2020-10-29T19:49:27:588
-7,011938	-10,702011	3,164687	2020-10-29T19:49:27:605
-6,878332	-8,891987	3,746827	2020-10-29T19:49:27:626
-3,287450	-2,915704	2,110454	2020-10-29T19:49:27:644
-1,130872	0,081688	1,327738	2020-10-29T19:49:27:667
0,411011	0,694130	1,489811	2020-10-29T19:49:27:684
1,540707	-1,195626	2,590565	2020-10-29T19:49:27:707
1,693475	-2,867374	3,505826	2020-10-29T19:49:27:732
0,421984	-4,902272	4,441251	2020-10-29T19:49:27:747
-1,218717	-6,594869	4,777082	2020-10-29T19:49:27:766
-1,999747	-7,527969	4,276648	2020-10-29T19:49:27:786
-2,419571	-7,732049	2,836348	2020-10-29T19:49:27:805
-3,851636	-7,498016	1,347568	2020-10-29T19:49:27:828
-5,421638	-6,861231	0,531536	2020-10-29T19:49:27:844
-5,523714	-4,043596	-0,311365	2020-10-29T19:49:27:866
-4,800843	-2,158184	-0,615963	2020-10-29T19:49:27:884
-3,447889	-0,905987	-0,862354	2020-10-29T19:49:27:908
-1,966706	0,302834	-1,140266	2020-10-29T19:49:27:924
-0,865532	1,208912	-1,680685	2020-10-29T19:49:27:946
0,076095	1,825404	-2,357463	2020-10-29T19:49:27:964
0,300022	2,491538	-2,687682	2020-10-29T19:49:27:988
0,355026	2,885916	-2,699699	2020-10-29T19:49:28:006
0,201597	3,142454	-2,550978	2020-10-29T19:49:28:026
-0,315578	3,371710	-2,496112	2020-10-29T19:49:28:044
-1,389400	3,613187	-2,487430	2020-10-29T19:49:28:068
-2,345909	3,872111	-2,292332	2020-10-29T19:49:28:085
-2,803495	4,580864	-2,464815	2020-10-29T19:49:28:107
-3,487727	5,383739	-2,461392	2020-10-29T19:49:28:125
-3,659454	6,121599	-2,329953	2020-10-29T19:49:28:149
-3,208343	6,885900	-2,159162	2020-10-29T19:49:28:164
-4,087530	7,391715	-1,809644	2020-10-29T19:49:28:186
-4,460482	7,199994	-1,359300	2020-10-29T19:49:28:205
-3,067498	7,074540	-0,643551	2020-10-29T19:49:28:228
-2,490181	6,940830	0,857308	2020-10-29T19:49:28:246
-2,246768	6,580168	2,487135	2020-10-29T19:49:28:266
-1,489668	6,547980	3,306536	2020-10-29T19:49:28:285
-0,771970	6,648576	3,451191	2020-10-29T19:49:28:308
-0,591142	7,214164	2,344219	2020-10-29T19:49:28:325
-1,454942	7,276335	1,280650	2020-10-29T19:49:28:347
-2,967709	6,555187	0,630341	2020-10-29T19:49:28:365
-4,049714	4,608195	0,047669	2020-10-29T19:49:28:388
-4,422146	3,217619	-0,319134	2020-10-29T19:49:28:405
-3,859847	2,270733	0,047012	2020-10-29T19:49:28:427
-2,895374	1,028336	0,825111	2020-10-29T19:49:28:445
-1,614406	-0,534956	1,657129	2020-10-29T19:49:28:468
-0,646472	-2,872095	2,327435	2020-10-29T19:49:28:488
0,174267	-2,790739	2,468611	2020-10-29T19:49:28:507
0,670780	-2,651817	2,126332	2020-10-29T19:49:28:525
0,594237	-2,307998	1,285795	2020-10-29T19:49:28:548
0,292355	-1,892676	0,576578	2020-10-29T19:49:28:565
-0,443958	-1,350475	0,139465	2020-10-29T19:49:28:587
-1,016415	-0,479200	-0,394019	2020-10-29T19:49:28:606
-0,845494	0,956668	-1,097331	2020-10-29T19:49:28:628
-0,934058	2,073099	-1,208742	2020-10-29T19:49:28:645
-0,416829	-0,674332	-1,120441	2020-10-29T19:49:28:667
-0,406789	-2,323978	-0,811610	2020-10-29T19:49:28:685
-0,887913	-3,327012	-0,225976	2020-10-29T19:49:28:709
-1,372341	-4,021588	-0,019113	2020-10-29T19:49:28:726
-1,580623	-4,505465	0,094532	2020-10-29T19:49:28:747
-1,855222	-5,171898	0,620929	2020-10-29T19:49:28:766
-1,836712	-5,697721	0,999014	2020-10-29T19:49:28:788
-2,864295	-6,266809	1,805569	2020-10-29T19:49:28:806
-3,997246	-7,006999	3,099360	2020-10-29T19:49:28:827
-3,155539	-6,142794	4,420653	2020-10-29T19:49:28:845
-2,398476	-3,817074	3,535463	2020-10-29T19:49:28:868
-1,058769	-1,012494	2,615970	2020-10-29T19:49:28:885
0,668077	0,724272	2,395199	2020-10-29T19:49:28:908
2,384121	-0,354635	1,497043	2020-10-29T19:49:28:925
3,464499	-2,173879	1,337319	2020-10-29T19:49:28:948
3,317881	-3,079766	1,963200	2020-10-29T19:49:28:968
1,822367	-4,233106	2,690618	2020-10-29T19:49:28:987
-0,053537	-5,030354	3,199507	2020-10-29T19:49:29:006
-1,948653	-6,463655	2,809477	2020-10-29T19:49:29:028
-4,015018	-5,836377	2,474321	2020-10-29T19:49:29:046
-6,056094	-6,092409	2,294859	2020-10-29T19:49:29:067
-7,091248	-3,715312	2,345340	2020-10-29T19:49:29:086
-6,654733	0,437162	1,764040	2020-10-29T19:49:29:109
-6,242086	1,304777	2,544095	2020-10-29T19:49:29:126
-5,290669	3,364337	1,092242	2020-10-29T19:49:29:148
-3,078429	5,054539	-0,707387	2020-10-29T19:49:29:166
-0,962658	5,772717	-0,966717	2020-10-29T19:49:29:192
0,756360	4,140847	-0,328233	2020-10-29T19:49:29:207
-2,497857	8,526375	0,099695	2020-10-29T19:49:29:228
-1,949903	7,349903	0,174673	2020-10-29T19:49:29:245
-2,021226	6,832024	0,102167	2020-10-29T19:49:29:269
-2,155007	6,963188	0,006923	2020-10-29T19:49:29:286
-2,394823	6,966560	0,018376	2020-10-29T19:49:29:308
-2,749139	6,646224	-0,006131	2020-10-29T19:49:29:326
-2,926896	6,384829	0,200870	2020-10-29T19:49:29:349
-3,269188	6,336176	0,373025	2020-10-29T19:49:29:366
-3,816576	6,513289	0,446392	2020-10-29T19:49:29:388
-4,230244	6,613128	0,841879	2020-10-29T19:49:29:406
-4,143720	6,568396	1,025368	2020-10-29T19:49:29:429
-3,912551	7,025518	0,278235	2020-10-29T19:49:29:447
-5,339073	7,407907	-0,313384	2020-10-29T19:49:29:468
-6,803424	6,988813	0,125485	2020-10-29T19:49:29:486
-5,215163	6,650814	0,632061	2020-10-29T19:49:29:510
-3,247073	6,391945	1,538628	2020-10-29T19:49:29:526
-2,202368	5,906694	2,401609	2020-10-29T19:49:29:548
-0,975953	5,254745	2,237141	2020-10-29T19:49:29:566
-0,143982	4,632612	1,482589	2020-10-29T19:49:29:589
-1,512523	3,207311	2,046484	2020-10-29T19:49:29:606
-3,401230	1,055726	2,751236	2020-10-29T19:49:29:628
-3,517318	-1,608381	2,880305	2020-10-29T19:49:29:646
-2,908846	-2,629886	2,405464	2020-10-29T19:49:29:669
-2,028446	-1,086699	1,213268	2020-10-29T19:49:29:688
-1,506810	1,315695	0,440386	2020-10-29T19:49:29:709
-0,955443	3,746942	-0,206016	2020-10-29T19:49:29:726
-0,369351	4,414018	-0,693467	2020-10-29T19:49:29:749
-0,105850	2,812035	-0,987980	2020-10-29T19:49:29:766
-0,396211	0,524090	-1,308313	2020-10-29T19:49:29:788
-0,362854	-1,534155	-1,606051	2020-10-29T19:49:29:807
-0,291536	-3,148609	-1,755018	2020-10-29T19:49:29:829
-0,184072	-4,219067	-1,943382	2020-10-29T19:49:29:846
-0,161226	-4,981470	-2,132495	2020-10-29T19:49:29:868
-0,468061	-5,330108	-2,096274	2020-10-29T19:49:29:886
-0,891823	-5,559032	-1,586497	2020-10-29T19:49:29:910
-0,869131	-5,878257	-1,547571	2020-10-29T19:49:29:928
-0,349889	-5,789723	-1,442286	2020-10-29T19:49:29:949
-0,040823	-6,380504	-1,296947	2020-10-29T19:49:29:966
0,162815	-7,224520	-0,913769	2020-10-29T19:49:29:990
0,417084	-8,286598	0,020905	2020-10-29T19:49:30:007
0,833788	-8,636950	0,444303	2020-10-29T19:49:30:028
1,419259	-8,260048	1,312477	2020-10-29T19:49:30:047
1,690695	-7,391259	2,191865	2020-10-29T19:49:30:070
1,763832	-5,905166	2,051947	2020-10-29T19:49:30:086
1,828772	-4,573695	1,581682	2020-10-29T19:49:30:109
1,283512	-4,117238	1,274634	2020-10-29T19:49:30:127
0,689642	-3,763781	1,007594	2020-10-29T19:49:30:150
0,024581	-2,974977	0,973062	2020-10-29T19:49:30:169
-0,669336	-4,183352	0,860599	2020-10-29T19:49:30:190
-1,071655	-4,053432	0,579157	2020-10-29T19:49:30:207
-2,238514	-3,384048	-0,225601	2020-10-29T19:49:30:230
-7,152842	-4,615960	2,431457	2020-10-29T19:49:30:247
-11,045013	-4,393693	4,886553	2020-10-29T19:49:30:269
-5,284349	0,694456	1,306277	2020-10-29T19:49:30:286
-6,128338	3,349952	2,106243	2020-10-29T19:49:30:310
-6,978625	5,263513	1,029083	2020-10-29T19:49:30:327
-7,343592	6,507177	-1,028877	2020-10-29T19:49:30:349
-9,051519	6,392900	-2,972988	2020-10-29T19:49:30:367
-10,442265	6,404084	-4,844410	2020-10-29T19:49:30:390
-11,178711	6,430479	-5,608831	2020-10-29T19:49:30:409
-10,942248	6,193657	-5,589000	2020-10-29T19:49:30:429
-9,920417	6,213208	-4,841383	2020-10-29T19:49:30:446
-8,525319	6,473595	-3,692649	2020-10-29T19:49:30:470
-7,316848	6,294223	-2,619245	2020-10-29T19:49:30:487
-5,906653	6,669646	-2,043427	2020-10-29T19:49:30:509
-4,686095	7,294768	-1,918384	2020-10-29T19:49:30:527
-3,860144	8,193510	-1,901915	2020-10-29T19:49:30:550
-3,291991	9,026612	-2,216110	2020-10-29T19:49:30:567
-2,594283	9,584208	-2,507491	2020-10-29T19:49:30:589
-1,762865	10,004818	-2,802078	2020-10-29T19:49:30:608
-1,072797	10,203767	-3,083788	2020-10-29T19:49:30:630
-0,343805	10,098790	-3,115668	2020-10-29T19:49:30:648
0,393297	9,930085	-2,989194	2020-10-29T19:49:30:669
0,843656	9,594298	-2,451218	2020-10-29T19:49:30:687
0,992295	9,083138	-1,715830	2020-10-29T19:49:30:711
1,020487	8,773178	-1,072729	2020-10-29T19:49:30:727
0,353515	8,788218	-0,738816	2020-10-29T19:49:30:749
-1,579922	9,345476	-0,432783	2020-10-29T19:49:30:768
-3,109504	8,906763	0,395056	2020-10-29T19:49:30:789
0,751963	2,258870	0,121745	2020-10-29T19:49:30:808
-2,682000	-1,563957	0,225233	2020-10-29T19:49:30:830
-6,949415	-7,924962	-0,034313	2020-10-29T19:49:30:847
-9,324484	-9,409354	0,214654	2020-10-29T19:49:30:870
-8,191226	-11,742085	1,203295	2020-10-29T19:49:30:889
-7,734816	-11,985946	3,135431	2020-10-29T19:49:30:910
-6,821192	-7,545772	3,098095	2020-10-29T19:49:30:928
-4,894970	-1,214365	2,504675	2020-10-29T19:49:30:950
-2,979814	4,546087	1,524195	2020-10-29T19:49:30:967
-2,270491	10,085966	1,370360	2020-10-29T19:49:30:989
-0,391344	10,682729	1,977159	2020-10-29T19:49:31:008
-0,227030	7,756988	3,206484	2020-10-29T19:49:31:031
-1,034831	4,566398	4,229228	2020-10-29T19:49:31:048
-1,220574	2,050841	5,195390	2020-10-29T19:49:31:070
-1,015402	0,910936	5,583519	2020-10-29T19:49:31:087
2,111496	-4,347469	5,158533	2020-10-29T19:49:31:111
0,373585	-1,885640	4,793381	2020-10-29T19:49:31:128
0,091677	-2,490010	4,449902	2020-10-29T19:49:31:149
-0,227441	-2,806005	3,666978	2020-10-29T19:49:31:167
-0,677838	-3,457460	3,186371	2020-10-29T19:49:31:191
-1,467854	-4,730068	3,142734	2020-10-29T19:49:31:208
-2,444298	-4,495145	3,014732	2020-10-29T19:49:31:229
-2,980854	-4,403020	1,941088	2020-10-29T19:49:31:248
-3,770471	-4,804096	0,882784	2020-10-29T19:49:31:271
-4,812375	-5,586982	0,300388	2020-10-29T19:49:31:288
-5,618132	-6,367883	-0,090789	2020-10-29T19:49:31:310
-5,958912	-6,068954	-1,254100	2020-10-29T19:49:31:328
-6,019037	-7,145565	-2,485272	2020-10-29T19:49:31:350
-6,732061	-9,082452	-2,382384	2020-10-29T19:49:31:369
-7,785257	-4,731946	-1,646460	2020-10-29T19:49:31:389
-7,804212	-0,795571	0,217788	2020-10-29T19:49:31:408
-11,532253	-0,401031	2,274690	2020-10-29T19:49:31:431
-9,041531	2,565288	2,411942	2020-10-29T19:49:31:448
-6,031883	4,372569	3,309778	2020-10-29T19:49:31:470
-3,312855	4,193769	3,031142	2020-10-29T19:49:31:488
-0,137586	3,761978	1,141831	2020-10-29T19:49:31:512
2,307706	2,051157	-0,031301	2020-10-29T19:49:31:528
4,441013	0,830637	-2,876998	2020-10-29T19:49:31:550
5,942638	0,985717	-4,066497	2020-10-29T19:49:31:568
7,263940	2,234630	-4,031481	2020-10-29T19:49:31:591
8,620631	4,176327	-3,683576	2020-10-29T19:49:31:610
11,674797	4,816171	-3,935637	2020-10-29T19:49:31:630
14,229164	6,853745	-3,754317	2020-10-29T19:49:31:648
14,078869	7,995233	-2,253771	2020-10-29T19:49:31:672
15,088129	7,162412	-0,656770	2020-10-29T19:49:31:688
14,493086	6,969416	0,083277	2020-10-29T19:49:31:710
13,092460	5,705637	1,889244	2020-10-29T19:49:31:729
10,437553	4,256521	2,797235	2020-10-29T19:49:31:751
8,452305	3,920547	2,094980	2020-10-29T19:49:31:769
6,770151	5,655343	1,003854	2020-10-29T19:49:31:790
6,820130	5,668256	-0,682755	2020-10-29T19:49:31:809
7,738164	4,116766	-1,388386	2020-10-29T19:49:31:831
8,671979	4,349207	-3,831853	2020-10-29T19:49:31:850
8,359553	5,179613	-3,684252	2020-10-29T19:49:31:870
9,253233	5,925547	-2,827504	2020-10-29T19:49:31:888
10,877404	5,984054	-2,525953	2020-10-29T19:49:31:912
11,681288	5,257782	-1,191708	2020-10-29T19:49:31:929
11,862209	4,317665	0,618285	2020-10-29T19:49:31:950
12,114998	3,555449	0,991075	2020-10-29T19:49:31:968
12,847893	3,461934	0,222837	2020-10-29T19:49:31:992
13,155856	3,137038	-0,713767	2020-10-29T19:49:32:009
12,820709	3,523122	-0,976915	2020-10-29T19:49:32:030
11,805373	2,384812	-1,165392	2020-10-29T19:49:32:048
11,401572	1,915939	-1,815047	2020-10-29T19:49:32:072
10,874685	1,431546	-2,462700	2020-10-29T19:49:32:090
10,288103	0,723453	-2,520538	2020-10-29T19:49:32:111
9,697258	0,800214	-2,764395	2020-10-29T19:49:32:128
8,738238	0,242121	-3,429835	2020-10-29T19:49:32:152
8,038099	0,506029	-5,065932	2020-10-29T19:49:32:169
7,235341	1,411357	-6,657858	2020-10-29T19:49:32:191
6,252820	2,607003	-6,603861	2020-10-29T19:49:32:210
4,391204	3,171709	-6,960392	2020-10-29T19:49:32:232
3,493693	5,429757	-6,524360	2020-10-29T19:49:32:249
3,186525	6,205203	-6,155631	2020-10-29T19:49:32:270
3,283391	6,736495	-5,482768	2020-10-29T19:49:32:289
3,295360	7,799322	-4,702545	2020-10-29T19:49:32:314
3,968304	8,363910	-2,930058	2020-10-29T19:49:32:534
4,501888	11,319711	0,055179	2020-10-29T19:49:32:534
3,030138	15,672724	3,463473	2020-10-29T19:49:32:535
2,829525	19,923283	4,977523	2020-10-29T19:49:32:535
1,917860	18,511517	3,747613	2020-10-29T19:49:32:536
0,550845	12,772567	-2,465910	2020-10-29T19:49:32:536
0,135521	7,962956	-8,776391	2020-10-29T19:49:32:537
5,940481	5,082213	-10,468800	2020-10-29T19:49:32:537
11,507803	7,485762	-5,618872	2020-10-29T19:49:32:542
12,977272	9,229330	-7,792029	2020-10-29T19:49:32:543
12,322925	11,555802	-9,571266	2020-10-29T19:49:32:543
7,256322	9,235428	-12,774117	2020-10-29T19:49:32:558
5,126354	3,013902	-9,007931	2020-10-29T19:49:32:574
4,520969	0,922575	-8,716006	2020-10-29T19:49:32:594
2,433775	-2,515163	-7,744799	2020-10-29T19:49:32:614
0,463604	-4,810071	-6,953779	2020-10-29T19:49:32:631
-1,804526	-6,886094	-6,158269	2020-10-29T19:49:32:657
-3,479502	-8,288289	-7,914601	2020-10-29T19:49:32:842
-4,878981	-7,329160	-10,375050	2020-10-29T19:49:32:868
-5,652859	-8,130725	-14,875774	2020-10-29T19:49:32:871
-5,417441	-8,508123	-16,203255	2020-10-29T19:49:32:872
-5,355859	-8,035288	-17,440002	2020-10-29T19:49:32:872
-7,210297	-7,240870	-15,906204	2020-10-29T19:49:32:873
-9,322794	-2,773254	-13,977596	2020-10-29T19:49:32:873
-9,590865	1,533969	-12,583666	2020-10-29T19:49:32:878
-9,850416	-0,884788	-9,455204	2020-10-29T19:49:32:878
-14,059902	-2,947565	-6,917249	2020-10-29T19:49:32:878
-17,191185	-5,952754	-13,840031	2020-10-29T19:49:32:883
-17,087427	-3,832858	-17,783943	2020-10-29T19:49:32:890
-21,686363	-8,352488	-19,732445	2020-10-29T19:49:32:926
-23,696918	-7,420441	-17,204063	2020-10-29T19:49:32:949
-23,938704	-10,648409	-15,927212	2020-10-29T19:49:32:981
-25,179714	-9,260975	-14,250017	2020-10-29T19:49:32:982
-9,454475	-7,849603	-13,343636	2020-10-29T19:49:33:047
-10,406214	-6,797355	-11,994354	2020-10-29T19:49:33:088
-11,277017	-8,168662	-10,759838	2020-10-29T19:49:33:093
-10,841348	-9,925553	-9,472448	2020-10-29T19:49:33:096
-9,447977	-10,053648	-8,290735	2020-10-29T19:49:33:097
-7,765241	-8,101365	-8,394061	2020-10-29T19:49:33:100
-5,770657	-5,672817	-8,972818	2020-10-29T19:49:33:116
-4,364100	-3,482239	-8,864876	2020-10-29T19:49:33:134
-3,691666	-1,939166	-7,021066	2020-10-29T19:49:33:176
-2,991482	-0,783209	-3,493698	2020-10-29T19:49:33:177
-22,420668	0,283383	-0,010439	2020-10-29T19:49:33:191
-19,726063	0,723132	-4,371552	2020-10-29T19:49:33:208
-18,754578	0,756631	-4,354803	2020-10-29T19:49:33:233
-18,282749	0,130057	-4,563506	2020-10-29T19:49:33:249
-17,759832	-0,938415	-4,934776	2020-10-29T19:49:33:271
-19,038416	-1,731868	3,212166	2020-10-29T19:49:33:302
-18,285561	-2,094327	-2,350145	2020-10-29T19:49:33:324
-17,616455	-2,683079	-3,301539	2020-10-29T19:49:33:337
-17,137096	-3,105808	-3,833342	2020-10-29T19:49:33:358
-16,331846	-3,132536	-4,379608	2020-10-29T19:49:33:374
-15,385566	-2,457447	-5,606833	2020-10-29T19:49:33:413
-14,828038	-1,627137	-6,092577	2020-10-29T19:49:33:414
-14,584984	-1,827706	-5,792883	2020-10-29T19:49:33:434
-14,311852	-1,694625	-5,395217	2020-10-29T19:49:33:453
-13,934654	-1,286603	-5,315794	2020-10-29T19:49:33:473
-13,602912	-0,596759	-5,617435	2020-10-29T19:49:33:491
-13,399958	0,187783	-5,928229	2020-10-29T19:49:33:513
-13,568362	-0,063430	-5,836661	2020-10-29T19:49:33:536
-14,641432	-0,806969	-5,753920	2020-10-29T19:49:33:556
-15,465926	-1,292448	-5,813535	2020-10-29T19:49:33:576
-16,321430	-1,576793	-6,003566	2020-10-29T19:49:33:602
-17,242966	-1,961274	-6,079930	2020-10-29T19:49:33:635
-18,115517	-2,105314	-6,125997	2020-10-29T19:49:33:635
-18,503918	-2,349617	-6,188914	2020-10-29T19:49:33:657
-18,740860	-2,431608	-6,049916	2020-10-29T19:49:33:674
-0,586651	-2,504372	-5,991807	2020-10-29T19:49:33:692
-0,152690	-1,992155	-5,702804	2020-10-29T19:49:33:711
0,422243	-1,405917	-5,117468	2020-10-29T19:49:33:728
0,979496	-0,800468	-4,467962	2020-10-29T19:49:33:752
1,539606	-0,542210	-3,923745	2020-10-29T19:49:33:769
2,180684	-0,299706	-3,483494	2020-10-29T19:49:33:792
2,055858	-0,107782	-3,272050	2020-10-29T19:49:33:810
1,761603	-0,038556	-2,638064	2020-10-29T19:49:33:834
1,320055	-0,184463	-2,167150	2020-10-29T19:49:33:850
0,789439	-0,339973	-1,646131	2020-10-29T19:49:33:872
0,341657	-0,164313	-2,069590	2020-10-29T19:49:33:890
-0,053804	0,160893	-2,854801	2020-10-29T19:49:33:914
-0,237384	0,617690	-3,620040	2020-10-29T19:49:33:930
-1,807302	1,575984	-4,697750	2020-10-29T19:49:33:952
-5,097402	2,015556	-5,369298	2020-10-29T19:49:33:970
-7,794019	1,417466	-4,895681	2020-10-29T19:49:33:993
-6,405096	0,755100	-3,022324	2020-10-29T19:49:34:012
-3,689458	0,365586	0,410190	2020-10-29T19:49:34:032
-1,159015	0,645659	2,678121	2020-10-29T19:49:34:050
1,419132	1,626387	3,201620	2020-10-29T19:49:34:073
3,784549	2,705142	1,965930	2020-10-29T19:49:34:090
5,137912	3,175117	1,330724	2020-10-29T19:49:34:112
3,957732	1,899217	1,473086	2020-10-29T19:49:34:130
1,461114	-0,182209	1,076126	2020-10-29T19:49:34:153
-0,129632	-0,882385	0,314449	2020-10-29T19:49:34:170
-0,491448	-0,700701	0,002447	2020-10-29T19:49:34:193
-0,920238	-0,571717	-0,242595	2020-10-29T19:49:34:211
-1,544436	-0,453785	-0,489870	2020-10-29T19:49:34:233
-1,635660	-0,197719	-0,730982	2020-10-29T19:49:34:252
-0,991990	-0,228826	-1,068370	2020-10-29T19:49:34:272
-0,351080	0,045218	-1,383852	2020-10-29T19:49:34:291
-0,028672	0,508750	-1,624296	2020-10-29T19:49:34:314
0,209526	0,648164	-1,859311	2020-10-29T19:49:34:331
0,119344	0,728266	-2,004454	2020-10-29T19:49:34:353
-0,149293	0,629184	-1,982752	2020-10-29T19:49:34:371
-0,402088	0,432064	-1,980460	2020-10-29T19:49:34:396
-0,324768	0,173680	-2,669547	2020-10-29T19:49:34:411
-0,207323	0,251793	-3,039846	2020-10-29T19:49:34:439
-0,321109	0,372056	-2,830008	2020-10-29T19:49:34:474
-0,214887	0,731788	-2,694862	2020-10-29T19:49:34:478
-0,057647	1,064355	-2,537306	2020-10-29T19:49:34:566
-0,145202	1,302863	-2,565580	2020-10-29T19:49:34:568
-0,467344	1,149717	-2,714075	2020-10-29T19:49:34:569
-0,729884	0,678081	-3,091768	2020-10-29T19:49:34:570
-0,907284	0,639435	-3,301690	2020-10-29T19:49:34:571
-1,485226	0,687136	-3,698157	2020-10-29T19:49:34:592
-3,055226	0,629442	-4,005368	2020-10-29T19:49:34:614
-3,978024	0,360465	-4,139071	2020-10-29T19:49:34:634
-3,879772	0,309075	-4,449355	2020-10-29T19:49:34:651
-3,224425	0,139285	-5,024148	2020-10-29T19:49:34:692
-2,296421	0,141241	-5,535975	2020-10-29T19:49:34:693
-1,629975	0,179318	-5,899584	2020-10-29T19:49:34:720
-1,073494	0,419787	-5,937852	2020-10-29T19:49:34:742
-0,571347	0,694304	-5,983638	2020-10-29T19:49:34:752
-0,310124	0,712356	-6,100251	2020-10-29T19:49:34:771
-0,199521	0,597932	-6,043495	2020-10-29T19:49:34:794
-0,080623	0,630428	-6,022791	2020-10-29T19:49:34:811
-0,053105	0,534567	-6,028889	2020-10-29T19:49:34:832
-0,067462	0,477139	-6,150923	2020-10-29T19:49:34:850
-0,590594	0,579931	-6,241822	2020-10-29T19:49:34:874
-0,919035	1,341884	-5,846471	2020-10-29T19:49:34:892
-1,117639	1,210279	-6,021147	2020-10-29T19:49:34:914
-1,341192	1,623940	-5,531749	2020-10-29T19:49:34:931
-1,703267	2,179926	-5,091344	2020-10-29T19:49:34:955
-2,280777	2,690328	-4,574838	2020-10-29T19:49:34:972
-2,482889	3,436788	-3,626797	2020-10-29T19:49:34:993
-2,594451	3,729460	-2,631630	2020-10-29T19:49:35:011
-2,739507	4,234866	-1,487404	2020-10-29T19:49:35:034
-2,877625	4,315311	-0,867615	2020-10-29T19:49:35:052
-2,925482	4,444523	-0,937006	2020-10-29T19:49:35:074
-2,594217	4,322271	-1,026058	2020-10-29T19:49:35:091
-2,352983	3,793522	-0,790748	2020-10-29T19:49:35:116
-2,095239	3,368074	-0,678209	2020-10-29T19:49:35:131
-1,923714	3,617088	-0,619570	2020-10-29T19:49:35:154
-1,634513	3,587414	-0,683788	2020-10-29T19:49:35:171
-1,961387	3,795291	-0,418028	2020-10-29T19:49:35:195
-2,262465	3,948095	-0,058472	2020-10-29T19:49:35:221
-2,274428	3,730349	-0,015401	2020-10-29T19:49:35:242
-2,746909	3,863971	0,258893	2020-10-29T19:49:35:254
-2,995318	3,728508	0,530379	2020-10-29T19:49:35:277
-3,230556	3,925787	0,687756	2020-10-29T19:49:35:359
-3,595095	4,162431	1,057895	2020-10-29T19:49:35:360
-3,698215	4,107696	1,130797	2020-10-29T19:49:35:362
-3,903561	4,126348	1,350178	2020-10-29T19:49:35:364
-3,875005	4,304164	1,646514	2020-10-29T19:49:35:372
-3,948227	4,497219	2,035206	2020-10-29T19:49:35:395
-4,106581	4,715171	2,202878	2020-10-29T19:49:35:411
-4,140898	4,830700	2,403146	2020-10-29T19:49:35:435
-4,264301	5,029571	2,581298	2020-10-29T19:49:35:452
-4,365750	5,059531	2,795694	2020-10-29T19:49:35:475
-4,300703	5,148817	2,933185	2020-10-29T19:49:35:492
-4,346102	5,174571	3,079889	2020-10-29T19:49:35:517
-4,254009	5,059053	3,286321	2020-10-29T19:49:35:537
-4,265973	5,023160	3,257607	2020-10-29T19:49:35:556
-4,216545	4,970505	3,333829	2020-10-29T19:49:35:582
-4,316850	4,861555	3,380607	2020-10-29T19:49:35:597
-4,260632	4,862285	3,549701	2020-10-29T19:49:35:618
-3,988642	4,852147	3,612219	2020-10-29T19:49:35:638
-3,957092	5,011974	3,564178	2020-10-29T19:49:35:678
-3,804982	4,812386	3,564096	2020-10-29T19:49:35:679
-3,614357	4,818903	3,648488	2020-10-29T19:49:35:757
-3,529019	4,673324	3,765324	2020-10-29T19:49:35:820
-3,530249	4,773462	3,707924	2020-10-29T19:49:35:827
-3,472966	4,778770	3,620247	2020-10-29T19:49:35:851
-3,531129	4,568586	3,661782	2020-10-29T19:49:35:851
-3,318192	4,448005	3,502112	2020-10-29T19:49:35:852
-3,148012	4,156667	3,377653	2020-10-29T19:49:35:852
-3,164761	4,125561	3,454224	2020-10-29T19:49:35:853
-3,025043	4,158682	3,192419	2020-10-29T19:49:35:863
-3,060935	4,096469	3,261811	2020-10-29T19:49:35:876
-2,780039	3,993778	3,052305	2020-10-29T19:49:35:896
-2,745988	3,910129	2,865326	2020-10-29T19:49:35:917
-2,652511	3,885454	2,743003	2020-10-29T19:49:35:934
-2,676123	3,946260	2,633091	2020-10-29T19:49:35:987
-2,640229	3,879261	2,743161	2020-10-29T19:49:35:987
-2,538587	3,821361	2,534314	2020-10-29T19:49:36:102
-2,476125	3,951861	2,367547	2020-10-29T19:49:36:102
-2,489277	3,821496	2,332029	2020-10-29T19:49:36:103
-2,294870	3,904091	2,284968	2020-10-29T19:49:36:103
-2,144122	4,186445	2,146184	2020-10-29T19:49:36:103
-2,100420	4,364603	1,849441	2020-10-29T19:49:36:104
-2,382995	4,472202	1,601120	2020-10-29T19:49:36:122
-2,650443	4,179547	1,498118	2020-10-29T19:49:36:135
-2,468963	3,615593	1,254927	2020-10-29T19:49:36:214
-2,174818	3,346407	1,065957	2020-10-29T19:49:36:227
-2,085957	3,692436	0,869159	2020-10-29T19:49:36:228
-2,153340	4,138968	0,825146	2020-10-29T19:49:36:228
-2,117448	4,524212	0,808396	2020-10-29T19:49:36:257
-2,418122	4,539915	0,630993	2020-10-29T19:49:36:503
-2,470844	4,356701	0,728485	2020-10-29T19:49:36:528
-2,599439	4,205158	0,754310	2020-10-29T19:49:36:547
-2,613962	3,855325	0,620260	2020-10-29T19:49:36:568
-2,572021	3,527870	0,793163	2020-10-29T19:49:36:571
-2,532708	3,422297	0,962124	2020-10-29T19:49:36:572
-2,502432	3,867421	1,279933	2020-10-29T19:49:36:572
-2,234586	3,945246	1,405236	2020-10-29T19:49:36:572
-2,009736	3,490873	1,471187	2020-10-29T19:49:36:573
-2,014545	3,283054	1,298501	2020-10-29T19:49:36:574
-2,217845	2,931947	1,356590	2020-10-29T19:49:36:575
-2,383545	2,493170	1,457267	2020-10-29T19:49:36:575
-2,441119	2,166362	1,286507	2020-10-29T19:49:36:576
-2,550416	2,087109	1,144863	2020-10-29T19:49:36:576
-2,693583	2,825398	0,706490	2020-10-29T19:49:36:577
-2,752531	3,323878	0,495602	2020-10-29T19:49:36:577
-3,121571	3,767579	0,215160	2020-10-29T19:49:36:577
-3,184856	3,893466	0,225620	2020-10-29T19:49:36:593
-3,023448	4,351435	-0,101060	2020-10-29T19:49:36:611
-2,865521	4,885034	-0,069953	2020-10-29T19:49:36:635
-2,729052	5,087951	-0,354172	2020-10-29T19:49:36:655
-2,738623	5,233913	-0,234531	2020-10-29T19:49:36:675
-2,762943	5,140414	-0,384115	2020-10-29T19:49:36:694
-2,706756	4,837562	-0,416210	2020-10-29T19:49:36:717
-2,548317	4,680781	-0,551030	2020-10-29T19:49:36:732
-2,399864	4,622062	-0,548282	2020-10-29T19:49:36:756
-2,266120	4,595879	-0,479667	2020-10-29T19:49:36:786
-2,098756	4,704366	-0,607063	2020-10-29T19:49:36:826
-2,143138	4,797215	-0,671995	2020-10-29T19:49:36:827
-2,340691	4,946346	-0,579891	2020-10-29T19:49:36:841
-2,467595	5,123443	-0,529400	2020-10-29T19:49:36:864
-2,649794	5,327039	-0,461813	2020-10-29T19:49:36:886
-2,784322	5,319933	-0,217982	2020-10-29T19:49:36:902
-2,857212	5,279675	0,165572	2020-10-29T19:49:36:914
-2,792881	5,209681	0,342334	2020-10-29T19:49:36:937
-2,710039	5,248031	0,363925	2020-10-29T19:49:36:962
-2,616951	5,642111	0,527661	2020-10-29T19:49:36:977
-2,465003	5,368213	0,375547	2020-10-29T19:49:37:003
-2,281662	4,792080	0,461146	2020-10-29T19:49:37:013
-2,177478	4,091451	0,250196	2020-10-29T19:49:37:040
-1,927129	3,500383	0,071091	2020-10-29T19:49:37:057
-1,761766	3,181339	0,147244	2020-10-29T19:49:37:083
-1,638931	2,983330	0,021310	2020-10-29T19:49:37:093
-1,521235	2,993980	0,013570	2020-10-29T19:49:37:117
-1,382467	3,205165	-0,069236	2020-10-29T19:49:37:136
-1,373529	3,336138	-0,104010	2020-10-29T19:49:37:158
-1,531361	3,277056	-0,267809	2020-10-29T19:49:37:175
-1,921142	3,105748	-0,389320	2020-10-29T19:49:37:244
-2,285456	2,611062	-0,110924	2020-10-29T19:49:37:249
-2,455346	2,221032	0,439425	2020-10-29T19:49:37:251
-2,151202	1,255911	0,721967	2020-10-29T19:49:37:254
-2,227772	0,815632	0,820073	2020-10-29T19:49:37:276
-1,680047	0,574100	0,214472	2020-10-29T19:49:37:298
-1,759010	1,308697	-0,106166	2020-10-29T19:49:37:318
-1,994275	2,658643	-0,952089	2020-10-29T19:49:37:333
-2,304382	3,495729	-1,094450	2020-10-29T19:49:37:357
-2,248885	2,890908	-1,281933	2020-10-29T19:49:37:384
-2,570252	2,464420	-1,461195	2020-10-29T19:49:37:420
-2,606584	1,791398	-2,046334	2020-10-29T19:49:37:421
-2,460623	1,288905	-2,556005	2020-10-29T19:49:37:437
-2,388243	1,713675	-3,063243	2020-10-29T19:49:37:454
-2,281593	2,449800	-3,218819	2020-10-29T19:49:37:477
-2,383298	3,288375	-3,195475	2020-10-29T19:49:37:495
-2,426317	3,839927	-3,089403	2020-10-29T19:49:37:519
-2,616284	4,193655	-3,048989	2020-10-29T19:49:37:541
-2,482287	4,121870	-3,108810	2020-10-29T19:49:37:621
-2,611217	4,136828	-3,280131	2020-10-29T19:49:37:622
-2,845088	4,205207	-3,397995	2020-10-29T19:49:37:623
-2,989176	4,211421	-3,361664	2020-10-29T19:49:37:624
-3,127628	4,047700	-3,183518	2020-10-29T19:49:37:663
-3,292990	4,052343	-2,879783	2020-10-29T19:49:37:663
-3,529399	3,914871	-2,266826	2020-10-29T19:49:37:678
-3,756660	4,085083	-2,518323	2020-10-29T19:49:37:694
-3,412007	5,130653	-3,120136	2020-10-29T19:49:37:738
-2,962569	5,148091	-3,507439	2020-10-29T19:49:37:739
-2,957854	5,170593	-3,396292	2020-10-29T19:49:37:755
-2,899791	5,469232	-3,011689	2020-10-29T19:49:37:778
-2,783859	5,417921	-2,412532	2020-10-29T19:49:37:795
-2,514484	5,415609	-2,019521	2020-10-29T19:49:37:824
-2,402021	5,465858	-1,852023	2020-10-29T19:49:37:835
-2,439228	5,447132	-1,881560	2020-10-29T19:49:37:854
-2,783794	5,442347	-1,508280	2020-10-29T19:49:37:878
-3,003502	5,483785	-1,610117	2020-10-29T19:49:37:895
-3,176293	5,364852	-1,350904	2020-10-29T19:49:37:918
-3,254057	5,389488	-1,359501	2020-10-29T19:49:37:936
-3,350142	5,374404	-1,225473	2020-10-29T19:49:37:956
-3,315446	5,348491	-1,071759	2020-10-29T19:49:37:987
-3,284073	5,358563	-0,797311	2020-10-29T19:49:37:999
-3,063490	5,314750	-0,502412	2020-10-29T19:49:38:014
-3,420021	5,498998	-0,674696	2020-10-29T19:49:38:047
-4,565298	5,309530	0,036668	2020-10-29T19:49:38:054
-4,670413	5,160439	0,368235	2020-10-29T19:49:38:079
-3,526521	5,177228	0,493326	2020-10-29T19:49:38:094
-2,877140	5,105795	1,385671	2020-10-29T19:49:38:119
-2,308999	5,286500	1,559630	2020-10-29T19:49:38:139
-2,086740	5,776735	1,957275	2020-10-29T19:49:38:162
-2,179206	5,451241	1,912234	2020-10-29T19:49:38:178
-2,304260	5,341346	1,635555	2020-10-29T19:49:38:201
-2,578856	5,263564	1,778808	2020-10-29T19:49:38:217
-2,480408	4,063670	1,349813	2020-10-29T19:49:38:243
-2,482230	2,935475	0,619211	2020-10-29T19:49:38:257
-2,848344	2,506414	-0,203109	2020-10-29T19:49:38:281
-3,023909	3,012412	-0,945907	2020-10-29T19:49:38:295
-2,835798	3,111492	-1,332398	2020-10-29T19:49:38:319
-1,952847	3,171312	-1,983246	2020-10-29T19:49:38:341
-1,418352	3,827124	-2,142986	2020-10-29T19:49:38:360
-1,827873	4,360706	-2,288275	2020-10-29T19:49:38:381
-1,624119	3,146208	-1,980305	2020-10-29T19:49:38:398
-1,144535	0,923223	-1,804759	2020-10-29T19:49:38:417
-1,277512	-0,519626	-1,596846	2020-10-29T19:49:38:437
-1,422465	-1,850952	-1,374750	2020-10-29T19:49:38:456
-1,233557	-3,463192	-1,505414	2020-10-29T19:49:38:496
-0,761274	-4,597839	-1,485909	2020-10-29T19:49:38:544
-0,093678	-4,856264	-1,335161	2020-10-29T19:49:38:545
0,366337	-4,650720	-1,014193	2020-10-29T19:49:38:546
0,840801	-3,609878	-0,857855	2020-10-29T19:49:38:569
1,366019	-1,366211	-1,078015	2020-10-29T19:49:38:609
0,921590	2,050850	-1,282849	2020-10-29T19:49:38:610
-0,052946	4,671626	-1,606566	2020-10-29T19:49:38:615
0,140123	4,580786	-1,456150	2020-10-29T19:49:38:637
-0,092835	4,269277	-1,299039	2020-10-29T19:49:38:654
-0,204445	4,113681	-1,005726	2020-10-29T19:49:38:677
-0,424704	4,029066	-0,840381	2020-10-29T19:49:38:695
-0,883624	4,075186	-0,600069	2020-10-29T19:49:38:720
-0,580432	3,528823	-0,217290	2020-10-29T19:49:38:736
0,284487	2,038096	0,217074	2020-10-29T19:49:38:758
0,443580	1,253543	0,288260	2020-10-29T19:49:38:776
0,339558	1,307934	0,485126	2020-10-29T19:49:38:798
0,043378	1,377396	0,726566	2020-10-29T19:49:38:818
-0,299513	1,444624	1,053321	2020-10-29T19:49:38:838
-0,660240	1,590227	1,285122	2020-10-29T19:49:38:856
-0,693088	1,714480	1,609114	2020-10-29T19:49:38:879
-0,532211	1,794919	2,025152	2020-10-29T19:49:38:911
-0,056290	1,832216	2,342448	2020-10-29T19:49:38:920
-1,205095	4,936915	2,309568	2020-10-29T19:49:38:946
-1,522251	5,671247	2,205359	2020-10-29T19:49:38:961
-0,731327	4,365633	1,721243	2020-10-29T19:49:38:981
-1,209373	3,901901	0,959380	2020-10-29T19:49:38:998
-4,070879	6,141256	-0,459968	2020-10-29T19:49:39:018
-6,813053	6,000080	-2,991574	2020-10-29T19:49:39:039
-10,756720	4,720825	-3,069739	2020-10-29T19:49:39:059
-10,302084	3,943158	-2,399749	2020-10-29T19:49:39:078
-5,419757	2,203202	-2,147056	2020-10-29T19:49:39:102
-3,948887	0,158792	-1,189239	2020-10-29T19:49:39:122
-3,281289	-1,025655	0,009565	2020-10-29T19:49:39:137
-0,467952	-2,537680	0,168636	2020-10-29T19:49:39:159
1,438651	-3,708933	0,545236	2020-10-29T19:49:39:178
1,274310	-6,060997	0,940627	2020-10-29T19:49:39:227
0,458862	-6,548461	0,876250	2020-10-29T19:49:39:227
0,707751	-4,211734	-0,134651	2020-10-29T19:49:39:272
1,239477	-0,681293	-1,175609	2020-10-29T19:49:39:304
1,034148	1,840659	-2,129635	2020-10-29T19:49:39:305
0,369627	3,769022	-2,051040	2020-10-29T19:49:39:306
0,127280	4,359666	-1,791489	2020-10-29T19:49:39:318
0,091929	3,999174	-1,313365	2020-10-29T19:49:39:335
0,472389	3,135365	-0,727123	2020-10-29T19:49:39:359
0,584773	2,841544	-0,191724	2020-10-29T19:49:39:376
0,190212	2,773559	0,525055	2020-10-29T19:49:39:398
-0,068679	2,636037	1,005856	2020-10-29T19:49:39:416
-0,465596	2,533244	1,239917	2020-10-29T19:49:39:440
-0,685515	2,851512	1,626946	2020-10-29T19:49:39:456
-0,868811	3,196347	2,236758	2020-10-29T19:49:39:478
-1,259087	3,478882	2,693203	2020-10-29T19:49:39:496
-2,042418	3,764973	3,153899	2020-10-29T19:49:39:519
-2,496105	4,149310	3,237227	2020-10-29T19:49:39:538
-2,018696	4,184917	3,448527	2020-10-29T19:49:39:558
-1,286938	4,877813	3,228640	2020-10-29T19:49:39:576
-0,799472	5,793160	2,849607	2020-10-29T19:49:39:599
-0,437121	6,643596	2,272356	2020-10-29T19:49:39:617
0,563445	6,952489	1,379262	2020-10-29T19:49:39:638
1,748239	5,951711	0,338735	2020-10-29T19:49:39:656
1,308043	4,676139	-0,091407	2020-10-29T19:49:39:679
-0,270409	3,133259	-0,096060	2020-10-29T19:49:39:696
-1,733435	1,239751	-0,945518	2020-10-29T19:49:39:719
-5,249077	-0,038775	-1,718704	2020-10-29T19:49:39:737
-10,069523	-3,064011	0,776811	2020-10-29T19:49:39:760
-8,067082	-3,463736	1,017889	2020-10-29T19:49:39:778
-3,173168	-3,942611	0,971199	2020-10-29T19:49:39:798
0,156142	-4,750533	0,731437	2020-10-29T19:49:39:817
1,666183	-2,569133	0,321872	2020-10-29T19:49:39:840
1,756898	-0,780694	-0,648384	2020-10-29T19:49:39:856
0,225305	-0,301526	-0,590192	2020-10-29T19:49:39:878
-0,977530	-0,653937	-0,152462	2020-10-29T19:49:39:896
-1,361738	-1,222669	-0,180491	2020-10-29T19:49:39:919
-1,104119	-1,756711	-1,051604	2020-10-29T19:49:39:936
-0,753297	-1,789428	-2,114836	2020-10-29T19:49:39:959
-0,801469	-1,288792	-2,498002	2020-10-29T19:49:39:977
-0,693130	-1,025391	-2,278826	2020-10-29T19:49:40:000
0,243586	-0,993364	-1,488722	2020-10-29T19:49:40:018
0,418589	-0,744120	-1,210441	2020-10-29T19:49:40:039
1,213736	-0,718115	-1,160224	2020-10-29T19:49:40:057
1,479177	-0,777186	-1,272223	2020-10-29T19:49:40:080
1,640890	-0,810389	-1,478009	2020-10-29T19:49:40:097
1,389769	-0,815929	-1,705316	2020-10-29T19:49:40:119
0,735828	-0,863014	-1,768573	2020-10-29T19:49:40:138
0,359704	-0,961168	-1,948897	2020-10-29T19:49:40:160
0,118526	-0,914055	-2,058737	2020-10-29T19:49:40:176
-1,700065	3,040207	-2,905747	2020-10-29T19:49:40:199
-1,592498	3,594866	-3,050755	2020-10-29T19:49:40:217
-1,684243	4,364529	-2,897067	2020-10-29T19:49:40:240
-2,181243	4,863729	-2,683471	2020-10-29T19:49:40:258
-3,211460	5,213456	-2,612256	2020-10-29T19:49:40:278
-4,069564	5,708093	-2,200623	2020-10-29T19:49:40:297
-3,894887	5,665022	-1,750772	2020-10-29T19:49:40:320
-3,985101	5,931888	-1,620305	2020-10-29T19:49:40:337
-6,634416	6,379708	-2,055229	2020-10-29T19:49:40:359
-8,896456	6,656130	-1,379072	2020-10-29T19:49:40:377
-4,094605	4,256649	0,158606	2020-10-29T19:49:40:400
-1,018675	3,081882	1,919464	2020-10-29T19:49:40:417
0,851449	2,841192	1,941405	2020-10-29T19:49:40:439
2,282623	2,833573	1,283638	2020-10-29T19:49:40:459
3,113017	2,945974	0,587213	2020-10-29T19:49:40:513
2,584560	2,862015	0,582244	2020-10-29T19:49:40:515
0,680306	2,438808	0,873103	2020-10-29T19:49:40:522
-1,392118	2,180349	1,457295	2020-10-29T19:49:40:538
-2,645031	2,095843	1,894666	2020-10-29T19:49:40:569
-2,977763	2,129063	2,097992	2020-10-29T19:49:40:578
-3,255171	2,359043	2,379079	2020-10-29T19:49:40:618
-4,295565	3,806487	2,397315	2020-10-29T19:49:40:618
-3,393470	3,828023	1,574184	2020-10-29T19:49:40:640
-2,692643	5,725625	1,981748	2020-10-29T19:49:40:656
-2,635136	0,948931	2,641960	2020-10-29T19:49:40:678
-1,831089	0,785103	1,923905	2020-10-29T19:49:40:697
-0,501070	2,745081	0,588680	2020-10-29T19:49:40:720
-0,820585	2,351209	0,670252	2020-10-29T19:49:40:739
-0,943341	0,901494	0,708841	2020-10-29T19:49:40:759
-0,333594	0,097643	0,758833	2020-10-29T19:49:40:777
0,372697	-1,240385	1,032177	2020-10-29T19:49:40:800
1,071231	-2,228171	1,200416	2020-10-29T19:49:40:818
1,690598	-3,263080	1,316237	2020-10-29T19:49:40:839
1,335122	-4,318543	1,162871	2020-10-29T19:49:40:857
0,068749	-5,179166	0,487936	2020-10-29T19:49:40:880
-0,788944	-6,388632	-0,120357	2020-10-29T19:49:40:897
-1,146132	-7,297013	-1,371806	2020-10-29T19:49:40:920
-3,336423	-8,018949	-2,241231	2020-10-29T19:49:40:939
-5,000632	-8,107201	-1,303013	2020-10-29T19:49:40:971
6,107434	3,411522	6,933832	2020-10-29T19:49:42:345
6,318003	4,179618	6,847691	2020-10-29T19:49:42:345
6,530545	4,842960	5,876658	2020-10-29T19:49:42:346
6,842762	5,188226	4,837495	2020-10-29T19:49:42:351
6,830858	5,405690	4,259594	2020-10-29T19:49:42:351
6,855970	5,766710	3,573587	2020-10-29T19:49:42:352
6,771505	5,539998	2,947811	2020-10-29T19:49:42:352
6,475179	4,806603	2,418962	2020-10-29T19:49:42:353
6,351244	4,102377	1,975729	2020-10-29T19:49:42:354
6,274004	3,413666	1,628846	2020-10-29T19:49:42:355
6,214027	2,727560	1,390389	2020-10-29T19:49:42:377
5,899003	1,932297	1,436491	2020-10-29T19:49:42:377
5,384974	1,156630	2,018744	2020-10-29T19:49:42:377
4,592950	-0,468097	2,839482	2020-10-29T19:49:42:378
3,613125	-3,326282	3,573609	2020-10-29T19:49:42:380
2,120719	-6,924389	3,607892	2020-10-29T19:49:42:381
1,636120	-9,172228	2,848618	2020-10-29T19:49:42:381
1,762317	-11,343244	2,955722	2020-10-29T19:49:42:382
1,524469	-12,122561	3,464097	2020-10-29T19:49:42:418
0,817169	-11,459511	4,013898	2020-10-29T19:49:42:419
-1,152125	-12,875411	4,568065	2020-10-29T19:49:42:433
-3,105114	-14,291081	4,506122	2020-10-29T19:49:42:453
-4,236920	-17,112221	3,264247	2020-10-29T19:49:42:470
-6,557994	-19,686543	1,295502	2020-10-29T19:49:42:493
-8,024288	-22,222696	-0,475788	2020-10-29T19:49:42:510
-8,644312	-23,986935	-1,446143	2020-10-29T19:49:42:537
-9,152478	-25,838631	-2,193830	2020-10-29T19:49:42:551
-8,501631	-27,855782	-1,236701	2020-10-29T19:49:42:627
-8,006800	-28,315571	-0,440029	2020-10-29T19:49:42:712
-7,064448	-24,748627	-0,039095	2020-10-29T19:49:42:736
-5,202262	-22,306149	0,355148	2020-10-29T19:49:42:737
-3,477355	-20,128271	0,728040	2020-10-29T19:49:42:737
-2,084359	-18,495899	1,507144	2020-10-29T19:49:42:738
-1,548044	-17,853605	2,101808	2020-10-29T19:49:42:738
-1,441896	-17,603411	2,190632	2020-10-29T19:49:42:742
-1,152391	-17,137627	2,309389	2020-10-29T19:49:42:743
-0,605410	-15,435163	2,866606	2020-10-29T19:49:42:767
-0,332071	-14,184269	2,885823	2020-10-29T19:49:42:779
0,099324	-12,580832	2,863742	2020-10-29T19:49:42:801
0,989577	-10,234076	2,992443	2020-10-29T19:49:42:823
1,762264	-3,860426	3,563372	2020-10-29T19:49:42:844
2,042223	-2,910475	3,560979	2020-10-29T19:49:42:854
2,646561	-2,219692	3,024755	2020-10-29T19:49:42:933
3,566613	-2,690752	2,450915	2020-10-29T19:49:42:936
4,199583	-2,420994	2,137901	2020-10-29T19:49:42:936
4,552841	-1,752365	1,854491	2020-10-29T19:49:42:937
4,673732	-1,188444	1,738868	2020-10-29T19:49:42:952
4,784020	-0,505582	1,277965	2020-10-29T19:49:43:001
4,790035	0,319893	0,638678	2020-10-29T19:49:43:001
4,562273	1,028953	-0,162479	2020-10-29T19:49:43:015
3,747218	1,327505	-0,762783	2020-10-29T19:49:43:042
2,669110	1,148993	-1,203848	2020-10-29T19:49:43:053
1,299397	0,604147	-1,381270	2020-10-29T19:49:43:072
-0,036608	-0,071071	-0,983538	2020-10-29T19:49:43:101
-0,944396	-1,017205	-0,473710	2020-10-29T19:49:43:113
-2,058983	-1,320576	-0,967631	2020-10-29T19:49:43:141
-4,323396	-1,540140	-1,467604	2020-10-29T19:49:43:200
-5,695414	0,285650	-1,258103	2020-10-29T19:49:43:201
-4,225476	-4,273123	-0,268687	2020-10-29T19:49:43:202
-5,106292	-7,397013	1,347226	2020-10-29T19:49:43:229
-4,129036	-5,106172	2,457003	2020-10-29T19:49:43:234
-2,637471	-5,080469	2,402048	2020-10-29T19:49:43:255
-1,288478	-4,920939	1,166675	2020-10-29T19:49:43:275
-1,223375	-4,369685	1,301221	2020-10-29T19:49:43:296
-2,184280	-8,030341	2,306017	2020-10-29T19:49:43:324
-1,988068	-7,022963	1,975807	2020-10-29T19:49:43:336
-2,338458	-6,312099	1,090147	2020-10-29T19:49:43:358
-2,485382	-4,930028	0,446887	2020-10-29T19:49:43:375
-2,516482	-4,060767	0,463963	2020-10-29T19:49:43:394
-2,681654	-4,383134	0,959957	2020-10-29T19:49:43:416
-2,314064	-4,943455	1,478680	2020-10-29T19:49:43:434
-1,380936	-5,443808	1,940259	2020-10-29T19:49:43:455
-0,424333	-6,339795	1,797222	2020-10-29T19:49:43:474
0,646960	-6,288341	1,239053	2020-10-29T19:49:43:496
1,248510	-4,647847	0,898907	2020-10-29T19:49:43:515
0,918704	-2,613833	0,685581	2020-10-29T19:49:43:535
0,941202	-3,846259	0,583730	2020-10-29T19:49:43:554
1,018774	-4,330278	0,326851	2020-10-29T19:49:43:576
0,690768	-4,264919	0,519787	2020-10-29T19:49:43:594
0,628554	-4,499415	0,412110	2020-10-29T19:49:43:616
1,051875	-4,564397	0,197128	2020-10-29T19:49:43:634
1,078756	-4,806794	0,042476	2020-10-29T19:49:43:656
0,020273	-5,787496	0,855876	2020-10-29T19:49:43:674
-1,457442	-8,006959	1,971330	2020-10-29T19:49:43:697
-2,163733	-11,126245	1,588318	2020-10-29T19:49:43:715
-3,948779	-13,834921	0,896792	2020-10-29T19:49:43:736
-6,241895	-10,716595	0,003460	2020-10-29T19:49:43:755
-5,261703	-6,001445	-0,738227	2020-10-29T19:49:43:775
-2,411528	-1,222651	-0,935297	2020-10-29T19:49:43:794
0,177732	-1,185847	-0,408663	2020-10-29T19:49:43:817
1,299686	-2,847622	0,513850	2020-10-29T19:49:43:834
1,257617	-3,238322	0,779091	2020-10-29T19:49:43:856
-0,180647	-3,852658	0,863405	2020-10-29T19:49:43:873
-1,573592	-2,011123	-0,117703	2020-10-29T19:49:43:897
-2,596426	-1,927211	-1,141701	2020-10-29T19:49:43:916
-3,060632	-2,939375	-1,785371	2020-10-29T19:49:43:936
-3,279467	-3,077188	-2,917024	2020-10-29T19:49:43:954
-3,522425	-2,525941	-3,832734	2020-10-29T19:49:43:977
-3,823462	-0,807984	-3,861861	2020-10-29T19:49:43:995
-4,450991	1,380053	-3,390024	2020-10-29T19:49:44:017
-4,587682	3,002378	-2,374355	2020-10-29T19:49:44:034
-4,485246	3,961457	-1,756073	2020-10-29T19:49:44:057
-4,325125	4,832252	-1,392581	2020-10-29T19:49:44:074
-4,124299	5,372630	-1,284289	2020-10-29T19:49:44:096
-3,901214	5,926470	-1,011291	2020-10-29T19:49:44:114
-3,783980	6,236031	-0,705729	2020-10-29T19:49:44:137
-3,140507	6,265480	-0,334382	2020-10-29T19:49:44:154
-1,230966	5,435476	-0,372658	2020-10-29T19:49:44:176
0,062822	4,811252	-0,444179	2020-10-29T19:49:44:194
0,694291	4,807086	-0,292254	2020-10-29T19:49:44:217
1,102877	4,815135	-0,405564	2020-10-29T19:49:44:236
1,258410	5,061595	-0,376850	2020-10-29T19:49:44:256
1,118256	5,322234	-0,392919	2020-10-29T19:49:44:274
0,971078	5,592735	0,174613	2020-10-29T19:49:44:297
1,125514	5,435104	0,682886	2020-10-29T19:49:44:314
1,015127	5,315137	-1,324727	2020-10-29T19:49:44:336
-0,609962	4,640227	-2,006052	2020-10-29T19:49:44:354
-1,655747	3,692680	-1,730604	2020-10-29T19:49:44:377
-1,509072	2,785329	-1,180335	2020-10-29T19:49:44:395
-1,687092	1,962596	0,530710	2020-10-29T19:49:44:416
-2,731082	0,804140	1,807343	2020-10-29T19:49:44:434
-2,556304	-0,324658	2,158760	2020-10-29T19:49:44:457
-3,111143	1,718324	1,272849	2020-10-29T19:49:44:477
-3,372229	0,573949	0,701739	2020-10-29T19:49:44:497
-4,604532	-0,557856	0,211210	2020-10-29T19:49:44:514
-4,898328	-4,395511	0,667662	2020-10-29T19:49:44:537
-4,012943	-7,370718	1,070923	2020-10-29T19:49:44:554
-2,356467	-3,119808	-0,711262	2020-10-29T19:49:44:576
-1,895528	-0,231169	-1,219556	2020-10-29T19:49:44:595
-2,260982	0,729176	-0,566023	2020-10-29T19:49:44:617
-1,912092	0,201618	-0,066140	2020-10-29T19:49:44:634
-0,822227	-0,101404	0,001555	2020-10-29T19:49:44:658
-0,140273	-1,331315	-0,106122	2020-10-29T19:49:44:674
-0,086729	-0,712853	-0,589094	2020-10-29T19:49:44:697
-0,127503	-2,242966	-0,783520	2020-10-29T19:49:44:716
-0,182539	-3,346057	-1,058695	2020-10-29T19:49:44:738
-0,260571	-4,951300	-1,200067	2020-10-29T19:49:44:754
-0,058985	-5,418843	-1,834188	2020-10-29T19:49:44:784
0,480547	-5,971363	-1,996920	2020-10-29T19:49:44:797
0,679097	-6,418991	-1,626827	2020-10-29T19:49:44:861
0,602268	-6,986883	-0,762114	2020-10-29T19:49:44:862
0,061702	-6,739569	-0,800124	2020-10-29T19:49:44:862
0,113844	-6,563938	-0,165240	2020-10-29T19:49:44:878
-0,077652	-6,182264	0,790196	2020-10-29T19:49:44:898
-1,320644	-5,509143	0,337917	2020-10-29T19:49:44:914
-4,763531	-7,127313	1,568556	2020-10-29T19:49:44:937
-5,988020	-9,223019	3,077273	2020-10-29T19:49:44:956
-3,028982	-8,786679	2,965980	2020-10-29T19:49:44:977
0,117101	-6,334678	2,545400	2020-10-29T19:49:44:995
2,535037	-4,332644	2,646665	2020-10-29T19:49:45:018
4,113762	-2,179344	2,475644	2020-10-29T19:49:45:035
4,547269	-1,314137	1,822018	2020-10-29T19:49:45:057
3,305989	-1,686152	1,594594	2020-10-29T19:49:45:075
0,563807	-2,238492	1,947654	2020-10-29T19:49:45:098
-2,556174	-2,426796	1,869012	2020-10-29T19:49:45:115
-5,171496	-2,729290	0,890129	2020-10-29T19:49:45:138
-6,585479	-4,330753	1,242247	2020-10-29T19:49:45:155
-10,610289	0,862055	-2,441878	2020-10-29T19:49:45:178
-9,115677	0,764088	-3,464724	2020-10-29T19:49:45:196
-9,214464	1,914544	-1,781263	2020-10-29T19:49:45:217
-8,292620	4,569124	-2,826962	2020-10-29T19:49:45:235
-6,683194	4,795579	-2,955788	2020-10-29T19:49:45:258
-4,894273	4,921767	-2,819402	2020-10-29T19:49:45:275
-2,209313	1,700001	-2,511817	2020-10-29T19:49:45:297
-1,688849	1,605539	-2,402104	2020-10-29T19:49:45:315
-1,143803	1,727051	-1,842122	2020-10-29T19:49:45:338
-0,625379	1,727678	-1,242641	2020-10-29T19:49:45:356
-0,212474	2,129068	-0,830174	2020-10-29T19:49:45:377
0,611851	2,580661	-0,727500	2020-10-29T19:49:45:395
1,194924	2,885621	-0,282238	2020-10-29T19:49:45:418
1,464739	3,606867	-0,084010	2020-10-29T19:49:45:436
1,851203	4,225028	-0,316476	2020-10-29T19:49:45:457
1,891486	4,675144	-0,452514	2020-10-29T19:49:45:475
1,599502	5,008819	-0,853385	2020-10-29T19:49:45:500
1,098938	5,427436	-1,063826	2020-10-29T19:49:45:515
0,656865	5,530371	-1,040217	2020-10-29T19:49:45:537
0,206798	5,878981	-2,282883	2020-10-29T19:49:45:555
-1,261222	6,339614	-2,999711	2020-10-29T19:49:45:578
-2,555260	5,813707	-3,022520	2020-10-29T19:49:45:596
-1,978827	5,496465	-3,068950	2020-10-29T19:49:45:617
-0,722288	4,870853	-2,879379	2020-10-29T19:49:45:636
-0,437784	4,433665	-2,187779	2020-10-29T19:49:45:659
-0,950827	4,758447	-0,838129	2020-10-29T19:49:45:677
0,262333	4,100421	-0,388279	2020-10-29T19:49:45:698
-0,536985	4,995066	-0,144732	2020-10-29T19:49:45:716
-3,086361	5,096380	-0,330605	2020-10-29T19:49:45:738
-5,306601	4,783610	-0,310630	2020-10-29T19:49:45:755
-5,695987	3,423345	-1,061095	2020-10-29T19:49:45:777
-5,446378	1,069903	-1,788224	2020-10-29T19:49:45:796
-4,580080	-3,732473	-3,513652	2020-10-29T19:49:45:865
-4,412454	-3,847686	-4,905287	2020-10-29T19:49:45:866
-5,639963	-4,270629	-4,454419	2020-10-29T19:49:45:866
-6,334965	-3,958886	-2,808278	2020-10-29T19:49:45:881
-5,359691	-1,868197	-1,472824	2020-10-29T19:49:45:900
-4,080003	0,706266	-1,168388	2020-10-29T19:49:45:921
-2,902687	1,898040	-0,889196	2020-10-29T19:49:45:940
-1,567311	0,692903	-0,563741	2020-10-29T19:49:45:955
-0,562325	-0,560937	-0,618776	2020-10-29T19:49:45:979
0,023207	-2,204513	-0,958075	2020-10-29T19:49:45:996
0,668703	-2,935591	-1,460320	2020-10-29T19:49:46:018
1,093571	-3,279590	-2,139550	2020-10-29T19:49:46:036
1,259292	-3,699294	-3,352006	2020-10-29T19:49:46:059
0,898034	-3,637169	-4,860397	2020-10-29T19:49:46:076
0,035660	-3,765516	-5,687821	2020-10-29T19:49:46:099
-0,349173	-4,224715	-7,600338	2020-10-29T19:49:46:117
-0,787059	-4,911455	-7,279700	2020-10-29T19:49:46:139
-3,463569	-5,948039	-2,441527	2020-10-29T19:49:46:157
-5,531225	-6,229834	-4,664723	2020-10-29T19:49:46:178
-5,052699	-6,896483	-4,492494	2020-10-29T19:49:46:196
-3,238621	-7,831322	-1,462841	2020-10-29T19:49:46:219
-1,672150	-7,406829	0,074447	2020-10-29T19:49:46:248
1,242816	-6,814059	1,926681	2020-10-29T19:49:46:264
-1,140887	0,985076	0,803653	2020-10-29T19:50:10:138
-2,304728	-0,469982	-1,529421	2020-10-29T19:50:10:141
-3,355329	-3,336305	-1,877407	2020-10-29T19:50:10:143
-2,672984	-4,830116	-2,542521	2020-10-29T19:50:10:144
-1,563169	-5,387738	-3,555823	2020-10-29T19:50:10:145
-0,518964	-5,286252	-4,645916	2020-10-29T19:50:10:155
0,217641	-4,087884	-5,419601	2020-10-29T19:50:10:176
0,484482	-3,023554	-5,320839	2020-10-29T19:50:10:185
0,778582	-2,791722	-5,149066	2020-10-29T19:50:10:210
0,955450	-2,271950	-5,214398	2020-10-29T19:50:10:224
1,161234	-2,185808	-5,008616	2020-10-29T19:50:10:245
1,541523	-2,037136	-4,718998	2020-10-29T19:50:10:263
1,941648	-1,916939	-4,391926	2020-10-29T19:50:10:288
1,990495	-1,887204	-4,207880	2020-10-29T19:50:10:307
1,775387	-2,116756	-4,452989	2020-10-29T19:50:10:327
0,886106	-2,707075	-6,240968	2020-10-29T19:50:10:344
0,223294	-3,393816	-6,142862	2020-10-29T19:50:10:367
-0,066350	-3,973329	-1,497520	2020-10-29T19:50:10:384
-0,295210	-4,495425	-2,618052	2020-10-29T19:50:10:406
-0,503013	-4,610181	-3,354610	2020-10-29T19:50:10:424
-0,671077	-4,193686	-3,889259	2020-10-29T19:50:10:447
-0,792402	-3,101995	-4,250562	2020-10-29T19:50:10:464
-0,620682	-2,156199	-4,720469	2020-10-29T19:50:10:487
-0,846232	-1,538719	-4,676159	2020-10-29T19:50:10:504
-1,384399	-0,941870	-4,260110	2020-10-29T19:50:10:527
-1,686251	-0,579700	-3,927133	2020-10-29T19:50:10:547
-1,746377	-0,431059	-3,453677	2020-10-29T19:50:10:567
-1,947427	-0,185930	-2,938776	2020-10-29T19:50:10:584
-2,276592	0,286039	-2,845638	2020-10-29T19:50:10:607
-2,489297	0,940508	-2,787659	2020-10-29T19:50:10:624
-2,781845	1,621238	-2,581752	2020-10-29T19:50:10:646
-3,093219	2,046105	-2,121931	2020-10-29T19:50:10:664
-3,185120	2,120912	-1,485122	2020-10-29T19:50:10:688
-3,005000	2,261015	-1,038133	2020-10-29T19:50:10:704
-2,892395	2,606656	-0,404140	2020-10-29T19:50:10:726
-2,808770	2,948097	0,017236	2020-10-29T19:50:10:744
-2,942559	3,296840	0,398741	2020-10-29T19:50:10:767
-3,048764	3,715852	0,799014	2020-10-29T19:50:10:785
-3,243151	4,303644	0,960854	2020-10-29T19:50:10:806
-3,340716	4,889113	1,068606	2020-10-29T19:50:10:826
-3,327662	5,323327	0,999138	2020-10-29T19:50:10:848
-3,287340	5,617675	1,003528	2020-10-29T19:50:10:864
-2,959705	5,744138	1,117007	2020-10-29T19:50:10:886
-2,506080	5,800161	1,211579	2020-10-29T19:50:10:904
-2,145386	5,837579	1,520525	2020-10-29T19:50:10:927
-2,157144	6,041443	1,842830	2020-10-29T19:50:10:944
-2,242929	6,235571	2,379036	2020-10-29T19:50:10:967
-2,639017	6,618692	2,089035	2020-10-29T19:50:10:985
-3,030251	6,563521	2,008248	2020-10-29T19:50:11:007
-3,653625	6,395749	1,770281	2020-10-29T19:50:11:025
-3,677013	6,318209	1,833973	2020-10-29T19:50:11:046
-3,679571	5,899846	2,143472	2020-10-29T19:50:11:064
-3,804594	5,781156	2,181941	2020-10-29T19:50:11:088
-3,556983	5,981165	1,964097	2020-10-29T19:50:11:105
-3,446189	6,080746	1,900143	2020-10-29T19:50:11:127
-3,549851	5,984076	1,115917	2020-10-29T19:50:11:145
-3,686092	4,839431	1,458697	2020-10-29T19:50:11:167
-3,846932	3,879335	1,712940	2020-10-29T19:50:11:185
-3,259977	3,712947	1,846849	2020-10-29T19:50:11:207
-2,960631	2,964979	2,246673	2020-10-29T19:50:11:225
-2,186169	2,589610	1,639210	2020-10-29T19:50:11:248
-1,514461	3,274804	0,903832	2020-10-29T19:50:11:265
-1,487438	2,858496	0,900107	2020-10-29T19:50:11:287
-1,020072	2,265396	0,750433	2020-10-29T19:50:11:305
-0,864816	1,929888	0,588603	2020-10-29T19:50:11:328
-1,023176	1,498659	0,349036	2020-10-29T19:50:11:345
-1,207492	0,896990	0,167722	2020-10-29T19:50:11:367
-2,293813	0,178962	0,027138	2020-10-29T19:50:11:385
-3,481541	-0,652315	0,397791	2020-10-29T19:50:11:408
-2,960589	-1,138768	0,528879	2020-10-29T19:50:11:425
-1,686291	-1,177691	0,480306	2020-10-29T19:50:11:447
-1,373460	-0,747096	0,432987	2020-10-29T19:50:11:465
-1,096815	-0,224444	0,471132	2020-10-29T19:50:11:488
-0,701615	-0,288725	0,808107	2020-10-29T19:50:11:506
0,011879	-0,274104	0,990253	2020-10-29T19:50:11:527
0,951868	0,011885	0,978658	2020-10-29T19:50:11:545
1,049438	0,358313	1,078295	2020-10-29T19:50:11:568
0,128867	0,934208	1,034978	2020-10-29T19:50:11:586
-0,959546	1,696253	0,678735	2020-10-29T19:50:11:607
-1,611042	2,153266	0,242300	2020-10-29T19:50:11:625
-2,401360	2,258447	0,048603	2020-10-29T19:50:11:648
-3,241434	2,473254	0,267528	2020-10-29T19:50:11:665
-3,563025	2,891597	-0,154782	2020-10-29T19:50:11:687
-3,329278	3,497571	-0,573982	2020-10-29T19:50:11:705
-3,063259	3,956787	-0,652828	2020-10-29T19:50:11:728
-3,134014	4,437133	-0,690966	2020-10-29T19:50:11:747
-3,033517	4,721879	-0,482790	2020-10-29T19:50:11:767
-3,118645	5,231149	-0,592676	2020-10-29T19:50:11:785
-3,009863	5,656442	-1,021900	2020-10-29T19:50:11:809
-2,807762	5,881789	-1,085579	2020-10-29T19:50:11:825
-2,665891	6,099697	-0,926049	2020-10-29T19:50:11:847
-2,556006	5,879265	-0,707249	2020-10-29T19:50:11:865
-2,529830	5,980331	-0,785721	2020-10-29T19:50:11:889
-2,730018	5,940688	-0,709497	2020-10-29T19:50:11:905
-2,777772	5,934867	-0,904635	2020-10-29T19:50:11:928
-2,910094	5,793021	-0,858886	2020-10-29T19:50:11:945
-0,893113	1,680466	-0,763652	2020-10-29T19:50:11:968
-3,717084	6,097227	-0,846353	2020-10-29T19:50:11:987
-4,150676	6,570438	-0,588200	2020-10-29T19:50:12:007
-4,079001	6,456311	-0,608588	2020-10-29T19:50:12:026
-5,701334	6,032782	-1,044081	2020-10-29T19:50:12:049
-4,904427	5,786731	-1,040028	2020-10-29T19:50:12:065
-2,908565	5,880373	-0,434682	2020-10-29T19:50:12:088
-2,563203	5,448202	0,529577	2020-10-29T19:50:12:105
-2,925910	4,963962	1,113466	2020-10-29T19:50:12:129
-2,270342	4,916659	1,252454	2020-10-29T19:50:12:146
-1,206979	4,835805	1,339383	2020-10-29T19:50:12:167
-0,729339	4,423066	1,636717	2020-10-29T19:50:12:186
-0,913349	3,882850	1,963494	2020-10-29T19:50:12:209
-1,068856	3,021559	1,963108	2020-10-29T19:50:12:227
-1,602456	2,851668	2,319639	2020-10-29T19:50:12:248
-1,817440	2,671308	2,432615	2020-10-29T19:50:12:265
-1,919621	2,735748	2,318086	2020-10-29T19:50:12:289
-1,564093	3,046659	1,991839	2020-10-29T19:50:12:306
-1,070638	4,083831	1,226624	2020-10-29T19:50:12:328
-1,260123	4,903134	0,834896	2020-10-29T19:50:12:346
-0,978773	5,343253	0,370573	2020-10-29T19:50:12:369
-0,588037	4,174421	0,043603	2020-10-29T19:50:12:386
-0,841430	4,155744	-0,198472	2020-10-29T19:50:12:408
-0,945632	4,079443	-0,282017	2020-10-29T19:50:12:426
-0,739297	2,984695	-0,324319	2020-10-29T19:50:12:449
-0,556165	2,075921	-0,353891	2020-10-29T19:50:12:467
-0,441673	1,314562	-0,362234	2020-10-29T19:50:12:488
-0,283845	0,704772	-0,352313	2020-10-29T19:50:12:505
-0,117537	0,297297	-0,238142	2020-10-29T19:50:12:529
0,363316	-0,168365	-0,197333	2020-10-29T19:50:12:547
0,555885	-0,644197	-0,129807	2020-10-29T19:50:12:568
0,317631	-1,140387	-0,359260	2020-10-29T19:50:12:587
-0,336900	-2,207077	-0,463996	2020-10-29T19:50:12:609
-0,988993	-3,387519	-0,305070	2020-10-29T19:50:12:626
-1,374746	-5,189327	-0,596242	2020-10-29T19:50:12:649
-3,305115	-6,805076	-0,922734	2020-10-29T19:50:12:667
-4,463577	-8,316031	-0,652557	2020-10-29T19:50:12:689
-2,974457	-7,149122	0,051827	2020-10-29T19:50:12:708
-1,297412	-5,921657	-0,045846	2020-10-29T19:50:12:729
-0,226274	-4,735491	0,293650	2020-10-29T19:50:12:746
0,673657	-3,856699	0,957807	2020-10-29T19:50:12:769
1,550588	-3,163041	1,157515	2020-10-29T19:50:12:786
1,555017	-2,906870	1,416757	2020-10-29T19:50:12:808
0,697361	-2,847050	1,680068	2020-10-29T19:50:12:827
-0,353546	-2,045973	1,447379	2020-10-29T19:50:12:849
-1,236398	-1,383149	0,897141	2020-10-29T19:50:12:867
-2,229418	-1,139082	0,315685	2020-10-29T19:50:12:889
-3,083082	-2,377106	0,067155	2020-10-29T19:50:12:906
-3,734321	-1,405682	-0,131288	2020-10-29T19:50:12:929
-3,773532	-0,425936	-0,671350	2020-10-29T19:50:12:948
-3,072566	0,186141	-1,032543	2020-10-29T19:50:12:968
-2,430391	1,087538	-1,336857	2020-10-29T19:50:12:987
-2,081038	1,525425	-0,669259	2020-10-29T19:50:13:010
-2,050407	2,431737	-0,945230	2020-10-29T19:50:13:027
-1,417981	2,912798	-1,671735	2020-10-29T19:50:13:049
-0,716154	3,153785	-1,785964	2020-10-29T19:50:13:067
-0,584069	3,509502	-1,605546	2020-10-29T19:50:13:090
-0,445476	3,726188	-1,371077	2020-10-29T19:50:13:106
-0,114782	3,954782	-1,547714	2020-10-29T19:50:13:129
-0,121731	4,474316	-1,603553	2020-10-29T19:50:13:147
-0,490177	4,755717	-1,740845	2020-10-29T19:50:13:169
-1,000214	5,158344	-1,901743	2020-10-29T19:50:13:188
-1,565377	5,594622	-1,885647	2020-10-29T19:50:13:209
-2,044926	5,959491	-1,908679	2020-10-29T19:50:13:227
-2,455845	6,394211	-1,681563	2020-10-29T19:50:13:250
-2,697649	6,833811	-1,350096	2020-10-29T19:50:13:267
-3,028193	6,983697	-1,165166	2020-10-29T19:50:13:289
-4,796772	7,335703	-1,250985	2020-10-29T19:50:13:307
-5,343884	7,219153	-1,158804	2020-10-29T19:50:13:330
-4,219450	7,182168	-0,853800	2020-10-29T19:50:13:346
-4,095519	6,803152	-0,172333	2020-10-29T19:50:13:369
-3,693544	6,013292	0,769427	2020-10-29T19:50:13:387
-2,348735	5,370896	1,395826	2020-10-29T19:50:13:410
-1,714857	4,662358	1,443448	2020-10-29T19:50:13:428
-2,584818	3,822450	1,624964	2020-10-29T19:50:13:450
-3,595639	2,151628	1,793537	2020-10-29T19:50:13:467
-3,688657	-0,516253	1,833472	2020-10-29T19:50:13:490
-3,389043	-2,607458	1,863720	2020-10-29T19:50:13:507
-2,823416	-1,769057	0,758179	2020-10-29T19:50:13:529
-2,469485	-0,453316	-0,400519	2020-10-29T19:50:13:547
-2,045094	-0,692063	-0,681123	2020-10-29T19:50:13:570
-1,436272	-0,804159	0,162399	2020-10-29T19:50:13:587
-0,509114	-1,228233	1,142325	2020-10-29T19:50:13:609
0,804915	-0,945759	2,323796	2020-10-29T19:50:13:627
1,635021	-2,556610	1,860923	2020-10-29T19:50:13:650
1,329614	-4,271847	1,658038	2020-10-29T19:50:13:668
0,735224	-5,512296	1,654225	2020-10-29T19:50:13:689
0,412628	-6,603077	1,701160	2020-10-29T19:50:13:707
0,419664	-7,704609	1,727406	2020-10-29T19:50:13:731
0,629890	-7,042069	1,668264	2020-10-29T19:50:13:747
1,120403	-5,661511	1,356557	2020-10-29T19:50:13:769
1,561863	-4,434382	1,121204	2020-10-29T19:50:13:787
1,213669	-3,809456	1,004199	2020-10-29T19:50:13:811
0,238310	-2,884175	1,144482	2020-10-29T19:50:13:827
-0,071214	-3,307076	1,115573	2020-10-29T19:50:13:850
-0,482737	-3,653437	0,480988	2020-10-29T19:50:13:867
-2,638371	-4,354118	0,393378	2020-10-29T19:50:13:891
-5,245432	-4,021993	0,715188	2020-10-29T19:50:13:909
-5,232769	-2,790022	0,553885	2020-10-29T19:50:13:930
-3,458947	-2,990265	0,266821	2020-10-29T19:50:13:947
-1,806922	-1,846165	0,284646	2020-10-29T19:50:13:971
-0,211056	-0,489266	0,120558	2020-10-29T19:50:13:987
0,547691	0,569435	-0,401390	2020-10-29T19:50:14:009
-0,430003	0,984596	-0,465413	2020-10-29T19:50:14:028
-2,189896	1,257664	-0,228065	2020-10-29T19:50:14:051
-3,321324	1,547626	0,029872	2020-10-29T19:50:14:067
-3,739914	1,799635	-0,635633	2020-10-29T19:50:14:090
-3,857765	2,114550	-1,589629	2020-10-29T19:50:14:107
-3,504556	2,521409	-2,056030	2020-10-29T19:50:14:131
-3,060920	3,220303	-2,061602	2020-10-29T19:50:14:149
-2,340878	3,769701	-1,924636	2020-10-29T19:50:14:170
-1,557036	4,081769	-2,013345	2020-10-29T19:50:14:187
-0,930593	4,433912	-1,904598	2020-10-29T19:50:14:211
-0,262436	4,881429	-1,804074	2020-10-29T19:50:14:228
0,297456	5,058248	-1,724288	2020-10-29T19:50:14:250
0,711259	5,204074	-1,653718	2020-10-29T19:50:14:268
1,101725	5,381910	-1,611126	2020-10-29T19:50:14:291
1,294151	5,388808	-1,301528	2020-10-29T19:50:14:307
1,526571	5,281835	-1,010904	2020-10-29T19:50:14:330
1,597224	5,250621	-0,618191	2020-10-29T19:50:14:348
1,580283	5,115622	-0,551247	2020-10-29T19:50:14:371
1,779354	4,666730	-0,629225	2020-10-29T19:50:14:391
0,968187	4,843800	-0,897221	2020-10-29T19:50:14:410
-0,132026	4,352347	-0,829827	2020-10-29T19:50:14:428
-1,588505	3,488727	-0,769214	2020-10-29T19:50:14:451
-2,941846	2,226978	-0,578472	2020-10-29T19:50:14:468
-3,483150	0,218205	-0,916173	2020-10-29T19:50:14:490
-7,521719	4,076506	-1,642533	2020-10-29T19:50:14:508
-8,207116	-0,241685	-0,432350	2020-10-29T19:50:14:532
-6,502662	-1,812323	1,539090	2020-10-29T19:50:14:549
-4,272499	-1,478999	2,706313	2020-10-29T19:50:14:570
-1,598837	-0,390681	2,702965	2020-10-29T19:50:14:589
0,288602	0,647024	2,247882	2020-10-29T19:50:14:611
0,354708	2,348126	1,841776	2020-10-29T19:50:14:629
-0,366287	2,769670	1,815063	2020-10-29T19:50:14:650
-0,809374	2,802327	1,304079	2020-10-29T19:50:14:668
-1,010976	2,555299	0,809598	2020-10-29T19:50:14:691
-0,997804	2,534172	0,583893	2020-10-29T19:50:14:708
-0,915099	2,267720	0,318599	2020-10-29T19:50:14:730
-0,591459	1,877074	-0,200108	2020-10-29T19:50:14:748
-0,388041	2,141491	-0,923529	2020-10-29T19:50:14:772
-0,894723	3,758776	-1,109172	2020-10-29T19:50:14:789
1,297057	-0,716125	-1,000576	2020-10-29T19:50:14:810
1,912655	-1,304924	-0,693158	2020-10-29T19:50:14:831
1,739933	0,459088	-0,117089	2020-10-29T19:50:14:851
1,781183	0,620333	0,043617	2020-10-29T19:50:14:870
1,589756	0,608368	0,034045	2020-10-29T19:50:14:891
1,267771	0,483037	0,359484	2020-10-29T19:50:14:908
1,310505	-1,689912	0,513797	2020-10-29T19:50:14:931
1,393456	-1,938132	1,086553	2020-10-29T19:50:14:948
1,302264	-2,139850	1,272268	2020-10-29T19:50:14:970
0,744203	-2,377840	1,461506	2020-10-29T19:50:14:989
-0,001782	-2,414945	1,837124	2020-10-29T19:50:15:011
-0,942154	-2,994968	1,836289	2020-10-29T19:50:15:029
-3,016412	-3,622589	0,825536	2020-10-29T19:50:15:051
-6,060491	-4,498336	1,267981	2020-10-29T19:50:15:069
-6,294370	-2,375907	0,908317	2020-10-29T19:50:15:092
-4,190951	0,338951	-0,385979	2020-10-29T19:50:15:109
-2,522004	1,527202	-0,169431	2020-10-29T19:50:15:131
-0,420103	1,512564	0,266808	2020-10-29T19:50:15:150
1,638814	0,536053	0,361356	2020-10-29T19:50:15:171
2,470494	-0,101002	-0,062027	2020-10-29T19:50:15:189
1,846808	-0,588381	-0,995192	2020-10-29T19:50:15:210
0,196112	-1,078068	-1,420090	2020-10-29T19:50:15:229
-1,583495	-1,360212	-1,910543	2020-10-29T19:50:15:252
-2,445987	-3,262918	-1,844359	2020-10-29T19:50:15:269
-2,375043	-3,101448	-3,068000	2020-10-29T19:50:15:291
-2,098123	-2,163435	-4,071296	2020-10-29T19:50:15:309
-2,641660	0,199680	-4,002085	2020-10-29T19:50:15:332
-4,370392	3,603479	-3,478432	2020-10-29T19:50:15:350
-3,832006	4,448146	-2,892190	2020-10-29T19:50:15:370
-3,726940	5,294569	-2,488255	2020-10-29T19:50:15:389
-4,453188	6,279347	-2,031724	2020-10-29T19:50:15:412
-4,808252	6,828641	-1,699229	2020-10-29T19:50:15:429
-4,638935	6,976572	-1,269130	2020-10-29T19:50:15:451
-4,454878	7,071776	-0,963232	2020-10-29T19:50:15:469
-4,159879	7,017797	-0,530046	2020-10-29T19:50:15:492
-3,839121	6,922965	-0,011046	2020-10-29T19:50:15:509
-3,724149	6,951576	0,144038	2020-10-29T19:50:15:531
-3,672350	7,111544	0,277884	2020-10-29T19:50:15:549
-3,700907	7,365944	0,431130	2020-10-29T19:50:15:572
1,215864	3,136766	0,115614	2020-10-29T19:50:15:591
0,990282	3,534890	0,614471	2020-10-29T19:50:15:612
0,707824	3,650547	0,825156	2020-10-29T19:50:15:629
-0,288981	3,758787	0,478756	2020-10-29T19:50:15:652
-1,730815	3,575307	0,347041	2020-10-29T19:50:15:669
-2,835485	3,898714	0,126969	2020-10-29T19:50:15:691
-4,085415	4,401958	0,542584	2020-10-29T19:50:15:709
-5,087315	4,822261	1,078647	2020-10-29T19:50:15:733
-5,112893	4,778046	1,219662	2020-10-29T19:50:15:749
-4,218065	4,139425	1,014152	2020-10-29T19:50:15:772
-3,263674	2,997082	0,140629	2020-10-29T19:50:15:789
-2,899470	0,450884	0,569456	2020-10-29T19:50:15:814
-2,815969	-1,960498	1,680848	2020-10-29T19:50:15:831
-2,507294	0,752962	1,173570	2020-10-29T19:50:15:851
-2,236514	4,621637	0,612631	2020-10-29T19:50:15:869
-3,112488	6,222501	0,395864	2020-10-29T19:50:15:893
-3,378358	5,683860	0,490636	2020-10-29T19:50:15:909
-2,841472	4,813360	0,384936	2020-10-29T19:50:15:932
-2,306899	4,124309	-0,100950	2020-10-29T19:50:15:949
-0,395559	0,694161	-0,522543	2020-10-29T19:50:15:973
0,646757	-1,354335	-1,047814	2020-10-29T19:50:15:989
1,172726	-1,891955	-1,562634	2020-10-29T19:50:16:012
1,395186	-2,222176	-2,013892	2020-10-29T19:50:16:030
1,000360	-2,764521	-2,111194	2020-10-29T19:50:16:052
0,447513	-2,313059	-1,759376	2020-10-29T19:50:16:071
0,182857	-2,275291	-1,445399	2020-10-29T19:50:16:093
0,212807	-2,326402	-1,209057	2020-10-29T19:50:16:109
0,617370	-2,327511	-1,311944	2020-10-29T19:50:16:133
1,089245	-2,572913	-1,230734	2020-10-29T19:50:16:149
0,674819	-3,310942	-0,792776	2020-10-29T19:50:16:172
-0,410129	-4,433944	-0,510930	2020-10-29T19:50:16:190
-1,086072	-6,520585	-0,961670	2020-10-29T19:50:16:213
-3,288049	-9,064162	-1,903984	2020-10-29T19:50:16:230
-5,271556	-11,228385	-1,196262	2020-10-29T19:50:16:252
-3,302343	-8,827099	-0,569931	2020-10-29T19:50:16:269
-1,056125	-6,287677	-0,815088	2020-10-29T19:50:16:293
-0,095407	-4,920799	-0,267759	2020-10-29T19:50:16:311
1,240977	-4,023998	0,157582	2020-10-29T19:50:16:332
2,667791	-3,278008	0,305430	2020-10-29T19:50:16:349
2,772851	-2,724332	0,709466	2020-10-29T19:50:16:373
1,732472	-2,474672	0,457610	2020-10-29T19:50:16:390
0,657787	-2,442321	0,342766	2020-10-29T19:50:16:412
-0,437621	-2,756384	0,536521	2020-10-29T19:50:16:430
-1,867533	-2,967471	0,431016	2020-10-29T19:50:16:453
-3,596617	-2,656068	-0,123761	2020-10-29T19:50:16:470
-4,668511	-1,519528	-0,948760	2020-10-29T19:50:16:492
-4,776907	-0,401773	-1,556242	2020-10-29T19:50:16:510
-3,919661	0,172086	-1,470036	2020-10-29T19:50:16:533
-3,988430	3,319954	-1,219937	2020-10-29T19:50:16:551
-3,085423	3,551322	-1,247234	2020-10-29T19:50:16:572
-2,664618	4,198706	-1,351030	2020-10-29T19:50:16:591
-2,697360	5,060079	-1,184989	2020-10-29T19:50:16:613
-3,249526	6,247306	-0,923815	2020-10-29T19:50:16:630
-3,689461	6,822617	-0,759141	2020-10-29T19:50:16:652
-3,794846	7,000420	-0,603588	2020-10-29T19:50:16:670
-3,741972	7,118846	-0,465124	2020-10-29T19:50:16:693
-3,718366	7,640916	-0,606428	2020-10-29T19:50:16:710
-4,059121	8,083675	-0,384223	2020-10-29T19:50:16:733
-4,391363	8,044802	-0,359846	2020-10-29T19:50:16:750
-4,583713	7,984750	-0,264606	2020-10-29T19:50:16:773
-4,626972	8,133002	-0,091346	2020-10-29T19:50:16:791
-5,753304	8,400078	-0,468752	2020-10-29T19:50:16:812
-8,229137	8,168097	-1,086567	2020-10-29T19:50:16:830
-8,328346	7,594338	-1,087257	2020-10-29T19:50:16:854
-6,388696	7,316986	-0,607792	2020-10-29T19:50:16:870
-5,767659	6,641292	0,092221	2020-10-29T19:50:16:893
-4,162258	5,803641	0,682231	2020-10-29T19:50:16:910
-2,142806	5,381009	1,037496	2020-10-29T19:50:16:934
-1,269788	4,768023	1,004222	2020-10-29T19:50:16:950
-2,198978	3,847125	1,685333	2020-10-29T19:50:16:973
-3,396198	2,363170	1,457628	2020-10-29T19:50:16:991
-3,361259	0,114738	0,390945	2020-10-29T19:50:17:013
-2,268732	-2,982881	-0,134478	2020-10-29T19:50:17:032
-1,926673	-1,635926	-0,196353	2020-10-29T19:50:17:053
-1,861502	-0,114132	0,374423	2020-10-29T19:50:17:070
-1,382936	0,735320	1,104234	2020-10-29T19:50:17:094
-0,656860	1,609571	1,900800	2020-10-29T19:50:17:110
-0,217391	2,393852	2,085285	2020-10-29T19:50:17:133
-0,578866	3,111524	3,257686	2020-10-29T19:50:17:150
-0,889292	2,843119	3,452202	2020-10-29T19:50:17:174
-1,108294	2,483717	3,387872	2020-10-29T19:50:17:190
-1,017797	2,337492	2,688909	2020-10-29T19:50:17:213
-0,900658	1,075956	2,378704	2020-10-29T19:50:17:231
-0,943137	-0,303198	1,692540	2020-10-29T19:50:17:254
-1,648804	1,444014	1,019098	2020-10-29T19:50:17:271
0,254367	-2,341074	0,532455	2020-10-29T19:50:17:293
0,979502	-3,179651	0,122597	2020-10-29T19:50:17:311
1,012967	-2,816731	-0,285674	2020-10-29T19:50:17:335
0,650555	-2,232299	-0,127958	2020-10-29T19:50:17:351
-0,095363	-1,764007	-0,239774	2020-10-29T19:50:17:373
-0,540800	-1,734983	-0,232761	2020-10-29T19:50:17:391
-1,046375	-1,797726	-0,931374	2020-10-29T19:50:17:414
-3,383227	-2,510591	-1,200252	2020-10-29T19:50:17:431
-4,528487	-4,199552	-0,757255	2020-10-29T19:50:17:453
-2,768323	-5,798509	-0,532847	2020-10-29T19:50:17:471
-0,944380	-6,315199	-0,397930	2020-10-29T19:50:17:494
-0,004458	-5,649288	-0,337405	2020-10-29T19:50:17:511
0,942987	-4,268652	-0,479800	2020-10-29T19:50:17:533
1,708126	-1,824170	-0,537162	2020-10-29T19:50:17:551
1,614429	0,138321	-0,513098	2020-10-29T19:50:17:574
0,821865	-0,099612	-1,021842	2020-10-29T19:50:17:591
-0,868959	0,833446	-1,903423	2020-10-29T19:50:17:613
-2,689637	1,601144	-2,660156	2020-10-29T19:50:17:631
-4,511968	2,114829	-2,693817	2020-10-29T19:50:17:654
-5,196165	2,373568	-3,013146	2020-10-29T19:50:17:671
-3,690684	-0,475507	-3,084286	2020-10-29T19:50:17:693
-3,237332	0,293191	-2,795713	2020-10-29T19:50:17:711
-2,339016	1,382399	-2,277277	2020-10-29T19:50:17:734
-1,737081	2,728830	-1,643775	2020-10-29T19:50:17:752
-3,136287	5,270563	-0,876705	2020-10-29T19:50:17:773
-3,648151	6,668702	-0,544956	2020-10-29T19:50:17:791
-4,079762	7,134175	-0,420159	2020-10-29T19:50:17:815
-3,917048	7,299279	-0,506301	2020-10-29T19:50:17:831
-3,929497	7,486815	-0,589665	2020-10-29T19:50:17:853
-3,707409	7,750655	-0,600698	2020-10-29T19:50:17:871
-3,132792	7,814819	-0,544796	2020-10-29T19:50:17:894
-0,647271	6,727528	-0,445585	2020-10-29T19:50:17:911
0,690464	5,864640	-0,308369	2020-10-29T19:50:17:933
1,027481	5,757852	-0,132190	2020-10-29T19:50:17:951
1,156067	5,460063	0,079118	2020-10-29T19:50:17:975
1,159903	4,590149	-0,011679	2020-10-29T19:50:17:994
0,733980	4,415473	-0,155248	2020-10-29T19:50:18:013
0,369151	4,095284	-0,382192	2020-10-29T19:50:18:031
-1,513712	4,637432	-1,229310	2020-10-29T19:50:18:054
-7,047099	7,361773	-1,756269	2020-10-29T19:50:18:071
-7,322229	5,947787	-2,188232	2020-10-29T19:50:18:093
-4,316661	0,509220	-2,313765	2020-10-29T19:50:18:111
-4,432528	-0,636878	-1,414715	2020-10-29T19:50:18:135
-3,712930	-2,141380	-0,255988	2020-10-29T19:50:18:151
-2,300900	-4,146356	0,559764	2020-10-29T19:50:18:173
-1,341037	-7,226048	1,335586	2020-10-29T19:50:18:191
-1,052772	-8,490004	1,319700	2020-10-29T19:50:18:214
-0,936774	-4,487463	0,532035	2020-10-29T19:50:18:234
-0,979845	-2,207102	0,003221	2020-10-29T19:50:18:254
-1,234666	-0,670557	-0,512730	2020-10-29T19:50:18:271
-1,453238	0,429452	-0,473391	2020-10-29T19:50:18:295
-1,670075	1,955097	0,296567	2020-10-29T19:50:18:311
-1,246707	2,748913	1,079610	2020-10-29T19:50:18:334
-0,531367	2,397575	1,574607	2020-10-29T19:50:18:351
0,229605	2,178683	1,672531	2020-10-29T19:50:18:375
0,501952	1,967462	1,631078	2020-10-29T19:50:18:392
-0,031496	2,120665	1,371832	2020-10-29T19:50:18:414
-0,647888	2,021480	1,093293	2020-10-29T19:50:18:432
-1,152216	1,907089	0,999824	2020-10-29T19:50:18:454
-1,471278	1,902603	0,976454	2020-10-29T19:50:18:472
-1,690552	1,664617	0,722263	2020-10-29T19:50:18:496
-1,831729	1,449263	0,494945	2020-10-29T19:50:18:511
-1,296913	1,644859	0,434999	2020-10-29T19:50:18:535
-0,375502	1,444751	0,152722	2020-10-29T19:50:18:553
-0,046748	1,485771	0,099392	2020-10-29T19:50:18:574
-0,258934	1,253528	-0,011252	2020-10-29T19:50:18:592
-0,971964	1,053533	-0,469904	2020-10-29T19:50:18:615
-2,246335	0,343353	-1,617764	2020-10-29T19:50:18:632
-3,979575	-0,026637	-1,825155	2020-10-29T19:50:18:655
-6,566029	-0,302801	-2,020207	2020-10-29T19:50:18:672
-7,452795	-0,931951	-1,989916	2020-10-29T19:50:18:695
-3,837203	-2,684988	-1,833017	2020-10-29T19:50:18:713
-0,195326	-1,873821	-2,699219	2020-10-29T19:50:18:734
1,710570	-1,268569	-3,319293	2020-10-29T19:50:18:752
1,996540	-0,099178	-2,923352	2020-10-29T19:50:18:775
2,286842	0,313460	-2,052146	2020-10-29T19:50:18:793
3,005538	0,192744	-1,882488	2020-10-29T19:50:18:814
2,847370	-0,983684	-2,535719	2020-10-29T19:50:18:834
2,514767	-1,500534	-3,062140	2020-10-29T19:50:18:855
0,995826	-1,700216	-5,251355	2020-10-29T19:50:18:873
0,568055	-1,083001	-6,783866	2020-10-29T19:50:18:894
0,562683	-0,896644	-7,498891	2020-10-29T19:50:18:913
0,087706	-0,490147	-8,038884	2020-10-29T19:50:18:935
-0,444675	0,552148	-8,272144	2020-10-29T19:50:18:955
-0,368106	1,116854	-8,209931	2020-10-29T19:50:18:974
-0,357415	1,499648	-7,609401	2020-10-29T19:50:18:993
-0,436956	1,545556	-6,885949	2020-10-29T19:50:19:015
-0,592011	1,493548	-6,616086	2020-10-29T19:50:19:033
-0,649308	1,721005	-6,477300	2020-10-29T19:50:19:054
-0,445181	1,712019	-6,165064	2020-10-29T19:50:19:073
-0,354233	1,395572	-5,700181	2020-10-29T19:50:19:096
-0,155336	1,155875	-5,269740	2020-10-29T19:50:19:113
-0,214548	0,928820	-5,230311	2020-10-29T19:50:19:135
-0,466250	1,025125	-5,336390	2020-10-29T19:50:19:153
-0,848262	1,351154	-5,682898	2020-10-29T19:50:19:176
-1,119161	1,250705	-6,155195	2020-10-29T19:50:19:195
-1,384765	1,707734	-6,150409	2020-10-29T19:50:19:214
-1,689360	1,818745	-6,541259	2020-10-29T19:50:19:233
-1,775521	1,772855	-6,915341	2020-10-29T19:50:19:256
-1,763724	1,696979	-7,499121	2020-10-29T19:50:19:273
-2,127634	1,470050	-8,290409	2020-10-29T19:50:19:295
-3,037775	1,121961	-9,095230	2020-10-29T19:50:19:313
-4,482570	0,790355	-10,042456	2020-10-29T19:50:19:336
-5,990927	0,652895	-11,126445	2020-10-29T19:50:19:352
-7,636003	0,320861	-11,911410	2020-10-29T19:50:19:374
-8,806227	0,233079	-12,219527	2020-10-29T19:50:19:393
-9,631608	0,183020	-12,176968	2020-10-29T19:50:19:415
