light_level	ts
48,000000	2020-10-29T19:48:34:581
48,000000	2020-10-29T19:48:34:768
44,000000	2020-10-29T19:48:35:008
76,000000	2020-10-29T19:48:35:248
28,000000	2020-10-29T19:48:35:489
24,000000	2020-10-29T19:48:35:729
20,000000	2020-10-29T19:48:35:979
20,000000	2020-10-29T19:48:36:212
0,000000	2020-10-29T19:48:54:140
0,000000	2020-10-29T19:48:54:370
4,000000	2020-10-29T19:48:54:611
4,000000	2020-10-29T19:48:54:851
12,000000	2020-10-29T19:48:55:091
20,000000	2020-10-29T19:48:55:333
36,000000	2020-10-29T19:48:55:573
44,000000	2020-10-29T19:48:55:812
48,000000	2020-10-29T19:48:56:064
48,000000	2020-10-29T19:48:56:293
44,000000	2020-10-29T19:48:56:533
40,000000	2020-10-29T19:48:56:773
16,000000	2020-10-29T19:49:07:427
16,000000	2020-10-29T19:49:07:644
20,000000	2020-10-29T19:49:07:709
28,000000	2020-10-29T19:49:07:938
28,000000	2020-10-29T19:49:08:177
24,000000	2020-10-29T19:49:08:438
28,000000	2020-10-29T19:49:08:698
32,000000	2020-10-29T19:49:08:907
28,000000	2020-10-29T19:49:09:148
28,000000	2020-10-29T19:49:09:378
40,000000	2020-10-29T19:49:09:618
64,000000	2020-10-29T19:49:09:860
56,000000	2020-10-29T19:49:10:099
52,000000	2020-10-29T19:49:10:339
52,000000	2020-10-29T19:49:10:579
44,000000	2020-10-29T19:49:10:823
32,000000	2020-10-29T19:49:11:059
0,000000	2020-10-29T19:49:18:158
0,000000	2020-10-29T19:49:18:397
0,000000	2020-10-29T19:49:18:636
0,000000	2020-10-29T19:49:18:876
0,000000	2020-10-29T19:49:19:117
0,000000	2020-10-29T19:49:19:357
0,000000	2020-10-29T19:49:19:598
0,000000	2020-10-29T19:49:19:838
0,000000	2020-10-29T19:49:20:078
0,000000	2020-10-29T19:49:20:318
0,000000	2020-10-29T19:49:20:558
0,000000	2020-10-29T19:49:20:799
0,000000	2020-10-29T19:49:21:039
0,000000	2020-10-29T19:49:21:282
4,000000	2020-10-29T19:49:21:519
8,000000	2020-10-29T19:49:21:760
76,000000	2020-10-29T19:49:22:001
120,000000	2020-10-29T19:49:22:251
120,000000	2020-10-29T19:49:22:479
124,000000	2020-10-29T19:49:22:720
36,000000	2020-10-29T19:49:22:960
20,000000	2020-10-29T19:49:23:202
24,000000	2020-10-29T19:49:23:440
36,000000	2020-10-29T19:49:23:681
32,000000	2020-10-29T19:49:23:922
28,000000	2020-10-29T19:49:24:162
28,000000	2020-10-29T19:49:24:403
20,000000	2020-10-29T19:49:24:643
16,000000	2020-10-29T19:49:24:899
16,000000	2020-10-29T19:49:25:123
12,000000	2020-10-29T19:49:25:362
8,000000	2020-10-29T19:49:25:604
12,000000	2020-10-29T19:49:25:843
16,000000	2020-10-29T19:49:26:083
12,000000	2020-10-29T19:49:26:324
16,000000	2020-10-29T19:49:26:564
12,000000	2020-10-29T19:49:26:806
20,000000	2020-10-29T19:49:27:046
24,000000	2020-10-29T19:49:27:285
24,000000	2020-10-29T19:49:27:526
16,000000	2020-10-29T19:49:27:766
12,000000	2020-10-29T19:49:28:007
16,000000	2020-10-29T19:49:28:246
16,000000	2020-10-29T19:49:28:487
12,000000	2020-10-29T19:49:28:727
12,000000	2020-10-29T19:49:28:966
16,000000	2020-10-29T19:49:29:208
16,000000	2020-10-29T19:49:29:447
16,000000	2020-10-29T19:49:29:687
20,000000	2020-10-29T19:49:29:928
24,000000	2020-10-29T19:49:30:167
16,000000	2020-10-29T19:49:30:409
20,000000	2020-10-29T19:49:30:648
16,000000	2020-10-29T19:49:30:888
8,000000	2020-10-29T19:49:31:129
8,000000	2020-10-29T19:49:31:369
20,000000	2020-10-29T19:49:31:610
12,000000	2020-10-29T19:49:31:850
12,000000	2020-10-29T19:49:32:090
40,000000	2020-10-29T19:49:32:534
56,000000	2020-10-29T19:49:32:574
8,000000	2020-10-29T19:49:32:872
8,000000	2020-10-29T19:49:33:091
4,000000	2020-10-29T19:49:33:302
4,000000	2020-10-29T19:49:33:536
8,000000	2020-10-29T19:49:33:770
12,000000	2020-10-29T19:49:34:012
8,000000	2020-10-29T19:49:34:252
8,000000	2020-10-29T19:49:34:566
4,000000	2020-10-29T19:49:34:742
8,000000	2020-10-29T19:49:34:972
8,000000	2020-10-29T19:49:35:222
8,000000	2020-10-29T19:49:35:452
8,000000	2020-10-29T19:49:35:819
8,000000	2020-10-29T19:49:35:934
8,000000	2020-10-29T19:49:36:227
8,000000	2020-10-29T19:49:36:573
8,000000	2020-10-29T19:49:36:654
12,000000	2020-10-29T19:49:36:902
4,000000	2020-10-29T19:49:37:137
8,000000	2020-10-29T19:49:37:386
8,000000	2020-10-29T19:49:37:624
16,000000	2020-10-29T19:49:37:855
20,000000	2020-10-29T19:49:38:094
20,000000	2020-10-29T19:49:38:355
16,000000	2020-10-29T19:49:38:609
20,000000	2020-10-29T19:49:38:818
16,000000	2020-10-29T19:49:39:059
12,000000	2020-10-29T19:49:39:306
20,000000	2020-10-29T19:49:39:538
20,000000	2020-10-29T19:49:39:778
16,000000	2020-10-29T19:49:40:019
16,000000	2020-10-29T19:49:40:258
16,000000	2020-10-29T19:49:40:519
16,000000	2020-10-29T19:49:40:739
24,000000	2020-10-29T19:49:42:345
28,000000	2020-10-29T19:49:42:352
84,000000	2020-10-29T19:49:42:550
52,000000	2020-10-29T19:49:42:801
56,000000	2020-10-29T19:49:43:042
48,000000	2020-10-29T19:49:43:276
32,000000	2020-10-29T19:49:43:516
28,000000	2020-10-29T19:49:43:755
24,000000	2020-10-29T19:49:43:996
24,000000	2020-10-29T19:49:44:235
36,000000	2020-10-29T19:49:44:477
24,000000	2020-10-29T19:49:44:715
24,000000	2020-10-29T19:49:44:956
24,000000	2020-10-29T19:49:45:197
8,000000	2020-10-29T19:49:45:437
0,000000	2020-10-29T19:49:45:676
0,000000	2020-10-29T19:49:45:921
0,000000	2020-10-29T19:49:46:157
0,000000	2020-10-29T19:50:10:141
0,000000	2020-10-29T19:50:10:307
0,000000	2020-10-29T19:50:10:547
8,000000	2020-10-29T19:50:10:785
16,000000	2020-10-29T19:50:11:026
20,000000	2020-10-29T19:50:11:266
16,000000	2020-10-29T19:50:11:507
16,000000	2020-10-29T19:50:11:746
32,000000	2020-10-29T19:50:11:987
36,000000	2020-10-29T19:50:12:227
28,000000	2020-10-29T19:50:12:467
24,000000	2020-10-29T19:50:12:709
24,000000	2020-10-29T19:50:12:949
32,000000	2020-10-29T19:50:13:188
36,000000	2020-10-29T19:50:13:429
32,000000	2020-10-29T19:50:13:669
28,000000	2020-10-29T19:50:13:909
24,000000	2020-10-29T19:50:14:149
20,000000	2020-10-29T19:50:14:388
12,000000	2020-10-29T19:50:14:630
8,000000	2020-10-29T19:50:14:868
12,000000	2020-10-29T19:50:15:110
8,000000	2020-10-29T19:50:15:349
16,000000	2020-10-29T19:50:15:591
20,000000	2020-10-29T19:50:15:830
20,000000	2020-10-29T19:50:16:071
24,000000	2020-10-29T19:50:16:312
20,000000	2020-10-29T19:50:16:551
20,000000	2020-10-29T19:50:16:792
20,000000	2020-10-29T19:50:17:032
16,000000	2020-10-29T19:50:17:272
16,000000	2020-10-29T19:50:17:512
12,000000	2020-10-29T19:50:17:753
12,000000	2020-10-29T19:50:17:992
8,000000	2020-10-29T19:50:18:232
8,000000	2020-10-29T19:50:18:473
4,000000	2020-10-29T19:50:18:712
8,000000	2020-10-29T19:50:18:954
20,000000	2020-10-29T19:50:19:194
16,000000	2020-10-29T19:50:19:435
16,000000	2020-10-29T19:50:19:674
16,000000	2020-10-29T19:50:19:914
16,000000	2020-10-29T19:50:20:158
12,000000	2020-10-29T19:50:20:397
16,000000	2020-10-29T19:50:20:635
16,000000	2020-10-29T19:50:20:877
20,000000	2020-10-29T19:50:21:116
20,000000	2020-10-29T19:50:21:355
16,000000	2020-10-29T19:50:21:597
16,000000	2020-10-29T19:50:21:836
24,000000	2020-10-29T19:50:22:076
16,000000	2020-10-29T19:50:22:317
12,000000	2020-10-29T19:50:22:557
16,000000	2020-10-29T19:50:22:797
12,000000	2020-10-29T19:50:23:039
48,000000	2020-10-29T19:50:23:278
36,000000	2020-10-29T19:50:23:518
36,000000	2020-10-29T19:50:23:758
36,000000	2020-10-29T19:50:23:999
28,000000	2020-10-29T19:50:24:239
32,000000	2020-10-29T19:50:24:479
32,000000	2020-10-29T19:50:24:719
28,000000	2020-10-29T19:50:24:959
32,000000	2020-10-29T19:50:25:200
44,000000	2020-10-29T19:50:25:440
36,000000	2020-10-29T19:50:25:680
36,000000	2020-10-29T19:50:25:920
36,000000	2020-10-29T19:50:26:160
36,000000	2020-10-29T19:50:26:401
28,000000	2020-10-29T19:50:26:641
20,000000	2020-10-29T19:50:26:881
20,000000	2020-10-29T19:50:27:121
16,000000	2020-10-29T19:50:27:362
12,000000	2020-10-29T19:50:27:603
8,000000	2020-10-29T19:50:27:842
16,000000	2020-10-29T19:50:28:083
12,000000	2020-10-29T19:50:28:323
12,000000	2020-10-29T19:50:28:563
12,000000	2020-10-29T19:50:28:803
16,000000	2020-10-29T19:50:29:043
20,000000	2020-10-29T19:50:29:282
20,000000	2020-10-29T19:50:29:524
20,000000	2020-10-29T19:50:29:764
24,000000	2020-10-29T19:50:30:005
20,000000	2020-10-29T19:50:30:245
12,000000	2020-10-29T19:50:30:484
12,000000	2020-10-29T19:50:30:725
20,000000	2020-10-29T19:50:30:965
20,000000	2020-10-29T19:50:31:206
36,000000	2020-10-29T19:50:31:446
16,000000	2020-10-29T19:50:31:686
20,000000	2020-10-29T19:50:31:927
24,000000	2020-10-29T19:50:32:166
16,000000	2020-10-29T19:50:32:407
16,000000	2020-10-29T19:50:32:647
16,000000	2020-10-29T19:50:32:887
16,000000	2020-10-29T19:50:33:128
16,000000	2020-10-29T19:50:33:367
12,000000	2020-10-29T19:50:33:609
16,000000	2020-10-29T19:50:33:847
16,000000	2020-10-29T19:50:34:088
16,000000	2020-10-29T19:50:34:328
16,000000	2020-10-29T19:50:34:568
24,000000	2020-10-29T19:50:34:809
24,000000	2020-10-29T19:50:35:050
28,000000	2020-10-29T19:50:35:289
24,000000	2020-10-29T19:50:35:530
16,000000	2020-10-29T19:50:35:770
16,000000	2020-10-29T19:50:36:010
12,000000	2020-10-29T19:50:36:251
20,000000	2020-10-29T19:50:36:491
44,000000	2020-10-29T19:50:36:731
40,000000	2020-10-29T19:50:36:970
36,000000	2020-10-29T19:50:37:212
40,000000	2020-10-29T19:50:37:452
40,000000	2020-10-29T19:50:37:692
16,000000	2020-10-29T19:50:37:931
20,000000	2020-10-29T19:50:38:172
24,000000	2020-10-29T19:50:38:412
32,000000	2020-10-29T19:50:38:653
44,000000	2020-10-29T19:50:38:893
60,000000	2020-10-29T19:50:39:132
64,000000	2020-10-29T19:50:39:374
64,000000	2020-10-29T19:50:39:614
72,000000	2020-10-29T19:50:39:854
44,000000	2020-10-29T19:50:40:095
20,000000	2020-10-29T19:50:40:335
28,000000	2020-10-29T19:50:40:575
28,000000	2020-10-29T19:50:40:815
32,000000	2020-10-29T19:50:41:056
36,000000	2020-10-29T19:50:41:296
28,000000	2020-10-29T19:50:41:535
32,000000	2020-10-29T19:50:41:776
16,000000	2020-10-29T19:50:42:016
20,000000	2020-10-29T19:50:42:257
20,000000	2020-10-29T19:50:42:496
28,000000	2020-10-29T19:50:42:737
16,000000	2020-10-29T19:50:42:977
20,000000	2020-10-29T19:50:43:218
24,000000	2020-10-29T19:50:43:458
20,000000	2020-10-29T19:50:43:697
12,000000	2020-10-29T19:50:43:938
12,000000	2020-10-29T19:50:44:179
12,000000	2020-10-29T19:50:44:419
12,000000	2020-10-29T19:50:44:659
12,000000	2020-10-29T19:50:44:898
8,000000	2020-10-29T19:50:45:138
8,000000	2020-10-29T19:50:45:380
8,000000	2020-10-29T19:50:45:619
4,000000	2020-10-29T19:50:45:859
4,000000	2020-10-29T19:50:46:100
16,000000	2020-10-29T19:50:46:340
20,000000	2020-10-29T19:50:46:579
24,000000	2020-10-29T19:50:46:820
20,000000	2020-10-29T19:50:47:060
20,000000	2020-10-29T19:50:47:301
16,000000	2020-10-29T19:50:47:542
16,000000	2020-10-29T19:50:47:782
12,000000	2020-10-29T19:50:48:022
16,000000	2020-10-29T19:50:48:263
20,000000	2020-10-29T19:50:48:525
16,000000	2020-10-29T19:50:48:743
16,000000	2020-10-29T19:50:48:983
16,000000	2020-10-29T19:50:49:223
20,000000	2020-10-29T19:50:49:464
48,000000	2020-10-29T19:50:49:704
20,000000	2020-10-29T19:50:50:108
48,000000	2020-10-29T19:50:50:190
44,000000	2020-10-29T19:50:50:458
32,000000	2020-10-29T19:50:50:669
28,000000	2020-10-29T19:50:50:909
28,000000	2020-10-29T19:50:51:143
20,000000	2020-10-29T19:50:51:388
28,000000	2020-10-29T19:50:51:628
56,000000	2020-10-29T19:50:51:871
68,000000	2020-10-29T19:50:52:110
80,000000	2020-10-29T19:50:52:348
100,000000	2020-10-29T19:50:52:590
128,000000	2020-10-29T19:50:52:837
132,000000	2020-10-29T19:50:53:070
124,000000	2020-10-29T19:50:53:309
48,000000	2020-10-29T19:50:53:546
44,000000	2020-10-29T19:50:53:791
44,000000	2020-10-29T19:50:54:030
52,000000	2020-10-29T19:50:54:266
72,000000	2020-10-29T19:50:54:516
96,000000	2020-10-29T19:50:54:839
104,000000	2020-10-29T19:50:54:989
120,000000	2020-10-29T19:50:55:227
40,000000	2020-10-29T19:50:55:470
32,000000	2020-10-29T19:50:55:849
28,000000	2020-10-29T19:50:56:016
20,000000	2020-10-29T19:50:56:200
16,000000	2020-10-29T19:50:56:431
12,000000	2020-10-29T19:50:56:744
16,000000	2020-10-29T19:50:57:016
56,000000	2020-10-29T19:50:57:156
36,000000	2020-10-29T19:50:57:389
20,000000	2020-10-29T19:50:57:660
20,000000	2020-10-29T19:50:57:873
24,000000	2020-10-29T19:50:58:152
24,000000	2020-10-29T19:50:58:363
24,000000	2020-10-29T19:50:58:629
28,000000	2020-10-29T19:50:58:838
28,000000	2020-10-29T19:50:59:252
28,000000	2020-10-29T19:50:59:677
32,000000	2020-10-29T19:50:59:684
32,000000	2020-10-29T19:51:00:177
32,000000	2020-10-29T19:51:00:233
32,000000	2020-10-29T19:51:00:288
20,000000	2020-10-29T19:51:00:528
8,000000	2020-10-29T19:51:00:766
8,000000	2020-10-29T19:51:00:993
36,000000	2020-10-29T19:51:01:235
20,000000	2020-10-29T19:51:01:473
0,000000	2020-10-29T19:51:01:714
32,000000	2020-10-29T19:51:01:955
36,000000	2020-10-29T19:51:02:241
32,000000	2020-10-29T19:51:02:437
32,000000	2020-10-29T19:51:02:675
28,000000	2020-10-29T19:51:02:920
8,000000	2020-10-29T19:51:03:157
24,000000	2020-10-29T19:51:03:396
28,000000	2020-10-29T19:51:03:636
20,000000	2020-10-29T19:51:03:877
12,000000	2020-10-29T19:51:04:118
24,000000	2020-10-29T19:51:04:359
20,000000	2020-10-29T19:51:04:607
4,000000	2020-10-29T19:51:04:850
