x	y	z	ts
0,668154	7,649421	6,100026	2020-10-29T19:48:34:581
0,657505	7,641789	6,110739	2020-10-29T19:48:34:582
0,699933	7,717669	6,009831	2020-10-29T19:48:34:582
0,702660	7,710649	6,018517	2020-10-29T19:48:34:582
0,702620	7,698377	6,034211	2020-10-29T19:48:34:589
0,711588	7,686070	6,048830	2020-10-29T19:48:34:606
0,718807	7,677689	6,058614	2020-10-29T19:48:34:627
0,716667	7,663515	6,076785	2020-10-29T19:48:34:646
0,714537	7,650145	6,093858	2020-10-29T19:48:34:668
0,715144	7,640837	6,105453	2020-10-29T19:48:34:686
0,705635	7,627844	6,122782	2020-10-29T19:48:34:708
0,700062	7,612063	6,143028	2020-10-29T19:48:34:727
0,692376	7,594038	6,166164	2020-10-29T19:48:34:748
0,674248	7,567195	6,201076	2020-10-29T19:48:34:768
0,650933	7,514810	6,266921	2020-10-29T19:48:34:788
0,618999	7,426704	6,374268	2020-10-29T19:48:34:807
0,582112	7,276603	6,548480	2020-10-29T19:48:34:828
0,504390	7,026450	6,822388	2020-10-29T19:48:34:847
0,279601	6,411721	7,414988	2020-10-29T19:48:34:868
0,141842	5,329196	8,231035	2020-10-29T19:48:34:887
-0,006886	3,583435	9,128490	2020-10-29T19:48:34:908
-0,110751	1,541106	9,684168	2020-10-29T19:48:34:927
-0,167016	7,216981	6,637596	2020-10-29T19:48:34:948
-0,303159	6,521156	7,317992	2020-10-29T19:48:34:967
-0,414572	6,164972	7,615224	2020-10-29T19:48:34:988
-0,516540	5,922527	7,799182	2020-10-29T19:48:35:008
-0,611305	5,757171	7,915281	2020-10-29T19:48:35:028
-0,688001	5,682112	7,963080	2020-10-29T19:48:35:047
-0,756535	5,618208	8,002110	2020-10-29T19:48:35:069
-0,944366	-3,150851	9,238544	2020-10-29T19:48:35:087
-1,151170	-3,463744	9,102069	2020-10-29T19:48:35:108
-1,406383	-3,883744	8,894324	2020-10-29T19:48:35:127
-3,849404	-8,779208	2,068326	2020-10-29T19:48:35:148
-4,428565	-8,418523	2,384674	2020-10-29T19:48:35:167
-4,835422	-8,164953	2,474393	2020-10-29T19:48:35:188
-5,054060	-7,857960	2,979819	2020-10-29T19:48:35:207
-5,122394	-7,540574	3,615412	2020-10-29T19:48:35:228
-5,197992	-7,151840	4,242929	2020-10-29T19:48:35:248
-5,442879	-6,663690	4,705389	2020-10-29T19:48:35:268
-5,949355	-6,131819	4,814183	2020-10-29T19:48:35:288
-6,737304	-5,681347	4,301328	2020-10-29T19:48:35:308
-7,538403	-5,109522	3,638084	2020-10-29T19:48:35:328
-8,187428	-4,607890	2,811361	2020-10-29T19:48:35:348
-8,669657	-4,166783	1,909281	2020-10-29T19:48:35:368
-8,935245	-3,840760	1,257119	2020-10-29T19:48:35:392
-9,129842	-3,511717	0,695860	2020-10-29T19:48:35:486
-9,276399	-3,167609	0,291647	2020-10-29T19:48:35:487
-9,421795	-2,720181	0,028071	2020-10-29T19:48:35:488
-9,693795	-1,457726	-0,275227	2020-10-29T19:48:35:489
9,632502	-1,801510	-0,373970	2020-10-29T19:48:35:489
8,771716	-4,364932	-0,418024	2020-10-29T19:48:35:511
8,706041	-4,468827	-0,636248	2020-10-29T19:48:35:527
8,871567	-4,080462	-0,903064	2020-10-29T19:48:35:548
9,087427	-3,481468	-1,211784	2020-10-29T19:48:35:568
9,162322	-3,198324	-1,411726	2020-10-29T19:48:35:588
9,144339	-3,246591	-1,418136	2020-10-29T19:48:35:608
8,998324	-3,689026	-1,261596	2020-10-29T19:48:35:629
8,891655	-3,980953	-1,122889	2020-10-29T19:48:35:647
8,936409	-3,898021	-1,056607	2020-10-29T19:48:35:669
9,163806	-3,318507	-1,087454	2020-10-29T19:48:35:688
9,427386	-2,399989	-1,238885	2020-10-29T19:48:35:709
9,567821	-1,447731	-1,590997	2020-10-29T19:48:35:728
9,563473	-0,771475	-2,028597	2020-10-29T19:48:35:759
9,473482	-0,339084	-2,511680	2020-10-29T19:48:35:773
-9,467502	-0,285226	-2,540756	2020-10-29T19:48:35:790
-9,495362	-0,637645	-2,366832	2020-10-29T19:48:35:808
-9,528249	-0,969290	-2,107923	2020-10-29T19:48:35:829
-9,559355	-1,406635	-1,676455	2020-10-29T19:48:35:848
-9,552933	-1,878984	-1,175276	2020-10-29T19:48:35:870
-9,483419	-2,417387	-0,625603	2020-10-29T19:48:35:888
-9,318649	-3,054768	-0,039454	2020-10-29T19:48:35:910
-9,035014	-3,778391	0,512513	2020-10-29T19:48:35:932
-8,609305	-4,589709	0,992379	2020-10-29T19:48:35:949
-8,000607	-5,500442	1,380516	2020-10-29T19:48:35:979
-7,286909	-6,359268	1,622053	2020-10-29T19:48:35:992
-6,235627	-7,366157	1,739848	2020-10-29T19:48:36:028
-5,270334	-8,098232	1,677081	2020-10-29T19:48:36:084
-4,021760	-8,840156	1,359219	2020-10-29T19:48:36:085
-2,686882	-9,380217	0,981113	2020-10-29T19:48:36:085
-1,360794	-9,692391	0,613334	2020-10-29T19:48:36:097
-0,722546	-9,772838	0,374094	2020-10-29T19:48:36:110
-0,305022	-9,800445	0,169188	2020-10-29T19:48:36:130
-0,103351	9,806104	0,005921	2020-10-29T19:48:36:150
-1,112569	9,742592	0,120325	2020-10-29T19:48:36:169
-2,165097	9,562901	0,183499	2020-10-29T19:48:36:191
-3,257605	9,247591	0,201109	2020-10-29T19:48:36:213
-4,677156	8,617699	0,172802	2020-10-29T19:48:36:232
-5,941829	7,801110	0,087962	2020-10-29T19:48:36:250
-6,444191	7,391568	-0,086654	2020-10-29T19:48:36:272
-6,004945	7,745864	-0,335564	2020-10-29T19:48:36:291
2,895178	9,351767	-0,576875	2020-10-29T19:48:36:311
2,793734	9,366494	-0,796384	2020-10-29T19:48:36:334
2,899160	9,301609	-1,115939	2020-10-29T19:48:36:353
2,721534	9,384084	-0,838217	2020-10-29T19:48:54:138
1,544517	9,667583	-0,568063	2020-10-29T19:48:54:140
-1,253787	9,711877	-0,527108	2020-10-29T19:48:54:141
-3,245146	9,233820	-0,613172	2020-10-29T19:48:54:154
-4,103067	8,878505	-0,712300	2020-10-29T19:48:54:178
-4,445818	8,704446	-0,798566	2020-10-29T19:48:54:192
-4,695040	8,563118	-0,894419	2020-10-29T19:48:54:208
-4,889242	8,442556	-0,994450	2020-10-29T19:48:54:231
-4,974762	8,379286	-1,099862	2020-10-29T19:48:54:248
-5,046315	8,320265	-1,215848	2020-10-29T19:48:54:272
-4,827625	8,436618	-1,299191	2020-10-29T19:48:54:290
-4,807255	8,429164	-1,417701	2020-10-29T19:48:54:313
-4,672925	8,486251	-1,522403	2020-10-29T19:48:54:329
-4,475307	8,577120	-1,604691	2020-10-29T19:48:54:352
-4,270833	8,664868	-1,688322	2020-10-29T19:48:54:371
-4,000086	8,773806	-1,786067	2020-10-29T19:48:54:392
-3,664018	8,906581	-1,848832	2020-10-29T19:48:54:408
-3,257620	9,058224	-1,872665	2020-10-29T19:48:54:431
-2,785112	9,222513	-1,832701	2020-10-29T19:48:54:449
-2,215077	9,405138	-1,675470	2020-10-29T19:48:54:472
-1,956111	9,456515	-1,708314	2020-10-29T19:48:54:489
-1,640929	9,516137	-1,709054	2020-10-29T19:48:54:511
-1,259607	9,576973	-1,692740	2020-10-29T19:48:54:530
-0,833643	9,636633	-1,615777	2020-10-29T19:48:54:552
-0,112309	-8,975675	-3,949056	2020-10-29T19:48:54:569
0,982674	8,085629	-5,461442	2020-10-29T19:48:54:591
1,968368	8,635463	-4,210070	2020-10-29T19:48:54:610
2,912084	8,580042	-3,751404	2020-10-29T19:48:54:632
3,779019	8,359169	-3,466077	2020-10-29T19:48:54:649
4,568371	8,064219	-3,204489	2020-10-29T19:48:54:672
5,262191	7,723837	-2,970196	2020-10-29T19:48:54:690
5,878268	7,351449	-2,751827	2020-10-29T19:48:54:712
6,430093	6,956849	-2,535061	2020-10-29T19:48:54:730
6,887231	6,581983	-2,326786	2020-10-29T19:48:54:752
7,290193	6,210523	-2,110184	2020-10-29T19:48:54:770
7,621017	5,868278	-1,911493	2020-10-29T19:48:54:792
7,782081	5,714555	-1,718564	2020-10-29T19:48:54:810
8,048461	5,387278	-1,539450	2020-10-29T19:48:54:832
8,243361	5,130267	-1,377582	2020-10-29T19:48:54:852
8,333365	5,024361	-1,217048	2020-10-29T19:48:54:873
8,410250	4,925582	-1,084770	2020-10-29T19:48:54:890
8,470689	4,851844	-0,936715	2020-10-29T19:48:54:912
8,506967	4,820506	-0,751417	2020-10-29T19:48:54:930
8,522513	4,819088	-0,559952	2020-10-29T19:48:54:952
8,603546	4,688813	-0,405485	2020-10-29T19:48:54:971
8,686704	4,544220	-0,248254	2020-10-29T19:48:54:992
8,751681	4,423778	-0,093014	2020-10-29T19:48:55:010
8,803324	4,320653	0,061885	2020-10-29T19:48:55:033
8,848982	4,221968	0,202212	2020-10-29T19:48:55:050
8,880698	4,144795	0,352499	2020-10-29T19:48:55:072
8,890457	4,108026	0,504265	2020-10-29T19:48:55:092
8,891686	4,080250	0,678127	2020-10-29T19:48:55:113
4,687592	8,460463	1,617854	2020-10-29T19:48:55:130
5,708992	7,820968	1,552502	2020-10-29T19:48:55:152
6,943453	6,771743	1,449948	2020-10-29T19:48:55:170
8,071441	5,405194	1,343912	2020-10-29T19:48:55:192
8,878835	3,971610	1,250196	2020-10-29T19:48:55:210
9,419449	2,474637	1,149150	2020-10-29T19:48:55:232
9,691004	1,076319	1,047076	2020-10-29T19:48:55:250
9,759172	-0,097504	0,958868	2020-10-29T19:48:55:273
9,710793	-1,038991	0,889587	2020-10-29T19:48:55:290
9,592372	-1,862157	0,830148	2020-10-29T19:48:55:312
9,404094	-2,667974	0,784427	2020-10-29T19:48:55:332
9,183758	-3,352784	0,766690	2020-10-29T19:48:55:353
8,959668	-3,909823	0,779747	2020-10-29T19:48:55:371
8,723523	-4,403489	0,824509	2020-10-29T19:48:55:392
8,529536	-4,758495	0,879837	2020-10-29T19:48:55:410
8,445598	-4,899452	0,915223	2020-10-29T19:48:55:433
8,366969	-5,028019	0,939806	2020-10-29T19:48:55:450
8,296885	-5,138196	0,964891	2020-10-29T19:48:55:473
8,235098	-5,235054	0,973525	2020-10-29T19:48:55:491
8,165936	-5,343164	0,968755	2020-10-29T19:48:55:513
8,092766	-5,452716	0,972325	2020-10-29T19:48:55:531
8,021742	-5,552793	0,994249	2020-10-29T19:48:55:552
7,956818	-5,638189	1,034535	2020-10-29T19:48:55:572
7,894663	-5,718115	1,071373	2020-10-29T19:48:55:593
7,829883	-5,802110	1,094916	2020-10-29T19:48:55:610
7,701628	-5,974508	1,077294	2020-10-29T19:48:55:633
7,590189	-6,119479	1,054231	2020-10-29T19:48:55:651
7,489572	-6,246869	1,026313	2020-10-29T19:48:55:673
7,398366	-6,360709	0,987899	2020-10-29T19:48:55:691
7,294889	-6,489597	0,916571	2020-10-29T19:48:55:712
7,177650	-6,632160	0,816195	2020-10-29T19:48:55:731
7,034071	-6,796400	0,707936	2020-10-29T19:48:55:753
6,898267	-6,940763	0,640397	2020-10-29T19:48:55:771
6,781592	-7,057226	0,613154	2020-10-29T19:48:55:792
6,741010	-7,095043	0,624137	2020-10-29T19:48:55:813
6,684304	-7,150056	0,605944	2020-10-29T19:48:55:834
6,615163	-7,218353	0,552608	2020-10-29T19:48:55:851
6,521226	-7,308957	0,472377	2020-10-29T19:48:55:873
6,434231	-7,389866	0,401166	2020-10-29T19:48:55:891
6,303384	-7,505239	0,330332	2020-10-29T19:48:55:913
6,149077	-7,635195	0,251066	2020-10-29T19:48:55:931
5,988373	-7,763905	0,177641	2020-10-29T19:48:55:953
5,809053	-7,900285	0,103870	2020-10-29T19:48:55:971
5,642052	-8,020938	0,046819	2020-10-29T19:48:55:993
5,486855	-8,128021	0,008517	2020-10-29T19:48:56:013
5,354065	-8,216095	-0,011903	2020-10-29T19:48:56:034
5,203739	-8,312068	-0,031756	2020-10-29T19:48:56:061
5,071022	-8,393575	-0,055004	2020-10-29T19:48:56:075
4,960763	-8,458495	-0,122770	2020-10-29T19:48:56:092
4,859019	-8,516190	-0,186617	2020-10-29T19:48:56:122
4,739590	-8,581068	-0,268222	2020-10-29T19:48:56:149
4,617449	-8,645178	-0,332352	2020-10-29T19:48:56:157
4,496210	-8,707084	-0,375737	2020-10-29T19:48:56:189
4,368845	-8,769741	-0,418594	2020-10-29T19:48:56:193
4,229975	-8,835368	-0,462569	2020-10-29T19:48:56:211
4,119463	-8,886731	-0,475826	2020-10-29T19:48:56:241
4,020426	-8,931684	-0,481222	2020-10-29T19:48:56:270
3,890921	-8,990013	-0,459119	2020-10-29T19:48:56:282
3,819612	-9,023241	-0,402569	2020-10-29T19:48:56:292
3,785481	-9,040746	-0,324719	2020-10-29T19:48:56:324
3,800012	-9,037764	-0,221628	2020-10-29T19:48:56:375
3,867968	-9,011001	-0,105228	2020-10-29T19:48:56:375
3,989120	-8,958629	0,016413	2020-10-29T19:48:56:376
4,088519	-8,913177	0,098406	2020-10-29T19:48:56:392
4,161251	-8,878939	0,137203	2020-10-29T19:48:56:410
4,190493	-8,864909	0,153422	2020-10-29T19:48:56:433
4,264999	-8,828938	0,173251	2020-10-29T19:48:56:451
4,456587	-8,732972	0,210730	2020-10-29T19:48:56:474
4,860117	-8,513257	0,272205	2020-10-29T19:48:56:492
5,298532	-8,245949	0,316641	2020-10-29T19:48:56:514
5,756629	-7,931541	0,349654	2020-10-29T19:48:56:534
6,277466	-7,524490	0,381907	2020-10-29T19:48:56:554
6,717396	-7,132559	0,416610	2020-10-29T19:48:56:572
7,033011	-6,820230	0,437714	2020-10-29T19:48:56:598
7,227801	-6,611648	0,464096	2020-10-29T19:48:56:613
7,316999	-6,509521	0,507983	2020-10-29T19:48:56:638
7,334022	-6,486388	0,556132	2020-10-29T19:48:56:655
7,315355	-6,502318	0,613036	2020-10-29T19:48:56:673
7,264711	-6,553422	0,668591	2020-10-29T19:48:56:691
7,234907	-6,580542	0,723171	2020-10-29T19:48:56:715
7,221159	-6,589796	0,774492	2020-10-29T19:48:56:732
7,206246	-6,599840	0,826144	2020-10-29T19:48:56:754
7,199000	-6,605937	0,840466	2020-10-29T19:48:56:774
7,168121	-6,638026	0,851487	2020-10-29T19:48:56:796
7,143276	-6,664069	0,856838	2020-10-29T19:48:56:812
7,079704	-6,732190	0,851936	2020-10-29T19:48:56:834
6,963676	-6,853932	0,837387	2020-10-29T19:48:56:852
6,796977	-7,023399	0,802100	2020-10-29T19:48:56:874
6,583683	-7,228979	0,753236	2020-10-29T19:48:56:892
6,378284	-7,416167	0,698815	2020-10-29T19:48:56:914
6,245329	-7,530868	0,672522	2020-10-29T19:48:56:935
6,375628	-7,376331	1,054274	2020-10-29T19:49:07:426
6,357746	-7,343630	1,349279	2020-10-29T19:49:07:428
6,258087	-7,357066	1,697148	2020-10-29T19:49:07:428
6,123291	-7,390967	2,012287	2020-10-29T19:49:07:429
5,955945	-7,432515	2,335556	2020-10-29T19:49:07:430
5,767567	-7,471981	2,659899	2020-10-29T19:49:07:431
5,558746	-7,507973	2,983464	2020-10-29T19:49:07:431
5,343245	-7,542246	3,276376	2020-10-29T19:49:07:432
5,068347	-7,581951	3,605034	2020-10-29T19:49:07:442
4,795259	-7,620547	3,886275	2020-10-29T19:49:07:444
4,497494	-7,657845	4,159368	2020-10-29T19:49:07:444
4,190323	-7,690173	4,412801	2020-10-29T19:49:07:445
3,866537	-7,719439	4,650864	2020-10-29T19:49:07:448
3,544815	-7,744233	4,861228	2020-10-29T19:49:07:504
3,222855	-7,768754	5,042823	2020-10-29T19:49:07:622
2,898630	-7,798421	5,191623	2020-10-29T19:49:07:639
2,566981	-7,841169	5,300665	2020-10-29T19:49:07:640
2,235646	-7,897158	5,367231	2020-10-29T19:49:07:640
1,906265	-7,971319	5,384664	2020-10-29T19:49:07:643
1,585528	-8,065070	5,348938	2020-10-29T19:49:07:644
2,277593	-1,686894	9,388149	2020-10-29T19:49:07:655
2,106677	-1,522251	9,455954	2020-10-29T19:49:07:664
1,939095	-1,539062	9,489024	2020-10-29T19:49:07:664
1,762700	-1,728867	9,490747	2020-10-29T19:49:07:665
1,638994	-2,128700	9,431475	2020-10-29T19:49:07:666
1,418027	-2,521817	9,370167	2020-10-29T19:49:07:667
1,230799	-2,896680	9,287883	2020-10-29T19:49:07:667
1,073844	-3,241769	9,192833	2020-10-29T19:49:07:669
0,915528	-3,527888	9,104186	2020-10-29T19:49:07:670
0,788607	-3,646530	9,069250	2020-10-29T19:49:07:670
0,661234	-3,625950	9,087665	2020-10-29T19:49:07:680
0,543299	-3,563135	9,120267	2020-10-29T19:49:07:708
0,343152	-3,576501	9,124762	2020-10-29T19:49:07:722
0,091292	-3,666334	9,095056	2020-10-29T19:49:07:733
-0,179674	-3,781902	9,046288	2020-10-29T19:49:07:760
-0,395528	-3,871336	9,001483	2020-10-29T19:49:07:784
-0,629574	-3,965124	8,947168	2020-10-29T19:49:07:837
-0,838178	-4,047142	8,893170	2020-10-29T19:49:07:838
-1,045654	-4,121779	8,836738	2020-10-29T19:49:07:838
-1,235140	-4,200750	8,774879	2020-10-29T19:49:07:853
-1,406577	-4,284987	8,708089	2020-10-29T19:49:07:876
-1,549876	-4,353477	8,649596	2020-10-29T19:49:07:897
-1,646538	-4,401283	8,607439	2020-10-29T19:49:07:915
-1,713107	-4,435745	8,576702	2020-10-29T19:49:07:936
-1,761005	-4,463704	8,552462	2020-10-29T19:49:07:955
-1,787159	-4,488297	8,534145	2020-10-29T19:49:07:974
-1,804207	-4,518879	8,514397	2020-10-29T19:49:07:996
-1,816006	-4,541988	8,499579	2020-10-29T19:49:08:034
-1,837475	-4,577140	8,476076	2020-10-29T19:49:08:035
-1,866534	-4,621850	8,445410	2020-10-29T19:49:08:053
-1,910954	-4,668996	8,409466	2020-10-29T19:49:08:075
-1,954409	-4,709198	8,377000	2020-10-29T19:49:08:093
-2,008174	-4,730070	8,352489	2020-10-29T19:49:08:118
-2,049861	-4,722377	8,346713	2020-10-29T19:49:08:138
-2,085764	-4,699681	8,350627	2020-10-29T19:49:08:157
-2,142912	-4,703942	8,333741	2020-10-29T19:49:08:178
-2,234662	-4,753989	8,281078	2020-10-29T19:49:08:198
-2,351675	-4,857673	8,187981	2020-10-29T19:49:08:215
-2,494743	-5,017482	8,048075	2020-10-29T19:49:08:237
-2,692513	-5,184576	7,876606	2020-10-29T19:49:08:273
-2,822987	-5,379429	7,698238	2020-10-29T19:49:08:309
-2,944190	-5,586026	7,503229	2020-10-29T19:49:08:394
-3,028262	-5,720347	7,367336	2020-10-29T19:49:08:395
-3,085538	-5,833751	7,253771	2020-10-29T19:49:08:396
-3,104869	-5,956773	7,144721	2020-10-29T19:49:08:397
-3,092788	-6,161873	6,973978	2020-10-29T19:49:08:397
-3,052465	-6,395679	6,778505	2020-10-29T19:49:08:406
-3,007296	-6,648619	6,551520	2020-10-29T19:49:08:437
-2,918992	-6,963283	6,258000	2020-10-29T19:49:08:439
-2,741614	-7,378293	5,849336	2020-10-29T19:49:08:463
-2,537508	-7,725154	5,482101	2020-10-29T19:49:08:478
-2,311676	-7,938322	5,273479	2020-10-29T19:49:08:495
-2,150628	-7,983709	5,273099	2020-10-29T19:49:08:516
-2,074785	-7,938830	5,370347	2020-10-29T19:49:08:535
-2,047124	-7,870209	5,480828	2020-10-29T19:49:08:697
-2,034369	-7,764384	5,634365	2020-10-29T19:49:08:697
-2,013085	-7,676012	5,761659	2020-10-29T19:49:08:698
-1,973895	-7,628905	5,837288	2020-10-29T19:49:08:699
-2,016659	-7,602458	5,857141	2020-10-29T19:49:08:699
-2,035855	-7,491355	5,992101	2020-10-29T19:49:08:700
-2,063176	-7,342564	6,164450	2020-10-29T19:49:08:700
-2,094247	-7,132238	6,396538	2020-10-29T19:49:08:700
-2,113152	-6,951368	6,586612	2020-10-29T19:49:08:715
-2,170457	-6,823439	6,700760	2020-10-29T19:49:08:734
-2,211533	-6,810415	6,700579	2020-10-29T19:49:08:755
-2,289075	-6,904275	6,577348	2020-10-29T19:49:08:778
-2,407973	-7,128058	6,289899	2020-10-29T19:49:08:798
-2,474014	-7,350586	6,001543	2020-10-29T19:49:08:816
-2,535000	-7,648889	5,589155	2020-10-29T19:49:08:838
-2,589859	-7,919346	5,171748	2020-10-29T19:49:08:876
-2,672295	-8,117525	4,809886	2020-10-29T19:49:08:878
-2,759896	-8,308738	4,417945	2020-10-29T19:49:08:906
-2,818810	-8,499192	3,998553	2020-10-29T19:49:08:918
-2,845031	-8,684438	3,557629	2020-10-29T19:49:08:988
-2,832232	-8,822398	3,211562	2020-10-29T19:49:08:989
-2,808397	-8,923845	2,940795	2020-10-29T19:49:08:990
-2,790914	-9,001987	2,710243	2020-10-29T19:49:09:080
-2,721330	-9,099929	2,440499	2020-10-29T19:49:09:081
-2,614016	-9,202775	2,155514	2020-10-29T19:49:09:083
-2,496153	-9,290652	1,903521	2020-10-29T19:49:09:083
-2,394721	-9,346244	1,755968	2020-10-29T19:49:09:084
-2,304256	-9,380251	1,694602	2020-10-29T19:49:09:095
-2,239134	-9,388929	1,733399	2020-10-29T19:49:09:117
-2,179785	-9,387335	1,815729	2020-10-29T19:49:09:147
-2,109353	-9,390053	1,883593	2020-10-29T19:49:09:185
-2,025310	-9,377952	2,030399	2020-10-29T19:49:09:186
-1,938992	-9,333247	2,302430	2020-10-29T19:49:09:198
-1,846499	-9,275739	2,592585	2020-10-29T19:49:09:236
-1,756150	-9,190579	2,935910	2020-10-29T19:49:09:238
-1,644592	-9,087306	3,299479	2020-10-29T19:49:09:258
-1,478614	-8,931141	3,770782	2020-10-29T19:49:09:278
-1,304301	-8,682799	4,367858	2020-10-29T19:49:09:300
-1,165507	-8,406186	4,914063	2020-10-29T19:49:09:317
-1,034682	-8,152831	5,350809	2020-10-29T19:49:09:336
-0,912531	-7,978987	5,627916	2020-10-29T19:49:09:358
-0,776682	-7,805626	5,885520	2020-10-29T19:49:09:377
-0,671196	-7,666061	6,078765	2020-10-29T19:49:09:399
-0,584914	-7,520811	6,266232	2020-10-29T19:49:09:416
-0,517074	-7,355953	6,464748	2020-10-29T19:49:09:440
-0,461708	-7,186144	6,657068	2020-10-29T19:49:09:457
-0,418167	-7,032645	6,821835	2020-10-29T19:49:09:478
-0,365472	-6,893718	6,965161	2020-10-29T19:49:09:496
-0,335747	-6,765150	7,091573	2020-10-29T19:49:09:518
-0,267731	-6,559875	7,284693	2020-10-29T19:49:09:537
-0,245730	-6,425810	7,403983	2020-10-29T19:49:09:558
-0,264091	-6,370943	7,450619	2020-10-29T19:49:09:577
-0,280027	-6,341611	7,475021	2020-10-29T19:49:09:598
-0,310027	-6,326784	7,486393	2020-10-29T19:49:09:618
-0,358795	-6,318984	7,490801	2020-10-29T19:49:09:639
-0,394228	-6,304477	7,501235	2020-10-29T19:49:09:656
-0,405209	-6,280781	7,520504	2020-10-29T19:49:09:678
-0,399102	-6,239830	7,554841	2020-10-29T19:49:09:697
-0,386604	-6,225395	7,567389	2020-10-29T19:49:09:718
-0,368279	-6,275498	7,526810	2020-10-29T19:49:09:738
-0,351536	-6,375748	7,442892	2020-10-29T19:49:09:774
-0,330295	-6,485475	7,348463	2020-10-29T19:49:09:814
-0,293688	-6,518504	7,320741	2020-10-29T19:49:09:815
-0,281813	-6,534245	7,307162	2020-10-29T19:49:09:817
-0,270793	-6,556868	7,287286	2020-10-29T19:49:09:843
-0,242639	-6,590832	7,257578	2020-10-29T19:49:09:860
-0,157938	-6,619750	7,233557	2020-10-29T19:49:09:879
-0,079511	-6,634525	7,221297	2020-10-29T19:49:09:897
-0,030235	-6,645021	7,212015	2020-10-29T19:49:09:920
0,021219	-6,653169	7,204532	2020-10-29T19:49:09:938
0,099062	-6,638904	7,217031	2020-10-29T19:49:09:958
0,193307	-6,616296	7,235858	2020-10-29T19:49:09:977
0,300745	-6,604659	7,242818	2020-10-29T19:49:09:999
0,408193	-6,570837	7,268279	2020-10-29T19:49:10:017
0,519815	-6,458368	7,361363	2020-10-29T19:49:10:039
0,624716	-6,309685	7,481175	2020-10-29T19:49:10:057
0,727091	-6,157640	7,597709	2020-10-29T19:49:10:080
0,828062	-5,972535	7,733921	2020-10-29T19:49:10:098
0,859668	-5,832671	7,836536	2020-10-29T19:49:10:119
0,790598	-5,780507	7,882327	2020-10-29T19:49:10:137
0,665019	-5,742320	7,921736	2020-10-29T19:49:10:159
0,496481	-5,708943	7,958131	2020-10-29T19:49:10:177
0,321480	-5,710901	7,965716	2020-10-29T19:49:10:198
0,146099	-5,774005	7,925270	2020-10-29T19:49:10:217
-0,098369	-5,976138	7,774734	2020-10-29T19:49:10:240
-0,388307	-6,249160	7,547688	2020-10-29T19:49:10:257
-0,659798	-6,486087	7,325690	2020-10-29T19:49:10:279
-0,876594	-6,636056	7,166919	2020-10-29T19:49:10:298
-1,048875	-6,718305	7,066443	2020-10-29T19:49:10:319
-1,230065	-6,817791	6,940825	2020-10-29T19:49:10:340
-1,414365	-6,903242	6,820206	2020-10-29T19:49:10:359
-1,593509	-6,984477	6,696880	2020-10-29T19:49:10:377
-1,756240	-7,086563	6,547261	2020-10-29T19:49:10:399
-1,899397	-7,184821	6,398518	2020-10-29T19:49:10:418
-2,015867	-7,260429	6,276371	2020-10-29T19:49:10:439
-2,096682	-7,328539	6,169832	2020-10-29T19:49:10:457
-2,144270	-7,412947	6,051505	2020-10-29T19:49:10:479
-2,170171	-7,518461	5,910456	2020-10-29T19:49:10:497
-2,173539	-7,619839	5,777903	2020-10-29T19:49:10:519
-2,159788	-7,687549	5,692739	2020-10-29T19:49:10:538
-2,119632	-7,702469	5,687663	2020-10-29T19:49:10:559
-2,073989	-7,729224	5,668161	2020-10-29T19:49:10:578
-2,021440	-7,780976	5,616100	2020-10-29T19:49:10:599
-1,968284	-7,853979	5,532745	2020-10-29T19:49:10:617
-1,914050	-7,927616	5,446072	2020-10-29T19:49:10:640
-1,865200	-7,982813	5,382017	2020-10-29T19:49:10:657
-1,832457	-8,025977	5,328807	2020-10-29T19:49:10:679
-1,805719	-8,066469	5,276536	2020-10-29T19:49:10:697
-1,778310	-8,103667	5,228631	2020-10-29T19:49:10:719
-1,713680	-8,145632	5,184821	2020-10-29T19:49:10:738
-1,642645	-8,206832	5,110774	2020-10-29T19:49:10:760
-1,561317	-8,288790	5,002862	2020-10-29T19:49:10:820
-1,487684	-8,387687	4,858384	2020-10-29T19:49:10:822
-1,411647	-8,498459	4,685493	2020-10-29T19:49:10:823
-1,331000	-8,632012	4,459505	2020-10-29T19:49:10:840
-1,258275	-8,744200	4,257476	2020-10-29T19:49:10:859
-1,206156	-8,858497	4,030211	2020-10-29T19:49:10:880
-1,189440	-8,965686	3,791055	2020-10-29T19:49:10:899
-1,175235	-9,019180	3,666552	2020-10-29T19:49:10:919
-1,143329	-9,059258	3,576734	2020-10-29T19:49:10:939
-1,063713	-9,117226	3,451825	2020-10-29T19:49:10:959
-0,939355	-9,194849	3,277613	2020-10-29T19:49:10:978
-0,809780	-9,282685	3,057186	2020-10-29T19:49:11:006
-0,697359	-9,336905	2,916552	2020-10-29T19:49:11:019
-1,559355	-6,466931	7,205387	2020-10-29T19:49:11:040
-1,583547	-6,124588	7,493475	2020-10-29T19:49:11:059
-1,627724	-5,872823	7,683154	2020-10-29T19:49:11:080
-1,685791	-5,739173	7,771125	2020-10-29T19:49:11:097
-1,750475	-5,532331	7,905665	2020-10-29T19:49:11:119
-1,778633	-5,326713	8,039464	2020-10-29T19:49:11:138
-1,785660	-5,187091	8,128708	2020-10-29T19:49:11:160
-1,807273	-5,057714	8,205101	2020-10-29T19:49:11:178
-1,867113	-4,889846	8,292990	2020-10-29T19:49:11:200
-1,946244	-4,670449	8,400561	2020-10-29T19:49:11:219
-2,507621	-3,972076	8,608417	2020-10-29T19:49:18:127
-2,703677	-4,197542	8,440448	2020-10-29T19:49:18:128
-2,867013	-4,563635	8,192915	2020-10-29T19:49:18:130
-2,986473	-4,786956	8,020999	2020-10-29T19:49:18:130
-3,071680	-5,043322	7,829436	2020-10-29T19:49:18:145
-3,128047	-5,700848	7,340711	2020-10-29T19:49:18:157
-3,040580	-6,250844	6,917529	2020-10-29T19:49:18:176
-2,878269	-6,870154	6,378632	2020-10-29T19:49:18:195
-2,659922	-7,473860	5,765121	2020-10-29T19:49:18:218
-2,471697	-7,921411	5,226122	2020-10-29T19:49:18:235
-2,358805	-8,226409	4,788801	2020-10-29T19:49:18:258
-2,339543	-8,406672	4,474905	2020-10-29T19:49:18:276
-2,359249	-8,557878	4,167377	2020-10-29T19:49:18:298
-2,366516	-8,712231	3,829755	2020-10-29T19:49:18:315
-2,362257	-8,879354	3,427417	2020-10-29T19:49:18:337
-0,838653	-9,714263	1,048878	2020-10-29T19:49:18:356
-1,233606	-9,663381	1,125910	2020-10-29T19:49:18:377
-1,742960	-9,569638	1,246794	2020-10-29T19:49:18:396
-2,284050	-9,430560	1,420577	2020-10-29T19:49:18:418
-2,878517	-9,227512	1,654551	2020-10-29T19:49:18:435
-3,516899	-8,945624	1,943606	2020-10-29T19:49:18:458
-4,128054	-8,605578	2,252460	2020-10-29T19:49:18:475
-4,693354	-8,220280	2,563164	2020-10-29T19:49:18:498
-5,138868	-7,864605	2,812544	2020-10-29T19:49:18:515
-5,580713	-7,530778	2,883299	2020-10-29T19:49:18:538
-5,944836	-7,241660	2,896147	2020-10-29T19:49:18:555
-6,226936	-7,014881	2,861310	2020-10-29T19:49:18:577
-6,422034	-6,871573	2,776571	2020-10-29T19:49:18:596
-6,523298	-6,826494	2,648764	2020-10-29T19:49:18:618
-6,544926	-6,870441	2,476161	2020-10-29T19:49:18:636
-6,447163	-6,993451	2,386655	2020-10-29T19:49:18:657
-6,293921	-7,173211	2,258758	2020-10-29T19:49:18:675
-6,089673	-7,398973	2,083621	2020-10-29T19:49:18:700
-5,887376	-7,640170	1,771155	2020-10-29T19:49:18:715
-5,576536	-7,943325	1,405780	2020-10-29T19:49:18:737
-5,097933	-8,316833	1,005859	2020-10-29T19:49:18:756
-4,408269	-8,741146	0,574381	2020-10-29T19:49:18:778
-3,507721	-9,157331	0,097769	2020-10-29T19:49:18:796
-2,669785	-9,429387	-0,359583	2020-10-29T19:49:18:817
-2,057124	-9,555059	-0,799662	2020-10-29T19:49:18:835
-1,715053	-9,579997	-1,205249	2020-10-29T19:49:18:858
-1,576030	-9,554258	-1,550052	2020-10-29T19:49:18:877
-1,552909	-9,489819	-1,924112	2020-10-29T19:49:18:898
-1,631318	-9,413568	-2,212224	2020-10-29T19:49:18:915
-1,801568	-9,319316	-2,464769	2020-10-29T19:49:18:939
-2,060825	-9,203713	-2,686083	2020-10-29T19:49:18:956
-2,407895	-9,061584	-2,874043	2020-10-29T19:49:18:977
-2,850787	-8,892274	-2,995140	2020-10-29T19:49:18:996
-3,361581	-8,698314	-3,034714	2020-10-29T19:49:19:018
-3,963279	-8,455170	-2,995482	2020-10-29T19:49:19:036
-4,624479	-8,151438	-2,887672	2020-10-29T19:49:19:058
-5,312257	-7,770372	-2,751657	2020-10-29T19:49:19:075
-6,013986	-7,296996	-2,599272	2020-10-29T19:49:19:099
-6,560558	-6,859351	-2,465515	2020-10-29T19:49:19:116
-7,074614	-6,388712	-2,303167	2020-10-29T19:49:19:137
-7,488852	-5,960125	-2,136443	2020-10-29T19:49:19:156
-7,904142	-5,469920	-1,942911	2020-10-29T19:49:19:178
-8,189156	-5,090366	-1,787818	2020-10-29T19:49:19:197
-8,415908	-4,756585	-1,648571	2020-10-29T19:49:19:217
-8,561608	-4,521975	-1,555951	2020-10-29T19:49:19:236
-8,657910	-4,356211	-1,494790	2020-10-29T19:49:19:259
-8,714573	-4,254736	-1,457333	2020-10-29T19:49:19:276
-8,747890	-4,193820	-1,434108	2020-10-29T19:49:19:299
-8,766288	-4,159274	-1,422329	2020-10-29T19:49:19:316
-8,779208	-4,133726	-1,417109	2020-10-29T19:49:19:338
-8,790418	-4,111810	-1,411368	2020-10-29T19:49:19:356
-8,784562	-4,121250	-1,420267	2020-10-29T19:49:19:378
-8,780914	-4,124951	-1,432027	2020-10-29T19:49:19:396
-8,777642	-4,128262	-1,442509	2020-10-29T19:49:19:420
-8,773040	-4,133221	-1,456244	2020-10-29T19:49:19:436
-9,668565	-1,536276	-0,573675	2020-10-29T19:49:19:458
-9,646131	-1,645551	-0,643978	2020-10-29T19:49:19:476
-9,616581	-1,781733	-0,719155	2020-10-29T19:49:19:500
-9,582432	-1,924883	-0,801386	2020-10-29T19:49:19:516
-9,540146	-2,084258	-0,901035	2020-10-29T19:49:19:538
-9,491147	-2,252453	-1,007458	2020-10-29T19:49:19:556
-9,432893	-2,432089	-1,129537	2020-10-29T19:49:19:579
-9,366647	-2,615464	-1,263193	2020-10-29T19:49:19:598
-9,296745	-2,786291	-1,406234	2020-10-29T19:49:19:618
-9,222969	-2,949491	-1,551688	2020-10-29T19:49:19:636
-9,150319	-3,090075	-1,701025	2020-10-29T19:49:19:659
-9,080440	-3,214105	-1,839981	2020-10-29T19:49:19:676
-9,016801	-3,315022	-1,969344	2020-10-29T19:49:19:699
-8,967503	-3,384535	-2,073451	2020-10-29T19:49:19:716
-8,930018	-3,429322	-2,159840	2020-10-29T19:49:19:739
-8,909432	-3,448715	-2,213313	2020-10-29T19:49:19:757
-8,903674	-3,438817	-2,251557	2020-10-29T19:49:19:779
-8,913563	-3,403689	-2,265762	2020-10-29T19:49:19:797
-8,937290	-3,349468	-2,253065	2020-10-29T19:49:19:819
-8,973143	-3,275553	-2,218975	2020-10-29T19:49:19:837
-9,015632	-3,195473	-2,162804	2020-10-29T19:49:19:858
-9,057064	-3,116452	-2,104211	2020-10-29T19:49:19:877
-9,105216	-3,026946	-2,025592	2020-10-29T19:49:19:900
-9,143819	-2,956528	-1,954456	2020-10-29T19:49:19:916
-9,178142	-2,899994	-1,876737	2020-10-29T19:49:19:939
-9,203507	-2,868944	-1,798607	2020-10-29T19:49:19:956
-9,212730	-2,884166	-1,725563	2020-10-29T19:49:19:979
-9,205185	-2,951337	-1,650628	2020-10-29T19:49:19:997
-9,177872	-3,071991	-1,581113	2020-10-29T19:49:20:019
-9,126582	-3,256593	-1,506811	2020-10-29T19:49:20:036
-9,041789	-3,523048	-1,415828	2020-10-29T19:49:20:060
-8,935234	-3,818540	-1,323150	2020-10-29T19:49:20:079
-8,784826	-4,188785	-1,204697	2020-10-29T19:49:20:099
-8,637137	-4,514470	-1,090780	2020-10-29T19:49:20:116
-8,492318	-4,806315	-0,974807	2020-10-29T19:49:20:140
-8,365095	-5,043950	-0,868411	2020-10-29T19:49:20:156
-8,262726	-5,224927	-0,773226	2020-10-29T19:49:20:179
-8,192738	-5,344114	-0,699914	2020-10-29T19:49:20:197
-8,150986	-5,413527	-0,652333	2020-10-29T19:49:20:220
-8,128170	-5,451142	-0,623122	2020-10-29T19:49:20:236
-8,112370	-5,476488	-0,606558	2020-10-29T19:49:20:259
-8,114868	-5,472954	-0,605043	2020-10-29T19:49:20:277
-8,124043	-5,458758	-0,610144	2020-10-29T19:49:20:301
-8,126975	-5,453962	-0,613964	2020-10-29T19:49:20:318
-8,131925	-5,445714	-0,621600	2020-10-29T19:49:20:339
-8,119913	-5,463656	-0,621177	2020-10-29T19:49:20:357
-8,082577	-5,520806	-0,602523	2020-10-29T19:49:20:380
-8,025396	-5,607691	-0,563196	2020-10-29T19:49:20:397
-7,979828	-5,676124	-0,523781	2020-10-29T19:49:20:419
-7,954394	-5,714327	-0,494437	2020-10-29T19:49:20:438
-7,941125	-5,734909	-0,468763	2020-10-29T19:49:20:460
-7,927676	-5,755186	-0,447404	2020-10-29T19:49:20:477
-7,917355	-5,770447	-0,433385	2020-10-29T19:49:20:500
-7,903758	-5,789142	-0,432246	2020-10-29T19:49:20:517
-7,889454	-5,806642	-0,458047	2020-10-29T19:49:20:540
-7,871583	-5,827619	-0,497422	2020-10-29T19:49:20:558
-7,874043	-5,817902	-0,567320	2020-10-29T19:49:20:579
-7,919449	-5,746448	-0,656542	2020-10-29T19:49:20:597
-8,022813	-5,587929	-0,761516	2020-10-29T19:49:20:620
-8,179134	-5,338440	-0,879317	2020-10-29T19:49:20:637
-8,244166	-5,227650	-0,935832	2020-10-29T19:49:20:659
-8,315788	-5,101958	-0,994020	2020-10-29T19:49:20:677
-8,463156	-4,834100	-1,084828	2020-10-29T19:49:20:701
-8,479740	-4,797269	-1,118300	2020-10-29T19:49:20:717
-8,445017	-4,848660	-1,158693	2020-10-29T19:49:20:739
-8,446166	-4,829159	-1,229586	2020-10-29T19:49:20:757
-8,394812	-4,905025	-1,279944	2020-10-29T19:49:20:780
-8,224668	-5,182101	-1,292693	2020-10-29T19:49:20:800
-7,950270	-5,604811	-1,244865	2020-10-29T19:49:20:819
-7,626209	-6,060200	-1,133709	2020-10-29T19:49:20:837
-7,253530	-6,531776	-0,944773	2020-10-29T19:49:20:861
-6,882710	-6,953431	-0,669688	2020-10-29T19:49:20:877
-6,594904	-7,252541	-0,279778	2020-10-29T19:49:20:900
-6,484333	-7,356591	0,066167	2020-10-29T19:49:20:917
-6,496966	-7,330214	0,477270	2020-10-29T19:49:20:941
-6,585208	-7,214250	0,871785	2020-10-29T19:49:20:957
-6,719920	-7,030264	1,260337	2020-10-29T19:49:20:980
-6,869351	-6,815310	1,591839	2020-10-29T19:49:20:998
-7,009746	-6,617390	1,801110	2020-10-29T19:49:21:021
-7,140450	-6,450236	1,891774	2020-10-29T19:49:21:039
-7,292020	-6,275392	1,901652	2020-10-29T19:49:21:060
-7,470569	-6,076520	1,853887	2020-10-29T19:49:21:078
-7,671925	-5,850001	1,757678	2020-10-29T19:49:21:102
-7,881435	-5,600100	1,640809	2020-10-29T19:49:21:118
-8,114283	-5,298901	1,500151	2020-10-29T19:49:21:140
-8,349627	-4,963980	1,346481	2020-10-29T19:49:21:158
-8,592361	-4,578469	1,174449	2020-10-29T19:49:21:181
-8,827080	-4,154757	0,995509	2020-10-29T19:49:21:200
-9,016459	-3,764266	0,839145	2020-10-29T19:49:21:221
-9,190697	-3,354788	0,668484	2020-10-29T19:49:21:238
-9,338867	-2,949580	0,505889	2020-10-29T19:49:21:261
-9,439902	-2,627126	0,396018	2020-10-29T19:49:21:281
-9,533337	-2,276305	0,322990	2020-10-29T19:49:21:300
-9,587243	-2,039748	0,307549	2020-10-29T19:49:21:317
-9,617431	-1,890839	0,316447	2020-10-29T19:49:21:340
-9,665611	-1,640073	0,237715	2020-10-29T19:49:21:357
-9,693244	-1,475239	0,187276	2020-10-29T19:49:21:380
-9,703616	-1,399696	0,225991	2020-10-29T19:49:21:398
-9,695428	-1,426147	0,367654	2020-10-29T19:49:21:421
-9,657144	-1,573545	0,658724	2020-10-29T19:49:21:438
-9,556439	-1,874055	1,154458	2020-10-29T19:49:21:460
-9,376861	-2,249338	1,784752	2020-10-29T19:49:21:478
-9,082323	-2,693059	2,535592	2020-10-29T19:49:21:501
-8,713460	-3,158357	3,204805	2020-10-29T19:49:21:519
-8,160954	-3,809096	3,880724	2020-10-29T19:49:21:540
-7,629430	-4,450350	4,261052	2020-10-29T19:49:21:558
-7,100548	-5,129600	4,409060	2020-10-29T19:49:21:582
-6,540878	-5,814709	4,424530	2020-10-29T19:49:21:598
-5,949859	-6,414424	4,429981	2020-10-29T19:49:21:620
-5,294109	-6,919244	4,501873	2020-10-29T19:49:21:638
-4,550125	-7,285645	4,731398	2020-10-29T19:49:21:661
-3,804407	-7,535150	4,991833	2020-10-29T19:49:21:678
-3,027680	-7,655608	5,328715	2020-10-29T19:49:21:701
-2,275236	-7,593490	5,773439	2020-10-29T19:49:21:718
-1,407145	-7,324771	6,366950	2020-10-29T19:49:21:741
-0,411015	-6,823621	7,031333	2020-10-29T19:49:21:760
0,725831	-6,107079	7,638530	2020-10-29T19:49:21:780
2,093574	-5,496341	-7,847137	2020-10-29T19:49:21:799
0,821484	-6,237988	-7,522171	2020-10-29T19:49:21:821
-0,396030	-6,981597	-6,875379	2020-10-29T19:49:21:838
-1,568841	-7,587918	-6,011042	2020-10-29T19:49:21:860
-2,723482	-7,979977	-5,007295	2020-10-29T19:49:21:878
-3,883186	-8,241697	-3,628453	2020-10-29T19:49:21:902
-5,104656	-8,037512	-2,347609	2020-10-29T19:49:21:918
-6,812360	-6,981875	-1,007746	2020-10-29T19:49:21:941
-9,724499	-1,245137	-0,232683	2020-10-29T19:49:21:958
-9,586959	-2,063871	-0,032224	2020-10-29T19:49:21:981
-7,123968	-6,734160	0,265609	2020-10-29T19:49:22:000
-9,720873	1,286405	0,142019	2020-10-29T19:49:22:022
-9,781904	-0,621282	0,314222	2020-10-29T19:49:22:038
-9,772047	-0,649826	0,505186	2020-10-29T19:49:22:062
-9,769165	-0,387479	0,763982	2020-10-29T19:49:22:079
-9,748069	-0,034504	1,069745	2020-10-29T19:49:22:101
-9,705797	0,309105	1,368333	2020-10-29T19:49:22:118
-9,642743	0,586849	1,686268	2020-10-29T19:49:22:142
-9,557939	0,794030	2,045902	2020-10-29T19:49:22:158
-9,458148	0,886127	2,434872	2020-10-29T19:49:22:181
-9,368980	0,816659	2,779507	2020-10-29T19:49:22:199
-9,319141	0,537558	3,005830	2020-10-29T19:49:22:222
-9,350986	0,038731	2,954312	2020-10-29T19:49:22:239
-9,588613	-0,573767	1,974761	2020-10-29T19:49:22:261
-6,427564	-0,975167	7,342061	2020-10-29T19:49:22:278
-7,288332	-2,052829	6,231893	2020-10-29T19:49:22:302
-7,376391	-2,986933	5,730399	2020-10-29T19:49:22:318
-7,256419	-3,864215	5,346271	2020-10-29T19:49:22:341
-7,117501	-4,504604	5,021963	2020-10-29T19:49:22:359
-7,013363	-4,800609	4,892573	2020-10-29T19:49:22:382
-6,998229	-4,737171	4,975378	2020-10-29T19:49:22:399
-7,086240	-4,396878	5,159753	2020-10-29T19:49:22:421
-7,169942	-3,966302	5,388021	2020-10-29T19:49:22:439
-7,191420	-3,598240	5,613068	2020-10-29T19:49:22:462
-7,190780	-3,352439	5,764046	2020-10-29T19:49:22:480
-7,217605	-3,167940	5,834443	2020-10-29T19:49:22:503
-7,283392	-3,092260	5,793144	2020-10-29T19:49:22:519
-7,406697	-3,117662	5,620624	2020-10-29T19:49:22:542
-7,570802	-3,233987	5,328664	2020-10-29T19:49:22:559
-7,826143	-3,414251	4,823357	2020-10-29T19:49:22:581
-8,079088	-3,506188	4,313393	2020-10-29T19:49:22:601
-8,333452	-3,535164	3,771813	2020-10-29T19:49:22:622
-1,591909	-7,055221	6,622693	2020-10-29T19:49:22:640
-2,432603	-7,291978	6,089325	2020-10-29T19:49:22:661
-3,307859	-7,430053	5,479303	2020-10-29T19:49:22:679
-4,466450	-7,439627	4,568716	2020-10-29T19:49:22:703
-5,420424	-7,251394	3,769175	2020-10-29T19:49:22:722
-6,666727	-6,618138	2,815206	2020-10-29T19:49:22:741
-7,755946	-5,735547	1,766124	2020-10-29T19:49:22:759
-8,553397	-4,757162	0,615785	2020-10-29T19:49:22:782
-8,913155	-4,067688	-0,424233	2020-10-29T19:49:22:800
-8,935254	-3,882734	-1,120710	2020-10-29T19:49:22:821
-8,826673	-3,971920	-1,576097	2020-10-29T19:49:22:839
-8,701967	-4,083353	-1,942263	2020-10-29T19:49:22:862
-8,625641	-4,093348	-2,239020	2020-10-29T19:49:22:879
-8,595119	-4,019138	-2,478073	2020-10-29T19:49:22:902
-8,582314	-3,936955	-2,648519	2020-10-29T19:49:22:919
-8,567327	-3,917604	-2,724641	2020-10-29T19:49:22:944
-8,548258	-3,986227	-2,684708	2020-10-29T19:49:22:962
-8,484793	-4,256315	-2,462204	2020-10-29T19:49:22:981
-8,432064	-4,508071	-2,178985	2020-10-29T19:49:23:000
-8,400993	-4,698400	-1,875830	2020-10-29T19:49:23:022
-8,396898	-4,814289	-1,576424	2020-10-29T19:49:23:040
-8,474226	-4,732894	-1,399139	2020-10-29T19:49:23:061
-8,561188	-4,605999	-1,288887	2020-10-29T19:49:23:080
-8,621666	-4,531038	-1,143221	2020-10-29T19:49:23:103
-8,669159	-4,468804	-1,022670	2020-10-29T19:49:23:119
-8,663110	-4,485535	-1,000445	2020-10-29T19:49:23:142
-8,595921	-4,606533	-1,029749	2020-10-29T19:49:23:160
-8,475492	-4,805603	-1,114713	2020-10-29T19:49:23:182
-8,358021	-4,989956	-1,189202	2020-10-29T19:49:23:201
-8,266029	-5,128667	-1,240930	2020-10-29T19:49:23:222
-8,180789	-5,260116	-1,255490	2020-10-29T19:49:23:239
-8,047465	-5,474761	-1,198199	2020-10-29T19:49:23:263
-7,822420	-5,818010	-1,063429	2020-10-29T19:49:23:279
-7,462639	-6,305940	-0,845297	2020-10-29T19:49:23:302
-7,044673	-6,797892	-0,575876	2020-10-29T19:49:23:320
-6,478778	-7,359810	-0,170316	2020-10-29T19:49:23:342
-5,992630	-7,759317	0,227522	2020-10-29T19:49:23:359
-5,586083	-8,036715	0,614223	2020-10-29T19:49:23:382
-5,257091	-8,226791	0,923731	2020-10-29T19:49:23:400
-5,004877	-8,354894	1,147753	2020-10-29T19:49:23:423
-4,830334	-8,437764	1,281558	2020-10-29T19:49:23:442
-8,973394	-3,905110	0,631416	2020-10-29T19:49:23:461
-8,691731	-4,472690	0,786915	2020-10-29T19:49:23:480
-8,236431	-5,248992	0,882986	2020-10-29T19:49:23:504
-7,514469	-6,237175	0,894872	2020-10-29T19:49:23:520
-6,725041	-7,086204	0,854355	2020-10-29T19:49:23:542
-5,944174	-7,763714	0,749615	2020-10-29T19:49:23:560
-5,359143	-8,186792	0,652997	2020-10-29T19:49:23:583
-5,056028	-8,380116	0,616954	2020-10-29T19:49:23:600
-5,074256	-8,363551	0,687990	2020-10-29T19:49:23:622
-5,263608	-8,233009	0,826055	2020-10-29T19:49:23:640
-5,551290	-8,021690	1,003021	2020-10-29T19:49:23:663
-5,877070	-7,762327	1,173331	2020-10-29T19:49:23:682
-6,304819	-7,391695	1,335095	2020-10-29T19:49:23:703
-6,700643	-7,021027	1,406039	2020-10-29T19:49:23:720
-7,127224	-6,590190	1,393720	2020-10-29T19:49:23:743
-7,187024	-6,591263	1,035532	2020-10-29T19:49:23:760
-7,096352	-6,735975	0,662433	2020-10-29T19:49:23:782
-7,007089	-6,855153	0,279233	2020-10-29T19:49:23:801
-7,596562	-6,201781	0,023271	2020-10-29T19:49:23:823
-8,784938	-4,358353	-0,000913	2020-10-29T19:49:23:840
-9,568469	-2,142413	0,157667	2020-10-29T19:49:23:862
-9,754193	-0,962460	0,315856	2020-10-29T19:49:23:880
-9,714062	-1,298237	0,349253	2020-10-29T19:49:23:904
-9,739970	-1,079209	0,372395	2020-10-29T19:49:23:921
-9,795949	-0,354521	0,289976	2020-10-29T19:49:23:943
-9,724596	-1,255335	0,163571	2020-10-29T19:49:23:960
-9,799839	0,354498	0,088747	2020-10-29T19:49:23:983
-9,687790	1,520472	-0,072588	2020-10-29T19:49:24:001
-9,678178	1,574577	-0,154786	2020-10-29T19:49:24:022
-9,694599	1,468933	-0,165411	2020-10-29T19:49:24:040
-9,740500	1,134803	-0,072567	2020-10-29T19:49:24:063
-9,771912	0,824422	0,021297	2020-10-29T19:49:24:080
-9,788996	0,581948	0,085371	2020-10-29T19:49:24:103
-9,802084	0,266366	0,136335	2020-10-29T19:49:24:120
-9,802164	-0,237900	0,177117	2020-10-29T19:49:24:143
-9,747314	-1,058698	0,198480	2020-10-29T19:49:24:161
-9,530523	-2,302795	0,191448	2020-10-29T19:49:24:183
-9,196759	-3,400197	0,169321	2020-10-29T19:49:24:201
-9,114820	-3,614027	0,170993	2020-10-29T19:49:24:223
-9,309609	-3,076652	0,189109	2020-10-29T19:49:24:240
-9,529850	-2,304215	0,207201	2020-10-29T19:49:24:262
-9,610547	-1,939039	0,218844	2020-10-29T19:49:24:281
-9,616241	-1,908681	0,235013	2020-10-29T19:49:24:304
-9,614644	-1,911763	0,272323	2020-10-29T19:49:24:320
-9,606608	-1,945853	0,311640	2020-10-29T19:49:24:343
-9,583619	-2,047130	0,365895	2020-10-29T19:49:24:361
-9,543752	-2,212697	0,437228	2020-10-29T19:49:24:383
-9,486117	-2,439142	0,484298	2020-10-29T19:49:24:402
-9,438156	-2,617502	0,490182	2020-10-29T19:49:24:423
-9,340952	-2,941967	0,511696	2020-10-29T19:49:24:441
-9,283953	-3,107123	0,569560	2020-10-29T19:49:24:464
-9,266352	-3,142499	0,655594	2020-10-29T19:49:24:481
-9,231024	-3,217904	0,776963	2020-10-29T19:49:24:503
-9,212802	-3,225524	0,943749	2020-10-29T19:49:24:521
-9,120459	-3,425818	1,118652	2020-10-29T19:49:24:544
-9,021251	-3,619224	1,299479	2020-10-29T19:49:24:561
-8,941250	-3,756196	1,454454	2020-10-29T19:49:24:583
-8,917395	-3,758693	1,588297	2020-10-29T19:49:24:601
-8,844117	-3,884168	1,692696	2020-10-29T19:49:24:624
-8,761330	-4,019810	1,802947	2020-10-29T19:49:24:642
-8,678048	-4,153443	1,900204	2020-10-29T19:49:24:663
-8,598320	-4,273660	1,993765	2020-10-29T19:49:24:681
-8,567385	-4,290897	2,087703	2020-10-29T19:49:24:705
-8,556243	-4,257644	2,198534	2020-10-29T19:49:24:721
-8,554976	-4,188347	2,332493	2020-10-29T19:49:24:743
-8,472167	-4,294086	2,439999	2020-10-29T19:49:24:762
-8,386772	-4,414921	2,518116	2020-10-29T19:49:24:784
-8,301030	-4,548974	2,563225	2020-10-29T19:49:24:801
-8,223950	-4,684516	2,567554	2020-10-29T19:49:24:848
-8,150254	-4,831441	2,530002	2020-10-29T19:49:24:850
-8,086511	-4,970675	2,463964	2020-10-29T19:49:24:868
-8,034499	-5,100254	2,367409	2020-10-29T19:49:24:898
-8,005741	-5,204065	2,235217	2020-10-29T19:49:24:904
-7,971962	-5,323796	2,067704	2020-10-29T19:49:24:920
-7,946150	-5,443122	1,844316	2020-10-29T19:49:24:944
-7,926713	-5,575046	1,502151	2020-10-29T19:49:24:960
-8,029473	-5,484468	1,272224	2020-10-29T19:49:24:983
-8,263929	-5,162774	1,106170	2020-10-29T19:49:25:002
-8,588834	-4,619541	1,030609	2020-10-29T19:49:25:025
-8,973296	-3,822121	1,020652	2020-10-29T19:49:25:042
-9,360157	-2,717898	1,082070	2020-10-29T19:49:25:064
-9,603109	-1,596704	1,183729	2020-10-29T19:49:25:082
-9,696052	-0,751482	1,261840	2020-10-29T19:49:25:105
-9,713052	-0,516327	1,249166	2020-10-29T19:49:25:124
-9,715837	-0,607374	1,184908	2020-10-29T19:49:25:144
-9,698248	-0,937602	1,111426	2020-10-29T19:49:25:161
-9,723750	-0,654905	1,090951	2020-10-29T19:49:25:185
-9,748960	-0,228012	1,037391	2020-10-29T19:49:25:203
-9,758605	0,109809	0,963306	2020-10-29T19:49:25:225
-9,762164	0,245609	0,900122	2020-10-29T19:49:25:242
-9,765484	0,152140	0,884626	2020-10-29T19:49:25:265
-9,766727	0,012497	0,883889	2020-10-29T19:49:25:282
-9,761697	-0,217733	0,912281	2020-10-29T19:49:25:304
-9,754378	-0,361539	0,944339	2020-10-29T19:49:25:322
-9,751648	-0,352866	0,975307	2020-10-29T19:49:25:344
-9,749742	-0,280100	1,017088	2020-10-29T19:49:25:364
-9,742264	-0,238295	1,096312	2020-10-29T19:49:25:384
-9,727478	-0,291015	1,209077	2020-10-29T19:49:25:402
-9,702528	-0,431956	1,358215	2020-10-29T19:49:25:425
-9,659683	-0,671562	1,552389	2020-10-29T19:49:25:442
-9,591311	-1,005419	1,779404	2020-10-29T19:49:25:464
-9,495047	-1,411118	2,005798	2020-10-29T19:49:25:482
-9,362370	-1,898741	2,216118	2020-10-29T19:49:25:505
-9,200515	-2,428936	2,370904	2020-10-29T19:49:25:522
-8,983885	-3,057605	2,472095	2020-10-29T19:49:25:544
-8,720510	-3,723317	2,502002	2020-10-29T19:49:25:562
-8,414503	-4,395636	2,458637	2020-10-29T19:49:25:584
-8,082966	-5,030591	2,351425	2020-10-29T19:49:25:604
-7,774329	-5,552718	2,213033	2020-10-29T19:49:25:624
-7,481324	-5,997400	2,057032	2020-10-29T19:49:25:642
-7,206011	-6,372849	1,905409	2020-10-29T19:49:25:665
-6,960852	-6,678010	1,766668	2020-10-29T19:49:25:682
-6,703122	-6,997092	1,509719	2020-10-29T19:49:25:705
-6,538500	-7,182494	1,352839	2020-10-29T19:49:25:722
-6,468245	-7,263077	1,256943	2020-10-29T19:49:25:745
-6,494646	-7,238206	1,264250	2020-10-29T19:49:25:762
-6,631707	-7,117540	1,237529	2020-10-29T19:49:25:784
-7,103092	-6,611968	1,413634	2020-10-29T19:49:25:802
-7,462464	-6,162439	1,583152	2020-10-29T19:49:25:825
-7,788266	-5,725131	1,654138	2020-10-29T19:49:25:845
-8,189877	-5,136696	1,646410	2020-10-29T19:49:25:864
-8,463373	-4,708750	1,539277	2020-10-29T19:49:25:882
-8,756832	-4,179505	1,421271	2020-10-29T19:49:25:906
-8,969546	-3,761169	1,253488	2020-10-29T19:49:25:922
-9,155497	-3,338951	1,094840	2020-10-29T19:49:25:944
-9,315282	-2,908621	0,967385	2020-10-29T19:49:25:963
-9,476842	-2,376673	0,843374	2020-10-29T19:49:25:985
-9,597235	-1,872147	0,747352	2020-10-29T19:49:26:003
-9,694642	-1,329898	0,644726	2020-10-29T19:49:26:024
-9,754735	-0,854160	0,534738	2020-10-29T19:49:26:043
-9,777103	-0,634198	0,420025	2020-10-29T19:49:26:066
-9,784398	-0,580278	0,314984	2020-10-29T19:49:26:084
-9,771506	-0,801783	0,212594	2020-10-29T19:49:26:105
-9,118738	-3,606863	0,097628	2020-10-29T19:49:26:122
-9,594615	2,024178	0,128231	2020-10-29T19:49:26:146
-9,760891	0,944906	0,050492	2020-10-29T19:49:26:163
-9,767453	0,875870	0,009853	2020-10-29T19:49:26:185
-9,768156	0,867678	-0,025298	2020-10-29T19:49:26:204
-9,767112	0,877012	-0,069029	2020-10-29T19:49:26:226
-9,765891	0,884314	-0,125446	2020-10-29T19:49:26:242
-9,764497	0,886626	-0,197193	2020-10-29T19:49:26:265
-9,763112	0,880755	-0,276227	2020-10-29T19:49:26:283
-9,761754	0,863648	-0,364207	2020-10-29T19:49:26:306
-9,760807	0,834780	-0,447413	2020-10-29T19:49:26:324
-9,759634	0,795016	-0,536550	2020-10-29T19:49:26:345
-9,758286	0,714438	-0,660152	2020-10-29T19:49:26:362
-9,756483	0,617032	-0,775048	2020-10-29T19:49:26:386
-9,755989	0,485481	-0,869120	2020-10-29T19:49:26:403
-9,751456	0,316408	-0,989636	2020-10-29T19:49:26:425
-9,740276	0,113509	-1,133362	2020-10-29T19:49:26:443
-9,721260	-0,135016	-1,284235	2020-10-29T19:49:26:466
-9,691024	-0,430960	-1,438302	2020-10-29T19:49:26:483
-9,671016	-0,509312	-1,543517	2020-10-29T19:49:26:505
-9,658058	-0,548000	-1,609969	2020-10-29T19:49:26:523
-9,677910	-0,362150	-1,541850	2020-10-29T19:49:26:546
-9,672832	-0,313055	-1,583884	2020-10-29T19:49:26:565
-9,667329	-0,259324	-1,626619	2020-10-29T19:49:26:585
-9,674331	-0,166930	-1,596823	2020-10-29T19:49:26:604
-9,688322	-0,156537	-1,510725	2020-10-29T19:49:26:627
-9,711744	-0,119452	-1,355778	2020-10-29T19:49:26:644
-9,723856	-0,075655	-1,269363	2020-10-29T19:49:26:665
-9,738102	-0,074409	-1,155086	2020-10-29T19:49:26:684
-9,745833	-0,139389	-1,081523	2020-10-29T19:49:26:707
-9,752547	-0,175333	-1,013643	2020-10-29T19:49:26:724
-9,758720	-0,228493	-0,941040	2020-10-29T19:49:26:745
-9,762847	-0,291505	-0,878768	2020-10-29T19:49:26:764
-9,761432	-0,414431	-0,844446	2020-10-29T19:49:26:786
-9,759158	-0,557093	-0,786682	2020-10-29T19:49:26:805
-9,758028	-0,671854	-0,707029	2020-10-29T19:49:26:825
-9,758368	-0,760868	-0,604756	2020-10-29T19:49:26:844
-9,765367	-0,757305	-0,484244	2020-10-29T19:49:26:866
-9,771707	-0,737951	-0,373594	2020-10-29T19:49:26:884
-9,779146	-0,693137	-0,241356	2020-10-29T19:49:26:906
-9,785508	-0,632925	-0,116736	2020-10-29T19:49:26:924
-9,376422	-2,848291	-0,374603	2020-10-29T19:49:26:947
-8,984165	-3,907964	-0,427746	2020-10-29T19:49:26:964
-8,427924	-4,988634	-0,503996	2020-10-29T19:49:26:985
-7,884677	-5,798121	-0,619716	2020-10-29T19:49:27:004
-7,457638	-6,319091	-0,789376	2020-10-29T19:49:27:026
-6,948149	-6,842831	-1,034059	2020-10-29T19:49:27:045
-6,441006	-7,281567	-1,289421	2020-10-29T19:49:27:065
-6,024877	-7,595796	-1,474832	2020-10-29T19:49:27:083
-5,588307	-7,917393	-1,502028	2020-10-29T19:49:27:107
-5,162716	-8,208428	-1,462341	2020-10-29T19:49:27:124
-4,824927	-8,435356	-1,317279	2020-10-29T19:49:27:145
-4,690549	-8,549090	-1,040282	2020-10-29T19:49:27:164
-4,641465	-8,606707	-0,742819	2020-10-29T19:49:27:187
-4,738786	-8,554127	-0,735668	2020-10-29T19:49:27:204
-4,884091	-8,472465	-0,730325	2020-10-29T19:49:27:226
-5,104638	-8,340786	-0,737795	2020-10-29T19:49:27:244
-5,349013	-8,183856	-0,763511	2020-10-29T19:49:27:266
-5,418754	-8,137995	-0,761928	2020-10-29T19:49:27:284
-5,490478	-8,093873	-0,717112	2020-10-29T19:49:27:306
-5,592088	-8,028639	-0,663237	2020-10-29T19:49:27:324
-5,772090	-7,905115	-0,602102	2020-10-29T19:49:27:347
-6,061532	-7,690323	-0,535846	2020-10-29T19:49:27:364
-6,487405	-7,338902	-0,473782	2020-10-29T19:49:27:386
-7,121675	-6,728532	-0,423082	2020-10-29T19:49:27:404
-7,931328	-5,753564	-0,401145	2020-10-29T19:49:27:427
-9,602836	-1,978481	-0,203828	2020-10-29T19:49:27:444
-9,624065	-1,861808	-0,285356	2020-10-29T19:49:27:466
-9,652398	-1,692386	-0,370703	2020-10-29T19:49:27:484
-9,684013	-1,478103	-0,453291	2020-10-29T19:49:27:507
-9,711293	-1,256747	-0,530806	2020-10-29T19:49:27:525
-9,731459	-1,047080	-0,610506	2020-10-29T19:49:27:546
-9,741011	-0,897434	-0,691160	2020-10-29T19:49:27:564
-9,737820	-0,872072	-0,764686	2020-10-29T19:49:27:587
-9,701536	-1,138725	-0,868261	2020-10-29T19:49:27:605
-9,614651	-1,704836	-0,906864	2020-10-29T19:49:27:626
-9,629652	-1,668129	-0,810888	2020-10-29T19:49:27:644
-9,754983	0,425711	-0,910748	2020-10-29T19:49:27:667
-9,303023	2,825138	-1,281691	2020-10-29T19:49:27:684
-8,917406	3,774254	-1,550889	2020-10-29T19:49:27:707
-8,784899	4,043249	-1,627292	2020-10-29T19:49:27:732
-8,855067	3,929264	-1,522844	2020-10-29T19:49:27:747
-9,071843	3,500849	-1,271263	2020-10-29T19:49:27:766
-9,274153	3,032545	-0,981910	2020-10-29T19:49:27:786
-9,428531	2,604694	-0,699113	2020-10-29T19:49:27:805
-9,523932	2,286154	-0,488465	2020-10-29T19:49:27:827
-9,790350	0,562039	-0,059523	2020-10-29T19:49:27:844
-9,804945	0,002250	0,182862	2020-10-29T19:49:27:866
-9,779634	-0,563206	0,460360	2020-10-29T19:49:27:884
-9,712661	-1,116393	0,766985	2020-10-29T19:49:27:908
-9,610246	-1,634834	1,068122	2020-10-29T19:49:27:924
-9,465530	-2,205863	1,307014	2020-10-29T19:49:27:946
-9,277893	-2,807391	1,486485	2020-10-29T19:49:27:964
-9,048151	-3,431480	1,589429	2020-10-29T19:49:27:988
-8,760724	-4,066084	1,699133	2020-10-29T19:49:28:006
-8,458901	-4,644692	1,744766	2020-10-29T19:49:28:026
-8,124463	-5,233128	1,666692	2020-10-29T19:49:28:044
-7,790088	-5,752869	1,545771	2020-10-29T19:49:28:068
-7,478464	-6,184055	1,414366	2020-10-29T19:49:28:084
-7,148369	-6,596900	1,245838	2020-10-29T19:49:28:107
-6,833074	-6,954301	1,056971	2020-10-29T19:49:28:124
-6,511303	-7,285501	0,833538	2020-10-29T19:49:28:148
-6,175285	-7,597498	0,560590	2020-10-29T19:49:28:164
-5,893260	-7,834092	0,258601	2020-10-29T19:49:28:187
-5,721340	-7,964670	-0,026439	2020-10-29T19:49:28:205
-5,683701	-7,988886	-0,208853	2020-10-29T19:49:28:227
-5,750045	-7,941684	-0,192418	2020-10-29T19:49:28:245
-5,899368	-7,832926	-0,114511	2020-10-29T19:49:28:266
-6,131323	-7,653562	0,016009	2020-10-29T19:49:28:284
-6,453328	-7,381662	0,189780	2020-10-29T19:49:28:308
-6,855331	-7,003553	0,353648	2020-10-29T19:49:28:325
-7,342964	-6,483403	0,465572	2020-10-29T19:49:28:346
-8,177609	-5,381077	0,584036	2020-10-29T19:49:28:364
-8,719235	-4,459494	0,508167	2020-10-29T19:49:28:388
-9,099680	-3,637034	0,371732	2020-10-29T19:49:28:405
-9,434841	-2,662634	0,254052	2020-10-29T19:49:28:426
-9,710824	-1,360160	0,142274	2020-10-29T19:49:28:445
-9,804048	-0,221476	0,044501	2020-10-29T19:49:28:468
-9,774271	0,795125	-0,042289	2020-10-29T19:49:28:487
-9,751542	1,034269	-0,090040	2020-10-29T19:49:28:507
-9,727641	1,233621	-0,146812	2020-10-29T19:49:28:525
-9,729647	1,208328	-0,210476	2020-10-29T19:49:28:548
-9,759037	0,931731	-0,251927	2020-10-29T19:49:28:565
-9,803929	0,014992	-0,230507	2020-10-29T19:49:28:587
-9,649426	-1,736728	-0,206758	2020-10-29T19:49:28:606
-9,175617	-3,446579	-0,315486	2020-10-29T19:49:28:628
-9,683275	-1,472030	-0,487536	2020-10-29T19:49:28:645
-9,774671	-0,571337	-0,547513	2020-10-29T19:49:28:667
-9,786469	-0,223937	-0,587584	2020-10-29T19:49:28:685
-9,787784	0,016003	-0,607806	2020-10-29T19:49:28:708
-9,785285	0,181634	-0,620953	2020-10-29T19:49:28:726
-9,781075	0,316861	-0,632893	2020-10-29T19:49:28:747
-9,775656	0,426334	-0,652055	2020-10-29T19:49:28:765
-9,769809	0,497714	-0,688121	2020-10-29T19:49:28:788
-9,763877	0,517664	-0,754393	2020-10-29T19:49:28:806
-9,758526	0,467018	-0,850562	2020-10-29T19:49:28:827
-9,757064	0,345088	-0,922501	2020-10-29T19:49:28:845
-9,756789	0,160649	-0,974494	2020-10-29T19:49:28:868
-9,758410	0,007931	-0,971470	2020-10-29T19:49:28:885
-9,768372	0,022033	-0,865338	2020-10-29T19:49:28:908
-9,774372	0,094516	-0,789363	2020-10-29T19:49:28:925
-9,778712	0,084332	-0,734890	2020-10-29T19:49:28:948
-9,778502	-0,054832	-0,740468	2020-10-29T19:49:28:967
-9,763693	-0,405341	-0,822421	2020-10-29T19:49:28:987
-9,728321	-0,733956	-0,995718	2020-10-29T19:49:29:006
-9,661387	-1,143773	-1,232788	2020-10-29T19:49:29:028
-9,578609	-1,535910	-1,435836	2020-10-29T19:49:29:046
-9,471870	-1,991570	-1,577243	2020-10-29T19:49:29:067
-9,377179	-2,413634	-1,553471	2020-10-29T19:49:29:085
-9,311260	-2,762006	-1,357255	2020-10-29T19:49:29:109
-9,231371	-3,132233	-1,068314	2020-10-29T19:49:29:126
-9,146502	-3,460919	-0,730699	2020-10-29T19:49:29:147
-9,115911	-3,595248	-0,380442	2020-10-29T19:49:29:165
-9,382485	-2,851115	-0,102475	2020-10-29T19:49:29:191
-5,798059	-7,909027	-0,013554	2020-10-29T19:49:29:207
-6,195265	-7,601150	0,107680	2020-10-29T19:49:29:227
-5,875089	-7,851366	0,098830	2020-10-29T19:49:29:245
-5,236422	-8,291204	-0,078707	2020-10-29T19:49:29:268
-4,841073	-8,521894	-0,334229	2020-10-29T19:49:29:285
-4,635111	-8,620302	-0,613610	2020-10-29T19:49:29:308
-4,538711	-8,650832	-0,856503	2020-10-29T19:49:29:325
-4,502700	-8,650036	-1,035837	2020-10-29T19:49:29:349
-4,529589	-8,623759	-1,133132	2020-10-29T19:49:29:366
-4,630378	-8,568064	-1,148160	2020-10-29T19:49:29:388
-4,877222	-8,441976	-1,056474	2020-10-29T19:49:29:406
-5,127532	-8,310464	-0,902762	2020-10-29T19:49:29:429
-5,464521	-8,101826	-0,818422	2020-10-29T19:49:29:446
-5,821107	-7,852623	-0,788297	2020-10-29T19:49:29:467
-6,272778	-7,500266	-0,754095	2020-10-29T19:49:29:485
-6,685534	-7,140899	-0,693961	2020-10-29T19:49:29:510
-7,017177	-6,830323	-0,525636	2020-10-29T19:49:29:526
-7,315177	-6,520548	-0,375525	2020-10-29T19:49:29:548
-7,711654	-6,049163	-0,329248	2020-10-29T19:49:29:566
-8,180802	-5,399136	-0,306902	2020-10-29T19:49:29:589
-8,653811	-4,606675	-0,245951	2020-10-29T19:49:29:606
-9,190963	-3,414154	-0,200343	2020-10-29T19:49:29:628
-9,509904	-2,390255	-0,137068	2020-10-29T19:49:29:646
-9,636954	-1,814880	-0,075571	2020-10-29T19:49:29:669
-9,660493	-1,686583	-0,026428	2020-10-29T19:49:29:688
-9,501191	-2,428497	0,012198	2020-10-29T19:49:29:708
-9,455578	-2,600258	0,033048	2020-10-29T19:49:29:726
-9,656866	-1,706551	0,054780	2020-10-29T19:49:29:749
-9,799605	-0,356592	0,104723	2020-10-29T19:49:29:767
-9,794679	0,447814	0,184714	2020-10-29T19:49:29:788
-9,777461	0,712716	0,252325	2020-10-29T19:49:29:807
-9,782035	0,639404	0,270799	2020-10-29T19:49:29:829
-9,795308	0,408785	0,234987	2020-10-29T19:49:29:846
-9,799541	0,288430	0,237051	2020-10-29T19:49:29:868
-9,799308	0,266108	0,270445	2020-10-29T19:49:29:886
-9,792238	0,371539	0,380029	2020-10-29T19:49:29:910
-9,771750	0,599691	0,568906	2020-10-29T19:49:29:928
-9,714715	1,015796	0,873418	2020-10-29T19:49:29:949
-9,619250	1,512852	1,162623	2020-10-29T19:49:29:966
-9,490666	2,053296	1,371718	2020-10-29T19:49:29:990
-9,342665	2,599858	1,457991	2020-10-29T19:49:30:007
-9,339501	2,713486	1,257414	2020-10-29T19:49:30:028
-9,386012	2,655863	1,009732	2020-10-29T19:49:30:046
-9,495042	2,330289	0,764405	2020-10-29T19:49:30:069
-9,636552	1,731022	0,557501	2020-10-29T19:49:30:086
-9,687105	1,454026	0,464948	2020-10-29T19:49:30:109
-9,772797	0,729682	0,361100	2020-10-29T19:49:30:126
-9,802304	0,016431	0,291445	2020-10-29T19:49:30:149
-9,780119	-0,678864	0,242492	2020-10-29T19:49:30:169
-9,736725	-1,148565	0,217653	2020-10-29T19:49:30:190
-9,644243	-1,767699	0,184923	2020-10-29T19:49:30:207
-9,525131	-2,328012	0,150399	2020-10-29T19:49:30:230
-9,341835	-2,980986	0,119231	2020-10-29T19:49:30:246
-8,974480	-3,951088	0,134203	2020-10-29T19:49:30:269
-8,412845	-5,029714	0,310508	2020-10-29T19:49:30:287
-8,522079	-4,806483	0,665035	2020-10-29T19:49:30:310
-8,824711	-4,159819	0,995378	2020-10-29T19:49:30:326
-8,784580	-4,172361	1,262119	2020-10-29T19:49:30:348
-8,520855	-4,628609	1,463352	2020-10-29T19:49:30:366
-8,100262	-5,284317	1,622388	2020-10-29T19:49:30:390
-7,518378	-6,059659	1,710234	2020-10-29T19:49:30:408
-6,858054	-6,801843	1,694821	2020-10-29T19:49:30:429
-6,094827	-7,526436	1,541502	2020-10-29T19:49:30:447
-5,345970	-8,112768	1,331907	2020-10-29T19:49:30:470
-4,698336	-8,531262	1,146119	2020-10-29T19:49:30:487
-4,186491	-8,809424	1,018683	2020-10-29T19:49:30:509
-3,866281	-8,968784	0,884966	2020-10-29T19:49:30:527
-3,613695	-9,076861	0,849808	2020-10-29T19:49:30:550
-3,461951	-9,136749	0,839693	2020-10-29T19:49:30:567
-3,429559	-9,145795	0,873463	2020-10-29T19:49:30:589
-3,507066	-9,110247	0,935033	2020-10-29T19:49:30:607
-3,656994	-9,045948	0,983663	2020-10-29T19:49:30:630
-3,862890	-8,958599	0,995972	2020-10-29T19:49:30:648
-4,090716	-8,862095	0,948525	2020-10-29T19:49:30:669
-4,291998	-8,779250	0,820915	2020-10-29T19:49:30:687
-4,332153	-8,777964	0,591771	2020-10-29T19:49:30:711
-3,916428	-8,986823	0,262645	2020-10-29T19:49:30:727
-2,430449	-9,498617	-0,198923	2020-10-29T19:49:30:749
-1,886710	-9,595896	-0,727658	2020-10-29T19:49:30:768
-8,191248	-5,328862	-0,822842	2020-10-29T19:49:30:789
-8,188593	-5,224481	-1,349860	2020-10-29T19:49:30:808
-8,268936	-4,953209	-1,805767	2020-10-29T19:49:30:829
-8,380011	-4,600622	-2,186340	2020-10-29T19:49:30:847
-8,514275	-4,237628	-2,391658	2020-10-29T19:49:30:871
-8,632710	-4,000296	-2,375778	2020-10-29T19:49:30:889
-8,667982	-4,010074	-2,226158	2020-10-29T19:49:30:910
-8,550301	-4,382448	-1,963897	2020-10-29T19:49:30:928
-8,084598	-5,357254	-1,452410	2020-10-29T19:49:30:950
-7,260121	-6,554160	-0,709941	2020-10-29T19:49:30:967
-6,949836	-6,918819	-0,010259	2020-10-29T19:49:30:989
-7,059114	-6,799859	0,318144	2020-10-29T19:49:31:008
-7,122302	-6,729510	0,396098	2020-10-29T19:49:31:030
-7,123198	-6,728810	0,391851	2020-10-29T19:49:31:048
-6,687094	-7,170560	0,190363	2020-10-29T19:49:31:069
-9,026753	-3,831198	-0,100106	2020-10-29T19:49:31:087
-6,451355	-7,369798	-0,486300	2020-10-29T19:49:31:111
-5,695667	-7,935518	-0,870239	2020-10-29T19:49:31:128
-4,998484	-8,351727	-1,197585	2020-10-29T19:49:31:149
-4,304018	-8,693293	-1,439610	2020-10-29T19:49:31:167
-3,624072	-8,968842	-1,611327	2020-10-29T19:49:31:190
-2,965874	-9,196586	-1,672358	2020-10-29T19:49:31:208
-2,412568	-9,365282	-1,625235	2020-10-29T19:49:31:229
-1,857448	-9,507377	-1,526454	2020-10-29T19:49:31:247
-1,282144	-9,614619	-1,444157	2020-10-29T19:49:31:271
-0,658242	-9,683173	-1,404725	2020-10-29T19:49:31:288
-0,001609	-9,711713	-1,361255	2020-10-29T19:49:31:310
0,659115	-9,695120	-1,319316	2020-10-29T19:49:31:327
1,391281	-9,622243	-1,283420	2020-10-29T19:49:31:350
2,078375	-9,510133	-1,186642	2020-10-29T19:49:31:369
2,669214	-9,383495	-0,997849	2020-10-29T19:49:31:389
7,375921	-6,136160	-2,028229	2020-10-29T19:49:31:408
6,050502	-7,580644	-1,447635	2020-10-29T19:49:31:431
4,055412	-8,887825	-0,854742	2020-10-29T19:49:31:448
1,692914	-9,658977	-0,092756	2020-10-29T19:49:31:470
-0,699902	-9,729677	1,006924	2020-10-29T19:49:31:488
-2,357956	-9,263124	2,192020	2020-10-29T19:49:31:511
-2,916785	-8,846593	3,066031	2020-10-29T19:49:31:528
-2,930074	-8,664286	3,537683	2020-10-29T19:49:31:550
-2,564436	-8,735929	3,643844	2020-10-29T19:49:31:568
-1,923121	-8,942830	3,535221	2020-10-29T19:49:31:591
-1,132021	-9,156751	3,323075	2020-10-29T19:49:31:609
-0,300544	-9,315960	3,048434	2020-10-29T19:49:31:630
0,613062	-9,409390	2,694050	2020-10-29T19:49:31:648
1,190242	-9,402094	2,520779	2020-10-29T19:49:31:672
1,574717	-9,364632	2,448330	2020-10-29T19:49:31:688
1,817219	-9,323585	2,436980	2020-10-29T19:49:31:711
1,909411	-9,293413	2,481332	2020-10-29T19:49:31:729
1,759151	-9,270933	2,669377	2020-10-29T19:49:31:751
1,310411	-9,230220	3,042409	2020-10-29T19:49:31:769
0,379873	-8,979922	3,922636	2020-10-29T19:49:31:790
-0,164880	-8,825841	4,271737	2020-10-29T19:49:31:809
-0,522025	-8,632360	4,623877	2020-10-29T19:49:31:831
-0,791055	-8,484101	4,854342	2020-10-29T19:49:31:849
-1,268384	-8,277692	5,103078	2020-10-29T19:49:31:870
-1,897141	-7,917454	5,466732	2020-10-29T19:49:31:888
-2,559848	-7,303645	6,022817	2020-10-29T19:49:31:912
-3,080550	-6,674595	6,490791	2020-10-29T19:49:31:928
-3,608513	-6,146876	6,735349	2020-10-29T19:49:31:950
-4,037521	-5,658545	6,917346	2020-10-29T19:49:31:968
-4,383768	-5,233151	7,040390	2020-10-29T19:49:31:991
-4,709040	-4,810461	7,131255	2020-10-29T19:49:32:009
-4,803974	-4,349319	7,360410	2020-10-29T19:49:32:031
-4,842845	-3,935481	7,565000	2020-10-29T19:49:32:048
-4,849557	-3,551587	7,748446	2020-10-29T19:49:32:071
-5,047822	-3,176096	7,784748	2020-10-29T19:49:32:089
-5,210715	-2,810184	7,818037	2020-10-29T19:49:32:111
-5,333252	-2,465054	7,851771	2020-10-29T19:49:32:128
-5,432315	-2,128363	7,882284	2020-10-29T19:49:32:152
-5,517294	-1,791816	7,906911	2020-10-29T19:49:32:168
-5,620219	-1,457385	7,903136	2020-10-29T19:49:32:190
-5,704864	-1,130631	7,895986	2020-10-29T19:49:32:210
-5,984621	-0,696753	7,737521	2020-10-29T19:49:32:231
-6,256516	-0,349965	7,543468	2020-10-29T19:49:32:248
-6,508916	-0,070091	7,334813	2020-10-29T19:49:32:271
-6,736239	0,082636	7,126474	2020-10-29T19:49:32:288
-7,284756	0,195217	6,562363	2020-10-29T19:49:32:314
-7,959517	0,175410	5,725881	2020-10-29T19:49:32:534
-6,998875	0,255450	6,864465	2020-10-29T19:49:32:534
-6,683979	0,287404	7,170231	2020-10-29T19:49:32:535
-6,263226	0,317605	7,539331	2020-10-29T19:49:32:535
-5,704985	0,189353	7,974188	2020-10-29T19:49:32:535
-5,569621	-0,128855	8,070508	2020-10-29T19:49:32:536
-6,029015	-0,552600	7,714661	2020-10-29T19:49:32:536
-9,488260	-1,070604	2,235421	2020-10-29T19:49:32:537
-8,344768	-1,297123	4,985249	2020-10-29T19:49:32:542
-6,520329	-1,446127	7,180836	2020-10-29T19:49:32:543
-3,200042	-1,467074	9,153022	2020-10-29T19:49:32:543
0,094429	-1,475504	9,694553	2020-10-29T19:49:32:558
2,638356	-1,508816	9,323783	2020-10-29T19:49:32:574
4,385769	-1,705776	8,603822	2020-10-29T19:49:32:594
5,449060	-2,002295	7,903730	2020-10-29T19:49:32:614
6,132402	-2,434309	7,255217	2020-10-29T19:49:32:631
6,484887	-2,819195	6,794760	2020-10-29T19:49:32:657
6,728633	-3,297365	6,326394	2020-10-29T19:49:32:842
6,830128	-3,763997	5,945760	2020-10-29T19:49:32:868
6,848349	-4,221692	5,607835	2020-10-29T19:49:32:871
6,813684	-4,596251	5,349633	2020-10-29T19:49:32:872
6,693447	-4,888348	5,241394	2020-10-29T19:49:32:872
6,427479	-5,237916	5,236615	2020-10-29T19:49:32:873
6,114094	-5,601768	5,235308	2020-10-29T19:49:32:873
5,691691	-6,284109	4,927983	2020-10-29T19:49:32:877
5,242351	-7,066398	4,330607	2020-10-29T19:49:32:878
4,736544	-7,762906	3,670535	2020-10-29T19:49:32:878
4,321720	-8,222182	3,144653	2020-10-29T19:49:32:883
7,872599	-0,417207	5,832540	2020-10-29T19:49:32:890
8,014358	0,677468	5,610837	2020-10-29T19:49:32:926
8,038398	1,448006	5,427506	2020-10-29T19:49:32:949
8,106923	1,776226	5,224290	2020-10-29T19:49:32:981
-7,386210	2,145114	6,083812	2020-10-29T19:49:32:982
-7,362887	1,863355	6,203723	2020-10-29T19:49:33:047
-7,475533	1,497472	6,168011	2020-10-29T19:49:33:088
-7,686278	1,134323	5,983713	2020-10-29T19:49:33:093
-7,983737	0,774282	5,641881	2020-10-29T19:49:33:095
-8,283422	0,494582	5,225964	2020-10-29T19:49:33:096
-8,598243	0,260252	4,708808	2020-10-29T19:49:33:100
-8,906494	0,094002	4,103159	2020-10-29T19:49:33:116
-9,220006	0,015336	3,340905	2020-10-29T19:49:33:134
-9,561266	0,003149	2,180038	2020-10-29T19:49:33:176
9,798529	-0,027351	0,398077	2020-10-29T19:49:33:177
8,967937	-0,078637	-3,967405	2020-10-29T19:49:33:191
8,216587	-0,182354	5,350217	2020-10-29T19:49:33:208
8,127610	-0,060665	5,487135	2020-10-29T19:49:33:233
7,901403	-0,059392	5,808156	2020-10-29T19:49:33:249
9,548481	-0,091463	-2,233501	2020-10-29T19:49:33:272
9,176085	-0,279353	3,448451	2020-10-29T19:49:33:302
8,626621	-0,544839	4,631948	2020-10-29T19:49:33:324
8,223833	-0,851921	5,273821	2020-10-29T19:49:33:343
7,866041	-1,167367	5,738731	2020-10-29T19:49:33:358
7,553518	-1,434419	6,087462	2020-10-29T19:49:33:371
7,350468	-1,591209	6,293573	2020-10-29T19:49:33:412
7,289268	-1,560531	6,371946	2020-10-29T19:49:33:413
7,245846	-1,435187	6,450452	2020-10-29T19:49:33:434
7,220394	-1,225860	6,521776	2020-10-29T19:49:33:452
7,228433	-0,972933	6,555421	2020-10-29T19:49:33:473
7,288688	-0,716597	6,521649	2020-10-29T19:49:33:491
7,394880	-0,482134	6,422903	2020-10-29T19:49:33:513
7,527570	-0,305694	6,277948	2020-10-29T19:49:33:536
7,686860	-0,198281	6,086317	2020-10-29T19:49:33:556
7,874766	-0,122111	5,843246	2020-10-29T19:49:33:573
8,085632	-0,067839	5,548724	2020-10-29T19:49:33:602
8,352799	-0,067369	5,137761	2020-10-29T19:49:33:635
8,628739	-0,024063	4,659900	2020-10-29T19:49:33:635
8,925501	0,100999	4,061480	2020-10-29T19:49:33:657
-8,979855	0,274261	3,931587	2020-10-29T19:49:33:674
-9,102748	-0,156600	3,644976	2020-10-29T19:49:33:692
-9,189545	-0,699767	3,351565	2020-10-29T19:49:33:711
-9,222771	-1,319573	3,060982	2020-10-29T19:49:33:728
-9,191853	-1,805149	2,902010	2020-10-29T19:49:33:752
-9,136619	-2,289327	2,729755	2020-10-29T19:49:33:769
-9,069221	-2,701391	2,573346	2020-10-29T19:49:33:791
-9,002284	-3,050578	2,413139	2020-10-29T19:49:33:810
-8,974694	-3,215738	2,298755	2020-10-29T19:49:33:833
-8,989642	-3,215761	2,239551	2020-10-29T19:49:33:850
-9,020424	-3,152139	2,205981	2020-10-29T19:49:33:872
-9,043707	-3,106457	2,175240	2020-10-29T19:49:33:890
-9,034804	-3,182796	2,100597	2020-10-29T19:49:33:913
-8,984327	-3,401708	1,969932	2020-10-29T19:49:33:930
-8,991538	-3,422536	1,899705	2020-10-29T19:49:33:952
-9,025132	-3,410687	1,756298	2020-10-29T19:49:33:970
-9,042968	-3,463776	1,548345	2020-10-29T19:49:33:993
-8,994894	-3,670074	1,338963	2020-10-29T19:49:34:012
-8,986554	-3,725222	1,238930	2020-10-29T19:49:34:032
-9,028308	-3,633965	1,205959	2020-10-29T19:49:34:050
-9,149258	-3,286598	1,288309	2020-10-29T19:49:34:073
-9,198532	-3,122475	1,344451	2020-10-29T19:49:34:090
-9,250656	-2,920952	1,436587	2020-10-29T19:49:34:112
-9,290429	-2,729856	1,551194	2020-10-29T19:49:34:130
-9,302875	-2,635064	1,638094	2020-10-29T19:49:34:153
-9,276053	-2,687536	1,703636	2020-10-29T19:49:34:170
-9,220544	-2,850019	1,740502	2020-10-29T19:49:34:192
-9,170624	-2,989487	1,770030	2020-10-29T19:49:34:210
-9,143381	-3,059560	1,791104	2020-10-29T19:49:34:233
-9,129649	-3,094805	1,800574	2020-10-29T19:49:34:252
-9,083820	-3,246815	1,764311	2020-10-29T19:49:34:272
-9,030555	-3,416030	1,717616	2020-10-29T19:49:34:291
-8,972043	-3,593729	1,660707	2020-10-29T19:49:34:314
-8,910574	-3,764758	1,612032	2020-10-29T19:49:34:331
-8,864470	-3,881030	1,590330	2020-10-29T19:49:34:353
-8,853350	-3,894479	1,619144	2020-10-29T19:49:34:371
-8,870850	-3,820341	1,698061	2020-10-29T19:49:34:395
-8,866260	-3,790778	1,786007	2020-10-29T19:49:34:410
-8,843402	-3,805757	1,865700	2020-10-29T19:49:34:438
-8,825197	-3,804172	1,953087	2020-10-29T19:49:34:473
-8,807761	-3,801744	2,034814	2020-10-29T19:49:34:477
-8,791990	-3,791399	2,120515	2020-10-29T19:49:34:566
-8,773736	-3,791393	2,194832	2020-10-29T19:49:34:568
-8,750480	-3,803107	2,266244	2020-10-29T19:49:34:569
-8,714256	-3,838639	2,344561	2020-10-29T19:49:34:570
-8,677094	-3,869590	2,429961	2020-10-29T19:49:34:570
-8,648069	-3,878896	2,517033	2020-10-29T19:49:34:592
-8,706328	-3,540526	2,799090	2020-10-29T19:49:34:614
-8,749546	-3,134998	3,128517	2020-10-29T19:49:34:634
-8,746867	-2,694820	3,521455	2020-10-29T19:49:34:651
-8,669884	-2,304353	3,961498	2020-10-29T19:49:34:692
-8,532344	-1,966757	4,416034	2020-10-29T19:49:34:693
-8,430798	-1,920087	4,626585	2020-10-29T19:49:34:719
-8,346703	-1,952929	4,763298	2020-10-29T19:49:34:742
-8,292185	-2,082144	4,803616	2020-10-29T19:49:34:752
-8,198752	-2,059515	4,970839	2020-10-29T19:49:34:771
-8,129895	-2,103018	5,064830	2020-10-29T19:49:34:794
-8,081295	-2,204905	5,099162	2020-10-29T19:49:34:811
-8,046599	-2,341148	5,093295	2020-10-29T19:49:34:832
-8,018782	-2,522902	5,050197	2020-10-29T19:49:34:850
-8,031212	-3,008071	4,756210	2020-10-29T19:49:34:874
-8,003801	-3,500210	4,456241	2020-10-29T19:49:34:891
-7,914246	-4,126832	4,062556	2020-10-29T19:49:34:914
-7,779489	-4,711533	3,667614	2020-10-29T19:49:34:931
-7,611151	-5,267398	3,239643	2020-10-29T19:49:34:955
-7,425789	-5,762612	2,796488	2020-10-29T19:49:34:972
-7,266371	-6,136640	2,389955	2020-10-29T19:49:34:993
-7,159600	-6,378835	2,054502	2020-10-29T19:49:35:011
-7,174865	-6,413083	1,887874	2020-10-29T19:49:35:035
-7,263157	-6,330068	1,829529	2020-10-29T19:49:35:052
-7,357533	-6,241315	1,755869	2020-10-29T19:49:35:073
-7,395376	-6,231808	1,625843	2020-10-29T19:49:35:091
-7,380338	-6,289711	1,463055	2020-10-29T19:49:35:116
-7,319760	-6,399941	1,277596	2020-10-29T19:49:35:131
-7,245251	-6,521015	1,073818	2020-10-29T19:49:35:153
-7,128946	-6,683428	0,824807	2020-10-29T19:49:35:171
-7,008058	-6,835409	0,578530	2020-10-29T19:49:35:195
-6,880511	-6,979802	0,333647	2020-10-29T19:49:35:221
-6,754990	-7,108639	0,088066	2020-10-29T19:49:35:233
-6,640578	-7,214851	-0,137956	2020-10-29T19:49:35:254
-6,522589	-7,314023	-0,362332	2020-10-29T19:49:35:277
-6,392546	-7,411884	-0,608045	2020-10-29T19:49:35:359
-6,251141	-7,505504	-0,872372	2020-10-29T19:49:35:360
-6,105617	-7,591155	-1,125253	2020-10-29T19:49:35:362
-5,935569	-7,678044	-1,409625	2020-10-29T19:49:35:364
-5,771419	-7,746672	-1,688247	2020-10-29T19:49:35:372
-5,625029	-7,792341	-1,951632	2020-10-29T19:49:35:395
-5,511749	-7,814550	-2,173435	2020-10-29T19:49:35:411
-5,407487	-7,821995	-2,397051	2020-10-29T19:49:35:435
-5,332361	-7,813670	-2,585126	2020-10-29T19:49:35:452
-5,275374	-7,790493	-2,765687	2020-10-29T19:49:35:475
-5,244331	-7,758820	-2,909999	2020-10-29T19:49:35:492
-5,231695	-7,712733	-3,051803	2020-10-29T19:49:35:516
-5,231140	-7,669622	-3,159501	2020-10-29T19:49:35:536
-5,247069	-7,607396	-3,281187	2020-10-29T19:49:35:556
-5,275976	-7,551088	-3,363857	2020-10-29T19:49:35:582
-5,322623	-7,487211	-3,432453	2020-10-29T19:49:35:597
-5,381651	-7,429217	-3,466257	2020-10-29T19:49:35:618
-5,456271	-7,371297	-3,473251	2020-10-29T19:49:35:637
-5,534204	-7,315278	-3,468383	2020-10-29T19:49:35:678
-5,624331	-7,259583	-3,440312	2020-10-29T19:49:35:679
-5,716847	-7,212109	-3,387258	2020-10-29T19:49:35:757
-5,820901	-7,168677	-3,301145	2020-10-29T19:49:35:820
-5,923648	-7,128522	-3,203896	2020-10-29T19:49:35:826
-6,032982	-7,078657	-3,109040	2020-10-29T19:49:35:851
-6,133458	-7,032254	-3,016369	2020-10-29T19:49:35:851
-6,231145	-6,981703	-2,932412	2020-10-29T19:49:35:852
-6,313209	-6,939520	-2,856018	2020-10-29T19:49:35:852
-6,403356	-6,897841	-2,754487	2020-10-29T19:49:35:853
-6,476856	-6,860179	-2,675569	2020-10-29T19:49:35:863
-6,556860	-6,823182	-2,573355	2020-10-29T19:49:35:876
-6,616575	-6,798166	-2,485207	2020-10-29T19:49:35:896
-6,674554	-6,776731	-2,386762	2020-10-29T19:49:35:916
-6,724961	-6,761627	-2,285974	2020-10-29T19:49:35:934
-6,773134	-6,748255	-2,180847	2020-10-29T19:49:35:987
-6,817350	-6,742998	-2,055750	2020-10-29T19:49:35:987
-6,853491	-6,739499	-1,944018	2020-10-29T19:49:36:102
-6,888195	-6,733561	-1,839107	2020-10-29T19:49:36:102
-6,915971	-6,732931	-1,734178	2020-10-29T19:49:36:103
-6,936640	-6,739586	-1,622156	2020-10-29T19:49:36:103
-6,961200	-6,743069	-1,497696	2020-10-29T19:49:36:103
-6,982513	-6,742991	-1,395337	2020-10-29T19:49:36:104
-7,002204	-6,739868	-1,309085	2020-10-29T19:49:36:122
-7,006615	-6,747798	-1,242963	2020-10-29T19:49:36:134
-6,994479	-6,768143	-1,199955	2020-10-29T19:49:36:214
-6,973270	-6,795928	-1,165869	2020-10-29T19:49:36:227
-6,964499	-6,808749	-1,143272	2020-10-29T19:49:36:228
-6,970492	-6,806965	-1,117070	2020-10-29T19:49:36:228
-6,990457	-6,791561	-1,085629	2020-10-29T19:49:36:257
-7,021484	-6,761487	-1,073052	2020-10-29T19:49:36:503
-7,050814	-6,734372	-1,051021	2020-10-29T19:49:36:527
-7,081755	-6,705177	-1,029433	2020-10-29T19:49:36:547
-7,116517	-6,669647	-1,020481	2020-10-29T19:49:36:548
-7,143867	-6,643037	-1,002802	2020-10-29T19:49:36:568
-7,169356	-6,619167	-0,978437	2020-10-29T19:49:36:572
-7,195528	-6,596493	-0,938635	2020-10-29T19:49:36:572
-7,219382	-6,575222	-0,904088	2020-10-29T19:49:36:572
-7,236107	-6,558828	-0,889329	2020-10-29T19:49:36:573
-7,267304	-6,521181	-0,911525	2020-10-29T19:49:36:574
-7,309780	-6,467648	-0,952381	2020-10-29T19:49:36:575
-7,331168	-6,439943	-0,975441	2020-10-29T19:49:36:575
-7,300836	-6,477939	-0,951045	2020-10-29T19:49:36:576
-7,191167	-6,613236	-0,850060	2020-10-29T19:49:36:576
-7,058043	-6,771935	-0,703778	2020-10-29T19:49:36:576
-6,916321	-6,933284	-0,514263	2020-10-29T19:49:36:577
-6,829107	-7,030457	-0,326118	2020-10-29T19:49:36:577
-6,789796	-7,074697	-0,133077	2020-10-29T19:49:36:593
-6,808661	-7,057717	0,034061	2020-10-29T19:49:36:611
-6,893451	-6,972072	0,202314	2020-10-29T19:49:36:635
-6,990594	-6,870604	0,311101	2020-10-29T19:49:36:655
-7,085915	-6,767533	0,400865	2020-10-29T19:49:36:675
-7,132530	-6,715928	0,440138	2020-10-29T19:49:36:693
-7,130651	-6,717073	0,452925	2020-10-29T19:49:36:717
-7,085286	-6,766031	0,435819	2020-10-29T19:49:36:732
-7,010854	-6,845132	0,403096	2020-10-29T19:49:36:756
-6,919792	-6,939262	0,365388	2020-10-29T19:49:36:786
-6,813197	-7,046469	0,313072	2020-10-29T19:49:36:826
-6,701786	-7,154922	0,252074	2020-10-29T19:49:36:827
-6,615560	-7,236305	0,201583	2020-10-29T19:49:36:841
-6,550609	-7,296332	0,153139	2020-10-29T19:49:36:864
-6,516579	-7,327511	0,110305	2020-10-29T19:49:36:886
-6,508296	-7,335110	0,092853	2020-10-29T19:49:36:902
-6,524770	-7,320150	0,114695	2020-10-29T19:49:36:914
-6,569328	-7,279537	0,150532	2020-10-29T19:49:36:937
-6,650451	-7,204625	0,187793	2020-10-29T19:49:36:962
-6,816757	-7,045582	0,248980	2020-10-29T19:49:36:976
-6,992919	-6,869051	0,292593	2020-10-29T19:49:37:003
-7,144959	-6,709199	0,326475	2020-10-29T19:49:37:013
-7,218240	-6,630195	0,328510	2020-10-29T19:49:37:040
-7,232854	-6,615040	0,312178	2020-10-29T19:49:37:056
-7,226477	-6,622814	0,294543	2020-10-29T19:49:37:082
-7,191032	-6,662177	0,273569	2020-10-29T19:49:37:093
-7,157517	-6,698686	0,260662	2020-10-29T19:49:37:116
-7,142526	-6,714803	0,257151	2020-10-29T19:49:37:135
-7,141475	-6,715815	0,259897	2020-10-29T19:49:37:157
-7,128264	-6,729899	0,258238	2020-10-29T19:49:37:174
-7,111764	-6,747624	0,250537	2020-10-29T19:49:37:210
-7,144658	-6,712360	0,261672	2020-10-29T19:49:37:249
-7,265026	-6,579549	0,315152	2020-10-29T19:49:37:251
-7,422482	-6,398087	0,376338	2020-10-29T19:49:37:254
-7,647217	-6,120577	0,478530	2020-10-29T19:49:37:276
-7,843387	-5,857453	0,584731	2020-10-29T19:49:37:298
-8,007723	-5,613779	0,729556	2020-10-29T19:49:37:316
-8,099610	-5,469808	0,804918	2020-10-29T19:49:37:333
-8,126393	-5,427300	0,822511	2020-10-29T19:49:37:356
-8,035799	-5,561850	0,813720	2020-10-29T19:49:37:384
-7,912704	-5,733016	0,831883	2020-10-29T19:49:37:419
-7,749551	-5,945338	0,876244	2020-10-29T19:49:37:421
-7,563507	-6,166718	0,967130	2020-10-29T19:49:37:437
-7,399767	-6,342922	1,086814	2020-10-29T19:49:37:454
-7,190386	-6,566542	1,161575	2020-10-29T19:49:37:477
-6,996619	-6,763956	1,211037	2020-10-29T19:49:37:495
-6,803028	-6,955591	1,228391	2020-10-29T19:49:37:518
-6,624796	-7,127255	1,218480	2020-10-29T19:49:37:541
-6,409725	-7,328854	1,172054	2020-10-29T19:49:37:620
-6,216532	-7,504910	1,096100	2020-10-29T19:49:37:622
-6,043729	-7,659478	0,987984	2020-10-29T19:49:37:623
-5,900491	-7,785289	0,862480	2020-10-29T19:49:37:624
-5,797343	-7,873681	0,752564	2020-10-29T19:49:37:662
-5,733217	-7,927635	0,673206	2020-10-29T19:49:37:663
-5,687811	-7,961456	0,659100	2020-10-29T19:49:37:678
-5,668755	-7,973327	0,679457	2020-10-29T19:49:37:694
-5,713807	-7,940516	0,686301	2020-10-29T19:49:37:738
-5,761591	-7,905589	0,690010	2020-10-29T19:49:37:739
-5,817262	-7,864448	0,693043	2020-10-29T19:49:37:755
-5,890124	-7,810744	0,684914	2020-10-29T19:49:37:778
-5,953760	-7,762950	0,678037	2020-10-29T19:49:37:795
-6,003964	-7,724683	0,672361	2020-10-29T19:49:37:824
-6,033423	-7,695234	0,742670	2020-10-29T19:49:37:835
-6,079221	-7,660493	0,728220	2020-10-29T19:49:37:854
-6,134687	-7,615789	0,731951	2020-10-29T19:49:37:877
-6,191607	-7,571035	0,716806	2020-10-29T19:49:37:895
-6,252627	-7,521493	0,708653	2020-10-29T19:49:37:917
-6,316862	-7,470517	0,677517	2020-10-29T19:49:37:936
-6,387449	-7,413496	0,641051	2020-10-29T19:49:37:955
-6,459500	-7,354177	0,601099	2020-10-29T19:49:37:987
-6,534198	-7,290389	0,569981	2020-10-29T19:49:37:997
-6,603514	-7,229008	0,552662	2020-10-29T19:49:38:014
-6,678576	-7,163968	0,494538	2020-10-29T19:49:38:047
-6,736173	-7,110589	0,483609	2020-10-29T19:49:38:056
-6,796116	-7,053201	0,485338	2020-10-29T19:49:38:078
-6,876005	-6,972197	0,528587	2020-10-29T19:49:38:094
-6,987117	-6,851407	0,639375	2020-10-29T19:49:38:119
-7,151947	-6,664472	0,777721	2020-10-29T19:49:38:139
-7,394477	-6,372478	0,940010	2020-10-29T19:49:38:161
-7,630739	-6,066371	1,068335	2020-10-29T19:49:38:178
-7,868206	-5,737342	1,159578	2020-10-29T19:49:38:201
-8,004941	-5,544827	1,160258	2020-10-29T19:49:38:216
-8,091563	-5,428094	1,110305	2020-10-29T19:49:38:243
-8,117975	-5,407260	1,015087	2020-10-29T19:49:38:257
-8,120355	-5,428051	0,875493	2020-10-29T19:49:38:280
-8,133822	-5,431556	0,713803	2020-10-29T19:49:38:294
-8,128115	-5,458851	0,552338	2020-10-29T19:49:38:319
-8,004231	-5,654672	0,356857	2020-10-29T19:49:38:341
-7,750944	-6,004593	0,195228	2020-10-29T19:49:38:359
-7,298353	-6,550139	0,010308	2020-10-29T19:49:38:380
-8,167312	-5,424175	-0,209128	2020-10-29T19:49:38:398
-9,137424	-3,550543	-0,267425	2020-10-29T19:49:38:416
-9,439940	-2,643686	-0,262377	2020-10-29T19:49:38:437
-9,562983	-2,159419	-0,238013	2020-10-29T19:49:38:456
-9,632251	-1,829733	-0,205454	2020-10-29T19:49:38:496
-9,673824	-1,599572	-0,169924	2020-10-29T19:49:38:544
-9,695952	-1,462942	-0,136755	2020-10-29T19:49:38:545
-9,691852	-1,491620	-0,116024	2020-10-29T19:49:38:546
-9,590151	-2,045954	-0,116003	2020-10-29T19:49:38:568
-8,803548	-4,319246	-0,109774	2020-10-29T19:49:38:609
-7,723728	-6,042713	-0,006196	2020-10-29T19:49:38:610
-7,998153	-5,674306	0,046778	2020-10-29T19:49:38:615
-7,982941	-5,695399	0,073913	2020-10-29T19:49:38:637
-7,775618	-5,975297	0,077311	2020-10-29T19:49:38:654
-7,452468	-6,374032	0,053143	2020-10-29T19:49:38:677
-7,120368	-6,743184	-0,014887	2020-10-29T19:49:38:695
-7,500131	-6,316461	-0,144026	2020-10-29T19:49:38:720
-8,573224	-4,753949	-0,264930	2020-10-29T19:49:38:736
-9,031421	-3,806684	-0,336117	2020-10-29T19:49:38:758
-9,169073	-3,456688	-0,387020	2020-10-29T19:49:38:776
-9,212674	-3,334725	-0,420284	2020-10-29T19:49:38:798
-9,223921	-3,301454	-0,435973	2020-10-29T19:49:38:817
-9,224510	-3,301096	-0,426098	2020-10-29T19:49:38:838
-9,225162	-3,303314	-0,393560	2020-10-29T19:49:38:856
-9,232898	-3,288041	-0,335820	2020-10-29T19:49:38:879
-9,266148	-3,200910	-0,251121	2020-10-29T19:49:38:902
-9,375701	-2,871940	-0,136268	2020-10-29T19:49:38:919
-7,700991	-6,071113	-0,081850	2020-10-29T19:49:38:945
-7,240266	-6,614019	0,060644	2020-10-29T19:49:38:960
-8,495398	-4,894446	0,207372	2020-10-29T19:49:38:980
-8,847660	-4,217753	0,315995	2020-10-29T19:49:38:998
-7,565419	-6,236969	0,187186	2020-10-29T19:49:39:017
-7,380714	-6,457112	-0,033873	2020-10-29T19:49:39:039
-7,971902	-5,709061	-0,160571	2020-10-29T19:49:39:059
-8,465983	-4,943333	-0,246899	2020-10-29T19:49:39:078
-8,683539	-4,548169	-0,284052	2020-10-29T19:49:39:098
-8,929284	-4,044736	-0,279954	2020-10-29T19:49:39:122
-9,153681	-3,511774	-0,219006	2020-10-29T19:49:39:137
-9,285193	-3,152452	-0,132744	2020-10-29T19:49:39:159
-9,301466	-3,105826	-0,083421	2020-10-29T19:49:39:178
-9,388371	-2,833125	0,047609	2020-10-29T19:49:39:226
-9,422376	-2,714155	0,150271	2020-10-29T19:49:39:227
-9,376948	-2,863842	0,204042	2020-10-29T19:49:39:271
-9,241076	-3,276436	0,194551	2020-10-29T19:49:39:272
-9,114711	-3,611348	0,224949	2020-10-29T19:49:39:305
-9,081894	-3,694844	0,194210	2020-10-29T19:49:39:306
-9,040545	-3,797353	0,138049	2020-10-29T19:49:39:318
-8,983659	-3,932175	0,047562	2020-10-29T19:49:39:335
-8,658156	-4,605054	-0,014059	2020-10-29T19:49:39:359
-8,414344	-5,034777	-0,142203	2020-10-29T19:49:39:376
-8,155453	-5,435639	-0,335866	2020-10-29T19:49:39:398
-7,875783	-5,811411	-0,608211	2020-10-29T19:49:39:416
-7,538617	-6,206249	-0,906706	2020-10-29T19:49:39:440
-7,206965	-6,543906	-1,186309	2020-10-29T19:49:39:456
-6,933938	-6,785763	-1,429793	2020-10-29T19:49:39:478
-6,712921	-6,995283	-1,474138	2020-10-29T19:49:39:496
-6,589442	-7,135553	-1,354076	2020-10-29T19:49:39:519
-6,540431	-7,221410	-1,115525	2020-10-29T19:49:39:537
-6,468200	-7,328064	-0,795139	2020-10-29T19:49:39:558
-6,412496	-7,403530	-0,487891	2020-10-29T19:49:39:576
-6,406352	-7,423656	-0,135566	2020-10-29T19:49:39:599
-6,928353	-6,935740	0,252643	2020-10-29T19:49:39:616
-8,192110	-5,360684	0,568144	2020-10-29T19:49:39:638
-8,926790	-4,003756	0,672863	2020-10-29T19:49:39:656
-9,267383	-3,142830	0,639230	2020-10-29T19:49:39:679
-9,510439	-2,326092	0,557881	2020-10-29T19:49:39:696
-9,607958	-1,923339	0,397865	2020-10-29T19:49:39:719
-9,702370	-1,410568	0,211425	2020-10-29T19:49:39:736
-9,455558	-2,594890	0,171344	2020-10-29T19:49:39:759
-9,496828	-2,441439	0,141464	2020-10-29T19:49:39:778
-9,787253	-0,614176	0,053409	2020-10-29T19:49:39:799
-9,773066	-0,799961	0,132764	2020-10-29T19:49:39:816
-9,763283	-0,899067	0,200926	2020-10-29T19:49:39:840
-9,765489	-0,870957	0,216911	2020-10-29T19:49:39:856
-9,773421	-0,786542	0,178783	2020-10-29T19:49:39:878
-9,774458	-0,775338	0,170920	2020-10-29T19:49:39:896
-9,766474	-0,863430	0,202152	2020-10-29T19:49:39:919
-9,751195	-1,010175	0,253220	2020-10-29T19:49:39:936
-9,729343	-1,190172	0,306176	2020-10-29T19:49:39:959
-9,703686	-1,374610	0,345425	2020-10-29T19:49:39:976
-9,671307	-1,578920	0,378452	2020-10-29T19:49:40:000
-9,633348	-1,794665	0,384917	2020-10-29T19:49:40:018
-9,593400	-1,995346	0,394521	2020-10-29T19:49:40:039
-9,554954	-2,170771	0,401236	2020-10-29T19:49:40:056
-9,520454	-2,312244	0,429953	2020-10-29T19:49:40:080
-9,506223	-2,366524	0,449084	2020-10-29T19:49:40:096
-9,505523	-2,367297	0,459699	2020-10-29T19:49:40:119
-9,519428	-2,316999	0,427062	2020-10-29T19:49:40:137
-9,534284	-2,261220	0,393333	2020-10-29T19:49:40:160
-7,710907	-5,976200	0,998667	2020-10-29T19:49:40:176
-7,603120	-6,112115	1,002499	2020-10-29T19:49:40:198
-7,485054	-6,259644	0,980416	2020-10-29T19:49:40:216
-7,368512	-6,404706	0,924747	2020-10-29T19:49:40:240
-7,223639	-6,579758	0,834389	2020-10-29T19:49:40:258
-7,021738	-6,809226	0,707125	2020-10-29T19:49:40:279
-6,784280	-7,052859	0,633324	2020-10-29T19:49:40:297
-6,454784	-7,365189	0,510035	2020-10-29T19:49:40:320
-6,040366	-7,719688	0,301290	2020-10-29T19:49:40:336
-5,245127	-8,285643	0,084555	2020-10-29T19:49:40:359
-7,800117	-5,941196	-0,175356	2020-10-29T19:49:40:376
-8,540651	-4,811893	-0,270809	2020-10-29T19:49:40:400
-8,678371	-4,561632	-0,218573	2020-10-29T19:49:40:417
-8,841350	-4,238160	-0,197297	2020-10-29T19:49:40:439
-8,961076	-3,979673	-0,178041	2020-10-29T19:49:40:457
-9,006896	-3,874179	-0,192214	2020-10-29T19:49:40:513
-8,978615	-3,936716	-0,239005	2020-10-29T19:49:40:515
-8,892233	-4,123321	-0,311133	2020-10-29T19:49:40:522
-8,756769	-4,402524	-0,327367	2020-10-29T19:49:40:538
-8,555641	-4,780310	-0,346446	2020-10-29T19:49:40:569
-8,196879	-5,374000	-0,318859	2020-10-29T19:49:40:578
-7,447940	-6,375394	-0,230051	2020-10-29T19:49:40:617
-6,795168	-7,070297	-0,083456	2020-10-29T19:49:40:618
-7,005467	-6,862216	0,061722	2020-10-29T19:49:40:640
-7,843033	-5,882931	0,219856	2020-10-29T19:49:40:655
-8,304908	-5,209433	0,246385	2020-10-29T19:49:40:678
-8,785474	-4,348272	0,279915	2020-10-29T19:49:40:697
-9,214913	-3,341838	0,296448	2020-10-29T19:49:40:720
-9,472615	-2,523828	0,265038	2020-10-29T19:49:40:738
-9,608584	-1,949688	0,210260	2020-10-29T19:49:40:759
-9,702312	-1,418041	0,157056	2020-10-29T19:49:40:777
-9,754784	-0,999747	0,122815	2020-10-29T19:49:40:800
-9,785517	-0,634828	0,105100	2020-10-29T19:49:40:817
-9,800928	-0,318747	0,102933	2020-10-29T19:49:40:839
-9,795573	-0,439181	0,155733	2020-10-29T19:49:40:857
-9,796904	-0,411770	0,146678	2020-10-29T19:49:40:880
-9,798640	-0,374376	0,129931	2020-10-29T19:49:40:897
-9,800174	-0,339181	0,109226	2020-10-29T19:49:40:920
-9,803761	-0,231785	0,053960	2020-10-29T19:49:40:938
-9,783961	-0,662194	0,077420	2020-10-29T19:49:40:971
-9,797167	-0,391780	0,180030	2020-10-29T19:49:42:344
-9,784784	-0,535880	0,375788	2020-10-29T19:49:42:345
-9,773970	-0,582042	0,548749	2020-10-29T19:49:42:346
-9,766851	-0,557831	0,683977	2020-10-29T19:49:42:348
-9,763249	-0,480965	0,786136	2020-10-29T19:49:42:351
-9,762533	-0,359537	0,856777	2020-10-29T19:49:42:352
-9,762918	-0,224348	0,897490	2020-10-29T19:49:42:352
-9,763409	-0,096792	0,914801	2020-10-29T19:49:42:353
-9,762740	-0,023036	0,926688	2020-10-29T19:49:42:353
-9,760190	-0,083491	0,949791	2020-10-29T19:49:42:354
-9,749055	-0,400890	0,982653	2020-10-29T19:49:42:376
-9,716074	-0,894848	0,983636	2020-10-29T19:49:42:377
-9,735126	-0,682851	0,965106	2020-10-29T19:49:42:377
-9,683717	1,117707	1,070860	2020-10-29T19:49:42:378
-9,114940	3,373440	1,306966	2020-10-29T19:49:42:380
-8,558557	4,542116	1,513497	2020-10-29T19:49:42:381
-7,942978	5,492792	1,705497	2020-10-29T19:49:42:381
-7,441919	6,104611	1,876684	2020-10-29T19:49:42:382
-7,150970	6,417832	1,960980	2020-10-29T19:49:42:418
-6,963033	6,622258	1,957614	2020-10-29T19:49:42:418
-6,038307	7,467632	1,985876	2020-10-29T19:49:42:433
-4,851020	8,270740	2,057390	2020-10-29T19:49:42:453
-3,475112	8,878163	2,296125	2020-10-29T19:49:42:470
-2,461061	9,093279	2,725041	2020-10-29T19:49:42:492
-1,759681	9,074862	3,274260	2020-10-29T19:49:42:510
-1,210006	8,947133	3,828195	2020-10-29T19:49:42:537
-0,729879	8,816092	4,232515	2020-10-29T19:49:42:551
-0,322616	8,732711	4,450400	2020-10-29T19:49:42:627
-0,140341	8,800465	4,324640	2020-10-29T19:49:42:711
-0,248588	8,985306	3,920826	2020-10-29T19:49:42:712
-0,542586	9,161966	3,454614	2020-10-29T19:49:42:736
-1,050239	9,269175	3,024863	2020-10-29T19:49:42:737
-2,244579	9,182016	2,612052	2020-10-29T19:49:42:738
-3,934777	8,694932	2,255233	2020-10-29T19:49:42:738
-5,152696	8,104720	1,983335	2020-10-29T19:49:42:738
-6,395989	7,232567	1,718042	2020-10-29T19:49:42:743
-7,583386	6,051064	1,430828	2020-10-29T19:49:42:766
-8,543595	4,682124	1,120308	2020-10-29T19:49:42:779
-9,268744	3,101072	0,802574	2020-10-29T19:49:42:800
-9,735297	1,063313	0,513564	2020-10-29T19:49:42:823
-9,577222	-2,078560	0,356072	2020-10-29T19:49:42:844
-9,573782	-2,077817	0,442445	2020-10-29T19:49:42:853
-9,711381	-1,266977	0,504221	2020-10-29T19:49:42:932
-9,729396	-1,103634	0,539668	2020-10-29T19:49:42:936
-9,716553	-1,178842	0,607723	2020-10-29T19:49:42:936
-9,691482	-1,324020	0,701811	2020-10-29T19:49:42:936
-9,658200	-1,490032	0,818148	2020-10-29T19:49:42:952
-9,625929	-1,626375	0,931014	2020-10-29T19:49:43:000
-9,601558	-1,710907	1,026288	2020-10-29T19:49:43:001
-9,595277	-1,719928	1,069064	2020-10-29T19:49:43:015
-9,608296	-1,663450	1,041136	2020-10-29T19:49:43:042
-9,626419	-1,616311	0,943383	2020-10-29T19:49:43:053
-9,649538	-1,551263	0,806469	2020-10-29T19:49:43:072
-9,667772	-1,514402	0,641208	2020-10-29T19:49:43:101
-9,668241	-1,560383	0,510602	2020-10-29T19:49:43:113
-9,576510	-2,077808	0,378870	2020-10-29T19:49:43:135
-8,934304	-4,039989	0,164583	2020-10-29T19:49:43:200
-9,794072	0,482892	0,115546	2020-10-29T19:49:43:201
-9,116647	3,604389	0,255965	2020-10-29T19:49:43:202
-9,718229	1,313548	0,031533	2020-10-29T19:49:43:229
-9,721457	1,287846	-0,071439	2020-10-29T19:49:43:234
-9,761577	0,920139	-0,188010	2020-10-29T19:49:43:255
-9,793180	-0,392032	-0,332128	2020-10-29T19:49:43:275
-9,796728	-0,083232	-0,433105	2020-10-29T19:49:43:295
-9,452017	2,526849	-0,666933	2020-10-29T19:49:43:324
-8,536921	4,718479	-1,013577	2020-10-29T19:49:43:336
-7,703257	5,915871	-1,353767	2020-10-29T19:49:43:356
-7,437660	6,209521	-1,514412	2020-10-29T19:49:43:375
-7,315558	6,326106	-1,622769	2020-10-29T19:49:43:393
-7,463009	6,156616	-1,603107	2020-10-29T19:49:43:416
-7,821860	5,726161	-1,483229	2020-10-29T19:49:43:434
-8,015153	5,471200	-1,411977	2020-10-29T19:49:43:455
-8,792129	4,208978	-1,073948	2020-10-29T19:49:43:473
-9,661674	1,520428	-0,714659	2020-10-29T19:49:43:496
-9,733862	-1,047185	-0,570726	2020-10-29T19:49:43:515
-9,792253	0,010564	-0,531088	2020-10-29T19:49:43:535
-9,771719	0,721902	-0,403421	2020-10-29T19:49:43:553
-9,761621	0,888861	-0,301744	2020-10-29T19:49:43:576
-9,759565	0,934110	-0,220684	2020-10-29T19:49:43:594
-9,761750	0,922521	-0,166021	2020-10-29T19:49:43:615
-9,762309	0,923243	-0,123832	2020-10-29T19:49:43:633
-9,761455	0,934852	-0,102137	2020-10-29T19:49:43:656
-9,750538	1,043846	-0,088179	2020-10-29T19:49:43:674
-9,741302	1,125420	-0,104205	2020-10-29T19:49:43:697
-9,740560	1,126640	-0,150231	2020-10-29T19:49:43:714
-9,758910	0,927557	-0,271457	2020-10-29T19:49:43:736
-9,793937	0,241921	-0,436649	2020-10-29T19:49:43:754
-9,643513	-1,715735	-0,478861	2020-10-29T19:49:43:775
-9,796880	-0,166098	-0,404896	2020-10-29T19:49:43:794
-9,516639	2,299666	-0,561706	2020-10-29T19:49:43:816
-9,180253	3,372320	-0,721663	2020-10-29T19:49:43:833
-9,084362	3,603805	-0,810763	2020-10-29T19:49:43:855
-9,768388	0,860176	-0,095258	2020-10-29T19:49:43:873
-9,798563	0,373954	0,136774	2020-10-29T19:49:43:897
-9,798396	-0,185651	0,356856	2020-10-29T19:49:43:915
-9,737489	-1,012145	0,572058	2020-10-29T19:49:43:936
-9,554351	-2,096992	0,698137	2020-10-29T19:49:43:954
-9,090603	-3,611559	0,698549	2020-10-29T19:49:43:976
-8,101757	-5,500494	0,525816	2020-10-29T19:49:43:995
-7,156291	-6,699289	0,278243	2020-10-29T19:49:44:016
-6,545667	-7,301838	0,088275	2020-10-29T19:49:44:034
-6,107581	-7,672532	-0,009613	2020-10-29T19:49:44:057
-5,765237	-7,932950	-0,026978	2020-10-29T19:49:44:074
-5,483437	-8,130260	-0,034373	2020-10-29T19:49:44:096
-5,399673	-8,186181	0,018988	2020-10-29T19:49:44:114
-5,834971	-7,880635	0,138171	2020-10-29T19:49:44:137
-7,143913	-6,710851	0,315230	2020-10-29T19:49:44:153
-7,901709	-5,789917	0,458536	2020-10-29T19:49:44:175
-8,140755	-5,436399	0,586571	2020-10-29T19:49:44:194
-8,229106	-5,284406	0,726119	2020-10-29T19:49:44:217
-8,264595	-5,207558	0,864986	2020-10-29T19:49:44:236
-8,289545	-5,140379	1,015053	2020-10-29T19:49:44:256
-8,317043	-5,071100	1,131868	2020-10-29T19:49:44:274
-8,351838	-4,992432	1,221801	2020-10-29T19:49:44:297
-8,394592	-4,901178	1,296013	2020-10-29T19:49:44:314
-8,477978	-4,764654	1,261884	2020-10-29T19:49:44:336
-8,628604	-4,554097	0,988829	2020-10-29T19:49:44:354
-8,801600	-4,264093	0,720913	2020-10-29T19:49:44:377
-8,992076	-3,881640	0,495811	2020-10-29T19:49:44:395
-9,221067	-3,318996	0,355769	2020-10-29T19:49:44:416
-9,486773	-2,474944	0,214920	2020-10-29T19:49:44:434
-8,637616	-4,635175	0,277700	2020-10-29T19:49:44:457
-8,876675	-4,163951	0,191155	2020-10-29T19:49:44:476
-9,084806	-3,691797	0,085500	2020-10-29T19:49:44:497
-9,312646	-3,072488	-0,069456	2020-10-29T19:49:44:514
-9,523254	-2,329785	-0,223864	2020-10-29T19:49:44:537
-9,703360	-1,369128	-0,375079	2020-10-29T19:49:44:554
-9,788625	-0,228253	-0,548740	2020-10-29T19:49:44:576
-9,748594	0,759160	-0,747637	2020-10-29T19:49:44:595
-9,654812	1,444644	-0,931667	2020-10-29T19:49:44:617
-9,624585	1,582994	-1,015808	2020-10-29T19:49:44:634
-9,734906	0,759430	-0,908435	2020-10-29T19:49:44:658
-9,678380	-1,397616	-0,738922	2020-10-29T19:49:44:674
-9,480293	-2,352236	-0,872588	2020-10-29T19:49:44:697
-9,687855	-1,130914	-1,018275	2020-10-29T19:49:44:716
-9,750998	-0,248304	-1,013294	2020-10-29T19:49:44:738
-9,758766	0,097205	-0,963022	2020-10-29T19:49:44:754
-9,762306	0,278838	-0,888824	2020-10-29T19:49:44:783
-9,767037	0,398649	-0,785138	2020-10-29T19:49:44:797
-9,771564	0,492762	-0,666401	2020-10-29T19:49:44:861
-9,774169	0,578051	-0,549428	2020-10-29T19:49:44:862
-9,773669	0,656059	-0,464073	2020-10-29T19:49:44:862
-9,771206	0,726629	-0,407345	2020-10-29T19:49:44:878
-9,767696	0,785711	-0,380988	2020-10-29T19:49:44:898
-9,763295	0,824619	-0,410429	2020-10-29T19:49:44:914
-9,759146	0,812246	-0,519346	2020-10-29T19:49:44:937
-9,758262	0,734830	-0,637763	2020-10-29T19:49:44:955
-9,762568	0,587117	-0,719677	2020-10-29T19:49:44:977
-9,768539	0,365344	-0,782656	2020-10-29T19:49:44:995
-9,772787	0,080839	-0,810240	2020-10-29T19:49:45:018
-9,770801	-0,262733	-0,795497	2020-10-29T19:49:45:035
-9,754646	-0,646851	-0,773856	2020-10-29T19:49:45:056
-9,716352	-1,077960	-0,775171	2020-10-29T19:49:45:075
-9,642435	-1,614681	-0,765920	2020-10-29T19:49:45:098
-9,544362	-2,116176	-0,772880	2020-10-29T19:49:45:115
-9,422503	-2,613218	-0,746933	2020-10-29T19:49:45:137
-9,242960	-3,209414	-0,661613	2020-10-29T19:49:45:155
-8,648640	-4,594997	-0,507362	2020-10-29T19:49:45:177
-7,858326	-5,860309	-0,271779	2020-10-29T19:49:45:196
-6,918554	-6,949983	0,041717	2020-10-29T19:49:45:217
-7,448817	-6,370057	0,328468	2020-10-29T19:49:45:235
-7,596262	-6,173213	0,598863	2020-10-29T19:49:45:258
-9,388698	-2,800699	0,422882	2020-10-29T19:49:45:275
-9,215242	-3,302050	0,588345	2020-10-29T19:49:45:297
-9,023301	-3,780092	0,679210	2020-10-29T19:49:45:315
-8,831057	-4,211428	0,668363	2020-10-29T19:49:45:338
-8,626613	-4,617603	0,655498	2020-10-29T19:49:45:355
-8,455523	-4,923234	0,660501	2020-10-29T19:49:45:377
-8,280072	-5,206659	0,708161	2020-10-29T19:49:45:395
-8,152678	-5,391913	0,794678	2020-10-29T19:49:45:417
-8,070149	-5,493224	0,931432	2020-10-29T19:49:45:436
-8,014719	-5,543739	1,096183	2020-10-29T19:49:45:457
-7,973981	-5,561561	1,286486	2020-10-29T19:49:45:475
-7,947197	-5,554256	1,470606	2020-10-29T19:49:45:499
-7,947796	-5,496871	1,669530	2020-10-29T19:49:45:515
-7,949972	-5,429131	1,868924	2020-10-29T19:49:45:537
-7,939180	-5,418377	1,944476	2020-10-29T19:49:45:555
-8,044946	-5,287286	1,869179	2020-10-29T19:49:45:578
-8,140419	-5,199755	1,693077	2020-10-29T19:49:45:596
-8,155084	-5,241741	1,479578	2020-10-29T19:49:45:617
-8,023236	-5,510435	1,197150	2020-10-29T19:49:45:636
-7,686344	-6,015565	0,950512	2020-10-29T19:49:45:658
-7,098628	-6,732526	0,673025	2020-10-29T19:49:45:677
-6,095919	-7,677420	0,259588	2020-10-29T19:49:45:697
-5,702477	-7,977338	-0,119245	2020-10-29T19:49:45:716
-6,147841	-7,628676	-0,421573	2020-10-29T19:49:45:738
-7,158257	-6,677584	-0,582775	2020-10-29T19:49:45:755
-8,329103	-5,147273	-0,549564	2020-10-29T19:49:45:777
-9,750534	-1,038815	-0,135403	2020-10-29T19:49:45:796
-9,760235	-0,921210	-0,244068	2020-10-29T19:49:45:864
-9,757851	-0,907439	-0,362333	2020-10-29T19:49:45:865
-9,735231	-1,073220	-0,493817	2020-10-29T19:49:45:866
-9,686378	-1,402792	-0,613717	2020-10-29T19:49:45:881
-9,623693	-1,754322	-0,690835	2020-10-29T19:49:45:900
-9,609382	-1,804720	-0,757066	2020-10-29T19:49:45:920
-9,662345	-1,453374	-0,834969	2020-10-29T19:49:45:940
-9,724420	-0,889114	-0,903059	2020-10-29T19:49:45:955
-9,754816	-0,336665	-0,949005	2020-10-29T19:49:45:979
-9,756643	-0,055438	-0,987538	2020-10-29T19:49:45:996
-9,753196	0,085172	-1,018976	2020-10-29T19:49:46:018
-9,749026	0,150738	-1,050787	2020-10-29T19:49:46:036
-9,744300	0,172362	-1,090552	2020-10-29T19:49:46:059
-9,755305	0,281566	-0,961833	2020-10-29T19:49:46:076
-9,784482	0,391948	-0,529787	2020-10-29T19:49:46:099
-9,760503	0,460805	0,831043	2020-10-29T19:49:46:117
-8,737433	0,530688	-4,421088	2020-10-29T19:49:46:139
-9,277954	0,692842	-3,099987	2020-10-29T19:49:46:157
-9,397556	0,809142	-2,683581	2020-10-29T19:49:46:178
-9,457696	0,896922	-2,432674	2020-10-29T19:49:46:196
-9,495153	0,953387	-2,259094	2020-10-29T19:49:46:219
-9,519589	0,989929	-2,137250	2020-10-29T19:49:46:248
-9,576565	0,871754	-1,923494	2020-10-29T19:49:46:264
-9,587602	0,910261	-1,849245	2020-10-29T19:50:10:138
-9,599413	0,953054	-1,764469	2020-10-29T19:50:10:141
-9,645267	0,936994	-1,503743	2020-10-29T19:50:10:143
-9,699847	0,848554	-1,167609	2020-10-29T19:50:10:144
-9,755816	0,668105	-0,740329	2020-10-29T19:50:10:145
-9,786538	0,467543	-0,418885	2020-10-29T19:50:10:155
-9,802133	0,245487	-0,168297	2020-10-29T19:50:10:176
-9,801915	0,267294	-0,146250	2020-10-29T19:50:10:184
-9,806128	-0,098788	0,021964	2020-10-29T19:50:10:210
-9,804109	-0,218979	0,043509	2020-10-29T19:50:10:224
-9,801547	-0,312616	0,048208	2020-10-29T19:50:10:245
-9,799677	-0,363421	0,068096	2020-10-29T19:50:10:263
-9,798275	-0,385977	0,123331	2020-10-29T19:50:10:288
-9,796248	-0,379469	0,244768	2020-10-29T19:50:10:307
-9,779378	-0,355030	0,638829	2020-10-29T19:50:10:327
-9,387805	-0,279167	2,821625	2020-10-29T19:50:10:344
-9,550404	-0,350502	-2,199391	2020-10-29T19:50:10:367
-9,675681	-0,333292	-1,562209	2020-10-29T19:50:10:384
-9,699983	-0,347747	-1,399929	2020-10-29T19:50:10:406
-9,699416	-0,410104	-1,386915	2020-10-29T19:50:10:424
-9,688161	-0,527916	-1,425213	2020-10-29T19:50:10:447
-9,670848	-0,691260	-1,472155	2020-10-29T19:50:10:464
-9,643903	-0,918709	-1,523644	2020-10-29T19:50:10:486
-9,605835	-1,192528	-1,573592	2020-10-29T19:50:10:504
-9,550444	-1,523592	-1,624216	2020-10-29T19:50:10:527
-9,480746	-1,868444	-1,671749	2020-10-29T19:50:10:545
-9,389767	-2,240392	-1,727228	2020-10-29T19:50:10:566
-9,278348	-2,616648	-1,798831	2020-10-29T19:50:10:584
-9,151786	-2,972014	-1,892702	2020-10-29T19:50:10:607
-9,005199	-3,317750	-2,017253	2020-10-29T19:50:10:624
-8,849359	-3,630154	-2,163614	2020-10-29T19:50:10:646
-8,683281	-3,920315	-2,324252	2020-10-29T19:50:10:664
-8,504477	-4,203987	-2,484102	2020-10-29T19:50:10:687
-8,325157	-4,473057	-2,617995	2020-10-29T19:50:10:704
-8,133608	-4,752285	-2,725911	2020-10-29T19:50:10:726
-7,942391	-5,026851	-2,796349	2020-10-29T19:50:10:744
-7,735687	-5,321436	-2,830520	2020-10-29T19:50:10:767
-7,514980	-5,631661	-2,824863	2020-10-29T19:50:10:785
-7,285809	-5,944348	-2,784260	2020-10-29T19:50:10:806
-7,045224	-6,261313	-2,707613	2020-10-29T19:50:10:826
-6,922834	-6,426449	-2,635433	2020-10-29T19:50:10:848
-6,826940	-6,560090	-2,555094	2020-10-29T19:50:10:864
-6,761322	-6,661578	-2,465418	2020-10-29T19:50:10:886
-6,736773	-6,715745	-2,384334	2020-10-29T19:50:10:904
-6,746550	-6,735362	-2,299859	2020-10-29T19:50:10:927
-6,789976	-6,718921	-2,218717	2020-10-29T19:50:10:944
-6,731277	-6,846010	-1,998108	2020-10-29T19:50:10:966
-6,696573	-6,934409	-1,800073	2020-10-29T19:50:10:984
-6,666619	-7,010705	-1,605176	2020-10-29T19:50:11:007
-6,712623	-6,995378	-1,475050	2020-10-29T19:50:11:025
-6,738779	-7,002937	-1,310770	2020-10-29T19:50:11:046
-6,747754	-7,027817	-1,117135	2020-10-29T19:50:11:064
-6,775226	-7,029221	-0,925612	2020-10-29T19:50:11:087
-6,838162	-6,987626	-0,763552	2020-10-29T19:50:11:104
-6,945068	-6,895742	-0,620603	2020-10-29T19:50:11:127
-7,141430	-6,693869	-0,602067	2020-10-29T19:50:11:145
-7,349085	-6,458798	-0,667276	2020-10-29T19:50:11:167
-7,553188	-6,211054	-0,736580	2020-10-29T19:50:11:185
-7,752036	-5,953614	-0,794230	2020-10-29T19:50:11:207
-7,964185	-5,657208	-0,859149	2020-10-29T19:50:11:225
-8,147758	-5,387666	-0,870332	2020-10-29T19:50:11:247
-8,351848	-5,059893	-0,902500	2020-10-29T19:50:11:265
-8,527290	-4,753932	-0,925109	2020-10-29T19:50:11:286
-8,677761	-4,468673	-0,947527	2020-10-29T19:50:11:304
-8,813717	-4,188191	-0,973562	2020-10-29T19:50:11:328
-8,938077	-3,907161	-1,007603	2020-10-29T19:50:11:344
-9,050559	-3,629412	-1,041694	2020-10-29T19:50:11:367
-9,140598	-3,384377	-1,079746	2020-10-29T19:50:11:385
-9,199737	-3,211384	-1,105549	2020-10-29T19:50:11:408
-9,241731	-3,088712	-1,104832	2020-10-29T19:50:11:425
-9,265029	-3,023993	-1,088620	2020-10-29T19:50:11:447
-9,271284	-3,008260	-1,078909	2020-10-29T19:50:11:465
-9,266884	-3,025335	-1,068925	2020-10-29T19:50:11:488
-9,229032	-3,150025	-1,035717	2020-10-29T19:50:11:506
-9,159249	-3,361837	-0,988229	2020-10-29T19:50:11:527
-9,065393	-3,622123	-0,932333	2020-10-29T19:50:11:545
-8,944025	-3,922844	-0,886623	2020-10-29T19:50:11:568
-8,743349	-4,366643	-0,810340	2020-10-29T19:50:11:585
-8,529740	-4,782978	-0,732829	2020-10-29T19:50:11:607
-8,323272	-5,144191	-0,656380	2020-10-29T19:50:11:625
-8,086188	-5,519318	-0,566631	2020-10-29T19:50:11:648
-7,831596	-5,885018	-0,450603	2020-10-29T19:50:11:665
-7,603528	-6,184711	-0,325720	2020-10-29T19:50:11:687
-7,417304	-6,411823	-0,206195	2020-10-29T19:50:11:705
-7,253066	-6,599818	-0,076324	2020-10-29T19:50:11:728
-7,128802	-6,734243	0,023368	2020-10-29T19:50:11:747
-7,017352	-6,848697	0,150004	2020-10-29T19:50:11:767
-6,939493	-6,924638	0,251411	2020-10-29T19:50:11:785
-6,828135	-7,032736	0,295947	2020-10-29T19:50:11:809
-6,704402	-7,150146	0,311094	2020-10-29T19:50:11:825
-6,601326	-7,245566	0,307647	2020-10-29T19:50:11:847
-6,558110	-7,284420	0,314335	2020-10-29T19:50:11:865
-6,542170	-7,299811	0,288360	2020-10-29T19:50:11:888
-6,621235	-7,229384	0,256180	2020-10-29T19:50:11:905
-6,797588	-7,066003	0,186502	2020-10-29T19:50:11:928
-9,388845	-2,831414	0,055376	2020-10-29T19:50:11:945
-6,698872	-7,162033	0,028008	2020-10-29T19:50:11:968
-6,069070	-7,702244	-0,110504	2020-10-29T19:50:11:986
-6,253945	-7,550161	-0,231568	2020-10-29T19:50:12:007
-6,473347	-7,356012	-0,394005	2020-10-29T19:50:12:026
-6,593086	-7,239174	-0,544021	2020-10-29T19:50:12:048
-6,674690	-7,150961	-0,694731	2020-10-29T19:50:12:065
-6,833411	-6,979609	-0,871750	2020-10-29T19:50:12:088
-6,975590	-6,827971	-0,943575	2020-10-29T19:50:12:105
-7,162165	-6,632313	-0,941387	2020-10-29T19:50:12:129
-7,371290	-6,405497	-0,896711	2020-10-29T19:50:12:146
-7,592898	-6,145898	-0,863835	2020-10-29T19:50:12:167
-7,849168	-5,823430	-0,805368	2020-10-29T19:50:12:185
-8,093652	-5,495443	-0,680651	2020-10-29T19:50:12:208
-8,322972	-5,155956	-0,560914	2020-10-29T19:50:12:227
-8,524340	-4,829634	-0,425037	2020-10-29T19:50:12:248
-8,632727	-4,642828	-0,300936	2020-10-29T19:50:12:265
-8,772902	-4,377068	-0,218757	2020-10-29T19:50:12:289
-8,641829	-4,634181	-0,116354	2020-10-29T19:50:12:305
-8,258525	-5,288379	-0,014157	2020-10-29T19:50:12:328
-8,013454	-5,651927	0,103206	2020-10-29T19:50:12:345
-8,542974	-4,810912	0,207644	2020-10-29T19:50:12:369
-8,373330	-5,100909	0,196079	2020-10-29T19:50:12:385
-8,142308	-5,464888	0,090591	2020-10-29T19:50:12:408
-8,537677	-4,824776	-0,001105	2020-10-29T19:50:12:426
-8,866771	-4,188784	-0,069638	2020-10-29T19:50:12:449
-9,076975	-3,709778	-0,128295	2020-10-29T19:50:12:466
-9,218054	-3,341662	-0,176501	2020-10-29T19:50:12:488
-9,326935	-3,022722	-0,204530	2020-10-29T19:50:12:505
-9,432113	-2,676701	-0,202268	2020-10-29T19:50:12:529
-9,528971	-2,310939	-0,169296	2020-10-29T19:50:12:546
-9,625711	-1,872177	-0,104947	2020-10-29T19:50:12:568
-9,722527	-1,281659	-0,014569	2020-10-29T19:50:12:586
-9,785889	-0,632423	0,082538	2020-10-29T19:50:12:609
-9,802128	0,202684	0,218176	2020-10-29T19:50:12:626
-9,750126	0,997695	0,331706	2020-10-29T19:50:12:648
-9,627755	1,817125	0,418061	2020-10-29T19:50:12:666
-9,774502	0,784215	0,120457	2020-10-29T19:50:12:689
-9,776571	0,765124	0,060202	2020-10-29T19:50:12:708
-9,782903	0,682050	-0,001726	2020-10-29T19:50:12:728
-9,792705	0,518711	-0,065284	2020-10-29T19:50:12:746
-9,803432	0,229441	-0,102281	2020-10-29T19:50:12:769
-9,805470	-0,093730	-0,119848	2020-10-29T19:50:12:786
-9,792480	-0,517259	-0,100805	2020-10-29T19:50:12:808
-9,701095	-1,433191	-0,071506	2020-10-29T19:50:12:827
-8,934768	-4,042314	0,001393	2020-10-29T19:50:12:849
-9,536091	-2,287440	0,031275	2020-10-29T19:50:12:866
-9,768769	-0,860383	0,035737	2020-10-29T19:50:12:889
-9,727699	-1,238387	0,093003	2020-10-29T19:50:12:906
-9,669346	-1,624713	0,185607	2020-10-29T19:50:12:929
-9,597430	-1,992722	0,297946	2020-10-29T19:50:12:948
-9,502143	-2,385259	0,436126	2020-10-29T19:50:12:968
-9,397331	-2,743371	0,578332	2020-10-29T19:50:12:987
-9,270036	-3,106514	0,765768	2020-10-29T19:50:13:009
-9,136760	-3,436826	0,937139	2020-10-29T19:50:13:026
-8,984349	-3,797455	1,015475	2020-10-29T19:50:13:049
-8,798188	-4,198635	1,064768	2020-10-29T19:50:13:066
-8,573072	-4,635461	1,088724	2020-10-29T19:50:13:089
-8,348631	-5,024374	1,107435	2020-10-29T19:50:13:106
-8,061723	-5,467337	1,134560	2020-10-29T19:50:13:129
-7,765061	-5,882736	1,125890	2020-10-29T19:50:13:146
-7,451235	-6,282971	1,083398	2020-10-29T19:50:13:169
-7,125355	-6,661821	1,009874	2020-10-29T19:50:13:188
-6,808517	-6,997976	0,918050	2020-10-29T19:50:13:208
-6,385635	-7,408768	0,710077	2020-10-29T19:50:13:227
-5,976333	-7,759834	0,488680	2020-10-29T19:50:13:250
-5,717573	-7,959969	0,344428	2020-10-29T19:50:13:267
-5,461258	-8,144477	0,112001	2020-10-29T19:50:13:289
-5,320928	-8,236103	-0,157248	2020-10-29T19:50:13:306
-5,373376	-8,196725	-0,333040	2020-10-29T19:50:13:330
-5,612163	-8,023492	-0,545514	2020-10-29T19:50:13:346
-6,035672	-7,700233	-0,668929	2020-10-29T19:50:13:369
-6,538209	-7,280369	-0,646872	2020-10-29T19:50:13:387
-7,045268	-6,799149	-0,553318	2020-10-29T19:50:13:410
-7,582286	-6,203308	-0,445303	2020-10-29T19:50:13:428
-8,143548	-5,453723	-0,331522	2020-10-29T19:50:13:449
-8,801878	-4,317249	-0,242245	2020-10-29T19:50:13:466
-9,328809	-3,020461	-0,143280	2020-10-29T19:50:13:490
-9,626440	-1,870427	-0,059475	2020-10-29T19:50:13:507
-9,776980	-0,762238	0,005703	2020-10-29T19:50:13:529
-9,794592	0,483887	0,047025	2020-10-29T19:50:13:547
-9,805209	0,165275	-0,030794	2020-10-29T19:50:13:570
-9,806344	0,000715	-0,077519	2020-10-29T19:50:13:587
-9,804321	-0,193224	-0,091292	2020-10-29T19:50:13:609
-9,806510	-0,022853	-0,047164	2020-10-29T19:50:13:627
-9,804991	0,177727	-0,030918	2020-10-29T19:50:13:650
-9,804021	0,226551	-0,015142	2020-10-29T19:50:13:668
-9,804457	0,207062	-0,011827	2020-10-29T19:50:13:689
-9,804315	0,212682	-0,023717	2020-10-29T19:50:13:707
-9,803972	0,227311	-0,029181	2020-10-29T19:50:13:731
-9,803956	0,227411	-0,033326	2020-10-29T19:50:13:747
-9,805138	0,170372	-0,025292	2020-10-29T19:50:13:769
-9,806294	0,081438	-0,018356	2020-10-29T19:50:13:787
-9,783279	-0,676344	-0,019855	2020-10-29T19:50:13:811
-9,799180	-0,382657	-0,005303	2020-10-29T19:50:13:827
-9,806400	-0,069795	0,004755	2020-10-29T19:50:13:849
-9,804307	-0,213780	0,015794	2020-10-29T19:50:13:867
-9,745603	-1,091469	0,048122	2020-10-29T19:50:13:891
-9,643409	-1,780270	0,075427	2020-10-29T19:50:13:908
-9,782933	-0,680324	0,041853	2020-10-29T19:50:13:930
-9,740841	-1,128113	0,117348	2020-10-29T19:50:13:947
-9,666515	-1,637953	0,214437	2020-10-29T19:50:13:970
-9,551883	-2,196555	0,327213	2020-10-29T19:50:13:987
-9,394926	-2,781606	0,410378	2020-10-29T19:50:14:009
-9,211905	-3,332242	0,455383	2020-10-29T19:50:14:028
-9,030425	-3,792094	0,491763	2020-10-29T19:50:14:050
-8,865475	-4,156566	0,544706	2020-10-29T19:50:14:067
-8,711733	-4,461909	0,606179	2020-10-29T19:50:14:090
-8,579199	-4,703663	0,665800	2020-10-29T19:50:14:107
-8,465307	-4,895279	0,738371	2020-10-29T19:50:14:131
-8,381360	-5,025933	0,814367	2020-10-29T19:50:14:149
-8,308572	-5,132218	0,893504	2020-10-29T19:50:14:170
-8,212383	-5,285757	0,887649	2020-10-29T19:50:14:187
-8,090908	-5,474849	0,856516	2020-10-29T19:50:14:211
-7,964059	-5,656453	0,865265	2020-10-29T19:50:14:228
-7,810763	-5,869278	0,844944	2020-10-29T19:50:14:250
-7,631738	-6,106935	0,795173	2020-10-29T19:50:14:267
-7,419776	-6,372258	0,715287	2020-10-29T19:50:14:291
-7,257381	-6,564387	0,640017	2020-10-29T19:50:14:307
-7,203607	-6,628887	0,579906	2020-10-29T19:50:14:330
-7,342200	-6,477138	0,556033	2020-10-29T19:50:14:348
-7,639402	-6,125010	0,542370	2020-10-29T19:50:14:371
-7,976765	-5,681287	0,514369	2020-10-29T19:50:14:390
-8,324210	-5,165907	0,437404	2020-10-29T19:50:14:410
-8,683883	-4,543962	0,336113	2020-10-29T19:50:14:428
-9,050981	-3,770349	0,186049	2020-10-29T19:50:14:451
-9,564911	-2,163570	0,042793	2020-10-29T19:50:14:468
-7,143893	-6,718182	-0,034836	2020-10-29T19:50:14:490
-8,726890	-4,467390	-0,232855	2020-10-29T19:50:14:508
-9,105721	-3,619384	-0,395321	2020-10-29T19:50:14:532
-9,268485	-3,165470	-0,495345	2020-10-29T19:50:14:548
-9,262185	-3,177017	-0,537461	2020-10-29T19:50:14:570
-9,082225	-3,664373	-0,505907	2020-10-29T19:50:14:588
-8,550125	-4,791198	-0,331905	2020-10-29T19:50:14:611
-8,494334	-4,896889	-0,192729	2020-10-29T19:50:14:629
-8,804988	-4,316984	-0,078954	2020-10-29T19:50:14:650
-9,043665	-3,792388	-0,017573	2020-10-29T19:50:14:668
-9,154943	-3,515229	0,023884	2020-10-29T19:50:14:691
-9,228077	-3,318169	0,052288	2020-10-29T19:50:14:708
-9,247827	-3,262518	0,063717	2020-10-29T19:50:14:730
-9,099501	-3,656148	0,045363	2020-10-29T19:50:14:748
-8,107076	-5,517501	-0,053740	2020-10-29T19:50:14:772
-9,734150	-1,183776	-0,124051	2020-10-29T19:50:14:788
-9,770098	-0,838609	-0,110975	2020-10-29T19:50:14:810
-9,773078	-0,803152	-0,110831	2020-10-29T19:50:14:828
-9,447214	-2,598271	-0,411724	2020-10-29T19:50:14:851
-9,376001	-2,824122	-0,534145	2020-10-29T19:50:14:870
-9,345940	-2,899787	-0,644230	2020-10-29T19:50:14:891
-9,749990	-1,018764	-0,264943	2020-10-29T19:50:14:908
-9,746799	-1,040932	-0,294529	2020-10-29T19:50:14:932
-9,748928	-1,021069	-0,293604	2020-10-29T19:50:14:948
-9,753181	-0,981683	-0,286630	2020-10-29T19:50:14:970
-9,756147	-0,951757	-0,286575	2020-10-29T19:50:14:989
-9,753763	-0,974725	-0,290526	2020-10-29T19:50:15:011
-9,725369	-1,213305	-0,339793	2020-10-29T19:50:15:029
-9,567033	-2,115426	-0,408957	2020-10-29T19:50:15:050
-8,842627	-4,223498	-0,374718	2020-10-29T19:50:15:069
-8,816433	-4,289501	-0,202655	2020-10-29T19:50:15:091
-9,327253	-3,025110	-0,146422	2020-10-29T19:50:15:109
-9,610609	-1,945665	-0,144774	2020-10-29T19:50:15:130
-9,733733	-1,186900	-0,126859	2020-10-29T19:50:15:148
-9,768603	-0,860913	-0,060007	2020-10-29T19:50:15:171
-9,759872	-0,954989	0,057205	2020-10-29T19:50:15:189
-9,709974	-1,362611	0,173430	2020-10-29T19:50:15:210
-9,567059	-2,140487	0,245138	2020-10-29T19:50:15:229
-9,752623	-1,022628	0,104777	2020-10-29T19:50:15:252
-9,675213	-1,593270	0,148756	2020-10-29T19:50:15:268
-9,461603	-2,571961	0,182959	2020-10-29T19:50:15:291
-8,786461	-4,351227	0,187926	2020-10-29T19:50:15:308
-7,533085	-6,277078	0,145949	2020-10-29T19:50:15:332
-6,909375	-6,958217	0,118909	2020-10-29T19:50:15:350
-6,504769	-7,338039	0,107397	2020-10-29T19:50:15:370
-5,709131	-7,973466	-0,006960	2020-10-29T19:50:15:389
-5,224854	-8,297834	-0,131280	2020-10-29T19:50:15:411
-4,992177	-8,436193	-0,281419	2020-10-29T19:50:15:429
-4,853202	-8,509863	-0,446141	2020-10-29T19:50:15:451
-4,719885	-8,573132	-0,628080	2020-10-29T19:50:15:469
-4,545329	-8,652976	-0,797728	2020-10-29T19:50:15:492
-4,227200	-8,803620	-0,892992	2020-10-29T19:50:15:508
-3,953575	-8,922911	-0,959838	2020-10-29T19:50:15:531
-3,762306	-9,002635	-0,983872	2020-10-29T19:50:15:549
-8,724541	-4,452819	-0,474537	2020-10-29T19:50:15:572
-8,711921	-4,480055	-0,449366	2020-10-29T19:50:15:590
-8,738136	-4,435393	-0,377698	2020-10-29T19:50:15:611
-8,786995	-4,345029	-0,282544	2020-10-29T19:50:15:629
-8,857425	-4,204619	-0,193900	2020-10-29T19:50:15:652
-8,630921	-4,652453	-0,179612	2020-10-29T19:50:15:669
-8,151481	-5,447622	-0,217160	2020-10-29T19:50:15:691
-7,601823	-6,190955	-0,233981	2020-10-29T19:50:15:709
-7,310641	-6,531985	-0,240998	2020-10-29T19:50:15:732
-7,423018	-6,403036	-0,265199	2020-10-29T19:50:15:749
-7,750488	-6,000074	-0,315305	2020-10-29T19:50:15:772
-8,208014	-5,351385	-0,401959	2020-10-29T19:50:15:789
-8,517365	-4,838624	-0,461073	2020-10-29T19:50:15:813
-8,626510	-4,641299	-0,460509	2020-10-29T19:50:15:831
-8,562294	-4,765207	-0,387706	2020-10-29T19:50:15:851
-8,394596	-5,064374	-0,230759	2020-10-29T19:50:15:869
-8,552256	-4,796123	-0,162820	2020-10-29T19:50:15:893
-8,596221	-4,717648	-0,138475	2020-10-29T19:50:15:909
-8,506266	-4,878048	-0,135939	2020-10-29T19:50:15:931
-9,532262	-2,290173	-0,247946	2020-10-29T19:50:15:949
-9,777768	-0,722635	-0,208418	2020-10-29T19:50:15:972
-9,794065	-0,464975	-0,174556	2020-10-29T19:50:15:989
-9,796387	-0,419500	-0,158791	2020-10-29T19:50:16:012
-9,796377	-0,420326	-0,157201	2020-10-29T19:50:16:029
-9,707736	-1,300103	-0,489877	2020-10-29T19:50:16:052
-9,689541	-1,397691	-0,574143	2020-10-29T19:50:16:070
-9,693171	-1,370509	-0,578382	2020-10-29T19:50:16:093
-9,717275	-1,225831	-0,492245	2020-10-29T19:50:16:109
-9,756048	-0,942144	-0,319815	2020-10-29T19:50:16:133
-9,789080	-0,577395	-0,104533	2020-10-29T19:50:16:149
-9,804831	-0,126776	0,140042	2020-10-29T19:50:16:171
-9,777342	0,581599	0,485498	2020-10-29T19:50:16:190
-9,693014	1,275525	0,767394	2020-10-29T19:50:16:213
-9,561552	1,956197	0,959372	2020-10-29T19:50:16:229
-9,764861	0,839858	0,335435	2020-10-29T19:50:16:252
-9,766613	0,851185	0,243203	2020-10-29T19:50:16:269
-9,772593	0,805144	0,136154	2020-10-29T19:50:16:293
-9,788139	0,602261	0,000344	2020-10-29T19:50:16:311
-9,800796	0,325264	-0,094862	2020-10-29T19:50:16:332
-9,805356	0,080263	-0,137581	2020-10-29T19:50:16:349
-9,803463	-0,193326	-0,158507	2020-10-29T19:50:16:373
-9,791191	-0,517601	-0,187232	2020-10-29T19:50:16:390
-9,765374	-0,875920	-0,201526	2020-10-29T19:50:16:412
-9,732871	-1,184076	-0,198912	2020-10-29T19:50:16:430
-9,688334	-1,507443	-0,184913	2020-10-29T19:50:16:453
-9,623818	-1,878281	-0,156724	2020-10-29T19:50:16:469
-9,541744	-2,261438	-0,106770	2020-10-29T19:50:16:492
-9,559109	-2,189236	-0,032657	2020-10-29T19:50:16:509
-8,468605	-4,944680	0,057026	2020-10-29T19:50:16:533
-8,536516	-4,824304	0,156107	2020-10-29T19:50:16:551
-8,160512	-5,433403	0,233582	2020-10-29T19:50:16:572
-7,622885	-6,163170	0,278109	2020-10-29T19:50:16:591
-6,678295	-7,178114	0,213147	2020-10-29T19:50:16:613
-5,855508	-7,865888	0,105901	2020-10-29T19:50:16:630
-5,276345	-8,266223	-0,011367	2020-10-29T19:50:16:652
-4,848260	-8,523433	-0,125903	2020-10-29T19:50:16:670
-4,496195	-8,712900	-0,199953	2020-10-29T19:50:16:693
-4,169796	-8,870914	-0,300125	2020-10-29T19:50:16:710
-3,930874	-8,975610	-0,396286	2020-10-29T19:50:16:732
-3,772024	-9,039985	-0,469991	2020-10-29T19:50:16:750
-3,676122	-9,075774	-0,535573	2020-10-29T19:50:16:773
-3,650489	-9,082032	-0,600839	2020-10-29T19:50:16:791
-3,742155	-9,029513	-0,796584	2020-10-29T19:50:16:812
-3,915728	-8,941497	-0,941857	2020-10-29T19:50:16:829
-4,233042	-8,781393	-1,067183	2020-10-29T19:50:16:854
-4,662655	-8,548371	-1,164205	2020-10-29T19:50:16:870
-5,325284	-8,143822	-1,220616	2020-10-29T19:50:16:893
-6,023898	-7,647012	-1,185851	2020-10-29T19:50:16:910
-6,722239	-7,050775	-1,126256	2020-10-29T19:50:16:933
-7,436918	-6,306946	-1,041664	2020-10-29T19:50:16:950
-8,192242	-5,323092	-0,849851	2020-10-29T19:50:16:973
-8,940243	-3,974361	-0,668513	2020-10-29T19:50:16:990
-9,712132	-1,319414	-0,322551	2020-10-29T19:50:17:013
-9,709624	-1,316817	-0,399460	2020-10-29T19:50:17:032
-9,700668	-1,362866	-0,458281	2020-10-29T19:50:17:052
-9,683868	-1,465131	-0,496457	2020-10-29T19:50:17:070
-9,632277	-1,767497	-0,515355	2020-10-29T19:50:17:093
-9,480720	-2,463244	-0,467737	2020-10-29T19:50:17:110
-9,085745	-3,671444	-0,374335	2020-10-29T19:50:17:133
-8,660463	-4,594666	-0,236249	2020-10-29T19:50:17:150
-8,527603	-4,840648	-0,136026	2020-10-29T19:50:17:173
-8,658777	-4,603495	-0,061590	2020-10-29T19:50:17:190
-9,055877	-3,763096	-0,024166	2020-10-29T19:50:17:212
-9,360357	-2,924720	-0,010386	2020-10-29T19:50:17:230
-8,582906	-4,743716	-0,035648	2020-10-29T19:50:17:253
-9,763444	-0,917951	-0,053891	2020-10-29T19:50:17:271
-9,806624	0,021125	-0,007742	2020-10-29T19:50:17:293
-9,794626	-0,485364	0,010499	2020-10-29T19:50:17:310
-9,750460	-1,048260	0,008317	2020-10-29T19:50:17:334
-9,691282	-1,499803	0,005277	2020-10-29T19:50:17:350
-9,655016	-1,717860	0,003050	2020-10-29T19:50:17:372
-9,628007	-1,863292	0,000566	2020-10-29T19:50:17:391
-9,674406	-1,605064	0,003840	2020-10-29T19:50:17:413
-9,778199	-0,746412	0,008302	2020-10-29T19:50:17:431
-9,805960	0,115555	0,013604	2020-10-29T19:50:17:453
-9,806572	0,038825	-0,004064	2020-10-29T19:50:17:470
-9,806115	-0,100665	-0,019126	2020-10-29T19:50:17:494
-9,798823	-0,390174	-0,034657	2020-10-29T19:50:17:511
-9,628368	-1,860777	-0,049080	2020-10-29T19:50:17:533
-9,259498	-3,229848	0,012998	2020-10-29T19:50:17:550
-9,529346	-2,314746	0,062321	2020-10-29T19:50:17:573
-9,346000	-2,967844	0,120770	2020-10-29T19:50:17:591
-9,051943	-3,769041	0,164442	2020-10-29T19:50:17:613
-8,863910	-4,189406	0,224424	2020-10-29T19:50:17:631
-8,706134	-4,505573	0,270971	2020-10-29T19:50:17:653
-9,627767	-1,859888	0,131543	2020-10-29T19:50:17:671
-9,475735	-2,518516	0,194715	2020-10-29T19:50:17:693
-9,215924	-3,344513	0,226628	2020-10-29T19:50:17:711
-8,614270	-4,681373	0,222438	2020-10-29T19:50:17:734
-6,647965	-7,208749	0,094252	2020-10-29T19:50:17:752
-5,301005	-8,250358	-0,036500	2020-10-29T19:50:17:773
-4,857431	-8,518332	-0,117315	2020-10-29T19:50:17:791
-4,543972	-8,689509	-0,123012	2020-10-29T19:50:17:815
-4,241992	-8,841153	-0,099468	2020-10-29T19:50:17:831
-4,035765	-8,937495	-0,064507	2020-10-29T19:50:17:853
-4,177280	-8,872447	-0,019910	2020-10-29T19:50:17:871
-6,306272	-7,509981	0,038805	2020-10-29T19:50:17:894
-7,514794	-6,300134	0,081051	2020-10-29T19:50:17:910
-7,689099	-6,085669	0,113048	2020-10-29T19:50:17:933
-7,944505	-5,747201	0,157771	2020-10-29T19:50:17:950
-8,294101	-5,227543	0,225969	2020-10-29T19:50:17:975
-8,417334	-5,025643	0,248568	2020-10-29T19:50:17:994
-8,423392	-5,016520	0,226658	2020-10-29T19:50:18:013
-8,124578	-5,489276	0,171683	2020-10-29T19:50:18:031
-5,173046	-8,330867	-0,081418	2020-10-29T19:50:18:054
-6,446073	-7,385873	-0,259626	2020-10-29T19:50:18:071
-9,463605	-2,564654	-0,181950	2020-10-29T19:50:18:093
-9,534378	-2,279973	-0,260261	2020-10-29T19:50:18:111
-9,610307	-1,926419	-0,318289	2020-10-29T19:50:18:135
-9,675177	-1,562919	-0,344410	2020-10-29T19:50:18:150
-9,725767	-1,208652	-0,344958	2020-10-29T19:50:18:173
-9,755609	-0,940111	-0,338643	2020-10-29T19:50:18:191
-9,765730	-0,821272	-0,355554	2020-10-29T19:50:18:214
-9,761536	-0,853318	-0,393251	2020-10-29T19:50:18:234
-9,719675	-1,219773	-0,458756	2020-10-29T19:50:18:253
-9,544175	-2,192963	-0,519631	2020-10-29T19:50:18:271
-9,083270	-3,663573	-0,492778	2020-10-29T19:50:18:294
-8,731363	-4,447817	-0,388084	2020-10-29T19:50:18:311
-8,702536	-4,512830	-0,265733	2020-10-29T19:50:18:334
-8,755232	-4,413579	-0,191374	2020-10-29T19:50:18:351
-8,726084	-4,472747	-0,142742	2020-10-29T19:50:18:374
-8,544380	-4,810198	-0,161064	2020-10-29T19:50:18:391
-8,389803	-5,074722	-0,169664	2020-10-29T19:50:18:413
-8,256363	-5,288147	-0,195836	2020-10-29T19:50:18:432
-8,167011	-5,424838	-0,203573	2020-10-29T19:50:18:454
-8,110101	-5,510694	-0,170034	2020-10-29T19:50:18:472
-8,134377	-5,476384	-0,107308	2020-10-29T19:50:18:496
-8,283949	-5,248449	-0,018648	2020-10-29T19:50:18:511
-8,535370	-4,828202	0,079382	2020-10-29T19:50:18:535
-8,766018	-4,393050	0,168604	2020-10-29T19:50:18:553
-8,970183	-3,955025	0,252927	2020-10-29T19:50:18:573
-9,120961	-3,587533	0,328728	2020-10-29T19:50:18:592
-9,215286	-3,331989	0,383067	2020-10-29T19:50:18:615
-9,300591	-3,081640	0,415782	2020-10-29T19:50:18:632
-9,391706	-2,791118	0,419409	2020-10-29T19:50:18:655
-9,505138	-2,384501	0,369975	2020-10-29T19:50:18:672
-9,624097	-1,865300	0,260388	2020-10-29T19:50:18:695
-9,703781	-1,406739	0,167612	2020-10-29T19:50:18:713
-9,733705	-1,181682	0,170338	2020-10-29T19:50:18:734
-9,744499	-1,085269	0,193141	2020-10-29T19:50:18:751
-9,769198	-0,844666	0,140281	2020-10-29T19:50:18:775
-9,779618	-0,711987	0,150084	2020-10-29T19:50:18:793
-9,776429	-0,726146	0,254032	2020-10-29T19:50:18:813
-9,750663	-0,923395	0,492249	2020-10-29T19:50:18:834
-9,708093	-1,178349	0,731313	2020-10-29T19:50:18:855
-9,617710	-1,649602	0,974093	2020-10-29T19:50:18:873
-9,564482	-1,876637	1,081340	2020-10-29T19:50:18:894
-9,503463	-2,127601	1,152341	2020-10-29T19:50:18:913
-9,441091	-2,370158	1,191024	2020-10-29T19:50:18:935
-9,373075	-2,617154	1,210925	2020-10-29T19:50:18:955
-9,292838	-2,885092	1,220565	2020-10-29T19:50:18:974
-9,194155	-3,182246	1,229316	2020-10-29T19:50:18:993
-9,096527	-3,446092	1,244198	2020-10-29T19:50:19:015
-8,988981	-3,707047	1,275303	2020-10-29T19:50:19:033
-8,915542	-3,867952	1,312420	2020-10-29T19:50:19:054
-8,822242	-4,080319	1,299780	2020-10-29T19:50:19:073
-8,750750	-4,230652	1,302440	2020-10-29T19:50:19:096
-8,693931	-4,338592	1,327617	2020-10-29T19:50:19:112
-8,652797	-4,401397	1,388233	2020-10-29T19:50:19:134
-8,633269	-4,406551	1,489747	2020-10-29T19:50:19:153
